SpectraSuite Data File
++++++++++++++++++++++++++++++++++++
Date: Wed Sep 18 03:03:09 EST 2019
User: sgrac
Dark Spectrum Present: Yes
Reference Spectrum Present: Yes
Number of Sampled Component Spectra: 1
Spectrometers: USB4E01596
Integration Time (usec): 100000 (USB4E01596)
Spectra Averaged: 3 (USB4E01596)
Boxcar Smoothing: 0 (USB4E01596)
Correct for Electrical Dark: No (USB4E01596)
Strobe/Lamp Enabled: Yes (USB4E01596)
Correct for Detector Non-linearity: No (USB4E01596)
Correct for Stray Light: No (USB4E01596)
Number of Pixels in Processed Spectrum: 3648
>>>>>Begin Processed Spectral Data<<<<<
178.44	98.387
178.66	98.387
178.87	98.387
179.09	-56.000
179.30	42.391
179.52	65.789
179.74	300.000
179.95	-140.000
180.17	179.070
180.38	-83.333
180.60	181.429
180.82	-312.500
181.03	39.535
181.25	-235.714
181.46	287.500
181.68	6.977
181.89	44.898
182.11	140.000
182.33	111.765
182.54	45.614
182.76	-52.174
182.97	121.429
183.19	48.913
183.40	29.545
183.62	82.692
183.84	-43.548
184.05	-48.485
184.27	62.295
184.48	437.500
184.70	-141.667
184.91	136.957
185.13	6.250
185.34	111.667
185.56	33.333
185.78	238.889
185.99	3.279
186.21	48.780
186.42	80.000
186.64	18.182
186.85	137.500
187.07	-207.143
187.28	2.381
187.50	88.235
187.72	110.000
187.93	2.410
188.15	42.647
188.36	-235.294
188.58	-28.571
188.79	-1000.000
189.01	4.082
189.22	98.701
189.44	129.167
189.65	55.056
189.87	88.158
190.09	59.574
190.30	106.667
190.52	181.250
190.73	33.735
190.95	190.909
191.16	-2.985
191.38	2200.000
191.59	-30.435
191.81	24.286
192.02	30.769
192.24	70.968
192.45	80.000
192.67	53.030
192.88	42.187
193.10	25.000
193.31	1.786
193.53	83.871
193.74	-18.182
193.96	10.169
194.18	234.783
194.39	54.902
194.61	317.241
194.82	-84.615
195.04	-64.444
195.25	77.049
195.47	-275.000
195.68	-14.085
195.90	-7.692
196.11	31.250
196.33	147.059
196.54	93.023
196.76	-100.000
196.97	98.000
197.19	-105.000
197.40	63.158
197.62	-90.909
197.83	125.000
198.05	24.161
198.26	88.000
198.48	-41.667
198.69	66.055
198.91	117.391
199.12	-75.000
199.34	456.000
199.55	-2600.000
199.77	30.263
199.98	-233.333
200.20	-58.824
200.41	29.577
200.63	-96.296
200.84	-152.381
201.06	-77.419
201.27	13.580
201.49	17.187
201.70	144.262
201.91	52.273
202.13	30.000
202.34	105.714
202.56	110.000
202.77	19.767
202.99	65.854
203.20	72.340
203.42	67.143
203.63	40.367
203.85	68.966
204.06	4.545
204.28	106.667
204.49	-2.326
204.71	18.487
204.92	-3.846
205.14	-373.684
205.35	750.000
205.56	32.394
205.78	-32.099
205.99	45.802
206.21	39.394
206.42	-76.087
206.64	50.000
206.85	64.444
207.07	-40.000
207.28	-15.909
207.50	26.087
207.71	18.605
207.93	72.917
208.14	48.837
208.35	122.034
208.57	32.000
208.78	74.468
209.00	48.387
209.21	71.127
209.43	77.778
209.64	3.846
209.86	72.727
210.07	34.177
210.28	18.072
210.50	40.580
210.71	39.394
210.93	74.545
211.14	-2.500
211.36	133.333
211.57	40.000
211.78	-88.462
212.00	75.676
212.21	-222.222
212.43	-246.154
212.64	181.250
212.86	34.545
213.07	78.846
213.29	84.694
213.50	21.667
213.71	2.500
213.93	33.708
214.14	-193.750
214.36	-107.317
214.57	27.381
214.78	-675.000
215.00	29.268
215.21	53.333
215.43	-840.000
215.64	98.571
215.86	119.118
216.07	-26.027
216.28	148.000
216.50	-76.000
216.71	-446.667
216.93	-1900.000
217.14	-110.526
217.35	32.203
217.57	-19.318
217.78	-127.586
218.00	45.714
218.21	2.941
218.42	-350.000
218.64	3.571
218.85	116.176
219.07	-95.349
219.28	-102.083
219.49	-900.000
219.71	-44.776
219.92	76.316
220.14	2400.000
220.35	93.151
220.56	-115.217
220.78	68.293
220.99	117.778
221.21	42.169
221.42	49.342
221.63	100.000
221.85	256.667
222.06	74.747
222.28	107.143
222.49	38.596
222.70	87.931
222.92	-63.158
223.13	41.096
223.34	-58.333
223.56	35.897
223.77	130.864
223.99	69.697
224.20	-71.429
224.41	41.818
224.63	42.045
224.84	-3.226
225.05	50.820
225.27	80.000
225.48	-30.488
225.69	15.625
225.91	73.846
226.12	28.000
226.34	51.961
226.55	47.170
226.76	6.202
226.98	8.974
227.19	2.857
227.40	-1.408
227.62	7.692
227.83	1.905
228.04	25.405
228.26	19.595
228.47	-6.250
228.69	4.918
228.90	10.082
229.11	23.876
229.33	13.034
229.54	11.390
229.75	19.031
229.97	18.105
230.18	22.128
230.39	25.332
230.61	15.986
230.82	49.857
231.03	18.233
231.25	26.308
231.46	24.750
231.67	17.058
231.89	20.613
232.10	26.863
232.31	28.679
232.53	26.889
232.74	24.096
232.95	10.297
233.17	22.075
233.38	17.494
233.59	30.022
233.81	22.601
234.02	12.968
234.23	17.969
234.45	23.743
234.66	17.822
234.87	32.809
235.09	11.005
235.30	17.839
235.51	25.564
235.73	14.489
235.94	16.176
236.15	11.514
236.36	13.034
236.58	33.712
236.79	15.672
237.00	14.339
237.22	12.707
237.43	16.352
237.64	9.073
237.86	21.341
238.07	20.490
238.28	1.931
238.50	18.405
238.71	26.346
238.92	2.050
239.13	15.171
239.35	30.056
239.56	13.800
239.77	38.086
239.99	10.338
240.20	26.667
240.41	7.943
240.63	25.919
240.84	23.762
241.05	8.889
241.26	20.214
241.48	17.960
241.69	25.484
241.90	13.738
242.12	29.171
242.33	35.351
242.54	36.923
242.75	21.768
242.97	51.800
243.18	39.806
243.39	38.838
243.61	39.371
243.82	53.302
244.03	49.234
244.24	45.460
244.46	41.303
244.67	44.893
244.88	42.181
245.09	44.318
245.31	27.495
245.52	30.499
245.73	32.114
245.95	38.337
246.16	37.539
246.37	32.828
246.58	31.790
246.80	35.133
247.01	44.882
247.22	35.963
247.43	44.125
247.65	54.402
247.86	50.059
248.07	51.547
248.28	55.810
248.50	59.353
248.71	54.269
248.92	62.907
249.13	55.239
249.35	60.525
249.56	55.911
249.77	53.563
249.98	48.001
250.20	52.548
250.41	51.150
250.62	50.974
250.83	34.930
251.05	39.671
251.26	31.404
251.47	34.817
251.68	28.647
251.90	17.860
252.11	31.828
252.32	29.693
252.53	36.943
252.75	28.949
252.96	34.855
253.17	43.985
253.38	35.604
253.59	36.298
253.81	30.069
254.02	31.682
254.23	32.124
254.44	37.687
254.66	30.845
254.87	36.192
255.08	22.772
255.29	33.078
255.50	20.713
255.72	28.400
255.93	24.498
256.14	26.413
256.35	18.808
256.57	16.786
256.78	17.229
256.99	21.673
257.20	20.000
257.41	15.301
257.63	21.492
257.84	26.839
258.05	19.516
258.26	20.206
258.47	23.204
258.69	30.576
258.90	14.127
259.11	33.066
259.32	30.579
259.53	38.449
259.75	30.106
259.96	38.878
260.17	40.184
260.38	45.941
260.59	47.285
260.81	52.828
261.02	50.883
261.23	54.798
261.44	53.018
261.65	58.146
261.87	50.161
262.08	54.792
262.29	53.796
262.50	48.287
262.71	43.049
262.92	49.508
263.14	38.955
263.35	41.181
263.56	32.955
263.77	37.633
263.98	28.454
264.20	38.730
264.41	23.892
264.62	22.712
264.83	21.064
265.04	37.884
265.25	29.065
265.47	39.750
265.68	29.814
265.89	22.898
266.10	23.105
266.31	33.313
266.52	26.228
266.74	28.870
266.95	26.439
267.16	30.852
267.37	30.876
267.58	34.121
267.79	33.547
268.01	35.883
268.22	37.290
268.43	37.763
268.64	43.238
268.85	35.605
269.06	32.589
269.27	42.255
269.49	32.730
269.70	32.314
269.91	36.737
270.12	39.263
270.33	38.967
270.54	37.021
270.75	28.464
270.97	33.827
271.18	26.098
271.39	35.297
271.60	36.087
271.81	36.162
272.02	36.496
272.23	43.669
272.45	36.906
272.66	38.296
272.87	39.530
273.08	44.770
273.29	46.324
273.50	47.175
273.71	38.822
273.92	44.556
274.14	38.383
274.35	47.435
274.56	43.860
274.77	46.842
274.98	43.071
275.19	41.504
275.40	38.591
275.61	38.224
275.83	33.075
276.04	42.017
276.25	36.915
276.46	41.071
276.67	40.119
276.88	43.497
277.09	36.906
277.30	43.380
277.51	31.829
277.73	35.980
277.94	32.423
278.15	40.106
278.36	39.549
278.57	31.709
278.78	39.729
278.99	35.493
279.20	36.247
279.41	41.504
279.62	29.942
279.84	33.130
280.05	28.237
280.26	31.280
280.47	37.238
280.68	34.135
280.89	32.093
281.10	36.510
281.31	34.794
281.52	43.464
281.73	30.458
281.94	34.540
282.16	32.893
282.37	37.305
282.58	34.980
282.79	41.843
283.00	40.013
283.21	35.328
283.42	35.683
283.63	40.122
283.84	34.924
284.05	37.195
284.26	35.088
284.47	39.898
284.68	38.192
284.89	39.072
285.11	35.411
285.32	38.236
285.53	34.160
285.74	42.512
285.95	38.401
286.16	42.886
286.37	37.990
286.58	42.095
286.79	39.394
287.00	42.794
287.21	37.262
287.42	41.775
287.63	42.376
287.84	41.124
288.05	39.369
288.26	41.143
288.48	40.141
288.69	39.368
288.90	38.945
289.11	41.381
289.32	39.151
289.53	39.318
289.74	30.463
289.95	33.755
290.16	37.819
290.37	36.008
290.58	32.766
290.79	34.483
291.00	35.681
291.21	36.230
291.42	34.299
291.63	36.458
291.84	36.668
292.05	36.093
292.26	35.387
292.47	36.128
292.68	30.932
292.89	38.441
293.10	35.409
293.31	39.065
293.52	26.663
293.73	31.164
293.94	31.822
294.15	27.883
294.36	30.347
294.57	35.201
294.79	30.785
295.00	30.150
295.21	32.701
295.42	34.852
295.63	33.794
295.84	32.322
296.05	30.552
296.26	35.499
296.47	34.346
296.68	36.442
296.89	38.250
297.10	37.849
297.31	35.493
297.52	36.604
297.73	35.572
297.94	36.867
298.15	36.064
298.36	36.633
298.57	35.680
298.78	40.191
298.99	34.326
299.20	40.709
299.41	38.477
299.62	35.931
299.83	34.046
300.04	36.972
300.25	35.758
300.46	37.503
300.67	34.896
300.88	35.492
301.09	27.696
301.30	34.666
301.50	29.866
301.71	36.175
301.92	33.140
302.13	29.013
302.34	30.412
302.55	27.237
302.76	29.288
302.97	31.770
303.18	27.339
303.39	27.619
303.60	28.168
303.81	34.446
304.02	26.590
304.23	32.177
304.44	23.492
304.65	27.764
304.86	28.754
305.07	29.267
305.28	26.187
305.49	32.054
305.70	28.509
305.91	29.277
306.12	25.975
306.33	30.298
306.54	29.210
306.75	29.858
306.96	33.703
307.17	27.263
307.38	22.879
307.58	29.953
307.79	25.910
308.00	30.546
308.21	22.097
308.42	27.747
308.63	26.898
308.84	28.209
309.05	27.634
309.26	27.310
309.47	27.816
309.68	30.651
309.89	30.151
310.10	28.331
310.31	25.646
310.52	32.469
310.73	33.279
310.94	29.128
311.14	27.718
311.35	33.333
311.56	27.078
311.77	29.381
311.98	28.993
312.19	33.441
312.40	27.336
312.61	31.934
312.82	29.104
313.03	32.701
313.24	25.658
313.45	33.019
313.66	29.040
313.86	31.342
314.07	28.516
314.28	29.587
314.49	25.260
314.70	27.937
314.91	30.003
315.12	30.392
315.33	30.371
315.54	25.085
315.75	24.050
315.96	25.252
316.16	21.917
316.37	33.291
316.58	24.981
316.79	26.913
317.00	28.830
317.21	27.644
317.42	29.250
317.63	29.263
317.84	25.072
318.05	27.948
318.25	24.322
318.46	26.940
318.67	25.206
318.88	30.055
319.09	29.466
319.30	24.576
319.51	24.315
319.72	25.990
319.93	23.891
320.13	25.348
320.34	27.556
320.55	25.137
320.76	26.142
320.97	29.128
321.18	29.657
321.39	25.718
321.60	21.048
321.80	30.210
322.01	25.066
322.22	29.781
322.43	21.719
322.64	21.719
322.85	25.649
323.06	29.033
323.27	28.894
323.47	28.684
323.68	26.332
323.89	26.765
324.10	27.425
324.31	28.403
324.52	27.719
324.73	29.658
324.93	24.895
325.14	30.453
325.35	29.368
325.56	29.838
325.77	31.108
325.98	26.705
326.19	29.466
326.39	24.452
326.60	28.259
326.81	29.251
327.02	24.278
327.23	27.811
327.44	31.800
327.64	26.432
327.85	25.080
328.06	32.541
328.27	34.275
328.48	32.146
328.69	25.479
328.90	28.283
329.10	23.627
329.31	27.459
329.52	28.349
329.73	30.992
329.94	25.541
330.15	31.187
330.35	29.418
330.56	29.777
330.77	26.846
330.98	27.224
331.19	26.815
331.39	26.781
331.60	26.306
331.81	29.819
332.02	31.125
332.23	28.427
332.44	27.048
332.64	31.090
332.85	28.341
333.06	32.529
333.27	23.902
333.48	33.599
333.68	28.284
333.89	31.618
334.10	26.938
334.31	33.420
334.52	29.007
334.72	31.151
334.93	28.568
335.14	28.762
335.35	28.181
335.56	34.489
335.76	28.665
335.97	33.797
336.18	26.473
336.39	37.147
336.60	32.276
336.80	32.760
337.01	30.996
337.22	33.570
337.43	33.837
337.64	38.890
337.84	32.303
338.05	34.844
338.26	35.426
338.47	35.957
338.68	29.750
338.88	37.672
339.09	32.779
339.30	36.526
339.51	33.511
339.71	40.511
339.92	32.772
340.13	37.418
340.34	34.177
340.55	35.472
340.75	33.217
340.96	34.121
341.17	37.959
341.38	35.818
341.58	37.242
341.79	39.449
342.00	34.003
342.21	38.520
342.41	34.533
342.62	39.130
342.83	38.226
343.04	36.188
343.24	40.985
343.45	41.507
343.66	38.812
343.87	39.596
344.07	39.019
344.28	42.535
344.49	41.133
344.70	42.572
344.90	38.963
345.11	40.243
345.32	40.660
345.53	42.413
345.73	42.391
345.94	44.261
346.15	44.188
346.36	44.945
346.56	44.526
346.77	45.061
346.98	43.606
347.19	45.400
347.39	45.359
347.60	45.318
347.81	43.934
348.02	45.973
348.22	43.477
348.43	44.455
348.64	41.607
348.84	45.508
349.05	44.312
349.26	47.010
349.47	42.402
349.67	43.993
349.88	45.049
350.09	46.224
350.30	46.587
350.50	46.080
350.71	46.980
350.92	47.071
351.12	46.388
351.33	45.503
351.54	44.063
351.74	49.629
351.95	44.301
352.16	48.254
352.37	45.008
352.57	47.246
352.78	45.140
352.99	47.028
353.19	44.699
353.40	47.075
353.61	47.500
353.82	48.120
354.02	45.379
354.23	48.724
354.44	47.411
354.64	46.795
354.85	45.818
355.06	46.747
355.26	43.717
355.47	50.184
355.68	50.355
355.88	48.850
356.09	46.501
356.30	48.460
356.51	46.804
356.71	49.046
356.92	47.389
357.13	49.078
357.33	49.414
357.54	48.753
357.75	46.913
357.95	48.425
358.16	48.004
358.37	50.918
358.57	47.511
358.78	50.145
358.99	49.481
359.19	48.535
359.40	48.453
359.61	50.622
359.81	48.869
360.02	50.060
360.23	48.235
360.43	48.846
360.64	47.160
360.85	48.817
361.05	47.470
361.26	50.149
361.47	48.223
361.67	48.907
361.88	46.151
362.09	50.433
362.29	46.298
362.50	47.446
362.70	47.289
362.91	48.654
363.12	48.275
363.32	49.056
363.53	47.806
363.74	48.906
363.94	46.786
364.15	49.238
364.36	46.865
364.56	47.300
364.77	46.951
364.98	49.644
365.18	46.113
365.39	48.366
365.59	45.515
365.80	47.535
366.01	47.436
366.21	47.761
366.42	46.868
366.63	48.313
366.83	46.123
367.04	47.153
367.24	45.703
367.45	46.423
367.66	45.012
367.86	46.224
368.07	45.083
368.28	46.996
368.48	44.959
368.69	45.688
368.89	44.704
369.10	44.785
369.31	44.486
369.51	46.297
369.72	45.974
369.92	47.651
370.13	44.278
370.34	45.001
370.54	42.816
370.75	44.240
370.95	44.677
371.16	44.560
371.37	44.790
371.57	44.542
371.78	44.129
371.98	42.922
372.19	44.699
372.40	45.396
372.60	43.944
372.81	46.395
373.01	43.918
373.22	44.710
373.43	45.446
373.63	45.645
373.84	44.201
374.04	44.325
374.25	43.839
374.46	43.647
374.66	42.562
374.87	44.493
375.07	41.102
375.28	42.954
375.48	42.463
375.69	45.116
375.90	42.005
376.10	43.147
376.31	41.882
376.51	43.043
376.72	41.264
376.92	43.891
377.13	43.241
377.34	43.756
377.54	42.855
377.75	43.275
377.95	42.709
378.16	43.107
378.36	43.662
378.57	44.265
378.77	41.359
378.98	43.274
379.19	42.423
379.39	43.155
379.60	42.655
379.80	42.753
380.01	41.797
380.21	43.344
380.42	42.213
380.62	43.307
380.83	42.308
381.04	42.608
381.24	42.874
381.45	41.492
381.65	41.816
381.86	42.577
382.06	41.888
382.27	41.037
382.47	40.736
382.68	41.717
382.88	38.333
383.09	41.294
383.29	41.439
383.50	40.845
383.71	40.649
383.91	40.592
384.12	40.502
384.32	42.437
384.53	41.015
384.73	39.465
384.94	39.481
385.14	41.054
385.35	39.600
385.55	40.009
385.76	40.158
385.96	41.408
386.17	41.013
386.37	40.106
386.58	41.088
386.78	40.928
386.99	39.060
387.19	41.666
387.40	39.538
387.60	41.440
387.81	39.657
388.01	41.455
388.22	41.209
388.42	41.685
388.63	39.912
388.83	40.777
389.04	39.586
389.24	40.794
389.45	38.492
389.65	38.834
389.86	38.740
390.06	39.450
390.27	38.799
390.47	39.199
390.68	38.516
390.88	39.355
391.09	40.257
391.29	39.976
391.50	39.033
391.70	40.143
391.91	38.684
392.11	38.284
392.32	38.666
392.52	39.501
392.73	38.255
392.93	38.582
393.14	39.006
393.34	39.068
393.55	38.676
393.75	39.290
393.95	39.548
394.16	40.367
394.36	37.778
394.57	39.847
394.77	37.993
394.98	37.575
395.18	38.125
395.39	38.535
395.59	38.017
395.80	39.615
396.00	37.866
396.21	39.437
396.41	36.817
396.61	37.669
396.82	38.103
397.02	38.936
397.23	37.806
397.43	38.268
397.64	36.982
397.84	38.940
398.05	36.643
398.25	39.171
398.45	36.837
398.66	38.896
398.86	37.064
399.07	38.882
399.27	37.359
399.48	37.355
399.68	37.192
399.89	37.507
400.09	38.130
400.29	37.122
400.50	36.353
400.70	37.962
400.91	36.784
401.11	38.142
401.32	36.899
401.52	37.150
401.72	36.794
401.93	37.358
402.13	36.013
402.34	37.236
402.54	36.352
402.75	37.403
402.95	35.529
403.15	35.901
403.36	36.293
403.56	36.715
403.77	35.223
403.97	37.175
404.17	36.566
404.38	37.694
404.58	36.255
404.79	37.067
404.99	36.833
405.19	36.020
405.40	36.281
405.60	36.267
405.81	34.983
406.01	36.375
406.21	36.240
406.42	36.513
406.62	35.536
406.83	36.429
407.03	36.426
407.23	35.117
407.44	35.801
407.64	35.726
407.85	34.437
408.05	36.212
408.25	35.956
408.46	36.798
408.66	35.014
408.87	35.700
409.07	34.398
409.27	35.492
409.48	33.938
409.68	35.685
409.88	33.954
410.09	35.537
410.29	36.134
410.50	35.349
410.70	33.751
410.90	35.508
411.11	35.050
411.31	35.312
411.51	34.805
411.72	35.190
411.92	35.127
412.12	35.092
412.33	33.833
412.53	35.150
412.74	34.711
412.94	35.101
413.14	33.752
413.35	34.821
413.55	34.306
413.75	34.136
413.96	34.491
414.16	35.087
414.36	33.956
414.57	34.867
414.77	34.248
414.97	34.284
415.18	33.916
415.38	34.205
415.58	34.908
415.79	34.312
415.99	33.753
416.19	34.674
416.40	33.779
416.60	34.807
416.80	33.748
417.01	34.380
417.21	33.852
417.41	34.586
417.62	34.053
417.82	34.040
418.02	33.495
418.23	34.631
418.43	34.087
418.63	34.314
418.84	34.122
419.04	34.050
419.24	33.564
419.45	34.283
419.65	33.920
419.85	34.306
420.06	33.967
420.26	34.365
420.46	33.732
420.67	34.225
420.87	33.809
421.07	34.245
421.28	33.856
421.48	33.932
421.68	33.143
421.88	33.742
422.09	34.180
422.29	33.627
422.49	33.338
422.70	33.894
422.90	33.651
423.10	33.125
423.31	33.426
423.51	33.229
423.71	33.602
423.91	33.503
424.12	33.174
424.32	33.431
424.52	32.956
424.73	33.657
424.93	32.968
425.13	33.686
425.33	32.396
425.54	33.054
425.74	33.257
425.94	33.091
426.15	32.970
426.35	32.919
426.55	32.937
426.75	33.143
426.96	32.343
427.16	32.893
427.36	32.591
427.57	33.143
427.77	32.479
427.97	32.768
428.17	32.850
428.38	32.186
428.58	32.470
428.78	33.043
428.98	31.822
429.19	32.704
429.39	31.554
429.59	33.037
429.79	31.723
430.00	32.040
430.20	32.238
430.40	33.262
430.60	32.077
430.81	32.002
431.01	32.207
431.21	32.782
431.41	30.973
431.62	32.620
431.82	31.392
432.02	31.868
432.22	31.967
432.43	32.526
432.63	32.105
432.83	32.469
433.03	31.575
433.24	32.208
433.44	31.665
433.64	31.851
433.84	31.200
434.05	31.986
434.25	31.942
434.45	31.936
434.65	31.821
434.85	32.176
435.06	31.534
435.26	32.086
435.46	32.003
435.66	31.481
435.87	31.873
436.07	32.313
436.27	32.186
436.47	32.001
436.67	32.330
436.88	32.350
437.08	31.728
437.28	31.829
437.48	32.228
437.69	30.973
437.89	31.874
438.09	31.014
438.29	31.324
438.49	31.779
438.70	31.685
438.90	31.515
439.10	30.960
439.30	31.838
439.50	32.073
439.71	31.642
439.91	31.264
440.11	31.388
440.31	31.387
440.51	32.100
440.72	31.538
440.92	31.735
441.12	31.219
441.32	31.610
441.52	31.251
441.72	31.281
441.93	30.938
442.13	31.216
442.33	31.112
442.53	31.612
442.73	31.456
442.94	30.808
443.14	30.850
443.34	31.455
443.54	30.764
443.74	30.947
443.94	30.892
444.15	31.153
444.35	30.677
444.55	31.063
444.75	31.293
444.95	31.369
445.15	31.067
445.36	31.673
445.56	30.933
445.76	30.649
445.96	30.678
446.16	31.511
446.36	30.557
446.57	31.004
446.77	30.774
446.97	30.439
447.17	30.867
447.37	30.760
447.57	31.282
447.77	30.421
447.98	31.178
448.18	30.931
448.38	30.852
448.58	30.419
448.78	31.311
448.98	30.739
449.18	31.088
449.39	30.579
449.59	30.658
449.79	30.963
449.99	30.079
450.19	30.314
450.39	30.364
450.59	31.093
450.79	31.017
451.00	30.382
451.20	30.447
451.40	31.050
451.60	30.218
451.80	30.382
452.00	30.781
452.20	31.510
452.40	30.472
452.61	30.330
452.81	30.014
453.01	30.068
453.21	30.721
453.41	30.783
453.61	30.301
453.81	30.254
454.01	30.530
454.21	30.646
454.42	30.336
454.62	30.247
454.82	30.062
455.02	30.939
455.22	30.260
455.42	30.841
455.62	30.225
455.82	30.235
456.02	30.343
456.23	30.340
456.43	29.801
456.63	30.269
456.83	30.538
457.03	30.963
457.23	30.296
457.43	30.712
457.63	29.979
457.83	30.161
458.03	30.060
458.23	30.503
458.43	30.489
458.64	30.594
458.84	30.245
459.04	30.044
459.24	30.592
459.44	30.187
459.64	30.111
459.84	30.048
460.04	30.484
460.24	30.077
460.44	30.221
460.64	30.210
460.84	29.817
461.04	30.134
461.24	30.001
461.45	30.136
461.65	29.962
461.85	29.938
462.05	30.238
462.25	30.262
462.45	29.934
462.65	30.238
462.85	30.184
463.05	29.844
463.25	29.912
463.45	29.449
463.65	30.490
463.85	29.978
464.05	30.105
464.25	30.299
464.45	29.906
464.65	29.464
464.85	29.792
465.05	30.418
465.26	29.809
465.46	30.053
465.66	29.526
465.86	29.538
466.06	30.262
466.26	29.927
466.46	29.995
466.66	29.698
466.86	29.971
467.06	29.372
467.26	29.978
467.46	29.856
467.66	29.547
467.86	30.432
468.06	30.279
468.26	30.316
468.46	30.319
468.66	29.956
468.86	29.408
469.06	30.589
469.26	29.574
469.46	29.521
469.66	29.339
469.86	29.539
470.06	29.363
470.26	29.430
470.46	29.804
470.66	29.573
470.86	28.885
471.06	29.580
471.26	29.824
471.46	29.841
471.66	28.824
471.86	29.679
472.06	30.172
472.26	29.706
472.46	29.437
472.66	29.448
472.86	29.906
473.06	29.746
473.26	29.818
473.46	29.602
473.66	29.828
473.86	29.562
474.06	29.919
474.26	29.503
474.46	29.897
474.66	29.758
474.86	30.202
475.06	29.814
475.26	29.769
475.46	29.704
475.66	28.914
475.86	30.273
476.06	30.106
476.26	29.760
476.46	28.966
476.66	29.776
476.86	29.060
477.06	29.404
477.26	29.120
477.46	29.460
477.65	29.401
477.85	29.937
478.05	29.201
478.25	29.777
478.45	29.571
478.65	29.484
478.85	29.388
479.05	29.348
479.25	29.320
479.45	29.025
479.65	29.473
479.85	30.041
480.05	29.839
480.25	29.488
480.45	28.860
480.65	29.686
480.85	29.972
481.05	29.382
481.25	29.262
481.44	29.925
481.64	29.435
481.84	29.628
482.04	29.527
482.24	29.332
482.44	29.127
482.64	29.360
482.84	29.548
483.04	29.233
483.24	28.966
483.44	29.559
483.64	29.426
483.84	29.675
484.04	29.371
484.23	29.617
484.43	29.742
484.63	30.147
484.83	30.035
485.03	30.175
485.23	30.123
485.43	30.204
485.63	30.014
485.83	29.908
486.03	29.759
486.23	29.597
486.42	29.583
486.62	29.302
486.82	29.439
487.02	29.572
487.22	28.989
487.42	29.416
487.62	29.351
487.82	29.263
488.02	29.360
488.22	29.468
488.41	29.169
488.61	29.071
488.81	29.373
489.01	29.452
489.21	29.531
489.41	29.289
489.61	29.289
489.81	29.279
490.01	29.312
490.20	29.619
490.40	29.058
490.60	29.469
490.80	28.991
491.00	29.508
491.20	29.265
491.40	29.222
491.60	29.123
491.79	28.822
491.99	28.964
492.19	29.574
492.39	29.312
492.59	29.171
492.79	29.142
492.99	29.289
493.19	29.393
493.38	29.148
493.58	28.809
493.78	29.422
493.98	29.058
494.18	29.167
494.38	29.144
494.58	29.089
494.77	28.735
494.97	29.021
495.17	28.779
495.37	28.893
495.57	29.228
495.77	28.785
495.96	29.564
496.16	29.142
496.36	28.969
496.56	29.463
496.76	29.073
496.96	28.642
497.15	28.722
497.35	29.318
497.55	29.222
497.75	29.439
497.95	28.847
498.15	28.588
498.34	28.919
498.54	29.373
498.74	28.619
498.94	28.920
499.14	28.833
499.34	28.906
499.53	28.558
499.73	29.002
499.93	28.488
500.13	29.318
500.33	29.034
500.52	29.281
500.72	29.165
500.92	29.284
501.12	28.802
501.32	29.082
501.52	29.132
501.71	28.744
501.91	29.069
502.11	29.085
502.31	29.773
502.51	28.960
502.70	28.546
502.90	29.190
503.10	28.958
503.30	28.871
503.50	28.908
503.69	29.461
503.89	29.372
504.09	29.505
504.29	28.881
504.48	29.175
504.68	28.963
504.88	29.248
505.08	29.284
505.28	28.980
505.47	29.340
505.67	28.870
505.87	29.168
506.07	29.433
506.27	28.624
506.46	29.329
506.66	28.589
506.86	29.391
507.06	28.932
507.25	29.570
507.45	29.351
507.65	28.954
507.85	29.069
508.04	28.847
508.24	29.158
508.44	28.867
508.64	29.369
508.83	29.353
509.03	28.764
509.23	28.659
509.43	29.446
509.63	29.357
509.82	29.316
510.02	29.099
510.22	29.006
510.42	29.406
510.61	29.107
510.81	29.161
511.01	28.989
511.21	29.166
511.40	29.549
511.60	29.090
511.80	29.308
511.99	28.826
512.19	28.946
512.39	28.860
512.59	28.702
512.78	29.357
512.98	28.606
513.18	29.143
513.38	28.868
513.57	29.316
513.77	29.249
513.97	28.667
514.17	28.975
514.36	28.879
514.56	29.484
514.76	29.019
514.95	28.717
515.15	29.212
515.35	29.068
515.55	28.767
515.74	28.876
515.94	29.241
516.14	29.227
516.33	28.792
516.53	28.962
516.73	28.866
516.93	29.322
517.12	29.345
517.32	29.108
517.52	29.377
517.71	28.857
517.91	29.107
518.11	28.820
518.30	29.568
518.50	29.540
518.70	29.350
518.90	29.258
519.09	29.044
519.29	29.172
519.49	29.396
519.68	29.357
519.88	29.381
520.08	29.211
520.27	28.979
520.47	28.994
520.67	29.382
520.86	28.890
521.06	29.138
521.26	29.214
521.45	29.472
521.65	28.873
521.85	29.139
522.04	28.664
522.24	28.850
522.44	29.012
522.63	28.808
522.83	29.221
523.03	29.316
523.22	29.128
523.42	29.379
523.62	29.145
523.81	29.188
524.01	28.929
524.21	29.485
524.40	28.897
524.60	29.380
524.80	29.047
524.99	29.061
525.19	29.315
525.39	29.781
525.58	29.379
525.78	28.940
525.98	29.402
526.17	28.898
526.37	29.321
526.57	29.327
526.76	28.994
526.96	29.077
527.15	29.265
527.35	29.540
527.55	29.488
527.74	29.346
527.94	29.137
528.14	29.112
528.33	28.732
528.53	29.093
528.72	29.284
528.92	29.624
529.12	29.551
529.31	30.058
529.51	29.528
529.71	29.734
529.90	29.920
530.10	29.704
530.29	29.625
530.49	29.767
530.69	29.418
530.88	29.771
531.08	29.209
531.28	29.135
531.47	29.212
531.67	29.307
531.86	29.549
532.06	29.469
532.26	29.044
532.45	29.276
532.65	29.322
532.84	29.283
533.04	29.670
533.24	29.578
533.43	29.164
533.63	29.611
533.82	29.393
534.02	29.705
534.22	29.143
534.41	29.404
534.61	29.646
534.80	29.769
535.00	29.513
535.19	29.624
535.39	29.412
535.59	29.370
535.78	29.024
535.98	29.326
536.17	29.554
536.37	29.888
536.57	28.934
536.76	29.646
536.96	30.134
537.15	29.911
537.35	29.544
537.54	29.771
537.74	29.592
537.93	29.633
538.13	29.613
538.33	29.688
538.52	29.809
538.72	29.344
538.91	29.700
539.11	29.633
539.30	29.126
539.50	29.994
539.70	29.085
539.89	29.308
540.09	29.759
540.28	29.855
540.48	29.923
540.67	29.588
540.87	29.717
541.06	30.281
541.26	29.921
541.45	30.135
541.65	29.762
541.85	30.386
542.04	29.920
542.24	30.231
542.43	29.834
542.63	29.995
542.82	29.982
543.02	30.515
543.21	30.382
543.41	30.154
543.60	30.220
543.80	30.438
543.99	29.935
544.19	30.059
544.38	29.738
544.58	30.349
544.77	30.050
544.97	30.510
545.16	30.258
545.36	30.482
545.56	29.836
545.75	30.807
545.95	30.403
546.14	30.396
546.34	30.234
546.53	30.423
546.73	30.627
546.92	30.775
547.12	30.559
547.31	30.947
547.51	30.763
547.70	30.956
547.90	30.564
548.09	30.734
548.29	30.897
548.48	30.571
548.68	30.642
548.87	31.263
549.07	30.952
549.26	30.828
549.46	30.657
549.65	30.395
549.84	30.939
550.04	31.338
550.23	31.243
550.43	31.030
550.62	31.417
550.82	31.717
551.01	31.274
551.21	31.758
551.40	32.134
551.60	31.085
551.79	31.347
551.99	32.491
552.18	31.555
552.38	32.028
552.57	31.826
552.77	32.223
552.96	31.637
553.16	32.058
553.35	31.980
553.54	32.110
553.74	31.787
553.93	32.243
554.13	31.722
554.32	31.931
554.52	32.038
554.71	32.221
554.91	32.283
555.10	32.956
555.29	32.071
555.49	32.805
555.68	32.362
555.88	33.060
556.07	33.228
556.27	32.733
556.46	32.537
556.66	32.237
556.85	32.471
557.04	33.274
557.24	32.750
557.43	32.883
557.63	33.453
557.82	33.804
558.02	33.554
558.21	32.806
558.40	33.402
558.60	33.635
558.79	33.744
558.99	33.423
559.18	34.215
559.38	33.457
559.57	34.000
559.76	33.477
559.96	33.324
560.15	33.914
560.35	33.853
560.54	34.157
560.73	33.778
560.93	34.104
561.12	34.423
561.32	35.450
561.51	34.557
561.70	35.383
561.90	35.041
562.09	35.178
562.29	34.789
562.48	35.173
562.67	34.309
562.87	34.586
563.06	35.054
563.26	35.244
563.45	34.630
563.64	35.202
563.84	35.034
564.03	35.422
564.23	35.294
564.42	36.010
564.61	35.697
564.81	36.440
565.00	35.204
565.20	35.570
565.39	36.241
565.58	35.341
565.78	35.810
565.97	36.189
566.16	36.639
566.36	36.428
566.55	35.802
566.74	36.080
566.94	36.355
567.13	36.097
567.33	36.528
567.52	36.675
567.71	36.730
567.91	36.632
568.10	36.126
568.29	36.814
568.49	36.279
568.68	37.459
568.87	37.048
569.07	36.920
569.26	36.637
569.45	36.572
569.65	36.846
569.84	36.739
570.04	37.692
570.23	37.082
570.42	37.411
570.62	38.274
570.81	37.285
571.00	37.359
571.20	37.580
571.39	37.485
571.58	38.097
571.78	37.769
571.97	38.589
572.16	38.051
572.36	38.047
572.55	37.428
572.74	37.899
572.94	37.484
573.13	37.623
573.32	38.823
573.51	38.691
573.71	38.053
573.90	38.191
574.09	37.719
574.29	37.449
574.48	38.347
574.67	38.710
574.87	38.589
575.06	37.884
575.25	39.213
575.45	38.511
575.64	38.191
575.83	38.463
576.03	38.031
576.22	38.544
576.41	38.959
576.60	38.570
576.80	38.250
576.99	37.923
577.18	38.861
577.38	39.030
577.57	38.793
577.76	37.961
577.95	38.547
578.15	38.911
578.34	39.428
578.53	38.572
578.73	38.658
578.92	38.647
579.11	39.118
579.30	38.860
579.50	38.169
579.69	39.202
579.88	38.207
580.08	39.140
580.27	39.343
580.46	38.525
580.65	38.914
580.85	38.173
581.04	38.556
581.23	37.856
581.42	39.118
581.62	38.538
581.81	39.469
582.00	39.029
582.19	38.733
582.39	38.475
582.58	38.470
582.77	38.777
582.96	39.686
583.16	38.497
583.35	38.842
583.54	38.647
583.73	39.160
583.93	38.682
584.12	38.896
584.31	38.769
584.50	39.547
584.70	37.854
584.89	39.310
585.08	38.795
585.27	39.356
585.47	38.314
585.66	38.938
585.85	38.979
586.04	38.510
586.24	38.416
586.43	38.462
586.62	38.385
586.81	38.835
587.00	38.770
587.20	38.144
587.39	38.442
587.58	38.161
587.77	38.591
587.97	38.435
588.16	38.631
588.35	38.173
588.54	38.472
588.73	38.460
588.93	37.948
589.12	38.807
589.31	38.605
589.50	38.266
589.69	38.632
589.89	39.114
590.08	37.711
590.27	38.030
590.46	38.333
590.65	37.883
590.85	38.166
591.04	38.762
591.23	38.644
591.42	38.630
591.61	38.125
591.81	38.220
592.00	38.383
592.19	37.681
592.38	38.406
592.57	38.602
592.77	38.882
592.96	38.423
593.15	38.374
593.34	38.494
593.53	38.653
593.72	38.331
593.92	37.854
594.11	38.435
594.30	38.758
594.49	38.474
594.68	37.707
594.87	38.729
595.07	38.100
595.26	38.839
595.45	38.812
595.64	38.472
595.83	39.660
596.02	38.261
596.22	38.308
596.41	38.621
596.60	38.978
596.79	38.676
596.98	38.999
597.17	39.092
597.37	39.223
597.56	38.718
597.75	38.435
597.94	38.821
598.13	39.855
598.32	38.641
598.51	39.200
598.71	39.182
598.90	38.783
599.09	38.687
599.28	38.953
599.47	39.854
599.66	39.056
599.85	39.282
600.05	38.977
600.24	39.904
600.43	39.254
600.62	39.376
600.81	39.197
601.00	39.673
601.19	39.245
601.38	40.344
601.58	39.653
601.77	39.076
601.96	39.918
602.15	40.075
602.34	39.373
602.53	39.584
602.72	38.896
602.91	39.577
603.10	39.869
603.30	40.219
603.49	40.623
603.68	40.335
603.87	39.761
604.06	40.026
604.25	39.914
604.44	39.749
604.63	39.422
604.82	39.548
605.01	39.407
605.21	40.434
605.40	39.468
605.59	39.793
605.78	40.130
605.97	39.809
606.16	39.624
606.35	40.118
606.54	38.675
606.73	39.636
606.92	39.305
607.11	40.249
607.30	39.503
607.50	40.091
607.69	39.037
607.88	39.317
608.07	39.048
608.26	39.730
608.45	39.992
608.64	40.050
608.83	39.506
609.02	39.926
609.21	39.248
609.40	39.295
609.59	39.248
609.78	38.793
609.97	39.683
610.16	39.100
610.35	39.605
610.55	39.713
610.74	39.485
610.93	38.564
611.12	39.286
611.31	39.462
611.50	38.106
611.69	38.364
611.88	38.669
612.07	39.324
612.26	38.276
612.45	39.827
612.64	38.996
612.83	38.561
613.02	38.583
613.21	38.638
613.40	38.039
613.59	39.791
613.78	39.185
613.97	39.383
614.16	38.274
614.35	38.284
614.54	38.790
614.73	38.867
614.92	38.615
615.11	38.764
615.30	37.797
615.49	38.930
615.68	37.181
615.87	38.387
616.07	37.918
616.26	38.585
616.45	37.759
616.64	37.713
616.83	37.154
617.02	37.786
617.21	37.552
617.40	38.782
617.59	38.225
617.78	38.028
617.97	37.906
618.16	37.756
618.35	36.807
618.54	37.113
618.73	36.256
618.92	37.422
619.11	37.106
619.30	37.990
619.49	36.410
619.68	36.465
619.86	36.513
620.05	36.858
620.24	36.921
620.43	36.623
620.62	35.764
620.81	37.705
621.00	37.742
621.19	37.233
621.38	37.292
621.57	37.007
621.76	36.096
621.95	36.711
622.14	36.278
622.33	37.150
622.52	34.809
622.71	36.549
622.90	35.948
623.09	36.607
623.28	36.195
623.47	36.603
623.66	35.931
623.85	36.580
624.04	36.475
624.23	35.328
624.42	35.595
624.61	35.860
624.80	36.210
624.99	36.493
625.18	36.048
625.36	37.030
625.55	35.330
625.74	36.518
625.93	36.185
626.12	36.150
626.31	36.969
626.50	36.327
626.69	35.279
626.88	35.646
627.07	35.998
627.26	36.002
627.45	35.697
627.64	35.647
627.83	36.033
628.02	35.655
628.20	36.520
628.39	35.880
628.58	36.283
628.77	36.705
628.96	35.907
629.15	36.217
629.34	35.430
629.53	35.226
629.72	35.064
629.91	36.306
630.10	35.646
630.29	36.517
630.47	35.184
630.66	36.033
630.85	36.096
631.04	35.820
631.23	35.008
631.42	35.254
631.61	35.081
631.80	35.766
631.99	35.616
632.18	35.469
632.36	35.208
632.55	36.489
632.74	35.360
632.93	35.433
633.12	35.467
633.31	35.570
633.50	35.382
633.69	35.433
633.88	34.947
634.06	36.193
634.25	35.976
634.44	35.137
634.63	35.403
634.82	35.203
635.01	36.096
635.20	35.094
635.39	35.374
635.57	35.677
635.76	34.997
635.95	34.417
636.14	34.457
636.33	35.279
636.52	34.780
636.71	34.740
636.89	33.642
637.08	35.500
637.27	34.067
637.46	35.865
637.65	34.551
637.84	34.377
638.03	34.846
638.21	36.103
638.40	34.970
638.59	35.438
638.78	34.595
638.97	35.210
639.16	34.775
639.34	35.091
639.53	33.881
639.72	35.022
639.91	34.606
640.10	34.698
640.29	35.281
640.47	34.718
640.66	33.675
640.85	36.033
641.04	35.244
641.23	34.525
641.42	33.246
641.60	34.228
641.79	33.191
641.98	35.371
642.17	32.829
642.36	35.296
642.54	33.534
642.73	35.692
642.92	34.370
643.11	34.214
643.30	32.661
643.49	34.865
643.67	34.584
643.86	34.164
644.05	33.663
644.24	35.172
644.43	34.339
644.61	35.260
644.80	34.728
644.99	34.982
645.18	35.062
645.37	33.760
645.55	33.157
645.74	33.726
645.93	34.124
646.12	33.441
646.31	33.850
646.49	35.506
646.68	33.423
646.87	33.609
647.06	34.260
647.24	35.171
647.43	32.858
647.62	34.578
647.81	33.952
648.00	34.211
648.18	33.112
648.37	33.019
648.56	33.982
648.75	35.128
648.93	33.390
649.12	34.131
649.31	34.062
649.50	34.284
649.68	34.432
649.87	33.883
650.06	33.186
650.25	33.950
650.43	34.131
650.62	34.528
650.81	33.201
651.00	33.006
651.18	33.454
651.37	34.385
651.56	33.028
651.75	35.155
651.93	33.455
652.12	34.863
652.31	33.205
652.50	33.275
652.68	33.313
652.87	35.259
653.06	33.418
653.25	33.518
653.43	33.526
653.62	34.084
653.81	32.552
654.00	34.822
654.18	33.399
654.37	34.388
654.56	32.023
654.74	32.519
654.93	32.423
655.12	32.792
655.31	31.760
655.49	33.044
655.68	32.002
655.87	31.007
656.05	30.775
656.24	31.506
656.43	31.976
656.62	32.473
656.80	31.361
656.99	32.569
657.18	31.102
657.36	32.699
657.55	31.418
657.74	31.790
657.93	30.319
658.11	31.876
658.30	30.197
658.49	32.193
658.67	32.042
658.86	31.131
659.05	29.911
659.23	31.566
659.42	30.391
659.61	31.616
659.79	29.843
659.98	31.760
660.17	31.196
660.35	31.066
660.54	31.630
660.73	32.198
660.91	30.648
661.10	30.256
661.29	29.057
661.47	30.190
661.66	29.490
661.85	30.580
662.03	29.880
662.22	28.769
662.41	28.472
662.59	29.564
662.78	28.212
662.97	29.926
663.15	27.032
663.34	28.354
663.53	27.067
663.71	28.494
663.90	26.651
664.09	29.731
664.27	26.267
664.46	28.772
664.65	27.620
664.83	26.670
665.02	25.187
665.21	26.132
665.39	23.361
665.58	28.140
665.77	26.554
665.95	27.905
666.14	23.925
666.32	28.120
666.51	25.958
666.70	26.327
666.88	25.621
667.07	26.075
667.26	25.039
667.44	26.401
667.63	25.516
667.81	25.131
668.00	27.239
668.19	27.453
668.37	25.353
668.56	26.858
668.75	22.793
668.93	27.719
669.12	25.251
669.30	27.545
669.49	26.061
669.68	27.429
669.86	25.442
670.05	26.472
670.23	25.059
670.42	26.679
670.61	26.480
670.79	26.972
670.98	25.965
671.16	27.616
671.35	24.932
671.54	27.143
671.72	25.995
671.91	27.737
672.09	22.802
672.28	27.046
672.46	26.159
672.65	27.782
672.84	24.802
673.02	27.830
673.21	25.381
673.39	26.381
673.58	25.388
673.77	27.163
673.95	26.017
674.14	27.000
674.32	25.528
674.51	28.240
674.69	25.985
674.88	27.383
675.07	26.714
675.25	28.306
675.44	26.394
675.62	28.666
675.81	26.077
675.99	31.061
676.18	27.924
676.36	28.762
676.55	26.272
676.74	29.155
676.92	29.628
677.11	29.300
677.29	26.183
677.48	29.515
677.66	27.844
677.85	30.457
678.03	27.438
678.22	29.592
678.40	28.898
678.59	27.734
678.78	25.507
678.96	28.661
679.15	27.928
679.33	30.639
679.52	28.852
679.70	30.894
679.89	28.791
680.07	30.793
680.26	27.488
680.44	30.226
680.63	29.568
680.81	29.537
681.00	27.651
681.18	29.859
681.37	29.420
681.55	32.026
681.74	30.650
681.92	31.276
682.11	30.142
682.29	32.014
682.48	29.506
682.66	30.788
682.85	29.775
683.03	31.042
683.22	30.396
683.40	31.997
683.59	31.650
683.77	32.285
683.96	30.250
684.14	32.973
684.33	29.841
684.51	32.357
684.70	31.411
684.88	33.794
685.07	29.876
685.25	33.305
685.44	31.141
685.62	33.603
685.81	30.495
685.99	34.255
686.18	30.460
686.36	33.553
686.55	31.771
686.73	33.251
686.92	33.843
687.10	34.810
687.29	34.575
687.47	34.447
687.65	34.598
687.84	35.305
688.02	35.449
688.21	36.464
688.39	33.462
688.58	37.268
688.76	33.408
688.95	35.859
689.13	33.621
689.32	35.958
689.50	36.998
689.68	38.734
689.87	37.008
690.05	37.607
690.24	36.138
690.42	37.863
690.61	38.435
690.79	39.567
690.98	38.832
691.16	39.807
691.34	37.701
691.53	39.994
691.71	37.057
691.90	41.193
692.08	39.469
692.27	42.816
692.45	40.417
692.63	41.575
692.82	41.816
693.00	42.661
693.19	40.709
693.37	43.943
693.56	43.439
693.74	44.073
693.92	42.724
694.11	44.730
694.29	41.797
694.48	45.842
694.66	45.310
694.84	47.271
695.03	42.492
695.21	45.771
695.40	45.919
695.58	45.500
695.76	45.739
695.95	48.064
696.13	46.201
696.32	46.424
696.50	47.826
696.68	49.430
696.87	45.784
697.05	47.368
697.24	46.451
697.42	51.689
697.60	49.627
697.79	48.706
697.97	49.919
698.16	50.761
698.34	49.475
698.52	50.541
698.71	49.080
698.89	50.670
699.07	49.956
699.26	51.241
699.44	51.534
699.63	51.420
699.81	52.564
699.99	53.029
700.18	52.091
700.36	51.744
700.54	52.304
700.73	53.618
700.91	52.197
701.09	53.599
701.28	54.458
701.46	54.817
701.64	51.624
701.83	53.166
702.01	52.421
702.20	55.290
702.38	54.888
702.56	55.159
702.75	54.278
702.93	54.904
703.11	53.675
703.30	55.591
703.48	55.201
703.66	56.380
703.85	54.408
704.03	57.326
704.21	56.652
704.40	55.945
704.58	55.862
704.76	54.890
704.95	54.971
705.13	56.975
705.31	55.800
705.50	59.109
705.68	55.085
705.86	57.228
706.04	56.395
706.23	57.794
706.41	57.340
706.59	57.402
706.78	56.119
706.96	58.319
707.14	56.270
707.33	58.508
707.51	55.534
707.69	57.861
707.88	56.009
708.06	56.604
708.24	57.663
708.42	57.603
708.61	56.715
708.79	58.044
708.97	59.044
709.16	58.282
709.34	56.337
709.52	58.981
709.71	60.207
709.89	58.096
710.07	58.104
710.25	59.107
710.44	59.477
710.62	58.912
710.80	58.178
710.98	61.057
711.17	59.697
711.35	61.229
711.53	59.298
711.72	59.937
711.90	60.094
712.08	61.538
712.26	57.376
712.45	61.142
712.63	58.931
712.81	59.792
712.99	57.297
713.18	59.367
713.36	59.978
713.54	59.733
713.72	58.243
713.91	61.736
714.09	59.326
714.27	61.210
714.45	59.093
714.64	60.268
714.82	56.704
715.00	61.773
715.18	58.748
715.37	59.052
715.55	57.986
715.73	61.492
715.91	55.708
716.10	60.814
716.28	57.623
716.46	59.371
716.64	58.386
716.83	60.184
717.01	58.710
717.19	61.374
717.37	59.248
717.55	60.531
717.74	59.701
717.92	59.756
718.10	57.524
718.28	60.424
718.47	55.927
718.65	58.548
718.83	58.678
719.01	61.326
719.19	54.874
719.38	58.134
719.56	56.104
719.74	57.958
719.92	56.990
720.10	58.347
720.29	54.646
720.47	56.534
720.65	58.888
720.83	57.538
721.01	55.149
721.20	60.182
721.38	57.174
721.56	60.829
721.74	60.667
721.92	62.526
722.11	59.218
722.29	59.670
722.47	59.610
722.65	59.790
722.83	59.178
723.01	57.068
723.20	61.058
723.38	59.622
723.56	57.793
723.74	61.329
723.92	58.543
724.10	60.093
724.29	56.165
724.47	63.556
724.65	55.038
724.83	61.628
725.01	56.713
725.19	57.832
725.38	56.342
725.56	59.450
725.74	58.183
725.92	61.570
726.10	57.416
726.28	60.070
726.46	58.119
726.65	60.347
726.83	57.493
727.01	61.149
727.19	58.606
727.37	58.941
727.55	56.909
727.73	61.110
727.92	61.307
728.10	59.675
728.28	56.026
728.46	60.409
728.64	57.552
728.82	62.247
729.00	57.166
729.19	61.114
729.37	60.844
729.55	60.250
729.73	57.796
729.91	60.090
730.09	58.648
730.27	59.801
730.45	56.795
730.63	60.719
730.82	57.059
731.00	59.841
731.18	59.655
731.36	59.360
731.54	61.691
731.72	61.565
731.90	61.066
732.08	60.640
732.26	60.778
732.45	61.085
732.63	60.117
732.81	60.244
732.99	60.621
733.17	60.336
733.35	58.907
733.53	61.292
733.71	58.777
733.89	62.823
734.07	59.236
734.25	62.494
734.44	59.138
734.62	58.324
734.80	58.631
734.98	62.110
735.16	59.063
735.34	61.701
735.52	59.827
735.70	61.943
735.88	57.203
736.06	59.776
736.24	58.315
736.42	61.832
736.60	58.830
736.78	62.549
736.97	58.105
737.15	62.621
737.33	59.871
737.51	63.020
737.69	59.374
737.87	60.338
738.05	59.686
738.23	62.546
738.41	59.179
738.59	61.426
738.77	58.532
738.95	62.772
739.13	58.205
739.31	63.998
739.49	61.455
739.67	64.588
739.85	60.050
740.03	61.347
740.21	61.588
740.39	63.135
740.57	59.130
740.75	63.056
740.93	58.539
741.11	60.475
741.30	57.159
741.48	64.926
741.66	61.276
741.84	61.823
742.02	56.344
742.20	60.358
742.38	59.278
742.56	62.764
742.74	58.336
742.92	60.253
743.10	57.898
743.28	60.676
743.46	59.231
743.64	63.246
743.82	57.377
744.00	59.809
744.18	62.637
744.36	60.434
744.54	57.326
744.72	59.818
744.90	56.918
745.08	61.441
745.26	55.571
745.44	58.969
745.62	55.247
745.80	56.494
745.98	56.778
746.16	56.274
746.34	59.321
746.52	58.033
746.70	58.148
746.87	59.123
747.05	62.164
747.23	60.960
747.41	59.963
747.59	61.849
747.77	54.930
747.95	59.993
748.13	62.440
748.31	58.336
748.49	56.232
748.67	60.063
748.85	54.788
749.03	61.567
749.21	55.560
749.39	62.073
749.57	53.762
749.75	59.544
749.93	58.052
750.11	60.755
750.29	57.269
750.47	62.632
750.65	60.250
750.83	60.308
751.01	53.782
751.18	61.033
751.36	59.590
751.54	62.339
751.72	60.361
751.90	57.459
752.08	52.514
752.26	59.919
752.44	59.705
752.62	62.902
752.80	57.807
752.98	60.997
753.16	59.542
753.34	56.980
753.52	54.079
753.69	60.451
753.87	56.190
754.05	59.024
754.23	56.969
754.41	59.044
754.59	57.837
754.77	63.932
754.95	55.862
755.13	60.368
755.31	58.608
755.49	58.603
755.66	57.556
755.84	57.088
756.02	55.523
756.20	58.493
756.38	56.559
756.56	61.617
756.74	57.452
756.92	55.174
757.10	57.137
757.28	58.771
757.45	60.426
757.63	61.867
757.81	54.709
757.99	61.201
758.17	58.230
758.35	58.746
758.53	62.442
758.71	57.084
758.88	55.285
759.06	59.496
759.24	56.352
759.42	59.628
759.60	51.335
759.78	54.827
759.96	51.205
760.13	57.727
760.31	50.640
760.49	56.173
760.67	47.906
760.85	54.107
761.03	45.451
761.21	49.211
761.38	43.977
761.56	54.104
761.74	46.539
761.92	53.182
762.10	46.122
762.28	53.028
762.46	44.686
762.63	50.197
762.81	48.789
762.99	51.431
763.17	50.846
763.35	52.989
763.53	53.901
763.70	57.585
763.88	53.659
764.06	58.690
764.24	55.647
764.42	57.273
764.60	56.492
764.77	57.911
764.95	58.495
765.13	57.758
765.31	55.117
765.49	58.004
765.66	55.266
765.84	58.925
766.02	58.624
766.20	57.585
766.38	53.472
766.56	56.999
766.73	55.861
766.91	57.778
767.09	54.869
767.27	58.487
767.45	53.588
767.62	55.316
767.80	54.106
767.98	57.898
768.16	52.042
768.33	57.424
768.51	53.091
768.69	58.445
768.87	55.626
769.05	55.059
769.22	54.258
769.40	58.215
769.58	53.869
769.76	59.258
769.94	52.090
770.11	56.229
770.29	55.522
770.47	56.569
770.65	50.519
770.82	62.302
771.00	53.633
771.18	55.601
771.36	51.311
771.53	57.257
771.71	48.248
771.89	56.928
772.07	50.529
772.25	56.757
772.42	48.289
772.60	54.917
772.78	51.361
772.96	55.181
773.13	53.211
773.31	53.570
773.49	52.448
773.67	51.681
773.84	46.608
774.02	55.651
774.20	46.846
774.37	59.003
774.55	49.210
774.73	53.971
774.91	49.637
775.08	53.053
775.26	55.931
775.44	57.702
775.62	50.984
775.79	53.233
775.97	50.840
776.15	52.442
776.32	44.742
776.50	55.216
776.68	47.983
776.86	54.780
777.03	49.700
777.21	51.709
777.39	48.774
777.56	55.077
777.74	45.591
777.92	52.819
778.10	48.328
778.27	58.908
778.45	52.371
778.63	53.573
778.80	51.004
778.98	57.070
779.16	54.295
779.34	53.444
779.51	48.053
779.69	48.906
779.87	44.744
780.04	50.083
780.22	45.584
780.40	48.471
780.57	51.183
780.75	49.272
780.93	51.416
781.10	50.998
781.28	54.302
781.46	50.000
781.63	51.858
781.81	55.161
781.99	44.603
782.16	52.893
782.34	48.668
782.52	55.904
782.69	50.928
782.87	53.400
783.05	45.966
783.22	49.163
783.40	41.581
783.58	51.688
783.75	46.791
783.93	47.879
784.11	44.206
784.28	58.573
784.46	47.662
784.64	46.554
784.81	42.222
784.99	55.604
785.17	51.166
785.34	45.821
785.52	44.841
785.69	44.304
785.87	38.815
786.05	51.935
786.22	46.028
786.40	51.701
786.58	41.000
786.75	50.832
786.93	45.972
787.11	45.893
787.28	47.066
787.46	48.412
787.63	39.369
787.81	46.290
787.99	44.214
788.16	45.579
788.34	48.375
788.51	49.004
788.69	45.425
788.87	45.008
789.04	46.531
789.22	52.751
789.39	44.676
789.57	46.182
789.75	41.840
789.92	52.785
790.10	44.860
790.27	49.756
790.45	43.483
790.63	47.501
790.80	39.840
790.98	45.737
791.15	48.528
791.33	46.482
791.51	43.574
791.68	46.060
791.86	41.397
792.03	49.619
792.21	34.286
792.39	44.028
792.56	45.182
792.74	46.551
792.91	48.160
793.09	39.768
793.26	34.707
793.44	48.396
793.62	40.738
793.79	42.000
793.97	39.357
794.14	44.880
794.32	38.675
794.49	48.225
794.67	34.397
794.84	39.716
795.02	37.475
795.20	46.340
795.37	40.269
795.55	46.814
795.72	42.935
795.90	44.202
796.07	40.912
796.25	46.893
796.42	45.502
796.60	45.022
796.77	41.987
796.95	48.098
797.13	38.586
797.30	49.546
797.48	43.830
797.65	47.163
797.83	38.144
798.00	42.500
798.18	40.090
798.35	49.742
798.53	41.319
798.70	49.784
798.88	45.539
799.05	42.502
799.23	43.027
799.40	45.722
799.58	39.630
799.75	35.785
799.93	42.674
800.10	45.648
800.28	33.721
800.45	42.623
800.63	38.661
800.80	48.998
800.98	41.734
801.15	43.588
801.33	36.701
801.50	37.686
801.68	41.583
801.85	40.694
802.03	37.019
802.20	43.552
802.38	34.687
802.55	37.173
802.73	35.004
802.90	37.188
803.08	33.683
803.25	51.197
803.43	39.348
803.60	36.869
803.78	36.099
803.95	41.270
804.13	39.717
804.30	38.958
804.48	34.126
804.65	40.161
804.83	37.089
805.00	35.509
805.17	41.027
805.35	37.436
805.52	34.985
805.70	44.045
805.87	40.837
806.05	42.444
806.22	37.192
806.40	34.662
806.57	36.620
806.75	40.768
806.92	48.455
807.09	43.963
807.27	35.714
807.44	46.148
807.62	37.509
807.79	41.053
807.97	32.824
808.14	47.107
808.31	36.657
808.49	42.738
808.66	30.671
808.84	37.453
809.01	40.113
809.19	39.124
809.36	33.441
809.53	36.584
809.71	36.175
809.88	30.763
810.06	39.779
810.23	36.299
810.41	33.803
810.58	39.505
810.75	28.044
810.93	28.596
811.10	32.614
811.28	38.475
811.45	34.276
811.62	34.385
811.80	29.367
811.97	37.446
812.15	36.993
812.32	27.476
812.49	35.396
812.67	34.563
812.84	27.289
813.02	39.861
813.19	33.420
813.36	33.525
813.54	20.268
813.71	33.107
813.89	30.274
814.06	30.513
814.23	32.348
814.41	30.455
814.58	31.198
814.75	26.879
814.93	26.748
815.10	27.512
815.28	25.341
815.45	29.539
815.62	22.490
815.80	30.662
815.97	19.499
816.14	30.480
816.32	23.879
816.49	21.936
816.66	26.301
816.84	28.703
817.01	26.301
817.18	28.358
817.36	31.016
817.53	34.923
817.71	26.339
817.88	28.271
818.05	21.071
818.23	26.043
818.40	24.355
818.57	35.118
818.75	28.278
818.92	30.146
819.09	26.920
819.27	29.976
819.44	35.644
819.61	21.591
819.79	31.280
819.96	36.739
820.13	32.100
820.31	34.278
820.48	43.006
820.65	39.467
820.82	35.214
821.00	42.326
821.17	35.003
821.34	41.588
821.52	41.555
821.69	41.339
821.86	46.709
822.04	50.089
822.21	54.086
822.38	56.926
822.56	54.583
822.73	58.563
822.90	57.771
823.07	59.466
823.25	58.432
823.42	57.466
823.59	57.581
823.77	60.876
823.94	58.544
824.11	59.178
824.29	58.313
824.46	59.672
824.63	57.527
824.80	58.506
824.98	56.218
825.15	56.245
825.32	52.076
825.49	53.942
825.67	51.187
825.84	54.065
826.01	47.557
826.19	52.344
826.36	45.610
826.53	50.050
826.70	49.950
826.88	53.198
827.05	47.736
827.22	49.172
827.39	48.225
827.57	50.443
827.74	50.171
827.91	52.330
828.08	48.425
828.26	54.290
828.43	50.267
828.60	54.047
828.77	51.039
828.95	52.275
829.12	47.307
829.29	45.914
829.46	43.703
829.64	44.056
829.81	41.899
829.98	46.865
830.15	40.346
830.32	41.984
830.50	32.585
830.67	43.572
830.84	31.910
831.01	25.767
831.19	29.256
831.36	29.568
831.53	22.490
831.70	39.022
831.87	27.563
832.05	28.609
832.22	32.176
832.39	31.826
832.56	23.689
832.74	24.812
832.91	21.764
833.08	36.953
833.25	25.246
833.42	30.850
833.60	27.976
833.77	35.551
833.94	28.909
834.11	39.933
834.28	34.013
834.45	45.338
834.63	40.346
834.80	43.687
834.97	40.473
835.14	42.812
835.31	39.042
835.49	42.424
835.66	42.695
835.83	41.905
836.00	39.709
836.17	39.426
836.34	35.210
836.52	35.870
836.69	39.192
836.86	35.839
837.03	34.440
837.20	38.587
837.37	26.449
837.55	26.077
837.72	24.040
837.89	31.014
838.06	30.995
838.23	30.047
838.40	21.956
838.58	19.878
838.75	26.895
838.92	30.169
839.09	34.934
839.26	20.023
839.43	28.504
839.60	21.883
839.78	33.814
839.95	25.000
840.12	20.933
840.29	31.250
840.46	31.411
840.63	23.837
840.80	24.043
840.98	27.518
841.15	27.604
841.32	32.904
841.49	23.713
841.66	30.185
841.83	21.414
842.00	21.152
842.17	30.549
842.34	33.046
842.52	34.000
842.69	30.971
842.86	20.856
843.03	38.119
843.20	23.713
843.37	29.606
843.54	29.348
843.71	20.870
843.88	27.787
844.06	31.620
844.23	31.607
844.40	22.018
844.57	15.000
844.74	19.188
844.91	15.466
845.08	31.922
845.25	22.763
845.42	14.149
845.59	16.458
845.76	23.017
845.94	17.633
846.11	11.915
846.28	17.120
846.45	6.439
846.62	24.395
846.79	20.356
846.96	4.453
847.13	23.180
847.30	21.581
847.47	13.514
847.64	18.776
847.81	35.730
847.98	28.600
848.15	4.439
848.32	40.732
848.50	17.925
848.67	15.184
848.84	30.170
849.01	23.971
849.18	27.273
849.35	19.128
849.52	27.088
849.69	48.148
849.86	24.697
850.03	31.546
850.20	39.207
850.37	-1.034
850.54	32.927
850.71	20.339
850.88	-1.475
851.05	42.344
851.22	20.545
851.39	15.119
851.56	30.941
851.73	10.795
851.90	-1.980
852.07	20.984
852.24	26.712
852.41	27.564
852.58	18.586
852.75	11.390
852.92	17.122
853.09	23.483
853.26	21.429
853.43	22.384
853.60	18.023
853.77	17.445
853.94	23.602
854.11	19.008
854.28	36.317
854.45	26.824
854.62	35.685
854.79	9.669
854.96	24.654
855.13	28.777
855.30	3.425
855.47	8.537
855.64	7.165
855.81	31.707
855.98	25.000
856.15	29.948
856.32	5.724
856.49	21.026
856.66	6.410
856.83	28.467
857.00	4.645
857.17	19.624
857.34	14.628
857.51	27.419
857.68	39.319
857.85	31.519
858.02	36.406
858.19	19.872
858.36	31.264
858.53	-3.293
858.70	11.917
858.87	24.383
859.04	12.778
859.21	19.885
859.38	30.695
859.55	28.866
859.72	24.862
859.89	21.508
860.05	18.673
860.22	10.577
860.39	7.012
860.56	4.863
860.73	25.882
860.90	25.705
861.07	7.042
861.24	16.229
861.41	28.686
861.58	26.225
861.75	22.327
861.92	31.643
862.09	18.912
862.26	31.340
862.43	33.410
862.59	15.771
862.76	27.019
862.93	35.946
863.10	1.449
863.27	-22.034
863.44	25.355
863.61	-0.920
863.78	36.486
863.95	2.618
864.12	25.977
864.29	20.937
864.45	10.625
864.62	7.692
864.79	19.280
864.96	20.339
865.13	22.527
865.30	29.383
865.47	36.052
865.64	6.316
865.81	27.078
865.97	-7.256
866.14	3.158
866.31	35.938
866.48	42.963
866.65	22.310
866.82	32.787
866.99	17.910
867.16	11.080
867.33	22.257
867.49	24.490
867.66	-2.338
867.83	25.876
868.00	32.840
868.17	13.889
868.34	10.989
868.51	25.373
868.67	14.076
868.84	29.894
869.01	10.968
869.18	11.960
869.35	33.333
869.52	11.978
869.69	7.736
869.85	16.580
870.02	3.691
870.19	21.086
870.36	22.769
870.53	33.099
870.70	28.926
870.86	10.909
871.03	21.739
871.20	30.328
871.37	32.911
871.54	22.126
871.71	27.273
871.87	18.970
872.04	17.391
872.21	-1.724
872.38	31.548
872.55	27.606
872.72	6.267
872.88	25.310
873.05	17.467
873.22	27.660
873.39	20.588
873.56	17.391
873.72	21.466
873.89	-8.117
874.06	8.211
874.23	36.502
874.40	1.534
874.56	22.156
874.73	22.922
874.90	18.159
875.07	18.855
875.24	34.177
875.40	7.078
875.57	6.742
875.74	14.648
875.91	30.414
876.08	17.313
876.24	20.325
876.41	34.561
876.58	12.202
876.75	18.592
876.92	16.013
877.08	30.576
877.25	6.599
877.42	6.304
877.59	5.341
877.75	29.769
877.92	15.426
878.09	40.470
878.26	12.533
878.42	14.706
878.59	27.056
878.76	13.716
878.93	37.530
879.09	8.052
879.26	-3.804
879.43	28.378
879.60	10.886
879.76	19.085
879.93	16.479
880.10	28.252
880.27	12.428
880.43	15.385
880.60	21.614
880.77	14.135
880.94	22.803
881.10	11.543
881.27	19.674
881.44	22.901
881.61	29.654
881.77	31.794
881.94	29.821
882.11	24.861
882.28	23.624
882.44	33.399
882.61	40.218
882.78	35.059
882.94	42.216
883.11	41.245
883.28	45.564
883.45	43.017
883.61	38.780
883.78	37.941
883.95	42.146
884.11	39.898
884.28	38.447
>>>>>End Processed Spectral Data<<<<<
