SpectraSuite Data File
++++++++++++++++++++++++++++++++++++
Date: Thu Sep 26 04:10:18 EST 2019
User: sgrac
Dark Spectrum Present: Yes
Reference Spectrum Present: Yes
Number of Sampled Component Spectra: 1
Spectrometers: USB4E01596
Integration Time (usec): 100000 (USB4E01596)
Spectra Averaged: 3 (USB4E01596)
Boxcar Smoothing: 0 (USB4E01596)
Correct for Electrical Dark: No (USB4E01596)
Strobe/Lamp Enabled: Yes (USB4E01596)
Correct for Detector Non-linearity: No (USB4E01596)
Correct for Stray Light: No (USB4E01596)
Number of Pixels in Processed Spectrum: 3648
>>>>>Begin Processed Spectral Data<<<<<
178.44	-2050.000
178.66	-2050.000
178.87	-2050.000
179.09	-304.082
179.30	-148.810
179.52	-1068.182
179.74	-497.222
179.95	-1292.308
180.17	403.614
180.38	2057.143
180.60	507.143
180.82	371.084
181.03	475.000
181.25	308.654
181.46	-1048.387
181.68	400.000
181.89	1773.333
182.11	-1838.889
182.33	326.214
182.54	349.425
182.76	460.714
182.97	1014.815
183.19	222.981
183.40	269.903
183.62	2962.500
183.84	301.087
184.05	2983.333
184.27	345.361
184.48	-500.000
184.70	1364.286
184.91	394.000
185.13	1740.000
185.34	686.486
185.56	2650.000
185.78	291.753
185.99	453.247
186.21	828.571
186.42	1373.333
186.64	980.952
186.85	334.694
187.07	437.143
187.28	445.614
187.50	1417.391
187.72	1366.667
187.93	795.745
188.15	630.189
188.36	853.125
188.58	7633.333
188.79	745.000
189.01	5200.000
189.22	324.107
189.44	1337.500
189.65	3155.556
189.87	840.541
190.09	1009.677
190.30	515.873
190.52	-30500.000
190.73	-33200.000
190.95	1275.000
191.16	318.349
191.38	305.435
191.59	991.176
191.81	403.448
192.02	1186.667
192.24	450.685
192.45	310.526
192.67	623.404
192.88	720.513
193.10	294.186
193.31	235.955
193.53	1800.000
193.74	335.366
193.96	371.250
194.18	1173.684
194.39	266.087
194.61	2409.091
194.82	362.162
195.04	259.048
195.25	258.594
195.47	915.625
195.68	337.975
195.90	1215.000
196.11	361.000
196.33	1157.692
196.54	387.302
196.76	982.143
196.97	1036.364
197.19	716.667
197.40	-691.111
197.62	454.545
197.83	245.378
198.05	628.302
198.26	350.704
198.48	2300.000
198.69	0.000
198.91	2822.222
199.12	590.741
199.34	484.058
199.55	294.595
199.77	348.276
199.98	9566.667
200.20	336.364
200.41	241.121
200.63	1200.000
200.84	586.957
201.06	291.379
201.27	1428.571
201.49	1660.000
201.70	-2121.429
201.91	427.660
202.13	661.538
202.34	-408.333
202.56	660.606
202.77	2560.000
202.99	764.706
203.20	460.656
203.42	567.273
203.63	412.088
203.85	220.438
204.06	557.895
204.28	354.762
204.49	608.824
204.71	321.127
204.92	-12050.000
205.14	842.857
205.35	386.957
205.56	1141.667
205.78	437.288
205.99	447.170
206.21	288.889
206.42	403.409
206.64	890.625
206.85	309.524
207.07	218.400
207.28	252.991
207.50	466.667
207.71	1033.333
207.93	-663.889
208.14	-2118.182
208.35	992.000
208.57	238.889
208.78	548.000
209.00	626.316
209.21	7275.000
209.43	378.846
209.64	943.750
209.86	4200.000
210.07	653.659
210.28	-586.842
210.50	7266.667
210.71	890.000
210.93	234.483
211.14	561.538
211.36	1178.947
211.57	582.143
211.78	1128.571
212.00	1041.667
212.21	408.621
212.43	769.048
212.64	263.107
212.86	392.308
213.07	235.965
213.29	1920.000
213.50	351.899
213.71	214.516
213.93	515.909
214.14	276.923
214.36	160.000
214.57	561.702
214.78	343.902
215.00	418.824
215.21	240.741
215.43	962.963
215.64	386.957
215.86	241.727
216.07	1300.000
216.28	394.937
216.50	283.019
216.71	393.902
216.93	790.476
217.14	2581.818
217.35	651.429
217.57	359.677
217.78	240.708
218.00	374.468
218.21	196.053
218.42	558.140
218.64	309.901
218.85	220.536
219.07	320.000
219.28	622.857
219.49	697.368
219.71	390.000
219.92	-2010.000
220.14	440.625
220.35	1191.667
220.56	-14500.000
220.78	235.714
220.99	752.500
221.21	333.735
221.42	351.282
221.63	368.085
221.85	0.000
222.06	250.943
222.28	714.286
222.49	339.394
222.70	1792.857
222.92	412.821
223.13	148.611
223.34	275.000
223.56	238.261
223.77	233.121
223.99	185.714
224.20	167.949
224.41	495.745
224.63	187.075
224.84	272.973
225.05	221.374
225.27	158.960
225.48	242.982
225.69	188.462
225.91	227.826
226.12	186.364
226.34	129.412
226.55	184.559
226.76	121.739
226.98	104.661
227.19	142.458
227.40	115.556
227.62	115.299
227.83	116.064
228.04	97.143
228.26	66.496
228.47	80.637
228.69	54.333
228.90	55.457
229.11	44.088
229.33	56.296
229.54	30.814
229.75	36.512
229.97	39.878
230.18	31.397
230.39	36.242
230.61	30.366
230.82	40.491
231.03	27.543
231.25	44.621
231.46	36.364
231.67	41.772
231.89	40.574
232.10	42.238
232.31	51.667
232.53	49.499
232.74	44.312
232.95	55.405
233.17	42.081
233.38	53.584
233.59	50.444
233.81	53.344
234.02	40.326
234.23	50.100
234.45	51.975
234.66	34.118
234.87	53.680
235.09	43.979
235.30	45.565
235.51	48.812
235.73	46.090
235.94	40.652
236.15	49.654
236.36	53.478
236.58	53.625
236.79	42.202
237.00	45.656
237.22	51.189
237.43	55.811
237.64	51.692
237.86	51.000
238.07	52.941
238.28	47.586
238.50	41.486
238.71	45.513
238.92	42.485
239.13	47.741
239.35	41.561
239.56	50.162
239.77	39.489
239.99	35.769
240.20	54.915
240.41	47.490
240.63	41.081
240.84	38.658
241.05	28.933
241.26	27.087
241.48	32.547
241.69	24.095
241.90	20.704
242.12	24.756
242.33	25.210
242.54	12.374
242.75	18.351
242.97	23.144
243.18	12.064
243.39	14.080
243.61	16.819
243.82	14.095
244.03	16.774
244.24	17.385
244.46	16.106
244.67	17.874
244.88	18.961
245.09	10.839
245.31	17.182
245.52	15.429
245.73	20.696
245.95	28.696
246.16	20.488
246.37	18.332
246.58	16.103
246.80	16.691
247.01	17.756
247.22	15.542
247.43	13.090
247.65	13.868
247.86	12.418
248.07	8.859
248.28	11.224
248.50	10.745
248.71	10.064
248.92	7.871
249.13	9.431
249.35	11.981
249.56	10.880
249.77	10.773
249.98	11.248
250.20	11.996
250.41	15.106
250.62	15.195
250.83	16.455
251.05	19.143
251.26	14.588
251.47	22.245
251.68	19.624
251.90	18.670
252.11	14.444
252.32	19.247
252.53	20.706
252.75	16.492
252.96	17.982
253.17	14.014
253.38	14.157
253.59	14.648
253.81	15.215
254.02	15.655
254.23	13.446
254.44	14.525
254.66	13.663
254.87	15.843
255.08	17.586
255.29	22.769
255.50	15.897
255.72	23.974
255.93	28.146
256.14	26.579
256.35	20.121
256.57	23.196
256.78	18.147
256.99	21.951
257.20	25.505
257.41	21.481
257.63	17.452
257.84	17.919
258.05	24.038
258.26	18.037
258.47	17.922
258.69	17.309
258.90	8.849
259.11	12.685
259.32	11.762
259.53	9.210
259.75	10.288
259.96	6.626
260.17	6.792
260.38	7.484
260.59	7.303
260.81	7.535
261.02	8.665
261.23	8.919
261.44	8.187
261.65	8.542
261.87	8.414
262.08	10.322
262.29	11.240
262.50	7.859
262.71	8.894
262.92	11.951
263.14	10.321
263.35	8.350
263.56	10.388
263.77	14.347
263.98	12.321
264.20	15.231
264.41	12.142
264.62	11.333
264.83	12.636
265.04	19.335
265.25	15.438
265.47	11.559
265.68	18.008
265.89	13.339
266.10	12.438
266.31	15.769
266.52	11.795
266.74	10.297
266.95	9.194
267.16	14.122
267.37	9.890
267.58	11.153
267.79	11.226
268.01	12.293
268.22	10.146
268.43	13.219
268.64	11.083
268.85	9.033
269.06	11.917
269.27	10.856
269.49	7.814
269.70	10.658
269.91	9.191
270.12	8.033
270.33	12.587
270.54	12.459
270.75	9.824
270.97	12.896
271.18	10.213
271.39	10.678
271.60	11.793
271.81	10.278
272.02	8.929
272.23	9.685
272.45	6.213
272.66	4.940
272.87	9.628
273.08	6.963
273.29	9.074
273.50	8.138
273.71	11.227
273.92	7.376
274.14	9.781
274.35	7.400
274.56	9.761
274.77	7.952
274.98	11.763
275.19	9.904
275.40	7.927
275.61	9.226
275.83	11.121
276.04	10.569
276.25	11.525
276.46	7.546
276.67	11.697
276.88	9.941
277.09	10.567
277.30	7.603
277.51	9.043
277.73	10.170
277.94	10.269
278.15	9.055
278.36	12.467
278.57	10.025
278.78	10.977
278.99	11.566
279.20	13.027
279.41	11.739
279.62	9.858
279.84	8.071
280.05	9.199
280.26	9.063
280.47	14.748
280.68	8.051
280.89	11.114
281.10	12.077
281.31	8.499
281.52	10.587
281.73	8.080
281.94	8.224
282.16	10.484
282.37	8.796
282.58	10.081
282.79	10.461
283.00	10.110
283.21	5.311
283.42	5.938
283.63	8.083
283.84	6.220
284.05	8.814
284.26	8.384
284.47	8.569
284.68	6.935
284.89	9.132
285.11	8.245
285.32	8.667
285.53	8.455
285.74	7.112
285.95	9.053
286.16	6.896
286.37	8.670
286.58	6.610
286.79	7.575
287.00	7.502
287.21	7.617
287.42	7.835
287.63	6.013
287.84	6.437
288.05	8.786
288.26	7.218
288.48	6.366
288.69	6.366
288.90	7.806
289.11	9.615
289.32	8.790
289.53	7.144
289.74	5.914
289.95	7.951
290.16	6.767
290.37	7.731
290.58	7.070
290.79	4.590
291.00	7.581
291.21	7.710
291.42	6.585
291.63	7.232
291.84	9.648
292.05	5.635
292.26	6.488
292.47	5.928
292.68	6.511
292.89	7.919
293.10	6.792
293.31	8.968
293.52	6.874
293.73	7.170
293.94	7.627
294.15	8.686
294.36	7.362
294.57	9.095
294.79	7.945
295.00	5.832
295.21	8.015
295.42	6.587
295.63	7.272
295.84	8.186
296.05	5.753
296.26	7.515
296.47	8.230
296.68	5.160
296.89	7.951
297.10	7.856
297.31	7.064
297.52	4.806
297.73	7.331
297.94	6.023
298.15	5.491
298.36	6.310
298.57	6.520
298.78	6.721
298.99	6.167
299.20	6.039
299.41	7.455
299.62	6.115
299.83	6.411
300.04	7.152
300.25	6.714
300.46	6.766
300.67	7.782
300.88	9.763
301.09	6.124
301.30	8.384
301.50	7.983
301.71	10.207
301.92	7.293
302.13	6.823
302.34	5.093
302.55	8.114
302.76	8.120
302.97	8.225
303.18	9.537
303.39	6.596
303.60	7.790
303.81	8.044
304.02	6.424
304.23	7.894
304.44	7.925
304.65	8.468
304.86	9.112
305.07	6.742
305.28	8.164
305.49	7.958
305.70	8.428
305.91	7.387
306.12	7.374
306.33	6.706
306.54	6.344
306.75	9.496
306.96	9.942
307.17	6.879
307.38	7.718
307.58	7.958
307.79	8.703
308.00	9.161
308.21	7.915
308.42	7.791
308.63	7.680
308.84	8.414
309.05	8.491
309.26	7.767
309.47	7.347
309.68	5.682
309.89	8.560
310.10	8.474
310.31	6.784
310.52	7.283
310.73	8.370
310.94	6.977
311.14	7.631
311.35	7.404
311.56	7.904
311.77	7.210
311.98	6.631
312.19	6.521
312.40	6.303
312.61	6.124
312.82	6.195
313.03	6.758
313.24	7.286
313.45	8.018
313.66	6.203
313.86	8.179
314.07	6.992
314.28	8.550
314.49	6.119
314.70	7.350
314.91	9.998
315.12	7.941
315.33	9.535
315.54	7.764
315.75	8.039
315.96	6.702
316.16	6.351
316.37	10.719
316.58	7.343
316.79	7.932
317.00	8.512
317.21	9.608
317.42	9.072
317.63	9.502
317.84	6.387
318.05	7.579
318.25	7.971
318.46	7.065
318.67	6.844
318.88	8.646
319.09	8.798
319.30	6.518
319.51	8.215
319.72	9.568
319.93	8.130
320.13	7.965
320.34	8.897
320.55	8.698
320.76	8.125
320.97	8.237
321.18	9.538
321.39	8.083
321.60	7.924
321.80	10.219
322.01	10.445
322.22	7.694
322.43	6.664
322.64	8.618
322.85	9.568
323.06	9.426
323.27	9.884
323.47	7.847
323.68	7.682
323.89	6.891
324.10	8.807
324.31	8.052
324.52	9.705
324.73	7.990
324.93	7.385
325.14	7.191
325.35	8.072
325.56	8.333
325.77	8.471
325.98	8.660
326.19	8.388
326.39	6.204
326.60	7.847
326.81	7.816
327.02	5.173
327.23	6.856
327.44	9.288
327.64	6.674
327.85	7.725
328.06	8.730
328.27	10.164
328.48	8.073
328.69	6.768
328.90	9.049
329.10	7.838
329.31	9.615
329.52	8.962
329.73	10.314
329.94	6.896
330.15	10.036
330.35	9.841
330.56	9.547
330.77	9.028
330.98	8.981
331.19	8.914
331.39	9.052
331.60	7.901
331.81	5.986
332.02	10.362
332.23	9.981
332.44	8.470
332.64	10.642
332.85	8.624
333.06	9.438
333.27	7.663
333.48	8.102
333.68	9.617
333.89	8.049
334.10	6.843
334.31	10.287
334.52	10.072
334.72	9.476
334.93	8.281
335.14	7.785
335.35	6.898
335.56	10.694
335.76	7.878
335.97	9.961
336.18	6.681
336.39	10.517
336.60	9.056
336.80	8.225
337.01	9.683
337.22	8.299
337.43	9.907
337.64	10.670
337.84	8.373
338.05	9.848
338.26	10.655
338.47	10.170
338.68	7.687
338.88	9.390
339.09	8.996
339.30	9.477
339.51	8.601
339.71	10.396
339.92	8.128
340.13	9.069
340.34	9.013
340.55	9.032
340.75	9.519
340.96	9.346
341.17	10.011
341.38	7.709
341.58	7.655
341.79	9.041
342.00	7.594
342.21	9.474
342.41	6.726
342.62	9.941
342.83	10.819
343.04	6.649
343.24	10.722
343.45	9.568
343.66	7.414
343.87	8.863
344.07	9.245
344.28	8.333
344.49	9.202
344.70	10.363
344.90	7.763
345.11	8.561
345.32	7.041
345.53	8.208
345.73	9.025
345.94	8.758
346.15	8.483
346.36	8.576
346.56	8.678
346.77	10.389
346.98	8.026
347.19	8.400
347.39	7.605
347.60	7.308
347.81	8.601
348.02	9.196
348.22	5.877
348.43	7.758
348.64	6.532
348.84	8.471
349.05	7.850
349.26	9.204
349.47	7.666
349.67	7.050
349.88	8.368
350.09	9.150
350.30	9.027
350.50	8.938
350.71	8.537
350.92	6.955
351.12	8.555
351.33	10.014
351.54	8.794
351.74	8.656
351.95	8.404
352.16	7.956
352.37	10.241
352.57	7.946
352.78	8.839
352.99	7.616
353.19	6.588
353.40	7.256
353.61	9.729
353.82	9.745
354.02	8.737
354.23	8.864
354.44	8.423
354.64	8.856
354.85	8.596
355.06	7.181
355.26	6.682
355.47	7.147
355.68	9.330
355.88	8.788
356.09	8.696
356.30	7.455
356.51	8.348
356.71	8.117
356.92	5.432
357.13	8.118
357.33	8.669
357.54	6.185
357.75	4.886
357.95	7.529
358.16	6.805
358.37	10.278
358.57	6.815
358.78	9.261
358.99	6.572
359.19	6.935
359.40	7.616
359.61	6.712
359.81	8.464
360.02	9.318
360.23	7.595
360.43	8.021
360.64	7.757
360.85	7.592
361.05	6.381
361.26	7.480
361.47	7.810
361.67	8.114
361.88	5.085
362.09	7.511
362.29	5.665
362.50	6.020
362.70	5.225
362.91	7.652
363.12	6.450
363.32	7.056
363.53	6.958
363.74	8.123
363.94	5.883
364.15	7.620
364.36	7.423
364.56	5.459
364.77	6.046
364.98	9.114
365.18	7.566
365.39	8.590
365.59	6.463
365.80	7.731
366.01	7.656
366.21	5.451
366.42	6.061
366.63	7.915
366.83	6.408
367.04	5.863
367.24	7.491
367.45	5.468
367.66	5.861
367.86	6.877
368.07	7.015
368.28	6.369
368.48	5.339
368.69	4.803
368.89	6.994
369.10	7.209
369.31	5.981
369.51	6.518
369.72	8.797
369.92	8.041
370.13	5.928
370.34	6.972
370.54	5.784
370.75	6.898
370.95	4.985
371.16	7.162
371.37	6.062
371.57	6.459
371.78	6.962
371.98	6.622
372.19	7.372
372.40	7.064
372.60	6.228
372.81	5.468
373.01	4.625
373.22	5.182
373.43	6.697
373.63	7.163
373.84	6.985
374.04	6.547
374.25	6.232
374.46	6.998
374.66	7.172
374.87	7.593
375.07	4.729
375.28	5.262
375.48	6.403
375.69	6.572
375.90	5.828
376.10	5.235
376.31	5.626
376.51	5.653
376.72	5.929
376.92	5.100
377.13	6.278
377.34	5.761
377.54	6.066
377.75	6.568
377.95	5.556
378.16	5.972
378.36	5.533
378.57	7.037
378.77	6.083
378.98	6.511
379.19	4.894
379.39	5.755
379.60	6.130
379.80	6.156
380.01	6.757
380.21	6.068
380.42	6.533
380.62	5.966
380.83	6.493
381.04	5.736
381.24	6.323
381.45	6.080
381.65	5.650
381.86	6.414
382.06	6.394
382.27	5.269
382.47	5.091
382.68	6.634
382.88	5.295
383.09	4.643
383.29	5.652
383.50	6.445
383.71	5.261
383.91	5.610
384.12	6.007
384.32	5.014
384.53	5.830
384.73	5.277
384.94	4.909
385.14	5.841
385.35	4.939
385.55	5.102
385.76	4.862
385.96	5.388
386.17	5.051
386.37	5.598
386.58	5.442
386.78	5.433
386.99	4.465
387.19	5.839
387.40	4.420
387.60	6.134
387.81	5.229
388.01	4.898
388.22	4.948
388.42	5.467
388.63	6.019
388.83	6.401
389.04	4.981
389.24	5.167
389.45	5.260
389.65	4.534
389.86	5.046
390.06	4.410
390.27	3.915
390.47	5.369
390.68	4.435
390.88	5.376
391.09	5.254
391.29	5.235
391.50	4.873
391.70	5.453
391.91	4.966
392.11	4.410
392.32	5.707
392.52	4.182
392.73	4.479
392.93	4.534
393.14	4.513
393.34	4.388
393.55	5.782
393.75	5.059
393.95	4.483
394.16	4.855
394.36	5.335
394.57	5.359
394.77	5.519
394.98	4.652
395.18	4.852
395.39	4.224
395.59	5.281
395.80	5.150
396.00	5.101
396.21	4.587
396.41	4.534
396.61	5.645
396.82	4.688
397.02	5.801
397.23	4.904
397.43	4.597
397.64	4.646
397.84	5.893
398.05	3.854
398.25	5.219
398.45	4.290
398.66	5.839
398.86	4.841
399.07	5.119
399.27	4.531
399.48	6.282
399.68	4.950
399.89	4.437
400.09	5.149
400.29	4.453
400.50	4.540
400.70	4.113
400.91	4.239
401.11	4.253
401.32	5.327
401.52	3.584
401.72	4.648
401.93	5.435
402.13	5.028
402.34	3.534
402.54	4.936
402.75	5.223
402.95	4.941
403.15	5.675
403.36	4.057
403.56	5.355
403.77	4.273
403.97	4.261
404.17	4.087
404.38	4.898
404.58	4.254
404.79	5.047
404.99	4.461
405.19	4.349
405.40	4.389
405.60	4.785
405.81	4.447
406.01	3.973
406.21	4.599
406.42	4.243
406.62	4.737
406.83	4.577
407.03	4.594
407.23	3.750
407.44	4.528
407.64	4.426
407.85	4.217
408.05	4.416
408.25	3.800
408.46	5.404
408.66	4.946
408.87	4.117
409.07	4.099
409.27	4.280
409.48	4.717
409.68	5.226
409.88	4.107
410.09	4.048
410.29	4.545
410.50	5.786
410.70	3.763
410.90	4.306
411.11	3.845
411.31	4.303
411.51	4.952
411.72	5.703
411.92	3.511
412.12	3.570
412.33	3.400
412.53	3.655
412.74	3.922
412.94	4.261
413.14	4.482
413.35	4.492
413.55	3.704
413.75	5.743
413.96	4.048
414.16	4.182
414.36	4.248
414.57	3.890
414.77	4.003
414.97	4.686
415.18	4.062
415.38	4.338
415.58	3.803
415.79	4.083
415.99	3.650
416.19	4.427
416.40	3.883
416.60	3.642
416.80	4.667
417.01	4.441
417.21	3.869
417.41	4.611
417.62	4.990
417.82	4.534
418.02	3.446
418.23	4.156
418.43	3.918
418.63	4.054
418.84	4.778
419.04	3.816
419.24	4.444
419.45	4.027
419.65	4.412
419.85	4.553
420.06	4.462
420.26	4.194
420.46	4.157
420.67	4.638
420.87	4.393
421.07	5.055
421.28	4.216
421.48	4.647
421.68	4.420
421.88	4.962
422.09	4.327
422.29	4.197
422.49	3.924
422.70	4.429
422.90	4.229
423.10	4.070
423.31	4.150
423.51	4.521
423.71	3.740
423.91	4.677
424.12	4.316
424.32	4.703
424.52	4.177
424.73	4.050
424.93	4.489
425.13	4.107
425.33	3.899
425.54	4.751
425.74	4.550
425.94	4.728
426.15	4.337
426.35	4.128
426.55	4.541
426.75	4.463
426.96	4.013
427.16	4.189
427.36	4.575
427.57	4.862
427.77	4.034
427.97	4.143
428.17	4.295
428.38	4.552
428.58	3.335
428.78	4.575
428.98	3.488
429.19	4.255
429.39	3.436
429.59	4.348
429.79	3.370
430.00	3.676
430.20	3.273
430.40	3.636
430.60	3.859
430.81	4.268
431.01	3.902
431.21	3.963
431.41	3.210
431.62	3.513
431.82	4.476
432.02	4.547
432.22	4.046
432.43	3.369
432.63	3.824
432.83	3.545
433.03	3.944
433.24	3.648
433.44	3.668
433.64	4.353
433.84	3.811
434.05	4.039
434.25	3.942
434.45	4.108
434.65	4.448
434.85	4.526
435.06	4.462
435.26	4.244
435.46	4.059
435.66	4.293
435.87	3.983
436.07	3.886
436.27	3.679
436.47	3.596
436.67	3.339
436.88	4.435
437.08	3.909
437.28	4.067
437.48	3.569
437.69	4.207
437.89	4.025
438.09	4.685
438.29	3.505
438.49	3.963
438.70	4.251
438.90	3.776
439.10	3.576
439.30	4.053
439.50	3.697
439.71	4.317
439.91	4.083
440.11	4.334
440.31	4.032
440.51	3.388
440.72	3.755
440.92	3.834
441.12	3.741
441.32	4.464
441.52	4.607
441.72	4.378
441.93	4.246
442.13	4.399
442.33	4.013
442.53	4.279
442.73	3.515
442.94	4.367
443.14	3.845
443.34	4.429
443.54	3.954
443.74	4.070
443.94	4.247
444.15	3.959
444.35	3.926
444.55	4.204
444.75	4.066
444.95	3.844
445.15	3.705
445.36	4.165
445.56	3.046
445.76	4.204
445.96	4.085
446.16	3.840
446.36	3.411
446.57	4.256
446.77	3.642
446.97	4.217
447.17	4.066
447.37	3.939
447.57	4.270
447.77	3.963
447.98	3.714
448.18	4.253
448.38	3.843
448.58	4.207
448.78	4.278
448.98	4.261
449.18	3.941
449.39	4.206
449.59	3.931
449.79	3.873
449.99	3.818
450.19	4.034
450.39	3.801
450.59	4.181
450.79	3.747
451.00	4.169
451.20	4.573
451.40	3.870
451.60	3.655
451.80	4.164
452.00	3.781
452.20	3.947
452.40	3.463
452.61	3.360
452.81	3.561
453.01	3.802
453.21	3.429
453.41	4.028
453.61	3.525
453.81	3.803
454.01	3.757
454.21	4.040
454.42	4.380
454.62	4.034
454.82	3.420
455.02	3.696
455.22	3.060
455.42	3.469
455.62	3.332
455.82	3.723
456.02	3.492
456.23	3.746
456.43	3.704
456.63	3.842
456.83	3.026
457.03	4.007
457.23	3.459
457.43	3.938
457.63	3.620
457.83	4.103
458.03	3.241
458.23	3.709
458.43	3.465
458.64	3.722
458.84	3.803
459.04	3.574
459.24	3.600
459.44	3.866
459.64	3.796
459.84	3.974
460.04	3.460
460.24	3.790
460.44	3.743
460.64	3.885
460.84	3.538
461.04	4.275
461.24	4.135
461.45	4.114
461.65	4.061
461.85	4.006
462.05	3.763
462.25	4.093
462.45	4.114
462.65	4.415
462.85	3.151
463.05	3.695
463.25	3.011
463.45	3.828
463.65	3.618
463.85	3.536
464.05	3.674
464.25	3.299
464.45	3.910
464.65	3.579
464.85	3.344
465.05	3.478
465.26	3.444
465.46	3.622
465.66	3.957
465.86	4.055
466.06	3.744
466.26	3.809
466.46	3.058
466.66	3.529
466.86	3.160
467.06	3.974
467.26	3.681
467.46	4.327
467.66	3.530
467.86	3.582
468.06	3.443
468.26	3.532
468.46	3.556
468.66	3.810
468.86	3.236
469.06	3.969
469.26	2.943
469.46	3.522
469.66	3.406
469.86	4.004
470.06	3.358
470.26	3.683
470.46	3.058
470.66	3.994
470.86	2.832
471.06	3.515
471.26	2.699
471.46	3.180
471.66	3.401
471.86	3.478
472.06	3.447
472.26	4.197
472.46	3.844
472.66	3.718
472.86	3.329
473.06	3.332
473.26	3.627
473.46	3.402
473.66	3.223
473.86	4.072
474.06	3.129
474.26	4.128
474.46	3.609
474.66	3.514
474.86	3.541
475.06	3.902
475.26	3.056
475.46	3.331
475.66	3.399
475.86	3.510
476.06	3.472
476.26	3.778
476.46	3.304
476.66	3.008
476.86	2.932
477.06	3.577
477.26	3.355
477.46	3.392
477.65	3.032
477.85	3.808
478.05	2.797
478.25	3.753
478.45	3.023
478.65	3.601
478.85	2.829
479.05	3.586
479.25	3.403
479.45	3.426
479.65	3.056
479.85	3.406
480.05	3.415
480.25	3.682
480.45	3.649
480.65	3.945
480.85	3.381
481.05	3.819
481.25	3.623
481.44	3.371
481.64	2.754
481.84	3.724
482.04	3.705
482.24	3.867
482.44	3.168
482.64	3.260
482.84	3.513
483.04	3.861
483.24	3.609
483.44	3.947
483.64	3.796
483.84	3.804
484.04	4.187
484.23	4.148
484.43	4.196
484.63	4.267
484.83	4.215
485.03	4.548
485.23	4.434
485.43	4.463
485.63	4.309
485.83	4.333
486.03	4.432
486.23	4.490
486.42	4.312
486.62	4.420
486.82	4.148
487.02	4.272
487.22	4.006
487.42	4.224
487.62	4.041
487.82	4.127
488.02	3.933
488.22	4.199
488.41	3.963
488.61	4.290
488.81	4.147
489.01	4.159
489.21	4.190
489.41	4.287
489.61	4.096
489.81	4.237
490.01	4.197
490.20	4.204
490.40	3.964
490.60	4.385
490.80	3.950
491.00	4.107
491.20	3.887
491.40	4.018
491.60	3.929
491.79	3.946
491.99	3.849
492.19	3.914
492.39	4.026
492.59	4.233
492.79	4.120
492.99	4.224
493.19	4.118
493.38	4.258
493.58	4.023
493.78	4.225
493.98	4.361
494.18	4.225
494.38	3.859
494.58	4.052
494.77	3.423
494.97	3.543
495.17	3.589
495.37	3.728
495.57	3.487
495.77	3.854
495.96	3.431
496.16	3.466
496.36	3.458
496.56	3.821
496.76	3.028
496.96	3.544
497.15	3.360
497.35	3.714
497.55	3.576
497.75	3.493
497.95	3.060
498.15	3.924
498.34	3.795
498.54	3.552
498.74	4.071
498.94	3.607
499.14	3.256
499.34	3.698
499.53	3.203
499.73	3.498
499.93	3.276
500.13	3.584
500.33	3.327
500.52	3.729
500.72	3.220
500.92	3.358
501.12	2.537
501.32	3.137
501.52	3.244
501.71	3.310
501.91	2.900
502.11	3.387
502.31	2.866
502.51	3.587
502.70	3.145
502.90	3.533
503.10	3.292
503.30	3.769
503.50	3.153
503.69	2.816
503.89	3.226
504.09	3.476
504.29	3.016
504.48	3.596
504.68	3.675
504.88	3.927
505.08	2.877
505.28	3.417
505.47	3.264
505.67	4.136
505.87	2.906
506.07	3.285
506.27	3.167
506.46	3.705
506.66	3.333
506.86	3.122
507.06	3.642
507.25	3.458
507.45	3.273
507.65	3.531
507.85	3.179
508.04	3.409
508.24	3.841
508.44	3.700
508.64	3.115
508.83	3.540
509.03	2.975
509.23	3.616
509.43	3.128
509.63	3.747
509.82	3.162
510.02	3.576
510.22	3.261
510.42	3.710
510.61	3.443
510.81	3.604
511.01	3.303
511.21	3.727
511.40	3.023
511.60	3.764
511.80	3.654
511.99	3.856
512.19	3.673
512.39	3.901
512.59	3.225
512.78	3.821
512.98	3.813
513.18	3.332
513.38	3.321
513.57	3.805
513.77	3.523
513.97	3.536
514.17	3.377
514.36	3.403
514.56	3.185
514.76	3.892
514.95	3.072
515.15	3.145
515.35	3.247
515.55	3.608
515.74	3.593
515.94	3.639
516.14	2.931
516.33	3.704
516.53	3.346
516.73	3.166
516.93	3.267
517.12	3.698
517.32	3.091
517.52	3.914
517.71	3.489
517.91	3.358
518.11	3.314
518.30	3.598
518.50	3.201
518.70	3.368
518.90	3.357
519.09	3.763
519.29	3.697
519.49	3.726
519.68	3.334
519.88	3.862
520.08	3.560
520.27	3.944
520.47	3.952
520.67	3.591
520.86	3.732
521.06	3.975
521.26	3.223
521.45	3.568
521.65	3.359
521.85	3.447
522.04	3.401
522.24	3.816
522.44	3.050
522.63	3.404
522.83	3.092
523.03	3.477
523.22	3.170
523.42	3.767
523.62	3.822
523.81	3.397
524.01	3.695
524.21	3.521
524.40	3.060
524.60	3.581
524.80	3.508
524.99	3.529
525.19	3.576
525.39	3.582
525.58	3.454
525.78	3.810
525.98	3.514
526.17	3.832
526.37	3.739
526.57	3.784
526.76	3.857
526.96	3.743
527.15	3.486
527.35	3.745
527.55	3.673
527.74	4.065
527.94	3.922
528.14	3.879
528.33	3.766
528.53	3.776
528.72	3.978
528.92	4.057
529.12	3.986
529.31	4.013
529.51	4.052
529.71	4.219
529.90	4.089
530.10	4.192
530.29	4.140
530.49	4.274
530.69	4.435
530.88	4.201
531.08	4.096
531.28	3.960
531.47	4.150
531.67	3.995
531.86	3.893
532.06	3.901
532.26	3.532
532.45	3.835
532.65	3.636
532.84	3.894
533.04	3.518
533.24	3.919
533.43	3.639
533.63	3.996
533.82	3.768
534.02	4.055
534.22	3.847
534.41	4.117
534.61	3.967
534.80	4.059
535.00	3.891
535.19	3.917
535.39	4.025
535.59	3.981
535.78	3.917
535.98	4.019
536.17	3.574
536.37	3.895
536.57	3.805
536.76	4.024
536.96	3.954
537.15	4.165
537.35	3.432
537.54	4.135
537.74	3.559
537.93	4.187
538.13	3.868
538.33	3.892
538.52	3.569
538.72	3.826
538.91	3.885
539.11	3.801
539.30	3.663
539.50	3.856
539.70	3.683
539.89	3.754
540.09	3.723
540.28	3.881
540.48	3.268
540.67	3.948
540.87	3.419
541.06	4.067
541.26	3.445
541.45	3.984
541.65	3.901
541.85	4.240
542.04	3.812
542.24	4.194
542.43	3.964
542.63	4.126
542.82	4.123
543.02	4.188
543.21	3.965
543.41	4.270
543.60	3.880
543.80	4.200
543.99	3.918
544.19	4.159
544.38	4.024
544.58	4.202
544.77	3.834
544.97	4.106
545.16	3.484
545.36	3.751
545.56	3.826
545.75	3.667
545.95	3.644
546.14	4.177
546.34	3.671
546.53	4.065
546.73	3.688
546.92	3.970
547.12	3.612
547.31	4.199
547.51	3.480
547.70	4.134
547.90	3.496
548.09	4.116
548.29	3.772
548.48	4.027
548.68	3.885
548.87	3.866
549.07	3.601
549.26	3.654
549.46	3.653
549.65	3.661
549.84	3.528
550.04	3.355
550.23	3.662
550.43	3.742
550.62	3.470
550.82	3.333
551.01	3.156
551.21	3.438
551.40	3.121
551.60	3.477
551.79	3.316
551.99	3.813
552.18	3.334
552.38	3.654
552.57	3.780
552.77	3.870
552.96	3.997
553.16	3.733
553.35	3.952
553.54	3.994
553.74	3.900
553.93	3.943
554.13	3.708
554.32	3.970
554.52	3.912
554.71	4.123
554.91	3.638
555.10	4.029
555.29	3.420
555.49	3.948
555.68	3.384
555.88	3.718
556.07	3.531
556.27	4.096
556.46	3.776
556.66	3.703
556.85	4.024
557.04	4.130
557.24	4.119
557.43	4.167
557.63	3.990
557.82	3.834
558.02	3.770
558.21	4.185
558.40	3.522
558.60	4.024
558.79	3.939
558.99	3.903
559.18	3.712
559.38	3.739
559.57	4.082
559.76	3.984
559.96	4.355
560.15	4.194
560.35	3.756
560.54	4.151
560.73	3.375
560.93	4.214
561.12	4.035
561.32	4.027
561.51	4.121
561.70	4.499
561.90	4.362
562.09	4.587
562.29	4.035
562.48	3.960
562.67	4.157
562.87	4.557
563.06	4.174
563.26	4.120
563.45	4.934
563.64	4.640
563.84	4.459
564.03	4.971
564.23	4.429
564.42	5.613
564.61	4.588
564.81	4.568
565.00	5.130
565.20	5.100
565.39	4.751
565.58	4.913
565.78	4.537
565.97	4.758
566.16	5.420
566.36	5.862
566.55	5.187
566.74	4.645
566.94	4.932
567.13	5.722
567.33	5.099
567.52	5.770
567.71	4.730
567.91	5.045
568.10	5.241
568.29	5.357
568.49	5.097
568.68	5.571
568.87	5.265
569.07	5.885
569.26	5.503
569.45	5.834
569.65	5.079
569.84	5.969
570.04	5.494
570.23	6.008
570.42	4.452
570.62	5.390
570.81	5.283
571.00	5.708
571.20	5.517
571.39	5.722
571.58	5.469
571.78	6.399
571.97	5.752
572.16	5.811
572.36	5.904
572.55	6.041
572.74	5.959
572.94	5.670
573.13	5.969
573.32	6.011
573.51	5.498
573.71	6.233
573.90	5.631
574.09	6.410
574.29	6.477
574.48	6.102
574.67	6.332
574.87	6.320
575.06	5.750
575.25	6.389
575.45	6.277
575.64	6.475
575.83	6.063
576.03	6.274
576.22	5.883
576.41	6.146
576.60	6.186
576.80	6.213
576.99	6.248
577.18	6.803
577.38	5.860
577.57	6.106
577.76	6.625
577.95	6.504
578.15	5.421
578.34	6.634
578.53	5.790
578.73	6.299
578.92	5.316
579.11	5.652
579.30	6.261
579.50	5.684
579.69	6.154
579.88	5.595
580.08	5.443
580.27	6.149
580.46	6.225
580.65	6.366
580.85	5.621
581.04	5.560
581.23	5.551
581.42	6.108
581.62	5.539
581.81	5.608
582.00	5.804
582.19	5.870
582.39	5.922
582.58	5.402
582.77	5.527
582.96	5.302
583.16	5.325
583.35	6.273
583.54	5.866
583.73	5.427
583.93	5.876
584.12	5.580
584.31	5.859
584.50	5.265
584.70	5.398
584.89	5.613
585.08	5.630
585.27	6.362
585.47	5.010
585.66	6.594
585.85	5.074
586.04	5.869
586.24	6.181
586.43	5.236
586.62	5.492
586.81	5.550
587.00	5.469
587.20	5.981
587.39	5.159
587.58	5.554
587.77	5.230
587.97	4.972
588.16	5.532
588.35	5.944
588.54	4.944
588.73	5.325
588.93	6.252
589.12	6.255
589.31	5.453
589.50	5.411
589.69	6.020
589.89	5.855
590.08	5.414
590.27	5.227
590.46	5.605
590.65	5.467
590.85	4.832
591.04	5.586
591.23	5.761
591.42	6.184
591.61	5.232
591.81	5.612
592.00	5.552
592.19	6.591
592.38	4.994
592.57	5.957
592.77	5.027
592.96	5.736
593.15	6.460
593.34	6.274
593.53	6.046
593.72	5.617
593.92	4.943
594.11	6.845
594.30	5.225
594.49	6.140
594.68	6.078
594.87	5.720
595.07	5.136
595.26	6.024
595.45	5.302
595.64	5.869
595.83	5.053
596.02	5.865
596.22	5.498
596.41	5.831
596.60	5.859
596.79	6.274
596.98	6.129
597.17	6.370
597.37	5.731
597.56	6.485
597.75	5.806
597.94	6.480
598.13	6.074
598.32	6.093
598.51	5.859
598.71	6.619
598.90	6.119
599.09	6.495
599.28	5.531
599.47	6.292
599.66	5.861
599.85	7.089
600.05	5.953
600.24	6.902
600.43	5.721
600.62	6.328
600.81	6.278
601.00	6.576
601.19	5.595
601.38	6.664
601.58	6.393
601.77	5.684
601.96	5.605
602.15	6.511
602.34	5.885
602.53	6.847
602.72	5.999
602.91	7.121
603.10	6.266
603.30	6.927
603.49	5.778
603.68	6.706
603.87	5.894
604.06	7.073
604.25	6.979
604.44	6.433
604.63	6.479
604.82	6.554
605.01	6.607
605.21	7.030
605.40	6.336
605.59	6.987
605.78	6.552
605.97	6.710
606.16	6.561
606.35	7.174
606.54	6.099
606.73	7.184
606.92	6.307
607.11	6.823
607.30	6.283
607.50	7.089
607.69	5.908
607.88	6.319
608.07	6.487
608.26	7.045
608.45	6.409
608.64	6.966
608.83	5.903
609.02	6.396
609.21	6.558
609.40	6.692
609.59	6.347
609.78	7.140
609.97	5.945
610.16	7.087
610.35	7.140
610.55	6.549
610.74	6.187
610.93	6.424
611.12	5.986
611.31	6.351
611.50	5.842
611.69	5.758
611.88	5.979
612.07	6.786
612.26	5.277
612.45	6.418
612.64	6.056
612.83	6.744
613.02	4.928
613.21	6.056
613.40	5.434
613.59	6.006
613.78	5.376
613.97	5.699
614.16	5.491
614.35	6.674
614.54	5.299
614.73	6.014
614.92	6.020
615.11	4.946
615.30	5.289
615.49	4.854
615.68	5.360
615.87	5.145
616.07	4.829
616.26	5.700
616.45	5.616
616.64	5.195
616.83	5.319
617.02	5.451
617.21	4.611
617.40	5.006
617.59	5.227
617.78	5.593
617.97	4.779
618.16	4.725
618.35	4.612
618.54	5.989
618.73	4.711
618.92	5.256
619.11	4.769
619.30	5.701
619.49	4.783
619.68	5.824
619.86	4.891
620.05	4.851
620.24	4.983
620.43	4.311
620.62	4.339
620.81	4.747
621.00	5.321
621.19	6.372
621.38	5.191
621.57	5.590
621.76	5.000
621.95	5.308
622.14	5.022
622.33	5.800
622.52	3.975
622.71	4.541
622.90	4.816
623.09	5.056
623.28	4.832
623.47	5.428
623.66	5.153
623.85	4.871
624.04	4.446
624.23	4.643
624.42	4.976
624.61	5.148
624.80	4.494
624.99	4.909
625.18	4.204
625.36	4.335
625.55	4.611
625.74	4.349
625.93	4.246
626.12	4.786
626.31	4.754
626.50	4.902
626.69	4.985
626.88	5.773
627.07	4.624
627.26	4.556
627.45	4.877
627.64	4.792
627.83	4.640
628.02	4.967
628.20	4.479
628.39	4.875
628.58	4.844
628.77	5.698
628.96	4.029
629.15	3.927
629.34	4.908
629.53	4.681
629.72	4.251
629.91	5.178
630.10	4.726
630.29	4.779
630.47	3.944
630.66	4.526
630.85	4.938
631.04	4.474
631.23	4.968
631.42	4.806
631.61	4.608
631.80	5.228
631.99	4.963
632.18	4.860
632.36	4.120
632.55	4.634
632.74	4.097
632.93	4.795
633.12	4.641
633.31	4.747
633.50	4.751
633.69	5.091
633.88	4.386
634.06	4.731
634.25	4.145
634.44	4.827
634.63	4.426
634.82	5.418
635.01	4.661
635.20	4.959
635.39	3.570
635.57	4.415
635.76	4.429
635.95	3.491
636.14	3.978
636.33	4.915
636.52	3.840
636.71	4.519
636.89	4.625
637.08	4.421
637.27	3.844
637.46	4.364
637.65	4.650
637.84	4.015
638.03	3.741
638.21	4.721
638.40	4.380
638.59	4.230
638.78	3.909
638.97	4.793
639.16	4.993
639.34	4.319
639.53	3.677
639.72	5.431
639.91	4.801
640.10	4.200
640.29	5.056
640.47	5.386
640.66	4.186
640.85	4.982
641.04	3.433
641.23	4.874
641.42	4.692
641.60	4.271
641.79	4.136
641.98	3.867
642.17	4.242
642.36	4.833
642.54	5.217
642.73	4.453
642.92	5.055
643.11	3.670
643.30	4.328
643.49	4.262
643.67	3.554
643.86	4.904
644.05	4.788
644.24	3.752
644.43	4.502
644.61	4.825
644.80	4.129
644.99	4.013
645.18	6.210
645.37	3.985
645.55	4.779
645.74	4.630
645.93	4.906
646.12	4.362
646.31	5.185
646.49	3.815
646.68	4.784
646.87	4.881
647.06	4.583
647.24	4.952
647.43	3.663
647.62	5.124
647.81	3.813
648.00	5.035
648.18	3.640
648.37	4.724
648.56	5.104
648.75	4.481
648.93	5.177
649.12	4.967
649.31	4.443
649.50	4.187
649.68	4.592
649.87	4.951
650.06	3.195
650.25	3.640
650.43	4.447
650.62	4.824
650.81	4.228
651.00	4.723
651.18	4.499
651.37	4.750
651.56	3.152
651.75	5.170
651.93	4.310
652.12	4.509
652.31	4.001
652.50	4.538
652.68	4.558
652.87	4.755
653.06	5.081
653.25	5.238
653.43	4.997
653.62	3.256
653.81	4.952
654.00	4.809
654.18	4.026
654.37	4.200
654.56	3.849
654.74	4.931
654.93	4.464
655.12	4.951
655.31	4.534
655.49	6.042
655.68	3.708
655.87	3.884
656.05	3.446
656.24	3.765
656.43	4.250
656.62	4.764
656.80	4.726
656.99	4.328
657.18	4.554
657.36	4.519
657.55	4.728
657.74	4.338
657.93	5.287
658.11	4.455
658.30	4.180
658.49	3.511
658.67	3.999
658.86	4.233
659.05	3.614
659.23	3.831
659.42	3.434
659.61	3.600
659.79	4.060
659.98	3.942
660.17	4.683
660.35	4.285
660.54	4.457
660.73	5.480
660.91	4.611
661.10	4.263
661.29	3.768
661.47	4.047
661.66	3.853
661.85	4.124
662.03	5.484
662.22	3.862
662.41	4.276
662.59	3.754
662.78	3.782
662.97	4.476
663.15	4.377
663.34	4.449
663.53	4.454
663.71	3.563
663.90	5.007
664.09	5.133
664.27	4.243
664.46	3.883
664.65	4.642
664.83	4.049
665.02	4.446
665.21	4.208
665.39	4.870
665.58	4.543
665.77	4.492
665.95	4.348
666.14	5.151
666.32	3.391
666.51	4.423
666.70	4.406
666.88	5.035
667.07	4.548
667.26	4.541
667.44	4.371
667.63	5.189
667.81	4.699
668.00	4.388
668.19	5.504
668.37	4.399
668.56	4.781
668.75	5.843
668.93	5.397
669.12	4.323
669.30	4.890
669.49	5.097
669.68	5.252
669.86	5.206
670.05	4.109
670.23	5.199
670.42	4.776
670.61	5.663
670.79	4.721
670.98	5.128
671.16	6.061
671.35	5.832
671.54	5.303
671.72	6.038
671.91	5.299
672.09	5.237
672.28	5.595
672.46	6.982
672.65	6.116
672.84	6.788
673.02	6.073
673.21	4.915
673.39	5.789
673.58	5.942
673.77	4.764
673.95	6.409
674.14	6.832
674.32	5.954
674.51	7.808
674.69	5.618
674.88	5.911
675.07	4.613
675.25	7.141
675.44	6.922
675.62	5.913
675.81	5.398
675.99	9.375
676.18	7.567
676.36	6.322
676.55	6.085
676.74	6.900
676.92	8.340
677.11	6.768
677.29	6.029
677.48	7.336
677.66	7.755
677.85	6.557
678.03	5.921
678.22	7.982
678.40	6.671
678.59	5.630
678.78	5.897
678.96	6.372
679.15	7.113
679.33	7.368
679.52	6.694
679.70	7.297
679.89	7.259
680.07	6.347
680.26	6.130
680.44	6.741
680.63	6.270
680.81	5.870
681.00	5.084
681.18	6.275
681.37	6.354
681.55	7.538
681.74	6.912
681.92	6.947
682.11	7.344
682.29	5.637
682.48	6.557
682.66	7.575
682.85	6.549
683.03	7.505
683.22	7.843
683.40	8.171
683.59	6.925
683.77	6.582
683.96	5.906
684.14	7.733
684.33	5.779
684.51	9.101
684.70	7.897
684.88	8.283
685.07	8.536
685.25	8.347
685.44	7.963
685.62	7.235
685.81	5.998
685.99	7.844
686.18	6.993
686.36	8.421
686.55	6.238
686.73	8.604
686.92	8.093
687.10	6.993
687.29	9.022
687.47	8.031
687.65	7.793
687.84	7.145
688.02	10.428
688.21	8.914
688.39	7.615
688.58	9.767
688.76	7.423
688.95	7.176
689.13	6.754
689.32	8.179
689.50	8.750
689.68	8.687
689.87	7.771
690.05	9.015
690.24	8.119
690.42	8.129
690.61	8.629
690.79	8.161
690.98	8.816
691.16	9.963
691.34	7.312
691.53	8.257
691.71	9.185
691.90	8.916
692.08	7.365
692.27	10.022
692.45	9.899
692.63	8.843
692.82	8.577
693.00	8.400
693.19	8.761
693.37	9.946
693.56	8.893
693.74	12.103
693.92	9.315
694.11	9.994
694.29	11.157
694.48	10.986
694.66	11.147
694.84	11.644
695.03	9.224
695.21	12.323
695.40	11.874
695.58	12.089
695.76	9.830
695.95	12.214
696.13	10.903
696.32	11.861
696.50	16.758
696.68	12.982
696.87	11.864
697.05	14.764
697.24	13.733
697.42	14.225
697.60	13.966
697.79	14.060
697.97	14.914
698.16	16.394
698.34	12.792
698.52	14.963
698.71	15.373
698.89	14.640
699.07	14.797
699.26	15.834
699.44	16.761
699.63	15.733
699.81	14.990
699.99	17.617
700.18	16.350
700.36	15.988
700.54	17.375
700.73	17.478
700.91	17.191
701.09	18.428
701.28	18.227
701.46	18.602
701.64	17.417
701.83	19.704
702.01	18.561
702.20	20.336
702.38	20.234
702.56	20.388
702.75	19.715
702.93	20.506
703.11	20.235
703.30	21.733
703.48	22.568
703.66	21.021
703.85	19.582
704.03	24.836
704.21	20.874
704.40	24.527
704.58	22.139
704.76	22.121
704.95	23.653
705.13	24.011
705.31	21.947
705.50	25.218
705.68	22.933
705.86	24.781
706.04	22.254
706.23	25.616
706.41	25.200
706.59	24.865
706.78	23.217
706.96	26.716
707.14	25.383
707.33	26.149
707.51	24.761
707.69	25.776
707.88	23.999
708.06	27.987
708.24	26.546
708.42	26.403
708.61	24.541
708.79	28.104
708.97	29.020
709.16	27.588
709.34	29.463
709.52	27.465
709.71	26.819
709.89	28.463
710.07	26.831
710.25	29.600
710.44	27.639
710.62	28.291
710.80	27.729
710.98	29.505
711.17	26.031
711.35	28.832
711.53	27.785
711.72	30.096
711.90	28.755
712.08	29.342
712.26	28.207
712.45	28.382
712.63	28.724
712.81	29.994
712.99	27.489
713.18	30.027
713.36	30.889
713.54	28.239
713.72	27.740
713.91	28.451
714.09	25.592
714.27	29.823
714.45	30.900
714.64	31.632
714.82	29.667
715.00	31.949
715.18	29.730
715.37	29.827
715.55	30.101
715.73	30.775
715.91	30.688
716.10	29.794
716.28	28.779
716.46	30.817
716.64	27.335
716.83	30.251
717.01	28.537
717.19	30.681
717.37	29.019
717.55	30.673
717.74	28.666
717.92	29.272
718.10	29.794
718.28	29.623
718.47	29.888
718.65	31.020
718.83	29.925
719.01	28.770
719.19	29.816
719.38	30.241
719.56	30.403
719.74	32.220
719.92	26.927
720.10	30.407
720.29	29.799
720.47	30.826
720.65	31.634
720.83	32.664
721.01	29.070
721.20	32.016
721.38	30.738
721.56	31.479
721.74	31.169
721.92	30.933
722.11	30.494
722.29	31.211
722.47	32.844
722.65	31.708
722.83	31.818
723.01	33.519
723.20	32.852
723.38	31.783
723.56	29.732
723.74	31.319
723.92	31.821
724.10	32.278
724.29	31.705
724.47	33.576
724.65	31.548
724.83	35.595
725.01	30.601
725.19	34.782
725.38	31.968
725.56	34.061
725.74	31.590
725.92	33.478
726.10	31.819
726.28	34.063
726.46	30.971
726.65	34.545
726.83	31.345
727.01	33.303
727.19	31.681
727.37	32.513
727.55	32.534
727.73	31.605
727.92	28.988
728.10	32.499
728.28	31.196
728.46	33.663
728.64	31.632
728.82	34.788
729.00	32.574
729.19	34.213
729.37	31.925
729.55	32.621
729.73	31.897
729.91	32.996
730.09	32.596
730.27	35.526
730.45	29.501
730.63	33.246
730.82	31.705
731.00	32.051
731.18	30.339
731.36	31.751
731.54	30.861
731.72	34.032
731.90	32.128
732.08	32.614
732.26	31.688
732.45	35.317
732.63	31.765
732.81	33.811
732.99	31.764
733.17	32.870
733.35	33.098
733.53	34.234
733.71	31.957
733.89	35.354
734.07	29.870
734.25	35.707
734.44	33.271
734.62	35.223
734.80	31.594
734.98	35.563
735.16	35.511
735.34	34.149
735.52	36.041
735.70	35.931
735.88	35.297
736.06	36.068
736.24	36.744
736.42	36.078
736.60	35.480
736.78	35.904
736.97	35.168
737.15	37.412
737.33	38.033
737.51	35.499
737.69	36.577
737.87	35.428
738.05	34.894
738.23	35.859
738.41	35.844
738.59	37.905
738.77	35.505
738.95	37.072
739.13	36.533
739.31	34.972
739.49	36.149
739.67	37.983
739.85	34.292
740.03	35.714
740.21	35.873
740.39	38.172
740.57	37.240
740.75	39.466
740.93	37.235
741.11	37.228
741.30	36.326
741.48	36.413
741.66	37.150
741.84	35.947
742.02	36.366
742.20	37.764
742.38	35.815
742.56	38.691
742.74	35.797
742.92	37.709
743.10	35.422
743.28	37.900
743.46	36.083
743.64	36.496
743.82	37.608
744.00	37.410
744.18	36.607
744.36	37.455
744.54	37.697
744.72	40.555
744.90	41.929
745.08	37.424
745.26	37.297
745.44	42.424
745.62	39.390
745.80	38.523
745.98	37.749
746.16	40.492
746.34	35.750
746.52	39.310
746.70	36.670
746.87	40.779
747.05	38.304
747.23	39.687
747.41	41.735
747.59	38.687
747.77	38.648
747.95	37.875
748.13	39.856
748.31	38.857
748.49	39.418
748.67	41.160
748.85	39.890
749.03	40.958
749.21	35.468
749.39	41.417
749.57	34.635
749.75	36.777
749.93	36.177
750.11	38.871
750.29	38.022
750.47	38.750
750.65	38.060
750.83	37.731
751.01	35.938
751.18	37.979
751.36	36.123
751.54	36.861
751.72	36.468
751.90	40.997
752.08	34.009
752.26	38.009
752.44	37.484
752.62	35.413
752.80	37.601
752.98	39.604
753.16	38.872
753.34	37.802
753.52	39.448
753.69	37.886
753.87	37.080
754.05	40.364
754.23	35.037
754.41	37.827
754.59	39.427
754.77	38.540
754.95	36.560
755.13	39.341
755.31	37.673
755.49	36.737
755.66	35.338
755.84	39.524
756.02	37.021
756.20	38.854
756.38	37.607
756.56	35.858
756.74	36.465
756.92	37.230
757.10	37.679
757.28	39.709
757.45	40.115
757.63	36.946
757.81	37.629
757.99	39.500
758.17	36.248
758.35	38.036
758.53	35.184
758.71	37.157
758.88	35.370
759.06	37.176
759.24	33.802
759.42	35.444
759.60	33.610
759.78	35.651
759.96	30.769
760.13	33.795
760.31	26.232
760.49	30.772
760.67	24.207
760.85	27.524
761.03	26.112
761.21	26.718
761.38	27.184
761.56	29.475
761.74	27.315
761.92	32.593
762.10	26.581
762.28	30.245
762.46	24.745
762.63	27.752
762.81	29.050
762.99	28.610
763.17	27.763
763.35	29.601
763.53	26.276
763.70	29.233
763.88	29.238
764.06	27.128
764.24	26.803
764.42	28.818
764.60	29.145
764.77	29.860
764.95	28.537
765.13	31.014
765.31	27.869
765.49	28.955
765.66	28.270
765.84	29.067
766.02	28.885
766.20	30.570
766.38	28.824
766.56	31.670
766.73	29.477
766.91	30.655
767.09	32.203
767.27	35.031
767.45	33.422
767.62	33.973
767.80	28.215
767.98	34.109
768.16	30.279
768.33	34.748
768.51	33.757
768.69	36.785
768.87	34.015
769.05	35.846
769.22	34.326
769.40	41.605
769.58	37.110
769.76	36.744
769.94	36.743
770.11	34.683
770.29	36.614
770.47	38.744
770.65	37.110
770.82	40.554
771.00	34.066
771.18	38.356
771.36	38.157
771.53	41.191
771.71	36.616
771.89	40.522
772.07	38.685
772.25	37.625
772.42	35.447
772.60	39.354
772.78	37.045
772.96	42.191
773.13	38.343
773.31	37.994
773.49	40.193
773.67	41.740
773.84	37.580
774.02	37.202
774.20	38.672
774.37	38.493
774.55	39.735
774.73	42.698
774.91	37.660
775.08	41.032
775.26	42.575
775.44	41.005
775.62	39.395
775.79	38.029
775.97	38.239
776.15	34.855
776.32	39.410
776.50	46.650
776.68	43.234
776.86	41.220
777.03	41.816
777.21	40.173
777.39	35.941
777.56	41.536
777.74	40.571
777.92	38.109
778.10	38.747
778.27	41.179
778.45	38.951
778.63	39.506
778.80	40.413
778.98	39.034
779.16	41.258
779.34	42.247
779.51	38.719
779.69	42.276
779.87	38.309
780.04	40.240
780.22	33.601
780.40	41.000
780.57	37.506
780.75	40.391
780.93	47.522
781.10	37.425
781.28	42.176
781.46	36.413
781.63	38.462
781.81	44.150
781.99	34.611
782.16	38.706
782.34	34.577
782.52	36.683
782.69	36.790
782.87	44.207
783.05	37.599
783.22	37.500
783.40	39.933
783.58	40.711
783.75	36.512
783.93	43.051
784.11	41.020
784.28	39.798
784.46	32.981
784.64	45.218
784.81	35.556
784.99	41.751
785.17	41.893
785.34	34.792
785.52	36.221
785.69	38.457
785.87	40.045
786.05	42.951
786.22	37.528
786.40	42.965
786.58	38.246
786.75	42.693
786.93	40.834
787.11	42.688
787.28	40.138
787.46	36.577
787.63	37.153
787.81	39.780
787.99	40.077
788.16	38.743
788.34	36.429
788.51	38.414
788.69	35.374
788.87	36.631
789.04	34.871
789.22	40.100
789.39	33.755
789.57	34.324
789.75	34.865
789.92	38.514
790.10	31.001
790.27	35.687
790.45	35.169
790.63	35.406
790.80	33.870
790.98	35.297
791.15	32.955
791.33	36.909
791.51	31.013
791.68	35.752
791.86	39.357
792.03	37.416
792.21	34.710
792.39	42.728
792.56	38.242
792.74	40.082
792.91	38.819
793.09	38.411
793.26	32.380
793.44	39.315
793.62	38.802
793.79	38.366
793.97	36.702
794.14	38.123
794.32	39.848
794.49	40.272
794.67	35.509
794.84	33.551
795.02	39.231
795.20	38.589
795.37	36.456
795.55	39.625
795.72	37.081
795.90	39.793
796.07	37.910
796.25	33.333
796.42	32.598
796.60	38.325
796.77	34.412
796.95	37.360
797.13	31.593
797.30	35.899
797.48	39.730
797.65	37.745
797.83	37.394
798.00	37.886
798.18	30.568
798.35	33.930
798.53	35.365
798.70	40.200
798.88	35.575
799.05	32.155
799.23	38.209
799.40	37.929
799.58	36.460
799.75	32.774
799.93	31.836
800.10	37.861
800.28	35.675
800.45	35.294
800.63	31.306
800.80	40.934
800.98	33.882
801.15	35.076
801.33	34.104
801.50	35.452
801.68	35.198
801.85	36.043
802.03	36.375
802.20	36.468
802.38	37.868
802.55	35.782
802.73	38.630
802.90	41.509
803.08	35.661
803.25	40.065
803.43	42.315
803.60	37.836
803.78	36.035
803.95	40.233
804.13	38.676
804.30	42.761
804.48	29.700
804.65	39.177
804.83	33.706
805.00	39.276
805.17	34.971
805.35	39.198
805.52	29.399
805.70	40.486
805.87	38.573
806.05	35.524
806.22	38.426
806.40	39.736
806.57	35.066
806.75	37.997
806.92	38.723
807.09	40.443
807.27	41.271
807.44	38.243
807.62	36.095
807.79	36.412
807.97	37.391
808.14	38.964
808.31	36.797
808.49	31.583
808.66	37.687
808.84	39.870
809.01	36.099
809.19	37.653
809.36	40.347
809.53	37.679
809.71	39.959
809.88	38.997
810.06	38.088
810.23	40.060
810.41	43.736
810.58	46.418
810.75	39.398
810.93	37.754
811.10	40.347
811.28	37.199
811.45	39.262
811.62	35.824
811.80	36.427
811.97	38.897
812.15	42.780
812.32	36.756
812.49	41.126
812.67	31.698
812.84	40.145
813.02	42.356
813.19	34.383
813.36	42.857
813.54	37.520
813.71	41.076
813.89	38.994
814.06	42.835
814.23	37.914
814.41	39.111
814.58	38.707
814.75	41.827
814.93	41.208
815.10	41.237
815.28	35.977
815.45	38.542
815.62	38.075
815.80	29.615
815.97	30.458
816.14	44.586
816.32	37.873
816.49	29.544
816.66	38.397
816.84	35.540
817.01	42.132
817.18	35.679
817.36	37.255
817.53	31.757
817.71	25.830
817.88	40.063
818.05	34.705
818.23	38.407
818.40	31.532
818.57	27.977
818.75	32.712
818.92	40.649
819.09	31.097
819.27	34.391
819.44	32.932
819.61	36.773
819.79	28.845
819.96	36.165
820.13	29.808
820.31	32.534
820.48	33.293
820.65	28.696
820.82	29.291
821.00	30.567
821.17	25.561
821.34	28.719
821.52	26.837
821.69	26.531
821.86	23.966
822.04	25.046
822.21	23.607
822.38	26.025
822.56	23.380
822.73	25.788
822.90	24.193
823.07	24.741
823.25	25.431
823.42	24.318
823.59	23.588
823.77	25.747
823.94	24.804
824.11	26.110
824.29	24.820
824.46	27.437
824.63	26.433
824.80	25.639
824.98	25.028
825.15	25.659
825.32	20.793
825.49	27.151
825.67	23.247
825.84	25.428
826.01	22.411
826.19	25.080
826.36	25.118
826.53	25.430
826.70	23.989
826.88	25.856
827.05	22.878
827.22	24.916
827.39	24.128
827.57	22.606
827.74	24.987
827.91	26.561
828.08	21.642
828.26	25.986
828.43	22.172
828.60	26.771
828.77	22.974
828.95	23.734
829.12	22.682
829.29	22.905
829.46	25.627
829.64	23.982
829.81	22.929
829.98	30.534
830.15	24.789
830.32	23.818
830.50	22.883
830.67	25.458
830.84	27.583
831.01	29.646
831.19	24.810
831.36	21.825
831.53	35.520
831.70	36.407
831.87	34.143
832.05	32.239
832.22	30.008
832.39	29.154
832.56	28.756
832.74	34.257
832.91	31.587
833.08	34.327
833.25	28.021
833.42	28.175
833.60	28.806
833.77	25.828
833.94	27.903
834.11	28.068
834.28	22.495
834.45	23.340
834.63	24.884
834.80	27.560
834.97	21.610
835.14	25.929
835.31	24.039
835.49	23.335
835.66	25.352
835.83	24.477
836.00	22.635
836.17	25.838
836.34	27.628
836.52	26.120
836.69	27.747
836.86	29.905
837.03	28.264
837.20	23.857
837.37	30.527
837.55	25.230
837.72	33.740
837.89	35.106
838.06	34.836
838.23	36.833
838.40	34.919
838.58	35.432
838.75	41.562
838.92	48.089
839.09	55.369
839.26	42.547
839.43	45.223
839.60	46.888
839.78	46.573
839.95	50.000
840.12	48.640
840.29	47.592
840.46	37.945
840.63	41.295
840.80	39.583
840.98	39.773
841.15	43.544
841.32	35.273
841.49	39.793
841.66	34.224
841.83	43.470
842.00	41.757
842.17	29.953
842.34	33.930
842.52	47.389
842.69	46.818
842.86	45.546
843.03	55.345
843.20	37.516
843.37	50.957
843.54	48.894
843.71	44.174
843.88	60.582
844.06	51.944
844.23	55.603
844.40	55.099
844.57	52.695
844.74	58.296
844.91	60.427
845.08	63.306
845.25	67.833
845.42	59.806
845.59	59.556
845.76	58.770
845.94	83.181
846.11	66.598
846.28	64.050
846.45	72.024
846.62	71.069
846.79	50.438
846.96	73.973
847.13	63.040
847.30	59.246
847.47	57.345
847.64	53.333
847.81	68.293
847.98	73.981
848.15	80.365
848.32	87.363
848.50	65.347
848.67	64.882
848.84	86.799
849.01	73.420
849.18	73.128
849.35	86.111
849.52	68.852
849.69	76.573
849.86	79.817
850.03	65.533
850.20	70.935
850.37	71.287
850.54	63.095
850.71	66.267
850.88	71.881
851.05	76.110
851.22	76.471
851.39	78.601
851.56	66.214
851.73	83.573
851.90	69.476
852.07	76.699
852.24	66.105
852.41	66.442
852.58	75.506
852.75	79.286
852.92	72.624
853.09	93.318
853.26	101.553
853.43	77.303
853.60	76.944
853.77	97.122
853.94	90.141
854.11	79.493
854.28	98.337
854.45	63.134
854.62	77.449
854.79	96.239
854.96	67.939
855.13	76.974
855.30	66.053
855.47	89.944
855.64	65.688
855.81	72.955
855.98	88.158
856.15	90.547
856.32	76.823
856.49	78.830
856.66	86.207
856.83	87.080
857.00	59.545
857.17	84.541
857.34	82.183
857.51	71.852
857.68	84.158
857.85	57.853
858.02	89.247
858.19	50.794
858.36	64.935
858.53	84.709
858.70	93.720
858.87	97.568
859.04	80.085
859.21	76.617
859.38	70.156
859.55	90.562
859.72	82.989
859.89	90.355
860.05	76.798
860.22	79.126
860.39	82.620
860.56	73.763
860.73	88.889
860.90	79.630
861.07	79.405
861.24	73.902
861.41	76.882
861.58	76.441
861.75	86.207
861.92	74.728
862.09	88.521
862.26	87.736
862.43	97.326
862.59	90.814
862.76	81.297
862.93	100.267
863.10	59.113
863.27	84.697
863.44	77.692
863.61	75.597
863.78	76.978
863.95	85.811
864.12	69.828
864.29	109.034
864.45	64.468
864.62	81.153
864.79	88.978
864.96	102.995
865.13	72.609
865.30	77.320
865.47	71.212
865.64	86.626
865.81	82.123
865.97	74.318
866.14	84.973
866.31	89.041
866.48	77.299
866.65	87.835
866.82	101.229
866.99	101.932
867.16	71.905
867.33	95.890
867.49	71.496
867.66	76.591
867.83	68.039
868.00	95.442
868.17	68.653
868.34	96.543
868.51	73.333
868.67	91.624
868.84	93.103
869.01	90.870
869.18	72.805
869.35	91.667
869.52	66.821
869.69	105.488
869.85	94.395
870.02	66.494
870.19	77.561
870.36	97.156
870.53	72.561
870.70	75.312
870.86	89.091
871.03	87.593
871.20	76.176
871.37	78.378
871.54	87.895
871.71	54.523
871.87	80.802
872.04	83.898
872.21	68.542
872.38	80.319
872.55	92.476
872.72	75.943
872.88	88.274
873.05	76.063
873.22	70.602
873.39	70.793
873.56	82.338
873.72	81.096
873.89	61.209
874.06	65.445
874.23	96.581
874.40	65.990
874.56	83.906
874.73	74.049
874.90	77.830
875.07	84.675
875.24	74.201
875.40	79.870
875.57	100.239
875.74	72.874
875.91	73.904
876.08	57.238
876.24	82.057
876.41	85.403
876.58	65.867
876.75	81.440
876.92	72.441
877.08	66.667
877.25	82.028
877.42	72.198
877.59	89.842
877.75	68.320
877.92	58.761
878.09	73.762
878.26	74.619
878.42	59.175
878.59	81.235
878.76	75.122
878.93	87.076
879.09	58.730
879.26	76.967
879.43	76.430
879.60	58.794
879.76	73.438
879.93	69.463
880.10	58.767
880.27	56.175
880.43	56.164
880.60	58.722
880.77	50.155
880.94	45.468
881.10	36.812
881.27	37.486
881.44	29.306
881.61	24.633
881.77	26.991
881.94	26.715
882.11	20.930
882.28	20.707
882.44	22.282
882.61	19.490
882.78	21.048
882.94	25.173
883.11	22.069
883.28	21.023
883.45	21.471
883.61	21.087
883.78	23.503
883.95	25.332
884.11	24.820
884.28	23.400
>>>>>End Processed Spectral Data<<<<<
