SpectraSuite Data File
++++++++++++++++++++++++++++++++++++
Date: Thu Sep 19 02:47:14 EST 2019
User: sgrac
Dark Spectrum Present: Yes
Reference Spectrum Present: Yes
Number of Sampled Component Spectra: 1
Spectrometers: USB4E01596
Integration Time (usec): 100000 (USB4E01596)
Spectra Averaged: 1 (USB4E01596)
Boxcar Smoothing: 0 (USB4E01596)
Correct for Electrical Dark: No (USB4E01596)
Strobe/Lamp Enabled: Yes (USB4E01596)
Correct for Detector Non-linearity: No (USB4E01596)
Correct for Stray Light: No (USB4E01596)
Number of Pixels in Processed Spectrum: 3648
>>>>>Begin Processed Spectral Data<<<<<
178.44	257.143
178.66	257.143
178.87	257.143
179.09	-63.636
179.30	110.714
179.52	585.714
179.74	-55.556
179.95	271.429
180.17	536.364
180.38	88.060
180.60	0.000
180.82	241.935
181.03	64.815
181.25	500.000
181.46	15.385
181.68	-67.442
181.89	550.000
182.11	187.500
182.33	188.889
182.54	358.333
182.76	227.778
182.97	-67.857
183.19	23.810
183.40	143.636
183.62	38.095
183.84	625.000
184.05	213.333
184.27	-1150.000
184.48	73.016
184.70	2200.000
184.91	215.385
185.13	102.817
185.34	1.923
185.56	281.481
185.78	107.692
185.99	-525.000
186.21	-318.182
186.42	-50.000
186.64	340.000
186.85	-2850.000
187.07	154.545
187.28	342.857
187.50	131.818
187.72	144.444
187.93	277.778
188.15	310.526
188.36	341.176
188.58	105.128
188.79	300.000
189.01	279.167
189.22	1220.000
189.44	225.000
189.65	-1366.667
189.87	900.000
190.09	282.353
190.30	628.571
190.52	391.667
190.73	-46.154
190.95	36.364
191.16	245.833
191.38	133.333
191.59	-245.455
191.81	50.000
192.02	280.000
192.24	34.615
192.45	512.500
192.67	166.667
192.88	-77.778
193.10	-3600.000
193.31	137.143
193.53	-219.048
193.74	-75.000
193.96	722.222
194.18	293.750
194.39	178.049
194.61	242.105
194.82	300.000
195.04	140.000
195.25	900.000
195.47	102.632
195.68	82.353
195.90	197.674
196.11	176.923
196.33	-233.333
196.54	-463.158
196.76	100.000
196.97	66.667
197.19	-3100.000
197.40	233.333
197.62	783.333
197.83	415.385
198.05	275.000
198.26	90.000
198.48	76.471
198.69	-722.222
198.91	244.444
199.12	151.429
199.34	-585.714
199.55	56.140
199.77	121.739
199.98	-409.091
200.20	400.000
200.41	2900.000
200.63	135.714
200.84	138.095
201.06	-476.923
201.27	-120.000
201.49	125.000
201.70	68.750
201.91	-2250.000
202.13	336.842
202.34	80.435
202.56	800.000
202.77	287.500
202.99	134.000
203.20	209.091
203.42	-914.286
203.63	1000.000
203.85	144.444
204.06	160.870
204.28	400.000
204.49	150.000
204.71	202.439
204.92	146.667
205.14	146.667
205.35	115.714
205.56	833.333
205.78	481.818
205.99	20.000
206.21	386.957
206.42	93.220
206.64	-800.000
206.85	157.143
207.07	231.579
207.28	-1060.000
207.50	87.037
207.71	243.750
207.93	164.583
208.14	281.481
208.35	29.412
208.57	-100.000
208.78	-36.585
209.00	88.372
209.21	119.048
209.43	116.000
209.64	3600.000
209.86	128.571
210.07	82.759
210.28	-253.846
210.50	229.412
210.71	115.000
210.93	134.375
211.14	100.000
211.36	104.348
211.57	215.000
211.78	112.821
212.00	206.667
212.21	417.647
212.43	180.000
212.64	200.000
212.86	26.923
213.07	127.586
213.29	120.000
213.50	267.742
213.71	40.000
213.93	614.286
214.14	452.941
214.36	325.000
214.57	78.873
214.78	226.667
215.00	457.895
215.21	122.222
215.43	48.101
215.64	181.481
215.86	380.000
216.07	184.211
216.28	40.000
216.50	-250.000
216.71	-4100.000
216.93	229.630
217.14	107.576
217.35	82.857
217.57	375.000
217.78	20.000
218.00	433.333
218.21	266.667
218.42	114.062
218.64	-1300.000
218.85	139.216
219.07	214.286
219.28	68.852
219.49	241.667
219.71	475.000
219.92	122.973
220.14	437.500
220.35	111.364
220.56	123.077
220.78	56.140
220.99	180.000
221.21	73.196
221.42	256.522
221.63	1400.000
221.85	108.333
222.06	55.000
222.28	102.667
222.49	-544.444
222.70	79.630
222.92	-2800.000
223.13	139.474
223.34	64.130
223.56	391.667
223.77	67.647
223.99	88.889
224.20	98.333
224.41	73.333
224.63	100.000
224.84	33.333
225.05	100.000
225.27	156.410
225.48	106.667
225.69	58.824
225.91	87.500
226.12	10.145
226.34	143.750
226.55	20.588
226.76	117.647
226.98	27.273
227.19	35.897
227.40	52.000
227.62	47.945
227.83	33.036
228.04	2.597
228.26	28.571
228.47	21.667
228.69	6.618
228.90	38.690
229.11	24.017
229.33	1.914
229.54	24.481
229.75	30.389
229.97	18.293
230.18	26.246
230.39	12.374
230.61	12.287
230.82	18.937
231.03	5.732
231.25	8.389
231.46	15.774
231.67	6.038
231.89	4.365
232.10	24.528
232.31	29.018
232.53	32.110
232.74	0.459
232.95	30.882
233.17	18.974
233.38	1.579
233.59	21.348
233.81	16.667
234.02	34.286
234.23	22.165
234.45	24.545
234.66	18.966
234.87	6.395
235.09	9.043
235.30	33.010
235.51	15.695
235.73	10.606
235.94	5.804
236.15	38.806
236.36	10.667
236.58	16.746
236.79	33.190
237.00	24.900
237.22	20.106
237.43	25.292
237.64	10.559
237.86	5.189
238.07	41.597
238.28	14.567
238.50	1.914
238.71	28.497
238.92	-3.774
239.13	4.839
239.35	24.066
239.56	20.000
239.77	10.383
239.99	22.177
240.20	8.171
240.41	37.008
240.63	14.030
240.84	0.000
241.05	8.784
241.26	15.126
241.48	2.752
241.69	0.000
241.90	6.667
242.12	6.135
242.33	4.545
242.54	3.529
242.75	4.545
242.97	9.065
243.18	6.735
243.39	4.569
243.61	4.205
243.82	11.460
244.03	5.738
244.24	7.385
244.46	5.177
244.67	7.531
244.88	2.911
245.09	7.426
245.31	6.885
245.52	4.895
245.73	5.373
245.95	5.556
246.16	9.821
246.37	5.387
246.58	12.615
246.80	6.432
247.01	5.508
247.22	-0.577
247.43	7.780
247.65	5.085
247.86	4.180
248.07	3.157
248.28	3.262
248.50	4.787
248.71	1.756
248.92	2.755
249.13	2.980
249.35	2.189
249.56	4.618
249.77	3.527
249.98	4.922
250.20	1.827
250.41	7.650
250.62	7.605
250.83	1.573
251.05	7.659
251.26	11.847
251.47	8.217
251.68	4.623
251.90	9.524
252.11	6.489
252.32	2.768
252.53	0.440
252.75	3.048
252.96	10.027
253.17	2.500
253.38	8.526
253.59	6.049
253.81	6.547
254.02	10.161
254.23	6.613
254.44	7.714
254.66	4.739
254.87	4.068
255.08	4.440
255.29	8.588
255.50	1.629
255.72	6.667
255.93	16.143
256.14	11.422
256.35	2.088
256.57	6.880
256.78	7.237
256.99	19.403
257.20	18.998
257.41	7.629
257.63	3.947
257.84	6.831
258.05	-0.766
258.26	12.701
258.47	16.585
258.69	7.327
258.90	0.868
259.11	-0.646
259.32	2.847
259.53	6.148
259.75	4.241
259.96	5.707
260.17	3.904
260.38	2.340
260.59	5.397
260.81	3.366
261.02	2.184
261.23	3.700
261.44	5.620
261.65	2.686
261.87	0.780
262.08	2.555
262.29	5.569
262.50	1.232
262.71	2.586
262.92	3.689
263.14	4.732
263.35	2.090
263.56	5.263
263.77	0.641
263.98	6.519
264.20	5.998
264.41	0.630
264.62	6.460
264.83	-1.706
265.04	5.968
265.25	10.811
265.47	6.460
265.68	7.810
265.89	3.893
266.10	2.102
266.31	10.083
266.52	11.045
266.74	8.575
266.95	-1.906
267.16	4.464
267.37	5.000
267.58	1.013
267.79	6.402
268.01	6.848
268.22	5.730
268.43	2.597
268.64	8.383
268.85	1.397
269.06	7.311
269.27	5.633
269.49	7.130
269.70	1.845
269.91	4.636
270.12	4.055
270.33	7.136
270.54	3.876
270.75	6.497
270.97	1.317
271.18	2.894
271.39	1.798
271.60	1.266
271.81	2.215
272.02	2.875
272.23	0.868
272.45	1.278
272.66	3.418
272.87	5.342
273.08	3.608
273.29	1.527
273.50	1.280
273.71	4.257
273.92	2.159
274.14	-0.295
274.35	5.315
274.56	6.006
274.77	2.527
274.98	4.104
275.19	6.517
275.40	2.435
275.61	6.230
275.83	1.514
276.04	5.717
276.25	2.330
276.46	2.883
276.67	-1.730
276.88	4.042
277.09	5.709
277.30	3.556
277.51	5.469
277.73	5.365
277.94	3.387
278.15	1.045
278.36	3.390
278.57	8.363
278.78	3.922
278.99	5.365
279.20	3.846
279.41	-0.740
279.62	4.744
279.84	1.438
280.05	3.445
280.26	-0.184
280.47	4.856
280.68	4.313
280.89	3.688
281.10	2.214
281.31	4.475
281.52	0.000
281.73	0.855
281.94	1.629
282.16	3.088
282.37	3.389
282.58	4.928
282.79	6.206
283.00	-0.366
283.21	4.897
283.42	3.162
283.63	4.345
283.84	3.066
284.05	2.642
284.26	4.351
284.47	3.106
284.68	6.591
284.89	3.024
285.11	4.768
285.32	0.847
285.53	2.864
285.74	4.060
285.95	3.325
286.16	3.244
286.37	0.677
286.58	3.067
286.79	2.372
287.00	5.449
287.21	3.332
287.42	3.195
287.63	1.837
287.84	4.597
288.05	2.557
288.26	3.245
288.48	2.192
288.69	1.683
288.90	3.461
289.11	5.083
289.32	4.294
289.53	3.448
289.74	4.225
289.95	3.759
290.16	2.536
290.37	0.240
290.58	2.213
290.79	4.333
291.00	3.680
291.21	2.292
291.42	1.883
291.63	3.024
291.84	3.255
292.05	2.970
292.26	1.715
292.47	3.147
292.68	5.460
292.89	2.012
293.10	3.066
293.31	3.356
293.52	3.256
293.73	3.259
293.94	3.104
294.15	4.212
294.36	0.137
294.57	6.156
294.79	0.459
295.00	2.765
295.21	3.582
295.42	3.639
295.63	1.973
295.84	2.959
296.05	2.701
296.26	1.868
296.47	2.267
296.68	2.980
296.89	4.516
297.10	1.154
297.31	3.725
297.52	2.576
297.73	1.710
297.94	1.753
298.15	4.133
298.36	2.272
298.57	3.430
298.78	3.424
298.99	1.418
299.20	3.072
299.41	1.804
299.62	1.380
299.83	3.012
300.04	2.540
300.25	2.233
300.46	1.004
300.67	3.139
300.88	3.355
301.09	3.233
301.30	4.000
301.50	5.537
301.71	4.649
301.92	2.877
302.13	1.892
302.34	1.127
302.55	3.071
302.76	2.823
302.97	3.414
303.18	1.864
303.39	3.020
303.60	1.180
303.81	2.711
304.02	2.071
304.23	3.426
304.44	6.231
304.65	4.164
304.86	-0.602
305.07	1.738
305.28	1.977
305.49	3.486
305.70	5.383
305.91	2.013
306.12	1.923
306.33	3.690
306.54	1.708
306.75	2.367
306.96	5.963
307.17	2.771
307.38	0.505
307.58	1.259
307.79	1.718
308.00	2.961
308.21	3.839
308.42	5.442
308.63	5.659
308.84	2.163
309.05	3.271
309.26	2.875
309.47	1.172
309.68	0.825
309.89	2.299
310.10	1.813
310.31	2.290
310.52	1.644
310.73	5.237
310.94	1.530
311.14	1.205
311.35	2.284
311.56	-0.141
311.77	3.030
311.98	3.028
312.19	-0.222
312.40	4.154
312.61	1.246
312.82	4.050
313.03	0.872
313.24	2.416
313.45	3.540
313.66	2.478
313.86	4.438
314.07	1.596
314.28	6.226
314.49	4.367
314.70	3.779
314.91	6.217
315.12	1.935
315.33	4.482
315.54	2.841
315.75	1.937
315.96	5.074
316.16	1.813
316.37	1.748
316.58	4.286
316.79	2.819
317.00	2.385
317.21	5.114
317.42	5.649
317.63	2.180
317.84	1.851
318.05	3.682
318.25	4.037
318.46	1.644
318.67	0.938
318.88	1.981
319.09	3.966
319.30	2.221
319.51	2.378
319.72	1.709
319.93	5.807
320.13	4.107
320.34	3.302
320.55	3.699
320.76	2.277
320.97	4.206
321.18	5.316
321.39	5.230
321.60	3.030
321.80	3.591
322.01	1.256
322.22	3.697
322.43	4.679
322.64	1.589
322.85	4.003
323.06	5.468
323.27	6.027
323.47	2.679
323.68	4.991
323.89	1.974
324.10	5.427
324.31	1.990
324.52	-0.168
324.73	1.967
324.93	3.673
325.14	3.212
325.35	3.481
325.56	3.136
325.77	4.224
325.98	6.884
326.19	3.490
326.39	1.559
326.60	4.688
326.81	3.782
327.02	2.681
327.23	1.602
327.44	4.873
327.64	3.929
327.85	1.708
328.06	3.200
328.27	6.161
328.48	3.014
328.69	4.660
328.90	2.889
329.10	4.258
329.31	3.983
329.52	4.388
329.73	5.559
329.94	4.695
330.15	4.819
330.35	2.065
330.56	2.049
330.77	0.643
330.98	4.791
331.19	1.424
331.39	3.630
331.60	5.149
331.81	3.490
332.02	8.357
332.23	1.485
332.44	2.820
332.64	2.647
332.85	4.084
333.06	4.402
333.27	2.541
333.48	3.437
333.68	3.383
333.89	4.553
334.10	3.706
334.31	4.023
334.52	2.507
334.72	1.016
334.93	1.085
335.14	2.523
335.35	3.296
335.56	3.663
335.76	4.567
335.97	2.442
336.18	2.599
336.39	3.640
336.60	3.739
336.80	3.223
337.01	0.000
337.22	2.381
337.43	5.312
337.64	3.319
337.84	3.671
338.05	3.084
338.26	3.925
338.47	2.837
338.68	3.238
338.88	3.505
339.09	4.425
339.30	1.567
339.51	4.220
339.71	4.971
339.92	2.151
340.13	2.587
340.34	3.803
340.55	2.141
340.75	3.514
340.96	1.714
341.17	2.738
341.38	1.987
341.58	2.398
341.79	2.429
342.00	2.500
342.21	4.420
342.41	1.183
342.62	4.736
342.83	3.383
343.04	2.246
343.24	2.176
343.45	4.455
343.66	2.920
343.87	2.037
344.07	2.545
344.28	2.874
344.49	1.644
344.70	3.451
344.90	3.310
345.11	1.221
345.32	1.958
345.53	2.208
345.73	1.641
345.94	2.323
346.15	4.376
346.36	1.184
346.56	2.007
346.77	3.457
346.98	2.610
347.19	1.573
347.39	2.287
347.60	1.617
347.81	1.649
348.02	3.064
348.22	1.352
348.43	2.785
348.64	3.093
348.84	1.212
349.05	1.837
349.26	3.464
349.47	2.488
349.67	2.316
349.88	4.202
350.09	2.957
350.30	2.234
350.50	2.264
350.71	4.931
350.92	4.327
351.12	2.290
351.33	4.836
351.54	2.081
351.74	1.329
351.95	3.092
352.16	3.945
352.37	4.703
352.57	2.646
352.78	3.858
352.99	2.127
353.19	2.589
353.40	3.774
353.61	3.720
353.82	3.024
354.02	3.078
354.23	1.461
354.44	1.430
354.64	1.633
354.85	3.282
355.06	0.647
355.26	1.754
355.47	3.854
355.68	4.779
355.88	2.626
356.09	3.410
356.30	2.564
356.51	1.554
356.71	2.321
356.92	1.686
357.13	2.393
357.33	3.017
357.54	3.861
357.75	1.996
357.95	3.075
358.16	2.910
358.37	1.070
358.57	2.346
358.78	2.265
358.99	3.441
359.19	1.847
359.40	3.290
359.61	3.583
359.81	2.865
360.02	2.145
360.23	3.115
360.43	2.399
360.64	2.175
360.85	2.787
361.05	1.015
361.26	4.107
361.47	1.891
361.67	2.000
361.88	1.913
362.09	1.466
362.29	1.848
362.50	2.126
362.70	2.063
362.91	3.154
363.12	1.730
363.32	1.848
363.53	1.619
363.74	2.429
363.94	1.824
364.15	2.719
364.36	1.784
364.56	1.863
364.77	1.679
364.98	3.136
365.18	3.483
365.39	3.448
365.59	1.250
365.80	1.337
366.01	4.207
366.21	0.788
366.42	2.862
366.63	2.665
366.83	2.205
367.04	1.348
367.24	3.724
367.45	0.952
367.66	1.514
367.86	1.147
368.07	3.195
368.28	1.763
368.48	1.452
368.69	0.723
368.89	1.204
369.10	1.995
369.31	1.850
369.51	1.980
369.72	2.605
369.92	4.121
370.13	1.882
370.34	3.100
370.54	1.868
370.75	3.234
370.95	0.634
371.16	2.110
371.37	1.093
371.57	2.137
371.78	2.600
371.98	2.270
372.19	2.269
372.40	2.930
372.60	1.764
372.81	1.127
373.01	1.498
373.22	1.637
373.43	2.656
373.63	0.997
373.84	2.699
374.04	2.457
374.25	3.588
374.46	2.990
374.66	1.738
374.87	2.277
375.07	1.728
375.28	1.431
375.48	2.645
375.69	1.077
375.90	0.619
376.10	1.399
376.31	2.874
376.51	2.087
376.72	0.639
376.92	2.040
377.13	1.948
377.34	3.114
377.54	2.438
377.75	1.821
377.95	1.896
378.16	1.146
378.36	1.667
378.57	1.472
378.77	2.577
378.98	2.093
379.19	1.150
379.39	1.614
379.60	2.075
379.80	0.468
380.01	3.266
380.21	2.922
380.42	1.408
380.62	0.737
380.83	1.314
381.04	2.208
381.24	2.364
381.45	2.576
381.65	1.075
381.86	2.208
382.06	1.800
382.27	1.512
382.47	1.672
382.68	1.860
382.88	1.803
383.09	1.493
383.29	0.754
383.50	2.075
383.71	2.675
383.91	-0.496
384.12	0.554
384.32	2.171
384.53	1.445
384.73	0.928
384.94	1.640
385.14	2.147
385.35	1.176
385.55	2.038
385.76	0.024
385.96	1.892
386.17	1.521
386.37	1.697
386.58	1.496
386.78	1.626
386.99	1.558
387.19	2.534
387.40	1.973
387.60	2.103
387.81	1.000
388.01	1.267
388.22	1.939
388.42	1.227
388.63	1.839
388.83	2.366
389.04	1.424
389.24	1.261
389.45	0.120
389.65	0.697
389.86	2.063
390.06	1.122
390.27	0.580
390.47	1.970
390.68	1.046
390.88	1.957
391.09	2.377
391.29	1.333
391.50	0.734
391.70	0.868
391.91	0.418
392.11	1.262
392.32	1.269
392.52	1.567
392.73	2.380
392.93	0.979
393.14	1.628
393.34	1.861
393.55	1.607
393.75	1.195
393.95	1.198
394.16	0.738
394.36	1.111
394.57	1.242
394.77	1.414
394.98	0.533
395.18	1.532
395.39	1.934
395.59	1.650
395.80	0.858
396.00	1.572
396.21	2.176
396.41	1.291
396.61	1.812
396.82	1.567
397.02	1.774
397.23	1.072
397.43	1.079
397.64	2.265
397.84	1.120
398.05	1.246
398.25	0.699
398.45	1.257
398.66	0.653
398.86	1.255
399.07	2.440
399.27	1.139
399.48	2.491
399.68	1.021
399.89	0.947
400.09	1.449
400.29	1.699
400.50	1.785
400.70	2.288
400.91	0.969
401.11	1.387
401.32	1.635
401.52	0.345
401.72	2.520
401.93	0.753
402.13	1.530
402.34	1.533
402.54	-0.197
402.75	1.565
402.95	2.689
403.15	1.445
403.36	2.182
403.56	1.135
403.77	1.689
403.97	1.168
404.17	1.915
404.38	0.737
404.58	2.049
404.79	1.581
404.99	0.285
405.19	1.031
405.40	0.890
405.60	0.794
405.81	1.631
406.01	0.682
406.21	0.820
406.42	1.185
406.62	1.475
406.83	1.770
407.03	1.974
407.23	0.304
407.44	0.677
407.64	0.905
407.85	1.188
408.05	1.110
408.25	1.207
408.46	1.126
408.66	0.422
408.87	-0.020
409.07	1.127
409.27	-0.021
409.48	1.407
409.68	1.438
409.88	0.773
410.09	1.527
410.29	1.319
410.50	1.384
410.70	0.601
410.90	1.178
411.11	0.913
411.31	1.426
411.51	1.563
411.72	1.540
411.92	1.268
412.12	0.797
412.33	0.838
412.53	0.506
412.74	1.243
412.94	1.806
413.14	-0.020
413.35	0.735
413.55	1.259
413.75	0.576
413.96	0.165
414.16	1.068
414.36	0.788
414.57	1.027
414.77	0.641
414.97	0.890
415.18	0.161
415.38	1.418
415.58	0.804
415.79	1.314
415.99	1.747
416.19	1.580
416.40	1.782
416.60	0.814
416.80	0.958
417.01	1.255
417.21	0.710
417.41	0.988
417.62	0.757
417.82	1.428
418.02	0.749
418.23	1.405
418.43	0.303
418.63	0.783
418.84	0.777
419.04	0.719
419.24	1.679
419.45	0.905
419.65	1.580
419.85	0.950
420.06	0.224
420.26	0.244
420.46	0.964
420.67	1.032
420.87	0.447
421.07	0.531
421.28	0.611
421.48	0.571
421.68	0.502
421.88	0.760
422.09	0.357
422.29	0.839
422.49	0.716
422.70	0.530
422.90	0.720
423.10	0.975
423.31	0.676
423.51	0.750
423.71	0.457
423.91	0.733
424.12	1.145
424.32	0.767
424.52	0.898
424.73	0.560
424.93	0.749
425.13	0.572
425.33	0.497
425.54	0.897
425.74	0.472
425.94	0.737
426.15	0.316
426.35	0.798
426.55	0.717
426.75	0.672
426.96	1.100
427.16	0.630
427.36	0.769
427.57	1.064
427.77	0.500
427.97	0.627
428.17	1.250
428.38	1.144
428.58	0.434
428.78	1.246
428.98	0.657
429.19	0.470
429.39	0.625
429.59	1.397
429.79	0.389
430.00	1.213
430.20	1.058
430.40	1.257
430.60	0.029
430.81	0.760
431.01	0.296
431.21	0.734
431.41	0.807
431.62	1.310
431.82	0.700
432.02	0.725
432.22	0.980
432.43	0.422
432.63	0.416
432.83	0.964
433.03	0.316
433.24	0.652
433.44	1.018
433.64	0.594
433.84	0.628
434.05	0.487
434.25	0.271
434.45	0.899
434.65	0.738
434.85	0.642
435.06	0.645
435.26	1.192
435.46	0.584
435.66	0.871
435.87	0.698
436.07	0.567
436.27	0.702
436.47	0.334
436.67	0.514
436.88	0.382
437.08	1.051
437.28	0.241
437.48	0.848
437.69	0.382
437.89	1.167
438.09	0.621
438.29	0.537
438.49	1.353
438.70	1.309
438.90	0.703
439.10	0.541
439.30	0.604
439.50	0.706
439.71	0.840
439.91	0.626
440.11	1.272
440.31	0.738
440.51	0.352
440.72	0.861
440.92	0.564
441.12	0.712
441.32	0.997
441.52	0.592
441.72	0.367
441.93	0.199
442.13	0.616
442.33	0.833
442.53	0.829
442.73	0.688
442.94	0.508
443.14	0.296
443.34	1.077
443.54	0.946
443.74	0.729
443.94	0.555
444.15	0.356
444.35	0.443
444.55	0.862
444.75	0.642
444.95	0.639
445.15	0.773
445.36	0.387
445.56	0.630
445.76	0.773
445.96	0.621
446.16	0.608
446.36	0.922
446.57	0.655
446.77	0.041
446.97	0.330
447.17	0.610
447.37	0.423
447.57	0.693
447.77	0.789
447.98	0.668
448.18	0.566
448.38	0.424
448.58	0.534
448.78	0.725
448.98	0.426
449.18	0.580
449.39	0.302
449.59	0.293
449.79	0.259
449.99	0.684
450.19	0.376
450.39	0.594
450.59	0.863
450.79	0.553
451.00	0.840
451.20	0.643
451.40	0.475
451.60	0.864
451.80	0.967
452.00	0.664
452.20	0.183
452.40	0.907
452.61	0.801
452.81	0.058
453.01	0.685
453.21	0.733
453.41	0.781
453.61	0.425
453.81	0.357
454.01	0.244
454.21	-0.022
454.42	0.717
454.62	0.792
454.82	0.365
455.02	0.644
455.22	-0.141
455.42	0.485
455.62	0.752
455.82	0.535
456.02	0.687
456.23	0.389
456.43	1.048
456.63	0.664
456.83	-0.085
457.03	0.407
457.23	0.664
457.43	0.551
457.63	0.417
457.83	1.145
458.03	0.880
458.23	0.642
458.43	0.688
458.64	0.926
458.84	0.458
459.04	0.948
459.24	0.473
459.44	1.066
459.64	0.353
459.84	0.676
460.04	0.240
460.24	0.216
460.44	0.443
460.64	0.148
460.84	0.586
461.04	0.912
461.24	0.635
461.45	0.546
461.65	0.912
461.85	0.815
462.05	0.877
462.25	0.721
462.45	0.678
462.65	0.397
462.85	0.208
463.05	0.604
463.25	0.726
463.45	0.905
463.65	0.608
463.85	0.629
464.05	1.199
464.25	0.321
464.45	0.707
464.65	0.538
464.85	1.107
465.05	0.852
465.26	0.313
465.46	0.824
465.66	0.666
465.86	0.725
466.06	1.276
466.26	0.975
466.46	0.680
466.66	0.671
466.86	0.316
467.06	0.969
467.26	0.623
467.46	1.602
467.66	1.022
467.86	0.962
468.06	0.153
468.26	0.212
468.46	0.280
468.66	0.355
468.86	0.513
469.06	0.690
469.26	0.706
469.46	0.804
469.66	-0.023
469.86	1.347
470.06	0.482
470.26	1.295
470.46	0.785
470.66	0.762
470.86	0.841
471.06	0.645
471.26	0.481
471.46	0.470
471.66	0.654
471.86	0.961
472.06	0.829
472.26	1.164
472.46	0.874
472.66	0.744
472.86	0.891
473.06	0.781
473.26	0.569
473.46	0.925
473.66	0.225
473.86	0.785
474.06	0.609
474.26	0.682
474.46	0.773
474.66	1.167
474.86	1.005
475.06	0.956
475.26	0.315
475.46	1.522
475.66	0.619
475.86	0.832
476.06	1.065
476.26	0.495
476.46	0.647
476.66	0.912
476.86	0.413
477.06	0.403
477.26	0.768
477.46	0.839
477.65	1.398
477.85	0.911
478.05	0.522
478.25	1.367
478.45	0.825
478.65	1.031
478.85	1.185
479.05	1.190
479.25	0.812
479.45	1.201
479.65	0.404
479.85	1.015
480.05	1.216
480.25	0.979
480.45	0.582
480.65	1.062
480.85	0.885
481.05	1.632
481.25	1.610
481.44	1.767
481.64	0.978
481.84	1.252
482.04	1.217
482.24	1.440
482.44	0.508
482.64	0.857
482.84	1.056
483.04	1.087
483.24	0.929
483.44	1.144
483.64	1.234
483.84	1.358
484.04	1.448
484.23	1.433
484.43	1.661
484.63	1.704
484.83	1.424
485.03	2.354
485.23	1.567
485.43	1.731
485.63	1.549
485.83	1.860
486.03	1.370
486.23	1.743
486.42	1.388
486.62	1.779
486.82	0.967
487.02	1.392
487.22	1.132
487.42	1.738
487.62	1.397
487.82	1.352
488.02	1.068
488.22	1.867
488.41	1.342
488.61	1.703
488.81	1.333
489.01	1.819
489.21	1.434
489.41	1.461
489.61	1.373
489.81	1.775
490.01	1.582
490.20	1.616
490.40	1.385
490.60	1.698
490.80	1.518
491.00	1.423
491.20	1.309
491.40	1.104
491.60	1.400
491.79	1.674
491.99	1.527
492.19	1.520
492.39	1.578
492.59	1.580
492.79	1.439
492.99	1.519
493.19	1.233
493.38	1.611
493.58	1.064
493.78	1.484
493.98	1.581
494.18	1.823
494.38	0.936
494.58	1.402
494.77	0.986
494.97	1.218
495.17	0.608
495.37	1.737
495.57	1.370
495.77	1.894
495.96	1.135
496.16	1.100
496.36	0.582
496.56	1.310
496.76	1.230
496.96	1.450
497.15	0.991
497.35	1.340
497.55	1.161
497.75	1.358
497.95	0.527
498.15	1.237
498.34	1.133
498.54	1.085
498.74	1.585
498.94	1.533
499.14	0.690
499.34	1.642
499.53	1.048
499.73	1.091
499.93	1.126
500.13	1.383
500.33	1.078
500.52	1.241
500.72	1.044
500.92	1.527
501.12	1.130
501.32	1.131
501.52	1.387
501.71	0.667
501.91	0.811
502.11	1.289
502.31	1.017
502.51	1.362
502.70	1.110
502.90	1.001
503.10	0.981
503.30	1.900
503.50	1.477
503.69	0.939
503.89	0.633
504.09	1.384
504.29	1.266
504.48	1.593
504.68	1.498
504.88	1.624
505.08	0.823
505.28	1.522
505.47	0.962
505.67	1.660
505.87	0.823
506.07	1.474
506.27	1.058
506.46	1.464
506.66	0.834
506.86	1.252
507.06	1.501
507.25	1.492
507.45	1.182
507.65	1.151
507.85	1.217
508.04	1.648
508.24	1.402
508.44	0.845
508.64	1.150
508.83	1.726
509.03	0.774
509.23	1.482
509.43	0.743
509.63	1.173
509.82	1.309
510.02	1.114
510.22	1.247
510.42	1.419
510.61	1.047
510.81	0.917
511.01	1.131
511.21	1.379
511.40	1.229
511.60	1.551
511.80	1.009
511.99	1.760
512.19	1.231
512.39	1.646
512.59	0.762
512.78	1.314
512.98	1.323
513.18	0.996
513.38	1.278
513.57	1.942
513.77	0.985
513.97	1.377
514.17	0.572
514.36	1.590
514.56	0.914
514.76	1.648
514.95	0.444
515.15	1.184
515.35	0.744
515.55	0.954
515.74	1.430
515.94	1.246
516.14	1.082
516.33	1.430
516.53	0.991
516.73	1.132
516.93	0.919
517.12	1.460
517.32	0.487
517.52	1.035
517.71	0.977
517.91	1.263
518.11	1.027
518.30	0.847
518.50	0.759
518.70	1.132
518.90	1.159
519.09	1.428
519.29	1.324
519.49	1.625
519.68	1.037
519.88	1.870
520.08	1.190
520.27	1.461
520.47	1.345
520.67	1.488
520.86	1.483
521.06	1.651
521.26	0.770
521.45	1.846
521.65	1.096
521.85	1.056
522.04	0.845
522.24	1.172
522.44	1.328
522.63	1.136
522.83	1.116
523.03	1.795
523.22	0.833
523.42	0.960
523.62	1.135
523.81	0.961
524.01	1.406
524.21	1.176
524.40	0.819
524.60	1.544
524.80	1.041
524.99	1.180
525.19	1.170
525.39	1.408
525.58	1.107
525.78	1.251
525.98	1.389
526.17	1.808
526.37	1.149
526.57	1.759
526.76	1.126
526.96	1.528
527.15	1.102
527.35	1.260
527.55	0.949
527.74	2.007
527.94	1.573
528.14	1.623
528.33	1.668
528.53	1.726
528.72	1.507
528.92	2.099
529.12	1.878
529.31	2.158
529.51	2.019
529.71	2.127
529.90	1.856
530.10	2.426
530.29	1.877
530.49	2.185
530.69	1.869
530.88	2.143
531.08	1.955
531.28	1.675
531.47	1.668
531.67	1.907
531.86	1.128
532.06	1.578
532.26	1.093
532.45	1.773
532.65	1.044
532.84	1.844
533.04	1.162
533.24	1.706
533.43	0.975
533.63	1.813
533.82	1.458
534.02	1.771
534.22	1.366
534.41	1.739
534.61	1.801
534.80	1.748
535.00	1.593
535.19	1.943
535.39	1.697
535.59	1.486
535.78	1.324
535.98	1.541
536.17	1.058
536.37	1.288
536.57	1.383
536.76	2.064
536.96	1.144
537.15	1.853
537.35	1.043
537.54	1.183
537.74	1.133
537.93	2.066
538.13	1.114
538.33	1.676
538.52	1.538
538.72	1.522
538.91	1.469
539.11	1.464
539.30	1.150
539.50	1.141
539.70	1.197
539.89	1.389
540.09	1.723
540.28	1.737
540.48	0.964
540.67	1.369
540.87	1.496
541.06	1.839
541.26	1.507
541.45	2.005
541.65	1.762
541.85	1.956
542.04	1.724
542.24	2.535
542.43	2.055
542.63	2.118
542.82	1.921
543.02	2.494
543.21	1.582
543.41	2.283
543.60	1.711
543.80	2.302
543.99	1.384
544.19	1.953
544.38	1.421
544.58	2.532
544.77	1.536
544.97	1.864
545.16	1.354
545.36	1.539
545.56	1.609
545.75	1.760
545.95	1.202
546.14	1.756
546.34	1.178
546.53	2.210
546.73	1.559
546.92	2.116
547.12	1.380
547.31	1.796
547.51	1.289
547.70	2.050
547.90	0.892
548.09	1.353
548.29	0.990
548.48	1.707
548.68	1.312
548.87	1.928
549.07	1.743
549.26	1.845
549.46	1.397
549.65	0.937
549.84	0.996
550.04	1.661
550.23	1.396
550.43	1.238
550.62	1.329
550.82	0.690
551.01	1.511
551.21	1.457
551.40	1.136
551.60	1.976
551.79	1.385
551.99	2.085
552.18	1.005
552.38	1.038
552.57	1.265
552.77	1.795
552.96	1.798
553.16	2.239
553.35	1.856
553.54	2.632
553.74	1.427
553.93	1.996
554.13	1.651
554.32	2.057
554.52	1.646
554.71	2.348
554.91	1.748
555.10	2.524
555.29	1.729
555.49	1.515
555.68	1.374
555.88	1.446
556.07	1.472
556.27	2.038
556.46	2.240
556.66	1.985
556.85	2.142
557.04	2.247
557.24	2.285
557.43	1.927
557.63	1.882
557.82	2.247
558.02	1.937
558.21	2.065
558.40	1.468
558.60	2.016
558.79	2.333
558.99	2.286
559.18	1.969
559.38	1.503
559.57	1.577
559.76	2.400
559.96	2.500
560.15	2.954
560.35	2.148
560.54	2.338
560.73	1.585
560.93	2.879
561.12	1.925
561.32	2.201
561.51	2.110
561.70	2.634
561.90	2.387
562.09	4.015
562.29	2.087
562.48	2.993
562.67	2.559
562.87	3.230
563.06	2.597
563.26	3.019
563.45	2.772
563.64	4.218
563.84	3.220
564.03	3.901
564.23	2.664
564.42	4.523
564.61	3.863
564.81	4.106
565.00	3.809
565.20	4.367
565.39	4.547
565.58	4.519
565.78	3.264
565.97	4.646
566.16	4.882
566.36	6.169
566.55	4.542
566.74	4.527
566.94	4.447
567.13	5.304
567.33	3.864
567.52	5.354
567.71	4.753
567.91	5.867
568.10	5.152
568.29	5.627
568.49	4.219
568.68	5.236
568.87	3.846
569.07	5.277
569.26	5.210
569.45	5.898
569.65	4.635
569.84	6.342
570.04	5.106
570.23	5.800
570.42	4.023
570.62	5.300
570.81	5.049
571.00	7.285
571.20	5.484
571.39	6.661
571.58	5.671
571.78	7.694
571.97	6.239
572.16	6.265
572.36	6.751
572.55	7.414
572.74	6.833
572.94	6.754
573.13	7.177
573.32	8.216
573.51	5.911
573.71	7.704
573.90	6.157
574.09	7.330
574.29	6.901
574.48	7.197
574.67	6.790
574.87	7.197
575.06	6.406
575.25	7.984
575.45	6.400
575.64	7.063
575.83	6.721
576.03	6.907
576.22	6.322
576.41	7.103
576.60	5.796
576.80	7.446
576.99	7.130
577.18	8.091
577.38	5.888
577.57	6.909
577.76	7.816
577.95	7.339
578.15	6.065
578.34	7.447
578.53	5.330
578.73	7.315
578.92	4.799
579.11	5.420
579.30	5.652
579.50	5.198
579.69	6.897
579.88	6.765
580.08	4.091
580.27	6.288
580.46	6.706
580.65	7.169
580.85	5.156
581.04	6.372
581.23	6.007
581.42	5.541
581.62	4.995
581.81	6.171
582.00	5.781
582.19	6.336
582.39	6.006
582.58	6.325
582.77	6.345
582.96	5.630
583.16	5.593
583.35	6.739
583.54	6.318
583.73	5.940
583.93	5.655
584.12	5.823
584.31	4.698
584.50	6.675
584.70	4.788
584.89	7.001
585.08	4.284
585.27	6.479
585.47	4.921
585.66	6.256
585.85	4.712
586.04	4.625
586.24	6.355
586.43	5.685
586.62	4.430
586.81	6.989
587.00	4.001
587.20	5.639
587.39	3.793
587.58	6.038
587.77	4.634
587.97	4.547
588.16	4.005
588.35	5.616
588.54	4.377
588.73	5.908
588.93	5.071
589.12	6.037
589.31	4.988
589.50	5.976
589.69	5.971
589.89	6.430
590.08	4.682
590.27	5.922
590.46	5.244
590.65	5.321
590.85	4.455
591.04	6.421
591.23	5.282
591.42	5.739
591.61	4.360
591.81	5.516
592.00	5.103
592.19	6.410
592.38	4.593
592.57	5.052
592.77	5.711
592.96	4.305
593.15	6.799
593.34	6.923
593.53	4.047
593.72	5.353
593.92	4.568
594.11	7.183
594.30	4.220
594.49	6.460
594.68	6.547
594.87	6.621
595.07	4.745
595.26	7.509
595.45	5.004
595.64	6.611
595.83	4.590
596.02	6.220
596.22	5.147
596.41	6.569
596.60	6.809
596.79	8.123
596.98	6.375
597.17	7.718
597.37	6.490
597.56	8.246
597.75	6.293
597.94	8.720
598.13	7.961
598.32	7.145
598.51	6.167
598.71	8.598
598.90	6.203
599.09	7.875
599.28	6.447
599.47	7.711
599.66	6.003
599.85	7.537
600.05	5.238
600.24	7.271
600.43	7.094
600.62	6.723
600.81	7.172
601.00	7.029
601.19	5.826
601.38	7.464
601.58	6.363
601.77	6.850
601.96	5.750
602.15	7.682
602.34	6.931
602.53	8.658
602.72	6.659
602.91	7.973
603.10	7.266
603.30	7.703
603.49	5.740
603.68	8.204
603.87	6.291
604.06	8.509
604.25	8.485
604.44	8.590
604.63	7.814
604.82	10.477
605.01	9.411
605.21	9.216
605.40	8.591
605.59	9.275
605.78	9.664
605.97	9.315
606.16	8.296
606.35	9.621
606.54	7.383
606.73	10.100
606.92	6.288
607.11	9.042
607.30	7.675
607.50	8.469
607.69	7.068
607.88	7.697
608.07	6.673
608.26	7.288
608.45	7.218
608.64	9.057
608.83	6.001
609.02	7.134
609.21	8.013
609.40	9.144
609.59	6.217
609.78	7.901
609.97	7.039
610.16	8.769
610.35	8.402
610.55	7.456
610.74	7.682
610.93	8.301
611.12	7.089
611.31	7.499
611.50	5.535
611.69	6.388
611.88	6.718
612.07	8.283
612.26	5.204
612.45	6.087
612.64	5.219
612.83	6.930
613.02	3.936
613.21	4.203
613.40	5.878
613.59	6.252
613.78	4.803
613.97	5.975
614.16	3.583
614.35	5.518
614.54	3.010
614.73	5.737
614.92	4.603
615.11	4.110
615.30	4.129
615.49	3.481
615.68	4.557
615.87	3.583
616.07	2.648
616.26	4.192
616.45	4.800
616.64	4.304
616.83	3.528
617.02	5.209
617.21	3.009
617.40	3.747
617.59	2.611
617.78	4.234
617.97	4.626
618.16	3.103
618.35	2.178
618.54	3.986
618.73	3.701
618.92	3.290
619.11	3.598
619.30	4.487
619.49	2.798
619.68	3.976
619.86	3.959
620.05	3.374
620.24	2.410
620.43	3.157
620.62	2.195
620.81	2.914
621.00	3.866
621.19	3.383
621.38	2.768
621.57	4.770
621.76	3.487
621.95	3.971
622.14	3.513
622.33	4.068
622.52	2.885
622.71	3.182
622.90	2.549
623.09	4.297
623.28	3.702
623.47	4.275
623.66	4.535
623.85	3.469
624.04	2.753
624.23	2.811
624.42	3.403
624.61	2.653
624.80	2.520
624.99	2.396
625.18	2.908
625.36	2.621
625.55	3.056
625.74	2.456
625.93	2.823
626.12	3.598
626.31	4.015
626.50	3.484
626.69	3.778
626.88	4.998
627.07	4.103
627.26	3.370
627.45	3.597
627.64	3.834
627.83	2.698
628.02	3.494
628.20	2.734
628.39	3.534
628.58	3.641
628.77	3.997
628.96	2.605
629.15	2.554
629.34	3.225
629.53	3.179
629.72	1.858
629.91	4.673
630.10	2.678
630.29	2.206
630.47	2.023
630.66	2.122
630.85	3.099
631.04	3.085
631.23	1.811
631.42	3.305
631.61	2.128
631.80	3.372
631.99	1.600
632.18	0.777
632.36	0.698
632.55	3.278
632.74	2.264
632.93	2.532
633.12	2.359
633.31	2.154
633.50	3.697
633.69	2.913
633.88	0.942
634.06	3.210
634.25	2.287
634.44	1.987
634.63	3.125
634.82	3.184
635.01	1.659
635.20	2.040
635.39	1.796
635.57	3.304
635.76	1.962
635.95	1.978
636.14	2.091
636.33	3.053
636.52	2.843
636.71	1.739
636.89	1.160
637.08	2.335
637.27	1.721
637.46	1.990
637.65	1.643
637.84	2.639
638.03	2.184
638.21	3.869
638.40	2.212
638.59	1.948
638.78	1.703
638.97	2.701
639.16	2.194
639.34	1.338
639.53	2.822
639.72	3.868
639.91	2.237
640.10	1.561
640.29	3.275
640.47	2.783
640.66	3.152
640.85	3.789
641.04	1.832
641.23	2.572
641.42	2.883
641.60	2.532
641.79	1.939
641.98	3.856
642.17	2.418
642.36	2.033
642.54	1.154
642.73	3.250
642.92	1.665
643.11	2.667
643.30	2.509
643.49	3.344
643.67	2.353
643.86	2.640
644.05	2.842
644.24	1.350
644.43	2.615
644.61	3.621
644.80	2.928
644.99	2.426
645.18	3.372
645.37	2.715
645.55	2.582
645.74	1.618
645.93	1.728
646.12	3.220
646.31	1.535
646.49	2.410
646.68	2.682
646.87	2.376
647.06	2.212
647.24	2.498
647.43	2.423
647.62	1.829
647.81	1.925
648.00	2.876
648.18	2.457
648.37	1.906
648.56	2.267
648.75	1.816
648.93	1.246
649.12	1.611
649.31	0.891
649.50	1.241
649.68	1.468
649.87	1.902
650.06	1.243
650.25	1.119
650.43	1.351
650.62	1.171
650.81	2.344
651.00	1.427
651.18	2.836
651.37	1.633
651.56	1.182
651.75	3.205
651.93	3.030
652.12	2.669
652.31	1.596
652.50	1.576
652.68	3.020
652.87	3.706
653.06	1.440
653.25	3.076
653.43	2.302
653.62	2.271
653.81	2.739
654.00	2.717
654.18	2.765
654.37	1.854
654.56	2.747
654.74	1.246
654.93	0.362
655.12	1.544
655.31	1.478
655.49	2.324
655.68	1.504
655.87	0.982
656.05	1.648
656.24	1.491
656.43	0.972
656.62	2.266
656.80	2.299
656.99	1.912
657.18	2.809
657.36	1.248
657.55	1.770
657.74	1.777
657.93	1.448
658.11	2.132
658.30	2.619
658.49	1.820
658.67	2.230
658.86	1.703
659.05	2.044
659.23	2.800
659.42	0.978
659.61	1.672
659.79	1.023
659.98	1.890
660.17	1.847
660.35	1.298
660.54	2.470
660.73	2.722
660.91	1.520
661.10	1.808
661.29	2.243
661.47	2.011
661.66	1.404
661.85	1.620
662.03	1.538
662.22	0.750
662.41	0.941
662.59	2.423
662.78	0.785
662.97	1.894
663.15	0.959
663.34	1.850
663.53	1.636
663.71	2.135
663.90	2.735
664.09	1.772
664.27	2.040
664.46	0.781
664.65	1.318
664.83	1.692
665.02	2.486
665.21	1.047
665.39	2.838
665.58	-0.413
665.77	1.357
665.95	2.649
666.14	0.911
666.32	3.283
666.51	2.007
666.70	0.647
666.88	1.705
667.07	3.035
667.26	2.227
667.44	1.619
667.63	3.031
667.81	1.222
668.00	0.905
668.19	2.545
668.37	1.599
668.56	3.756
668.75	1.621
668.93	2.985
669.12	2.636
669.30	2.916
669.49	0.648
669.68	2.110
669.86	3.071
670.05	1.681
670.23	3.131
670.42	1.412
670.61	1.901
670.79	3.271
670.98	2.563
671.16	3.568
671.35	2.059
671.54	2.627
671.72	2.738
671.91	0.894
672.09	1.927
672.28	3.183
672.46	5.003
672.65	2.847
672.84	3.224
673.02	1.733
673.21	1.643
673.39	2.018
673.58	3.963
673.77	3.291
673.95	3.325
674.14	2.289
674.32	2.598
674.51	2.696
674.69	1.873
674.88	3.498
675.07	1.976
675.25	5.133
675.44	4.055
675.62	3.317
675.81	0.801
675.99	7.239
676.18	3.551
676.36	0.981
676.55	2.626
676.74	5.476
676.92	4.027
677.11	2.983
677.29	4.165
677.48	3.815
677.66	5.122
677.85	3.316
678.03	3.241
678.22	4.290
678.40	2.870
678.59	3.091
678.78	3.347
678.96	2.845
679.15	2.912
679.33	4.804
679.52	4.662
679.70	4.548
679.89	5.071
680.07	5.926
680.26	3.716
680.44	3.610
680.63	4.758
680.81	3.109
681.00	2.643
681.18	3.982
681.37	3.782
681.55	5.246
681.74	4.593
681.92	4.854
682.11	5.468
682.29	3.696
682.48	5.388
682.66	4.208
682.85	3.347
683.03	5.318
683.22	6.125
683.40	6.007
683.59	2.415
683.77	5.028
683.96	3.029
684.14	4.914
684.33	2.586
684.51	7.071
684.70	3.074
684.88	6.701
685.07	4.777
685.25	4.027
685.44	3.259
685.62	4.099
685.81	2.295
685.99	6.308
686.18	4.648
686.36	7.229
686.55	4.032
686.73	4.326
686.92	6.172
687.10	6.108
687.29	4.409
687.47	5.548
687.65	7.098
687.84	4.757
688.02	7.001
688.21	7.556
688.39	5.799
688.58	7.053
688.76	4.947
688.95	6.565
689.13	3.750
689.32	6.978
689.50	4.975
689.68	6.458
689.87	7.460
690.05	5.776
690.24	7.550
690.42	6.321
690.61	6.887
690.79	7.672
690.98	7.736
691.16	6.064
691.34	4.184
691.53	6.791
691.71	6.667
691.90	6.677
692.08	6.330
692.27	10.609
692.45	9.835
692.63	9.435
692.82	12.196
693.00	10.530
693.19	10.494
693.37	13.977
693.56	9.706
693.74	14.455
693.92	11.034
694.11	14.679
694.29	13.241
694.48	17.720
694.66	10.659
694.84	18.891
695.03	12.964
695.21	21.111
695.40	17.793
695.58	22.110
695.76	15.685
695.95	21.282
696.13	19.983
696.32	24.602
696.50	26.449
696.68	24.788
696.87	21.539
697.05	25.778
697.24	22.984
697.42	30.265
697.60	24.833
697.79	30.694
697.97	32.281
698.16	37.067
698.34	30.019
698.52	37.335
698.71	36.106
698.89	37.910
699.07	35.995
699.26	39.984
699.44	39.232
699.63	40.287
699.81	37.621
699.99	41.580
700.18	42.444
700.36	42.950
700.54	42.357
700.73	41.075
700.91	43.351
701.09	45.965
701.28	45.246
701.46	46.824
701.64	45.541
701.83	50.576
702.01	42.117
702.20	50.561
702.38	47.066
702.56	47.508
702.75	51.701
702.93	49.367
703.11	52.165
703.30	55.442
703.48	53.910
703.66	55.581
703.85	52.345
704.03	58.692
704.21	50.954
704.40	58.495
704.58	51.491
704.76	55.655
704.95	54.201
705.13	58.912
705.31	57.298
705.50	61.467
705.68	56.548
705.86	60.278
706.04	61.459
706.23	61.317
706.41	61.692
706.59	61.740
706.78	61.185
706.96	66.667
707.14	64.587
707.33	64.914
707.51	62.889
707.69	67.343
707.88	65.145
708.06	65.867
708.24	63.924
708.42	67.762
708.61	65.339
708.79	67.523
708.97	73.356
709.16	72.519
709.34	66.843
709.52	66.636
709.71	69.242
709.89	69.206
710.07	67.765
710.25	69.888
710.44	73.048
710.62	73.519
710.80	73.838
710.98	72.400
711.17	68.320
711.35	71.338
711.53	70.375
711.72	75.557
711.90	74.394
712.08	75.423
712.26	73.661
712.45	74.142
712.63	72.587
712.81	75.941
712.99	73.369
713.18	78.509
713.36	74.659
713.54	78.409
713.72	73.605
713.91	77.041
714.09	75.483
714.27	75.385
714.45	80.056
714.64	78.546
714.82	79.797
715.00	77.758
715.18	79.237
715.37	76.923
715.55	79.741
715.73	84.136
715.91	78.850
716.10	78.970
716.28	78.291
716.46	80.035
716.64	78.495
716.83	83.303
717.01	79.335
717.19	77.452
717.37	79.455
717.55	81.760
717.74	81.062
717.92	79.332
718.10	75.783
718.28	80.866
718.47	78.419
718.65	79.909
718.83	82.169
719.01	84.960
719.19	81.453
719.38	78.000
719.56	76.382
719.74	80.986
719.92	77.339
720.10	83.619
720.29	79.896
720.47	83.701
720.65	83.842
720.83	84.882
721.01	78.763
721.20	83.228
721.38	84.852
721.56	80.554
721.74	81.912
721.92	84.109
722.11	84.390
722.29	82.897
722.47	81.242
722.65	84.601
722.83	80.889
723.01	82.191
723.20	85.964
723.38	81.581
723.56	84.447
723.74	87.913
723.92	80.443
724.10	86.588
724.29	86.954
724.47	88.568
724.65	80.118
724.83	91.193
725.01	86.598
725.19	93.029
725.38	81.176
725.56	87.241
725.74	85.225
725.92	84.029
726.10	83.439
726.28	82.272
726.46	85.338
726.65	88.716
726.83	88.559
727.01	87.103
727.19	82.464
727.37	90.219
727.55	86.141
727.73	87.379
727.92	87.284
728.10	90.203
728.28	83.733
728.46	86.382
728.64	88.829
728.82	94.104
729.00	88.387
729.19	89.117
729.37	88.953
729.55	90.271
729.73	84.503
729.91	92.626
730.09	87.172
730.27	89.052
730.45	89.004
730.63	86.171
730.82	90.824
731.00	90.545
731.18	86.739
731.36	87.733
731.54	88.754
731.72	92.406
731.90	90.195
732.08	91.755
732.26	90.899
732.45	89.246
732.63	91.582
732.81	93.636
732.99	90.146
733.17	96.710
733.35	89.764
733.53	92.893
733.71	88.197
733.89	88.052
734.07	92.699
734.25	91.057
734.44	91.518
734.62	89.051
734.80	91.211
734.98	92.149
735.16	88.433
735.34	92.800
735.52	90.623
735.70	94.964
735.88	91.432
736.06	91.418
736.24	93.902
736.42	88.594
736.60	94.229
736.78	93.452
736.97	90.935
737.15	94.519
737.33	91.013
737.51	90.621
737.69	92.253
737.87	95.770
738.05	94.329
738.23	90.408
738.41	90.513
738.59	97.510
738.77	92.934
738.95	97.372
739.13	91.503
739.31	95.746
739.49	92.996
739.67	91.808
739.85	93.599
740.03	88.511
740.21	94.792
740.39	92.170
740.57	95.997
740.75	95.271
740.93	94.524
741.11	91.549
741.30	91.278
741.48	96.972
741.66	84.446
741.84	92.143
742.02	85.935
742.20	90.382
742.38	91.176
742.56	94.952
742.74	89.969
742.92	91.148
743.10	85.506
743.28	93.109
743.46	87.280
743.64	94.363
743.82	92.172
744.00	90.530
744.18	84.959
744.36	93.178
744.54	88.737
744.72	96.597
744.90	90.017
745.08	98.096
745.26	88.666
745.44	96.738
745.62	83.157
745.80	86.548
745.98	88.748
746.16	99.562
746.34	86.840
746.52	90.550
746.70	85.569
746.87	90.673
747.05	86.749
747.23	87.786
747.41	85.346
747.59	90.415
747.77	77.937
747.95	93.683
748.13	84.295
748.31	88.068
748.49	81.794
748.67	96.164
748.85	87.343
749.03	93.666
749.21	89.052
749.39	89.194
749.57	81.090
749.75	94.852
749.93	89.325
750.11	90.785
750.29	84.719
750.47	92.261
750.65	85.284
750.83	91.572
751.01	82.005
751.18	94.874
751.36	88.714
751.54	85.219
751.72	83.304
751.90	91.197
752.08	78.539
752.26	97.125
752.44	81.481
752.62	90.428
752.80	81.211
752.98	97.337
753.16	86.116
753.34	96.050
753.52	86.063
753.69	94.468
753.87	88.638
754.05	91.740
754.23	87.779
754.41	91.617
754.59	81.043
754.77	92.907
754.95	80.640
755.13	88.438
755.31	82.481
755.49	87.722
755.66	88.024
755.84	87.234
756.02	81.624
756.20	92.563
756.38	85.268
756.56	87.425
756.74	80.563
756.92	90.785
757.10	77.982
757.28	96.821
757.45	86.419
757.63	85.198
757.81	80.224
757.99	92.063
758.17	81.574
758.35	85.009
758.53	90.063
758.71	92.687
758.88	81.570
759.06	96.406
759.24	81.062
759.42	84.192
759.60	87.728
759.78	89.583
759.96	77.295
760.13	90.472
760.31	78.242
760.49	91.831
760.67	82.681
760.85	86.230
761.03	76.848
761.21	86.010
761.38	71.416
761.56	87.938
761.74	73.590
761.92	87.458
762.10	71.770
762.28	81.782
762.46	70.732
762.63	80.602
762.81	77.626
762.99	86.212
763.17	85.247
763.35	87.312
763.53	88.410
763.70	91.828
763.88	94.125
764.06	94.365
764.24	87.406
764.42	89.887
764.60	90.228
764.77	88.313
764.95	90.361
765.13	98.095
765.31	91.698
765.49	93.084
765.66	90.494
765.84	89.549
766.02	88.449
766.20	89.491
766.38	86.105
766.56	89.256
766.73	82.066
766.91	91.033
767.09	77.038
767.27	90.742
767.45	81.594
767.62	90.817
767.80	74.647
767.98	87.125
768.16	75.742
768.33	92.322
768.51	74.815
768.69	86.456
768.87	75.885
769.05	85.661
769.22	77.801
769.40	89.687
769.58	69.628
769.76	81.915
769.94	71.237
770.11	76.395
770.29	78.345
770.47	78.781
770.65	79.672
770.82	90.236
771.00	75.364
771.18	83.925
771.36	70.894
771.53	80.909
771.71	78.214
771.89	83.941
772.07	66.392
772.25	84.010
772.42	70.499
772.60	82.536
772.78	65.087
772.96	83.217
773.13	73.770
773.31	85.067
773.49	65.177
773.67	75.281
773.84	64.359
774.02	75.248
774.20	64.656
774.37	80.876
774.55	70.572
774.73	79.497
774.91	67.575
775.08	73.393
775.26	72.065
775.44	76.954
775.62	68.085
775.79	76.042
775.97	63.194
776.15	70.712
776.32	60.770
776.50	70.113
776.68	69.565
776.86	75.429
777.03	63.029
777.21	74.094
777.39	55.696
777.56	73.942
777.74	65.844
777.92	80.000
778.10	60.057
778.27	82.510
778.45	55.617
778.63	73.677
778.80	65.714
778.98	76.851
779.16	76.861
779.34	74.491
779.51	58.582
779.69	70.694
779.87	57.971
780.04	64.228
780.22	58.083
780.40	70.260
780.57	65.481
780.75	65.145
780.93	67.954
781.10	74.691
781.28	77.729
781.46	64.738
781.63	77.057
781.81	80.737
781.99	64.397
782.16	60.350
782.34	54.545
782.52	77.273
782.69	53.510
782.87	73.888
783.05	53.343
783.22	69.075
783.40	44.923
783.58	72.573
783.75	57.357
783.93	62.989
784.11	58.720
784.28	71.903
784.46	42.383
784.64	67.642
784.81	52.094
784.99	78.788
785.17	60.339
785.34	54.947
785.52	44.811
785.69	55.842
785.87	51.373
786.05	55.712
786.22	65.335
786.40	76.821
786.58	53.304
786.75	72.816
786.93	48.950
787.11	60.365
787.28	58.752
787.46	69.692
787.63	62.381
787.81	64.380
787.99	62.407
788.16	62.267
788.34	57.410
788.51	65.015
788.69	58.871
788.87	68.480
789.04	50.205
789.22	73.384
789.39	66.572
789.57	65.288
789.75	63.874
789.92	76.204
790.10	56.775
790.27	70.914
790.45	55.811
790.63	68.061
790.80	53.738
790.98	76.144
791.15	55.335
791.33	60.882
791.51	50.000
791.68	72.759
791.86	63.037
792.03	64.540
792.21	44.171
792.39	63.175
792.56	54.036
792.74	62.835
792.91	54.317
793.09	61.813
793.26	42.222
793.44	73.432
793.62	41.864
793.79	50.259
793.97	50.086
794.14	56.396
794.32	59.227
794.49	65.986
794.67	42.571
794.84	59.873
795.02	40.885
795.20	68.852
795.37	51.695
795.55	52.657
795.72	53.407
795.90	59.022
796.07	55.482
796.25	55.710
796.42	53.247
796.60	54.742
796.77	54.834
796.95	61.948
797.13	48.858
797.30	70.706
797.48	51.613
797.65	66.136
797.83	46.096
798.00	73.600
798.18	48.804
798.35	56.019
798.53	60.060
798.70	66.214
798.88	54.687
799.05	60.673
799.23	38.059
799.40	69.655
799.58	51.546
799.75	55.267
799.93	42.812
800.10	57.965
800.28	52.951
800.45	59.242
800.63	42.243
800.80	71.020
800.98	53.543
801.15	62.349
801.33	59.194
801.50	52.846
801.68	40.585
801.85	52.473
802.03	45.149
802.20	59.099
802.38	57.509
802.55	46.195
802.73	55.245
802.90	51.307
803.08	45.677
803.25	61.407
803.43	41.045
803.60	62.500
803.78	50.267
803.95	50.000
804.13	48.141
804.30	57.060
804.48	40.310
804.65	53.816
804.83	41.434
805.00	54.982
805.17	52.486
805.35	52.353
805.52	35.556
805.70	62.674
805.87	52.953
806.05	57.906
806.22	42.974
806.40	44.035
806.57	47.698
806.75	59.930
806.92	51.664
807.09	62.330
807.27	47.093
807.44	64.962
807.62	44.917
807.79	47.906
807.97	46.529
808.14	55.455
808.31	49.725
808.49	53.169
808.66	42.620
808.84	48.577
809.01	49.813
809.19	49.414
809.36	52.441
809.53	52.055
809.71	45.328
809.88	61.345
810.06	50.202
810.23	53.043
810.41	41.803
810.58	56.955
810.75	32.030
810.93	38.958
811.10	46.850
811.28	53.586
811.45	26.879
811.62	46.476
811.80	29.295
811.97	52.955
812.15	44.668
812.32	46.222
812.49	38.983
812.67	41.595
812.84	43.371
813.02	49.383
813.19	35.600
813.36	43.818
813.54	36.166
813.71	53.348
813.89	37.288
814.06	45.029
814.23	42.138
814.41	41.310
814.58	40.638
814.75	50.787
814.93	41.031
815.10	52.174
815.28	30.508
815.45	42.067
815.62	43.936
815.80	31.473
815.97	39.521
816.14	55.584
816.32	44.397
816.49	41.529
816.66	45.416
816.84	47.035
817.01	42.619
817.18	49.895
817.36	40.852
817.53	45.824
817.71	26.118
817.88	42.257
818.05	29.078
818.23	42.520
818.40	37.687
818.57	55.281
818.75	30.751
818.92	45.575
819.09	40.996
819.27	46.473
819.44	38.512
819.61	43.117
819.79	29.697
819.96	56.513
820.13	41.864
820.31	54.386
820.48	57.630
820.65	68.548
820.82	58.384
821.00	59.777
821.17	45.455
821.34	73.954
821.52	66.901
821.69	69.959
821.86	67.137
822.04	91.984
822.21	86.070
822.38	94.055
822.56	94.711
822.73	96.175
822.90	98.261
823.07	94.221
823.25	96.334
823.42	98.938
823.59	98.873
823.77	91.489
823.94	96.423
824.11	96.013
824.29	95.066
824.46	97.936
824.63	97.286
824.80	97.986
824.98	96.935
825.15	90.852
825.32	97.536
825.49	95.411
825.67	96.110
825.84	93.638
826.01	87.397
826.19	92.544
826.36	76.615
826.53	88.180
826.70	84.024
826.88	98.604
827.05	83.489
827.22	89.311
827.39	90.642
827.57	94.407
827.74	82.171
827.91	93.716
828.08	87.603
828.26	92.621
828.43	88.889
828.60	93.252
828.77	87.824
828.95	90.254
829.12	75.072
829.29	80.476
829.46	74.269
829.64	79.284
829.81	68.272
829.98	80.942
830.15	62.057
830.32	66.123
830.50	50.739
830.67	54.533
830.84	43.103
831.01	45.329
831.19	42.407
831.36	54.878
831.53	41.777
831.70	51.527
831.87	36.454
832.05	50.923
832.22	53.404
832.39	40.044
832.56	42.516
832.74	34.096
832.91	40.462
833.08	46.751
833.25	32.597
833.42	42.834
833.60	50.233
833.77	42.158
833.94	53.411
834.11	58.131
834.28	54.823
834.45	69.053
834.63	64.169
834.80	81.579
834.97	66.272
835.14	74.338
835.31	76.476
835.49	79.225
835.66	69.929
835.83	67.143
836.00	67.136
836.17	68.211
836.34	57.550
836.52	60.385
836.69	61.596
836.86	50.669
837.03	46.975
837.20	44.886
837.37	36.622
837.55	36.673
837.72	38.361
837.89	45.759
838.06	41.787
838.23	41.895
838.40	27.229
838.58	22.581
838.75	27.607
838.92	32.174
839.09	36.076
839.26	39.718
839.43	42.361
839.60	39.871
839.78	54.037
839.95	30.952
840.12	39.474
840.29	41.274
840.46	31.776
840.63	34.626
840.80	46.174
840.98	52.617
841.15	35.787
841.32	37.709
841.49	23.140
841.66	42.973
841.83	19.149
842.00	39.943
842.17	42.458
842.34	36.769
842.52	34.848
842.69	41.772
842.86	25.275
843.03	52.090
843.20	37.464
843.37	33.333
843.54	27.304
843.71	39.167
843.88	22.628
844.06	55.085
844.23	38.983
844.40	44.068
844.57	32.231
844.74	43.966
844.91	25.871
845.08	63.842
845.25	33.511
845.42	35.196
845.59	25.000
845.76	37.097
845.94	41.111
846.11	37.129
846.28	52.191
846.45	55.376
846.62	12.000
846.79	31.646
846.96	50.549
847.13	38.043
847.30	51.977
847.47	46.907
847.64	47.755
847.81	64.706
847.98	36.757
848.15	50.838
848.32	46.114
848.50	29.500
848.67	4.734
848.84	20.118
849.01	12.950
849.18	25.294
849.35	48.571
849.52	36.508
849.69	37.912
849.86	27.027
850.03	17.355
850.20	61.333
850.37	27.059
850.54	45.745
850.71	29.688
850.88	31.613
851.05	54.891
851.22	45.783
851.39	40.107
851.56	50.862
851.73	33.929
851.90	28.105
852.07	7.018
852.24	34.641
852.41	36.548
852.58	44.262
852.75	27.326
852.92	53.039
853.09	33.333
853.26	37.908
853.43	47.647
853.60	44.898
853.77	37.430
853.94	25.664
854.11	56.111
854.28	52.778
854.45	52.597
854.62	31.395
854.79	36.364
854.96	59.722
855.13	33.962
855.30	40.876
855.47	58.065
855.64	27.950
855.81	66.906
855.98	51.145
856.15	50.769
856.32	45.024
856.49	62.712
856.66	28.205
856.83	29.560
857.00	34.426
857.17	33.065
857.34	46.739
857.51	27.465
857.68	33.163
857.85	42.941
858.02	59.864
858.19	18.232
858.36	54.023
858.53	30.769
858.70	39.560
858.87	51.034
859.04	51.176
859.21	59.848
859.38	42.857
859.55	52.273
859.72	20.833
859.89	74.126
860.05	32.374
860.22	46.061
860.39	58.621
860.56	63.690
860.73	46.429
860.90	44.910
861.07	62.500
861.24	-11.029
861.41	38.728
861.58	21.429
861.75	14.961
861.92	30.000
862.09	43.719
862.26	49.032
862.43	56.667
862.59	28.289
862.76	45.078
862.93	63.846
863.10	61.029
863.27	33.077
863.44	34.146
863.61	42.029
863.78	61.497
863.95	52.439
864.12	20.513
864.29	45.763
864.45	35.220
864.62	47.967
864.79	18.824
864.96	78.846
865.13	36.496
865.30	32.653
865.47	24.138
865.64	50.350
865.81	38.596
865.97	18.868
866.14	47.059
866.31	16.393
866.48	23.944
866.65	39.264
866.82	67.114
866.99	46.429
867.16	23.256
867.33	37.589
867.49	47.590
867.66	21.642
867.83	42.857
868.00	45.699
868.17	58.779
868.34	46.457
868.51	31.690
868.67	20.238
868.84	24.444
869.01	39.310
869.18	68.000
869.35	22.695
869.52	35.766
869.69	17.164
869.85	43.919
870.02	43.478
870.19	54.615
870.36	60.432
870.53	15.476
870.70	24.107
870.86	23.377
871.03	16.788
871.20	57.143
871.37	62.722
871.54	-21.698
871.71	48.485
871.87	68.041
872.04	7.500
872.21	9.091
872.38	62.651
872.55	36.429
872.72	16.667
872.88	20.000
873.05	26.738
873.22	60.833
873.39	31.098
873.56	30.935
873.72	46.961
873.89	43.949
874.06	37.705
874.23	38.406
874.40	40.000
874.56	64.394
874.73	49.167
874.90	39.726
875.07	9.924
875.24	23.171
875.40	36.607
875.57	46.032
875.74	27.500
875.91	48.413
876.08	45.714
876.24	32.692
876.41	73.684
876.58	31.387
876.75	29.677
876.92	12.821
877.08	32.117
877.25	51.299
877.42	34.615
877.59	56.627
877.75	41.509
877.92	58.140
878.09	55.921
878.26	23.973
878.42	15.556
878.59	73.295
878.76	30.688
878.93	37.748
879.09	19.728
879.26	35.897
879.43	54.167
879.60	36.970
879.76	48.205
879.93	26.904
880.10	24.651
880.27	19.556
880.43	19.898
880.60	18.310
880.77	47.843
880.94	19.286
881.10	22.414
881.27	35.912
881.44	22.343
881.61	45.272
881.77	45.756
881.94	48.265
882.11	41.716
882.28	55.163
882.44	44.880
882.61	70.671
882.78	65.848
882.94	80.428
883.11	79.072
883.28	78.725
883.45	78.174
883.61	77.023
883.78	70.833
883.95	79.666
884.11	69.149
884.28	70.000
>>>>>End Processed Spectral Data<<<<<
