SpectraSuite Data File
++++++++++++++++++++++++++++++++++++
Date: Thu Sep 19 02:54:37 EST 2019
User: sgrac
Dark Spectrum Present: Yes
Reference Spectrum Present: Yes
Number of Sampled Component Spectra: 1
Spectrometers: USB4E01596
Integration Time (usec): 100000 (USB4E01596)
Spectra Averaged: 1 (USB4E01596)
Boxcar Smoothing: 0 (USB4E01596)
Correct for Electrical Dark: No (USB4E01596)
Strobe/Lamp Enabled: Yes (USB4E01596)
Correct for Detector Non-linearity: No (USB4E01596)
Correct for Stray Light: No (USB4E01596)
Number of Pixels in Processed Spectrum: 3648
>>>>>Begin Processed Spectral Data<<<<<
178.44	292.857
178.66	292.857
178.87	292.857
179.09	-581.818
179.30	121.429
179.52	1200.000
179.74	-455.556
179.95	414.286
180.17	963.636
180.38	122.388
180.60	0.000
180.82	380.645
181.03	146.296
181.25	1700.000
181.46	576.923
181.68	-62.791
181.89	1042.857
182.11	408.333
182.33	251.852
182.54	866.667
182.76	438.889
182.97	-446.429
183.19	202.381
183.40	249.091
183.62	295.238
183.84	700.000
184.05	520.000
184.27	-2950.000
184.48	168.254
184.70	4550.000
184.91	350.000
185.13	149.296
185.34	-98.077
185.56	448.148
185.78	307.692
185.99	-2275.000
186.21	-718.182
186.42	-195.000
186.64	366.667
186.85	-4300.000
187.07	177.273
187.28	650.000
187.50	513.636
187.72	263.889
187.93	538.889
188.15	468.421
188.36	629.412
188.58	246.154
188.79	1150.000
189.01	504.167
189.22	1440.000
189.44	410.000
189.65	-3833.333
189.87	1950.000
190.09	711.765
190.30	1400.000
190.52	775.000
190.73	-376.923
190.95	109.091
191.16	345.833
191.38	283.333
191.59	-927.273
191.81	359.091
192.02	533.333
192.24	407.692
192.45	950.000
192.67	1716.667
192.88	-351.852
193.10	-9600.000
193.31	282.857
193.53	-409.524
193.74	-1225.000
193.96	1122.222
194.18	443.750
194.39	202.439
194.61	489.474
194.82	1054.545
195.04	356.000
195.25	2366.667
195.47	178.947
195.68	258.824
195.90	241.860
196.11	319.231
196.33	-711.111
196.54	-689.474
196.76	295.455
196.97	955.556
197.19	-5200.000
197.40	900.000
197.62	1466.667
197.83	592.308
198.05	317.857
198.26	230.000
198.48	194.118
198.69	-1211.111
198.91	561.111
199.12	348.571
199.34	-1100.000
199.55	166.667
199.77	215.217
199.98	-709.091
200.20	530.000
200.41	4400.000
200.63	89.286
200.84	319.048
201.06	-684.615
201.27	-2020.000
201.49	675.000
201.70	487.500
201.91	-6900.000
202.13	584.211
202.34	236.957
202.56	5050.000
202.77	443.750
202.99	228.000
203.20	296.970
203.42	-1285.714
203.63	1650.000
203.85	347.222
204.06	460.870
204.28	1137.500
204.49	-510.000
204.71	275.610
204.92	233.333
205.14	222.222
205.35	210.000
205.56	1500.000
205.78	590.909
205.99	-900.000
206.21	317.391
206.42	142.373
206.64	-1766.667
206.85	380.952
207.07	447.368
207.28	-960.000
207.50	224.074
207.71	568.750
207.93	275.000
208.14	407.407
208.35	411.765
208.57	-188.000
208.78	-129.268
209.00	213.953
209.21	302.381
209.43	248.000
209.64	5300.000
209.86	314.286
210.07	179.310
210.28	-746.154
210.50	605.882
210.71	415.000
210.93	296.875
211.14	161.429
211.36	165.217
211.57	390.000
211.78	315.385
212.00	600.000
212.21	458.824
212.43	740.000
212.64	436.667
212.86	141.026
213.07	386.207
213.29	370.000
213.50	367.742
213.71	306.667
213.93	1514.286
214.14	211.765
214.36	1237.500
214.57	187.324
214.78	686.667
215.00	526.316
215.21	472.222
215.43	148.101
215.64	207.407
215.86	686.667
216.07	505.263
216.28	217.778
216.50	3250.000
216.71	-7600.000
216.93	351.852
217.14	216.667
217.35	282.857
217.57	1850.000
217.78	268.571
218.00	1533.333
218.21	387.500
218.42	109.375
218.64	-5150.000
218.85	231.373
219.07	1100.000
219.28	181.967
219.49	-641.667
219.71	700.000
219.92	145.946
220.14	512.500
220.35	220.455
220.56	561.538
220.78	205.263
220.99	202.857
221.21	105.155
221.42	339.130
221.63	4050.000
221.85	337.500
222.06	360.000
222.28	101.333
222.49	-588.889
222.70	196.296
222.92	-4500.000
223.13	189.474
223.34	122.826
223.56	833.333
223.77	147.059
223.99	182.222
224.20	180.000
224.41	137.333
224.63	4150.000
224.84	3600.000
225.05	561.538
225.27	205.128
225.48	231.667
225.69	124.706
225.91	173.438
226.12	120.290
226.34	271.875
226.55	113.235
226.76	176.471
226.98	139.773
227.19	89.744
227.40	248.000
227.62	84.932
227.83	108.929
228.04	63.636
228.26	66.071
228.47	74.167
228.69	55.147
228.90	36.905
229.11	45.415
229.33	47.368
229.54	29.876
229.75	55.477
229.97	38.415
230.18	48.505
230.39	34.091
230.61	36.519
230.82	38.870
231.03	28.662
231.25	46.644
231.46	31.548
231.67	42.642
231.89	47.619
232.10	51.698
232.31	47.321
232.53	44.495
232.74	42.661
232.95	48.529
233.17	43.590
233.38	38.421
233.59	42.135
233.81	65.432
234.02	84.000
234.23	41.237
234.45	55.455
234.66	35.632
234.87	41.279
235.09	42.021
235.30	63.107
235.51	50.224
235.73	38.889
235.94	37.500
236.15	42.164
236.36	47.556
236.58	37.321
236.79	54.741
237.00	42.972
237.22	55.556
237.43	56.420
237.64	54.037
237.86	35.377
238.07	54.202
238.28	39.764
238.50	33.014
238.71	40.415
238.92	24.057
239.13	41.398
239.35	48.133
239.56	40.556
239.77	73.770
239.99	31.048
240.20	57.588
240.41	37.795
240.63	23.582
240.84	13.717
241.05	33.108
241.26	35.574
241.48	26.300
241.69	22.493
241.90	27.816
242.12	27.198
242.33	23.106
242.54	20.336
242.75	18.687
242.97	23.938
243.18	18.741
243.39	9.530
243.61	18.791
243.82	24.246
244.03	18.716
244.24	18.281
244.46	19.346
244.67	21.757
244.88	18.777
245.09	19.637
245.31	21.967
245.52	15.385
245.73	27.903
245.95	31.151
246.16	24.643
246.37	18.182
246.58	18.154
246.80	13.323
247.01	20.563
247.22	10.739
247.43	20.209
247.65	22.034
247.86	17.183
248.07	10.844
248.28	15.957
248.50	18.750
248.71	15.085
248.92	21.781
249.13	17.748
249.35	19.845
249.56	18.168
249.77	19.032
249.98	15.544
250.20	22.596
250.41	22.727
250.62	25.993
250.83	12.451
251.05	21.243
251.26	24.739
251.47	26.047
251.68	19.007
251.90	16.092
252.11	20.965
252.32	14.533
252.53	22.581
252.75	15.094
252.96	24.038
253.17	16.579
253.38	25.700
253.59	13.704
253.81	21.438
254.02	16.109
254.23	15.924
254.44	18.143
254.66	22.549
254.87	22.034
255.08	19.361
255.29	23.282
255.50	8.758
255.72	18.431
255.93	23.543
256.14	34.698
256.35	12.993
256.57	13.022
256.78	19.956
256.99	20.709
257.20	33.612
257.41	16.082
257.63	19.925
257.84	22.011
258.05	16.667
258.26	25.563
258.47	25.123
258.69	17.639
258.90	13.459
259.11	19.121
259.32	9.846
259.53	13.217
259.75	10.085
259.96	11.174
260.17	12.538
260.38	17.045
260.59	15.343
260.81	15.949
261.02	14.118
261.23	16.958
261.44	15.190
261.65	17.892
261.87	17.391
262.08	16.609
262.29	20.400
262.50	13.489
262.71	14.080
262.92	17.787
263.14	15.446
263.35	8.756
263.56	15.368
263.77	17.842
263.98	14.586
264.20	23.299
264.41	13.098
264.62	15.404
264.83	8.005
265.04	18.966
265.25	11.969
265.47	17.362
265.68	15.760
265.89	14.228
266.10	15.769
266.31	19.613
266.52	17.458
266.74	13.527
266.95	11.436
267.16	14.621
267.37	13.478
267.58	10.436
267.79	12.803
268.01	14.071
268.22	14.787
268.43	11.781
268.64	17.864
268.85	7.728
269.06	13.751
269.27	15.882
269.49	16.578
269.70	12.233
269.91	15.909
270.12	12.535
270.33	18.236
270.54	15.988
270.75	12.900
270.97	15.334
271.18	10.084
271.39	13.245
271.60	14.105
271.81	12.606
272.02	11.422
272.23	11.681
272.45	11.053
272.66	11.782
272.87	10.470
273.08	13.751
273.29	17.765
273.50	13.814
273.71	12.073
273.92	8.704
274.14	11.300
274.35	15.026
274.56	15.782
274.77	13.069
274.98	12.761
275.19	12.490
275.40	12.744
275.61	11.489
275.83	11.606
276.04	15.956
276.25	16.129
276.46	12.883
276.67	14.273
276.88	14.148
277.09	14.549
277.30	18.544
277.51	11.806
277.73	11.346
277.94	7.219
278.15	14.373
278.36	16.017
278.57	12.278
278.78	12.873
278.99	15.040
279.20	14.927
279.41	12.211
279.62	10.140
279.84	10.332
280.05	12.477
280.26	11.397
280.47	15.558
280.68	13.908
280.89	13.915
281.10	11.070
281.31	13.344
281.52	13.299
281.73	6.294
281.94	10.240
282.16	15.442
282.37	10.090
282.58	10.145
282.79	17.842
283.00	15.069
283.21	12.069
283.42	10.471
283.63	13.235
283.84	10.584
284.05	12.060
284.26	11.178
284.47	13.153
284.68	13.582
284.89	9.928
285.11	10.596
285.32	8.208
285.53	13.113
285.74	16.657
285.95	11.461
286.16	12.408
286.37	11.569
286.58	14.595
286.79	11.334
287.00	13.824
287.21	9.844
287.42	11.782
287.63	11.916
287.84	13.790
288.05	13.602
288.26	10.330
288.48	14.988
288.69	10.637
288.90	13.288
289.11	16.253
289.32	10.890
289.53	10.658
289.74	9.777
289.95	10.088
290.16	14.312
290.37	9.832
290.58	9.086
290.79	8.261
291.00	9.028
291.21	10.900
291.42	10.410
291.63	10.367
291.84	8.979
292.05	10.176
292.26	8.862
292.47	10.712
292.68	10.798
292.89	10.533
293.10	10.698
293.31	10.503
293.52	6.137
293.73	7.692
293.94	11.201
294.15	8.296
294.36	8.008
294.57	15.128
294.79	10.557
295.00	8.810
295.21	8.925
295.42	10.728
295.63	11.297
295.84	9.053
296.05	10.393
296.26	8.791
296.47	9.647
296.68	9.775
296.89	13.172
297.10	10.388
297.31	9.430
297.52	10.262
297.73	9.856
297.94	9.876
298.15	9.189
298.36	10.522
298.57	9.134
298.78	10.510
298.99	8.048
299.20	11.789
299.41	10.617
299.62	11.259
299.83	9.220
300.04	8.337
300.25	13.499
300.46	11.205
300.67	12.668
300.88	12.431
301.09	7.601
301.30	9.444
301.50	8.249
301.71	15.193
301.92	11.685
302.13	8.575
302.34	11.329
302.55	8.269
302.76	8.986
302.97	8.593
303.18	8.238
303.39	9.582
303.60	6.646
303.81	8.662
304.02	9.290
304.23	9.466
304.44	11.851
304.65	9.161
304.86	7.771
305.07	8.922
305.28	10.988
305.49	12.114
305.70	12.201
305.91	7.200
306.12	8.053
306.33	10.944
306.54	6.772
306.75	10.862
306.96	15.466
307.17	10.663
307.38	5.370
307.58	8.816
307.79	9.351
308.00	10.796
308.21	11.393
308.42	8.707
308.63	10.868
308.84	5.662
309.05	6.784
309.26	7.948
309.47	9.007
309.68	5.882
309.89	9.983
310.10	8.135
310.31	6.976
310.52	5.547
310.73	13.696
310.94	6.219
311.14	7.859
311.35	8.989
311.56	8.017
311.77	7.244
311.98	8.578
312.19	7.829
312.40	9.368
312.61	9.460
312.82	8.145
313.03	9.316
313.24	8.716
313.45	12.203
313.66	8.989
313.86	9.783
314.07	8.290
314.28	14.131
314.49	9.650
314.70	9.942
314.91	12.727
315.12	8.513
315.33	10.885
315.54	8.928
315.75	8.775
315.96	9.920
316.16	4.795
316.37	11.392
316.58	8.286
316.79	8.688
317.00	11.437
317.21	9.687
317.42	14.153
317.63	7.130
317.84	9.672
318.05	9.857
318.25	9.772
318.46	9.043
318.67	5.630
318.88	9.904
319.09	8.664
319.30	8.343
319.51	6.951
319.72	9.219
319.93	5.990
320.13	12.917
320.34	9.969
320.55	9.404
320.76	7.446
320.97	10.169
321.18	10.190
321.39	11.594
321.60	10.182
321.80	12.136
322.01	8.262
322.22	11.982
322.43	8.013
322.64	7.438
322.85	8.068
323.06	12.634
323.27	11.406
323.47	12.025
323.68	10.687
323.89	6.786
324.10	11.490
324.31	5.685
324.52	5.609
324.73	8.962
324.93	8.484
325.14	10.670
325.35	11.023
325.56	9.206
325.77	10.382
325.98	9.899
326.19	9.378
326.39	5.329
326.60	8.728
326.81	10.118
327.02	6.373
327.23	8.863
327.44	12.944
327.64	5.395
327.85	8.589
328.06	10.850
328.27	15.032
328.48	12.269
328.69	6.695
328.90	9.034
329.10	8.897
329.31	8.674
329.52	7.679
329.73	11.454
329.94	9.502
330.15	10.679
330.35	9.811
330.56	8.423
330.77	8.480
330.98	11.399
331.19	9.318
331.39	7.714
331.60	11.328
331.81	7.952
332.02	13.348
332.23	9.150
332.44	7.840
332.64	11.294
332.85	8.002
333.06	10.789
333.27	5.967
333.48	12.137
333.68	10.201
333.89	10.177
334.10	8.432
334.31	11.181
334.52	7.040
334.72	8.689
334.93	6.670
335.14	8.445
335.35	8.985
335.56	11.408
335.76	7.454
335.97	10.597
336.18	7.288
336.39	12.064
336.60	9.803
336.80	9.767
337.01	9.226
337.22	6.349
337.43	9.543
337.64	13.519
337.84	10.242
338.05	10.265
338.26	11.824
338.47	9.878
338.68	5.752
338.88	9.396
339.09	9.292
339.30	6.807
339.51	10.811
339.71	11.663
339.92	6.500
340.13	8.638
340.34	8.925
340.55	8.104
340.75	7.731
340.96	6.905
341.17	6.818
341.38	6.008
341.58	7.386
341.79	7.952
342.00	5.509
342.21	9.373
342.41	4.879
342.62	10.792
342.83	10.767
343.04	5.316
343.24	9.461
343.45	11.185
343.66	7.323
343.87	8.420
344.07	6.155
344.28	7.948
344.49	7.562
344.70	10.937
344.90	7.361
345.11	7.588
345.32	8.767
345.53	8.485
345.73	9.764
345.94	8.917
346.15	11.166
346.36	7.360
346.56	10.589
346.77	12.058
346.98	12.235
347.19	8.982
347.39	8.640
347.60	7.380
347.81	9.896
348.02	9.149
348.22	8.112
348.43	9.748
348.64	8.440
348.84	6.957
349.05	11.069
349.26	12.625
349.47	6.338
349.67	7.811
349.88	11.064
350.09	10.125
350.30	12.471
350.50	10.231
350.71	10.928
350.92	9.476
351.12	7.696
351.33	9.125
351.54	8.539
351.74	7.930
351.95	9.187
352.16	9.106
352.37	12.420
352.57	8.818
352.78	9.047
352.99	8.241
353.19	9.330
353.40	8.156
353.61	9.876
353.82	9.293
354.02	9.450
354.23	6.833
354.44	9.741
354.64	7.105
354.85	10.594
355.06	9.784
355.26	5.556
355.47	9.654
355.68	11.044
355.88	10.107
356.09	11.657
356.30	7.968
356.51	11.275
356.71	7.311
356.92	7.165
357.13	10.542
357.33	12.519
357.54	10.404
357.75	6.305
357.95	10.251
358.16	8.127
358.37	12.811
358.57	8.382
358.78	12.898
358.99	9.472
359.19	8.395
359.40	11.044
359.61	10.847
359.81	12.565
360.02	14.300
360.23	9.821
360.43	8.297
360.64	8.400
360.85	10.328
361.05	8.347
361.26	12.780
361.47	11.408
361.67	12.000
361.88	6.396
362.09	11.570
362.29	7.700
362.50	10.147
362.70	7.134
362.91	12.143
363.12	9.167
363.32	10.917
363.53	9.970
363.74	12.455
363.94	6.491
364.15	12.698
364.36	9.755
364.56	8.580
364.77	10.375
364.98	12.691
365.18	9.013
365.39	12.437
365.59	7.721
365.80	10.240
366.01	10.835
366.21	8.366
366.42	8.176
366.63	11.683
366.83	8.696
367.04	5.025
367.24	12.222
367.45	8.049
367.66	7.785
367.86	9.452
368.07	9.586
368.28	10.076
368.48	8.394
368.69	7.008
368.89	6.529
369.10	10.907
369.31	8.963
369.51	9.185
369.72	10.755
369.92	11.639
370.13	6.230
370.34	10.301
370.54	5.510
370.75	8.836
370.95	5.876
371.16	9.218
371.37	8.676
371.57	7.662
371.78	7.195
371.98	10.454
372.19	9.487
372.40	11.632
372.60	9.106
372.81	8.066
373.01	7.575
373.22	7.840
373.43	8.235
373.63	9.855
373.84	8.808
374.04	9.200
374.25	8.787
374.46	10.243
374.66	9.116
374.87	10.140
375.07	6.851
375.28	7.674
375.48	8.610
375.69	9.273
375.90	5.870
376.10	6.339
376.31	6.983
376.51	6.661
376.72	7.504
376.92	6.202
377.13	10.041
377.34	11.384
377.54	7.726
377.75	9.950
377.95	7.509
378.16	9.911
378.36	9.876
378.57	9.706
378.77	9.146
378.98	7.755
379.19	9.381
379.39	7.337
379.60	8.250
379.80	8.650
380.01	10.524
380.21	8.741
380.42	9.830
380.62	8.138
380.83	8.320
381.04	8.991
381.24	9.167
381.45	10.379
381.65	6.212
381.86	9.041
382.06	9.455
382.27	6.542
382.47	6.661
382.68	10.175
382.88	6.919
383.09	6.864
383.29	7.081
383.50	11.200
383.71	7.497
383.91	7.467
384.12	6.167
384.32	10.702
384.53	6.616
384.73	6.856
384.94	6.820
385.14	8.227
385.35	6.712
385.55	8.485
385.76	6.437
385.96	8.637
386.17	8.515
386.37	8.821
386.58	7.502
386.78	10.058
386.99	6.323
387.19	10.046
387.40	6.241
387.60	11.725
387.81	6.641
388.01	6.833
388.22	9.173
388.42	8.979
388.63	8.545
388.83	11.322
389.04	6.407
389.24	7.565
389.45	7.364
389.65	7.641
389.86	7.638
390.06	5.438
390.27	5.892
390.47	8.163
390.68	6.419
390.88	10.379
391.09	9.116
391.29	9.198
391.50	6.852
391.70	9.530
391.91	6.532
392.11	8.382
392.32	8.317
392.52	9.539
392.73	8.170
392.93	9.431
393.14	8.524
393.34	9.384
393.55	8.428
393.75	8.923
393.95	8.089
394.16	9.199
394.36	8.494
394.57	9.339
394.77	9.794
394.98	8.180
395.18	9.665
395.39	9.921
395.59	8.209
395.80	8.809
396.00	7.781
396.21	10.267
396.41	6.187
396.61	10.729
396.82	7.650
397.02	10.772
397.23	8.155
397.43	8.282
397.64	6.394
397.84	9.496
398.05	5.809
398.25	7.924
398.45	7.368
398.66	9.340
398.86	8.066
399.07	10.440
399.27	6.900
399.48	10.714
399.68	7.043
399.89	7.083
400.09	8.241
400.29	8.254
400.50	8.504
400.70	9.384
400.91	7.398
401.11	7.832
401.32	8.243
401.52	5.503
401.72	7.232
401.93	9.327
402.13	8.146
402.34	8.503
402.54	6.172
402.75	11.041
402.95	5.671
403.15	9.451
403.36	7.434
403.56	7.966
403.77	6.900
403.97	7.530
404.17	6.648
404.38	8.590
404.58	6.954
404.79	9.448
404.99	8.384
405.19	7.721
405.40	8.511
405.60	8.711
405.81	8.304
406.01	8.812
406.21	7.829
406.42	8.116
406.62	7.831
406.83	9.905
407.03	10.025
407.23	6.639
407.44	6.424
407.64	8.871
407.85	9.221
408.05	8.461
408.25	7.299
408.46	9.990
408.66	6.878
408.87	6.417
409.07	7.632
409.27	5.750
409.48	7.246
409.68	9.121
409.88	5.036
410.09	7.791
410.29	7.894
410.50	10.340
410.70	5.813
410.90	8.732
411.11	6.885
411.31	8.157
411.51	8.205
411.72	8.477
411.92	6.837
412.12	7.778
412.33	6.256
412.53	7.215
412.74	6.018
412.94	8.056
413.14	5.975
413.35	7.637
413.55	7.592
413.75	8.843
413.96	5.801
414.16	7.496
414.36	8.126
414.57	7.068
414.77	6.268
414.97	8.276
415.18	6.476
415.38	7.327
415.58	6.834
415.79	7.526
415.99	7.025
416.19	8.531
416.40	8.789
416.60	8.196
416.80	7.850
417.01	9.133
417.21	6.695
417.41	10.371
417.62	7.710
417.82	9.305
418.02	7.277
418.23	10.209
418.43	8.232
418.63	9.319
418.84	10.037
419.04	9.770
419.24	10.722
419.45	11.116
419.65	10.467
419.85	10.454
420.06	9.868
420.26	11.123
420.46	9.982
420.67	11.699
420.87	11.260
421.07	11.666
421.28	10.454
421.48	11.752
421.68	11.392
421.88	11.636
422.09	10.761
422.29	11.650
422.49	10.833
422.70	11.173
422.90	10.803
423.10	11.431
423.31	11.131
423.51	12.069
423.71	10.339
423.91	11.827
424.12	11.174
424.32	11.820
424.52	11.092
424.73	11.209
424.93	11.107
425.13	11.119
425.33	10.920
425.54	11.588
425.74	11.440
425.94	11.923
426.15	11.286
426.35	10.962
426.55	10.995
426.75	11.371
426.96	10.613
427.16	11.264
427.36	10.570
427.57	11.296
427.77	10.049
427.97	10.237
428.17	9.940
428.38	11.591
428.58	7.486
428.78	11.168
428.98	7.651
429.19	8.654
429.39	7.044
429.59	10.916
429.79	7.497
430.00	8.550
430.20	7.214
430.40	9.417
430.60	7.718
430.81	9.914
431.01	6.826
431.21	9.234
431.41	7.432
431.62	9.761
431.82	7.965
432.02	10.379
432.22	7.944
432.43	7.711
432.63	7.415
432.83	9.880
433.03	8.055
433.24	9.148
433.44	8.263
433.64	10.573
433.84	8.998
434.05	10.491
434.25	9.646
434.45	10.607
434.65	10.233
434.85	11.172
435.06	10.047
435.26	10.624
435.46	9.061
435.66	10.461
435.87	9.724
436.07	9.850
436.27	8.923
436.47	8.668
436.67	7.978
436.88	9.747
437.08	9.109
437.28	9.016
437.48	8.939
437.69	10.717
437.89	8.951
438.09	11.097
438.29	8.766
438.49	10.659
438.70	10.444
438.90	8.605
439.10	9.094
439.30	9.771
439.50	8.953
439.71	10.689
439.91	9.926
440.11	11.574
440.31	10.655
440.51	10.233
440.72	10.822
440.92	10.777
441.12	11.218
441.32	11.251
441.52	10.935
441.72	10.722
441.93	10.155
442.13	11.436
442.33	10.597
442.53	11.566
442.73	9.432
442.94	11.055
443.14	10.106
443.34	11.940
443.54	10.692
443.74	11.342
443.94	9.985
444.15	9.924
444.35	8.150
444.55	10.911
444.75	9.828
444.95	10.897
445.15	10.192
445.36	10.746
445.56	9.140
445.76	10.906
445.96	9.989
446.16	10.437
446.36	10.005
446.57	11.566
446.77	9.427
446.97	11.107
447.17	10.962
447.37	11.195
447.57	11.043
447.77	11.246
447.98	10.682
448.18	11.678
448.38	11.030
448.58	11.255
448.78	10.515
448.98	11.290
449.18	10.448
449.39	11.046
449.59	9.998
449.79	10.922
449.99	9.172
450.19	10.992
450.39	9.494
450.59	10.520
450.79	9.633
451.00	10.780
451.20	10.000
451.40	10.280
451.60	8.482
451.80	10.622
452.00	8.643
452.20	9.878
452.40	9.597
452.61	10.221
452.81	9.161
453.01	10.422
453.21	9.648
453.41	10.011
453.61	9.619
453.81	9.408
454.01	9.182
454.21	10.506
454.42	10.254
454.62	10.404
454.82	9.232
455.02	9.368
455.22	7.929
455.42	9.361
455.62	7.322
455.82	9.127
456.02	8.782
456.23	9.921
456.43	9.330
456.63	9.757
456.83	6.778
457.03	9.567
457.23	9.299
457.43	8.912
457.63	8.046
457.83	10.738
458.03	8.752
458.23	9.407
458.43	7.966
458.64	10.036
458.84	8.565
459.04	10.489
459.24	10.028
459.44	10.758
459.64	10.300
459.84	10.775
460.04	10.497
460.24	10.781
460.44	10.043
460.64	11.063
460.84	10.420
461.04	11.304
461.24	11.224
461.45	11.121
461.65	10.894
461.85	11.397
462.05	10.515
462.25	10.827
462.45	10.966
462.65	10.374
462.85	8.898
463.05	10.110
463.25	8.412
463.45	10.779
463.65	9.330
463.85	10.653
464.05	9.590
464.25	8.943
464.45	10.294
464.65	8.792
464.85	7.666
465.05	9.343
465.26	8.532
465.46	10.530
465.66	10.010
465.86	9.316
466.06	9.141
466.26	9.926
466.46	7.996
466.66	10.366
466.86	8.705
467.06	10.111
467.26	9.316
467.46	10.820
467.66	9.081
467.86	9.705
468.06	8.823
468.26	9.141
468.46	9.752
468.66	9.739
468.86	8.704
469.06	10.561
469.26	7.787
469.46	9.690
469.66	8.361
469.86	9.923
470.06	8.750
470.26	10.008
470.46	8.249
470.66	10.113
470.86	8.693
471.06	9.530
471.26	7.201
471.46	8.819
471.66	9.137
471.86	9.069
472.06	8.537
472.26	10.294
472.46	9.704
472.66	10.117
472.86	8.726
473.06	9.804
473.26	8.766
473.46	9.874
473.66	7.891
473.86	9.689
474.06	7.834
474.26	9.511
474.46	7.782
474.66	10.042
474.86	9.485
475.06	10.171
475.26	6.792
475.46	10.120
475.66	7.704
475.86	9.800
476.06	8.994
476.26	9.847
476.46	8.431
476.66	10.013
476.86	7.739
477.06	9.962
477.26	8.173
477.46	9.848
477.65	9.630
477.85	10.336
478.05	7.798
478.25	10.853
478.45	9.223
478.65	10.187
478.85	8.928
479.05	10.749
479.25	9.739
479.45	10.870
479.65	8.548
479.85	9.924
480.05	9.178
480.25	11.103
480.45	9.397
480.65	10.667
480.85	9.740
481.05	10.515
481.25	9.623
481.44	11.701
481.64	8.870
481.84	10.563
482.04	10.310
482.24	11.166
482.44	9.689
482.64	10.853
482.84	10.655
483.04	10.968
483.24	10.837
483.44	10.356
483.64	10.841
483.84	10.918
484.04	11.573
484.23	11.435
484.43	11.647
484.63	12.061
484.83	12.586
485.03	13.270
485.23	13.030
485.43	12.690
485.63	12.906
485.83	11.879
486.03	11.381
486.23	11.725
486.42	11.561
486.62	11.334
486.82	11.058
487.02	11.192
487.22	11.289
487.42	10.955
487.62	11.620
487.82	11.119
488.02	11.388
488.22	11.217
488.41	11.392
488.61	11.284
488.81	11.270
489.01	11.289
489.21	11.579
489.41	11.466
489.61	11.071
489.81	11.642
490.01	11.758
490.20	11.720
490.40	11.376
490.60	11.414
490.80	10.970
491.00	11.423
491.20	11.162
491.40	11.425
491.60	11.226
491.79	10.901
491.99	11.419
492.19	11.555
492.39	11.323
492.59	11.646
492.79	11.382
492.99	10.991
493.19	11.291
493.38	11.807
493.58	11.513
493.78	11.282
493.98	10.812
494.18	11.789
494.38	11.006
494.58	11.453
494.77	10.318
494.97	10.916
495.17	10.225
495.37	10.932
495.57	10.150
495.77	11.344
495.96	10.121
496.16	10.709
496.36	9.831
496.56	10.538
496.76	10.330
496.96	10.723
497.15	10.226
497.35	10.607
497.55	10.457
497.75	11.061
497.95	10.142
498.15	11.420
498.34	10.942
498.54	10.685
498.74	10.733
498.94	11.457
499.14	10.144
499.34	11.050
499.53	10.284
499.73	11.363
499.93	10.385
500.13	11.431
500.33	9.926
500.52	11.019
500.72	10.010
500.92	11.186
501.12	9.739
501.32	10.869
501.52	10.132
501.71	9.827
501.91	9.339
502.11	10.440
502.31	9.181
502.51	9.974
502.70	8.987
502.90	10.348
503.10	8.891
503.30	10.591
503.50	9.935
503.69	10.359
503.89	9.390
504.09	10.849
504.29	9.279
504.48	10.812
504.68	10.387
504.88	10.725
505.08	9.382
505.28	11.171
505.47	9.861
505.67	11.730
505.87	9.989
506.07	11.391
506.27	10.449
506.46	11.249
506.66	9.141
506.86	10.735
507.06	10.557
507.25	10.558
507.45	9.867
507.65	10.542
507.85	9.890
508.04	11.391
508.24	10.634
508.44	10.818
508.64	10.203
508.83	11.388
509.03	9.884
509.23	10.980
509.43	10.280
509.63	11.141
509.82	10.595
510.02	10.887
510.22	10.891
510.42	11.089
510.61	10.746
510.81	11.068
511.01	10.365
511.21	11.093
511.40	10.594
511.60	10.987
511.80	10.638
511.99	11.240
512.19	10.646
512.39	11.446
512.59	10.757
512.78	11.438
512.98	11.052
513.18	11.012
513.38	10.130
513.57	11.346
513.77	10.772
513.97	11.703
514.17	10.777
514.36	11.358
514.56	10.556
514.76	11.363
514.95	9.845
515.15	10.712
515.35	9.515
515.55	11.182
515.74	11.125
515.94	11.260
516.14	10.307
516.33	11.378
516.53	9.932
516.73	10.620
516.93	10.534
517.12	10.826
517.32	9.467
517.52	11.225
517.71	10.161
517.91	11.548
518.11	10.816
518.30	11.150
518.50	10.362
518.70	11.134
518.90	11.046
519.09	11.558
519.29	11.514
519.49	11.381
519.68	11.208
519.88	11.115
520.08	11.253
520.27	11.682
520.47	11.633
520.67	11.694
520.86	11.486
521.06	11.393
521.26	11.031
521.45	11.771
521.65	10.195
521.85	11.050
522.04	10.302
522.24	11.000
522.44	10.708
522.63	10.871
522.83	10.181
523.03	10.877
523.22	10.302
523.42	11.386
523.62	10.914
523.81	10.906
524.01	10.862
524.21	11.045
524.40	10.425
524.60	11.017
524.80	10.470
524.99	11.070
525.19	10.717
525.39	11.131
525.58	10.361
525.78	11.203
525.98	11.297
526.17	11.282
526.37	11.322
526.57	11.286
526.76	11.472
526.96	11.571
527.15	11.236
527.35	11.604
527.55	11.014
527.74	11.794
527.94	11.644
528.14	11.560
528.33	11.352
528.53	11.149
528.72	11.343
528.92	11.669
529.12	11.725
529.31	11.741
529.51	11.554
529.71	11.467
529.90	11.765
530.10	11.704
530.29	11.968
530.49	11.791
530.69	11.782
530.88	11.561
531.08	11.872
531.28	11.673
531.47	11.588
531.67	11.719
531.86	11.621
532.06	11.498
532.26	11.506
532.45	11.415
532.65	11.548
532.84	11.528
533.04	11.075
533.24	11.125
533.43	11.203
533.63	11.607
533.82	11.202
534.02	11.578
534.22	11.430
534.41	11.539
534.61	11.335
534.80	11.550
535.00	11.556
535.19	11.697
535.39	11.881
535.59	11.315
535.78	11.352
535.98	11.236
536.17	11.274
536.37	11.122
536.57	11.537
536.76	11.715
536.96	11.542
537.15	11.495
537.35	11.722
537.54	11.420
537.74	11.747
537.93	11.584
538.13	11.207
538.33	11.746
538.52	11.512
538.72	11.602
538.91	11.571
539.11	11.397
539.30	10.667
539.50	11.476
539.70	10.560
539.89	11.143
540.09	11.391
540.28	11.219
540.48	10.625
540.67	11.746
540.87	11.533
541.06	11.299
541.26	11.551
541.45	11.541
541.65	11.400
541.85	11.410
542.04	11.832
542.24	11.903
542.43	11.586
542.63	11.745
542.82	11.557
543.02	11.669
543.21	11.606
543.41	12.072
543.60	11.918
543.80	11.669
543.99	11.612
544.19	11.858
544.38	12.018
544.58	12.208
544.77	11.630
544.97	11.765
545.16	11.478
545.36	11.761
545.56	11.438
545.75	11.558
545.95	11.241
546.14	11.461
546.34	10.659
546.53	11.572
546.73	11.537
546.92	11.934
547.12	11.457
547.31	12.110
547.51	11.222
547.70	11.766
547.90	10.486
548.09	11.605
548.29	10.847
548.48	11.669
548.68	10.743
548.87	11.280
549.07	11.368
549.26	11.303
549.46	10.629
549.65	10.603
549.84	9.766
550.04	10.415
550.23	9.805
550.43	10.141
550.62	10.180
550.82	10.455
551.01	9.089
551.21	10.261
551.40	9.483
551.60	11.075
551.79	8.661
551.99	10.178
552.18	9.207
552.38	9.771
552.57	9.984
552.77	10.945
552.96	10.962
553.16	11.102
553.35	10.045
553.54	11.773
553.74	10.836
553.93	11.128
554.13	10.353
554.32	12.070
554.52	10.954
554.71	12.209
554.91	11.112
555.10	11.883
555.29	9.251
555.49	10.369
555.68	9.225
555.88	10.867
556.07	8.700
556.27	11.267
556.46	10.110
556.66	10.340
556.85	10.198
557.04	11.043
557.24	9.640
557.43	11.562
557.63	9.566
557.82	10.290
558.02	9.443
558.21	10.994
558.40	8.733
558.60	11.443
558.79	10.137
558.99	10.880
559.18	10.032
559.38	10.373
559.57	9.977
559.76	10.853
559.96	9.681
560.15	11.204
560.35	8.620
560.54	10.330
560.73	8.430
560.93	11.412
561.12	10.374
561.32	10.928
561.51	9.743
561.70	11.018
561.90	10.045
562.09	12.033
562.29	9.667
562.48	11.603
562.67	10.639
562.87	11.144
563.06	9.870
563.26	10.769
563.45	10.817
563.64	11.730
563.84	10.531
564.03	11.991
564.23	10.260
564.42	12.882
564.61	11.241
564.81	12.408
565.00	11.674
565.20	12.781
565.39	12.514
565.58	11.988
565.78	11.064
565.97	12.678
566.16	12.030
566.36	13.154
566.55	12.646
566.74	12.938
566.94	11.636
567.13	12.851
567.33	12.451
567.52	12.968
567.71	12.889
567.91	13.377
568.10	12.944
568.29	13.479
568.49	12.001
568.68	12.881
568.87	11.796
569.07	12.810
569.26	12.305
569.45	13.112
569.65	12.331
569.84	13.531
570.04	12.368
570.23	13.573
570.42	11.626
570.62	12.426
570.81	12.706
571.00	13.329
571.20	13.219
571.39	12.967
571.58	12.437
571.78	14.477
571.97	13.578
572.16	14.213
572.36	13.522
572.55	14.658
572.74	13.307
572.94	13.729
573.13	13.824
573.32	13.984
573.51	13.080
573.71	13.774
573.90	12.968
574.09	14.076
574.29	13.186
574.48	13.883
574.67	13.569
574.87	13.894
575.06	13.132
575.25	14.413
575.45	13.678
575.64	13.915
575.83	13.585
576.03	13.932
576.22	13.361
576.41	13.735
576.60	12.447
576.80	14.008
576.99	13.228
577.18	14.013
577.38	13.413
577.57	13.376
577.76	14.291
577.95	13.746
578.15	12.359
578.34	13.703
578.53	12.638
578.73	13.946
578.92	11.480
579.11	12.919
579.30	12.142
579.50	12.523
579.69	13.114
579.88	13.788
580.08	9.943
580.27	13.076
580.46	12.871
580.65	12.652
580.85	12.462
581.04	11.851
581.23	11.692
581.42	12.382
581.62	10.812
581.81	13.658
582.00	11.793
582.19	13.881
582.39	11.934
582.58	11.999
582.77	11.853
582.96	11.531
583.16	11.373
583.35	13.094
583.54	12.525
583.73	11.409
583.93	11.558
584.12	12.343
584.31	9.804
584.50	12.396
584.70	11.810
584.89	12.608
585.08	10.346
585.27	13.787
585.47	9.922
585.66	12.704
585.85	10.005
586.04	11.340
586.24	12.087
586.43	11.881
586.62	9.688
586.81	12.294
587.00	10.240
587.20	12.868
587.39	9.153
587.58	13.419
587.77	11.173
587.97	10.562
588.16	10.869
588.35	12.484
588.54	9.779
588.73	12.179
588.93	12.258
589.12	12.836
589.31	11.200
589.50	12.193
589.69	12.079
589.89	14.094
590.08	12.485
590.27	12.659
590.46	11.435
590.65	12.794
590.85	10.164
591.04	12.987
591.23	12.573
591.42	13.341
591.61	11.260
591.81	12.150
592.00	11.520
592.19	12.742
592.38	11.246
592.57	12.430
592.77	11.596
592.96	11.316
593.15	13.126
593.34	12.036
593.53	10.873
593.72	12.032
593.92	10.073
594.11	13.022
594.30	10.691
594.49	12.999
594.68	11.684
594.87	12.815
595.07	10.778
595.26	13.647
595.45	10.694
595.64	13.252
595.83	12.256
596.02	12.915
596.22	10.753
596.41	13.333
596.60	12.221
596.79	14.179
596.98	12.608
597.17	14.369
597.37	13.220
597.56	14.201
597.75	12.740
597.94	14.761
598.13	13.706
598.32	13.567
598.51	12.309
598.71	14.627
598.90	12.781
599.09	13.922
599.28	11.997
599.47	13.107
599.66	10.952
599.85	13.586
600.05	11.405
600.24	13.950
600.43	12.553
600.62	12.646
600.81	12.437
601.00	13.161
601.19	11.429
601.38	12.359
601.58	12.125
601.77	11.978
601.96	10.379
602.15	13.878
602.34	11.540
602.53	14.475
602.72	11.690
602.91	12.886
603.10	12.577
603.30	13.939
603.49	11.945
603.68	13.752
603.87	11.569
604.06	14.949
604.25	13.588
604.44	14.726
604.63	13.032
604.82	14.966
605.01	14.308
605.21	13.906
605.40	13.433
605.59	15.707
605.78	14.889
605.97	14.524
606.16	14.365
606.35	15.096
606.54	12.852
606.73	14.856
606.92	11.758
607.11	16.032
607.30	13.299
607.50	14.059
607.69	11.886
607.88	13.578
608.07	11.894
608.26	13.496
608.45	12.282
608.64	15.187
608.83	10.963
609.02	13.653
609.21	13.242
609.40	14.887
609.59	12.159
609.78	13.845
609.97	12.956
610.16	13.928
610.35	13.981
610.55	14.224
610.74	13.217
610.93	14.218
611.12	13.271
611.31	13.090
611.50	11.379
611.69	12.021
611.88	12.681
612.07	13.648
612.26	10.767
612.45	11.787
612.64	11.066
612.83	13.336
613.02	9.364
613.21	11.281
613.40	11.849
613.59	13.034
613.78	9.973
613.97	12.143
614.16	9.006
614.35	12.835
614.54	8.713
614.73	13.368
614.92	10.393
615.11	9.992
615.30	9.015
615.49	9.670
615.68	9.975
615.87	9.858
616.07	8.980
616.26	10.634
616.45	10.236
616.64	9.510
616.83	9.214
617.02	12.147
617.21	8.238
617.40	9.864
617.59	9.533
617.78	11.001
617.97	10.752
618.16	9.432
618.35	7.124
618.54	10.212
618.73	9.709
618.92	9.082
619.11	9.427
619.30	11.058
619.49	6.861
619.68	11.122
619.86	8.533
620.05	9.838
620.24	8.976
620.43	9.119
620.62	6.687
620.81	9.535
621.00	10.071
621.19	10.496
621.38	9.234
621.57	12.182
621.76	9.712
621.95	10.288
622.14	9.963
622.33	11.095
622.52	9.790
622.71	10.429
622.90	7.919
623.09	10.293
623.28	10.118
623.47	11.380
623.66	9.694
623.85	9.191
624.04	8.640
624.23	9.681
624.42	9.494
624.61	9.286
624.80	8.688
624.99	9.420
625.18	7.401
625.36	9.415
625.55	9.425
625.74	9.943
625.93	8.136
626.12	10.664
626.31	9.929
626.50	10.610
626.69	9.930
626.88	12.907
627.07	11.690
627.26	10.258
627.45	9.767
627.64	11.060
627.83	10.129
628.02	11.339
628.20	10.363
628.39	10.957
628.58	11.139
628.77	11.177
628.96	8.416
629.15	9.482
629.34	10.083
629.53	10.163
629.72	7.359
629.91	12.340
630.10	9.372
630.29	9.473
630.47	6.882
630.66	9.983
630.85	9.644
631.04	9.406
631.23	8.320
631.42	9.856
631.61	8.753
631.80	11.274
631.99	7.692
632.18	7.868
632.36	5.732
632.55	10.438
632.74	7.892
632.93	8.709
633.12	7.245
633.31	8.371
633.50	8.777
633.69	9.880
633.88	6.934
634.06	9.292
634.25	7.478
634.44	8.784
634.63	9.880
634.82	11.066
635.01	6.346
635.20	10.571
635.39	6.952
635.57	9.733
635.76	7.965
635.95	9.411
636.14	7.480
636.33	10.205
636.52	8.225
636.71	7.683
636.89	7.890
637.08	9.236
637.27	7.267
637.46	8.710
637.65	7.991
637.84	8.219
638.03	7.324
638.21	11.191
638.40	7.553
638.59	7.794
638.78	7.696
638.97	9.328
639.16	10.595
639.34	8.171
639.53	6.983
639.72	10.135
639.91	5.884
640.10	6.577
640.29	9.006
640.47	10.032
640.66	8.511
640.85	9.725
641.04	5.546
641.23	8.550
641.42	8.925
641.60	9.261
641.79	6.687
641.98	8.881
642.17	6.388
642.36	8.994
642.54	5.383
642.73	8.028
642.92	6.636
643.11	7.950
643.30	7.475
643.49	8.207
643.67	5.895
643.86	8.333
644.05	7.327
644.24	7.918
644.43	6.799
644.61	8.360
644.80	7.463
644.99	7.853
645.18	9.553
645.37	9.232
645.55	5.895
645.74	7.204
645.93	7.232
646.12	8.595
646.31	6.324
646.49	7.255
646.68	7.704
646.87	8.355
647.06	7.650
647.24	7.803
647.43	5.696
647.62	9.537
647.81	5.186
648.00	8.706
648.18	6.051
648.37	7.367
648.56	6.071
648.75	7.026
648.93	6.683
649.12	6.911
649.31	5.765
649.50	5.598
649.68	7.866
649.87	6.799
650.06	5.843
650.25	6.348
650.43	6.382
650.62	5.725
650.81	6.901
651.00	5.657
651.18	6.583
651.37	7.708
651.56	6.197
651.75	9.175
651.93	6.977
652.12	8.132
652.31	6.960
652.50	7.168
652.68	8.854
652.87	9.214
653.06	8.312
653.25	8.744
653.43	7.033
653.62	8.562
653.81	7.580
654.00	9.259
654.18	6.969
654.37	8.221
654.56	6.248
654.74	6.120
654.93	6.372
655.12	6.702
655.31	5.912
655.49	7.141
655.68	6.472
655.87	6.039
656.05	5.493
656.24	6.279
656.43	4.978
656.62	6.963
656.80	7.804
656.99	7.338
657.18	6.563
657.36	5.877
657.55	6.828
657.74	5.525
657.93	8.352
658.11	9.555
658.30	6.280
658.49	7.127
658.67	6.815
658.86	6.861
659.05	6.393
659.23	8.422
659.42	6.367
659.61	8.599
659.79	7.858
659.98	7.707
660.17	8.636
660.35	8.110
660.54	9.162
660.73	10.865
660.91	8.467
661.10	9.063
661.29	6.386
661.47	8.889
661.66	7.852
661.85	7.253
662.03	7.219
662.22	5.146
662.41	4.573
662.59	7.269
662.78	4.987
662.97	7.129
663.15	3.922
663.34	6.631
663.53	5.595
663.71	7.722
663.90	7.448
664.09	7.442
664.27	6.667
664.46	6.500
664.65	5.053
664.83	5.108
665.02	6.557
665.21	5.808
665.39	6.989
665.58	6.073
665.77	6.820
665.95	8.937
666.14	5.496
666.32	6.754
666.51	6.491
666.70	5.144
666.88	5.792
667.07	6.766
667.26	4.389
667.44	6.730
667.63	6.765
667.81	5.672
668.00	4.493
668.19	7.824
668.37	6.780
668.56	7.261
668.75	5.656
668.93	10.106
669.12	7.039
669.30	8.019
669.49	5.489
669.68	7.645
669.86	7.023
670.05	5.350
670.23	6.169
670.42	5.919
670.61	7.478
670.79	7.208
670.98	6.683
671.16	8.874
671.35	4.826
671.54	6.310
671.72	5.378
671.91	6.707
672.09	5.684
672.28	7.778
672.46	8.558
672.65	5.124
672.84	8.674
673.02	8.121
673.21	3.889
673.39	5.953
673.58	7.311
673.77	7.186
673.95	7.473
674.14	7.270
674.32	4.849
674.51	7.853
674.69	5.134
674.88	7.400
675.07	5.513
675.25	10.816
675.44	7.760
675.62	6.250
675.81	5.470
675.99	12.818
676.18	7.955
676.36	5.081
676.55	6.653
676.74	8.615
676.92	8.513
677.11	6.382
677.29	7.700
677.48	8.221
677.66	7.844
677.85	6.318
678.03	4.665
678.22	8.308
678.40	7.331
678.59	7.371
678.78	5.169
678.96	7.145
679.15	7.297
679.33	9.802
679.52	9.614
679.70	9.585
679.89	8.898
680.07	9.868
680.26	8.294
680.44	8.172
680.63	8.699
680.81	8.188
681.00	6.746
681.18	8.999
681.37	7.619
681.55	9.921
681.74	8.885
681.92	9.154
682.11	9.893
682.29	8.625
682.48	8.199
682.66	9.556
682.85	8.904
683.03	9.501
683.22	10.000
683.40	11.953
683.59	7.601
683.77	10.339
683.96	7.430
684.14	9.730
684.33	7.152
684.51	12.534
684.70	7.484
684.88	11.667
685.07	8.008
685.25	9.863
685.44	6.984
685.62	9.505
685.81	7.031
685.99	9.872
686.18	6.585
686.36	9.722
686.55	6.875
686.73	7.482
686.92	10.080
687.10	10.938
687.29	9.758
687.47	11.270
687.65	11.455
687.84	8.825
688.02	11.492
688.21	12.756
688.39	9.653
688.58	12.596
688.76	8.185
688.95	10.594
689.13	9.409
689.32	12.666
689.50	10.341
689.68	11.688
689.87	10.375
690.05	10.454
690.24	12.632
690.42	11.025
690.61	11.200
690.79	13.614
690.98	9.804
691.16	10.528
691.34	7.501
691.53	10.698
691.71	9.143
691.90	10.637
692.08	9.355
692.27	13.920
692.45	11.608
692.63	11.033
692.82	12.794
693.00	11.552
693.19	9.716
693.37	13.656
693.56	10.350
693.74	14.651
693.92	13.070
694.11	13.748
694.29	14.838
694.48	15.531
694.66	11.601
694.84	18.038
695.03	11.471
695.21	17.695
695.40	17.079
695.58	22.869
695.76	13.462
695.95	16.339
696.13	14.749
696.32	18.902
696.50	24.376
696.68	17.815
696.87	15.809
697.05	19.393
697.24	19.341
697.42	21.135
697.60	19.274
697.79	21.467
697.97	23.322
698.16	24.891
698.34	20.434
698.52	26.377
698.71	23.870
698.89	28.488
699.07	25.377
699.26	29.128
699.44	28.385
699.63	29.843
699.81	27.014
699.99	30.522
700.18	30.329
700.36	30.382
700.54	28.739
700.73	27.920
700.91	28.132
701.09	30.454
701.28	31.242
701.46	31.294
701.64	26.362
701.83	32.133
702.01	27.535
702.20	34.456
702.38	30.069
702.56	29.248
702.75	30.575
702.93	28.125
703.11	27.971
703.30	30.531
703.48	32.381
703.66	32.518
703.85	29.128
704.03	35.888
704.21	30.386
704.40	37.258
704.58	29.673
704.76	34.785
704.95	32.069
705.13	32.929
705.31	30.424
705.50	39.169
705.68	31.523
705.86	38.381
706.04	31.734
706.23	35.944
706.41	37.077
706.59	35.634
706.78	34.963
706.96	36.396
707.14	37.967
707.33	36.329
707.51	35.677
707.69	38.839
707.88	36.091
708.06	39.210
708.24	37.147
708.42	41.566
708.61	37.411
708.79	43.604
708.97	42.313
709.16	40.321
709.34	37.446
709.52	38.567
709.71	37.346
709.89	44.728
710.07	37.966
710.25	41.528
710.44	39.840
710.62	42.616
710.80	43.494
710.98	45.565
711.17	40.661
711.35	44.412
711.53	39.868
711.72	45.681
711.90	45.770
712.08	45.904
712.26	41.518
712.45	45.154
712.63	42.221
712.81	47.288
712.99	41.555
713.18	47.428
713.36	46.042
713.54	43.409
713.72	43.268
713.91	46.098
714.09	41.812
714.27	43.297
714.45	45.686
714.64	48.643
714.82	43.273
715.00	49.660
715.18	43.980
715.37	51.192
715.55	45.203
715.73	48.682
715.91	46.593
716.10	47.120
716.28	39.058
716.46	50.109
716.64	45.654
716.83	51.426
717.01	44.115
717.19	46.497
717.37	44.506
717.55	50.114
717.74	44.361
717.92	46.616
718.10	41.358
718.28	49.090
718.47	41.323
718.65	50.557
718.83	45.979
719.01	52.776
719.19	48.156
719.38	45.000
719.56	43.371
719.74	47.890
719.92	33.145
720.10	48.630
720.29	44.206
720.47	47.274
720.65	48.175
720.83	48.512
721.01	40.750
721.20	45.089
721.38	45.142
721.56	44.492
721.74	47.005
721.92	48.479
722.11	42.866
722.29	49.777
722.47	41.029
722.65	48.114
722.83	42.548
723.01	46.879
723.20	45.228
723.38	43.871
723.56	41.495
723.74	51.209
723.92	41.759
724.10	51.545
724.29	39.987
724.47	50.503
724.65	42.651
724.83	52.010
725.01	46.198
725.19	54.397
725.38	44.644
725.56	50.389
725.74	45.973
725.92	46.824
726.10	45.622
726.28	48.377
726.46	44.823
726.65	51.808
726.83	41.909
727.01	53.558
727.19	45.675
727.37	48.903
727.55	48.507
727.73	48.968
727.92	48.955
728.10	52.151
728.28	44.358
728.46	52.835
728.64	45.592
728.82	53.999
729.00	49.771
729.19	51.909
729.37	50.756
729.55	53.713
729.73	47.076
729.91	53.657
730.09	47.872
730.27	52.765
730.45	49.280
730.63	50.799
730.82	47.529
731.00	50.116
731.18	48.967
731.36	51.498
731.54	47.463
731.72	53.681
731.90	48.222
732.08	52.888
732.26	45.737
732.45	53.612
732.63	54.806
732.81	51.364
732.99	47.704
733.17	56.154
733.35	47.413
733.53	57.245
733.71	49.107
733.89	53.955
734.07	54.089
734.25	58.155
734.44	51.760
734.62	51.488
734.80	51.921
734.98	54.191
735.16	54.774
735.34	52.185
735.52	52.858
735.70	56.230
735.88	48.855
736.06	54.418
736.24	55.440
736.42	49.204
736.60	47.386
736.78	57.640
736.97	47.946
737.15	51.581
737.33	47.646
737.51	52.621
737.69	48.827
737.87	56.865
738.05	51.543
738.23	54.402
738.41	47.224
738.59	56.017
738.77	54.001
738.95	57.528
739.13	48.455
739.31	57.531
739.49	54.513
739.67	58.768
739.85	51.204
740.03	53.093
740.21	51.944
740.39	52.541
740.57	55.325
740.75	56.120
740.93	53.388
741.11	52.606
741.30	45.940
741.48	59.122
741.66	50.710
741.84	56.140
742.02	46.132
742.20	53.893
742.38	50.000
742.56	56.867
742.74	45.910
742.92	50.159
743.10	49.636
743.28	54.190
743.46	50.800
743.64	52.369
743.82	44.503
744.00	56.501
744.18	47.154
744.36	50.582
744.54	46.928
744.72	54.363
744.90	53.038
745.08	55.485
745.26	46.543
745.44	59.399
745.62	50.705
745.80	49.919
745.98	45.281
746.16	60.946
746.34	47.359
746.52	53.303
746.70	47.179
746.87	49.238
747.05	46.025
747.23	48.067
747.41	50.266
747.59	50.345
747.77	41.973
747.95	50.146
748.13	47.471
748.31	58.807
748.49	52.178
748.67	51.142
748.85	48.294
749.03	51.293
749.21	46.274
749.39	54.803
749.57	45.315
749.75	56.793
749.93	54.197
750.11	51.962
750.29	50.042
750.47	54.428
750.65	50.798
750.83	52.327
751.01	44.494
751.18	54.996
751.36	46.632
751.54	52.188
751.72	49.913
751.90	51.232
752.08	40.000
752.26	52.022
752.44	49.440
752.62	53.568
752.80	47.462
752.98	49.587
753.16	49.728
753.34	52.424
753.52	52.217
753.69	53.933
753.87	52.840
754.05	51.845
754.23	48.082
754.41	53.208
754.59	48.758
754.77	62.889
754.95	48.906
755.13	50.647
755.31	47.611
755.49	49.196
755.66	47.220
755.84	48.340
756.02	46.476
756.20	56.868
756.38	48.214
756.56	49.354
756.74	44.596
756.92	50.597
757.10	45.138
757.28	57.514
757.45	52.163
757.63	54.626
757.81	47.201
757.99	56.396
758.17	47.578
758.35	50.256
758.53	52.213
758.71	50.485
758.88	48.942
759.06	52.201
759.24	48.142
759.42	52.148
759.60	44.909
759.78	52.344
759.96	43.990
760.13	50.704
760.31	38.011
760.49	48.151
760.67	37.859
760.85	43.409
761.03	34.444
761.21	39.810
761.38	34.629
761.56	45.081
761.74	36.713
761.92	48.737
762.10	32.181
762.28	45.024
762.46	33.137
762.63	40.459
762.81	37.851
762.99	44.074
763.17	47.166
763.35	46.317
763.53	42.385
763.70	54.148
763.88	54.916
764.06	55.089
764.24	48.875
764.42	57.343
764.60	51.514
764.77	49.187
764.95	49.639
765.13	58.955
765.31	48.074
765.49	55.782
765.66	47.837
765.84	54.669
766.02	52.202
766.20	52.807
766.38	44.348
766.56	52.458
766.73	45.018
766.91	47.568
767.09	45.550
767.27	52.514
767.45	43.632
767.62	52.485
767.80	41.646
767.98	52.381
768.16	41.710
768.33	50.324
768.51	43.727
768.69	50.371
768.87	40.574
769.05	47.826
769.22	45.759
769.40	53.286
769.58	42.045
769.76	49.613
769.94	42.887
770.11	45.172
770.29	45.238
770.47	49.774
770.65	41.421
770.82	51.073
771.00	43.785
771.18	48.337
771.36	41.667
771.53	47.841
771.71	43.333
771.89	55.353
772.07	41.627
772.25	48.216
772.42	40.767
772.60	52.273
772.78	44.888
772.96	48.834
773.13	44.731
773.31	51.163
773.49	45.861
773.67	51.685
773.84	39.615
774.02	49.134
774.20	38.963
774.37	45.551
774.55	46.458
774.73	48.810
774.91	38.392
775.08	48.843
775.26	40.891
775.44	50.993
775.62	46.410
775.79	43.620
775.97	36.806
776.15	42.348
776.32	38.802
776.50	45.776
776.68	50.856
776.86	49.000
777.03	43.929
777.21	46.577
777.39	43.601
777.56	45.767
777.74	38.820
777.92	54.504
778.10	39.943
778.27	40.988
778.45	36.200
778.63	42.618
778.80	41.905
778.98	54.913
779.16	47.632
779.34	47.626
779.51	41.277
779.69	50.417
779.87	37.286
780.04	44.038
780.22	40.343
780.40	44.026
780.57	45.323
780.75	47.580
780.93	47.748
781.10	42.779
781.28	50.364
781.46	40.771
781.63	44.462
781.81	51.841
781.99	41.702
782.16	41.691
782.34	39.185
782.52	42.790
782.69	42.517
782.87	43.615
783.05	39.970
783.22	45.809
783.40	32.874
783.58	43.606
783.75	39.489
783.93	43.296
784.11	46.080
784.28	45.166
784.46	33.032
784.64	46.179
784.81	35.846
784.99	47.528
785.17	40.000
785.34	43.988
785.52	38.994
785.69	48.255
785.87	30.695
786.05	45.227
786.22	42.332
786.40	48.510
786.58	39.648
786.75	52.589
786.93	42.165
787.11	38.474
787.28	33.795
787.46	46.308
787.63	43.016
787.81	42.190
787.99	42.496
788.16	42.755
788.34	40.000
788.51	46.356
788.69	38.844
788.87	43.236
789.04	38.063
789.22	39.797
789.39	37.110
789.57	46.617
789.75	43.819
789.92	49.656
790.10	39.837
790.27	42.382
790.45	37.016
790.63	44.770
790.80	32.299
790.98	38.399
791.15	37.500
791.33	39.403
791.51	37.781
791.68	38.276
791.86	38.804
792.03	40.950
792.21	33.005
792.39	40.635
792.56	34.596
792.74	42.520
792.91	37.049
793.09	43.239
793.26	28.376
793.44	58.416
793.62	34.281
793.79	39.896
793.97	39.896
794.14	38.198
794.32	42.004
794.49	50.510
794.67	40.735
794.84	38.694
795.02	39.823
795.20	39.526
795.37	34.407
795.55	42.351
795.72	29.160
795.90	32.715
796.07	38.206
796.25	39.198
796.42	39.448
796.60	34.276
796.77	32.330
796.95	43.988
797.13	27.397
797.30	42.791
797.48	33.871
797.65	37.482
797.83	25.075
798.00	41.440
798.18	32.057
798.35	46.709
798.53	33.333
798.70	33.956
798.88	37.344
799.05	34.357
799.23	31.895
799.40	53.966
799.58	38.832
799.75	36.305
799.93	39.021
800.10	38.348
800.28	33.854
800.45	35.229
800.63	34.206
800.80	48.479
800.98	37.598
801.15	39.033
801.33	38.879
801.50	41.301
801.68	32.724
801.85	34.452
802.03	36.634
802.20	40.381
802.38	34.130
802.55	39.292
802.73	38.112
802.90	44.281
803.08	36.842
803.25	43.916
803.43	36.007
803.60	45.117
803.78	39.037
803.95	42.599
804.13	33.464
804.30	41.973
804.48	26.938
804.65	36.204
804.83	40.210
805.00	33.096
805.17	41.252
805.35	33.922
805.52	32.525
805.70	36.979
805.87	43.381
806.05	41.068
806.22	29.735
806.40	37.719
806.57	32.597
806.75	42.160
806.92	43.433
807.09	45.437
807.27	36.628
807.44	46.780
807.62	41.774
807.79	33.836
807.97	42.402
808.14	42.364
808.31	35.963
808.49	37.676
808.66	32.472
808.84	41.260
809.01	40.824
809.19	33.789
809.36	47.016
809.53	42.074
809.71	40.159
809.88	49.790
810.06	43.750
810.23	36.087
810.41	40.164
810.58	49.436
810.75	35.754
810.93	37.917
811.10	31.496
811.28	42.629
811.45	36.902
811.62	39.868
811.80	35.022
811.97	39.091
812.15	42.052
812.32	38.444
812.49	41.889
812.67	30.819
812.84	40.674
813.02	43.004
813.19	32.800
813.36	31.887
813.54	34.858
813.71	43.629
813.89	34.383
814.06	43.470
814.23	33.333
814.41	30.479
814.58	49.362
814.75	33.268
814.93	31.390
815.10	28.833
815.28	30.508
815.45	34.135
815.62	45.767
815.80	25.893
815.97	30.140
816.14	43.909
816.32	32.759
816.49	28.099
816.66	39.446
816.84	36.605
817.01	36.905
817.18	41.474
817.36	39.850
817.53	33.183
817.71	27.529
817.88	40.157
818.05	19.858
818.23	32.677
818.40	30.621
818.57	37.753
818.75	26.526
818.92	36.726
819.09	37.165
819.27	30.705
819.44	29.103
819.61	30.567
819.79	27.273
819.96	33.525
820.13	32.881
820.31	38.596
820.48	49.910
820.65	43.548
820.82	41.006
821.00	40.782
821.17	26.894
821.34	38.731
821.52	42.488
821.69	38.272
821.86	40.301
822.04	50.714
822.21	46.097
822.38	57.487
822.56	50.964
822.73	59.132
822.90	59.887
823.07	59.287
823.25	55.234
823.42	59.452
823.59	56.859
823.77	58.292
823.94	56.787
824.11	57.138
824.29	55.357
824.46	54.562
824.63	56.055
824.80	55.517
824.98	53.465
825.15	52.634
825.32	44.907
825.49	50.028
825.67	46.863
825.84	46.080
826.01	45.342
826.19	47.515
826.36	35.077
826.53	48.367
826.70	35.165
826.88	47.557
827.05	37.934
827.22	47.189
827.39	46.249
827.57	52.573
827.74	37.984
827.91	54.189
828.08	47.055
828.26	56.219
828.43	42.236
828.60	50.064
828.77	45.836
828.95	52.093
829.12	36.819
829.29	36.587
829.46	37.177
829.64	40.772
829.81	31.099
829.98	37.349
830.15	36.571
830.32	28.858
830.50	26.355
830.67	33.424
830.84	29.310
831.01	27.565
831.19	26.296
831.36	40.244
831.53	42.344
831.70	34.542
831.87	34.462
832.05	38.561
832.22	40.213
832.39	34.792
832.56	22.777
832.74	26.403
832.91	31.021
833.08	37.365
833.25	26.703
833.42	34.596
833.60	31.571
833.77	25.755
833.94	37.066
834.11	36.448
834.28	31.136
834.45	36.674
834.63	32.682
834.80	39.158
834.97	31.789
835.14	41.853
835.31	36.837
835.49	36.083
835.66	28.644
835.83	31.758
836.00	37.911
836.17	32.690
836.34	26.856
836.52	30.641
836.69	37.199
836.86	30.435
837.03	28.114
837.20	17.424
837.37	29.933
837.55	26.087
837.72	34.823
837.89	30.580
838.06	33.575
838.23	45.895
838.40	22.651
838.58	27.419
838.75	45.399
838.92	39.420
839.09	44.937
839.26	38.592
839.43	50.694
839.60	28.617
839.78	44.720
839.95	37.500
840.12	36.842
840.29	34.903
840.46	46.106
840.63	35.457
840.80	39.578
840.98	45.455
841.15	34.264
841.32	45.251
841.49	38.843
841.66	30.000
841.83	27.896
842.00	39.660
842.17	39.944
842.34	38.162
842.52	35.455
842.69	24.684
842.86	30.037
843.03	35.370
843.20	41.499
843.37	36.905
843.54	46.075
843.71	33.750
843.88	44.526
844.06	71.610
844.23	60.169
844.40	50.424
844.57	50.000
844.74	40.517
844.91	44.279
845.08	61.017
845.25	50.000
845.42	66.480
845.59	47.541
845.76	63.978
845.94	59.444
846.11	60.396
846.28	60.558
846.45	47.849
846.62	41.000
846.79	47.257
846.96	48.352
847.13	80.435
847.30	53.672
847.47	40.206
847.64	45.306
847.81	75.000
847.98	44.865
848.15	75.419
848.32	64.767
848.50	56.000
848.67	42.604
848.84	60.947
849.01	57.554
849.18	67.647
849.35	56.190
849.52	69.841
849.69	47.802
849.86	52.027
850.03	92.562
850.20	72.667
850.37	50.588
850.54	72.340
850.71	78.646
850.88	45.161
851.05	70.109
851.22	56.627
851.39	60.428
851.56	100.000
851.73	84.524
851.90	64.052
852.07	56.140
852.24	55.556
852.41	53.807
852.58	68.306
852.75	54.070
852.92	61.326
853.09	75.163
853.26	58.824
853.43	38.824
853.60	61.224
853.77	53.073
853.94	42.478
854.11	55.556
854.28	74.306
854.45	80.519
854.62	72.093
854.79	53.333
854.96	100.694
855.13	82.390
855.30	64.964
855.47	60.484
855.64	47.826
855.81	84.173
855.98	87.786
856.15	53.077
856.32	66.825
856.49	68.927
856.66	30.128
856.83	73.585
857.00	66.393
857.17	27.419
857.34	63.587
857.51	66.197
857.68	65.306
857.85	77.647
858.02	61.224
858.19	46.409
858.36	74.713
858.53	47.929
858.70	65.934
858.87	67.586
859.04	72.941
859.21	51.515
859.38	79.724
859.55	63.068
859.72	50.694
859.89	90.909
860.05	74.820
860.22	82.424
860.39	88.793
860.56	69.643
860.73	71.429
860.90	74.251
861.07	69.500
861.24	42.647
861.41	78.035
861.58	94.156
861.75	66.142
861.92	53.750
862.09	70.352
862.26	80.645
862.43	98.667
862.59	38.816
862.76	69.430
862.93	82.308
863.10	104.412
863.27	68.462
863.44	51.220
863.61	81.159
863.78	87.166
863.95	85.976
864.12	58.974
864.29	102.542
864.45	44.025
864.62	76.423
864.79	50.588
864.96	82.692
865.13	82.482
865.30	88.776
865.47	68.966
865.64	66.434
865.81	51.754
865.97	26.415
866.14	53.476
866.31	51.639
866.48	56.338
866.65	69.939
866.82	83.221
866.99	89.286
867.16	49.612
867.33	84.397
867.49	70.482
867.66	80.597
867.83	64.732
868.00	78.495
868.17	70.992
868.34	77.953
868.51	47.183
868.67	66.667
868.84	74.074
869.01	73.103
869.18	67.200
869.35	35.461
869.52	81.022
869.69	60.448
869.85	52.027
870.02	52.717
870.19	83.077
870.36	100.000
870.53	84.524
870.70	98.214
870.86	50.649
871.03	64.234
871.20	61.345
871.37	80.473
871.54	33.962
871.71	76.515
871.87	121.649
872.04	23.125
872.21	101.515
872.38	162.651
872.55	70.714
872.72	41.304
872.88	63.333
873.05	43.316
873.22	92.500
873.39	42.683
873.56	33.094
873.72	74.033
873.89	56.051
874.06	45.082
874.23	79.710
874.40	78.400
874.56	72.727
874.73	72.500
874.90	71.918
875.07	71.756
875.24	59.146
875.40	99.107
875.57	83.333
875.74	50.625
875.91	91.270
876.08	51.429
876.24	75.641
876.41	78.947
876.58	72.263
876.75	70.968
876.92	66.667
877.08	36.496
877.25	59.091
877.42	70.769
877.59	61.446
877.75	77.358
877.92	59.302
878.09	61.842
878.26	73.288
878.42	68.148
878.59	110.227
878.76	58.201
878.93	76.821
879.09	59.864
879.26	47.436
879.43	65.625
879.60	61.212
879.76	62.564
879.93	57.868
880.10	47.442
880.27	35.556
880.43	29.082
880.60	43.192
880.77	43.922
880.94	30.357
881.10	26.207
881.27	29.282
881.44	17.137
881.61	35.614
881.77	35.240
881.94	29.495
882.11	26.183
882.28	25.408
882.44	30.973
882.61	28.622
882.78	30.630
882.94	43.743
883.11	36.907
883.28	35.980
883.45	34.627
883.61	29.018
883.78	32.215
883.95	37.748
884.11	28.936
884.28	28.837
>>>>>End Processed Spectral Data<<<<<
