SpectraSuite Data File
++++++++++++++++++++++++++++++++++++
Date: Thu Sep 19 03:03:22 EST 2019
User: sgrac
Dark Spectrum Present: Yes
Reference Spectrum Present: Yes
Number of Sampled Component Spectra: 1
Spectrometers: USB4E01596
Integration Time (usec): 100000 (USB4E01596)
Spectra Averaged: 1 (USB4E01596)
Boxcar Smoothing: 0 (USB4E01596)
Correct for Electrical Dark: No (USB4E01596)
Strobe/Lamp Enabled: Yes (USB4E01596)
Correct for Detector Non-linearity: No (USB4E01596)
Correct for Stray Light: No (USB4E01596)
Number of Pixels in Processed Spectrum: 3648
>>>>>Begin Processed Spectral Data<<<<<
178.44	535.714
178.66	535.714
178.87	535.714
179.09	-481.818
179.30	139.286
179.52	1242.857
179.74	-455.556
179.95	295.238
180.17	1218.182
180.38	171.642
180.60	0.000
180.82	435.484
181.03	240.741
181.25	2000.000
181.46	923.077
181.68	-183.721
181.89	1078.571
182.11	737.500
182.33	377.778
182.54	1008.333
182.76	583.333
182.97	-564.286
183.19	211.905
183.40	181.818
183.62	533.333
183.84	1512.500
184.05	880.000
184.27	-4650.000
184.48	192.063
184.70	5650.000
184.91	369.231
185.13	191.549
185.34	-125.000
185.56	496.296
185.78	307.692
185.99	-3700.000
186.21	-1109.091
186.42	-135.000
186.64	506.667
186.85	-4600.000
187.07	395.455
187.28	942.857
187.50	477.273
187.72	336.111
187.93	738.889
188.15	478.947
188.36	717.647
188.58	361.538
188.79	1383.333
189.01	520.833
189.22	2340.000
189.44	705.000
189.65	-5333.333
189.87	2825.000
190.09	1035.294
190.30	1385.714
190.52	1100.000
190.73	-430.769
190.95	245.455
191.16	341.667
191.38	352.778
191.59	-990.909
191.81	513.636
192.02	686.667
192.24	542.308
192.45	1512.500
192.67	1616.667
192.88	-407.407
193.10	-10700.000
193.31	400.000
193.53	-514.286
193.74	-2750.000
193.96	2022.222
194.18	862.500
194.39	402.439
194.61	763.158
194.82	872.727
195.04	488.000
195.25	3266.667
195.47	276.316
195.68	682.353
195.90	323.256
196.11	411.538
196.33	-1388.889
196.54	-742.105
196.76	550.000
196.97	1088.889
197.19	-10000.000
197.40	816.667
197.62	1766.667
197.83	823.077
198.05	360.714
198.26	335.000
198.48	326.471
198.69	-1300.000
198.91	588.889
199.12	422.857
199.34	-1742.857
199.55	207.018
199.77	295.652
199.98	-981.818
200.20	710.000
200.41	8350.000
200.63	442.857
200.84	580.952
201.06	-1046.154
201.27	-1680.000
201.49	783.333
201.70	756.250
201.91	-7250.000
202.13	652.632
202.34	280.435
202.56	4950.000
202.77	825.000
202.99	360.000
203.20	460.606
203.42	-1600.000
203.63	1650.000
203.85	416.667
204.06	543.478
204.28	1300.000
204.49	-890.000
204.71	363.415
204.92	248.889
205.14	308.889
205.35	220.000
205.56	2166.667
205.78	718.182
205.99	-1140.000
206.21	569.565
206.42	245.763
206.64	-2233.333
206.85	704.762
207.07	747.368
207.28	-1720.000
207.50	324.074
207.71	681.250
207.93	329.167
208.14	474.074
208.35	482.353
208.57	-552.000
208.78	-309.756
209.00	367.442
209.21	295.238
209.43	496.000
209.64	7500.000
209.86	404.762
210.07	427.586
210.28	-884.615
210.50	611.765
210.71	360.000
210.93	306.250
211.14	231.429
211.36	339.130
211.57	790.000
211.78	394.872
212.00	613.333
212.21	682.353
212.43	766.667
212.64	403.333
212.86	203.846
213.07	448.276
213.29	470.000
213.50	383.871
213.71	543.333
213.93	2185.714
214.14	682.353
214.36	1862.500
214.57	254.930
214.78	860.000
215.00	736.842
215.21	433.333
215.43	197.468
215.64	325.926
215.86	920.000
216.07	652.632
216.28	188.889
216.50	4350.000
216.71	-7900.000
216.93	566.667
217.14	234.848
217.35	285.714
217.57	2100.000
217.78	320.000
218.00	4133.333
218.21	416.667
218.42	221.875
218.64	-6000.000
218.85	345.098
219.07	1971.429
219.28	173.770
219.49	-750.000
219.71	1300.000
219.92	185.135
220.14	1300.000
220.35	238.636
220.56	569.231
220.78	205.263
220.99	440.000
221.21	91.753
221.42	413.043
221.63	4200.000
221.85	375.000
222.06	630.000
222.28	148.000
222.49	-1188.889
222.70	290.741
222.92	-7750.000
223.13	200.000
223.34	145.652
223.56	1041.667
223.77	191.176
223.99	293.333
224.20	203.333
224.41	194.667
224.63	5300.000
224.84	4800.000
225.05	815.385
225.27	312.821
225.48	263.333
225.69	171.765
225.91	162.500
226.12	181.159
226.34	396.875
226.55	170.588
226.76	186.275
226.98	175.000
227.19	156.410
227.40	236.000
227.62	210.959
227.83	103.571
228.04	93.506
228.26	106.250
228.47	93.333
228.69	61.765
228.90	46.429
229.11	66.376
229.33	82.297
229.54	45.643
229.75	38.869
229.97	42.988
230.18	45.183
230.39	37.626
230.61	43.686
230.82	32.226
231.03	35.669
231.25	48.658
231.46	44.643
231.67	48.679
231.89	38.492
232.10	55.472
232.31	67.857
232.53	52.294
232.74	55.505
232.95	66.667
233.17	63.077
233.38	49.474
233.59	83.146
233.81	72.840
234.02	78.286
234.23	61.340
234.45	70.000
234.66	66.667
234.87	37.209
235.09	64.362
235.30	56.796
235.51	62.780
235.73	26.263
235.94	44.643
236.15	57.090
236.36	49.333
236.58	54.067
236.79	46.121
237.00	35.341
237.22	55.556
237.43	54.864
237.64	60.248
237.86	65.094
238.07	61.345
238.28	62.992
238.50	53.110
238.71	40.933
238.92	52.358
239.13	41.935
239.35	65.560
239.56	59.444
239.77	61.202
239.99	47.177
240.20	57.588
240.41	48.425
240.63	40.896
240.84	37.611
241.05	38.514
241.26	38.095
241.48	35.780
241.69	24.119
241.90	27.356
242.12	23.926
242.33	19.697
242.54	13.782
242.75	16.162
242.97	22.663
243.18	10.981
243.39	12.794
243.61	14.717
243.82	19.300
244.03	14.617
244.24	11.622
244.46	21.390
244.67	18.271
244.88	21.834
245.09	15.512
245.31	20.984
245.52	15.734
245.73	27.210
245.95	36.111
246.16	21.964
246.37	28.114
246.58	20.923
246.80	18.989
247.01	17.136
247.22	10.393
247.43	13.947
247.65	8.475
247.86	13.932
248.07	8.785
248.28	11.418
248.50	10.040
248.71	5.852
248.92	9.673
249.13	7.550
249.35	7.062
249.56	8.478
249.77	8.614
249.98	15.199
250.20	16.058
250.41	18.071
250.62	20.658
250.83	16.645
251.05	18.642
251.26	21.429
251.47	23.566
251.68	19.007
251.90	22.167
252.11	21.963
252.32	19.550
252.53	20.528
252.75	19.448
252.96	18.681
253.17	14.474
253.38	16.200
253.59	14.074
253.81	20.154
254.02	13.383
254.23	10.526
254.44	18.143
254.66	16.993
254.87	22.712
255.08	24.156
255.29	27.290
255.50	29.328
255.72	25.686
255.93	31.390
256.14	30.603
256.35	23.202
256.57	23.342
256.78	13.816
256.99	20.522
257.20	22.965
257.41	24.124
257.63	25.000
257.84	17.457
258.05	28.161
258.26	19.132
258.47	25.123
258.69	21.574
258.90	14.038
259.11	15.375
259.32	12.218
259.53	14.959
259.75	11.310
259.96	10.691
260.17	9.910
260.38	9.158
260.59	9.642
260.81	7.285
261.02	8.950
261.23	7.194
261.44	6.532
261.65	6.538
261.87	6.689
262.08	9.814
262.29	10.351
262.50	6.615
262.71	8.621
262.92	11.475
263.14	12.143
263.35	10.846
263.56	13.474
263.77	13.355
263.98	17.790
264.20	23.529
264.41	15.491
264.62	18.261
264.83	11.024
265.04	19.098
265.25	16.345
265.47	14.132
265.68	13.808
265.89	20.403
266.10	12.352
266.31	16.713
266.52	18.052
266.74	14.010
266.95	13.723
267.16	11.384
267.37	12.391
267.58	10.841
267.79	15.713
268.01	13.508
268.22	9.797
268.43	11.967
268.64	12.675
268.85	11.732
269.06	13.664
269.27	11.819
269.49	14.171
269.70	10.097
269.91	12.818
270.12	15.760
270.33	9.812
270.54	16.085
270.75	11.488
270.97	13.358
271.18	11.485
271.39	11.069
271.60	12.297
271.81	9.966
272.02	9.585
272.23	10.024
272.45	8.346
272.66	6.982
272.87	9.402
273.08	9.190
273.29	10.826
273.50	9.164
273.71	8.723
273.92	6.545
274.14	7.976
274.35	11.286
274.56	13.059
274.77	9.458
274.98	9.925
275.19	9.232
275.40	10.390
275.61	7.524
275.83	11.438
276.04	10.922
276.25	12.814
276.46	9.820
276.67	12.284
276.88	10.018
277.09	10.589
277.30	13.887
277.51	13.108
277.73	14.336
277.94	11.586
278.15	12.282
278.36	15.424
278.57	12.722
278.78	13.384
278.99	11.785
279.20	12.271
279.41	7.956
279.62	10.140
279.84	8.086
280.05	12.197
280.26	8.272
280.47	12.230
280.68	11.796
280.89	12.909
281.10	12.269
281.31	10.578
281.52	11.168
281.73	8.392
281.94	8.068
282.16	8.932
282.37	8.434
282.58	10.870
282.79	13.188
283.00	8.193
283.21	10.828
283.42	5.833
283.63	7.019
283.84	11.022
284.05	11.314
284.26	11.714
284.47	9.055
284.68	9.720
284.89	8.218
285.11	11.523
285.32	7.948
285.53	10.503
285.74	10.925
285.95	7.660
286.16	6.375
286.37	4.797
286.58	7.721
286.79	7.538
287.00	8.981
287.21	5.856
287.42	8.238
287.63	7.087
287.84	8.836
288.05	7.454
288.26	7.950
288.48	9.360
288.69	6.671
288.90	10.816
289.11	9.456
289.32	10.205
289.53	8.840
289.74	9.113
289.95	11.466
290.16	10.145
290.37	6.655
290.58	6.698
290.79	8.781
291.00	8.971
291.21	8.999
291.42	6.645
291.63	9.125
291.84	7.969
292.05	8.251
292.26	6.118
292.47	8.227
292.68	8.037
292.89	8.047
293.10	8.480
293.31	9.012
293.52	5.636
293.73	10.104
293.94	9.649
294.15	11.742
294.36	5.681
294.57	9.823
294.79	5.770
295.00	7.524
295.21	6.132
295.42	7.654
295.63	8.428
295.84	7.160
296.05	5.696
296.26	7.527
296.47	5.640
296.68	5.907
296.89	8.065
297.10	7.240
297.31	8.109
297.52	7.031
297.73	5.356
297.94	6.327
298.15	5.658
298.36	5.540
298.57	7.020
298.78	7.842
298.99	4.295
299.20	4.981
299.41	7.302
299.62	6.364
299.83	7.531
300.04	8.433
300.25	9.727
300.46	6.712
300.67	10.202
300.88	9.406
301.09	7.714
301.30	9.833
301.50	8.757
301.71	12.698
301.92	7.927
302.13	10.408
302.34	8.422
302.55	8.387
302.76	8.353
302.97	9.770
303.18	8.118
303.39	9.059
303.60	5.093
303.81	9.605
304.02	7.160
304.23	7.027
304.44	11.301
304.65	7.852
304.86	9.819
305.07	8.691
305.28	8.314
305.49	10.857
305.70	10.526
305.91	6.955
306.12	8.594
306.33	10.444
306.54	8.786
306.75	9.102
306.96	12.484
307.17	7.831
307.38	7.960
307.58	6.360
307.79	8.270
308.00	10.056
308.21	8.050
308.42	11.652
308.63	11.833
308.84	6.170
309.05	8.783
309.26	8.737
309.47	8.513
309.68	8.081
309.89	7.964
310.10	7.098
310.31	7.184
310.52	5.701
310.73	9.265
310.94	5.232
311.14	8.582
311.35	8.309
311.56	7.454
311.77	5.540
311.98	8.303
312.19	5.427
312.40	8.970
312.61	7.983
312.82	6.903
313.03	8.307
313.24	7.769
313.45	8.850
313.66	8.892
313.86	8.069
314.07	8.187
314.28	12.398
314.49	8.895
314.70	10.349
314.91	11.378
315.12	9.563
315.33	9.139
315.54	8.464
315.75	6.952
315.96	10.319
316.16	7.018
316.37	8.921
316.58	8.743
316.79	7.652
317.00	11.621
317.21	9.326
317.42	10.250
317.63	9.075
317.84	9.851
318.05	7.542
318.25	10.532
318.46	8.749
318.67	7.683
318.88	8.343
319.09	10.616
319.30	7.383
319.51	6.646
319.72	10.195
319.93	10.086
320.13	11.845
320.34	8.723
320.55	9.028
320.76	9.415
320.97	7.470
321.18	9.810
321.39	9.830
321.60	8.061
321.80	12.879
322.01	9.055
322.22	10.644
322.43	10.577
322.64	6.484
322.85	8.380
323.06	12.382
323.27	9.916
323.47	9.221
323.68	8.573
323.89	9.315
324.10	11.836
324.31	6.424
324.52	6.450
324.73	8.689
324.93	6.156
325.14	7.567
325.35	7.278
325.56	8.751
325.77	11.908
325.98	9.045
326.19	8.233
326.39	6.285
326.60	9.077
326.81	9.086
327.02	7.587
327.23	6.560
327.44	11.320
327.64	5.762
327.85	7.233
328.06	10.800
328.27	10.892
328.48	10.048
328.69	9.213
328.90	9.874
329.10	7.424
329.31	9.656
329.52	6.467
329.73	8.703
329.94	8.767
330.15	10.077
330.35	8.434
330.56	10.131
330.77	8.304
330.98	11.454
331.19	7.181
331.39	11.514
331.60	9.919
331.81	6.236
332.02	10.937
332.23	9.388
332.44	8.235
332.64	9.118
332.85	8.057
333.06	11.970
333.27	8.840
333.48	9.291
333.68	7.188
333.89	7.874
334.10	9.291
334.31	11.076
334.52	7.840
334.72	6.352
334.93	6.562
335.14	8.599
335.35	7.390
335.56	9.210
335.76	6.614
335.97	8.883
336.18	6.575
336.39	10.920
336.60	10.106
336.80	6.891
337.01	6.200
337.22	6.349
337.43	9.444
337.64	8.394
337.84	8.986
338.05	7.904
338.26	9.861
338.47	8.764
338.68	8.458
338.88	8.861
339.09	8.604
339.30	9.060
339.51	9.056
339.71	9.178
339.92	9.091
340.13	6.930
340.34	10.091
340.55	4.995
340.75	8.785
340.96	6.351
341.17	10.227
341.38	7.427
341.58	5.707
341.79	7.571
342.00	7.639
342.21	7.916
342.41	7.491
342.62	8.971
342.83	8.099
343.04	5.958
343.24	6.670
343.45	8.768
343.66	6.873
343.87	6.971
344.07	5.923
344.28	7.319
344.49	7.515
344.70	8.337
344.90	6.751
345.11	5.887
345.32	6.053
345.53	6.407
345.73	9.175
345.94	7.632
346.15	8.957
346.36	4.695
346.56	7.259
346.77	8.230
346.98	6.852
347.19	6.788
347.39	7.031
347.60	7.794
347.81	7.205
348.02	8.043
348.22	5.768
348.43	7.367
348.64	8.087
348.84	6.284
349.05	7.819
349.26	9.298
349.47	8.310
349.67	6.176
349.88	6.536
350.09	8.423
350.30	9.586
350.50	6.487
350.71	9.107
350.92	8.438
351.12	5.863
351.33	9.209
351.54	7.672
351.74	6.344
351.95	6.493
352.16	7.470
352.37	8.950
352.57	7.716
352.78	7.539
352.99	6.690
353.19	7.723
353.40	6.334
353.61	10.142
353.82	8.004
354.02	7.456
354.23	6.661
354.44	6.166
354.64	5.839
354.85	8.018
355.06	6.681
355.26	6.475
355.47	6.873
355.68	8.996
355.88	8.874
356.09	8.208
356.30	5.523
356.51	8.247
356.71	5.687
356.92	6.782
357.13	6.692
357.33	6.900
357.54	8.116
357.75	5.674
357.95	6.469
358.16	6.555
358.37	7.320
358.57	6.451
358.78	8.992
358.99	6.440
359.19	5.440
359.40	7.956
359.61	7.036
359.81	8.105
360.02	7.627
360.23	6.570
360.43	6.998
360.64	6.191
360.85	6.426
361.05	4.517
361.26	8.949
361.47	6.184
361.67	7.647
361.88	5.226
362.09	5.012
362.29	4.825
362.50	5.050
362.70	4.101
362.91	5.811
363.12	4.794
363.32	5.397
363.53	5.111
363.74	6.770
363.94	3.675
364.15	7.418
364.36	5.435
364.56	5.758
364.77	6.597
364.98	9.760
365.18	5.591
365.39	7.486
365.59	5.595
365.80	6.320
366.01	7.776
366.21	5.456
366.42	6.132
366.63	8.057
366.83	5.514
367.04	5.423
367.24	7.479
367.45	5.315
367.66	5.808
367.86	5.733
368.07	6.137
368.28	6.486
368.48	6.090
368.69	4.683
368.89	6.054
369.10	5.405
369.31	6.507
369.51	5.940
369.72	7.916
369.92	7.814
370.13	4.964
370.34	7.608
370.54	5.351
370.75	7.336
370.95	5.109
371.16	5.928
371.37	5.656
371.57	5.006
371.78	5.985
371.98	7.168
372.19	4.862
372.40	6.680
372.60	6.061
372.81	5.406
373.01	4.240
373.22	4.394
373.43	6.051
373.63	6.579
373.84	6.554
374.04	6.683
374.25	6.233
374.46	6.779
374.66	4.939
374.87	6.436
375.07	4.850
375.28	5.238
375.48	5.671
375.69	6.013
375.90	3.923
376.10	4.569
376.31	4.425
376.51	5.603
376.72	5.058
376.92	2.938
377.13	5.871
377.34	5.260
377.54	4.697
377.75	5.516
377.95	5.228
378.16	5.452
378.36	5.683
378.57	5.489
378.77	5.558
378.98	6.475
379.19	4.678
379.39	4.665
379.60	5.176
379.80	3.869
380.01	6.843
380.21	5.739
380.42	6.429
380.62	3.495
380.83	5.255
381.04	4.574
381.24	7.066
381.45	5.328
381.65	4.430
381.86	5.940
382.06	6.339
382.27	5.186
382.47	5.042
382.68	5.553
382.88	4.189
383.09	5.109
383.29	4.873
383.50	7.635
383.71	5.642
383.91	3.107
384.12	3.624
384.32	6.108
384.53	4.588
384.73	4.459
384.94	3.703
385.14	4.415
385.35	3.307
385.55	4.124
385.76	4.243
385.96	4.603
386.17	5.202
386.37	4.279
386.58	4.274
386.78	4.878
386.99	3.574
387.19	5.548
387.40	3.993
387.60	6.019
387.81	3.404
388.01	4.367
388.22	4.965
388.42	3.842
388.63	4.540
388.83	6.524
389.04	4.224
389.24	4.104
389.45	4.294
389.65	5.118
389.86	4.961
390.06	3.609
390.27	4.709
390.47	4.153
390.68	4.303
390.88	5.058
391.09	5.077
391.29	3.412
391.50	4.627
391.70	4.447
391.91	3.695
392.11	4.201
392.32	3.866
392.52	5.012
392.73	5.017
392.93	4.176
393.14	4.423
393.34	4.791
393.55	4.657
393.75	4.163
393.95	4.534
394.16	4.261
394.36	4.319
394.57	4.729
394.77	4.483
394.98	3.754
395.18	4.332
395.39	4.712
395.59	4.203
395.80	4.385
396.00	3.301
396.21	5.420
396.41	3.442
396.61	5.191
396.82	3.886
397.02	5.862
397.23	4.602
397.43	3.722
397.64	4.130
397.84	4.546
398.05	3.539
398.25	4.475
398.45	3.640
398.66	4.790
398.86	4.817
399.07	6.264
399.27	4.667
399.48	5.137
399.68	3.830
399.89	3.315
400.09	4.302
400.29	3.973
400.50	3.327
400.70	4.935
400.91	3.126
401.11	3.094
401.32	4.746
401.52	2.525
401.72	4.449
401.93	5.051
402.13	4.883
402.34	4.262
402.54	3.064
402.75	5.108
402.95	4.654
403.15	4.937
403.36	5.183
403.56	4.139
403.77	3.773
403.97	3.442
404.17	3.593
404.38	3.878
404.58	3.684
404.79	3.845
404.99	3.422
405.19	2.530
405.40	3.356
405.60	4.743
405.81	4.523
406.01	3.087
406.21	3.877
406.42	3.609
406.62	4.662
406.83	4.577
407.03	4.792
407.23	2.606
407.44	3.599
407.64	3.108
407.85	4.027
408.05	3.522
408.25	3.720
408.46	4.543
408.66	3.565
408.87	3.623
409.07	4.379
409.27	3.089
409.48	4.369
409.68	4.458
409.88	3.531
410.09	4.144
410.29	3.772
410.50	4.508
410.70	3.508
410.90	3.833
411.11	3.194
411.31	3.518
411.51	4.521
411.72	3.573
411.92	3.951
412.12	3.775
412.33	3.489
412.53	3.209
412.74	3.374
412.94	4.881
413.14	3.342
413.35	3.229
413.55	3.556
413.75	3.835
413.96	3.230
414.16	3.915
414.36	4.726
414.57	4.491
414.77	2.743
414.97	3.986
415.18	2.441
415.38	3.309
415.58	3.178
415.79	3.763
415.99	3.843
416.19	4.423
416.40	3.600
416.60	3.186
416.80	3.267
417.01	3.413
417.21	3.381
417.41	4.779
417.62	3.317
417.82	3.754
418.02	2.911
418.23	3.252
418.43	2.923
418.63	3.810
418.84	3.701
419.04	3.074
419.24	3.773
419.45	3.676
419.65	4.026
419.85	3.455
420.06	3.080
420.26	3.238
420.46	3.776
420.67	4.506
420.87	3.987
421.07	4.442
421.28	3.259
421.48	3.840
421.68	3.822
421.88	4.005
422.09	3.903
422.29	3.321
422.49	3.119
422.70	3.438
422.90	3.747
423.10	4.226
423.31	3.867
423.51	4.344
423.71	3.392
423.91	4.282
424.12	4.338
424.32	4.032
424.52	4.037
424.73	3.455
424.93	3.777
425.13	3.558
425.33	3.225
425.54	4.897
425.74	3.614
425.94	4.592
426.15	3.709
426.35	3.182
426.55	4.022
426.75	4.166
426.96	3.483
427.16	3.699
427.36	3.334
427.57	4.278
427.77	4.275
427.97	3.638
428.17	3.534
428.38	4.143
428.58	2.171
428.78	4.387
428.98	3.175
429.19	3.707
429.39	2.571
429.59	3.492
429.79	2.984
430.00	3.215
430.20	2.674
430.40	2.866
430.60	2.602
430.81	3.802
431.01	2.792
431.21	3.582
431.41	2.895
431.62	3.155
431.82	3.401
432.02	4.687
432.22	3.114
432.43	2.353
432.63	2.002
432.83	3.249
433.03	3.005
433.24	2.945
433.44	2.896
433.64	3.319
433.84	3.138
434.05	3.246
434.25	2.875
434.45	3.905
434.65	4.266
434.85	3.945
435.06	3.654
435.26	3.564
435.46	3.175
435.66	3.495
435.87	2.974
436.07	3.508
436.27	2.959
436.47	2.526
436.67	2.543
436.88	3.233
437.08	3.729
437.28	2.828
437.48	3.089
437.69	3.634
437.89	3.528
438.09	4.020
438.29	2.710
438.49	4.093
438.70	3.770
438.90	2.732
439.10	3.341
439.30	2.918
439.50	2.481
439.71	3.481
439.91	3.053
440.11	4.408
440.31	3.807
440.51	2.844
440.72	3.196
440.92	3.005
441.12	3.472
441.32	4.808
441.52	3.810
441.72	3.851
441.93	3.539
442.13	3.764
442.33	3.198
442.53	4.581
442.73	2.893
442.94	3.406
443.14	3.096
443.34	4.939
443.54	3.648
443.74	4.524
443.94	3.230
444.15	3.037
444.35	2.557
444.55	3.992
444.75	3.234
444.95	3.405
445.15	3.619
445.36	3.233
445.56	3.001
445.76	3.974
445.96	3.348
446.16	3.109
446.36	2.835
446.57	4.090
446.77	2.158
446.97	3.592
447.17	4.161
447.37	3.908
447.57	3.810
447.77	3.593
447.98	3.056
448.18	4.544
448.38	3.108
448.58	3.881
448.78	3.635
448.98	3.653
449.18	3.395
449.39	3.041
449.59	2.893
449.79	2.966
449.99	2.261
450.19	3.225
450.39	3.214
450.59	3.650
450.79	2.936
451.00	3.608
451.20	3.867
451.40	3.385
451.60	3.263
451.80	3.749
452.00	2.909
452.20	2.894
452.40	3.247
452.61	2.927
452.81	2.626
453.01	3.122
453.21	2.518
453.41	3.817
453.61	2.923
453.81	2.887
454.01	2.891
454.21	2.861
454.42	3.956
454.62	3.560
454.82	2.623
455.02	2.884
455.22	2.659
455.42	3.068
455.62	2.740
455.82	2.601
456.02	2.614
456.23	2.996
456.43	3.207
456.63	3.103
456.83	2.394
457.03	3.098
457.23	3.538
457.43	3.111
457.63	2.564
457.83	3.497
458.03	2.640
458.23	3.523
458.43	2.786
458.64	3.060
458.84	2.961
459.04	2.821
459.24	3.300
459.44	3.672
459.64	2.820
459.84	3.787
460.04	3.117
460.24	3.095
460.44	3.296
460.64	3.777
460.84	2.987
461.04	4.210
461.24	3.823
461.45	4.583
461.65	4.166
461.85	4.204
462.05	3.458
462.25	3.933
462.45	3.733
462.65	2.906
462.85	2.048
463.05	3.635
463.25	2.551
463.45	3.215
463.65	2.772
463.85	3.506
464.05	3.668
464.25	2.676
464.45	4.005
464.65	3.227
464.85	2.588
465.05	3.126
465.26	2.924
465.46	3.216
465.66	3.661
465.86	3.397
466.06	3.324
466.26	2.969
466.46	2.744
466.66	3.193
466.86	2.608
467.06	3.243
467.26	2.608
467.46	4.357
467.66	2.784
467.86	3.100
468.06	2.847
468.26	2.891
468.46	2.656
468.66	3.536
468.86	2.541
469.06	3.740
469.26	2.353
469.46	3.036
469.66	1.993
469.86	3.580
470.06	2.339
470.26	3.636
470.46	2.995
470.66	3.486
470.86	2.605
471.06	2.778
471.26	2.580
471.46	1.970
471.66	3.291
471.86	3.058
472.06	2.838
472.26	4.115
472.46	3.485
472.66	3.317
472.86	3.132
473.06	2.364
473.26	2.855
473.46	2.909
473.66	2.990
473.86	3.374
474.06	1.925
474.26	2.830
474.46	2.477
474.66	3.865
474.86	3.195
475.06	3.387
475.26	2.241
475.46	3.451
475.66	2.441
475.86	3.640
476.06	3.415
476.26	3.342
476.46	2.417
476.66	3.204
476.86	2.557
477.06	2.572
477.26	2.479
477.46	3.083
477.65	3.196
477.85	3.418
478.05	1.862
478.25	4.180
478.45	2.323
478.65	2.983
478.85	3.032
479.05	4.095
479.25	2.588
479.45	3.585
479.65	2.049
479.85	2.976
480.05	2.857
480.25	2.702
480.45	3.093
480.65	3.425
480.85	3.013
481.05	4.024
481.25	3.643
481.44	3.697
481.64	2.462
481.84	4.183
482.04	3.461
482.24	3.735
482.44	2.436
482.64	3.524
482.84	3.293
483.04	3.930
483.24	3.730
483.44	3.936
483.64	3.848
483.84	4.511
484.04	4.631
484.23	4.759
484.43	4.858
484.63	5.349
484.83	5.516
485.03	5.982
485.23	5.574
485.43	5.659
485.63	5.559
485.83	5.213
486.03	5.108
486.23	5.258
486.42	4.942
486.62	5.176
486.82	4.353
487.02	4.754
487.22	4.226
487.42	4.593
487.62	4.315
487.82	4.607
488.02	4.315
488.22	4.731
488.41	4.642
488.61	4.860
488.81	4.567
489.01	4.939
489.21	4.732
489.41	5.164
489.61	4.898
489.81	5.348
490.01	4.682
490.20	5.047
490.40	4.274
490.60	4.776
490.80	4.140
491.00	4.484
491.20	3.950
491.40	3.691
491.60	3.836
491.79	4.708
491.99	4.393
492.19	4.756
492.39	4.965
492.59	4.770
492.79	4.684
492.99	4.876
493.19	4.583
493.38	5.035
493.58	4.320
493.78	4.852
493.98	4.936
494.18	5.066
494.38	3.729
494.58	4.186
494.77	2.846
494.97	3.592
495.17	2.671
495.37	3.321
495.57	2.915
495.77	3.787
495.96	3.558
496.16	2.910
496.36	2.679
496.56	3.524
496.76	2.660
496.96	3.683
497.15	2.603
497.35	3.671
497.55	3.156
497.75	3.625
497.95	2.599
498.15	4.096
498.34	3.466
498.54	3.609
498.74	4.135
498.94	4.239
499.14	2.847
499.34	4.346
499.53	3.496
499.73	3.950
499.93	3.216
500.13	3.625
500.33	2.742
500.52	3.644
500.72	2.895
500.92	3.459
501.12	2.941
501.32	3.953
501.52	3.246
501.71	2.974
501.91	2.770
502.11	3.454
502.31	2.748
502.51	3.550
502.70	2.689
502.90	2.893
503.10	2.813
503.30	4.040
503.50	3.144
503.69	3.143
503.89	2.837
504.09	3.476
504.29	2.950
504.48	3.659
504.68	3.933
504.88	4.007
505.08	2.681
505.28	3.629
505.47	3.049
505.67	4.375
505.87	2.469
506.07	3.183
506.27	3.253
506.46	4.064
506.66	2.766
506.86	3.708
507.06	3.870
507.25	3.626
507.45	3.517
507.65	3.482
507.85	3.143
508.04	4.343
508.24	3.341
508.44	3.536
508.64	3.538
508.83	3.805
509.03	3.043
509.23	3.663
509.43	2.758
509.63	3.461
509.82	3.281
510.02	3.483
510.22	3.494
510.42	4.142
510.61	3.192
510.81	3.040
511.01	3.679
511.21	4.055
511.40	3.411
511.60	3.904
511.80	3.179
511.99	4.015
512.19	3.321
512.39	4.306
512.59	2.694
512.78	3.993
512.98	4.036
513.18	3.685
513.38	3.658
513.57	4.744
513.77	3.369
513.97	3.918
514.17	3.269
514.36	3.856
514.56	3.282
514.76	4.275
514.95	2.373
515.15	3.048
515.35	2.682
515.55	3.493
515.74	3.352
515.94	3.870
516.14	2.600
516.33	4.028
516.53	2.738
516.73	3.424
516.93	3.386
517.12	4.031
517.32	3.129
517.52	3.626
517.71	3.182
517.91	3.799
518.11	3.876
518.30	3.642
518.50	3.265
518.70	3.586
518.90	3.750
519.09	4.671
519.29	4.155
519.49	4.435
519.68	3.431
519.88	4.693
520.08	4.130
520.27	4.631
520.47	3.869
520.67	4.349
520.86	4.278
521.06	4.368
521.26	3.281
521.45	4.647
521.65	3.335
521.85	3.857
522.04	3.305
522.24	3.767
522.44	3.414
522.63	3.426
522.83	3.103
523.03	4.247
523.22	3.586
523.42	3.989
523.62	4.057
523.81	3.929
524.01	3.667
524.21	3.832
524.40	2.981
524.60	4.130
524.80	3.496
524.99	3.386
525.19	3.676
525.39	4.061
525.58	3.621
525.78	4.528
525.98	4.019
526.17	4.621
526.37	3.776
526.57	4.959
526.76	4.251
526.96	4.970
527.15	3.781
527.35	4.565
527.55	3.915
527.74	5.078
527.94	4.751
528.14	4.830
528.33	4.798
528.53	5.000
528.72	4.947
528.92	5.361
529.12	5.252
529.31	5.231
529.51	5.518
529.71	5.643
529.90	5.464
530.10	5.680
530.29	5.520
530.49	5.696
530.69	5.592
530.88	5.719
531.08	5.587
531.28	5.498
531.47	4.803
531.67	5.161
531.86	4.844
532.06	4.996
532.26	4.313
532.45	4.821
532.65	4.437
532.84	5.143
533.04	4.294
533.24	5.000
533.43	4.466
533.63	5.338
533.82	4.849
534.02	5.147
534.22	4.785
534.41	5.309
534.61	5.079
534.80	5.374
535.00	5.356
535.19	5.588
535.39	5.428
535.59	5.057
535.78	4.605
535.98	4.979
536.17	4.205
536.37	4.575
536.57	4.275
536.76	5.437
536.96	4.343
537.15	5.239
537.35	4.247
537.54	4.962
537.74	4.837
537.93	5.489
538.13	4.667
538.33	4.791
538.52	4.799
538.72	4.834
538.91	4.617
539.11	4.903
539.30	3.993
539.50	4.720
539.70	4.606
539.89	4.733
540.09	4.303
540.28	4.737
540.48	3.761
540.67	4.396
540.87	4.701
541.06	5.161
541.26	4.610
541.45	5.343
541.65	4.928
541.85	5.518
542.04	5.108
542.24	5.830
542.43	5.786
542.63	5.885
542.82	5.366
543.02	5.588
543.21	5.420
543.41	5.738
543.60	5.337
543.80	5.540
543.99	5.361
544.19	5.699
544.38	5.044
544.58	6.156
544.77	4.914
544.97	5.656
545.16	4.474
545.36	5.048
545.56	4.936
545.75	5.095
545.95	4.839
546.14	5.434
546.34	4.156
546.53	5.513
546.73	4.993
546.92	5.228
547.12	4.537
547.31	5.549
547.51	4.271
547.70	5.225
547.90	3.770
548.09	4.922
548.29	4.314
548.48	5.217
548.68	4.547
548.87	5.665
549.07	5.336
549.26	4.855
549.46	4.510
549.65	4.823
549.84	4.162
550.04	4.452
550.23	4.277
550.43	3.921
550.62	4.564
550.82	3.474
551.01	3.197
551.21	4.384
551.40	3.887
551.60	3.894
551.79	3.690
551.99	4.740
552.18	3.743
552.38	4.184
552.57	3.806
552.77	4.640
552.96	4.359
553.16	5.232
553.35	4.477
553.54	5.570
553.74	4.726
553.93	5.304
554.13	4.476
554.32	5.360
554.52	4.573
554.71	6.228
554.91	4.343
555.10	5.919
555.29	4.777
555.49	4.723
555.68	4.636
555.88	5.275
556.07	3.789
556.27	5.518
556.46	4.917
556.66	4.740
556.85	4.810
557.04	5.847
557.24	4.877
557.43	5.653
557.63	5.135
557.82	4.924
558.02	4.157
558.21	5.221
558.40	3.645
558.60	5.943
558.79	5.721
558.99	5.348
559.18	4.776
559.38	5.575
559.57	4.719
559.76	5.539
559.96	5.918
560.15	5.908
560.35	4.924
560.54	5.099
560.73	3.915
560.93	6.232
561.12	5.602
561.32	6.011
561.51	5.767
561.70	6.081
561.90	5.156
562.09	6.574
562.29	5.229
562.48	6.239
562.67	6.278
562.87	6.268
563.06	5.439
563.26	6.240
563.45	6.150
563.64	8.254
563.84	6.298
564.03	6.772
564.23	5.859
564.42	8.226
564.61	7.152
564.81	7.011
565.00	6.569
565.20	7.707
565.39	8.119
565.58	8.092
565.78	7.008
565.97	8.309
566.16	8.031
566.36	9.192
566.55	7.318
566.74	7.904
566.94	7.595
567.13	9.205
567.33	7.612
567.52	8.276
567.71	8.177
567.91	9.217
568.10	8.442
568.29	9.509
568.49	7.612
568.68	9.429
568.87	8.031
569.07	8.583
569.26	8.631
569.45	9.786
569.65	8.107
569.84	9.037
570.04	7.864
570.23	9.089
570.42	8.033
570.62	9.374
570.81	8.615
571.00	10.049
571.20	8.959
571.39	9.275
571.58	8.829
571.78	10.317
571.97	9.386
572.16	10.117
572.36	9.966
572.55	10.302
572.74	9.629
572.94	9.685
573.13	9.695
573.32	10.364
573.51	8.488
573.71	10.099
573.90	9.815
574.09	10.854
574.29	10.378
574.48	10.176
574.67	9.962
574.87	9.843
575.06	9.378
575.25	10.225
575.45	9.660
575.64	9.884
575.83	10.082
576.03	11.143
576.22	9.939
576.41	10.310
576.60	9.642
576.80	10.771
576.99	10.030
577.18	11.309
577.38	9.338
577.57	9.849
577.76	10.358
577.95	10.211
578.15	8.210
578.34	9.840
578.53	8.552
578.73	10.420
578.92	8.160
579.11	9.632
579.30	10.162
579.50	7.882
579.69	10.013
579.88	9.600
580.08	8.022
580.27	9.383
580.46	9.598
580.65	10.453
580.85	8.283
581.04	9.632
581.23	8.933
581.42	8.887
581.62	7.157
581.81	8.942
582.00	8.934
582.19	9.841
582.39	9.209
582.58	8.852
582.77	8.947
582.96	9.488
583.16	9.142
583.35	10.063
583.54	9.594
583.73	8.713
583.93	7.705
584.12	8.028
584.31	7.023
584.50	9.551
584.70	7.772
584.89	9.193
585.08	8.261
585.27	9.955
585.47	6.662
585.66	9.760
585.85	7.068
586.04	8.102
586.24	9.005
586.43	8.623
586.62	7.076
586.81	9.752
587.00	8.035
587.20	9.655
587.39	7.489
587.58	9.393
587.77	8.495
587.97	8.408
588.16	8.382
588.35	8.970
588.54	7.924
588.73	8.303
588.93	8.349
589.12	9.133
589.31	8.086
589.50	8.148
589.69	9.282
589.89	9.878
590.08	8.538
590.27	9.580
590.46	8.850
590.65	8.912
590.85	7.405
591.04	9.572
591.23	8.317
591.42	9.644
591.61	8.163
591.81	9.039
592.00	8.010
592.19	9.320
592.38	7.487
592.57	8.733
592.77	8.211
592.96	7.234
593.15	9.571
593.34	9.432
593.53	7.896
593.72	9.316
593.92	7.151
594.11	9.598
594.30	7.463
594.49	9.792
594.68	9.092
594.87	10.023
595.07	8.049
595.26	10.116
595.45	8.385
595.64	9.303
595.83	8.105
596.02	9.582
596.22	8.439
596.41	9.364
596.60	9.193
596.79	10.647
596.98	9.009
597.17	11.267
597.37	9.836
597.56	11.948
597.75	8.800
597.94	11.089
598.13	11.068
598.32	10.981
598.51	9.318
598.71	10.914
598.90	9.711
599.09	10.291
599.28	9.516
599.47	10.040
599.66	9.598
599.85	10.220
600.05	8.841
600.24	10.946
600.43	10.118
600.62	9.510
600.81	10.097
601.00	9.841
601.19	8.807
601.38	10.554
601.58	9.947
601.77	9.576
601.96	8.503
602.15	11.028
602.34	9.354
602.53	11.483
602.72	9.734
602.91	10.477
603.10	10.292
603.30	11.284
603.49	9.218
603.68	11.620
603.87	9.544
604.06	11.824
604.25	11.722
604.44	11.351
604.63	10.621
604.82	12.057
605.01	10.632
605.21	11.626
605.40	10.836
605.59	12.438
605.78	11.497
605.97	12.435
606.16	10.921
606.35	11.335
606.54	10.680
606.73	12.131
606.92	9.234
607.11	12.471
607.30	10.524
607.50	12.704
607.69	10.211
607.88	10.661
608.07	9.480
608.26	9.993
608.45	9.701
608.64	11.645
608.83	9.601
609.02	11.070
609.21	10.843
609.40	11.247
609.59	9.195
609.78	10.958
609.97	10.101
610.16	11.598
610.35	10.469
610.55	10.665
610.74	10.336
610.93	11.049
611.12	9.378
611.31	10.031
611.50	8.501
611.69	9.936
611.88	9.330
612.07	11.281
612.26	8.493
612.45	9.457
612.64	8.829
612.83	10.273
613.02	8.016
613.21	7.606
613.40	9.104
613.59	9.955
613.78	8.044
613.97	8.577
614.16	7.476
614.35	9.235
614.54	7.208
614.73	8.971
614.92	8.286
615.11	7.172
615.30	6.848
615.49	6.963
615.68	7.594
615.87	8.036
616.07	6.621
616.26	7.640
616.45	7.754
616.64	6.846
616.83	6.495
617.02	8.503
617.21	6.620
617.40	7.191
617.59	6.667
617.78	7.253
617.97	7.293
618.16	6.653
618.35	5.455
618.54	6.901
618.73	7.241
618.92	6.801
619.11	6.894
619.30	7.352
619.49	5.820
619.68	7.835
619.86	6.051
620.05	7.051
620.24	6.325
620.43	6.375
620.62	5.874
620.81	6.948
621.00	6.958
621.19	8.262
621.38	7.456
621.57	8.417
621.76	6.752
621.95	7.716
622.14	6.615
622.33	7.767
622.52	6.575
622.71	6.385
622.90	5.725
623.09	7.223
623.28	7.257
623.47	8.055
623.66	8.238
623.85	6.837
624.04	5.304
624.23	5.746
624.42	6.364
624.61	6.492
624.80	5.019
624.99	6.011
625.18	5.734
625.36	5.887
625.55	6.131
625.74	6.013
625.93	5.979
626.12	6.786
626.31	7.629
626.50	6.755
626.69	6.494
626.88	8.524
627.07	7.051
627.26	7.119
627.45	7.210
627.64	7.936
627.83	6.107
628.02	7.639
628.20	5.697
628.39	6.503
628.58	6.360
628.77	8.259
628.96	6.394
629.15	5.703
629.34	6.007
629.53	6.644
629.72	4.329
629.91	8.930
630.10	6.713
630.29	6.656
630.47	4.973
630.66	5.759
630.85	5.775
631.04	5.712
631.23	5.295
631.42	7.417
631.61	5.943
631.80	7.130
631.99	4.677
632.18	5.171
632.36	4.442
632.55	6.597
632.74	6.189
632.93	5.765
633.12	4.949
633.31	5.323
633.50	5.535
633.69	5.215
633.88	4.549
634.06	6.181
634.25	4.714
634.44	5.008
634.63	6.755
634.82	7.222
635.01	4.668
635.20	6.393
635.39	4.596
635.57	5.598
635.76	5.627
635.95	5.934
636.14	5.188
636.33	6.455
636.52	5.869
636.71	5.011
636.89	6.013
637.08	5.351
637.27	4.654
637.46	5.179
637.65	4.994
637.84	7.189
638.03	5.405
638.21	7.628
638.40	5.989
638.59	5.622
638.78	4.813
638.97	6.105
639.16	6.182
639.34	4.743
639.53	5.196
639.72	6.757
639.91	4.401
640.10	4.731
640.29	6.742
640.47	6.639
640.66	6.353
640.85	6.684
641.04	4.544
641.23	5.806
641.42	6.217
641.60	5.721
641.79	5.319
641.98	7.040
642.17	4.938
642.36	5.793
642.54	4.768
642.73	5.417
642.92	3.920
643.11	5.512
643.30	4.527
643.49	5.660
643.67	4.886
643.86	5.668
644.05	4.641
644.24	6.256
644.43	5.779
644.61	7.348
644.80	6.064
644.99	5.740
645.18	7.305
645.37	5.999
645.55	5.269
645.74	5.429
645.93	5.291
646.12	6.700
646.31	5.927
646.49	5.003
646.68	6.863
646.87	6.031
647.06	6.115
647.24	5.898
647.43	4.845
647.62	6.193
647.81	4.197
648.00	7.216
648.18	4.319
648.37	6.620
648.56	5.758
648.75	5.974
648.93	4.853
649.12	5.794
649.31	4.769
649.50	3.248
649.68	5.611
649.87	5.079
650.06	5.156
650.25	6.061
650.43	5.085
650.62	3.903
650.81	5.625
651.00	4.154
651.18	5.230
651.37	7.044
651.56	3.965
651.75	6.720
651.93	5.449
652.12	6.168
652.31	4.840
652.50	4.957
652.68	6.970
652.87	6.309
653.06	5.685
653.25	7.219
653.43	5.141
653.62	6.030
653.81	5.665
654.00	6.568
654.18	5.393
654.37	5.965
654.56	6.437
654.74	5.400
654.93	4.424
655.12	5.323
655.31	5.047
655.49	5.293
655.68	5.365
655.87	3.814
656.05	3.585
656.24	5.677
656.43	3.682
656.62	5.057
656.80	5.817
656.99	6.016
657.18	5.847
657.36	4.713
657.55	5.339
657.74	4.636
657.93	5.707
658.11	5.668
658.30	4.971
658.49	5.004
658.67	4.991
658.86	4.664
659.05	4.563
659.23	6.028
659.42	3.365
659.61	5.125
659.79	3.766
659.98	4.116
660.17	4.232
660.35	5.130
660.54	5.700
660.73	7.038
660.91	5.059
661.10	4.509
661.29	3.662
661.47	5.850
661.66	5.092
661.85	4.304
662.03	4.962
662.22	3.181
662.41	3.554
662.59	4.899
662.78	3.362
662.97	4.205
663.15	3.442
663.34	5.635
663.53	4.706
663.71	5.440
663.90	5.935
664.09	5.464
664.27	5.997
664.46	5.406
664.65	3.672
664.83	2.215
665.02	4.723
665.21	3.904
665.39	5.974
665.58	4.483
665.77	4.945
665.95	4.947
666.14	4.813
666.32	5.410
666.51	5.237
666.70	5.112
666.88	5.212
667.07	4.679
667.26	4.422
667.44	5.143
667.63	4.563
667.81	3.949
668.00	3.717
668.19	5.216
668.37	3.806
668.56	5.383
668.75	4.163
668.93	5.473
669.12	4.186
669.30	5.863
669.49	3.423
669.68	4.985
669.86	4.773
670.05	3.638
670.23	4.236
670.42	4.237
670.61	4.246
670.79	5.088
670.98	5.676
671.16	6.578
671.35	4.537
671.54	6.022
671.72	4.628
671.91	3.417
672.09	4.624
672.28	5.415
672.46	6.550
672.65	5.258
672.84	6.248
673.02	4.655
673.21	3.922
673.39	4.858
673.58	5.945
673.77	4.668
673.95	5.451
674.14	6.193
674.32	4.641
674.51	6.539
674.69	3.573
674.88	5.987
675.07	3.918
675.25	7.647
675.44	5.592
675.62	4.818
675.81	4.251
675.99	9.958
676.18	7.067
676.36	3.224
676.55	5.007
676.74	6.488
676.92	6.570
677.11	4.960
677.29	6.370
677.48	7.423
677.66	4.907
677.85	5.689
678.03	4.630
678.22	7.116
678.40	6.639
678.59	5.367
678.78	5.036
678.96	4.036
679.15	5.726
679.33	6.556
679.52	8.071
679.70	6.563
679.89	6.073
680.07	5.984
680.26	5.559
680.44	5.122
680.63	6.475
680.81	4.857
681.00	4.873
681.18	6.371
681.37	5.116
681.55	5.953
681.74	5.440
681.92	5.659
682.11	6.849
682.29	5.153
682.48	7.408
682.66	6.809
682.85	5.649
683.03	5.856
683.22	7.094
683.40	6.624
683.59	5.700
683.77	8.265
683.96	4.464
684.14	7.982
684.33	5.910
684.51	9.752
684.70	6.248
684.88	8.403
685.07	7.517
685.25	7.372
685.44	5.265
685.62	5.371
685.81	6.011
685.99	7.234
686.18	5.739
686.36	6.944
686.55	5.076
686.73	5.177
686.92	7.852
687.10	6.605
687.29	8.818
687.47	6.909
687.65	8.819
687.84	7.825
688.02	9.689
688.21	8.700
688.39	7.107
688.58	9.649
688.76	7.473
688.95	8.823
689.13	6.933
689.32	10.642
689.50	8.067
689.68	8.810
689.87	9.473
690.05	7.442
690.24	8.966
690.42	7.791
690.61	8.989
690.79	11.433
690.98	9.055
691.16	6.920
691.34	5.880
691.53	9.105
691.71	7.924
691.90	7.356
692.08	9.355
692.27	11.550
692.45	9.553
692.63	9.279
692.82	11.798
693.00	10.098
693.19	11.737
693.37	11.614
693.56	10.068
693.74	12.682
693.92	11.482
694.11	12.374
694.29	13.535
694.48	15.572
694.66	10.788
694.84	16.674
695.03	9.851
695.21	16.502
695.40	17.835
695.58	19.536
695.76	12.680
695.95	18.182
696.13	16.410
696.32	20.411
696.50	24.249
696.68	18.259
696.87	18.611
697.05	20.710
697.24	18.643
697.42	25.240
697.60	22.387
697.79	23.611
697.97	26.587
698.16	26.337
698.34	22.539
698.52	29.794
698.71	25.919
698.89	31.295
699.07	26.886
699.26	29.074
699.44	30.730
699.63	32.333
699.81	29.244
699.99	34.013
700.18	34.040
700.36	33.783
700.54	32.486
700.73	33.106
700.91	33.452
701.09	34.698
701.28	34.670
701.46	36.182
701.64	32.519
701.83	38.040
702.01	33.235
702.20	39.799
702.38	37.394
702.56	37.377
702.75	37.757
702.93	35.642
703.11	36.715
703.30	40.133
703.48	38.445
703.66	43.127
703.85	35.741
704.03	43.738
704.21	40.996
704.40	44.552
704.58	37.293
704.76	43.303
704.95	39.510
705.13	46.090
705.31	43.540
705.50	47.579
705.68	46.701
705.86	47.766
706.04	42.214
706.23	47.189
706.41	46.872
706.59	45.309
706.78	43.852
706.96	49.247
707.14	48.084
707.33	49.235
707.51	46.963
707.69	51.487
707.88	46.885
708.06	52.844
708.24	49.026
708.42	51.474
708.61	46.752
708.79	55.901
708.97	55.561
709.16	53.696
709.34	52.867
709.52	51.301
709.71	51.943
709.89	55.458
710.07	49.952
710.25	56.000
710.44	52.775
710.62	55.880
710.80	55.204
710.98	55.876
711.17	51.206
711.35	54.191
711.53	48.962
711.72	55.298
711.90	57.385
712.08	57.130
712.26	55.938
712.45	57.247
712.63	57.030
712.81	55.599
712.99	55.183
713.18	60.898
713.36	56.324
713.54	54.500
713.72	56.554
713.91	57.736
714.09	57.498
714.27	55.516
714.45	57.189
714.64	60.377
714.82	57.790
715.00	60.100
715.18	58.428
715.37	60.549
715.55	60.018
715.73	59.955
715.91	58.186
716.10	58.028
716.28	56.059
716.46	62.897
716.64	57.168
716.83	63.707
717.01	58.041
717.19	58.726
717.37	61.588
717.55	61.605
717.74	61.231
717.92	60.244
718.10	55.603
718.28	62.076
718.47	57.633
718.65	63.664
718.83	57.725
719.01	66.577
719.19	60.209
719.38	59.842
719.56	57.434
719.74	62.137
719.92	58.343
720.10	64.098
720.29	58.343
720.47	63.109
720.65	62.358
720.83	64.663
721.01	55.681
721.20	57.553
721.38	61.617
721.56	60.554
721.74	58.197
721.92	63.253
722.11	59.695
722.29	65.475
722.47	59.222
722.65	64.935
722.83	62.139
723.01	66.524
723.20	60.012
723.38	60.859
723.56	59.781
723.74	66.412
723.92	58.487
724.10	65.089
724.29	58.578
724.47	65.829
724.65	64.370
724.83	65.348
725.01	62.307
725.19	66.971
725.38	57.337
725.56	68.977
725.74	60.241
725.92	68.300
726.10	57.297
726.28	64.002
726.46	61.286
726.65	66.022
726.83	57.585
727.01	66.391
727.19	60.249
727.37	70.094
727.55	65.114
727.73	66.869
727.92	63.582
728.10	66.189
728.28	56.002
728.46	71.186
728.64	63.889
728.82	69.060
729.00	63.330
729.19	68.091
729.37	63.721
729.55	66.149
729.73	64.152
729.91	69.185
730.09	63.673
730.27	68.736
730.45	62.752
730.63	64.463
730.82	62.529
731.00	64.791
731.18	63.662
731.36	67.157
731.54	59.458
731.72	64.290
731.90	64.163
732.08	67.751
732.26	61.751
732.45	70.091
732.63	66.627
732.81	66.648
732.99	63.942
733.17	70.051
733.35	63.555
733.53	68.154
733.71	64.754
733.89	65.957
734.07	68.575
734.25	71.429
734.44	65.493
734.62	65.020
734.80	67.288
734.98	66.116
735.16	70.441
735.34	67.569
735.52	66.089
735.70	68.883
735.88	67.168
736.06	67.641
736.24	70.894
736.42	66.645
736.60	68.975
736.78	69.168
736.97	67.564
737.15	71.117
737.33	66.976
737.51	65.862
737.69	68.301
737.87	70.250
738.05	74.300
738.23	65.927
738.41	65.495
738.59	72.130
738.77	67.700
738.95	70.170
739.13	67.626
739.31	71.339
739.49	72.852
739.67	72.376
739.85	70.681
740.03	71.992
740.21	70.903
740.39	71.566
740.57	71.051
740.75	71.349
740.93	68.583
741.11	72.676
741.30	70.000
741.48	74.111
741.66	69.105
741.84	73.837
742.02	66.878
742.20	71.374
742.38	63.622
742.56	74.981
742.74	65.046
742.92	64.912
743.10	69.717
743.28	64.683
743.46	67.600
743.64	69.526
743.82	64.820
744.00	69.583
744.18	62.114
744.36	71.631
744.54	61.945
744.72	72.251
744.90	67.969
745.08	78.332
745.26	61.495
745.44	71.159
745.62	65.697
745.80	62.966
745.98	70.327
746.16	73.380
746.34	67.771
746.52	66.972
746.70	60.407
746.87	68.520
747.05	67.491
747.23	67.575
747.41	69.005
747.59	69.862
747.77	66.816
747.95	68.513
748.13	66.815
748.31	71.686
748.49	63.328
748.67	69.041
748.85	64.363
749.03	75.112
749.21	70.193
749.39	69.897
749.57	61.329
749.75	71.899
749.93	69.434
750.11	67.918
750.29	68.262
750.47	74.119
750.65	67.465
750.83	70.852
751.01	63.742
751.18	72.806
751.36	64.304
751.54	65.731
751.72	65.304
751.90	70.158
752.08	63.014
752.26	65.139
752.44	63.997
752.62	65.323
752.80	64.737
752.98	72.635
753.16	66.878
753.34	73.968
753.52	66.968
753.69	73.120
753.87	70.514
754.05	68.717
754.23	63.961
754.41	70.659
754.59	66.308
754.77	68.945
754.95	65.152
755.13	69.802
755.31	64.627
755.49	67.570
755.66	62.789
755.84	67.404
756.02	62.890
756.20	72.003
756.38	58.929
756.56	68.648
756.74	64.124
756.92	67.491
757.10	61.743
757.28	74.566
757.45	69.291
757.63	73.392
757.81	59.888
757.99	68.814
758.17	58.131
758.35	70.528
758.53	68.202
758.71	68.458
758.88	59.171
759.06	67.296
759.24	62.478
759.42	63.144
759.60	59.356
759.78	66.927
759.96	57.179
760.13	66.280
760.31	55.861
760.49	63.715
760.67	56.223
760.85	57.683
761.03	52.478
761.21	56.995
761.38	52.418
761.56	65.697
761.74	52.903
761.92	66.919
762.10	48.889
762.28	59.310
762.46	47.687
762.63	55.028
762.81	56.375
762.99	59.334
763.17	59.375
763.35	60.778
763.53	59.367
763.70	64.067
763.88	66.247
764.06	62.852
764.24	60.665
764.42	67.617
764.60	63.994
764.77	63.364
764.95	58.505
765.13	70.278
765.31	62.235
765.49	66.837
765.66	63.071
765.84	67.718
766.02	62.476
766.20	63.773
766.38	59.899
766.56	65.590
766.73	54.760
766.91	65.046
767.09	63.126
767.27	66.321
767.45	57.436
767.62	68.492
767.80	56.525
767.98	66.314
768.16	59.424
768.33	65.495
768.51	57.011
768.69	64.100
768.87	57.416
769.05	57.539
769.22	60.419
769.40	68.049
769.58	55.269
769.76	69.052
769.94	61.959
770.11	63.841
770.29	65.306
770.47	65.350
770.65	64.044
770.82	63.519
771.00	52.856
771.18	68.182
771.36	63.285
771.53	65.795
771.71	60.952
771.89	63.895
772.07	63.208
772.25	65.560
772.42	62.137
772.60	72.847
772.78	58.105
772.96	64.452
773.13	58.899
773.31	70.379
773.49	53.876
773.67	66.167
773.84	50.385
774.02	64.851
774.20	52.232
774.37	65.471
774.55	63.488
774.73	66.534
774.91	62.127
775.08	60.154
775.26	62.213
775.44	64.371
775.62	59.973
775.79	57.161
775.97	57.778
776.15	55.541
776.32	57.061
776.50	61.538
776.68	62.319
776.86	66.143
777.03	57.572
777.21	67.114
777.39	47.961
777.56	63.360
777.74	56.104
777.92	68.855
778.10	57.204
778.27	66.889
778.45	61.026
778.63	58.774
778.80	55.374
778.98	64.872
779.16	62.788
779.34	61.601
779.51	59.433
779.69	61.389
779.87	54.282
780.04	58.401
780.22	58.655
780.40	66.234
780.57	58.762
780.75	61.272
780.93	66.667
781.10	63.274
781.28	74.090
781.46	57.163
781.63	63.608
781.81	63.598
781.99	55.035
782.16	56.268
782.34	50.470
782.52	66.771
782.69	55.629
782.87	64.849
783.05	54.829
783.22	65.029
783.40	50.602
783.58	63.482
783.75	52.402
783.93	57.542
784.11	58.560
784.28	62.085
784.46	50.528
784.64	66.179
784.81	50.921
784.99	76.874
785.17	67.458
785.34	58.447
785.52	52.358
785.69	58.118
785.87	52.827
786.05	59.311
786.22	67.412
786.40	70.033
786.58	51.101
786.75	63.107
786.93	50.242
787.11	52.405
787.28	57.019
787.46	67.231
787.63	56.349
787.81	65.109
787.99	54.829
788.16	53.802
788.34	54.245
788.51	55.685
788.69	45.161
788.87	57.601
789.04	50.614
789.22	52.218
789.39	56.232
789.57	56.140
789.75	54.533
789.92	60.523
790.10	44.715
790.27	64.266
790.45	50.933
790.63	48.396
790.80	50.353
790.98	62.255
791.15	56.098
791.33	57.895
791.51	50.643
791.68	60.172
791.86	53.067
792.03	53.561
792.21	48.768
792.39	59.683
792.56	55.848
792.74	53.071
792.91	61.695
793.09	54.086
793.26	43.077
793.44	68.482
793.62	51.027
793.79	50.604
793.97	48.532
794.14	56.216
794.32	66.608
794.49	66.156
794.67	47.078
794.84	58.917
795.02	45.487
795.20	65.027
795.37	51.356
795.55	52.013
795.72	49.604
795.90	54.469
796.07	54.485
796.25	58.642
796.42	50.649
796.60	55.241
796.77	53.566
796.95	53.729
797.13	44.901
797.30	66.104
797.48	45.894
797.65	54.559
797.83	43.393
798.00	61.440
798.18	49.282
798.35	52.167
798.53	57.958
798.70	60.441
798.88	49.531
799.05	54.532
799.23	39.908
799.40	60.690
799.58	54.811
799.75	50.729
799.93	46.919
800.10	57.965
800.28	46.181
800.45	55.450
800.63	48.224
800.80	54.562
800.98	47.638
801.15	57.686
801.33	53.940
801.50	58.049
801.68	45.338
801.85	55.477
802.03	50.891
802.20	59.619
802.38	50.341
802.55	49.735
802.73	52.622
802.90	55.719
803.08	52.444
803.25	56.654
803.43	50.933
803.60	62.109
803.78	55.437
803.95	50.903
804.13	54.599
804.30	57.060
804.48	46.318
804.65	45.205
804.83	52.098
805.00	49.110
805.17	55.985
805.35	65.490
805.52	52.121
805.70	56.771
805.87	60.692
806.05	58.522
806.22	52.138
806.40	43.684
806.57	46.225
806.75	61.498
806.92	48.687
807.09	59.223
807.27	45.543
807.44	61.364
807.62	53.974
807.79	46.566
807.97	47.655
808.14	51.455
808.31	48.807
808.49	49.296
808.66	49.815
808.84	52.033
809.01	56.929
809.19	56.055
809.36	53.526
809.53	61.252
809.71	55.467
809.88	60.294
810.06	62.903
810.23	63.696
810.41	53.279
810.58	68.985
810.75	50.838
810.93	46.875
811.10	51.575
811.28	56.175
811.45	46.469
811.62	46.476
811.80	55.947
811.97	54.773
812.15	54.125
812.32	63.556
812.49	54.722
812.67	46.983
812.84	45.618
813.02	58.848
813.19	43.400
813.36	59.219
813.54	40.523
813.71	58.963
813.89	52.300
814.06	61.598
814.23	54.507
814.41	42.821
814.58	56.596
814.75	56.693
814.93	40.135
815.10	55.606
815.28	45.763
815.45	52.404
815.62	56.522
815.80	43.080
815.97	47.904
816.14	46.701
816.32	46.983
816.49	47.934
816.66	47.761
816.84	52.965
817.01	54.762
817.18	46.105
817.36	46.617
817.53	58.691
817.71	34.824
817.88	53.543
818.05	30.969
818.23	45.079
818.40	44.540
818.57	50.112
818.75	35.211
818.92	42.478
819.09	49.234
819.27	48.133
819.44	40.919
819.61	44.332
819.79	45.657
819.96	51.916
820.13	32.373
820.31	50.239
820.48	52.783
820.65	52.581
820.82	47.409
821.00	56.285
821.17	38.889
821.34	58.165
821.52	50.117
821.69	50.412
821.86	49.341
822.04	62.698
822.21	63.795
822.38	66.629
822.56	62.877
822.73	67.469
822.90	69.025
823.07	67.730
823.25	66.549
823.42	68.801
823.59	66.534
823.77	65.519
823.94	66.145
824.11	65.981
824.29	64.921
824.46	66.437
824.63	67.274
824.80	67.863
824.98	66.714
825.15	63.937
825.32	60.734
825.49	67.025
825.67	60.226
825.84	63.368
826.01	58.493
826.19	59.868
826.36	51.077
826.53	61.975
826.70	51.564
826.88	62.565
827.05	53.006
827.22	56.532
827.39	63.264
827.57	58.762
827.74	57.999
827.91	64.189
828.08	55.548
828.26	61.560
828.43	56.522
828.60	62.275
828.77	57.033
828.95	64.447
829.12	44.914
829.29	50.635
829.46	51.721
829.64	53.578
829.81	39.267
829.98	51.150
830.15	46.857
830.32	44.040
830.50	40.640
830.67	43.031
830.84	36.207
831.01	37.979
831.19	34.444
831.36	42.683
831.53	49.905
831.70	47.519
831.87	47.410
832.05	55.720
832.22	59.149
832.39	42.888
832.56	40.130
832.74	42.620
832.91	38.536
833.08	55.957
833.25	41.068
833.42	43.163
833.60	39.813
833.77	36.691
833.94	40.798
834.11	46.482
834.28	42.369
834.45	54.075
834.63	40.499
834.80	49.368
834.97	51.293
835.14	50.916
835.31	48.348
835.49	53.181
835.66	42.813
835.83	49.231
836.00	51.643
836.17	41.184
836.34	44.183
836.52	45.897
836.69	42.922
836.86	46.154
837.03	48.043
837.20	42.614
837.37	39.130
837.55	36.484
837.72	43.762
837.89	46.205
838.06	46.618
838.23	53.474
838.40	40.000
838.58	40.783
838.75	53.374
838.92	49.565
839.09	60.127
839.26	57.183
839.43	59.028
839.60	52.733
839.78	53.106
839.95	57.738
840.12	50.292
840.29	44.321
840.46	58.567
840.63	47.922
840.80	51.451
840.98	67.218
841.15	47.462
841.32	61.173
841.49	56.198
841.66	47.838
841.83	36.407
842.00	55.807
842.17	58.380
842.34	51.811
842.52	53.636
842.69	41.456
842.86	40.659
843.03	58.842
843.20	56.484
843.37	46.825
843.54	52.560
843.71	68.333
843.88	62.409
844.06	87.712
844.23	80.085
844.40	61.441
844.57	56.198
844.74	56.034
844.91	91.045
845.08	102.825
845.25	81.915
845.42	79.888
845.59	52.869
845.76	66.129
845.94	77.222
846.11	62.376
846.28	69.323
846.45	67.742
846.62	54.500
846.79	71.730
846.96	77.473
847.13	91.304
847.30	85.876
847.47	55.155
847.64	58.776
847.81	75.735
847.98	67.568
848.15	72.067
848.32	94.301
848.50	62.500
848.67	69.822
848.84	61.538
849.01	97.842
849.18	100.588
849.35	82.381
849.52	65.079
849.69	89.560
849.86	80.405
850.03	119.008
850.20	112.667
850.37	86.471
850.54	91.489
850.71	71.875
850.88	92.258
851.05	80.435
851.22	113.253
851.39	79.144
851.56	134.483
851.73	109.524
851.90	79.739
852.07	83.626
852.24	86.928
852.41	77.665
852.58	98.907
852.75	81.395
852.92	66.851
853.09	110.458
853.26	90.850
853.43	68.824
853.60	137.415
853.77	65.922
853.94	61.062
854.11	83.333
854.28	96.528
854.45	88.312
854.62	97.093
854.79	89.091
854.96	101.389
855.13	79.245
855.30	116.058
855.47	102.419
855.64	81.366
855.81	127.338
855.98	88.550
856.15	109.231
856.32	85.782
856.49	83.616
856.66	86.538
856.83	67.925
857.00	72.951
857.17	77.419
857.34	77.174
857.51	71.831
857.68	80.612
857.85	107.059
858.02	105.442
858.19	67.403
858.36	88.506
858.53	79.882
858.70	89.560
858.87	116.552
859.04	88.824
859.21	112.121
859.38	91.244
859.55	80.114
859.72	95.139
859.89	95.105
860.05	105.755
860.22	86.061
860.39	124.138
860.56	98.810
860.73	111.310
860.90	101.796
861.07	95.000
861.24	94.118
861.41	69.942
861.58	77.273
861.75	117.323
861.92	89.375
862.09	94.975
862.26	108.387
862.43	122.000
862.59	73.026
862.76	84.974
862.93	105.385
863.10	121.324
863.27	101.538
863.44	100.813
863.61	87.681
863.78	78.610
863.95	65.244
864.12	156.410
864.29	98.305
864.45	69.811
864.62	69.919
864.79	80.000
864.96	106.731
865.13	83.942
865.30	117.347
865.47	102.759
865.64	124.476
865.81	85.965
865.97	71.698
866.14	78.610
866.31	113.115
866.48	100.000
866.65	91.411
866.82	122.148
866.99	112.143
867.16	83.721
867.33	131.915
867.49	74.699
867.66	133.582
867.83	71.429
868.00	95.161
868.17	109.160
868.34	119.685
868.51	71.127
868.67	97.024
868.84	102.963
869.01	84.138
869.18	83.200
869.35	90.071
869.52	94.161
869.69	114.179
869.85	90.541
870.02	91.304
870.19	91.538
870.36	78.417
870.53	114.286
870.70	85.714
870.86	88.961
871.03	88.321
871.20	101.681
871.37	90.533
871.54	118.868
871.71	109.848
871.87	152.577
872.04	57.500
872.21	98.485
872.38	145.783
872.55	110.714
872.72	77.536
872.88	115.000
873.05	65.775
873.22	124.167
873.39	104.878
873.56	69.065
873.72	94.475
873.89	76.433
874.06	84.426
874.23	105.072
874.40	76.000
874.56	109.091
874.73	112.500
874.90	80.822
875.07	108.397
875.24	88.415
875.40	93.750
875.57	100.000
875.74	90.000
875.91	108.730
876.08	84.286
876.24	101.282
876.41	141.353
876.58	81.752
876.75	66.452
876.92	56.410
877.08	105.839
877.25	83.117
877.42	105.385
877.59	80.120
877.75	76.415
877.92	73.256
878.09	91.447
878.26	113.699
878.42	100.000
878.59	96.591
878.76	86.243
878.93	98.013
879.09	62.585
879.26	64.103
879.43	87.500
879.60	68.485
879.76	68.718
879.93	59.898
880.10	64.186
880.27	45.778
880.43	77.041
880.60	58.685
880.77	70.588
880.94	46.786
881.10	52.069
881.27	46.409
881.44	30.586
881.61	43.260
881.77	46.310
881.94	35.174
882.11	34.763
882.28	34.103
882.44	36.283
882.61	42.874
882.78	41.195
882.94	57.219
883.11	50.825
883.28	51.667
883.45	47.219
883.61	49.191
883.78	45.732
883.95	45.255
884.11	42.979
884.28	48.372
>>>>>End Processed Spectral Data<<<<<
