SpectraSuite Data File
++++++++++++++++++++++++++++++++++++
Date: Thu Sep 19 03:10:37 EST 2019
User: sgrac
Dark Spectrum Present: Yes
Reference Spectrum Present: Yes
Number of Sampled Component Spectra: 1
Spectrometers: USB4E01596
Integration Time (usec): 100000 (USB4E01596)
Spectra Averaged: 1 (USB4E01596)
Boxcar Smoothing: 0 (USB4E01596)
Correct for Electrical Dark: No (USB4E01596)
Strobe/Lamp Enabled: Yes (USB4E01596)
Correct for Detector Non-linearity: No (USB4E01596)
Correct for Stray Light: No (USB4E01596)
Number of Pixels in Processed Spectrum: 3648
>>>>>Begin Processed Spectral Data<<<<<
178.44	664.286
178.66	664.286
178.87	664.286
179.09	-900.000
179.30	185.714
179.52	1057.143
179.74	-533.333
179.95	604.762
180.17	1390.909
180.38	238.806
180.60	0.000
180.82	516.129
181.03	283.333
181.25	2275.000
181.46	946.154
181.68	-272.093
181.89	1207.143
182.11	625.000
182.33	525.926
182.54	1216.667
182.76	638.889
182.97	-564.286
183.19	290.476
183.40	258.182
183.62	428.571
183.84	1762.500
184.05	906.667
184.27	-4800.000
184.48	177.778
184.70	6300.000
184.91	484.615
185.13	236.620
185.34	-136.538
185.56	518.519
185.78	453.846
185.99	-3300.000
186.21	-1263.636
186.42	-215.000
186.64	753.333
186.85	-4850.000
187.07	527.273
187.28	1042.857
187.50	595.455
187.72	433.333
187.93	788.889
188.15	726.316
188.36	847.059
188.58	338.462
188.79	1883.333
189.01	554.167
189.22	2320.000
189.44	700.000
189.65	-5266.667
189.87	3775.000
190.09	970.588
190.30	2157.143
190.52	1016.667
190.73	-388.462
190.95	247.727
191.16	483.333
191.38	402.778
191.59	-1145.455
191.81	704.545
192.02	660.000
192.24	569.231
192.45	1550.000
192.67	2133.333
192.88	-448.148
193.10	-11500.000
193.31	377.143
193.53	-585.714
193.74	-2850.000
193.96	1855.556
194.18	881.250
194.39	346.341
194.61	873.684
194.82	936.364
195.04	536.000
195.25	3166.667
195.47	305.263
195.68	629.412
195.90	383.721
196.11	607.692
196.33	-1422.222
196.54	-842.105
196.76	500.000
196.97	1777.778
197.19	-16300.000
197.40	1075.000
197.62	2583.333
197.83	1176.923
198.05	696.429
198.26	235.000
198.48	332.353
198.69	-1388.889
198.91	666.667
199.12	331.429
199.34	-1414.286
199.55	250.877
199.77	378.261
199.98	-1136.364
200.20	690.000
200.41	9700.000
200.63	385.714
200.84	733.333
201.06	-853.846
201.27	-2020.000
201.49	1150.000
201.70	718.750
201.91	-6900.000
202.13	684.211
202.34	363.043
202.56	6100.000
202.77	743.750
202.99	408.000
203.20	463.636
203.42	-1685.714
203.63	2716.667
203.85	369.444
204.06	495.652
204.28	1362.500
204.49	-1080.000
204.71	495.122
204.92	404.444
205.14	253.333
205.35	231.429
205.56	1966.667
205.78	590.909
205.99	-970.000
206.21	830.435
206.42	196.610
206.64	-2200.000
206.85	504.762
207.07	647.368
207.28	-2320.000
207.50	283.333
207.71	937.500
207.93	297.917
208.14	662.963
208.35	735.294
208.57	-332.000
208.78	-236.585
209.00	290.698
209.21	321.429
209.43	512.000
209.64	6500.000
209.86	476.190
210.07	465.517
210.28	-992.308
210.50	588.235
210.71	640.000
210.93	553.125
211.14	242.857
211.36	343.478
211.57	685.000
211.78	328.205
212.00	720.000
212.21	811.765
212.43	660.000
212.64	430.000
212.86	221.795
213.07	482.759
213.29	583.333
213.50	422.581
213.71	430.000
213.93	2042.857
214.14	741.176
214.36	1812.500
214.57	235.211
214.78	780.000
215.00	836.842
215.21	677.778
215.43	255.696
215.64	496.296
215.86	1053.333
216.07	668.421
216.28	228.889
216.50	6550.000
216.71	-10300.000
216.93	596.296
217.14	216.667
217.35	280.000
217.57	2700.000
217.78	345.714
218.00	5200.000
218.21	520.833
218.42	226.562
218.64	-7550.000
218.85	321.569
219.07	1557.143
219.28	181.967
219.49	-1250.000
219.71	1262.500
219.92	248.649
220.14	1500.000
220.35	327.273
220.56	792.308
220.78	287.719
220.99	471.429
221.21	139.175
221.42	530.435
221.63	5200.000
221.85	458.333
222.06	620.000
222.28	160.000
222.49	-1344.444
222.70	246.296
222.92	-5950.000
223.13	415.789
223.34	161.957
223.56	891.667
223.77	129.412
223.99	348.889
224.20	280.000
224.41	201.333
224.63	6300.000
224.84	4000.000
225.05	1023.077
225.27	361.538
225.48	288.333
225.69	149.412
225.91	262.500
226.12	178.261
226.34	365.625
226.55	179.412
226.76	282.353
226.98	160.227
227.19	129.487
227.40	290.000
227.62	180.822
227.83	112.500
228.04	141.558
228.26	93.750
228.47	120.000
228.69	97.059
228.90	79.762
229.11	62.009
229.33	61.244
229.54	58.921
229.75	40.283
229.97	49.390
230.18	45.515
230.39	37.121
230.61	36.177
230.82	33.555
231.03	46.497
231.25	62.081
231.46	46.131
231.67	49.434
231.89	52.381
232.10	61.132
232.31	63.393
232.53	54.587
232.74	49.083
232.95	65.686
233.17	67.692
233.38	37.895
233.59	87.079
233.81	66.049
234.02	79.429
234.23	65.464
234.45	74.091
234.66	62.069
234.87	48.256
235.09	60.638
235.30	67.961
235.51	52.018
235.73	57.071
235.94	60.714
236.15	52.239
236.36	72.000
236.58	72.727
236.79	71.121
237.00	51.004
237.22	82.540
237.43	64.981
237.64	65.217
237.86	59.434
238.07	75.210
238.28	46.850
238.50	52.153
238.71	68.394
238.92	57.075
239.13	66.129
239.35	65.975
239.56	76.667
239.77	81.967
239.99	51.210
240.20	62.257
240.41	59.055
240.63	41.194
240.84	35.841
241.05	40.878
241.26	37.815
241.48	48.318
241.69	32.520
241.90	32.414
242.12	26.789
242.33	28.409
242.54	20.000
242.75	18.855
242.97	23.654
243.18	12.592
243.39	12.533
243.61	16.294
243.82	22.316
244.03	20.219
244.24	19.249
244.46	21.390
244.67	17.015
244.88	18.923
245.09	20.297
245.31	29.344
245.52	23.427
245.73	33.795
245.95	40.476
246.16	28.929
246.37	27.104
246.58	27.077
246.80	26.187
247.01	19.217
247.22	14.781
247.43	13.378
247.65	15.433
247.86	16.718
248.07	9.746
248.28	9.645
248.50	11.303
248.71	7.022
248.92	11.211
249.13	7.881
249.35	8.333
249.56	7.267
249.77	9.270
249.98	12.003
250.20	12.019
250.41	19.623
250.62	18.842
250.83	18.742
251.05	22.254
251.26	24.216
251.47	26.357
251.68	19.692
251.90	26.929
252.11	16.473
252.32	15.571
252.53	23.754
252.75	18.287
252.96	26.374
253.17	16.579
253.38	23.143
253.59	18.148
253.81	16.431
254.02	18.587
254.23	17.949
254.44	18.286
254.66	13.725
254.87	28.305
255.08	26.643
255.29	29.962
255.50	23.829
255.72	21.765
255.93	21.300
256.14	35.345
256.35	21.346
256.57	31.695
256.78	26.535
256.99	25.933
257.20	28.392
257.41	22.268
257.63	22.368
257.84	25.427
258.05	22.605
258.26	26.367
258.47	30.378
258.69	17.503
258.90	15.485
259.11	11.757
259.32	15.184
259.53	17.725
259.75	11.404
259.96	9.084
260.17	9.685
260.38	10.762
260.59	10.794
260.81	7.892
261.02	6.979
261.23	9.661
261.44	9.013
261.65	7.653
261.87	9.086
262.08	7.143
262.29	12.167
262.50	9.922
262.71	8.190
262.92	12.869
263.14	14.196
263.35	7.960
263.56	12.211
263.77	13.675
263.98	16.464
264.20	20.992
264.41	12.217
264.62	19.379
264.83	13.517
265.04	22.149
265.25	17.375
265.47	21.534
265.68	19.386
265.89	23.758
266.10	16.163
266.31	22.238
266.52	16.983
266.74	22.947
266.95	14.104
267.16	14.286
267.37	15.761
267.58	12.867
267.79	18.332
268.01	13.977
268.22	13.494
268.43	12.894
268.64	17.066
268.85	10.615
269.06	14.621
269.27	15.143
269.49	18.360
269.70	13.883
269.91	12.182
270.12	12.719
270.33	13.578
270.54	15.601
270.75	13.371
270.97	12.041
271.18	11.111
271.39	13.340
271.60	14.919
271.81	10.988
272.02	9.026
272.23	12.076
272.45	10.977
272.66	5.164
272.87	9.900
273.08	9.871
273.29	9.507
273.50	5.458
273.71	10.956
273.92	7.490
274.14	9.675
274.35	7.808
274.56	12.291
274.77	9.242
274.98	9.776
275.19	9.232
275.40	13.068
275.61	9.628
275.83	11.018
276.04	12.031
276.25	13.530
276.46	12.342
276.67	12.284
276.88	12.830
277.09	13.536
277.30	13.802
277.51	12.240
277.73	10.818
277.94	11.141
278.15	12.718
278.36	12.881
278.57	13.879
278.78	18.414
278.99	10.026
279.20	13.095
279.41	9.806
279.62	11.256
279.84	10.332
280.05	14.525
280.26	11.121
280.47	12.140
280.68	10.651
280.89	14.417
281.10	11.808
281.31	12.531
281.52	10.315
281.73	9.013
281.94	8.146
282.16	10.601
282.37	8.735
282.58	11.812
282.79	11.072
283.00	8.778
283.21	6.690
283.42	7.519
283.63	9.893
283.84	6.569
284.05	12.060
284.26	10.977
284.47	10.245
284.68	8.389
284.89	6.509
285.11	9.073
285.32	7.101
285.53	10.885
285.74	10.448
285.95	9.917
286.16	7.171
286.37	9.199
286.58	7.774
286.79	8.751
287.00	8.779
287.21	5.654
287.42	8.987
287.63	7.874
287.84	10.470
288.05	8.107
288.26	11.087
288.48	9.538
288.69	7.332
288.90	8.653
289.11	10.875
289.32	8.525
289.53	7.335
289.74	8.449
289.95	8.835
290.16	9.843
290.37	7.494
290.58	9.435
290.79	7.741
291.00	8.281
291.21	7.770
291.42	8.970
291.63	8.585
291.84	7.856
292.05	8.306
292.26	7.719
292.47	9.829
292.68	9.018
292.89	8.580
293.10	8.545
293.31	8.888
293.52	8.265
293.73	7.888
293.94	10.189
294.15	10.338
294.36	5.407
294.57	11.133
294.79	9.508
295.00	7.910
295.21	10.383
295.42	11.481
295.63	11.118
295.84	8.521
296.05	9.630
296.26	8.132
296.47	7.802
296.68	7.684
296.89	7.903
297.10	6.716
297.31	8.675
297.52	8.559
297.73	5.986
297.94	6.926
298.15	5.979
298.36	6.975
298.57	6.103
298.78	8.002
298.99	4.796
299.20	7.721
299.41	7.386
299.62	6.542
299.83	7.942
300.04	6.996
300.25	10.074
300.46	7.981
300.67	9.417
300.88	9.791
301.09	7.487
301.30	9.222
301.50	9.096
301.71	11.395
301.92	8.045
302.13	8.516
302.34	10.439
302.55	9.805
302.76	9.159
302.97	7.828
303.18	10.403
303.39	7.898
303.60	8.696
303.81	8.662
304.02	10.237
304.23	8.943
304.44	13.134
304.65	9.042
304.86	9.819
305.07	8.806
305.28	8.663
305.49	7.829
305.70	11.722
305.91	9.457
306.12	8.714
306.33	8.318
306.54	10.067
306.75	9.163
306.96	15.590
307.17	9.458
307.38	10.550
307.58	7.935
307.79	11.132
308.00	10.672
308.21	8.483
308.42	8.515
308.63	10.997
308.84	5.216
309.05	9.570
309.26	7.384
309.47	11.104
309.68	7.037
309.89	8.525
310.10	8.549
310.31	8.798
310.52	8.064
310.73	9.768
310.94	5.281
311.14	8.052
311.35	9.621
311.56	7.126
311.77	6.297
311.98	7.936
312.19	6.584
312.40	8.705
312.61	6.368
312.82	8.145
313.03	6.241
313.24	8.858
313.45	9.315
313.66	9.281
313.86	9.279
314.07	8.651
314.28	13.102
314.49	8.356
314.70	9.884
314.91	11.789
315.12	9.287
315.33	11.118
315.54	8.812
315.75	8.775
315.96	10.661
316.16	8.480
316.37	8.861
316.58	8.171
316.79	9.781
317.00	10.887
317.21	9.206
317.42	12.056
317.63	10.784
317.84	11.045
318.05	8.967
318.25	10.650
318.46	8.162
318.67	9.091
318.88	9.304
319.09	8.847
319.30	7.623
319.51	7.805
319.72	10.012
319.93	9.902
320.13	11.786
320.34	9.097
320.55	10.972
320.76	9.600
320.97	8.286
321.18	9.304
321.39	10.649
321.60	9.636
321.80	11.827
322.01	12.227
322.22	10.899
322.43	10.577
322.64	7.311
322.85	9.443
323.06	12.131
323.27	9.203
323.47	11.340
323.68	12.801
323.89	10.056
324.10	11.259
324.31	5.173
324.52	7.123
324.73	9.945
324.93	9.622
325.14	8.220
325.35	10.390
325.56	9.509
325.77	10.076
325.98	8.291
326.19	9.378
326.39	7.592
326.60	8.878
326.81	9.676
327.02	8.447
327.23	7.712
327.44	10.558
327.64	9.272
327.85	7.785
328.06	9.000
328.27	13.011
328.48	10.365
328.69	8.570
328.90	7.931
329.10	9.934
329.31	11.075
329.52	7.159
329.73	9.377
329.94	10.464
330.15	11.062
330.35	9.466
330.56	11.895
330.77	10.702
330.98	11.949
331.19	8.605
331.39	9.586
331.60	8.238
331.81	9.268
332.02	11.666
332.23	8.734
332.44	8.629
332.64	9.235
332.85	10.155
333.06	10.199
333.27	7.956
333.48	11.654
333.68	8.615
333.89	7.231
334.10	9.560
334.31	10.920
334.52	8.320
334.72	8.587
334.93	7.863
335.14	9.114
335.35	8.028
335.56	11.408
335.76	9.029
335.97	10.390
336.18	6.473
336.39	12.585
336.60	10.611
336.80	9.817
337.01	9.573
337.22	7.341
337.43	11.756
337.64	10.054
337.84	8.599
338.05	8.964
338.26	10.771
338.47	8.561
338.68	8.652
338.88	8.228
339.09	9.489
339.30	8.178
339.51	9.104
339.71	9.799
339.92	7.722
340.13	7.955
340.34	8.469
340.55	6.422
340.75	7.882
340.96	7.611
341.17	8.058
341.38	7.143
341.58	8.010
341.79	7.143
342.00	9.213
342.21	7.722
342.41	6.604
342.62	9.107
342.83	6.622
343.04	6.737
343.24	9.461
343.45	8.483
343.66	7.098
343.87	7.832
344.07	9.024
344.28	7.993
344.49	9.159
344.70	8.472
344.90	7.012
345.11	6.542
345.32	7.610
345.53	6.494
345.73	9.259
345.94	7.549
346.15	8.139
346.36	6.387
346.56	7.643
346.77	10.041
346.98	7.667
347.19	6.954
347.39	7.031
347.60	5.763
347.81	9.462
348.02	8.043
348.22	6.670
348.43	7.862
348.64	9.280
348.84	7.496
349.05	6.924
349.26	8.660
349.47	6.150
349.67	7.175
349.88	6.209
350.09	7.168
350.30	9.586
350.50	6.008
350.71	9.151
350.92	7.443
351.12	6.093
351.33	9.630
351.54	9.189
351.74	6.772
351.95	7.730
352.16	7.470
352.37	9.954
352.57	6.658
352.78	8.027
352.99	7.045
353.19	10.491
353.40	7.245
353.61	9.035
353.82	6.314
354.02	6.502
354.23	7.993
354.44	6.434
354.64	4.859
354.85	8.891
355.06	5.043
355.26	6.642
355.47	7.072
355.68	8.635
355.88	7.760
356.09	8.010
356.30	5.680
356.51	6.972
356.71	5.764
356.92	6.398
357.13	7.589
357.33	8.446
357.54	7.687
357.75	5.184
357.95	5.444
358.16	5.151
358.37	7.769
358.57	5.657
358.78	7.647
358.99	6.644
359.19	5.238
359.40	7.284
359.61	6.189
359.81	7.650
360.02	8.376
360.23	6.536
360.43	5.198
360.64	4.116
360.85	5.180
361.05	5.106
361.26	7.784
361.47	6.635
361.67	6.500
361.88	4.854
362.09	4.212
362.29	4.825
362.50	4.663
362.70	5.170
362.91	5.339
363.12	5.436
363.32	4.460
363.53	4.732
363.74	4.729
363.94	4.104
364.15	5.465
364.36	5.295
364.56	5.363
364.77	5.907
364.98	6.829
365.18	6.813
365.39	6.838
365.59	4.501
365.80	4.467
366.01	6.724
366.21	4.456
366.42	5.912
366.63	6.291
366.83	6.081
367.04	4.473
367.24	7.734
367.45	4.485
367.66	5.561
367.86	4.772
368.07	5.789
368.28	5.919
368.48	3.913
368.69	4.745
368.89	5.261
369.10	4.987
369.31	7.464
369.51	5.712
369.72	6.647
369.92	7.517
370.13	4.348
370.34	6.418
370.54	5.763
370.75	6.169
370.95	5.042
371.16	6.331
371.37	4.820
371.57	4.762
371.78	5.774
371.98	6.063
372.19	5.952
372.40	5.567
372.60	6.118
372.81	5.464
373.01	5.201
373.22	4.968
373.43	5.785
373.63	4.756
373.84	6.168
374.04	4.765
374.25	6.142
374.46	4.648
374.66	6.585
374.87	6.982
375.07	4.547
375.28	5.055
375.48	6.729
375.69	4.816
375.90	3.422
376.10	4.654
376.31	5.144
376.51	4.174
376.72	4.252
376.92	4.407
377.13	6.557
377.34	5.391
377.54	5.467
377.75	4.619
377.95	4.229
378.16	4.994
378.36	5.178
378.57	3.967
378.77	4.396
378.98	4.456
379.19	3.707
379.39	3.253
379.60	3.766
379.80	3.598
380.01	5.417
380.21	5.499
380.42	5.632
380.62	2.840
380.83	3.886
381.04	4.127
381.24	4.702
381.45	4.268
381.65	3.565
381.86	4.888
382.06	6.097
382.27	4.326
382.47	3.795
382.68	5.260
382.88	4.083
383.09	4.113
383.29	4.981
383.50	6.039
383.71	6.543
383.91	2.324
384.12	4.052
384.32	4.695
384.53	4.385
384.73	3.454
384.94	3.937
385.14	4.029
385.35	4.214
385.55	4.646
385.76	3.857
385.96	3.897
386.17	4.859
386.37	5.044
386.58	4.392
386.78	4.715
386.99	3.162
387.19	4.817
387.40	4.475
387.60	5.079
387.81	3.666
388.01	3.575
388.22	4.799
388.42	3.402
388.63	4.168
388.83	5.418
389.04	3.583
389.24	3.806
389.45	3.934
389.65	3.748
389.86	4.273
390.06	3.511
390.27	3.598
390.47	3.987
390.68	4.161
390.88	4.891
391.09	4.246
391.29	4.452
391.50	4.316
391.70	3.431
391.91	3.761
392.11	3.208
392.32	4.350
392.52	3.735
392.73	4.759
392.93	3.077
393.14	3.478
393.34	2.970
393.55	3.998
393.75	3.334
393.95	4.534
394.16	3.790
394.36	3.661
394.57	3.808
394.77	3.615
394.98	2.964
395.18	3.821
395.39	4.252
395.59	3.123
395.80	3.664
396.00	3.812
396.21	4.886
396.41	3.114
396.61	4.479
396.82	3.906
397.02	4.326
397.23	3.753
397.43	3.590
397.64	3.863
397.84	3.583
398.05	3.160
398.25	4.235
398.45	3.265
398.66	3.592
398.86	4.459
399.07	4.462
399.27	3.551
399.48	4.718
399.68	3.043
399.89	3.036
400.09	3.487
400.29	3.355
400.50	3.371
400.70	4.660
400.91	2.620
401.11	2.924
401.32	4.973
401.52	2.201
401.72	3.660
401.93	3.279
402.13	4.140
402.34	4.073
402.54	2.364
402.75	4.499
402.95	4.993
403.15	4.114
403.36	4.160
403.56	4.228
403.77	4.649
403.97	3.588
404.17	3.055
404.38	3.393
404.58	3.388
404.79	4.119
404.99	3.175
405.19	3.298
405.40	3.282
405.60	3.491
405.81	4.004
406.01	3.230
406.21	3.877
406.42	3.304
406.62	3.733
406.83	4.112
407.03	3.239
407.23	2.682
407.44	2.709
407.64	2.223
407.85	4.087
408.05	3.637
408.25	2.835
408.46	3.317
408.66	2.700
408.87	2.571
409.07	3.699
409.27	1.781
409.48	3.645
409.68	4.232
409.88	3.197
410.09	3.033
410.29	4.308
410.50	3.618
410.70	3.628
410.90	2.337
411.11	3.194
411.31	3.099
411.51	3.274
411.72	3.345
411.92	3.437
412.12	3.491
412.33	2.884
412.53	2.781
412.74	2.664
412.94	4.067
413.14	2.451
413.35	3.210
413.55	3.337
413.75	3.239
413.96	2.942
414.16	3.015
414.36	3.939
414.57	3.061
414.77	1.782
414.97	3.258
415.18	2.703
415.38	3.289
415.58	3.197
415.79	2.845
415.99	3.788
416.19	3.230
416.40	3.040
416.60	2.762
416.80	3.472
417.01	2.860
417.21	2.671
417.41	3.600
417.62	2.439
417.82	2.959
418.02	2.388
418.23	2.163
418.43	2.261
418.63	2.735
418.84	2.529
419.04	2.250
419.24	3.505
419.45	2.009
419.65	2.857
419.85	2.225
420.06	1.826
420.26	2.018
420.46	2.179
420.67	2.605
420.87	2.489
421.07	2.279
421.28	2.213
421.48	2.118
421.68	2.162
421.88	2.219
422.09	2.239
422.29	1.775
422.49	1.835
422.70	1.707
422.90	2.142
423.10	2.065
423.31	1.821
423.51	2.393
423.71	2.194
423.91	2.387
424.12	2.597
424.32	2.221
424.52	2.642
424.73	1.413
424.93	2.177
425.13	1.943
425.33	1.777
425.54	2.049
425.74	1.853
425.94	2.220
426.15	2.408
426.35	1.972
426.55	2.095
426.75	2.395
426.96	2.312
427.16	2.304
427.36	2.383
427.57	2.762
427.77	2.335
427.97	1.757
428.17	2.452
428.38	2.669
428.58	1.513
428.78	2.643
428.98	2.504
429.19	2.338
429.39	2.411
429.59	3.078
429.79	2.105
430.00	2.412
430.20	2.630
430.40	2.104
430.60	2.149
430.81	2.910
431.01	1.946
431.21	2.657
431.41	1.901
431.62	2.042
431.82	2.758
432.02	2.567
432.22	2.408
432.43	1.224
432.63	1.720
432.83	2.272
433.03	2.096
433.24	2.206
433.44	2.326
433.64	2.585
433.84	2.238
434.05	1.806
434.25	1.671
434.45	2.962
434.65	2.577
434.85	2.546
435.06	2.214
435.26	2.552
435.46	2.690
435.66	2.154
435.87	2.254
436.07	2.244
436.27	2.000
436.47	1.560
436.67	2.167
436.88	2.048
437.08	2.176
437.28	1.788
437.48	2.089
437.69	2.131
437.89	2.984
438.09	2.803
438.29	1.648
438.49	2.507
438.70	2.785
438.90	1.542
439.10	1.941
439.30	2.035
439.50	2.304
439.71	1.915
439.91	1.856
440.11	2.921
440.31	2.771
440.51	1.378
440.72	2.095
440.92	2.062
441.12	2.119
441.32	2.754
441.52	2.479
441.72	2.017
441.93	1.841
442.13	1.998
442.33	2.123
442.53	2.687
442.73	1.563
442.94	1.665
443.14	1.686
443.34	2.876
443.54	2.208
443.74	3.002
443.94	1.849
444.15	1.802
444.35	1.557
444.55	2.448
444.75	1.938
444.95	2.085
445.15	2.032
445.36	1.967
445.56	2.096
445.76	2.021
445.96	1.975
446.16	1.700
446.36	1.551
446.57	1.858
446.77	1.346
446.97	1.996
447.17	2.257
447.37	1.545
447.57	2.244
447.77	1.678
447.98	1.605
448.18	2.401
448.38	1.519
448.58	1.803
448.78	1.986
448.98	1.766
449.18	1.689
449.39	2.097
449.59	1.613
449.79	1.545
449.99	2.251
450.19	1.691
450.39	1.814
450.59	1.736
450.79	1.547
451.00	1.737
451.20	2.874
451.40	1.868
451.60	1.932
451.80	2.405
452.00	1.497
452.20	1.746
452.40	2.041
452.61	1.882
452.81	1.735
453.01	2.124
453.21	2.083
453.41	1.804
453.61	2.094
453.81	1.438
454.01	1.783
454.21	1.955
454.42	2.634
454.62	2.458
454.82	1.835
455.02	1.740
455.22	1.851
455.42	1.831
455.62	1.552
455.82	2.042
456.02	2.012
456.23	1.982
456.43	2.563
456.63	1.908
456.83	1.649
457.03	2.234
457.23	2.440
457.43	2.202
457.63	2.097
457.83	2.463
458.03	2.269
458.23	2.240
458.43	1.980
458.64	2.474
458.84	2.185
459.04	2.505
459.24	2.138
459.44	1.905
459.64	1.887
459.84	1.618
460.04	1.579
460.24	1.456
460.44	1.275
460.64	1.788
460.84	1.601
461.04	1.916
461.24	1.860
461.45	2.177
461.65	2.058
461.85	2.174
462.05	1.837
462.25	2.058
462.45	2.516
462.65	2.121
462.85	1.570
463.05	1.791
463.25	1.847
463.45	2.463
463.65	2.400
463.85	2.371
464.05	2.242
464.25	1.724
464.45	2.309
464.65	2.023
464.85	2.287
465.05	1.995
465.26	1.745
465.46	2.037
465.66	2.194
465.86	2.119
466.06	2.294
466.26	1.872
466.46	1.946
466.66	1.782
466.86	1.739
467.06	2.068
467.26	2.179
467.46	2.991
467.66	2.447
467.86	1.967
468.06	1.429
468.26	1.908
468.46	2.172
468.66	1.526
468.86	1.605
469.06	2.317
469.26	1.770
469.46	1.864
469.66	1.481
469.86	2.579
470.06	1.709
470.26	2.646
470.46	2.377
470.66	2.032
470.86	1.916
471.06	1.993
471.26	1.595
471.46	2.016
471.66	2.210
471.86	2.120
472.06	2.254
472.26	2.292
472.46	2.722
472.66	2.160
472.86	2.182
473.06	2.086
473.26	1.996
473.46	2.184
473.66	1.844
473.86	2.411
474.06	2.003
474.26	1.659
474.46	1.897
474.66	2.505
474.86	2.368
475.06	2.385
475.26	1.249
475.46	2.777
475.66	1.727
475.86	2.392
476.06	2.743
476.26	2.318
476.46	2.099
476.66	2.520
476.86	2.010
477.06	1.635
477.26	1.646
477.46	2.171
477.65	2.250
477.85	2.309
478.05	1.474
478.25	2.653
478.45	1.569
478.65	2.210
478.85	1.827
479.05	2.647
479.25	2.187
479.45	2.577
479.65	1.473
479.85	1.805
480.05	1.689
480.25	2.105
480.45	1.872
480.65	2.726
480.85	2.551
481.05	2.542
481.25	2.070
481.44	2.513
481.64	1.857
481.84	2.760
482.04	2.095
482.24	2.768
482.44	1.480
482.64	1.854
482.84	2.328
483.04	2.233
483.24	1.752
483.44	2.158
483.64	2.256
483.84	2.251
484.04	2.551
484.23	2.610
484.43	2.780
484.63	3.284
484.83	2.672
485.03	3.845
485.23	3.217
485.43	3.611
485.63	3.114
485.83	3.322
486.03	2.885
486.23	3.329
486.42	2.736
486.62	3.012
486.82	2.308
487.02	2.545
487.22	2.004
487.42	2.894
487.62	2.682
487.82	2.410
488.02	2.199
488.22	2.845
488.41	2.452
488.61	2.935
488.81	2.610
489.01	2.990
489.21	2.617
489.41	2.919
489.61	2.459
489.81	3.229
490.01	2.504
490.20	2.703
490.40	2.520
490.60	2.859
490.80	2.280
491.00	2.677
491.20	1.998
491.40	1.975
491.60	2.328
491.79	2.405
491.99	2.540
492.19	2.517
492.39	2.722
492.59	2.789
492.79	2.653
492.99	2.667
493.19	2.373
493.38	3.118
493.58	2.012
493.78	2.350
493.98	3.075
494.18	2.941
494.38	2.345
494.58	2.833
494.77	1.905
494.97	2.711
495.17	1.775
495.37	2.086
495.57	2.090
495.77	2.540
495.96	2.468
496.16	1.792
496.36	1.712
496.56	2.326
496.76	2.334
496.96	2.167
497.15	2.256
497.35	2.291
497.55	1.987
497.75	2.137
497.95	1.796
498.15	2.640
498.34	1.654
498.54	2.238
498.74	2.946
498.94	2.690
499.14	1.793
499.34	2.970
499.53	2.399
499.73	2.372
499.93	2.311
500.13	2.310
500.33	1.638
500.52	1.957
500.72	1.924
500.92	2.392
501.12	1.578
501.32	2.430
501.52	2.100
501.71	1.887
501.91	2.087
502.11	2.116
502.31	1.661
502.51	2.765
502.70	2.209
502.90	2.256
503.10	2.253
503.30	2.680
503.50	2.039
503.69	2.036
503.89	2.224
504.09	2.307
504.29	1.869
504.48	2.520
504.68	2.715
504.88	2.652
505.08	2.125
505.28	2.684
505.47	2.077
505.67	2.706
505.87	1.962
506.07	2.239
506.27	2.088
506.46	2.437
506.66	1.854
506.86	2.320
507.06	2.690
507.25	2.515
507.45	2.208
507.65	2.245
507.85	2.099
508.04	3.139
508.24	2.296
508.44	2.191
508.64	2.130
508.83	2.898
509.03	2.026
509.23	2.138
509.43	1.708
509.63	2.296
509.82	1.906
510.02	1.725
510.22	1.788
510.42	2.674
510.61	2.326
510.81	2.024
511.01	2.070
511.21	2.566
511.40	1.945
511.60	2.361
511.80	1.873
511.99	2.724
512.19	2.343
512.39	2.968
512.59	1.897
512.78	2.379
512.98	2.277
513.18	2.000
513.38	2.238
513.57	2.943
513.77	2.249
513.97	2.541
514.17	1.769
514.36	2.521
514.56	1.774
514.76	3.019
514.95	1.811
515.15	2.001
515.35	1.779
515.55	2.140
515.74	2.812
515.94	2.822
516.14	2.183
516.33	2.786
516.53	1.935
516.73	1.632
516.93	1.754
517.12	2.406
517.32	1.812
517.52	1.982
517.71	2.015
517.91	1.862
518.11	2.101
518.30	1.478
518.50	1.334
518.70	1.852
518.90	2.043
519.09	2.442
519.29	2.372
519.49	2.485
519.68	1.539
519.88	2.429
520.08	2.225
520.27	2.374
520.47	2.377
520.67	2.514
520.86	2.284
521.06	3.087
521.26	1.734
521.45	2.623
521.65	1.945
521.85	2.096
522.04	1.813
522.24	2.079
522.44	2.147
522.63	2.083
522.83	1.822
523.03	2.435
523.22	1.815
523.42	2.518
523.62	2.526
523.81	2.183
524.01	2.078
524.21	2.171
524.40	1.421
524.60	2.231
524.80	1.711
524.99	2.027
525.19	2.077
525.39	2.401
525.58	1.617
525.78	2.175
525.98	2.200
526.17	2.731
526.37	1.913
526.57	2.509
526.76	2.221
526.96	2.496
527.15	1.811
527.35	2.384
527.55	2.005
527.74	3.250
527.94	2.765
528.14	2.036
528.33	2.567
528.53	2.563
528.72	2.323
528.92	3.215
529.12	2.976
529.31	3.195
529.51	2.990
529.71	3.149
529.90	2.743
530.10	3.248
530.29	3.099
530.49	3.310
530.69	2.937
530.88	3.528
531.08	2.941
531.28	2.756
531.47	2.757
531.67	2.830
531.86	2.250
532.06	2.517
532.26	1.849
532.45	2.719
532.65	1.804
532.84	2.732
533.04	1.909
533.24	2.035
533.43	1.810
533.63	2.757
533.82	2.301
534.02	2.810
534.22	2.271
534.41	2.843
534.61	2.654
534.80	2.634
535.00	2.733
535.19	2.982
535.39	3.058
535.59	2.484
535.78	2.535
535.98	2.318
536.17	1.788
536.37	2.054
536.57	2.090
536.76	3.028
536.96	2.135
537.15	2.815
537.35	2.044
537.54	2.103
537.74	2.370
537.93	2.794
538.13	1.761
538.33	2.452
538.52	2.297
538.72	2.417
538.91	2.287
539.11	2.263
539.30	2.020
539.50	2.352
539.70	2.219
539.89	2.482
540.09	2.490
540.28	2.532
540.48	1.912
540.67	2.115
540.87	2.248
541.06	2.815
541.26	2.432
541.45	3.000
541.65	2.467
541.85	2.619
542.04	2.593
542.24	3.490
542.43	2.796
542.63	3.139
542.82	2.793
543.02	3.392
543.21	2.739
543.41	3.301
543.60	2.425
543.80	2.959
543.99	2.609
544.19	2.514
544.38	2.575
544.58	3.057
544.77	2.577
544.97	3.171
545.16	2.182
545.36	2.757
545.56	2.533
545.75	2.877
545.95	2.344
546.14	2.980
546.34	1.831
546.53	2.989
546.73	2.549
546.92	2.933
547.12	2.235
547.31	2.684
547.51	1.966
547.70	2.918
547.90	1.836
548.09	2.297
548.29	2.064
548.48	2.560
548.68	2.244
548.87	3.019
549.07	2.700
549.26	2.609
549.46	2.881
549.65	2.212
549.84	2.501
550.04	2.151
550.23	2.282
550.43	2.913
550.62	2.796
550.82	2.116
551.01	1.933
551.21	2.524
551.40	1.890
551.60	2.573
551.79	2.421
551.99	2.411
552.18	2.334
552.38	2.349
552.57	2.574
552.77	2.552
552.96	3.324
553.16	2.685
553.35	2.894
553.54	3.479
553.74	2.463
553.93	3.115
554.13	2.648
554.32	2.586
554.52	2.766
554.71	3.709
554.91	2.405
555.10	3.205
555.29	2.932
555.49	3.042
555.68	2.127
555.88	3.233
556.07	2.800
556.27	3.311
556.46	2.903
556.66	2.692
556.85	3.220
557.04	3.766
557.24	3.052
557.43	3.101
557.63	3.214
557.82	2.879
558.02	3.156
558.21	3.797
558.40	2.460
558.60	2.887
558.79	3.388
558.99	3.298
559.18	3.712
559.38	3.506
559.57	3.128
559.76	3.020
559.96	4.309
560.15	3.460
560.35	2.776
560.54	3.329
560.73	2.890
560.93	3.668
561.12	3.770
561.32	3.076
561.51	3.593
561.70	2.990
561.90	3.038
562.09	5.028
562.29	2.678
562.48	3.424
562.67	4.399
562.87	4.149
563.06	3.643
563.26	4.126
563.45	3.829
563.64	5.117
563.84	4.610
564.03	4.632
564.23	3.937
564.42	6.018
564.61	4.848
564.81	4.093
565.00	4.729
565.20	6.024
565.39	5.776
565.58	4.939
565.78	4.188
565.97	5.905
566.16	5.573
566.36	6.963
566.55	5.201
566.74	4.833
566.94	4.675
567.13	6.727
567.33	5.008
567.52	5.782
567.71	6.334
567.91	6.347
568.10	5.574
568.29	6.914
568.49	6.029
568.68	6.834
568.87	5.389
569.07	6.316
569.26	6.303
569.45	7.178
569.65	6.232
569.84	6.712
570.04	6.298
570.23	7.211
570.42	5.543
570.62	6.514
570.81	6.341
571.00	8.000
571.20	7.054
571.39	7.601
571.58	7.442
571.78	7.716
571.97	7.284
572.16	7.451
572.36	7.505
572.55	8.491
572.74	7.980
572.94	7.487
573.13	8.013
573.32	8.892
573.51	6.678
573.71	9.115
573.90	7.412
574.09	8.685
574.29	7.721
574.48	8.415
574.67	7.648
574.87	8.155
575.06	7.144
575.25	8.459
575.45	7.884
575.64	8.272
575.83	7.444
576.03	9.191
576.22	7.919
576.41	9.434
576.60	7.834
576.80	8.551
576.99	8.276
577.18	9.152
577.38	7.525
577.57	8.558
577.76	8.793
577.95	8.444
578.15	6.750
578.34	8.561
578.53	6.731
578.73	9.183
578.92	6.815
579.11	7.271
579.30	8.100
579.50	7.183
579.69	8.696
579.88	7.772
580.08	5.969
580.27	7.529
580.46	7.641
580.65	9.075
580.85	7.261
581.04	7.369
581.23	7.325
581.42	7.946
581.62	6.792
581.81	7.962
582.00	7.357
582.19	7.668
582.39	8.007
582.58	7.021
582.77	7.806
582.96	7.854
583.16	6.833
583.35	8.417
583.54	8.418
583.73	7.945
583.93	7.053
584.12	7.013
584.31	6.017
584.50	7.238
584.70	7.293
584.89	8.269
585.08	6.191
585.27	7.908
585.47	6.535
585.66	6.912
585.85	6.116
586.04	6.491
586.24	7.856
586.43	6.356
586.62	6.345
586.81	8.005
587.00	5.928
587.20	7.607
587.39	5.937
587.58	8.227
587.77	7.082
587.97	6.525
588.16	6.573
588.35	7.879
588.54	6.264
588.73	7.153
588.93	7.542
589.12	7.749
589.31	6.802
589.50	6.594
589.69	7.937
589.89	8.568
590.08	6.558
590.27	7.240
590.46	6.747
590.65	6.761
590.85	6.078
591.04	7.909
591.23	6.532
591.42	8.327
591.61	6.855
591.81	6.940
592.00	6.912
592.19	8.298
592.38	6.417
592.57	6.598
592.77	7.752
592.96	7.474
593.15	9.115
593.34	8.511
593.53	6.629
593.72	6.379
593.92	6.263
594.11	9.119
594.30	6.172
594.49	8.494
594.68	8.295
594.87	7.857
595.07	6.655
595.26	8.582
595.45	6.732
595.64	9.081
595.83	6.741
596.02	7.879
596.22	6.512
596.41	8.358
596.60	7.302
596.79	9.509
596.98	7.595
597.17	10.026
597.37	8.699
597.56	9.942
597.75	8.203
597.94	9.605
598.13	9.503
598.32	9.081
598.51	8.998
598.71	9.756
598.90	9.324
599.09	10.077
599.28	7.596
599.47	8.563
599.66	7.597
599.85	9.770
600.05	7.850
600.24	10.115
600.43	8.663
600.62	9.176
600.81	9.127
601.00	9.485
601.19	8.053
601.38	9.859
601.58	9.484
601.77	8.690
601.96	7.766
602.15	9.986
602.34	9.371
602.53	11.382
602.72	8.451
602.91	9.257
603.10	8.905
603.30	9.741
603.49	8.258
603.68	10.540
603.87	8.288
604.06	10.363
604.25	10.208
604.44	10.725
604.63	9.965
604.82	11.315
605.01	11.363
605.21	10.427
605.40	9.331
605.59	11.170
605.78	11.212
605.97	11.859
606.16	10.993
606.35	11.285
606.54	10.215
606.73	11.343
606.92	8.586
607.11	11.811
607.30	9.210
607.50	10.055
607.69	9.078
607.88	9.976
608.07	8.925
608.26	9.562
608.45	9.043
608.64	11.046
608.83	7.898
609.02	9.779
609.21	9.105
609.40	10.934
609.59	8.396
609.78	9.338
609.97	8.619
610.16	9.887
610.35	10.118
610.55	9.977
610.74	9.523
610.93	10.575
611.12	9.252
611.31	8.850
611.50	7.987
611.69	7.792
611.88	8.779
612.07	10.902
612.26	8.166
612.45	7.998
612.64	7.948
612.83	8.908
613.02	6.542
613.21	7.023
613.40	8.326
613.59	8.746
613.78	6.636
613.97	7.209
614.16	5.830
614.35	8.374
614.54	5.584
614.73	8.438
614.92	7.283
615.11	5.741
615.30	6.071
615.49	5.252
615.68	7.143
615.87	5.992
616.07	5.731
616.26	5.843
616.45	5.867
616.64	5.165
616.83	5.976
617.02	7.659
617.21	5.292
617.40	6.056
617.59	6.433
617.78	5.267
617.97	6.272
618.16	4.706
618.35	4.112
618.54	5.156
618.73	5.502
618.92	5.368
619.11	5.628
619.30	6.270
619.49	5.248
619.68	6.811
619.86	5.559
620.05	5.737
620.24	5.040
620.43	5.385
620.62	4.451
620.81	4.707
621.00	6.287
621.19	7.708
621.38	5.961
621.57	7.274
621.76	5.576
621.95	6.070
622.14	6.389
622.33	5.137
622.52	5.091
622.71	5.153
622.90	4.262
623.09	5.934
623.28	6.395
623.47	6.237
623.66	7.198
623.85	5.052
624.04	5.405
624.23	5.434
624.42	6.112
624.61	4.563
624.80	4.193
624.99	4.896
625.18	4.270
625.36	5.282
625.55	5.615
625.74	3.891
625.93	4.156
626.12	5.556
626.31	6.279
626.50	5.535
626.69	5.648
626.88	7.241
627.07	6.029
627.26	4.609
627.45	5.346
627.64	5.822
627.83	4.943
628.02	5.622
628.20	4.699
628.39	5.099
628.58	5.915
628.77	5.887
628.96	4.268
629.15	4.733
629.34	5.352
629.53	4.429
629.72	3.463
629.91	7.126
630.10	4.922
630.29	4.264
630.47	4.273
630.66	4.016
630.85	4.678
631.04	4.532
631.23	3.981
631.42	5.646
631.61	4.658
631.80	5.931
631.99	4.205
632.18	3.086
632.36	2.580
632.55	5.240
632.74	3.780
632.93	4.427
633.12	5.118
633.31	4.104
633.50	4.316
633.69	5.826
633.88	2.986
634.06	5.543
634.25	4.395
634.44	3.557
634.63	5.105
634.82	6.154
635.01	3.646
635.20	4.644
635.39	2.916
635.57	5.005
635.76	4.518
635.95	3.357
636.14	4.364
636.33	5.246
636.52	5.869
636.71	3.810
636.89	4.072
637.08	4.421
637.27	3.974
637.46	3.724
637.65	4.373
637.84	5.258
638.03	4.919
638.21	6.732
638.40	5.274
638.59	3.583
638.78	4.381
638.97	6.037
639.16	5.309
639.34	3.921
639.53	5.337
639.72	6.384
639.91	4.498
640.10	3.998
640.29	4.960
640.47	6.956
640.66	5.213
640.85	6.033
641.04	4.227
641.23	5.806
641.42	5.791
641.60	4.127
641.79	5.121
641.98	5.373
642.17	4.912
642.36	6.352
642.54	4.383
642.73	4.728
642.92	4.407
643.11	4.851
643.30	5.510
643.49	4.296
643.67	4.524
643.86	5.357
644.05	5.007
644.24	4.803
644.43	5.936
644.61	5.538
644.80	5.442
644.99	5.113
645.18	6.074
645.37	4.732
645.55	5.086
645.74	4.751
645.93	3.855
646.12	5.557
646.31	5.557
646.49	4.924
646.68	5.496
646.87	5.457
647.06	5.569
647.24	4.172
647.43	4.046
647.62	5.670
647.81	3.341
648.00	5.187
648.18	3.982
648.37	4.688
648.56	5.393
648.75	3.447
648.93	4.482
649.12	5.066
649.31	4.429
649.50	3.406
649.68	5.113
649.87	4.272
650.06	3.332
650.25	4.735
650.43	5.164
650.62	3.643
650.81	5.026
651.00	3.797
651.18	4.944
651.37	5.615
651.56	3.913
651.75	6.255
651.93	5.093
652.12	5.337
652.31	4.710
652.50	4.118
652.68	5.524
652.87	6.385
653.06	5.887
653.25	5.363
653.43	4.578
653.62	5.247
653.81	4.521
654.00	6.041
654.18	4.342
654.37	5.320
654.56	7.029
654.74	4.182
654.93	3.673
655.12	4.137
655.31	4.685
655.49	5.377
655.68	4.087
655.87	3.409
656.05	3.469
656.24	3.956
656.43	4.389
656.62	5.443
656.80	4.625
656.99	5.089
657.18	5.388
657.36	4.269
657.55	4.524
657.74	3.692
657.93	5.596
658.11	5.074
658.30	4.463
658.49	5.054
658.67	4.636
658.86	4.442
659.05	3.897
659.23	4.561
659.42	3.888
659.61	3.865
659.79	3.896
659.98	3.591
660.17	3.673
660.35	3.812
660.54	4.982
660.73	5.720
660.91	4.928
661.10	3.951
661.29	3.342
661.47	4.319
661.66	5.829
661.85	5.198
662.03	4.441
662.22	4.215
662.41	2.953
662.59	4.662
662.78	4.819
662.97	4.428
663.15	3.499
663.34	4.582
663.53	4.505
663.71	5.118
663.90	5.033
664.09	5.346
664.27	5.693
664.46	5.250
664.65	3.923
664.83	2.923
665.02	4.972
665.21	5.268
665.39	4.898
665.58	4.293
665.77	4.977
665.95	6.033
666.14	4.195
666.32	6.348
666.51	5.049
666.70	4.238
666.88	5.373
667.07	4.900
667.26	4.291
667.44	5.333
667.63	5.584
667.81	3.855
668.00	5.074
668.19	6.107
668.37	4.253
668.56	7.011
668.75	5.116
668.93	6.934
669.12	4.682
669.30	6.865
669.49	3.669
669.68	6.575
669.86	7.206
670.05	4.647
670.23	6.630
670.42	4.417
670.61	6.147
670.79	6.087
670.98	6.774
671.16	7.602
671.35	5.985
671.54	5.926
671.72	5.932
671.91	6.484
672.09	5.941
672.28	7.351
672.46	8.196
672.65	7.904
672.84	7.677
673.02	6.660
673.21	5.196
673.39	7.321
673.58	8.336
673.77	7.824
673.95	6.719
674.14	8.078
674.32	6.789
674.51	8.156
674.69	6.764
674.88	7.198
675.07	6.380
675.25	10.024
675.44	8.319
675.62	8.764
675.81	6.725
675.99	12.253
676.18	9.833
676.36	6.657
676.55	6.057
676.74	8.650
676.92	10.526
677.11	7.527
677.29	8.225
677.48	9.643
677.66	9.277
677.85	6.562
678.03	6.339
678.22	10.657
678.40	8.610
678.59	10.360
678.78	9.079
678.96	6.484
679.15	7.134
679.33	9.023
679.52	9.293
679.70	9.982
679.89	8.837
680.07	8.372
680.26	6.659
680.44	8.088
680.63	8.699
680.81	7.216
681.00	7.076
681.18	7.645
681.37	7.592
681.55	8.888
681.74	9.923
681.92	9.736
682.11	10.062
682.29	8.541
682.48	9.400
682.66	9.439
682.85	9.426
683.03	8.724
683.22	10.781
683.40	10.043
683.59	7.085
683.77	10.968
683.96	8.163
684.14	9.466
684.33	7.891
684.51	13.606
684.70	9.389
684.88	11.771
685.07	9.203
685.25	10.478
685.44	9.097
685.62	10.389
685.81	7.395
685.99	12.010
686.18	8.662
686.36	10.755
686.55	8.171
686.73	8.901
686.92	10.263
687.10	13.139
687.29	11.493
687.47	11.759
687.65	13.668
687.84	9.479
688.02	13.967
688.21	13.795
688.39	9.583
688.58	12.947
688.76	10.534
688.95	11.462
689.13	8.490
689.32	12.247
689.50	11.194
689.68	13.373
689.87	12.630
690.05	12.509
690.24	13.648
690.42	13.745
690.61	13.229
690.79	16.096
690.98	12.977
691.16	13.616
691.34	9.009
691.53	15.099
691.71	12.952
691.90	12.863
692.08	13.057
692.27	16.817
692.45	15.840
692.63	14.581
692.82	19.051
693.00	14.499
693.19	14.108
693.37	20.425
693.56	14.579
693.74	22.529
693.92	15.798
694.11	19.207
694.29	19.084
694.48	23.420
694.66	17.765
694.84	23.625
695.03	18.721
695.21	27.407
695.40	26.773
695.58	29.114
695.76	23.014
695.95	26.477
696.13	25.093
696.32	31.224
696.50	34.152
696.68	30.391
696.87	26.432
697.05	30.208
697.24	31.124
697.42	35.175
697.60	32.691
697.79	35.779
697.97	36.416
698.16	38.177
698.34	34.585
698.52	40.382
698.71	39.542
698.89	40.884
699.07	40.466
699.26	43.078
699.44	42.724
699.63	43.572
699.81	42.305
699.99	46.624
700.18	46.288
700.36	45.962
700.54	48.482
700.73	46.179
700.91	45.597
701.09	49.761
701.28	51.261
701.46	50.848
701.64	50.849
701.83	53.026
702.01	53.220
702.20	58.188
702.38	54.472
702.56	56.822
702.75	56.111
702.93	56.166
703.11	57.555
703.30	59.336
703.48	60.062
703.66	61.577
703.85	55.910
704.03	66.822
704.21	60.493
704.40	64.774
704.58	62.092
704.76	65.831
704.95	64.282
705.13	66.537
705.31	63.462
705.50	66.357
705.68	67.259
705.86	71.400
706.04	66.944
706.23	68.188
706.41	71.026
706.59	69.178
706.78	65.185
706.96	73.845
707.14	72.299
707.33	73.375
707.51	71.019
707.69	73.478
707.88	70.756
708.06	75.223
708.24	71.811
708.42	76.800
708.61	72.973
708.79	75.225
708.97	78.992
709.16	77.578
709.34	78.217
709.52	75.673
709.71	80.806
709.89	77.566
710.07	78.653
710.25	79.146
710.44	79.304
710.62	79.490
710.80	80.855
710.98	79.469
711.17	82.216
711.35	78.620
711.53	77.792
711.72	79.118
711.90	84.957
712.08	82.748
712.26	80.223
712.45	78.902
712.63	80.652
712.81	81.365
712.99	83.423
713.18	85.440
713.36	82.257
713.54	81.636
713.72	82.772
713.91	83.130
714.09	82.659
714.27	80.308
714.45	87.523
714.64	84.238
714.82	85.622
715.00	84.158
715.18	86.234
715.37	83.131
715.55	83.133
715.73	87.409
715.91	85.841
716.10	85.515
716.28	82.389
716.46	87.864
716.64	87.769
716.83	87.075
717.01	87.107
717.19	82.463
717.37	86.657
717.55	90.287
717.74	89.145
717.92	85.063
718.10	86.087
718.28	87.949
718.47	88.812
718.65	89.423
718.83	90.529
719.01	91.590
719.19	92.625
719.38	89.526
719.56	90.499
719.74	92.658
719.92	88.162
720.10	91.039
720.29	88.297
720.47	93.271
720.65	95.153
720.83	95.143
721.01	89.887
721.20	91.212
721.38	94.448
721.56	92.554
721.74	90.926
721.92	95.531
722.11	95.427
722.29	96.618
722.47	93.601
722.65	96.289
722.83	92.067
723.01	92.778
723.20	94.011
723.38	93.279
723.56	89.733
723.74	98.155
723.92	91.082
724.10	101.709
724.29	94.129
724.47	93.279
724.65	98.819
724.83	95.533
725.01	94.845
725.19	102.736
725.38	93.375
725.56	100.842
725.74	98.668
725.92	94.918
726.10	94.036
726.28	90.986
726.46	98.714
726.65	99.688
726.83	95.765
727.01	100.953
727.19	94.491
727.37	102.947
727.55	97.431
727.73	97.087
727.92	98.507
728.10	100.836
728.28	92.017
728.46	101.227
728.64	98.732
728.82	102.102
729.00	97.082
729.19	99.430
729.37	102.733
729.55	100.461
729.73	96.667
729.91	103.237
730.09	100.700
730.27	100.000
730.45	97.985
730.63	95.207
730.82	101.824
731.00	101.276
731.18	100.172
731.36	100.961
731.54	99.308
731.72	104.290
731.90	98.796
732.08	103.365
732.26	101.382
732.45	102.782
732.63	105.075
732.81	98.920
732.99	101.568
733.17	106.353
733.35	102.137
733.53	102.094
733.71	98.592
733.89	100.436
734.07	104.439
734.25	104.724
734.44	98.500
734.62	98.652
734.80	99.767
734.98	103.070
735.16	104.406
735.34	102.708
735.52	102.184
735.70	106.327
735.88	104.840
736.06	105.086
736.24	110.118
736.42	102.321
736.60	104.141
736.78	110.300
736.97	107.861
737.15	106.114
737.33	105.849
737.51	105.655
737.69	107.249
737.87	107.559
738.05	106.963
738.23	110.666
738.41	105.130
738.59	109.474
738.77	107.931
738.95	108.878
739.13	106.882
739.31	109.275
739.49	110.975
739.67	106.229
739.85	108.052
740.03	105.438
740.21	106.458
740.39	108.723
740.57	108.220
740.75	106.676
740.93	106.639
741.11	111.197
741.30	109.098
741.48	111.204
741.66	103.196
741.84	111.213
742.02	103.094
742.20	109.695
742.38	108.050
742.56	111.952
742.74	103.935
742.92	109.968
743.10	108.502
743.28	106.186
743.46	111.200
743.64	111.275
743.82	111.609
744.00	109.551
744.18	103.171
744.36	107.737
744.54	107.935
744.72	108.377
744.90	111.198
745.08	117.679
745.26	102.814
745.44	113.734
745.62	103.263
745.80	106.159
745.98	108.076
746.16	112.785
746.34	102.238
746.52	110.917
746.70	107.493
746.87	109.058
747.05	107.862
747.23	108.524
747.41	105.773
747.59	105.959
747.77	105.919
747.95	114.383
748.13	106.034
748.31	117.045
748.49	106.446
748.67	113.151
748.85	105.835
749.03	116.771
749.21	110.304
749.39	108.834
749.57	101.874
749.75	107.342
749.93	107.117
750.11	109.386
750.29	102.435
750.47	111.350
750.65	105.585
750.83	108.341
751.01	105.192
751.18	104.605
751.36	101.487
751.54	98.348
751.72	104.696
751.90	109.067
752.08	103.470
752.26	111.770
752.44	106.374
752.62	106.885
752.80	104.987
752.98	111.662
753.16	105.898
753.34	113.645
753.52	111.584
753.69	111.495
753.87	107.755
754.05	109.842
754.23	107.047
754.41	103.507
754.59	102.318
754.77	108.218
754.95	103.199
755.13	111.217
755.31	106.706
755.49	104.149
755.66	107.528
755.84	107.404
756.02	101.784
756.20	109.624
756.38	107.143
756.56	109.647
756.74	100.363
756.92	103.840
757.10	106.514
757.28	115.222
757.45	107.699
757.63	111.101
757.81	106.530
757.99	115.126
758.17	101.471
758.35	111.925
758.53	109.575
758.71	109.780
758.88	105.291
759.06	113.297
759.24	108.938
759.42	103.866
759.60	106.701
759.78	107.118
759.96	99.249
760.13	106.877
760.31	104.085
760.49	108.942
760.67	95.997
760.85	104.282
761.03	93.095
761.21	105.786
761.38	94.214
761.56	109.752
761.74	95.503
761.92	105.303
762.10	96.461
762.28	100.401
762.46	99.579
762.63	102.059
762.81	97.033
762.99	104.493
763.17	98.328
763.35	105.048
763.53	102.898
763.70	102.121
763.88	106.235
764.06	105.980
764.24	102.519
764.42	103.712
764.60	103.027
764.77	98.577
764.95	100.155
765.13	104.246
765.31	99.457
765.49	103.741
765.66	101.341
765.84	103.525
766.02	99.362
766.20	104.700
766.38	102.520
766.56	110.323
766.73	98.598
766.91	111.246
767.09	99.252
767.27	106.544
767.45	100.657
767.62	107.414
767.80	97.922
767.98	104.056
768.16	94.154
768.33	104.903
768.51	103.321
768.69	108.998
768.87	100.574
769.05	102.313
769.22	97.592
769.40	109.505
769.58	105.269
769.76	105.416
769.94	99.278
770.11	102.790
770.29	106.009
770.47	101.693
770.65	98.907
770.82	104.506
771.00	103.024
771.18	103.437
771.36	103.382
771.53	106.250
771.71	104.524
771.89	105.923
772.07	102.948
772.25	112.177
772.42	96.980
772.60	106.579
772.78	103.117
772.96	100.699
773.13	100.585
773.31	110.649
773.49	99.737
773.67	106.866
773.84	90.128
774.02	102.970
774.20	88.782
774.37	100.398
774.55	106.267
774.73	110.714
774.91	94.423
775.08	100.000
775.26	100.810
775.44	110.993
775.62	102.527
775.79	107.422
775.97	94.861
776.15	105.805
776.32	97.004
776.50	100.504
776.68	98.551
776.86	112.286
777.03	89.768
777.21	103.221
777.39	89.733
777.56	99.735
777.74	96.433
777.92	101.069
778.10	99.144
778.27	107.210
778.45	88.627
778.63	101.393
778.80	95.782
778.98	96.501
779.16	98.647
779.34	96.879
779.51	97.447
779.69	104.583
779.87	88.406
780.04	96.070
780.22	93.276
780.40	97.143
780.57	96.706
780.75	97.510
780.93	93.179
781.10	102.063
781.28	115.429
781.46	97.796
781.63	110.285
781.81	105.807
781.99	94.184
782.16	91.837
782.34	85.266
782.52	100.000
782.69	88.079
782.87	94.548
783.05	89.747
783.22	103.468
783.40	89.673
783.58	104.777
783.75	90.541
783.93	95.251
784.11	93.760
784.28	103.323
784.46	85.219
784.64	110.244
784.81	87.270
784.99	108.612
785.17	98.475
785.34	96.499
785.52	94.182
785.69	94.992
785.87	88.045
786.05	90.923
786.22	91.853
786.40	111.258
786.58	87.812
786.75	93.851
786.93	77.383
787.11	94.196
787.28	90.815
787.46	96.769
787.63	90.635
787.81	94.745
787.99	90.342
788.16	92.539
788.34	84.317
788.51	103.499
788.69	86.290
788.87	98.187
789.04	87.040
789.22	94.170
789.39	91.501
789.57	100.501
789.75	98.214
789.92	116.094
790.10	87.263
790.27	92.659
790.45	85.222
790.63	99.582
790.80	87.588
790.98	108.333
791.15	87.195
791.33	93.172
791.51	89.228
791.68	112.586
791.86	92.178
792.03	89.466
792.21	86.535
792.39	96.032
792.56	85.502
792.74	90.709
792.91	78.179
793.09	90.045
793.26	72.137
793.44	105.776
793.62	81.359
793.79	92.228
793.97	89.119
794.14	103.423
794.32	94.025
794.49	101.361
794.67	76.962
794.84	94.108
795.02	91.150
795.20	98.907
795.37	81.186
795.55	88.084
795.72	80.190
795.90	96.459
796.07	87.375
796.25	89.506
796.42	82.955
796.60	93.344
796.77	82.884
796.95	93.151
797.13	77.321
797.30	93.865
797.48	85.044
797.65	89.725
797.83	79.580
798.00	107.520
798.18	82.456
798.35	93.258
798.53	86.336
798.70	106.961
798.88	85.000
799.05	87.281
799.23	75.655
799.40	105.345
799.58	91.753
799.75	88.331
799.93	80.569
800.10	83.923
800.28	79.167
800.45	88.152
800.63	82.991
800.80	101.789
800.98	82.480
801.15	91.883
801.33	90.543
801.50	87.480
801.68	77.514
801.85	86.926
802.03	81.584
802.20	96.534
802.38	85.495
802.55	90.088
802.73	77.448
802.90	80.882
803.08	77.068
803.25	95.057
803.43	90.858
803.60	101.562
803.78	80.392
803.95	81.408
804.13	86.106
804.30	93.230
804.48	79.264
804.65	81.800
804.83	78.671
805.00	83.630
805.17	90.055
805.35	99.804
805.52	72.929
805.70	86.458
805.87	90.835
806.05	102.259
806.22	84.725
806.40	87.018
806.57	78.453
806.75	95.993
806.92	83.363
807.09	94.757
807.27	76.550
807.44	105.871
807.62	80.037
807.79	82.412
807.97	80.300
808.14	87.455
808.31	86.972
808.49	81.162
808.66	64.945
808.84	90.854
809.01	75.468
809.19	84.961
809.36	92.224
809.53	99.217
809.71	70.577
809.88	94.748
810.06	84.073
810.23	85.435
810.41	84.631
810.58	96.241
810.75	71.136
810.93	77.708
811.10	74.803
811.28	87.251
811.45	84.510
811.62	73.128
811.80	82.819
811.97	95.227
812.15	86.519
812.32	95.778
812.49	83.777
812.67	77.802
812.84	76.180
813.02	79.424
813.19	70.400
813.36	71.800
813.54	67.102
813.71	91.145
813.89	80.145
814.06	90.643
814.23	74.633
814.41	70.781
814.58	77.234
814.75	81.299
814.93	78.027
815.10	79.634
815.28	72.155
815.45	85.096
815.62	79.634
815.80	65.848
815.97	68.263
816.14	77.157
816.32	76.724
816.49	70.868
816.66	78.465
816.84	68.712
817.01	85.952
817.18	77.053
817.36	76.942
817.53	93.905
817.71	57.412
817.88	82.415
818.05	61.939
818.23	77.953
818.40	66.809
818.57	82.472
818.75	70.188
818.92	70.354
819.09	70.881
819.27	79.046
819.44	78.556
819.61	73.077
819.79	66.667
819.96	93.678
820.13	70.000
820.31	85.008
820.48	96.589
820.65	92.742
820.82	85.061
821.00	83.799
821.17	66.035
821.34	93.117
821.52	92.840
821.69	89.918
821.86	95.104
822.04	110.476
822.21	97.712
822.38	102.131
822.56	102.126
822.73	101.676
822.90	100.768
823.07	102.101
823.25	98.943
823.42	101.575
823.59	98.840
823.77	96.339
823.94	94.698
824.11	98.264
824.29	95.438
824.46	96.633
824.63	99.797
824.80	102.539
824.98	103.772
825.15	100.048
825.32	100.000
825.49	104.136
825.67	104.893
825.84	101.992
826.01	102.192
826.19	105.482
826.36	98.923
826.53	101.944
826.70	100.676
826.88	109.075
827.05	104.403
827.22	103.325
827.39	105.800
827.57	97.912
827.74	97.604
827.91	103.108
828.08	102.671
828.26	106.887
828.43	90.614
828.60	103.342
828.77	94.332
828.95	103.844
829.12	85.602
829.29	97.857
829.46	89.415
829.64	95.763
829.81	89.005
829.98	102.629
830.15	83.429
830.32	87.453
830.50	76.724
830.67	80.108
830.84	70.159
831.01	81.164
831.19	74.630
831.36	82.753
831.53	74.480
831.70	79.580
831.87	70.120
832.05	72.140
832.22	90.213
832.39	68.709
832.56	63.341
832.74	71.310
832.91	68.208
833.08	79.242
833.25	62.983
833.42	75.947
833.60	79.316
833.77	67.626
833.94	73.359
834.11	77.970
834.28	81.441
834.45	82.159
834.63	84.691
834.80	91.053
834.97	89.332
835.14	92.770
835.31	87.387
835.49	89.364
835.66	76.860
835.83	82.308
836.00	86.385
836.17	95.367
836.34	82.054
836.52	83.974
836.69	92.319
836.86	86.120
837.03	79.004
837.20	76.326
837.37	68.060
837.55	67.675
837.72	67.225
837.89	79.241
838.06	78.019
838.23	78.737
838.40	64.578
838.58	58.756
838.75	77.301
838.92	83.478
839.09	95.886
839.26	76.901
839.43	113.194
839.60	70.096
839.78	80.745
839.95	72.321
840.12	65.789
840.29	78.947
840.46	67.913
840.63	71.191
840.80	69.921
840.98	98.623
841.15	72.589
841.32	77.374
841.49	63.361
841.66	65.676
841.83	56.265
842.00	78.187
842.17	80.447
842.34	71.866
842.52	79.091
842.69	75.000
842.86	68.864
843.03	82.315
843.20	71.758
843.37	75.794
843.54	65.529
843.71	85.833
843.88	75.912
844.06	116.949
844.23	94.492
844.40	85.593
844.57	73.554
844.74	79.310
844.91	98.010
845.08	98.305
845.25	98.936
845.42	89.944
845.59	65.164
845.76	93.548
845.94	108.333
846.11	103.465
846.28	71.315
846.45	105.376
846.62	84.500
846.79	72.996
846.96	63.736
847.13	125.000
847.30	102.260
847.47	78.866
847.64	62.041
847.81	114.706
847.98	96.216
848.15	91.620
848.32	122.798
848.50	91.000
848.67	68.639
848.84	75.740
849.01	90.647
849.18	104.706
849.35	123.333
849.52	79.894
849.69	131.319
849.86	125.000
850.03	94.215
850.20	118.000
850.37	64.118
850.54	106.383
850.71	90.625
850.88	85.161
851.05	71.196
851.22	123.494
851.39	105.882
851.56	127.586
851.73	122.024
851.90	112.418
852.07	86.550
852.24	109.804
852.41	90.355
852.58	98.907
852.75	94.186
852.92	101.105
853.09	124.183
853.26	106.536
853.43	90.000
853.60	129.252
853.77	92.737
853.94	105.310
854.11	126.667
854.28	130.556
854.45	110.390
854.62	99.419
854.79	100.606
854.96	124.306
855.13	98.742
855.30	134.307
855.47	145.968
855.64	103.727
855.81	111.511
855.98	136.641
856.15	122.308
856.32	77.251
856.49	98.305
856.66	111.538
856.83	107.547
857.00	120.492
857.17	115.323
857.34	98.370
857.51	101.408
857.68	90.816
857.85	119.412
858.02	116.327
858.19	81.215
858.36	114.368
858.53	92.308
858.70	103.846
858.87	117.931
859.04	98.824
859.21	128.030
859.38	87.558
859.55	123.864
859.72	100.694
859.89	142.657
860.05	113.669
860.22	112.121
860.39	155.172
860.56	121.429
860.73	108.333
860.90	105.389
861.07	106.500
861.24	79.412
861.41	112.717
861.58	99.351
861.75	119.685
861.92	78.125
862.09	112.060
862.26	123.871
862.43	154.000
862.59	91.447
862.76	102.591
862.93	161.538
863.10	158.088
863.27	113.077
863.44	105.691
863.61	84.058
863.78	116.043
863.95	126.829
864.12	151.282
864.29	121.186
864.45	79.874
864.62	121.951
864.79	68.235
864.96	158.654
865.13	118.978
865.30	145.918
865.47	129.655
865.64	155.944
865.81	123.684
865.97	70.440
866.14	95.187
866.31	141.803
866.48	102.113
866.65	103.067
866.82	128.859
866.99	138.571
867.16	96.124
867.33	126.241
867.49	115.060
867.66	132.836
867.83	91.964
868.00	107.527
868.17	120.611
868.34	148.031
868.51	96.479
868.67	102.976
868.84	97.778
869.01	107.586
869.18	144.800
869.35	97.163
869.52	110.219
869.69	118.657
869.85	114.865
870.02	92.391
870.19	120.000
870.36	115.827
870.53	171.429
870.70	178.571
870.86	117.532
871.03	102.920
871.20	113.445
871.37	101.775
871.54	133.019
871.71	153.030
871.87	142.268
872.04	78.125
872.21	109.848
872.38	156.627
872.55	108.571
872.72	86.957
872.88	132.500
873.05	80.749
873.22	142.500
873.39	100.610
873.56	96.403
873.72	109.945
873.89	128.662
874.06	121.311
874.23	140.580
874.40	123.200
874.56	142.424
874.73	140.833
874.90	107.534
875.07	114.504
875.24	131.707
875.40	113.393
875.57	139.683
875.74	85.625
875.91	113.492
876.08	115.000
876.24	117.949
876.41	143.609
876.58	117.518
876.75	108.387
876.92	98.718
877.08	130.657
877.25	109.740
877.42	110.000
877.59	96.386
877.75	111.792
877.92	79.070
878.09	116.447
878.26	107.534
878.42	128.148
878.59	111.364
878.76	95.238
878.93	122.517
879.09	108.844
879.26	123.718
879.43	126.562
879.60	95.152
879.76	88.205
879.93	94.924
880.10	92.558
880.27	66.222
880.43	105.612
880.60	92.488
880.77	69.804
880.94	67.143
881.10	66.207
881.27	71.823
881.44	57.050
881.61	73.441
881.77	78.782
881.94	67.350
882.11	60.207
882.28	76.495
882.44	71.681
882.61	89.870
882.78	86.339
882.94	94.759
883.11	86.495
883.28	93.039
883.45	93.075
883.61	94.067
883.78	87.297
883.95	94.995
884.11	82.979
884.28	83.256
>>>>>End Processed Spectral Data<<<<<
