SpectraSuite Data File
++++++++++++++++++++++++++++++++++++
Date: Thu Sep 19 03:19:44 EST 2019
User: sgrac
Dark Spectrum Present: Yes
Reference Spectrum Present: Yes
Number of Sampled Component Spectra: 1
Spectrometers: USB4E01596
Integration Time (usec): 100000 (USB4E01596)
Spectra Averaged: 1 (USB4E01596)
Boxcar Smoothing: 0 (USB4E01596)
Correct for Electrical Dark: No (USB4E01596)
Strobe/Lamp Enabled: Yes (USB4E01596)
Correct for Detector Non-linearity: No (USB4E01596)
Correct for Stray Light: No (USB4E01596)
Number of Pixels in Processed Spectrum: 3648
>>>>>Begin Processed Spectral Data<<<<<
178.44	850.000
178.66	850.000
178.87	850.000
179.09	-845.455
179.30	203.571
179.52	1957.143
179.74	-700.000
179.95	604.762
180.17	1300.000
180.38	280.597
180.60	0.000
180.82	574.194
181.03	255.556
181.25	3400.000
181.46	1015.385
181.68	-300.000
181.89	1207.143
182.11	629.167
182.33	629.630
182.54	1250.000
182.76	816.667
182.97	-557.143
183.19	295.238
183.40	252.727
183.62	466.667
183.84	1912.500
184.05	1226.667
184.27	-6750.000
184.48	226.984
184.70	6100.000
184.91	711.538
185.13	291.549
185.34	-194.231
185.56	514.815
185.78	480.769
185.99	-4550.000
186.21	-1309.091
186.42	-360.000
186.64	1053.333
186.85	-6750.000
187.07	663.636
187.28	1100.000
187.50	468.182
187.72	386.111
187.93	1033.333
188.15	805.263
188.36	976.471
188.58	297.436
188.79	2050.000
189.01	687.500
189.22	3360.000
189.44	735.000
189.65	-5466.667
189.87	2950.000
190.09	1111.765
190.30	2014.286
190.52	908.333
190.73	-715.385
190.95	361.364
191.16	487.500
191.38	375.000
191.59	-1336.364
191.81	686.364
192.02	766.667
192.24	684.615
192.45	2112.500
192.67	2616.667
192.88	-433.333
193.10	-17200.000
193.31	520.000
193.53	-761.905
193.74	-3075.000
193.96	2355.556
194.18	943.750
194.39	439.024
194.61	763.158
194.82	1745.455
195.04	632.000
195.25	3800.000
195.47	363.158
195.68	782.353
195.90	425.581
196.11	557.692
196.33	-1922.222
196.54	-947.368
196.76	704.545
196.97	1922.222
197.19	-13800.000
197.40	1383.333
197.62	2783.333
197.83	1200.000
198.05	739.286
198.26	442.500
198.48	441.176
198.69	-1888.889
198.91	805.556
199.12	474.286
199.34	-1814.286
199.55	270.175
199.77	310.870
199.98	-1600.000
200.20	875.000
200.41	7900.000
200.63	450.000
200.84	619.048
201.06	-1007.692
201.27	-2740.000
201.49	1516.667
201.70	850.000
201.91	-9450.000
202.13	1005.263
202.34	430.435
202.56	6150.000
202.77	906.250
202.99	402.000
203.20	460.606
203.42	-2357.143
203.63	2683.333
203.85	536.111
204.06	452.174
204.28	1800.000
204.49	-1250.000
204.71	470.732
204.92	360.000
205.14	337.778
205.35	238.571
205.56	2200.000
205.78	981.818
205.99	-1120.000
206.21	691.304
206.42	255.932
206.64	-3283.333
206.85	709.524
207.07	900.000
207.28	-2660.000
207.50	327.778
207.71	850.000
207.93	387.500
208.14	603.704
208.35	588.235
208.57	-396.000
208.78	-339.024
209.00	351.163
209.21	411.905
209.43	548.000
209.64	7600.000
209.86	542.857
210.07	524.138
210.28	-1146.154
210.50	864.706
210.71	730.000
210.93	590.625
211.14	288.571
211.36	313.043
211.57	620.000
211.78	456.410
212.00	960.000
212.21	988.235
212.43	953.333
212.64	530.000
212.86	221.795
213.07	510.345
213.29	440.000
213.50	512.903
213.71	516.667
213.93	2714.286
214.14	929.412
214.36	2112.500
214.57	218.310
214.78	1000.000
215.00	789.474
215.21	833.333
215.43	220.253
215.64	577.778
215.86	1000.000
216.07	773.684
216.28	355.556
216.50	6650.000
216.71	-12800.000
216.93	648.148
217.14	292.424
217.35	422.857
217.57	2775.000
217.78	331.429
218.00	3866.667
218.21	658.333
218.42	243.750
218.64	-8550.000
218.85	474.510
219.07	1828.571
219.28	232.787
219.49	-908.333
219.71	1450.000
219.92	283.784
220.14	1812.500
220.35	300.000
220.56	953.846
220.78	352.632
220.99	474.286
221.21	135.052
221.42	569.565
221.63	9250.000
221.85	616.667
222.06	505.000
222.28	256.000
222.49	-1488.889
222.70	283.333
222.92	-7400.000
223.13	415.789
223.34	192.391
223.56	1508.333
223.77	204.412
223.99	382.222
224.20	226.667
224.41	233.333
224.63	7100.000
224.84	4466.667
225.05	830.769
225.27	425.641
225.48	356.667
225.69	181.176
225.91	257.813
226.12	228.986
226.34	434.375
226.55	185.294
226.76	327.451
226.98	187.500
227.19	167.949
227.40	328.000
227.62	215.068
227.83	155.357
228.04	157.143
228.26	118.750
228.47	164.167
228.69	63.235
228.90	76.190
229.11	58.952
229.33	75.120
229.54	51.452
229.75	49.823
229.97	66.159
230.18	43.189
230.39	49.242
230.61	54.608
230.82	46.179
231.03	40.446
231.25	45.302
231.46	39.881
231.67	59.623
231.89	55.159
232.10	73.208
232.31	75.446
232.53	71.101
232.74	48.165
232.95	75.490
233.17	72.821
233.38	67.895
233.59	105.056
233.81	90.123
234.02	104.000
234.23	56.701
234.45	85.909
234.66	62.644
234.87	77.326
235.09	71.809
235.30	79.126
235.51	57.399
235.73	68.687
235.94	53.571
236.15	57.090
236.36	76.000
236.58	73.206
236.79	64.224
237.00	57.028
237.22	79.894
237.43	64.591
237.64	86.335
237.86	64.623
238.07	78.571
238.28	65.748
238.50	72.727
238.71	70.466
238.92	54.245
239.13	69.892
239.35	64.315
239.56	63.333
239.77	73.224
239.99	52.016
240.20	84.825
240.41	69.291
240.63	51.642
240.84	49.558
241.05	51.351
241.26	42.297
241.48	47.095
241.69	35.230
241.90	31.264
242.12	26.789
242.33	31.061
242.54	24.706
242.75	19.529
242.97	27.054
243.18	12.299
243.39	15.535
243.61	25.624
243.82	23.764
244.03	18.716
244.24	17.433
244.46	23.025
244.67	22.455
244.88	25.619
245.09	20.462
245.31	28.033
245.52	25.350
245.73	31.023
245.95	47.024
246.16	27.679
246.37	32.492
246.58	21.077
246.80	25.881
247.01	19.829
247.22	14.665
247.43	21.063
247.65	14.184
247.86	14.319
248.07	10.432
248.28	12.695
248.50	11.702
248.71	9.753
248.92	9.417
249.13	10.861
249.35	8.404
249.56	10.068
249.77	11.649
249.98	13.990
250.20	15.577
250.41	24.169
250.62	25.312
250.83	15.858
251.05	23.555
251.26	30.836
251.47	27.907
251.68	27.226
251.90	23.153
252.11	23.960
252.32	21.972
252.53	28.446
252.75	26.996
252.96	22.802
253.17	20.526
253.38	20.828
253.59	18.765
253.81	19.641
254.02	20.322
254.23	16.599
254.44	21.000
254.66	19.935
254.87	24.915
255.08	18.472
255.29	34.351
255.50	22.607
255.72	28.627
255.93	43.274
256.14	38.793
256.35	28.306
256.57	27.027
256.78	29.605
256.99	38.246
257.20	39.457
257.41	26.392
257.63	35.526
257.84	30.930
258.05	26.820
258.26	28.939
258.47	33.826
258.69	22.795
258.90	16.932
259.11	13.566
259.32	17.912
259.53	19.467
259.75	11.781
259.96	12.138
260.17	9.159
260.38	10.896
260.59	11.522
260.81	7.506
261.02	9.164
261.23	9.558
261.44	10.127
261.65	7.451
261.87	9.588
262.08	10.163
262.29	11.622
262.50	9.792
262.71	8.908
262.92	13.525
263.14	14.911
263.35	13.930
263.56	17.579
263.77	17.415
263.98	16.796
264.20	23.183
264.41	16.625
264.62	19.627
264.83	19.291
265.04	25.597
265.25	22.136
265.47	20.188
265.68	25.523
265.89	19.195
266.10	17.083
266.31	21.961
266.52	19.834
266.74	15.700
266.95	13.469
267.16	12.835
267.37	20.761
267.58	13.576
267.79	14.937
268.01	18.668
268.22	13.494
268.43	14.193
268.64	15.868
268.85	11.639
269.06	15.927
269.27	17.636
269.49	19.340
269.70	14.660
269.91	14.364
270.12	12.995
270.33	18.533
270.54	15.988
270.75	13.089
270.97	16.275
271.18	10.924
271.39	12.961
271.60	13.924
271.81	10.221
272.02	11.022
272.23	13.181
272.45	10.752
272.66	10.545
272.87	11.610
273.08	11.641
273.29	11.312
273.50	11.321
273.71	9.281
273.92	8.232
274.14	10.340
274.35	11.549
274.56	13.268
274.77	11.480
274.98	12.910
275.19	10.706
275.40	13.718
275.61	11.812
275.83	13.793
276.04	11.945
276.25	15.950
276.46	10.721
276.67	15.830
276.88	15.114
277.09	16.298
277.30	16.173
277.51	15.365
277.73	15.128
277.94	11.854
278.15	13.763
278.36	14.153
278.57	14.235
278.78	14.066
278.99	12.489
279.20	10.073
279.41	14.616
279.62	13.860
279.84	13.747
280.05	18.529
280.26	12.500
280.47	15.558
280.68	14.261
280.89	13.579
281.10	11.716
281.31	11.717
281.52	11.850
281.73	9.324
281.94	10.163
282.16	12.521
282.37	11.069
282.58	11.449
282.79	12.412
283.00	9.729
283.21	8.621
283.42	8.363
283.63	11.297
283.84	9.416
284.05	11.653
284.26	12.182
284.47	10.972
284.68	8.722
284.89	8.876
285.11	12.185
285.32	7.557
285.53	11.776
285.74	13.791
285.95	13.124
286.16	9.334
286.37	8.634
286.58	10.312
286.79	10.596
287.00	9.183
287.21	8.178
287.42	9.436
287.63	9.344
287.84	10.163
288.05	8.542
288.26	10.005
288.48	10.071
288.69	6.611
288.90	9.580
289.11	12.057
289.32	13.255
289.53	8.150
289.74	9.053
289.95	11.717
290.16	13.225
290.37	7.434
290.58	7.630
290.79	8.839
291.00	9.718
291.21	10.341
291.42	8.583
291.63	9.881
291.84	10.718
292.05	9.296
292.26	6.632
292.47	10.768
292.68	8.834
292.89	8.521
293.10	10.046
293.31	9.447
293.52	10.332
293.73	8.279
293.94	13.495
294.15	13.976
294.36	8.008
294.57	12.508
294.79	9.377
295.00	10.032
295.21	9.897
295.42	12.484
295.63	12.433
295.84	9.231
296.05	8.162
296.26	8.077
296.47	8.224
296.68	10.193
296.89	10.000
297.10	7.555
297.31	10.655
297.52	6.987
297.73	7.786
297.94	6.670
298.15	7.303
298.36	8.609
298.57	7.260
298.78	8.798
298.99	6.714
299.20	6.849
299.41	8.183
299.62	8.055
299.83	8.079
300.04	9.583
300.25	10.025
300.46	8.298
300.67	10.762
300.88	10.781
301.09	10.096
301.30	9.000
301.50	10.791
301.71	12.925
301.92	11.216
302.13	9.284
302.34	8.897
302.55	10.041
302.76	12.154
302.97	8.122
303.18	11.365
303.39	8.769
303.60	9.193
303.81	11.727
304.02	10.178
304.23	10.279
304.44	11.423
304.65	10.946
304.86	9.096
305.07	12.341
305.28	10.407
305.49	10.743
305.70	12.679
305.91	9.396
306.12	9.615
306.33	10.944
306.54	9.335
306.75	10.376
306.96	14.348
307.17	9.940
307.38	10.171
307.58	9.068
307.79	11.959
308.00	12.523
308.21	12.508
308.42	10.819
308.63	13.119
308.84	9.351
309.05	11.872
309.26	9.865
309.47	8.637
309.68	8.576
309.89	9.647
310.10	10.207
310.31	8.589
310.52	7.447
310.73	11.380
310.94	6.811
311.14	8.534
311.35	8.746
311.56	8.204
311.77	7.055
311.98	7.385
312.19	6.495
312.40	10.163
312.61	8.122
312.82	9.848
313.03	9.408
313.24	9.664
313.45	10.619
313.66	10.204
313.86	12.002
314.07	9.578
314.28	12.669
314.49	9.650
314.70	10.407
314.91	13.724
315.12	9.674
315.33	11.234
315.54	10.087
315.75	10.028
315.96	11.574
316.16	9.240
316.37	8.981
316.58	10.114
316.79	10.012
317.00	11.682
317.21	9.747
317.42	14.036
317.63	11.668
317.84	11.582
318.05	10.926
318.25	11.527
318.46	12.038
318.67	8.856
318.88	10.984
319.09	12.142
319.30	9.784
319.51	9.390
319.72	10.195
319.93	12.225
320.13	13.036
320.34	13.956
320.55	12.790
320.76	10.892
320.97	10.044
321.18	13.101
321.39	12.224
321.60	10.970
321.80	11.827
322.01	9.319
322.22	12.811
322.43	10.833
322.64	8.837
322.85	10.319
323.06	11.942
323.27	11.795
323.47	13.520
323.68	11.861
323.89	10.549
324.10	13.337
324.31	9.494
324.52	10.712
324.73	9.836
324.93	10.657
325.14	9.690
325.35	8.914
325.56	8.801
325.77	10.840
325.98	11.558
326.19	10.632
326.39	8.949
326.60	10.574
326.81	10.363
327.02	9.863
327.23	6.910
327.44	11.218
327.64	8.591
327.85	7.383
328.06	11.400
328.27	13.751
328.48	11.105
328.69	11.462
328.90	11.555
329.10	10.044
329.31	11.129
329.52	9.988
329.73	13.644
329.94	11.312
330.15	11.720
330.35	9.352
330.56	11.611
330.77	9.708
330.98	11.949
331.19	8.902
331.39	11.458
331.60	11.328
331.81	7.952
332.02	13.741
332.23	12.953
332.44	9.193
332.64	12.882
332.85	9.327
333.06	11.165
333.27	8.950
333.48	10.204
333.68	8.087
333.89	10.337
334.10	11.332
334.31	11.703
334.52	8.427
334.72	7.927
334.93	8.514
335.14	10.041
335.35	9.676
335.56	10.989
335.76	8.189
335.97	10.805
336.18	8.767
336.39	12.637
336.60	11.875
336.80	8.528
337.01	9.276
337.22	6.349
337.43	10.920
337.64	10.054
337.84	10.386
338.05	9.542
338.26	13.978
338.47	11.955
338.68	7.347
338.88	10.127
339.09	12.439
339.30	9.305
339.51	9.199
339.71	11.185
339.92	9.726
340.13	8.980
340.34	10.649
340.55	6.932
340.75	8.936
340.96	5.192
341.17	10.434
341.38	10.218
341.58	9.400
341.79	9.190
342.00	9.583
342.21	10.636
342.41	5.964
342.62	9.791
342.83	10.862
343.04	6.829
343.24	8.846
343.45	10.569
343.66	9.254
343.87	8.828
344.07	9.486
344.28	8.666
344.49	9.159
344.70	10.354
344.90	8.929
345.11	6.891
345.32	7.076
345.53	9.437
345.73	11.111
345.94	8.835
346.15	10.020
346.36	6.091
346.56	9.266
346.77	9.877
346.98	9.217
347.19	8.278
347.39	7.751
347.60	7.380
347.81	8.594
348.02	7.787
348.22	8.382
348.43	7.817
348.64	9.368
348.84	7.316
349.05	8.620
349.26	8.614
349.47	7.089
349.67	8.583
349.88	9.337
350.09	9.409
350.30	10.796
350.50	9.099
350.71	10.351
350.92	8.827
351.12	6.367
351.33	9.336
351.54	8.886
351.74	7.201
351.95	9.099
352.16	9.820
352.37	11.187
352.57	9.656
352.78	9.135
352.99	9.437
353.19	9.062
353.40	7.809
353.61	9.699
353.82	7.025
354.02	8.279
354.23	7.263
354.44	9.428
354.64	6.819
354.85	7.894
355.06	7.457
355.26	5.890
355.47	6.794
355.68	10.402
355.88	9.710
356.09	9.278
356.30	6.469
356.51	8.287
356.71	7.041
356.92	7.011
357.13	7.776
357.33	9.276
357.54	7.615
357.75	6.900
357.95	7.070
358.16	6.923
358.37	8.702
358.57	6.071
358.78	8.861
358.99	8.416
359.19	6.582
359.40	7.821
359.61	6.482
359.81	8.431
360.02	9.636
360.23	8.026
360.43	6.265
360.64	6.392
360.85	6.197
361.05	4.910
361.26	8.734
361.47	6.845
361.67	6.618
361.88	4.198
362.09	5.758
362.29	4.723
362.50	5.823
362.70	3.778
362.91	5.836
363.12	5.733
363.32	5.323
363.53	5.795
363.74	5.840
363.94	4.855
364.15	8.131
364.36	6.327
364.56	6.266
364.77	6.687
364.98	7.972
365.18	8.158
365.39	8.193
365.59	5.846
365.80	7.262
366.01	6.820
366.21	5.214
366.42	6.195
366.63	7.685
366.83	5.482
367.04	5.484
367.24	9.771
367.45	6.359
367.66	7.044
367.86	5.516
368.07	7.403
368.28	6.738
368.48	5.364
368.69	5.940
368.89	7.132
369.10	6.435
369.31	7.018
369.51	6.491
369.72	8.016
369.92	8.111
370.13	5.581
370.34	6.951
370.54	5.383
370.75	6.302
370.95	4.775
371.16	6.952
371.37	6.973
371.57	5.586
371.78	5.653
371.98	7.049
372.19	6.895
372.40	7.266
372.60	6.602
372.81	6.736
373.01	5.031
373.22	5.600
373.43	6.021
373.63	6.750
373.84	7.562
374.04	6.713
374.25	6.567
374.46	7.046
374.66	7.226
374.87	6.497
375.07	4.911
375.28	4.050
375.48	6.906
375.69	5.384
375.90	4.189
376.10	5.625
376.31	5.431
376.51	5.432
376.72	4.586
376.92	5.141
377.13	5.981
377.34	6.412
377.54	5.826
377.75	6.044
377.95	5.664
378.16	7.083
378.36	6.113
378.57	4.466
378.77	5.508
378.98	5.687
379.19	4.550
379.39	5.698
379.60	6.508
379.80	4.855
380.01	6.117
380.21	5.074
380.42	5.685
380.62	3.987
380.83	5.255
381.04	5.310
381.24	6.252
381.45	5.909
381.65	3.853
381.86	5.309
382.06	6.903
382.27	4.535
382.47	4.299
382.68	5.925
382.88	4.507
383.09	4.611
383.29	5.412
383.50	5.746
383.71	8.079
383.91	3.525
384.12	4.203
384.32	6.487
384.53	5.171
384.73	4.742
384.94	5.461
385.14	5.115
385.35	3.969
385.55	5.736
385.76	4.581
385.96	5.492
386.17	5.252
386.37	5.140
386.58	4.748
386.78	5.366
386.99	4.696
387.19	6.461
387.40	4.979
387.60	5.572
387.81	4.332
388.01	4.706
388.22	4.350
388.42	4.744
388.63	5.378
388.83	5.860
389.04	4.295
389.24	4.608
389.45	3.334
389.65	4.373
389.86	5.624
390.06	3.877
390.27	3.719
390.47	4.794
390.68	4.826
390.88	4.891
391.09	4.731
391.29	4.723
391.50	4.583
391.70	4.532
391.91	3.915
392.11	4.222
392.32	4.732
392.52	4.760
392.73	4.819
392.93	3.996
393.14	4.885
393.34	4.455
393.55	4.554
393.75	3.719
393.95	4.294
394.16	4.405
394.36	4.011
394.57	4.810
394.77	4.301
394.98	3.399
395.18	3.862
395.39	4.444
395.59	4.301
395.80	3.937
396.00	4.205
396.21	5.757
396.41	3.708
396.61	5.232
396.82	4.517
397.02	5.494
397.23	4.513
397.43	4.361
397.64	4.862
397.84	5.532
398.05	3.405
398.25	5.021
398.45	4.214
398.66	4.485
398.86	4.638
399.07	5.407
399.27	4.109
399.48	4.784
399.68	3.532
399.89	3.552
400.09	4.505
400.29	3.752
400.50	4.406
400.70	5.528
400.91	3.941
401.11	3.713
401.32	5.404
401.52	3.712
401.72	4.536
401.93	4.608
402.13	4.658
402.34	4.346
402.54	2.977
402.75	5.868
402.95	5.355
403.15	5.737
403.36	4.933
403.56	4.695
403.77	4.732
403.97	4.485
404.17	3.744
404.38	3.820
404.58	4.098
404.79	4.685
404.99	3.707
405.19	3.242
405.40	4.172
405.60	3.668
405.81	4.449
406.01	4.343
406.21	4.939
406.42	3.430
406.62	4.808
406.83	4.327
407.03	4.658
407.23	3.595
407.44	3.657
407.64	3.383
407.85	4.268
408.05	4.001
408.25	3.519
408.46	4.844
408.66	4.177
408.87	2.551
409.07	4.294
409.27	3.154
409.48	4.156
409.68	4.437
409.88	3.865
410.09	3.866
410.29	5.049
410.50	4.211
410.70	3.989
410.90	4.132
411.11	3.869
411.31	4.145
411.51	4.167
411.72	4.809
411.92	3.823
412.12	3.605
412.33	3.216
412.53	3.715
412.74	3.414
412.94	3.929
413.14	3.767
413.35	3.674
413.55	4.216
413.75	3.140
413.96	3.333
414.16	3.685
414.36	4.395
414.57	4.551
414.77	3.384
414.97	4.614
415.18	3.409
415.38	4.097
415.58	3.656
415.79	4.087
415.99	4.303
416.19	3.897
416.40	3.879
416.60	3.293
416.80	3.489
417.01	3.580
417.21	2.857
417.41	4.270
417.62	3.257
417.82	3.136
418.02	2.868
418.23	3.128
418.43	2.827
418.63	3.637
418.84	3.767
419.04	2.903
419.24	4.162
419.45	2.992
419.65	3.247
419.85	3.008
420.06	3.282
420.26	2.706
420.46	2.822
420.67	3.065
420.87	2.907
421.07	3.312
421.28	2.509
421.48	3.094
421.68	3.201
421.88	3.280
422.09	3.032
422.29	2.712
422.49	2.656
422.70	2.329
422.90	2.981
423.10	3.075
423.31	2.569
423.51	3.222
423.71	2.752
423.91	3.227
424.12	3.716
424.32	3.033
424.52	3.261
424.73	2.671
424.93	2.848
425.13	2.405
425.33	2.357
425.54	2.963
425.74	2.333
425.94	3.511
426.15	2.839
426.35	2.761
426.55	2.970
426.75	3.191
426.96	3.025
427.16	2.904
427.36	2.832
427.57	3.271
427.77	2.986
427.97	2.716
428.17	3.389
428.38	3.864
428.58	2.513
428.78	3.792
428.98	3.035
429.19	2.837
429.39	2.629
429.59	3.392
429.79	3.143
430.00	3.069
430.20	2.865
430.40	2.838
430.60	2.792
430.81	2.998
431.01	2.651
431.21	2.760
431.41	2.247
431.62	2.901
431.82	3.135
432.02	4.018
432.22	3.028
432.43	2.475
432.63	2.123
432.83	2.972
433.03	2.449
433.24	2.782
433.44	2.532
433.64	3.319
433.84	2.581
434.05	2.880
434.25	2.333
434.45	3.203
434.65	3.122
434.85	3.798
435.06	3.020
435.26	3.215
435.46	2.623
435.66	2.773
435.87	2.643
436.07	2.941
436.27	3.099
436.47	2.254
436.67	3.019
436.88	2.690
437.08	3.179
437.28	2.879
437.48	2.722
437.69	2.673
437.89	3.191
438.09	3.386
438.29	2.405
438.49	3.534
438.70	3.397
438.90	2.392
439.10	2.459
439.30	2.661
439.50	2.878
439.71	2.314
439.91	2.676
440.11	3.156
440.31	2.821
440.51	2.209
440.72	2.641
440.92	2.124
441.12	2.742
441.32	3.165
441.52	3.349
441.72	2.873
441.93	2.753
442.13	3.310
442.33	2.535
442.53	3.597
442.73	2.530
442.94	2.474
443.14	2.452
443.34	4.288
443.54	2.933
443.74	3.541
443.94	2.404
444.15	2.403
444.35	2.421
444.55	3.236
444.75	2.706
444.95	2.892
445.15	3.291
445.36	2.877
445.56	2.155
445.76	3.094
445.96	2.408
446.16	2.290
446.36	2.310
446.57	3.128
446.77	2.084
446.97	2.671
447.17	2.963
447.37	2.489
447.57	3.020
447.77	2.536
447.98	2.711
448.18	3.563
448.38	2.160
448.58	2.692
448.78	2.763
448.98	2.653
449.18	2.102
449.39	2.949
449.59	2.590
449.79	2.275
449.99	2.449
450.19	2.557
450.39	2.684
450.59	2.367
450.79	2.292
451.00	2.801
451.20	3.692
451.40	2.808
451.60	3.167
451.80	3.549
452.00	2.499
452.20	2.735
452.40	2.853
452.61	2.323
452.81	2.406
453.01	2.472
453.21	2.455
453.41	2.651
453.61	2.465
453.81	2.107
454.01	2.713
454.21	3.038
454.42	3.261
454.62	2.814
454.82	1.905
455.02	2.396
455.22	1.909
455.42	2.910
455.62	2.194
455.82	2.273
456.02	3.000
456.23	2.878
456.43	3.232
456.63	2.548
456.83	1.490
457.03	2.296
457.23	3.295
457.43	2.971
457.63	2.627
457.83	3.091
458.03	3.111
458.23	2.603
458.43	2.489
458.64	2.404
458.84	2.679
459.04	3.159
459.24	2.315
459.44	3.000
459.64	2.754
459.84	2.623
460.04	2.075
460.24	2.463
460.44	2.612
460.64	2.601
460.84	2.258
461.04	3.191
461.24	2.937
461.45	2.900
461.65	3.116
461.85	2.664
462.05	2.755
462.25	2.891
462.45	3.101
462.65	2.838
462.85	2.141
463.05	2.543
463.25	2.338
463.45	2.932
463.65	2.997
463.85	2.854
464.05	2.937
464.25	2.533
464.45	3.204
464.65	2.911
464.85	2.563
465.05	2.391
465.26	2.684
465.46	2.827
465.66	3.489
465.86	2.890
466.06	2.914
466.26	3.190
466.46	2.251
466.66	2.638
466.86	2.721
467.06	3.037
467.26	2.608
467.46	3.752
467.66	3.230
467.86	2.758
468.06	2.519
468.26	2.065
468.46	2.548
468.66	2.741
468.86	2.273
469.06	2.899
469.26	2.700
469.46	2.835
469.66	2.483
469.86	3.051
470.06	2.225
470.26	3.321
470.46	2.686
470.66	2.886
470.86	2.781
471.06	2.802
471.26	2.275
471.46	2.119
471.66	2.935
471.86	2.664
472.06	2.628
472.26	3.599
472.46	3.177
472.66	2.562
472.86	2.545
473.06	3.357
473.26	2.766
473.46	3.210
473.66	2.833
473.86	3.020
474.06	2.489
474.26	3.477
474.46	2.545
474.66	3.332
474.86	3.072
475.06	3.128
475.26	2.206
475.46	4.125
475.66	2.465
475.86	3.444
476.06	3.554
476.26	3.635
476.46	3.143
476.66	3.455
476.86	2.959
477.06	2.856
477.26	3.050
477.46	3.513
477.65	2.870
477.85	3.604
478.05	2.210
478.25	4.030
478.45	2.856
478.65	3.597
478.85	2.884
479.05	3.699
479.25	3.008
479.45	4.418
479.65	2.846
479.85	3.162
480.05	3.223
480.25	3.525
480.45	3.278
480.65	4.181
480.85	3.013
481.05	3.968
481.25	3.634
481.44	4.170
481.64	2.791
481.84	4.464
482.04	3.644
482.24	4.255
482.44	2.640
482.64	2.977
482.84	3.796
483.04	3.605
483.24	3.592
483.44	3.639
483.64	3.405
483.84	4.107
484.04	4.093
484.23	4.259
484.43	4.365
484.63	4.597
484.83	4.405
485.03	5.192
485.23	4.781
485.43	5.096
485.63	4.783
485.83	4.971
486.03	4.457
486.23	4.973
486.42	4.515
486.62	5.038
486.82	4.049
487.02	4.299
487.22	3.936
487.42	4.493
487.62	4.345
487.82	4.041
488.02	3.680
488.22	4.336
488.41	4.215
488.61	4.324
488.81	4.255
489.01	4.668
489.21	4.576
489.41	4.679
489.61	4.554
489.81	5.022
490.01	4.540
490.20	4.688
490.40	4.493
490.60	4.776
490.80	3.964
491.00	4.496
491.20	3.944
491.40	4.086
491.60	3.810
491.79	4.485
491.99	4.215
492.19	4.600
492.39	4.345
492.59	4.520
492.79	4.429
492.99	4.501
493.19	4.312
493.38	5.035
493.58	4.097
493.78	4.416
493.98	4.896
494.18	4.856
494.38	4.170
494.58	4.625
494.77	3.422
494.97	4.236
495.17	3.206
495.37	3.968
495.57	3.811
495.77	4.672
495.96	3.675
496.16	3.930
496.36	2.805
496.56	4.136
496.76	3.597
496.96	4.384
497.15	3.336
497.35	3.678
497.55	3.553
497.75	4.042
497.95	2.790
498.15	4.730
498.34	3.663
498.54	3.587
498.74	4.376
498.94	4.778
499.14	3.347
499.34	4.724
499.53	3.693
499.73	4.272
499.93	3.580
500.13	4.401
500.33	3.443
500.52	3.574
500.72	3.612
500.92	3.882
501.12	2.848
501.32	3.776
501.52	3.352
501.71	3.412
501.91	3.146
502.11	3.710
502.31	2.899
502.51	3.898
502.70	2.749
502.90	3.702
503.10	3.374
503.30	4.420
503.50	3.948
503.69	3.825
503.89	3.628
504.09	4.183
504.29	3.602
504.48	3.881
504.68	4.397
504.88	3.786
505.08	3.140
505.28	4.291
505.47	3.830
505.67	4.121
505.87	3.426
506.07	3.929
506.27	3.515
506.46	4.411
506.66	3.129
506.86	4.057
507.06	4.435
507.25	3.948
507.45	3.410
507.65	3.645
507.85	3.488
508.04	4.343
508.24	3.990
508.44	3.582
508.64	3.386
508.83	4.316
509.03	3.164
509.23	4.200
509.43	3.005
509.63	3.744
509.82	3.084
510.02	3.764
510.22	3.363
510.42	4.134
510.61	3.695
510.81	3.527
511.01	3.997
511.21	4.188
511.40	3.469
511.60	3.912
511.80	3.560
511.99	4.451
512.19	3.894
512.39	4.647
512.59	3.430
512.78	3.943
512.98	4.279
513.18	3.751
513.38	3.533
513.57	4.577
513.77	4.001
513.97	4.114
514.17	3.026
514.36	4.296
514.56	3.460
514.76	4.141
514.95	2.726
515.15	3.855
515.35	3.002
515.55	4.150
515.74	4.213
515.94	4.832
516.14	3.255
516.33	3.858
516.53	3.323
516.73	3.339
516.93	3.227
517.12	4.555
517.32	3.093
517.52	3.713
517.71	3.208
517.91	3.925
518.11	4.083
518.30	3.527
518.50	2.697
518.70	3.802
518.90	3.826
519.09	4.324
519.29	4.214
519.49	4.116
519.68	3.380
519.88	4.400
520.08	4.352
520.27	4.657
520.47	4.055
520.67	4.362
520.86	4.228
521.06	4.309
521.26	3.034
521.45	4.355
521.65	3.684
521.85	3.649
522.04	3.141
522.24	3.916
522.44	3.578
522.63	4.037
522.83	3.347
523.03	4.335
523.22	3.533
523.42	4.156
523.62	4.365
523.81	4.104
524.01	3.999
524.21	3.780
524.40	2.955
524.60	3.766
524.80	3.396
524.99	3.923
525.19	3.684
525.39	3.861
525.58	3.356
525.78	4.201
525.98	3.690
526.17	4.112
526.37	3.681
526.57	4.316
526.76	3.970
526.96	4.607
527.15	3.534
527.35	4.395
527.55	3.533
527.74	4.838
527.94	4.606
528.14	4.292
528.33	4.262
528.53	4.480
528.72	4.065
528.92	4.781
529.12	4.586
529.31	4.488
529.51	4.757
529.71	4.818
529.90	4.926
530.10	5.187
530.29	4.980
530.49	5.072
530.69	4.806
530.88	5.179
531.08	5.021
531.28	4.848
531.47	4.430
531.67	4.772
531.86	4.070
532.06	4.674
532.26	3.631
532.45	4.434
532.65	3.729
532.84	4.468
533.04	3.682
533.24	4.270
533.43	3.456
533.63	4.833
533.82	3.978
534.02	4.498
534.22	4.337
534.41	4.827
534.61	4.650
534.80	4.590
535.00	4.688
535.19	4.644
535.39	4.793
535.59	4.822
535.78	4.026
535.98	4.477
536.17	3.771
536.37	4.021
536.57	3.896
536.76	4.783
536.96	3.982
537.15	4.692
537.35	3.639
537.54	4.211
537.74	3.867
537.93	4.627
538.13	3.597
538.33	3.990
538.52	4.040
538.72	4.545
538.91	3.922
539.11	4.156
539.30	3.069
539.50	4.130
539.70	3.863
539.89	4.270
540.09	4.107
540.28	4.542
540.48	3.072
540.67	4.128
540.87	3.573
541.06	4.580
541.26	3.916
541.45	4.586
541.65	4.129
541.85	4.533
542.04	4.552
542.24	5.012
542.43	4.709
542.63	4.984
542.82	4.645
543.02	5.334
543.21	4.577
543.41	5.091
543.60	4.528
543.80	5.348
543.99	4.559
544.19	4.750
544.38	4.292
544.58	5.326
544.77	4.082
544.97	5.177
545.16	3.810
545.36	4.721
545.56	3.984
545.75	4.112
545.95	3.712
546.14	4.511
546.34	3.419
546.53	5.123
546.73	3.936
546.92	5.035
547.12	3.674
547.31	4.473
547.51	4.050
547.70	4.586
547.90	3.380
548.09	4.156
548.29	3.502
548.48	4.363
548.68	3.853
548.87	5.014
549.07	4.289
549.26	4.007
549.46	4.105
549.65	4.026
549.84	3.871
550.04	3.663
550.23	3.579
550.43	3.844
550.62	4.472
550.82	3.876
551.01	3.315
551.21	4.123
551.40	3.456
551.60	4.140
551.79	3.073
551.99	3.668
552.18	3.732
552.38	3.888
552.57	3.895
552.77	3.948
552.96	4.435
553.16	4.829
553.35	4.037
553.54	5.662
553.74	4.165
553.93	4.632
554.13	4.413
554.32	4.654
554.52	3.971
554.71	5.756
554.91	3.931
555.10	4.959
555.29	3.936
555.49	4.569
555.68	3.728
555.88	4.582
556.07	3.741
556.27	4.463
556.46	4.592
556.66	4.538
556.85	5.015
557.04	5.056
557.24	4.379
557.43	5.283
557.63	4.584
557.82	4.167
558.02	3.977
558.21	5.144
558.40	3.568
558.60	4.720
558.79	4.640
558.99	4.849
559.18	4.683
559.38	4.692
559.57	4.530
559.76	5.499
559.96	6.237
560.15	5.549
560.35	4.323
560.54	5.059
560.73	4.248
560.93	5.614
561.12	5.102
561.32	5.625
561.51	5.191
561.70	4.885
561.90	4.684
562.09	6.333
562.29	4.463
562.48	5.618
562.67	5.521
562.87	6.319
563.06	5.141
563.26	5.120
563.45	5.480
563.64	6.444
563.84	6.051
564.03	6.446
564.23	5.329
564.42	7.195
564.61	6.926
564.81	6.378
565.00	5.973
565.20	7.168
565.39	7.435
565.58	6.905
565.78	5.532
565.97	6.137
566.16	6.876
566.36	8.056
566.55	6.648
566.74	6.743
566.94	6.047
567.13	7.915
567.33	6.121
567.52	7.309
567.71	7.193
567.91	8.278
568.10	7.911
568.29	7.677
568.49	7.047
568.68	8.074
568.87	6.582
569.07	7.320
569.26	6.975
569.45	8.518
569.65	7.442
569.84	7.356
570.04	6.912
570.23	8.287
570.42	6.046
570.62	7.343
570.81	7.131
571.00	8.843
571.20	7.723
571.39	8.576
571.58	7.397
571.78	8.978
571.97	7.629
572.16	7.895
572.36	8.136
572.55	9.296
572.74	8.492
572.94	8.290
573.13	8.258
573.32	10.026
573.51	7.691
573.71	9.298
573.90	8.034
574.09	9.759
574.29	8.261
574.48	8.828
574.67	7.290
574.87	8.831
575.06	7.991
575.25	9.675
575.45	8.501
575.64	9.057
575.83	8.900
576.03	9.545
576.22	8.223
576.41	8.843
576.60	7.724
576.80	8.816
576.99	9.227
577.18	10.042
577.38	7.607
577.57	8.714
577.76	9.682
577.95	10.088
578.15	7.486
578.34	8.485
578.53	7.674
578.73	9.394
578.92	7.057
579.11	7.888
579.30	8.498
579.50	6.540
579.69	8.795
579.88	7.974
580.08	6.755
580.27	8.884
580.46	8.444
580.65	8.826
580.85	7.171
581.04	8.218
581.23	7.708
581.42	8.140
581.62	6.380
581.81	8.513
582.00	7.666
582.19	8.081
582.39	8.238
582.58	7.490
582.77	8.354
582.96	7.839
583.16	7.530
583.35	8.663
583.54	8.544
583.73	8.353
583.93	6.975
584.12	6.838
584.31	6.002
584.50	7.582
584.70	7.373
584.89	8.771
585.08	7.323
585.27	9.110
585.47	6.678
585.66	7.776
585.85	5.890
586.04	6.396
586.24	8.319
586.43	7.585
586.62	6.102
586.81	8.196
587.00	6.157
587.20	7.812
587.39	6.209
587.58	8.403
587.77	7.871
587.97	6.461
588.16	6.734
588.35	8.408
588.54	6.069
588.73	6.869
588.93	7.041
589.12	8.355
589.31	7.013
589.50	7.394
589.69	8.587
589.89	8.734
590.08	6.543
590.27	7.403
590.46	7.859
590.65	7.400
590.85	7.449
591.04	8.390
591.23	6.740
591.42	7.839
591.61	7.111
591.81	6.910
592.00	6.618
592.19	8.624
592.38	6.323
592.57	7.618
592.77	7.499
592.96	6.546
593.15	8.397
593.34	8.558
593.53	7.534
593.72	6.900
593.92	5.956
594.11	8.783
594.30	6.393
594.49	8.181
594.68	7.360
594.87	8.177
595.07	6.230
595.26	8.969
595.45	6.941
595.64	8.564
595.83	7.014
596.02	8.027
596.22	7.145
596.41	8.428
596.60	8.234
596.79	9.274
596.98	7.955
597.17	9.207
597.37	8.194
597.56	9.471
597.75	7.761
597.94	8.959
598.13	9.069
598.32	8.804
598.51	7.915
598.71	10.083
598.90	8.254
599.09	9.303
599.28	7.933
599.47	8.179
599.66	7.718
599.85	8.871
600.05	7.834
600.24	8.469
600.43	8.794
600.62	8.225
600.81	9.111
601.00	8.740
601.19	7.831
601.38	8.315
601.58	8.249
601.77	8.383
601.96	7.574
602.15	8.911
602.34	8.575
602.53	10.424
602.72	8.254
602.91	9.304
603.10	8.195
603.30	9.633
603.49	7.839
603.68	9.445
603.87	7.304
604.06	8.834
604.25	9.568
604.44	9.101
604.63	9.471
604.82	10.644
605.01	10.177
605.21	9.333
605.40	8.106
605.59	10.033
605.78	9.736
605.97	10.755
606.16	10.199
606.35	11.161
606.54	8.534
606.73	10.942
606.92	7.966
607.11	10.873
607.30	9.181
607.50	9.963
607.69	7.977
607.88	8.940
608.07	8.174
608.26	8.665
608.45	8.451
608.64	9.445
608.83	8.174
609.02	7.918
609.21	8.182
609.40	10.024
609.59	7.990
609.78	9.028
609.97	8.161
610.16	9.564
610.35	9.239
610.55	8.993
610.74	8.482
610.93	9.519
611.12	7.801
611.31	8.964
611.50	7.723
611.69	7.896
611.88	7.882
612.07	9.325
612.26	7.053
612.45	8.568
612.64	6.948
612.83	8.523
613.02	6.524
613.21	7.242
613.40	7.881
613.59	7.896
613.78	6.636
613.97	7.633
614.16	5.346
614.35	8.061
614.54	6.059
614.73	7.275
614.92	7.038
615.11	5.641
615.30	7.093
615.49	5.782
615.68	7.553
615.87	6.316
616.07	5.173
616.26	5.885
616.45	7.159
616.64	6.067
616.83	5.914
617.02	6.918
617.21	5.831
617.40	6.279
617.59	5.648
617.78	7.071
617.97	7.189
618.16	6.187
618.35	4.763
618.54	5.909
618.73	6.493
618.92	6.014
619.11	6.251
619.30	6.911
619.49	5.554
619.68	6.535
619.86	6.441
620.05	5.818
620.24	6.386
620.43	5.158
620.62	4.980
620.81	5.888
621.00	6.918
621.19	7.298
621.38	6.729
621.57	8.181
621.76	6.062
621.95	5.947
622.14	6.820
622.33	6.780
622.52	5.730
622.71	6.364
622.90	4.680
623.09	6.916
623.28	7.509
623.47	6.382
623.66	6.033
623.85	6.147
624.04	5.907
624.23	6.309
624.42	5.734
624.61	5.146
624.80	5.080
624.99	5.908
625.18	5.002
625.36	6.129
625.55	6.369
625.74	5.463
625.93	4.783
626.12	5.556
626.31	7.009
626.50	5.464
626.69	6.332
626.88	7.754
627.07	6.649
627.26	6.013
627.45	5.973
627.64	6.327
627.83	5.574
628.02	6.432
628.20	5.566
628.39	6.794
628.58	6.162
628.77	7.048
628.96	5.245
629.15	4.494
629.34	6.096
629.53	5.054
629.72	3.914
629.91	7.307
630.10	5.733
630.29	5.321
630.47	4.840
630.66	4.414
630.85	5.178
631.04	5.465
631.23	4.498
631.42	5.017
631.61	5.079
631.80	5.545
631.99	4.185
632.18	4.660
632.36	3.236
632.55	6.284
632.74	5.296
632.93	4.797
633.12	4.465
633.31	5.526
633.50	6.340
633.69	5.296
633.88	3.948
634.06	5.922
634.25	5.032
634.44	4.809
634.63	5.939
634.82	5.805
635.01	3.241
635.20	4.625
635.39	3.862
635.57	5.005
635.76	5.290
635.95	4.136
636.14	4.806
636.33	5.635
636.52	5.626
636.71	4.390
636.89	5.443
637.08	4.979
637.27	5.079
637.46	4.023
637.65	4.950
637.84	5.536
638.03	4.324
638.21	6.579
638.40	6.056
638.59	4.546
638.78	5.040
638.97	6.809
639.16	6.088
639.34	4.132
639.53	4.585
639.72	6.757
639.91	4.595
640.10	4.873
640.29	6.742
640.47	7.127
640.66	6.329
640.85	6.250
641.04	4.862
641.23	6.247
641.42	6.368
641.60	5.182
641.79	6.463
641.98	6.766
642.17	4.912
642.36	5.691
642.54	4.537
642.73	6.008
642.92	5.304
643.11	5.918
643.30	5.510
643.49	4.914
643.67	5.145
643.86	6.341
644.05	4.720
644.24	5.348
644.43	6.041
644.61	6.124
644.80	4.975
644.99	5.609
645.18	8.884
645.37	6.025
645.55	5.347
645.74	5.508
645.93	5.158
646.12	6.024
646.31	5.875
646.49	5.134
646.68	6.022
646.87	5.405
647.06	5.282
647.24	5.975
647.43	4.485
647.62	6.768
647.81	4.758
648.00	6.369
648.18	5.250
648.37	4.534
648.56	5.472
648.75	4.763
648.93	4.800
649.12	4.910
649.31	4.088
649.50	4.014
649.68	5.768
649.87	5.184
650.06	4.944
650.25	4.501
650.43	5.164
650.62	3.851
650.81	5.859
651.00	4.562
651.18	4.866
651.37	7.121
651.56	3.729
651.75	5.738
651.93	7.054
652.12	6.571
652.31	4.605
652.50	5.135
652.68	6.092
652.87	5.734
653.06	6.089
653.25	6.024
653.43	5.141
653.62	6.239
653.81	5.532
654.00	5.856
654.18	5.503
654.37	5.535
654.56	6.410
654.74	4.265
654.93	4.591
655.12	5.240
655.31	5.382
655.49	5.601
655.68	4.229
655.87	4.854
656.05	4.626
656.24	4.759
656.43	5.066
656.62	5.637
656.80	6.498
656.99	5.932
657.18	5.560
657.36	3.410
657.55	4.973
657.74	3.970
657.93	6.403
658.11	6.073
658.30	6.013
658.49	4.953
658.67	5.346
658.86	3.924
659.05	4.753
659.23	5.780
659.42	4.798
659.61	4.647
659.79	4.005
659.98	4.998
660.17	4.898
660.35	4.582
660.54	6.249
660.73	6.910
660.91	4.928
661.10	4.085
661.29	3.731
661.47	4.502
661.66	4.996
661.85	5.271
662.03	5.681
662.22	4.784
662.41	3.371
662.59	4.398
662.78	4.959
662.97	6.294
663.15	4.176
663.34	4.667
663.53	4.161
663.71	5.294
663.90	5.557
664.09	6.291
664.27	5.875
664.46	4.531
664.65	5.210
664.83	4.554
665.02	5.314
665.21	4.126
665.39	6.033
665.58	5.501
665.77	5.139
665.95	7.309
666.14	5.041
666.32	6.754
666.51	6.491
666.70	5.467
666.88	5.341
667.07	6.039
667.26	4.749
667.44	5.841
667.63	5.967
667.81	4.575
668.00	5.139
668.19	7.983
668.37	5.373
668.56	6.385
668.75	4.798
668.93	6.312
669.12	5.519
669.30	5.134
669.49	5.365
669.68	6.636
669.86	6.902
670.05	4.463
670.23	6.661
670.42	5.409
670.61	5.196
670.79	5.784
670.98	6.439
671.16	7.943
671.35	5.566
671.54	7.015
671.72	7.138
671.91	5.845
672.09	5.491
672.28	6.564
672.46	8.723
672.65	6.095
672.84	8.541
673.02	7.170
673.21	5.028
673.39	6.158
673.58	7.995
673.77	7.119
673.95	6.891
674.14	7.742
674.32	6.512
674.51	7.381
674.69	3.781
674.88	7.265
675.07	6.311
675.25	7.785
675.44	7.060
675.62	7.647
675.81	5.610
675.99	10.523
676.18	7.921
676.36	5.992
676.55	6.618
676.74	7.534
676.92	10.632
677.11	5.931
677.29	6.685
677.48	8.706
677.66	6.913
677.85	5.934
678.03	6.944
678.22	9.295
678.40	7.676
678.59	6.590
678.78	8.151
678.96	5.624
679.15	7.363
679.33	7.400
679.52	7.428
679.70	7.906
679.89	7.592
680.07	8.516
680.26	6.124
680.44	7.081
680.63	7.010
680.81	6.411
681.00	6.085
681.18	7.433
681.37	7.429
681.55	6.823
681.74	7.053
681.92	7.545
682.11	8.906
682.29	6.749
682.48	7.965
682.66	8.241
682.85	6.939
683.03	7.947
683.22	7.719
683.40	8.164
683.59	7.858
683.77	10.025
683.96	6.888
684.14	9.499
684.33	7.925
684.51	11.025
684.70	7.785
684.88	11.354
685.07	7.622
685.25	10.137
685.44	8.023
685.62	8.481
685.81	6.667
685.99	10.513
686.18	6.197
686.36	9.402
686.55	6.263
686.73	7.872
686.92	9.459
687.10	8.629
687.29	9.469
687.47	8.548
687.65	11.771
687.84	8.307
688.02	11.775
688.21	12.964
688.39	9.229
688.58	8.807
688.76	8.932
688.95	9.552
689.13	7.994
689.32	11.584
689.50	7.818
689.68	10.986
689.87	10.687
690.05	9.603
690.24	11.289
690.42	9.629
690.61	10.801
690.79	11.583
690.98	10.624
691.16	10.193
691.34	7.916
691.53	10.015
691.71	11.619
691.90	10.260
692.08	9.514
692.27	12.491
692.45	12.616
692.63	11.306
692.82	14.587
693.00	12.534
693.19	11.193
693.37	16.260
693.56	11.116
693.74	14.927
693.92	12.866
694.11	15.123
694.29	15.385
694.48	17.472
694.66	14.769
694.84	16.375
695.03	13.518
695.21	19.877
695.40	19.765
695.58	22.068
695.76	17.744
695.95	20.109
696.13	18.612
696.32	22.339
696.50	28.904
696.68	20.274
696.87	19.573
697.05	21.907
697.24	21.977
697.42	25.201
697.60	22.387
697.79	25.935
697.97	27.385
698.16	27.178
698.34	22.895
698.52	29.271
698.71	28.210
698.89	29.878
699.07	29.438
699.26	31.022
699.44	31.690
699.63	34.334
699.81	30.558
699.99	34.930
700.18	35.817
700.36	35.575
700.54	35.247
700.73	34.498
700.91	35.845
701.09	37.298
701.28	37.193
701.46	38.577
701.64	36.377
701.83	39.914
702.01	38.120
702.20	47.309
702.38	43.221
702.56	42.116
702.75	41.663
702.93	43.666
703.11	43.930
703.30	45.531
703.48	44.025
703.66	49.170
703.85	45.263
704.03	49.626
704.21	47.604
704.40	50.462
704.58	47.326
704.76	49.503
704.95	48.392
705.13	49.344
705.31	50.493
705.50	54.866
705.68	51.472
705.86	53.823
706.04	53.085
706.23	55.166
706.41	52.923
706.59	52.552
706.78	55.012
706.96	61.847
707.14	55.452
707.33	57.648
707.51	53.898
707.69	60.500
707.88	57.347
708.06	55.477
708.24	56.475
708.42	61.527
708.61	59.697
708.79	60.676
708.97	62.580
709.16	63.375
709.34	65.446
709.52	59.242
709.71	62.370
709.89	64.097
710.07	63.419
710.25	63.281
710.44	63.970
710.62	66.044
710.80	65.520
710.98	65.916
711.17	65.237
711.35	61.431
711.53	62.031
711.72	66.696
711.90	67.627
712.08	69.051
712.26	69.196
712.45	65.051
712.63	65.139
712.81	69.379
712.99	69.303
713.18	70.663
713.36	70.337
713.54	67.864
713.72	67.759
713.91	69.644
714.09	68.905
714.27	70.330
714.45	70.826
714.64	69.834
714.82	72.769
715.00	73.445
715.18	74.148
715.37	72.785
715.55	70.415
715.73	75.818
715.91	72.965
716.10	70.942
716.28	70.357
716.46	76.468
716.64	73.566
716.83	74.885
717.01	73.091
717.19	70.870
717.37	71.976
717.55	76.471
717.74	74.013
717.92	73.150
718.10	70.940
718.28	73.979
718.47	72.352
718.65	76.366
718.83	74.180
719.01	79.838
719.19	81.618
719.38	75.579
719.56	73.001
719.74	79.836
719.92	75.141
720.10	77.340
720.29	79.432
720.47	79.002
720.65	80.910
720.83	78.506
721.01	76.086
721.20	76.738
721.38	83.223
721.56	78.892
721.74	81.791
721.92	81.192
722.11	77.622
722.29	85.322
722.47	80.552
722.65	80.829
722.83	76.983
723.01	81.946
723.20	80.661
723.38	80.772
723.56	77.825
723.74	82.888
723.92	78.967
724.10	84.878
724.29	77.756
724.47	82.601
724.65	81.365
724.83	83.727
725.01	81.186
725.19	87.036
725.38	80.000
725.56	84.197
725.74	81.167
725.92	85.723
726.10	80.076
726.28	78.305
726.46	78.907
726.65	80.860
726.83	86.030
727.01	88.755
727.19	78.614
727.37	85.893
727.55	81.661
727.73	83.677
727.92	84.000
728.10	86.320
728.28	80.312
728.46	88.252
728.64	86.171
728.82	86.748
729.00	82.265
729.19	84.274
729.37	85.000
729.55	85.895
729.73	82.749
729.91	88.729
730.09	86.239
730.27	84.029
730.45	84.168
730.63	81.267
730.82	88.000
731.00	87.007
731.18	82.836
731.36	84.568
731.54	85.640
731.72	83.246
731.90	83.830
732.08	85.642
732.26	87.327
732.45	85.607
732.63	93.970
732.81	86.932
732.99	84.211
733.17	91.265
733.35	87.233
733.53	86.446
733.71	84.191
733.89	88.380
734.07	85.806
734.25	88.751
734.44	85.978
734.62	86.917
734.80	86.903
734.98	88.371
735.16	89.535
735.34	88.123
735.52	87.925
735.70	86.766
735.88	93.525
736.06	87.603
736.24	94.179
736.42	85.477
736.60	91.039
736.78	90.791
736.97	91.289
737.15	87.632
737.33	93.795
737.51	90.690
737.69	95.522
737.87	92.580
738.05	93.754
738.23	91.553
738.41	88.405
738.59	95.436
738.77	91.997
738.95	97.443
739.13	90.941
739.31	94.700
739.49	92.635
739.67	94.448
739.85	91.191
740.03	87.492
740.21	92.222
740.39	91.140
740.57	94.639
740.75	90.960
740.93	90.486
741.11	95.563
741.30	94.060
741.48	101.590
741.66	87.571
741.84	90.542
742.02	87.482
742.20	92.443
742.38	93.498
742.56	92.725
742.74	87.963
742.92	92.026
743.10	90.850
743.28	92.717
743.46	90.160
743.64	91.830
743.82	95.075
744.00	89.085
744.18	89.756
744.36	92.263
744.54	90.358
744.72	96.684
744.90	95.052
745.08	100.635
745.26	86.415
745.44	98.884
745.62	87.566
745.80	84.603
745.98	89.020
746.16	98.687
746.34	88.720
746.52	92.202
746.70	96.762
746.87	96.502
747.05	90.371
747.23	88.489
747.41	88.899
747.59	91.623
747.77	89.776
747.95	101.652
748.13	88.554
748.31	99.242
748.49	89.286
748.67	98.539
748.85	91.652
749.03	93.577
749.21	96.136
749.39	95.883
749.57	89.608
749.75	93.502
749.93	96.989
750.11	94.369
750.29	90.176
750.47	93.723
750.65	93.972
750.83	95.698
751.01	91.406
751.18	91.225
751.36	84.602
751.54	93.311
751.72	89.478
751.90	91.197
752.08	92.694
752.26	90.027
752.44	92.076
752.62	93.955
752.80	91.451
752.98	95.960
753.16	94.918
753.34	98.564
753.52	92.579
753.69	94.555
753.87	93.057
754.05	93.058
754.23	91.258
754.41	93.584
754.59	87.417
754.77	88.322
754.95	88.131
755.13	91.544
755.31	90.696
755.49	94.920
755.66	90.932
755.84	90.638
756.02	88.046
756.20	95.538
756.38	88.571
756.56	94.229
756.74	94.096
756.92	88.993
757.10	91.835
757.28	101.060
757.45	93.858
757.63	90.573
757.81	89.739
757.99	103.548
758.17	91.522
758.35	87.308
758.53	91.509
758.71	93.833
758.88	89.418
759.06	96.586
759.24	89.646
759.42	85.739
759.60	89.643
759.78	89.497
759.96	88.731
760.13	94.035
760.31	84.458
760.49	88.134
760.67	77.546
760.85	83.207
761.03	74.898
761.21	85.320
761.38	76.770
761.56	91.873
761.74	75.307
761.92	85.859
762.10	74.897
762.28	85.313
762.46	77.796
762.63	84.165
762.81	78.589
762.99	85.128
763.17	82.122
763.35	88.881
763.53	82.547
763.70	91.017
763.88	85.072
764.06	82.289
764.24	79.368
764.42	84.562
764.60	86.086
764.77	81.402
764.95	83.711
765.13	87.262
765.31	83.234
765.49	86.565
765.66	85.131
765.84	86.333
766.02	86.407
766.20	89.948
766.38	87.833
766.56	90.801
766.73	90.554
766.91	90.957
767.09	87.435
767.27	93.935
767.45	84.881
767.62	89.048
767.80	78.720
767.98	91.799
768.16	81.414
768.33	91.582
768.51	92.712
768.69	92.486
768.87	87.943
769.05	91.582
769.22	90.785
769.40	91.911
769.58	86.777
769.76	88.588
769.94	90.206
770.11	91.202
770.29	93.424
770.47	93.567
770.65	87.213
770.82	87.554
771.00	89.810
771.18	87.916
771.36	85.386
771.53	91.250
771.71	90.357
771.89	87.585
772.07	88.443
772.25	94.834
772.42	90.941
772.60	99.880
772.78	94.888
772.96	94.056
773.13	88.056
773.31	102.081
773.49	85.020
773.67	90.012
773.84	89.359
774.02	94.431
774.20	80.097
774.37	89.641
774.55	90.327
774.73	92.460
774.91	89.364
775.08	88.560
775.26	87.449
775.44	92.450
775.62	90.160
775.79	84.766
775.97	85.000
776.15	94.855
776.32	91.869
776.50	86.381
776.68	91.436
776.86	90.857
777.03	89.359
777.21	90.738
777.39	84.529
777.56	90.212
777.74	89.438
777.92	97.710
778.10	84.593
778.27	93.858
778.45	81.969
778.63	87.465
778.80	84.082
778.98	93.405
779.16	86.333
779.34	86.160
779.51	75.887
779.69	86.667
779.87	85.375
780.04	86.314
780.22	92.847
780.40	88.312
780.57	88.933
780.75	78.700
780.93	84.942
781.10	90.096
781.28	97.089
781.46	92.424
781.63	96.519
781.81	96.459
781.99	83.830
782.16	82.945
782.34	83.699
782.52	95.768
782.69	73.245
782.87	89.383
783.05	86.776
783.22	82.659
783.40	81.411
783.58	97.843
783.75	80.631
783.93	88.827
784.11	80.480
784.28	90.483
784.46	75.867
784.64	93.333
784.81	78.224
784.99	103.668
785.17	92.034
785.34	94.673
785.52	79.403
785.69	86.950
785.87	80.291
786.05	86.072
786.22	78.435
786.40	92.219
786.58	78.414
786.75	92.557
786.93	78.191
787.11	86.070
787.28	91.508
787.46	96.000
787.63	92.063
787.81	88.759
787.99	79.495
788.16	85.222
788.34	78.705
788.51	83.528
788.69	79.973
788.87	86.750
789.04	79.127
789.22	85.805
789.39	85.694
789.57	83.709
789.75	85.577
789.92	90.784
790.10	80.217
790.27	85.457
790.45	80.488
790.63	76.151
790.80	79.972
790.98	96.405
791.15	80.488
791.33	85.491
791.51	87.299
791.68	95.517
791.86	79.294
792.03	80.119
792.21	72.742
792.39	92.698
792.56	83.526
792.74	86.142
792.91	79.278
793.09	79.792
793.26	70.085
793.44	94.224
793.62	72.986
793.79	83.074
793.97	78.756
794.14	83.604
794.32	89.104
794.49	84.354
794.67	76.795
794.84	79.140
795.02	78.761
795.20	85.064
795.37	75.763
795.55	78.422
795.72	79.398
795.90	84.992
796.07	85.880
796.25	88.889
796.42	74.513
796.60	85.358
796.77	74.326
796.95	86.301
797.13	69.863
797.30	93.712
797.48	71.848
797.65	77.135
797.83	72.523
798.00	90.400
798.18	77.990
798.35	84.109
798.53	72.222
798.70	88.455
798.88	80.625
799.05	81.140
799.23	64.715
799.40	89.483
799.58	81.787
799.75	81.686
799.93	69.036
800.10	74.336
800.28	78.125
800.45	85.150
800.63	83.738
800.80	77.818
800.98	79.134
801.15	80.484
801.33	80.736
801.50	78.211
801.68	70.201
801.85	86.219
802.03	78.416
802.20	76.776
802.38	75.427
802.55	78.053
802.73	77.972
802.90	86.438
803.08	74.624
803.25	92.395
803.43	80.410
803.60	91.406
803.78	70.766
803.95	72.563
804.13	81.213
804.30	73.308
804.48	71.899
804.65	81.409
804.83	69.580
805.00	73.310
805.17	71.823
805.35	93.137
805.52	70.505
805.70	84.722
805.87	81.874
806.05	91.581
806.22	77.393
806.40	71.053
806.57	67.956
806.75	79.617
806.92	74.256
807.09	89.320
807.27	74.419
807.44	94.508
807.62	68.022
807.79	79.397
807.97	74.859
808.14	88.000
808.31	66.055
808.49	78.521
808.66	68.635
808.84	87.602
809.01	75.094
809.19	80.078
809.36	90.235
809.53	76.517
809.71	72.565
809.88	74.160
810.06	80.444
810.23	87.609
810.41	68.852
810.58	87.030
810.75	68.715
810.93	75.208
811.10	69.882
811.28	79.880
811.45	71.754
811.62	73.789
811.80	75.330
811.97	80.682
812.15	70.221
812.32	78.444
812.49	77.240
812.67	71.767
812.84	69.213
813.02	78.395
813.19	67.600
813.36	75.271
813.54	76.906
813.71	86.825
813.89	82.809
814.06	79.337
814.23	74.843
814.41	69.521
814.58	72.340
814.75	77.559
814.93	68.610
815.10	73.684
815.28	71.186
815.45	75.240
815.62	75.515
815.80	56.473
815.97	65.669
816.14	74.873
816.32	75.216
816.49	73.347
816.66	72.921
816.84	69.325
817.01	70.714
817.18	71.789
817.36	69.925
817.53	75.169
817.71	56.000
817.88	67.192
818.05	63.121
818.23	62.598
818.40	65.953
818.57	78.876
818.75	68.310
818.92	67.478
819.09	71.839
819.27	76.349
819.44	66.740
819.61	70.445
819.79	66.869
819.96	74.138
820.13	64.237
820.31	73.684
820.48	78.456
820.65	82.903
820.82	73.171
821.00	71.927
821.17	65.152
821.34	77.598
821.52	82.160
821.69	76.235
821.86	77.589
822.04	93.968
822.21	85.195
822.38	87.942
822.56	84.726
822.73	87.795
822.90	83.704
823.07	86.341
823.25	80.190
823.42	84.007
823.59	83.499
823.77	81.289
823.94	82.114
824.11	82.605
824.29	82.021
824.46	82.549
824.63	89.672
824.80	85.639
824.98	86.327
825.15	84.243
825.32	83.954
825.49	86.516
825.67	90.715
825.84	87.982
826.01	87.945
826.19	86.769
826.36	79.077
826.53	85.614
826.70	85.038
826.88	94.066
827.05	81.541
827.22	83.373
827.39	82.521
827.57	86.726
827.74	80.409
827.91	82.905
828.08	84.315
828.26	87.913
828.43	78.813
828.60	83.805
828.77	83.905
828.95	85.175
829.12	70.129
829.29	75.397
829.46	82.014
829.64	79.944
829.81	67.749
829.98	83.023
830.15	73.714
830.32	75.533
830.50	65.394
830.67	74.154
830.84	57.958
831.01	67.228
831.19	65.370
831.36	68.118
831.53	69.187
831.70	79.389
831.87	70.120
832.05	79.889
832.22	71.915
832.39	68.053
832.56	61.171
832.74	63.617
832.91	57.225
833.08	72.924
833.25	55.985
833.42	67.875
833.60	64.230
833.77	57.698
833.94	62.677
834.11	68.512
834.28	62.271
834.45	73.348
834.63	68.621
834.80	75.263
834.97	74.030
835.14	84.012
835.31	71.872
835.49	75.447
835.66	67.278
835.83	70.659
836.00	72.300
836.17	68.082
836.34	63.861
836.52	72.692
836.69	73.343
836.86	75.251
837.03	70.463
837.20	72.348
837.37	66.054
837.55	61.059
837.72	59.590
837.89	69.420
838.06	77.536
838.23	74.737
838.40	59.518
838.58	62.442
838.75	72.393
838.92	63.768
839.09	76.266
839.26	78.028
839.43	88.194
839.60	74.598
839.78	94.720
839.95	73.512
840.12	77.193
840.29	78.670
840.46	79.751
840.63	75.900
840.80	73.615
840.98	92.837
841.15	63.959
841.32	81.285
841.49	78.788
841.66	71.622
841.83	60.993
842.00	76.771
842.17	70.950
842.34	70.195
842.52	71.212
842.69	69.304
842.86	85.348
843.03	82.315
843.20	62.248
843.37	84.921
843.54	76.792
843.71	91.250
843.88	83.212
844.06	131.356
844.23	111.441
844.40	101.271
844.57	85.124
844.74	75.431
844.91	106.965
845.08	118.079
845.25	120.745
845.42	117.877
845.59	94.672
845.76	101.613
845.94	113.333
846.11	100.495
846.28	79.681
846.45	109.677
846.62	94.000
846.79	87.764
846.96	102.198
847.13	111.413
847.30	88.701
847.47	92.784
847.64	79.592
847.81	143.382
847.98	104.324
848.15	123.464
848.32	117.098
848.50	104.000
848.67	97.041
848.84	127.219
849.01	141.007
849.18	118.235
849.35	116.667
849.52	107.937
849.69	99.451
849.86	143.919
850.03	139.669
850.20	137.333
850.37	89.412
850.54	108.511
850.71	119.792
850.88	106.452
851.05	114.130
851.22	119.277
851.39	109.626
851.56	155.172
851.73	127.976
851.90	95.425
852.07	108.187
852.24	105.229
852.41	94.416
852.58	122.951
852.75	119.186
852.92	109.392
853.09	150.980
853.26	106.536
853.43	83.529
853.60	164.626
853.77	98.883
853.94	123.009
854.11	134.444
854.28	153.472
854.45	125.325
854.62	80.233
854.79	92.121
854.96	130.556
855.13	110.063
855.30	159.854
855.47	146.774
855.64	88.199
855.81	142.446
855.98	135.115
856.15	130.769
856.32	107.109
856.49	103.955
856.66	96.795
856.83	90.566
857.00	107.377
857.17	122.581
857.34	101.630
857.51	128.169
857.68	114.286
857.85	124.118
858.02	136.054
858.19	91.713
858.36	129.885
858.53	104.734
858.70	106.044
858.87	131.034
859.04	125.294
859.21	108.333
859.38	110.138
859.55	135.227
859.72	92.361
859.89	134.266
860.05	137.410
860.22	114.545
860.39	135.345
860.56	127.381
860.73	119.048
860.90	116.766
861.07	115.000
861.24	100.000
861.41	127.168
861.58	125.325
861.75	151.969
861.92	126.875
862.09	127.136
862.26	121.290
862.43	146.667
862.59	99.342
862.76	131.606
862.93	182.308
863.10	150.000
863.27	103.846
863.44	134.146
863.61	122.464
863.78	113.904
863.95	131.098
864.12	198.718
864.29	126.271
864.45	108.805
864.62	143.902
864.79	133.529
864.96	167.308
865.13	128.467
865.30	152.041
865.47	107.586
865.64	134.965
865.81	148.246
865.97	91.824
866.14	89.840
866.31	122.131
866.48	97.183
866.65	114.724
866.82	153.020
866.99	114.286
867.16	100.775
867.33	124.823
867.49	112.651
867.66	175.373
867.83	91.964
868.00	110.753
868.17	126.718
868.34	157.480
868.51	117.606
868.67	119.643
868.84	122.963
869.01	141.379
869.18	136.800
869.35	109.220
869.52	108.029
869.69	108.209
869.85	118.919
870.02	98.913
870.19	143.077
870.36	147.482
870.53	177.381
870.70	175.893
870.86	65.584
871.03	124.818
871.20	121.849
871.37	102.367
871.54	153.774
871.71	120.455
871.87	140.206
872.04	70.000
872.21	121.970
872.38	154.217
872.55	147.143
872.72	104.348
872.88	121.667
873.05	77.540
873.22	143.333
873.39	112.195
873.56	122.302
873.72	108.840
873.89	121.019
874.06	122.131
874.23	152.899
874.40	112.000
874.56	143.182
874.73	153.333
874.90	129.452
875.07	125.191
875.24	103.049
875.40	137.500
875.57	132.540
875.74	110.625
875.91	124.603
876.08	116.429
876.24	160.256
876.41	127.820
876.58	127.737
876.75	114.194
876.92	128.205
877.08	118.978
877.25	109.091
877.42	133.077
877.59	103.614
877.75	108.019
877.92	106.977
878.09	123.684
878.26	113.699
878.42	134.815
878.59	138.068
878.76	107.407
878.93	105.960
879.09	110.204
879.26	101.923
879.43	125.000
879.60	106.667
879.76	85.641
879.93	98.477
880.10	81.395
880.27	72.444
880.43	86.224
880.60	92.019
880.77	80.784
880.94	70.714
881.10	74.483
881.27	67.680
881.44	51.193
881.61	65.191
881.77	68.819
881.94	62.776
882.11	59.911
882.28	56.522
882.44	53.350
882.61	67.609
882.78	65.208
882.94	79.251
883.11	70.000
883.28	71.471
883.45	73.033
883.61	84.898
883.78	69.207
883.95	71.324
884.11	67.872
884.28	68.721
>>>>>End Processed Spectral Data<<<<<
