SpectraSuite Data File
++++++++++++++++++++++++++++++++++++
Date: Thu Sep 19 03:27:23 EST 2019
User: sgrac
Dark Spectrum Present: Yes
Reference Spectrum Present: Yes
Number of Sampled Component Spectra: 1
Spectrometers: USB4E01596
Integration Time (usec): 100000 (USB4E01596)
Spectra Averaged: 1 (USB4E01596)
Boxcar Smoothing: 0 (USB4E01596)
Correct for Electrical Dark: No (USB4E01596)
Strobe/Lamp Enabled: Yes (USB4E01596)
Correct for Detector Non-linearity: No (USB4E01596)
Correct for Stray Light: No (USB4E01596)
Number of Pixels in Processed Spectrum: 3648
>>>>>Begin Processed Spectral Data<<<<<
178.44	892.857
178.66	892.857
178.87	892.857
179.09	-690.909
179.30	208.929
179.52	2100.000
179.74	-833.333
179.95	723.810
180.17	1490.909
180.38	282.090
180.60	0.000
180.82	700.000
181.03	275.926
181.25	4275.000
181.46	1100.000
181.68	-302.326
181.89	1600.000
182.11	733.333
182.33	559.259
182.54	1208.333
182.76	827.778
182.97	-607.143
183.19	402.381
183.40	369.091
183.62	619.048
183.84	1325.000
184.05	1240.000
184.27	-7200.000
184.48	230.159
184.70	7400.000
184.91	684.615
185.13	269.014
185.34	-300.000
185.56	548.148
185.78	542.308
185.99	-3975.000
186.21	-1327.273
186.42	-302.500
186.64	1060.000
186.85	-7550.000
187.07	622.727
187.28	992.857
187.50	640.909
187.72	411.111
187.93	911.111
188.15	921.053
188.36	1058.824
188.58	448.718
188.79	1683.333
189.01	883.333
189.22	3680.000
189.44	735.000
189.65	-6800.000
189.87	3200.000
190.09	900.000
190.30	2500.000
190.52	1391.667
190.73	-446.154
190.95	336.364
191.16	620.833
191.38	461.111
191.59	-1327.273
191.81	722.727
192.02	833.333
192.24	603.846
192.45	2300.000
192.67	2950.000
192.88	-640.741
193.10	-18700.000
193.31	474.286
193.53	-652.381
193.74	-2550.000
193.96	2277.778
194.18	925.000
194.39	463.415
194.61	826.316
194.82	1272.727
195.04	560.000
195.25	3933.333
195.47	400.000
195.68	788.235
195.90	344.186
196.11	646.154
196.33	-1422.222
196.54	-726.316
196.76	613.636
196.97	1744.444
197.19	-13000.000
197.40	1583.333
197.62	2250.000
197.83	1500.000
198.05	646.429
198.26	357.500
198.48	505.882
198.69	-1522.222
198.91	827.778
199.12	491.429
199.34	-1985.714
199.55	242.105
199.77	341.304
199.98	-1490.909
200.20	775.000
200.41	9000.000
200.63	653.571
200.84	695.238
201.06	-1053.846
201.27	-2320.000
201.49	1466.667
201.70	868.750
201.91	-7950.000
202.13	942.105
202.34	395.652
202.56	6750.000
202.77	812.500
202.99	384.000
203.20	572.727
203.42	-2228.571
203.63	2866.667
203.85	441.667
204.06	569.565
204.28	1600.000
204.49	-1490.000
204.71	446.341
204.92	382.222
205.14	377.778
205.35	265.714
205.56	2283.333
205.78	877.273
205.99	-1310.000
206.21	795.652
206.42	349.153
206.64	-2933.333
206.85	752.381
207.07	805.263
207.28	-3080.000
207.50	372.222
207.71	881.250
207.93	368.750
208.14	633.333
208.35	764.706
208.57	-544.000
208.78	-329.268
209.00	420.930
209.21	366.667
209.43	588.000
209.64	11800.000
209.86	633.333
210.07	558.621
210.28	-1215.385
210.50	888.235
210.71	850.000
210.93	621.875
211.14	280.000
211.36	371.739
211.57	730.000
211.78	517.949
212.00	940.000
212.21	905.882
212.43	1013.333
212.64	576.667
212.86	261.538
213.07	544.828
213.29	536.667
213.50	596.774
213.71	526.667
213.93	2657.143
214.14	705.882
214.36	1912.500
214.57	315.493
214.78	1180.000
215.00	947.368
215.21	777.778
215.43	231.646
215.64	625.926
215.86	900.000
216.07	852.632
216.28	342.222
216.50	7450.000
216.71	-17300.000
216.93	677.778
217.14	277.273
217.35	502.857
217.57	3500.000
217.78	362.857
218.00	4366.667
218.21	587.500
218.42	271.875
218.64	-8450.000
218.85	407.843
219.07	2142.857
219.28	281.967
219.49	-950.000
219.71	1450.000
219.92	314.865
220.14	1975.000
220.35	345.455
220.56	1138.462
220.78	322.807
220.99	397.143
221.21	184.536
221.42	704.348
221.63	7750.000
221.85	483.333
222.06	640.000
222.28	184.000
222.49	-1833.333
222.70	275.926
222.92	-7700.000
223.13	368.421
223.34	216.304
223.56	1416.667
223.77	236.765
223.99	371.111
224.20	260.000
224.41	233.333
224.63	8050.000
224.84	5400.000
225.05	1084.615
225.27	346.154
225.48	326.667
225.69	176.471
225.91	285.938
226.12	262.319
226.34	465.625
226.55	248.529
226.76	303.922
226.98	187.500
227.19	170.513
227.40	390.000
227.62	221.918
227.83	155.357
228.04	176.623
228.26	91.964
228.47	127.500
228.69	102.941
228.90	86.905
229.11	91.703
229.33	77.990
229.54	65.975
229.75	54.417
229.97	48.476
230.18	52.492
230.39	38.131
230.61	59.044
230.82	61.462
231.03	50.637
231.25	72.148
231.46	49.405
231.67	58.491
231.89	65.079
232.10	53.208
232.31	79.911
232.53	84.404
232.74	71.560
232.95	85.294
233.17	84.103
233.38	57.368
233.59	80.337
233.81	102.469
234.02	100.571
234.23	70.619
234.45	86.818
234.66	108.621
234.87	83.721
235.09	87.234
235.30	90.291
235.51	79.821
235.73	59.091
235.94	70.089
236.15	71.269
236.36	72.444
236.58	76.077
236.79	81.466
237.00	81.526
237.22	76.720
237.43	77.043
237.64	85.714
237.86	85.377
238.07	82.773
238.28	65.748
238.50	77.033
238.71	96.891
238.92	84.434
239.13	60.753
239.35	65.975
239.56	68.333
239.77	87.432
239.99	53.629
240.20	79.767
240.41	48.819
240.63	53.433
240.84	66.814
241.05	57.770
241.26	36.134
241.48	45.566
241.69	35.772
241.90	36.092
242.12	36.196
242.33	37.500
242.54	24.706
242.75	30.135
242.97	27.479
243.18	17.862
243.39	16.188
243.61	21.551
243.82	31.484
244.03	20.082
244.24	23.002
244.46	26.022
244.67	28.591
244.88	21.106
245.09	24.257
245.31	34.098
245.52	27.273
245.73	40.381
245.95	49.405
246.16	35.536
246.37	31.481
246.58	34.615
246.80	30.628
247.01	24.235
247.22	14.319
247.43	19.260
247.65	17.752
247.86	17.183
248.07	12.011
248.28	13.830
248.50	16.556
248.71	13.459
248.92	13.773
249.13	13.179
249.35	13.489
249.56	13.323
249.77	13.454
249.98	15.026
250.20	18.462
250.41	26.718
250.62	25.993
250.83	20.577
251.05	21.387
251.26	36.934
251.47	29.457
251.68	27.568
251.90	22.167
252.11	29.285
252.32	25.260
252.53	27.126
252.75	31.640
252.96	28.022
253.17	25.000
253.38	24.117
253.59	20.617
253.81	27.086
254.02	23.916
254.23	20.648
254.44	22.000
254.66	24.510
254.87	32.203
255.08	30.373
255.29	39.122
255.50	29.532
255.72	36.078
255.93	33.857
256.14	47.629
256.35	32.019
256.57	39.066
256.78	26.316
256.99	38.246
257.20	37.787
257.41	32.577
257.63	28.571
257.84	29.791
258.05	36.973
258.26	31.672
258.47	32.841
258.69	25.102
258.90	19.247
259.11	21.059
259.32	17.912
259.53	21.926
259.75	17.813
259.96	14.630
260.17	15.165
260.38	10.762
260.59	12.614
260.81	9.603
261.02	12.893
261.23	11.973
261.44	10.532
261.65	13.279
261.87	13.489
262.08	12.776
262.29	15.012
262.50	9.468
262.71	15.517
262.92	16.721
263.14	17.679
263.35	16.915
263.56	22.211
263.77	18.803
263.98	17.790
264.20	27.451
264.41	17.884
264.62	23.727
264.83	13.255
265.04	27.586
265.25	23.810
265.47	16.824
265.68	23.013
265.89	27.248
266.10	20.631
266.31	26.105
266.52	19.359
266.74	23.188
266.95	20.584
267.16	16.853
267.37	19.565
267.58	16.717
267.79	15.907
268.01	22.420
268.22	16.359
268.43	17.625
268.64	23.253
268.85	14.711
269.06	16.449
269.27	16.251
269.49	18.895
269.70	14.563
269.91	15.545
270.12	17.604
270.33	19.524
270.54	16.376
270.75	14.501
270.97	18.344
271.18	13.539
271.39	18.070
271.60	17.722
271.81	14.395
272.02	13.658
272.23	11.602
272.45	11.203
272.66	12.073
272.87	13.034
273.08	13.819
273.29	12.144
273.50	11.927
273.71	12.212
273.92	9.109
274.14	12.925
274.35	14.436
274.56	13.687
274.77	15.307
274.98	15.373
275.19	13.809
275.40	15.747
275.61	11.489
275.83	18.503
276.04	14.846
276.25	16.577
276.46	15.135
276.67	13.235
276.88	16.432
277.09	19.245
277.30	14.733
277.51	15.538
277.73	14.424
277.94	14.706
278.15	16.463
278.36	17.627
278.57	16.904
278.78	15.345
278.99	17.766
279.20	15.293
279.41	11.748
279.62	14.698
279.84	14.376
280.05	16.201
280.26	15.993
280.47	17.806
280.68	16.197
280.89	17.267
281.10	15.498
281.31	13.181
281.52	18.073
281.73	12.277
281.94	10.706
282.16	15.526
282.37	12.651
282.58	12.899
282.79	16.714
283.00	11.558
283.21	14.345
283.42	12.720
283.63	13.971
283.84	12.628
284.05	12.669
284.26	12.584
284.47	14.210
284.68	12.783
284.89	12.426
285.11	11.391
285.32	7.752
285.53	14.449
285.74	14.388
285.95	11.936
286.16	12.806
286.37	10.102
286.58	9.360
286.79	9.910
287.00	12.311
287.21	10.197
287.42	13.480
287.63	10.656
287.84	12.819
288.05	11.045
288.26	11.033
288.48	12.204
288.69	9.255
288.90	13.659
289.11	16.430
289.32	12.757
289.53	9.279
289.74	11.708
289.95	14.098
290.16	12.742
290.37	10.791
290.58	9.959
290.79	10.052
291.00	11.558
291.21	12.241
291.42	9.911
291.63	12.149
291.84	14.198
292.05	10.781
292.26	8.462
292.47	11.485
292.68	9.387
292.89	11.302
293.10	14.873
293.31	11.684
293.52	11.522
293.73	13.233
293.94	12.955
294.15	12.955
294.36	9.788
294.57	14.342
294.79	10.820
295.00	9.518
295.21	12.204
295.42	14.053
295.63	11.417
295.84	10.118
296.05	10.335
296.26	11.703
296.47	10.016
296.68	9.775
296.89	12.473
297.10	10.598
297.31	10.608
297.52	8.210
297.73	10.351
297.94	8.893
298.15	8.467
298.36	7.892
298.57	8.416
298.78	9.594
298.99	8.882
299.20	9.174
299.41	9.358
299.62	9.390
299.83	10.132
300.04	9.200
300.25	12.109
300.46	11.998
300.67	11.996
300.88	12.101
301.09	11.004
301.30	13.000
301.50	10.904
301.71	15.533
301.92	11.568
302.13	10.763
302.34	11.447
302.55	11.931
302.76	13.134
302.97	9.770
303.18	10.884
303.39	12.544
303.60	10.311
303.81	13.259
304.02	12.426
304.23	11.556
304.44	12.706
304.65	12.968
304.86	10.181
305.07	12.688
305.28	11.221
305.49	15.257
305.70	13.397
305.91	12.325
306.12	11.118
306.33	11.382
306.54	10.189
306.75	12.925
306.96	15.466
307.17	11.084
307.38	9.665
307.58	8.564
307.79	12.468
308.00	14.127
308.21	11.269
308.42	9.859
308.63	13.633
308.84	10.687
309.05	11.690
309.26	11.105
309.47	11.721
309.68	7.861
309.89	10.208
310.10	9.534
310.31	8.381
310.52	9.091
310.73	12.185
310.94	8.243
311.14	8.534
311.35	8.892
311.56	8.767
311.77	7.434
311.98	9.358
312.19	8.096
312.40	10.384
312.61	10.937
312.82	11.505
313.03	10.280
313.24	11.180
313.45	10.387
313.66	11.127
313.86	12.204
314.07	9.217
314.28	16.513
314.49	10.404
314.70	11.802
314.91	14.604
315.12	13.046
315.33	13.504
315.54	10.725
315.75	10.484
315.96	11.231
316.16	10.409
316.37	12.477
316.58	11.257
316.79	9.666
317.00	12.966
317.21	10.529
317.42	12.930
317.63	10.725
317.84	11.821
318.05	12.233
318.25	11.410
318.46	10.804
318.67	10.147
318.88	12.125
319.09	13.179
319.30	9.844
319.51	10.427
319.72	10.195
319.93	11.369
320.13	11.190
320.34	13.832
320.55	12.665
320.76	11.385
320.97	11.174
321.18	11.962
321.39	12.728
321.60	12.000
321.80	15.913
322.01	12.954
322.22	12.301
322.43	12.372
322.64	8.646
322.85	10.256
323.06	13.765
323.27	12.508
323.47	12.773
323.68	13.388
323.89	9.932
324.10	14.954
324.31	9.949
324.52	8.188
324.73	11.803
324.93	10.554
325.14	11.105
325.35	10.654
325.56	10.926
325.77	11.094
325.98	12.412
326.19	12.159
326.39	8.446
326.60	11.172
326.81	11.984
327.02	9.863
327.23	9.064
327.44	13.350
327.64	8.015
327.85	8.689
328.06	9.800
328.27	13.751
328.48	9.942
328.69	9.480
328.90	8.613
329.10	11.354
329.31	12.166
329.52	11.490
329.73	13.644
329.94	11.652
330.15	12.924
330.35	11.532
330.56	12.123
330.77	9.123
330.98	11.949
331.19	9.199
331.39	12.535
331.60	10.894
331.81	7.952
332.02	13.236
332.23	8.140
332.44	8.629
332.64	11.000
332.85	10.155
333.06	13.312
333.27	8.398
333.48	11.869
333.68	9.355
333.89	11.676
334.10	10.258
334.31	10.136
334.52	7.840
334.72	10.112
334.93	8.623
335.14	9.835
335.35	8.453
335.56	11.408
335.76	7.822
335.97	9.610
336.18	8.563
336.39	12.793
336.60	11.723
336.80	10.461
337.01	7.093
337.22	9.474
337.43	11.264
337.64	11.323
337.84	9.227
338.05	10.265
338.26	14.313
338.47	10.892
338.68	11.600
338.88	10.273
339.09	10.964
339.30	10.823
339.51	10.242
339.71	11.711
339.92	9.189
340.13	10.493
340.34	10.497
340.55	9.072
340.75	10.592
340.96	7.510
341.17	10.589
341.38	7.427
341.58	10.168
341.79	9.095
342.00	9.120
342.21	11.753
342.41	7.590
342.62	9.608
342.83	9.957
343.04	7.608
343.24	10.360
343.45	8.768
343.66	9.793
343.87	8.465
344.07	8.422
344.28	10.597
344.49	10.005
344.70	11.878
344.90	7.535
345.11	7.719
345.32	8.678
345.53	8.268
345.73	8.670
345.94	9.000
346.15	10.429
346.36	8.122
346.56	9.308
346.77	12.634
346.98	10.481
347.19	8.444
347.39	9.657
347.60	9.245
347.81	12.804
348.02	10.170
348.22	9.464
348.43	10.018
348.64	11.312
348.84	8.932
349.05	11.964
349.26	11.714
349.47	8.545
349.67	8.583
349.88	8.217
350.09	9.498
350.30	12.099
350.50	10.057
350.71	11.595
350.92	11.164
351.12	9.574
351.33	11.775
351.54	10.837
351.74	7.844
351.95	10.557
352.16	10.995
352.37	12.237
352.57	11.023
352.78	10.599
352.99	12.716
353.19	11.161
353.40	10.889
353.61	12.356
353.82	10.138
354.02	10.490
354.23	9.196
354.44	10.724
354.64	7.268
354.85	9.805
355.06	9.612
355.26	8.521
355.47	9.456
355.68	12.731
355.88	12.654
356.09	13.045
356.30	8.205
356.51	11.474
356.71	9.284
356.92	10.230
357.13	12.785
357.33	12.821
357.54	11.226
357.75	7.391
357.95	10.604
358.16	9.732
358.37	11.119
358.57	7.727
358.78	13.292
358.99	10.153
359.19	8.596
359.40	11.279
359.61	8.958
359.81	12.109
360.02	15.220
360.23	10.091
360.43	9.863
360.64	9.371
360.85	9.836
361.05	8.609
361.26	13.362
361.47	10.748
361.67	13.059
361.88	7.282
362.09	9.278
362.29	8.547
362.50	8.625
362.70	8.004
362.91	11.175
363.12	8.550
363.32	9.192
363.53	9.818
363.74	10.879
363.94	7.913
364.15	12.064
364.36	9.114
364.56	9.060
364.77	11.004
364.98	13.101
365.18	10.266
365.39	12.231
365.59	9.534
365.80	8.660
366.01	11.345
366.21	9.639
366.42	8.836
366.63	10.691
366.83	8.727
367.04	7.353
367.24	12.890
367.45	8.756
367.66	9.391
367.86	9.637
368.07	9.839
368.28	9.320
368.48	9.151
368.69	7.134
368.89	8.177
369.10	10.746
369.31	10.112
369.51	9.413
369.72	12.124
369.92	13.287
370.13	7.690
370.34	12.398
370.54	7.663
370.75	11.037
370.95	7.379
371.16	9.249
371.37	8.066
371.57	8.028
371.78	9.643
371.98	11.320
372.19	10.725
372.40	10.226
372.60	9.135
372.81	9.829
373.01	8.253
373.22	8.874
373.43	10.390
373.63	10.225
373.84	11.091
374.04	9.949
374.25	10.033
374.46	10.953
374.66	9.512
374.87	10.443
375.07	7.457
375.28	8.952
375.48	10.608
375.69	10.260
375.90	6.667
376.10	7.738
376.31	8.937
376.51	8.662
376.72	7.782
376.92	5.577
377.13	10.096
377.34	10.285
377.54	7.880
377.75	10.108
377.95	8.560
378.16	9.223
378.36	9.245
378.57	9.606
378.77	10.258
378.98	8.198
379.19	8.052
379.39	7.816
379.60	9.531
379.80	8.452
380.01	10.005
380.21	9.192
380.42	9.139
380.62	7.701
380.83	9.195
381.04	8.281
381.24	10.507
381.45	8.232
381.65	7.942
381.86	9.461
382.06	10.153
382.27	7.428
382.47	7.298
382.68	10.494
382.88	7.078
383.09	6.838
383.29	9.047
383.50	10.082
383.71	8.344
383.91	6.606
384.12	6.821
384.32	9.389
384.53	7.148
384.73	7.165
384.94	6.820
385.14	8.130
385.35	7.398
385.55	8.391
385.76	6.172
385.96	8.387
386.17	8.417
386.37	8.678
386.58	9.141
386.78	8.339
386.99	6.460
387.19	9.292
387.40	7.503
387.60	10.562
387.81	7.165
388.01	6.629
388.22	9.433
388.42	9.003
388.63	9.406
388.83	10.681
389.04	7.143
389.24	7.588
389.45	7.028
389.65	7.785
389.86	8.227
390.06	6.535
390.27	7.390
390.47	7.546
390.68	5.801
390.88	9.186
391.09	9.278
391.29	8.768
391.50	7.786
391.70	8.429
391.91	7.367
392.11	7.885
392.32	8.055
392.52	9.075
392.73	8.527
392.93	8.212
393.14	7.318
393.34	8.177
393.55	8.448
393.75	8.345
393.95	7.749
394.16	8.748
394.36	9.235
394.57	9.419
394.77	7.855
394.98	8.042
395.18	8.071
395.39	8.332
395.59	8.464
395.80	8.088
396.00	6.642
396.21	10.267
396.41	7.294
396.61	9.446
396.82	7.243
397.02	11.400
397.23	9.048
397.43	8.040
397.64	7.726
397.84	8.331
398.05	6.365
398.25	9.321
398.45	7.523
398.66	9.297
398.86	7.372
399.07	9.714
399.27	8.173
399.48	9.347
399.68	7.404
399.89	6.652
400.09	9.146
400.29	8.475
400.50	7.403
400.70	9.235
400.91	7.970
401.11	7.234
401.32	8.742
401.52	6.215
401.72	7.955
401.93	8.994
402.13	8.168
402.34	8.755
402.54	6.106
402.75	10.628
402.95	8.066
403.15	9.540
403.36	8.161
403.56	8.055
403.77	7.129
403.97	7.843
404.17	6.347
404.38	8.105
404.58	7.329
404.79	8.745
404.99	8.042
405.19	7.459
405.40	8.289
405.60	8.623
405.81	7.841
406.01	8.076
406.21	7.605
406.42	8.098
406.62	8.851
406.83	9.244
407.03	10.332
407.23	7.381
407.44	6.211
407.64	8.458
407.85	8.295
408.05	8.959
408.25	7.621
408.46	9.146
408.66	8.354
408.87	7.429
409.07	7.993
409.27	6.715
409.48	7.950
409.68	9.429
409.88	6.791
410.09	7.415
410.29	8.059
410.50	10.004
410.70	7.136
410.90	8.321
411.11	7.500
411.31	7.397
411.51	7.833
411.72	8.820
411.92	7.407
412.12	7.892
412.33	7.055
412.53	7.662
412.74	5.880
412.94	8.929
413.14	7.150
413.35	7.444
413.55	7.393
413.75	9.002
413.96	6.233
414.16	7.621
414.36	8.085
414.57	7.894
414.77	6.508
414.97	8.944
415.18	6.435
415.38	8.627
415.58	7.791
415.79	7.202
415.99	7.540
416.19	8.847
416.40	8.195
416.60	7.860
416.80	8.226
417.01	7.511
417.21	6.830
417.41	9.845
417.62	8.225
417.82	8.392
418.02	6.571
418.23	8.157
418.43	7.639
418.63	8.655
418.84	8.838
419.04	8.122
419.24	9.152
419.45	9.537
419.65	8.951
419.85	9.191
420.06	8.591
420.26	9.061
420.46	8.897
420.67	9.635
420.87	9.452
421.07	9.503
421.28	8.741
421.48	10.103
421.68	9.549
421.88	10.248
422.09	9.637
422.29	9.786
422.49	9.522
422.70	10.063
422.90	9.600
423.10	10.588
423.31	9.455
423.51	10.020
423.71	8.730
423.91	10.701
424.12	10.308
424.32	10.134
424.52	9.461
424.73	9.313
424.93	8.956
425.13	9.672
425.33	9.017
425.54	9.951
425.74	9.553
425.94	10.096
426.15	9.950
426.35	9.564
426.55	9.496
426.75	10.434
426.96	9.880
427.16	9.848
427.36	9.373
427.57	10.504
427.77	9.619
427.97	9.401
428.17	9.327
428.38	10.130
428.58	7.170
428.78	9.895
428.98	7.470
429.19	8.697
429.39	7.219
429.59	9.463
429.79	7.036
430.00	8.360
430.20	7.053
430.40	8.344
430.60	7.704
430.81	9.022
431.01	6.572
431.21	8.412
431.41	6.755
431.62	8.944
431.82	7.447
432.02	9.975
432.22	7.468
432.43	7.154
432.63	6.905
432.83	8.968
433.03	7.701
433.24	8.346
433.44	7.657
433.64	9.537
433.84	8.335
434.05	9.771
434.25	7.975
434.45	9.115
434.65	9.367
434.85	10.656
435.06	9.252
435.26	9.421
435.46	8.466
435.66	9.578
435.87	8.180
436.07	9.259
436.27	8.420
436.47	8.531
436.67	7.853
436.88	9.352
437.08	9.109
437.28	8.509
437.48	8.800
437.69	9.929
437.89	8.419
438.09	10.184
438.29	7.997
438.49	9.434
438.70	9.244
438.90	9.116
439.10	8.059
439.30	9.067
439.50	7.795
439.71	9.768
439.91	8.361
440.11	10.943
440.31	9.877
440.51	8.825
440.72	8.841
440.92	9.455
441.12	9.891
441.32	11.006
441.52	9.726
441.72	10.058
441.93	9.280
442.13	10.535
442.33	9.629
442.53	10.692
442.73	9.032
442.94	9.879
443.14	9.871
443.34	11.422
443.54	10.282
443.74	11.152
443.94	9.876
444.15	9.746
444.35	8.945
444.55	10.081
444.75	9.427
444.95	9.860
445.15	9.874
445.36	9.637
445.56	8.845
445.76	10.684
445.96	9.528
446.16	9.583
446.36	9.488
446.57	10.188
446.77	8.713
446.97	10.009
447.17	10.374
447.37	10.066
447.57	9.962
447.77	10.143
447.98	9.146
448.18	10.916
448.38	9.927
448.58	10.495
448.78	10.317
448.98	11.299
449.18	10.307
449.39	10.597
449.59	10.448
449.79	10.529
449.99	9.916
450.19	9.948
450.39	10.184
450.59	10.278
450.79	9.565
451.00	10.007
451.20	10.339
451.40	9.883
451.60	9.130
451.80	10.186
452.00	8.981
452.20	9.548
452.40	9.203
452.61	10.058
452.81	8.479
453.01	10.051
453.21	9.064
453.41	10.099
453.61	9.336
453.81	9.319
454.01	9.115
454.21	9.412
454.42	10.680
454.62	9.830
454.82	9.079
455.02	9.547
455.22	8.620
455.42	9.252
455.62	8.122
455.82	9.237
456.02	8.782
456.23	9.779
456.43	8.900
456.63	8.827
456.83	7.377
457.03	9.641
457.23	9.107
457.43	9.936
457.63	8.425
457.83	9.654
458.03	8.838
458.23	9.697
458.43	7.539
458.64	9.638
458.84	8.824
459.04	9.563
459.24	9.259
459.44	9.959
459.64	9.281
459.84	9.904
460.04	9.415
460.24	9.598
460.44	10.268
460.64	10.354
460.84	9.920
461.04	10.449
461.24	10.420
461.45	10.693
461.65	10.697
461.85	11.208
462.05	10.407
462.25	11.156
462.45	10.669
462.65	10.393
462.85	8.825
463.05	10.386
463.25	9.159
463.45	10.627
463.65	9.431
463.85	10.473
464.05	9.626
464.25	8.919
464.45	10.412
464.65	9.576
464.85	7.919
465.05	9.565
465.26	8.917
465.46	10.118
465.66	9.517
465.86	9.731
466.06	9.609
466.26	9.394
466.46	7.926
466.66	9.382
466.86	8.728
467.06	10.100
467.26	9.059
467.46	10.697
467.66	9.135
467.86	9.983
468.06	8.736
468.26	9.163
468.46	8.709
468.66	9.825
468.86	8.637
469.06	10.281
469.26	8.650
469.46	9.444
469.66	8.122
469.86	10.211
470.06	9.083
470.26	10.075
470.46	8.748
470.66	10.737
470.86	8.646
471.06	9.237
471.26	8.162
471.46	9.472
471.66	9.161
471.86	9.578
472.06	9.051
472.26	10.546
472.46	9.384
472.66	9.857
472.86	9.078
473.06	9.190
473.26	8.566
473.46	9.751
473.66	9.060
473.86	9.966
474.06	8.188
474.26	9.477
474.46	8.362
474.66	10.495
474.86	9.977
475.06	10.160
475.26	7.422
475.46	10.584
475.66	9.038
475.86	10.101
476.06	9.665
476.26	10.038
476.46	9.066
476.66	9.876
476.86	8.922
477.06	9.188
477.26	8.470
477.46	9.743
477.65	9.966
477.85	10.201
478.05	8.361
478.25	10.733
478.45	8.508
478.65	10.604
478.85	8.918
479.05	10.243
479.25	9.520
479.45	11.180
479.65	8.911
479.85	9.875
480.05	9.158
480.25	10.457
480.45	9.707
480.65	10.954
480.85	9.808
481.05	10.515
481.25	10.699
481.44	10.881
481.64	9.829
481.84	10.861
482.04	10.020
482.24	10.870
482.44	9.810
482.64	10.129
482.84	10.299
483.04	10.286
483.24	9.878
483.44	10.096
483.64	9.621
483.84	9.662
484.04	10.001
484.23	10.299
484.43	10.629
484.63	11.331
484.83	11.800
485.03	12.349
485.23	12.418
485.43	12.277
485.63	12.366
485.83	11.633
486.03	11.421
486.23	11.571
486.42	11.695
486.62	11.246
486.82	11.225
487.02	11.081
487.22	11.056
487.42	10.781
487.62	10.842
487.82	10.160
488.02	10.824
488.22	10.780
488.41	11.002
488.61	10.814
488.81	11.233
489.01	11.252
489.21	11.309
489.41	11.253
489.61	11.304
489.81	11.390
490.01	11.781
490.20	11.623
490.40	11.631
490.60	11.660
490.80	11.157
491.00	11.167
491.20	10.942
491.40	10.516
491.60	10.800
491.79	10.529
491.99	10.616
492.19	10.916
492.39	11.079
492.59	10.925
492.79	10.981
492.99	10.736
493.19	11.202
493.38	11.599
493.58	11.260
493.78	11.697
493.98	12.015
494.18	12.345
494.38	11.781
494.58	11.531
494.77	11.782
494.97	11.655
495.17	10.538
495.37	10.830
495.57	11.327
495.77	11.477
495.96	11.140
496.16	11.215
496.36	10.978
496.56	10.839
496.76	10.665
496.96	11.073
497.15	10.323
497.35	10.877
497.55	11.057
497.75	10.938
497.95	10.830
498.15	11.164
498.34	10.867
498.54	11.386
498.74	11.821
498.94	11.621
499.14	11.231
499.34	11.429
499.53	10.947
499.73	11.346
499.93	11.071
500.13	12.013
500.33	10.829
500.52	11.395
500.72	11.462
500.92	11.489
501.12	10.570
501.32	11.178
501.52	10.825
501.71	10.924
501.91	10.546
502.11	11.680
502.31	10.268
502.51	11.496
502.70	9.997
502.90	10.955
503.10	10.653
503.30	11.961
503.50	10.949
503.69	10.823
503.89	11.100
504.09	11.841
504.29	10.866
504.48	11.198
504.68	11.779
504.88	11.522
505.08	10.924
505.28	11.993
505.47	11.147
505.67	11.513
505.87	11.233
506.07	12.128
506.27	11.604
506.46	11.538
506.66	11.485
506.86	11.890
507.06	12.194
507.25	11.435
507.45	11.176
507.65	11.386
507.85	11.394
508.04	12.067
508.24	11.707
508.44	11.955
508.64	11.691
508.83	12.304
509.03	11.380
509.23	11.815
509.43	11.262
509.63	12.131
509.82	11.707
510.02	12.092
510.22	12.122
510.42	11.499
510.61	12.041
510.81	12.084
511.01	11.966
511.21	12.398
511.40	11.722
511.60	12.709
511.80	12.164
511.99	12.606
512.19	11.944
512.39	12.477
512.59	11.808
512.78	12.312
512.98	11.823
513.18	12.257
513.38	11.943
513.57	12.305
513.77	12.053
513.97	12.332
514.17	12.077
514.36	12.570
514.56	11.745
514.76	12.913
514.95	11.693
515.15	12.209
515.35	11.548
515.55	12.164
515.74	12.564
515.94	13.167
516.14	12.300
516.33	12.742
516.53	11.471
516.73	12.298
516.93	12.372
517.12	12.268
517.32	11.622
517.52	12.182
517.71	12.574
517.91	12.955
518.11	12.583
518.30	12.212
518.50	11.423
518.70	11.847
518.90	12.472
519.09	12.573
519.29	12.457
519.49	12.126
519.68	12.425
519.88	12.788
520.08	13.120
520.27	12.719
520.47	12.891
520.67	13.155
520.86	13.111
521.06	13.177
521.26	13.154
521.45	12.917
521.65	12.830
521.85	12.698
522.04	12.443
522.24	13.120
522.44	12.346
522.63	12.859
522.83	12.648
523.03	12.470
523.22	12.493
523.42	12.998
523.62	12.938
523.81	13.072
524.01	12.189
524.21	12.801
524.40	12.639
524.60	12.840
524.80	12.503
524.99	13.194
525.19	13.183
525.39	12.865
525.58	12.567
525.78	13.154
525.98	12.914
526.17	13.078
526.37	12.573
526.57	12.432
526.76	12.676
526.96	12.793
527.15	12.713
527.35	12.756
527.55	13.261
527.74	13.266
527.94	12.804
528.14	12.480
528.33	12.400
528.53	12.168
528.72	12.663
528.92	12.462
529.12	12.820
529.31	12.831
529.51	13.470
529.71	13.136
529.90	13.277
530.10	13.472
530.29	13.566
530.49	13.610
530.69	14.433
530.88	14.189
531.08	14.294
531.28	13.838
531.47	13.874
531.67	13.469
531.86	13.522
532.06	13.465
532.26	13.561
532.45	13.320
532.65	13.027
532.84	13.023
533.04	12.810
533.24	12.837
533.43	12.578
533.63	13.233
533.82	13.298
534.02	13.247
534.22	13.413
534.41	13.319
534.61	13.462
534.80	13.539
535.00	13.521
535.19	14.413
535.39	14.518
535.59	14.118
535.78	14.185
535.98	14.411
536.17	13.931
536.37	13.662
536.57	13.539
536.76	13.767
536.96	13.689
537.15	14.064
537.35	13.821
537.54	13.805
537.74	13.911
537.93	13.980
538.13	14.256
538.33	13.947
538.52	14.423
538.72	14.694
538.91	14.878
539.11	14.104
539.30	14.653
539.50	14.009
539.70	14.472
539.89	14.296
540.09	14.036
540.28	14.055
540.48	14.590
540.67	13.861
540.87	14.027
541.06	13.783
541.26	13.735
541.45	13.821
541.65	14.115
541.85	13.983
542.04	14.208
542.24	14.283
542.43	14.446
542.63	14.312
542.82	14.294
543.02	14.668
543.21	14.945
543.41	15.223
543.60	14.959
543.80	15.088
543.99	15.282
544.19	15.315
544.38	16.008
544.58	14.953
544.77	15.027
544.97	15.713
545.16	15.240
545.36	14.623
545.56	15.350
545.75	15.707
545.95	15.411
546.14	15.522
546.34	15.575
546.53	15.175
546.73	15.045
546.92	15.988
547.12	15.227
547.31	15.405
547.51	15.794
547.70	15.911
547.90	15.522
548.09	15.605
548.29	15.740
548.48	16.240
548.68	16.586
548.87	16.650
549.07	16.451
549.26	16.810
549.46	16.806
549.65	16.193
549.84	16.118
550.04	16.219
550.23	16.840
550.43	16.866
550.62	16.351
550.82	16.264
551.01	16.819
551.21	16.327
551.40	16.431
551.60	17.016
551.79	16.321
551.99	16.968
552.18	15.977
552.38	16.646
552.57	17.417
552.77	17.034
552.96	17.032
553.16	16.865
553.35	17.469
553.54	17.884
553.74	17.063
553.93	17.247
554.13	17.124
554.32	17.835
554.52	18.638
554.71	18.791
554.91	17.749
555.10	18.428
555.29	17.977
555.49	17.862
555.68	17.648
555.88	18.014
556.07	17.147
556.27	18.205
556.46	18.706
556.66	18.771
556.85	19.253
557.04	18.843
557.24	17.748
557.43	18.683
557.63	18.402
557.82	18.119
558.02	18.065
558.21	19.064
558.40	18.174
558.60	18.986
558.79	19.338
558.99	19.041
559.18	18.933
559.38	19.441
559.57	19.347
559.76	18.660
559.96	20.173
560.15	19.973
560.35	20.069
560.54	19.155
560.73	18.498
560.93	20.418
561.12	19.628
561.32	19.629
561.51	18.744
561.70	19.987
561.90	19.796
562.09	20.443
562.29	18.869
562.48	20.416
562.67	20.724
562.87	20.985
563.06	20.437
563.26	20.141
563.45	20.771
563.64	21.065
563.84	20.504
564.03	20.472
564.23	20.135
564.42	21.505
564.61	22.017
564.81	20.439
565.00	20.666
565.20	21.336
565.39	21.127
565.58	21.134
565.78	20.989
565.97	20.941
566.16	21.681
566.36	21.022
566.55	21.410
566.74	20.547
566.94	21.413
567.13	21.831
567.33	21.176
567.52	22.007
567.71	21.328
567.91	22.114
568.10	22.608
568.29	22.334
568.49	22.882
568.68	22.518
568.87	22.644
569.07	21.665
569.26	22.017
569.45	22.335
569.65	22.834
569.84	22.461
570.04	21.556
570.23	21.550
570.42	21.830
570.62	22.113
570.81	22.481
571.00	22.148
571.20	22.085
571.39	21.807
571.58	22.359
571.78	22.533
571.97	22.489
572.16	22.309
572.36	22.516
572.55	22.726
572.74	22.670
572.94	22.190
573.13	22.877
573.32	22.489
573.51	21.743
573.71	23.082
573.90	22.246
574.09	23.209
574.29	22.311
574.48	23.331
574.67	21.760
574.87	22.833
575.06	22.686
575.25	22.650
575.45	22.623
575.64	22.144
575.83	23.295
576.03	22.769
576.22	22.648
576.41	21.736
576.60	21.902
576.80	23.398
576.99	22.444
577.18	22.435
577.38	22.821
577.57	21.719
577.76	23.272
577.95	23.233
578.15	22.852
578.34	22.404
578.53	22.368
578.73	22.944
578.92	23.135
579.11	22.257
579.30	23.061
579.50	22.919
579.69	22.546
579.88	23.489
580.08	22.813
580.27	22.629
580.46	22.294
580.65	21.888
580.85	22.189
581.04	22.093
581.23	21.621
581.42	22.181
581.62	21.958
581.81	21.712
582.00	22.195
582.19	22.482
582.39	21.327
582.58	21.531
582.77	21.409
582.96	22.745
583.16	21.769
583.35	22.296
583.54	22.809
583.73	22.583
583.93	21.501
584.12	21.878
584.31	21.618
584.50	21.838
584.70	21.417
584.89	21.410
585.08	21.161
585.27	21.906
585.47	21.154
585.66	21.184
585.85	21.607
586.04	22.249
586.24	22.801
586.43	21.223
586.62	20.854
586.81	21.633
587.00	20.823
587.20	21.956
587.39	20.947
587.58	21.534
587.77	20.555
587.97	20.852
588.16	20.720
588.35	20.972
588.54	20.973
588.73	20.734
588.93	22.077
589.12	22.063
589.31	20.692
589.50	20.462
589.69	22.101
589.89	21.292
590.08	21.083
590.27	21.484
590.46	20.240
590.65	20.922
590.85	21.286
591.04	21.334
591.23	20.667
591.42	21.121
591.61	20.535
591.81	20.898
592.00	21.416
592.19	20.948
592.38	19.912
592.57	21.100
592.77	22.196
592.96	20.599
593.15	21.751
593.34	20.689
593.53	20.464
593.72	21.080
593.92	20.323
594.11	21.469
594.30	20.721
594.49	21.508
594.68	21.082
594.87	21.495
595.07	20.691
595.26	21.603
595.45	21.180
595.64	22.541
595.83	20.891
596.02	20.957
596.22	20.543
596.41	20.587
596.60	21.798
596.79	20.942
596.98	20.781
597.17	22.236
597.37	21.149
597.56	21.852
597.75	21.958
597.94	21.017
598.13	21.667
598.32	21.638
598.51	21.738
598.71	22.797
598.90	22.401
599.09	21.823
599.28	22.607
599.47	22.153
599.66	22.807
599.85	22.503
600.05	21.818
600.24	22.595
600.43	22.442
600.62	21.438
600.81	21.832
601.00	22.425
601.19	22.104
601.38	22.756
601.58	22.895
601.77	23.104
601.96	22.177
602.15	24.087
602.34	21.861
602.53	24.126
602.72	22.591
602.91	21.826
603.10	22.222
603.30	22.754
603.49	22.587
603.68	23.504
603.87	22.696
604.06	22.849
604.25	22.543
604.44	22.511
604.63	22.577
604.82	22.545
605.01	23.204
605.21	22.135
605.40	23.711
605.59	23.324
605.78	22.745
605.97	23.875
606.16	23.600
606.35	23.501
606.54	23.545
606.73	22.766
606.92	22.445
607.11	24.956
607.30	23.306
607.50	24.269
607.69	23.261
607.88	23.251
608.07	22.695
608.26	22.560
608.45	23.380
608.64	23.031
608.83	22.300
609.02	22.402
609.21	22.470
609.40	22.479
609.59	22.211
609.78	22.606
609.97	21.796
610.16	23.128
610.35	22.396
610.55	21.882
610.74	22.006
610.93	22.085
611.12	22.063
611.31	22.268
611.50	21.054
611.69	22.061
611.88	21.712
612.07	23.115
612.26	21.764
612.45	23.290
612.64	21.607
612.83	23.154
613.02	20.579
613.21	20.870
613.40	21.491
613.59	21.779
613.78	21.277
613.97	21.588
614.16	19.156
614.35	21.972
614.54	20.000
614.73	21.826
614.92	20.704
615.11	21.052
615.30	20.809
615.49	20.277
615.68	21.018
615.87	21.134
616.07	17.981
616.26	20.607
616.45	19.754
616.64	19.676
616.83	20.253
617.02	20.054
617.21	18.199
617.40	20.255
617.59	18.408
617.78	18.639
617.97	19.317
618.16	18.742
618.35	17.138
618.54	19.512
618.73	18.750
618.92	19.778
619.11	18.653
619.30	19.251
619.49	18.869
619.68	19.724
619.86	18.646
620.05	19.596
620.24	19.418
620.43	20.177
620.62	18.374
620.81	18.195
621.00	17.986
621.19	20.480
621.38	18.448
621.57	19.141
621.76	19.221
621.95	19.156
622.14	18.365
622.33	18.738
622.52	18.549
622.71	19.154
622.90	17.844
623.09	19.746
623.28	18.553
623.47	19.806
623.66	18.390
623.85	19.740
624.04	16.837
624.23	18.655
624.42	19.093
624.61	17.648
624.80	16.690
624.99	18.385
625.18	17.182
625.36	19.032
625.55	18.313
625.74	18.157
625.93	17.173
626.12	19.873
626.31	18.434
626.50	18.090
626.69	18.960
626.88	19.822
627.07	19.293
627.26	18.318
627.45	19.436
627.64	19.991
627.83	16.543
628.02	18.771
628.20	17.862
628.39	19.041
628.58	17.664
628.77	19.154
628.96	17.518
629.15	17.875
629.34	18.058
629.53	19.253
629.72	17.406
629.91	18.798
630.10	17.632
630.29	18.446
630.47	16.638
630.66	17.882
630.85	17.690
631.04	17.289
631.23	16.441
631.42	17.273
631.61	16.061
631.80	18.221
631.99	15.303
632.18	15.982
632.36	16.159
632.55	17.808
632.74	16.054
632.93	16.636
633.12	17.249
633.31	17.412
633.50	16.543
633.69	17.947
633.88	14.970
634.06	17.647
634.25	15.095
634.44	16.912
634.63	18.517
634.82	18.113
635.01	15.837
635.20	17.256
635.39	14.639
635.57	18.101
635.76	16.287
635.95	17.383
636.14	16.831
636.33	17.111
636.52	16.348
636.71	17.250
636.89	16.899
637.08	15.992
637.27	15.618
637.46	17.098
637.65	16.848
637.84	17.382
638.03	15.464
638.21	18.536
638.40	16.291
638.59	16.081
638.78	15.891
638.97	18.112
639.16	17.862
639.34	16.976
639.53	14.790
639.72	18.896
639.91	14.758
640.10	16.749
640.29	16.614
640.47	18.355
640.66	16.440
640.85	18.509
641.04	15.270
641.23	17.173
641.42	16.094
641.60	16.999
641.79	15.561
641.98	18.532
642.17	16.187
642.36	17.073
642.54	13.843
642.73	16.917
642.92	13.989
643.11	16.180
643.30	14.951
643.49	16.208
643.67	14.969
643.86	17.133
644.05	14.654
644.24	16.459
644.43	15.194
644.61	17.173
644.80	16.170
644.99	15.993
645.18	17.447
645.37	17.223
645.55	14.893
645.74	15.348
645.93	13.906
646.12	15.658
646.31	15.798
646.49	15.925
646.68	16.171
646.87	16.057
647.06	15.353
647.24	15.478
647.43	15.129
647.62	16.776
647.81	12.296
648.00	16.846
648.18	13.964
648.37	14.812
648.56	15.112
648.75	16.263
648.93	13.842
649.12	15.952
649.31	14.256
649.50	13.097
649.68	14.919
649.87	15.447
650.06	13.432
650.25	15.609
650.43	15.069
650.62	14.676
650.81	15.755
651.00	15.163
651.18	15.118
651.37	16.973
651.56	13.419
651.75	17.705
651.93	14.057
652.12	15.483
652.31	13.762
652.50	15.658
652.68	15.978
652.87	16.875
653.06	15.563
653.25	16.116
653.43	15.550
653.62	16.523
653.81	14.335
654.00	17.225
654.18	13.247
654.37	15.905
654.56	15.809
654.74	14.927
654.93	13.022
655.12	13.844
655.31	13.887
655.49	14.954
655.68	12.092
655.87	12.973
656.05	12.952
656.24	14.765
656.43	11.753
656.62	14.617
656.80	13.706
656.99	14.816
657.18	13.758
657.36	13.917
657.55	12.672
657.74	13.465
657.93	13.836
658.11	14.116
658.30	14.244
658.49	12.990
658.67	15.531
658.86	12.438
659.05	12.429
659.23	13.908
659.42	11.301
659.61	13.855
659.79	12.995
659.98	14.637
660.17	13.512
660.35	13.240
660.54	14.334
660.73	15.543
660.91	12.961
661.10	14.978
661.29	11.284
661.47	12.980
661.66	11.968
661.85	13.008
662.03	12.999
662.22	11.146
662.41	9.590
662.59	12.510
662.78	9.723
662.97	11.250
663.15	8.973
663.34	11.070
663.53	10.301
663.71	11.407
663.90	11.202
664.09	12.847
664.27	10.837
664.46	11.062
664.65	9.071
664.83	10.246
665.02	11.156
665.21	8.220
665.39	8.542
665.58	11.033
665.77	9.082
665.95	11.842
666.14	10.374
666.32	11.382
666.51	10.568
666.70	9.188
666.88	9.749
667.07	12.646
667.26	8.614
667.44	8.889
667.63	10.019
667.81	8.242
668.00	9.017
668.19	11.196
668.37	9.210
668.56	13.396
668.75	8.834
668.93	11.940
669.12	9.116
669.30	11.361
669.49	8.233
669.68	10.550
669.86	11.341
670.05	9.600
670.23	10.988
670.42	8.924
670.61	10.076
670.79	10.569
670.98	10.467
671.16	12.783
671.35	9.685
671.54	10.026
671.72	9.061
671.91	10.380
672.09	8.510
672.28	11.651
672.46	11.159
672.65	11.688
672.84	11.299
673.02	12.572
673.21	8.951
673.39	9.511
673.58	10.762
673.77	10.913
673.95	10.764
674.14	12.521
674.32	10.322
674.51	12.201
674.69	10.475
674.88	12.378
675.07	9.015
675.25	12.332
675.44	11.744
675.62	10.929
675.81	7.387
675.99	16.525
676.18	12.223
676.36	9.390
676.55	10.014
676.74	13.638
676.92	13.458
677.11	11.065
677.29	11.306
677.48	13.562
677.66	11.390
677.85	12.321
678.03	11.966
678.22	15.152
678.40	10.270
678.59	12.364
678.78	11.001
678.96	10.519
679.15	10.144
679.33	13.178
679.52	12.958
679.70	13.828
679.89	11.783
680.07	13.377
680.26	10.048
680.44	12.622
680.63	12.190
680.81	11.907
681.00	9.389
681.18	12.875
681.37	11.565
681.55	13.047
681.74	12.575
681.92	13.759
682.11	13.501
682.29	11.257
682.48	13.294
682.66	13.881
682.85	12.251
683.03	14.670
683.22	16.469
683.40	15.989
683.59	11.594
683.77	15.336
683.96	10.810
684.14	15.534
684.33	10.813
684.51	17.594
684.70	13.131
684.88	15.694
685.07	12.364
685.25	15.324
685.44	12.894
685.62	13.993
685.81	12.823
685.99	15.859
686.18	13.310
686.36	17.023
686.55	12.887
686.73	12.695
686.92	15.486
687.10	16.655
687.29	17.311
687.47	17.341
687.65	16.866
687.84	16.408
688.02	20.120
688.21	19.411
688.39	16.867
688.58	18.702
688.76	17.153
688.95	17.645
689.13	14.432
689.32	19.051
689.50	17.982
689.68	19.235
689.87	16.933
690.05	18.639
690.24	19.383
690.42	19.699
690.61	20.080
690.79	22.038
690.98	18.503
691.16	20.015
691.34	16.811
691.53	21.396
691.71	20.800
691.90	21.086
692.08	20.183
692.27	25.771
692.45	22.773
692.63	23.080
692.82	27.979
693.00	24.008
693.19	22.853
693.37	26.312
693.56	23.802
693.74	28.279
693.92	26.099
694.11	26.405
694.29	25.263
694.48	29.988
694.66	28.296
694.84	31.045
695.03	26.098
695.21	32.716
695.40	30.843
695.58	32.489
695.76	28.860
695.95	32.845
696.13	31.990
696.32	35.750
696.50	36.987
696.68	35.026
696.87	34.128
697.05	37.869
697.24	36.395
697.42	40.583
697.60	35.582
697.79	37.777
697.97	37.904
698.16	41.641
698.34	36.496
698.52	44.291
698.71	41.802
698.89	42.440
699.07	40.165
699.26	42.305
699.44	42.244
699.63	42.315
699.81	40.149
699.99	43.745
700.18	44.035
700.36	42.794
700.54	44.928
700.73	42.986
700.91	45.272
701.09	43.963
701.28	48.254
701.46	46.990
701.64	45.789
701.83	48.991
702.01	46.965
702.20	52.342
702.38	50.304
702.56	50.368
702.75	53.549
702.93	51.351
703.11	51.231
703.30	53.982
703.48	54.613
703.66	57.980
703.85	52.251
704.03	56.215
704.21	54.956
704.40	58.680
704.58	54.614
704.76	58.258
704.95	56.025
705.13	57.649
705.31	56.657
705.50	59.853
705.68	60.406
705.86	63.555
706.04	59.500
706.23	60.259
706.41	63.282
706.59	59.261
706.78	57.827
706.96	62.751
707.14	58.595
707.33	59.082
707.51	57.580
707.69	62.624
707.88	60.390
708.06	61.918
708.24	63.194
708.42	62.446
708.61	60.503
708.79	60.315
708.97	66.387
709.16	62.597
709.34	68.096
709.52	61.981
709.71	64.834
709.89	65.954
710.07	63.133
710.25	65.348
710.44	65.475
710.62	66.545
710.80	65.056
710.98	64.205
711.17	65.952
711.35	63.294
711.53	62.472
711.72	62.021
711.90	68.999
712.08	67.837
712.26	65.268
712.45	64.708
712.63	65.712
712.81	65.136
712.99	67.873
713.18	68.832
713.36	67.561
713.54	68.045
713.72	66.298
713.91	69.734
714.09	66.513
714.27	65.011
714.45	68.135
714.64	68.126
714.82	68.701
715.00	69.995
715.18	68.832
715.37	69.996
715.55	68.184
715.73	69.000
715.91	69.381
716.10	67.452
716.28	66.914
716.46	69.595
716.64	70.341
716.83	70.607
717.01	68.688
717.19	67.219
717.37	67.959
717.55	69.676
717.74	67.810
717.92	67.915
718.10	66.524
718.28	68.077
718.47	67.081
718.65	71.761
718.83	70.265
719.01	72.291
719.19	70.941
719.38	67.895
719.56	69.995
719.74	71.014
719.92	68.602
720.10	74.600
720.29	71.900
720.47	73.666
720.65	74.087
720.83	76.563
721.01	70.434
721.20	70.879
721.38	80.990
721.56	73.969
721.74	73.866
721.92	78.585
722.11	74.085
722.29	76.962
722.47	75.471
722.65	72.480
722.83	72.416
723.01	77.601
723.20	75.421
723.38	70.753
723.56	77.886
723.74	73.473
723.92	74.354
724.10	78.830
724.29	75.995
724.47	77.827
724.65	75.984
724.83	76.516
725.01	71.392
725.19	78.567
725.38	72.941
725.56	73.575
725.74	75.650
725.92	75.741
726.10	76.079
726.28	75.541
726.46	76.977
726.65	76.870
726.83	75.095
727.01	80.305
727.19	74.704
727.37	80.188
727.55	74.612
727.73	75.121
727.92	78.209
728.10	74.074
728.28	76.951
728.46	77.206
728.64	77.053
728.82	80.852
729.00	71.453
729.19	75.613
729.37	80.640
729.55	74.324
729.73	76.901
729.91	79.017
730.09	75.743
730.27	75.734
730.45	74.842
730.63	73.223
730.82	77.000
731.00	77.726
731.18	78.014
731.36	70.944
731.54	74.971
731.72	77.507
731.90	74.427
732.08	78.688
732.26	76.382
732.45	77.635
732.63	78.985
732.81	77.500
732.99	79.507
733.17	82.530
733.35	75.478
733.53	76.419
733.71	75.474
733.89	76.541
734.07	80.140
734.25	81.496
734.44	75.188
734.62	76.081
734.80	82.829
734.98	79.575
735.16	85.863
735.34	83.385
735.52	81.888
735.70	84.700
735.88	82.865
736.06	81.310
736.24	84.407
736.42	80.371
736.60	80.448
736.78	81.514
736.97	84.207
737.15	80.464
737.33	81.384
737.51	82.828
737.69	85.572
737.87	86.200
738.05	85.858
738.23	84.538
738.41	88.545
738.59	89.281
738.77	83.562
738.95	85.937
739.13	84.691
739.31	87.099
739.49	89.603
739.67	84.970
739.85	88.300
740.03	81.985
740.21	86.250
740.39	87.294
740.57	87.205
740.75	86.370
740.93	84.189
741.11	85.141
741.30	90.752
741.48	93.565
741.66	82.741
741.84	89.016
742.02	83.122
742.20	84.809
742.38	88.545
742.56	87.528
742.74	90.355
742.92	90.032
743.10	85.992
743.28	84.495
743.46	91.760
743.64	85.458
743.82	90.062
744.00	95.185
744.18	89.187
744.36	85.857
744.54	90.188
744.72	93.194
744.90	96.701
745.08	95.558
745.26	82.235
745.44	95.622
745.62	95.503
745.80	86.062
745.98	98.457
746.16	95.184
746.34	88.093
746.52	96.239
746.70	94.727
746.87	95.426
747.05	93.905
747.23	91.476
747.41	93.694
747.59	84.197
747.77	87.354
747.95	101.166
748.13	92.280
748.31	94.792
748.49	94.077
748.67	95.160
748.85	92.549
749.03	89.028
749.21	93.008
749.39	92.967
749.57	86.116
749.75	90.802
749.93	97.354
750.11	91.468
750.29	92.107
750.47	90.714
750.65	95.124
750.83	97.805
751.01	86.482
751.18	96.003
751.36	91.601
751.54	87.944
751.72	92.000
751.90	96.743
752.08	89.132
752.26	93.351
752.44	88.803
752.62	91.772
752.80	90.650
752.98	94.674
753.16	91.107
753.34	97.307
753.52	95.204
753.69	97.234
753.87	88.638
754.05	95.343
754.23	96.789
754.41	94.098
754.59	97.268
754.77	89.446
754.95	89.394
755.13	93.788
755.31	89.271
755.49	90.008
755.66	92.729
755.84	90.043
756.02	89.652
756.20	90.551
756.38	94.464
756.56	91.559
756.74	90.463
756.92	90.188
757.10	95.413
757.28	97.399
757.45	92.647
757.63	90.044
757.81	97.015
757.99	101.587
758.17	91.522
758.35	93.441
758.53	94.941
758.71	89.251
758.88	86.772
759.06	91.105
759.24	84.956
759.42	81.443
759.60	82.855
759.78	81.771
759.96	77.713
760.13	85.004
760.31	76.110
760.49	73.173
760.67	67.015
760.85	72.292
761.03	65.963
761.21	72.539
761.38	68.394
761.56	75.364
761.74	68.438
761.92	71.633
762.10	67.243
762.28	66.212
762.46	67.788
762.63	70.625
762.81	69.366
762.99	70.565
763.17	68.823
763.35	68.145
763.53	74.730
763.70	70.680
763.88	67.746
764.06	68.258
764.24	66.935
764.42	72.458
764.60	72.438
764.77	72.713
764.95	67.680
765.13	72.782
765.31	71.894
765.49	70.578
765.66	72.821
765.84	75.881
766.02	75.622
766.20	80.418
766.38	77.538
766.56	79.635
766.73	79.410
766.91	78.116
767.09	84.443
767.27	85.395
767.45	81.430
767.62	84.583
767.80	81.712
767.98	90.300
768.16	85.079
768.33	88.067
768.51	88.838
768.69	91.929
768.87	85.837
769.05	87.327
769.22	98.115
769.40	98.281
769.58	95.041
769.76	94.584
769.94	92.165
770.11	96.137
770.29	97.392
770.47	98.307
770.65	94.645
770.82	95.708
771.00	100.560
771.18	102.772
771.36	98.309
771.53	99.091
771.71	99.167
771.89	97.380
772.07	101.533
772.25	103.567
772.42	97.677
772.60	105.144
772.78	98.753
772.96	100.000
773.13	98.829
773.31	101.469
773.49	106.702
773.67	100.749
773.84	98.718
774.02	99.381
774.20	94.089
774.37	106.109
774.55	108.583
774.73	106.614
774.91	99.092
775.08	102.571
775.26	99.325
775.44	109.007
775.62	102.261
775.79	102.604
775.97	99.722
776.15	96.702
776.32	105.991
776.50	101.892
776.68	100.659
776.86	110.143
777.03	97.544
777.21	99.866
777.39	104.079
777.56	100.529
777.74	99.451
777.92	113.740
778.10	104.850
778.27	102.270
778.45	100.000
778.63	107.660
778.80	104.626
778.98	99.596
779.16	99.459
779.34	101.764
779.51	97.021
779.69	97.639
779.87	97.101
780.04	102.304
780.22	107.296
780.40	96.883
780.57	104.084
780.75	99.170
780.93	94.723
781.10	98.349
781.28	116.303
781.46	97.658
781.63	101.266
781.81	102.691
781.99	97.730
782.16	96.793
782.34	104.389
782.52	107.367
782.69	91.523
782.87	96.844
783.05	107.727
783.22	99.133
783.40	107.917
783.58	104.777
783.75	98.649
783.93	104.050
784.11	108.800
784.28	98.489
784.46	97.285
784.64	107.967
784.81	102.178
784.99	117.225
785.17	107.458
785.34	97.108
785.52	99.371
785.69	101.214
785.87	109.047
786.05	99.061
786.22	101.917
786.40	110.265
786.58	100.881
786.75	103.236
786.93	102.100
787.11	99.834
787.28	108.666
787.46	114.154
787.63	103.492
787.81	97.080
787.99	91.530
788.16	91.105
788.34	95.683
788.51	94.023
788.69	84.677
788.87	90.934
789.04	87.722
789.22	88.466
789.39	95.609
789.57	97.744
789.75	100.412
789.92	94.360
790.10	90.108
790.27	94.044
790.45	87.948
790.63	92.329
790.80	90.973
790.98	99.183
791.15	92.835
791.33	91.750
791.51	97.106
791.68	105.345
791.86	94.785
792.03	90.208
792.21	96.223
792.39	98.413
792.56	100.988
792.74	102.205
792.91	98.901
793.09	94.056
793.26	92.308
793.44	99.340
793.62	97.472
793.79	95.337
793.97	96.891
794.14	101.622
794.32	103.866
794.49	98.980
794.67	92.154
794.84	91.242
795.02	103.186
795.20	102.186
795.37	97.966
795.55	89.372
795.72	91.601
795.90	98.988
796.07	89.701
796.25	97.068
796.42	97.078
796.60	95.341
796.77	89.065
796.95	89.650
797.13	87.215
797.30	97.546
797.48	87.390
797.65	94.645
797.83	82.733
798.00	101.120
798.18	95.853
798.35	99.679
798.53	92.342
798.70	91.171
798.88	95.625
799.05	90.205
799.23	83.975
799.40	102.759
799.58	95.533
799.75	95.138
799.93	83.886
800.10	90.413
800.28	93.056
800.45	86.730
800.63	91.589
800.80	97.853
800.98	95.866
801.15	101.554
801.33	98.949
801.50	94.959
801.68	87.386
801.85	95.760
802.03	103.960
802.20	96.707
802.38	91.468
802.55	88.319
802.73	95.629
802.90	94.118
803.08	99.624
803.25	105.894
803.43	95.709
803.60	103.906
803.78	102.317
803.95	89.892
804.13	96.869
804.30	104.449
804.48	97.093
804.65	97.260
804.83	94.930
805.00	87.189
805.17	97.606
805.35	97.059
805.52	98.384
805.70	88.715
805.87	102.240
806.05	104.312
806.22	92.872
806.40	89.649
806.57	90.608
806.75	95.993
806.92	94.571
807.09	99.806
807.27	95.155
807.44	102.841
807.62	93.900
807.79	83.082
807.97	92.871
808.14	98.000
808.31	93.211
808.49	92.958
808.66	81.919
808.84	94.512
809.01	83.895
809.19	89.258
809.36	90.054
809.53	97.652
809.71	87.475
809.88	106.723
810.06	90.524
810.23	94.565
810.41	90.574
810.58	100.188
810.75	83.054
810.93	92.708
811.10	94.094
811.28	90.837
811.45	93.622
811.62	95.374
811.80	98.238
811.97	101.591
812.15	80.282
812.32	91.778
812.49	102.179
812.67	82.543
812.84	89.888
813.02	93.210
813.19	80.800
813.36	89.154
813.54	84.532
813.71	96.976
813.89	84.746
814.06	92.982
814.23	89.937
814.41	100.252
814.58	85.532
814.75	90.157
814.93	86.547
815.10	85.812
815.28	93.220
815.45	93.510
815.62	91.991
815.80	75.223
815.97	69.860
816.14	96.447
816.32	75.216
816.49	80.992
816.66	77.186
816.84	80.368
817.01	86.905
817.18	80.000
817.36	84.211
817.53	91.874
817.71	73.882
817.88	90.289
818.05	72.340
818.23	81.299
818.40	79.229
818.57	78.652
818.75	81.221
818.92	91.150
819.09	70.881
819.27	77.593
819.44	76.586
819.61	88.462
819.79	78.384
819.96	88.314
820.13	78.644
820.31	79.266
820.48	84.381
820.65	86.129
820.82	69.665
821.00	67.039
821.17	68.687
821.34	75.169
821.52	66.080
821.69	73.765
821.86	74.105
822.04	76.667
822.21	70.458
822.38	70.331
822.56	66.485
822.73	66.695
822.90	67.448
823.07	65.103
823.25	65.351
823.42	65.103
823.59	65.408
823.77	62.735
823.94	63.430
824.11	63.537
824.29	63.467
824.46	64.989
824.63	67.112
824.80	66.506
824.98	69.165
825.15	64.080
825.32	69.770
825.49	70.595
825.67	75.031
825.84	70.373
826.01	69.110
826.19	73.026
826.36	68.077
826.53	69.129
826.70	65.342
826.88	76.091
827.05	76.799
827.22	70.071
827.39	73.086
827.57	68.233
827.74	63.707
827.91	71.419
828.08	68.836
828.26	71.680
828.43	68.875
828.60	68.380
828.77	65.220
828.95	65.752
829.12	62.321
829.29	67.063
829.46	62.823
829.64	71.846
829.81	62.199
829.98	74.480
830.15	68.571
830.32	64.241
830.50	59.852
830.67	71.448
830.84	60.477
831.01	70.597
831.19	82.037
831.36	72.822
831.53	82.420
831.70	75.382
831.87	68.327
832.05	80.996
832.22	85.106
832.39	79.869
832.56	72.885
832.74	72.349
832.91	67.052
833.08	81.408
833.25	60.773
833.42	69.522
833.60	69.673
833.77	68.633
833.94	62.162
834.11	68.281
834.28	62.149
834.45	70.374
834.63	62.106
834.80	67.789
834.97	68.211
835.14	68.432
835.31	68.168
835.49	69.483
835.66	62.997
835.83	62.088
836.00	70.188
836.17	68.855
836.34	66.089
836.52	75.513
836.69	73.946
836.86	75.753
837.03	71.530
837.20	70.833
837.37	66.722
837.55	62.760
837.72	78.585
837.89	77.902
838.06	80.676
838.23	84.842
838.40	71.807
838.58	78.571
838.75	90.184
838.92	86.957
839.09	93.038
839.26	89.296
839.43	100.000
839.60	97.428
839.78	110.248
839.95	101.190
840.12	95.614
840.29	89.474
840.46	99.688
840.63	85.596
840.80	89.446
840.98	103.030
841.15	74.873
841.32	88.547
841.49	81.543
841.66	85.405
841.83	80.142
842.00	85.552
842.17	103.073
842.34	92.479
842.52	92.121
842.69	90.190
842.86	86.813
843.03	112.540
843.20	90.490
843.37	105.952
843.54	99.659
843.71	120.417
843.88	104.745
844.06	133.475
844.23	114.407
844.40	122.458
844.57	121.488
844.74	111.638
844.91	124.876
845.08	163.277
845.25	148.936
845.42	134.078
845.59	110.246
845.76	137.097
845.94	154.444
846.11	128.218
846.28	118.327
846.45	149.462
846.62	140.000
846.79	118.987
846.96	128.022
847.13	154.891
847.30	131.638
847.47	140.206
847.64	108.163
847.81	188.235
847.98	127.568
848.15	116.201
848.32	130.052
848.50	117.500
848.67	145.562
848.84	114.201
849.01	164.029
849.18	165.294
849.35	129.048
849.52	122.751
849.69	137.912
849.86	187.838
850.03	168.595
850.20	162.000
850.37	138.824
850.54	135.638
850.71	138.021
850.88	130.968
851.05	145.652
851.22	154.819
851.39	141.176
851.56	162.069
851.73	150.595
851.90	149.020
852.07	127.485
852.24	136.601
852.41	128.934
852.58	144.809
852.75	106.395
852.92	122.099
853.09	173.856
853.26	134.641
853.43	121.765
853.60	148.299
853.77	117.318
853.94	152.212
854.11	146.667
854.28	160.417
854.45	184.416
854.62	145.930
854.79	162.424
854.96	141.667
855.13	144.654
855.30	184.672
855.47	196.774
855.64	142.236
855.81	189.209
855.98	151.908
856.15	179.231
856.32	118.009
856.49	132.768
856.66	127.564
856.83	144.025
857.00	154.918
857.17	170.968
857.34	136.957
857.51	164.085
857.68	140.816
857.85	160.588
858.02	138.776
858.19	96.133
858.36	164.943
858.53	132.544
858.70	135.165
858.87	162.069
859.04	147.647
859.21	165.909
859.38	123.502
859.55	148.295
859.72	153.472
859.89	162.937
860.05	196.403
860.22	143.636
860.39	194.828
860.56	158.333
860.73	141.667
860.90	164.072
861.07	135.500
861.24	116.912
861.41	148.555
861.58	157.143
861.75	169.291
861.92	140.000
862.09	133.166
862.26	161.935
862.43	154.667
862.59	125.658
862.76	134.715
862.93	197.692
863.10	201.471
863.27	161.538
863.44	160.163
863.61	150.725
863.78	138.503
863.95	156.098
864.12	237.179
864.29	202.542
864.45	137.107
864.62	152.846
864.79	141.176
864.96	217.308
865.13	154.015
865.30	205.102
865.47	134.483
865.64	185.315
865.81	181.579
865.97	119.497
866.14	131.016
866.31	145.082
866.48	150.000
866.65	117.178
866.82	169.799
866.99	150.000
867.16	116.279
867.33	154.610
867.49	138.554
867.66	183.582
867.83	113.393
868.00	126.344
868.17	198.473
868.34	150.394
868.51	137.324
868.67	116.071
868.84	142.222
869.01	138.621
869.18	144.000
869.35	171.631
869.52	166.423
869.69	158.955
869.85	144.595
870.02	121.196
870.19	153.846
870.36	144.604
870.53	236.905
870.70	211.607
870.86	129.221
871.03	175.912
871.20	163.866
871.37	154.438
871.54	178.302
871.71	146.212
871.87	208.247
872.04	105.625
872.21	144.697
872.38	236.145
872.55	150.000
872.72	131.159
872.88	156.667
873.05	119.251
873.22	177.500
873.39	121.341
873.56	138.129
873.72	132.044
873.89	140.127
874.06	151.639
874.23	155.072
874.40	130.400
874.56	175.758
874.73	185.833
874.90	141.781
875.07	146.565
875.24	141.463
875.40	161.607
875.57	145.238
875.74	120.625
875.91	159.524
876.08	125.000
876.24	143.590
876.41	191.729
876.58	157.664
876.75	140.000
876.92	175.641
877.08	167.883
877.25	135.714
877.42	154.615
877.59	113.855
877.75	133.962
877.92	120.930
878.09	151.974
878.26	143.151
878.42	164.444
878.59	138.068
878.76	122.751
878.93	148.344
879.09	132.653
879.26	113.462
879.43	133.333
879.60	132.727
879.76	106.154
879.93	96.447
880.10	83.256
880.27	88.444
880.43	94.388
880.60	89.202
880.77	86.667
880.94	83.214
881.10	77.241
881.27	68.232
881.44	51.844
881.61	65.795
881.77	64.391
881.94	57.571
882.11	54.586
882.28	49.864
882.44	49.052
882.61	55.241
882.78	53.148
882.94	60.428
883.11	58.041
883.28	48.333
883.45	55.194
883.61	61.597
883.78	54.268
883.95	59.958
884.11	49.787
884.28	57.209
>>>>>End Processed Spectral Data<<<<<
