SpectraSuite Data File
++++++++++++++++++++++++++++++++++++
Date: Thu Sep 19 03:35:55 EST 2019
User: sgrac
Dark Spectrum Present: Yes
Reference Spectrum Present: Yes
Number of Sampled Component Spectra: 1
Spectrometers: USB4E01596
Integration Time (usec): 100000 (USB4E01596)
Spectra Averaged: 1 (USB4E01596)
Boxcar Smoothing: 0 (USB4E01596)
Correct for Electrical Dark: No (USB4E01596)
Strobe/Lamp Enabled: Yes (USB4E01596)
Correct for Detector Non-linearity: No (USB4E01596)
Correct for Stray Light: No (USB4E01596)
Number of Pixels in Processed Spectrum: 3648
>>>>>Begin Processed Spectral Data<<<<<
178.44	935.714
178.66	935.714
178.87	935.714
179.09	-1027.273
179.30	171.429
179.52	1928.571
179.74	-722.222
179.95	614.286
180.17	1454.545
180.38	286.567
180.60	0.000
180.82	741.935
181.03	300.000
181.25	3450.000
181.46	1161.538
181.68	-267.442
181.89	1450.000
182.11	650.000
182.33	659.259
182.54	1266.667
182.76	927.778
182.97	-639.286
183.19	354.762
183.40	350.909
183.62	561.905
183.84	1537.500
184.05	1180.000
184.27	-7650.000
184.48	282.540
184.70	8550.000
184.91	773.077
185.13	323.944
185.34	-301.923
185.56	707.407
185.78	438.462
185.99	-4200.000
186.21	-1509.091
186.42	-315.000
186.64	853.333
186.85	-8200.000
187.07	695.455
187.28	1221.429
187.50	586.364
187.72	411.111
187.93	900.000
188.15	963.158
188.36	882.353
188.58	500.000
188.79	2450.000
189.01	716.667
189.22	3880.000
189.44	795.000
189.65	-5733.333
189.87	4025.000
190.09	1005.882
190.30	1985.714
190.52	1316.667
190.73	-657.692
190.95	381.818
191.16	641.667
191.38	452.778
191.59	-1472.727
191.81	872.727
192.02	993.333
192.24	719.231
192.45	1825.000
192.67	2850.000
192.88	-640.741
193.10	-17500.000
193.31	560.000
193.53	-733.333
193.74	-3275.000
193.96	2455.556
194.18	1156.250
194.39	339.024
194.61	1010.526
194.82	1563.636
195.04	696.000
195.25	5666.667
195.47	468.421
195.68	817.647
195.90	388.372
196.11	723.077
196.33	-2077.778
196.54	-1052.632
196.76	695.455
196.97	2077.778
197.19	-18300.000
197.40	1525.000
197.62	2783.333
197.83	1092.308
198.05	596.429
198.26	370.000
198.48	391.176
198.69	-2155.556
198.91	872.222
199.12	520.000
199.34	-2514.286
199.55	263.158
199.77	308.696
199.98	-1800.000
200.20	875.000
200.41	10400.000
200.63	571.429
200.84	719.048
201.06	-1392.308
201.27	-2660.000
201.49	1400.000
201.70	850.000
201.91	-9850.000
202.13	836.842
202.34	363.043
202.56	8600.000
202.77	706.250
202.99	360.000
203.20	557.576
203.42	-2342.857
203.63	2766.667
203.85	544.444
204.06	613.043
204.28	2062.500
204.49	-1250.000
204.71	553.659
204.92	333.333
205.14	371.111
205.35	235.714
205.56	2966.667
205.78	845.455
205.99	-1590.000
206.21	634.783
206.42	305.085
206.64	-2866.667
206.85	719.048
207.07	810.526
207.28	-3060.000
207.50	331.481
207.71	743.750
207.93	445.833
208.14	729.630
208.35	776.471
208.57	-472.000
208.78	-421.951
209.00	351.163
209.21	345.238
209.43	544.000
209.64	13500.000
209.86	685.714
210.07	468.966
210.28	-1253.846
210.50	964.706
210.71	695.000
210.93	628.125
211.14	274.286
211.36	426.087
211.57	870.000
211.78	438.462
212.00	1153.333
212.21	1035.294
212.43	1020.000
212.64	520.000
212.86	229.487
213.07	541.379
213.29	546.667
213.50	487.097
213.71	563.333
213.93	2485.714
214.14	941.176
214.36	2025.000
214.57	269.014
214.78	1226.667
215.00	826.316
215.21	833.333
215.43	240.506
215.64	592.593
215.86	1020.000
216.07	715.789
216.28	391.111
216.50	9050.000
216.71	-14300.000
216.93	751.852
217.14	303.030
217.35	417.143
217.57	2525.000
217.78	468.571
218.00	4366.667
218.21	566.667
218.42	318.750
218.64	-9200.000
218.85	409.804
219.07	2242.857
219.28	254.098
219.49	-908.333
219.71	1775.000
219.92	306.757
220.14	1287.500
220.35	390.909
220.56	1153.846
220.78	336.842
220.99	502.857
221.21	201.031
221.42	808.696
221.63	7450.000
221.85	604.167
222.06	625.000
222.28	218.667
222.49	-1277.778
222.70	340.741
222.92	-9550.000
223.13	397.368
223.34	223.913
223.56	1150.000
223.77	250.000
223.99	337.778
224.20	296.667
224.41	264.000
224.63	8300.000
224.84	4800.000
225.05	1223.077
225.27	407.692
225.48	318.333
225.69	212.941
225.91	301.563
226.12	210.145
226.34	431.250
226.55	244.118
226.76	380.392
226.98	230.682
227.19	228.205
227.40	372.000
227.62	238.356
227.83	133.929
228.04	174.026
228.26	127.679
228.47	129.167
228.69	107.353
228.90	77.381
229.11	60.699
229.33	86.124
229.54	65.560
229.75	65.371
229.97	59.756
230.18	55.814
230.39	44.444
230.61	53.242
230.82	50.166
231.03	55.732
231.25	75.168
231.46	53.274
231.67	63.774
231.89	74.206
232.10	72.453
232.31	90.625
232.53	81.651
232.74	72.477
232.95	61.275
233.17	81.538
233.38	75.263
233.59	110.674
233.81	105.556
234.02	104.571
234.23	84.536
234.45	90.000
234.66	72.989
234.87	87.209
235.09	103.191
235.30	79.126
235.51	82.511
235.73	59.596
235.94	71.429
236.15	69.403
236.36	86.222
236.58	66.507
236.79	85.776
237.00	75.100
237.22	83.069
237.43	80.545
237.64	76.398
237.86	88.208
238.07	99.580
238.28	67.323
238.50	73.206
238.71	84.456
238.92	80.660
239.13	82.796
239.35	84.647
239.56	83.333
239.77	100.546
239.99	51.210
240.20	68.482
240.41	70.866
240.63	55.522
240.84	65.929
241.05	48.986
241.26	49.580
241.48	45.260
241.69	36.585
241.90	32.644
242.12	36.196
242.33	29.924
242.54	23.025
242.75	29.461
242.97	29.462
243.18	18.594
243.39	18.668
243.61	19.711
243.82	20.386
244.03	18.989
244.24	20.460
244.46	24.251
244.67	29.986
244.88	25.473
245.09	24.257
245.31	29.836
245.52	28.671
245.73	37.262
245.95	50.595
246.16	36.607
246.37	32.323
246.58	25.385
246.80	24.043
247.01	25.092
247.22	19.977
247.43	24.004
247.65	17.217
247.86	17.492
248.07	12.491
248.28	11.489
248.50	13.896
248.71	9.948
248.92	12.876
249.13	10.993
249.35	11.299
249.56	13.550
249.77	13.372
249.98	16.062
250.20	15.385
250.41	22.949
250.62	20.204
250.83	16.121
251.05	29.624
251.26	28.223
251.47	27.752
251.68	25.514
251.90	26.108
252.11	27.787
252.32	21.799
252.53	28.446
252.75	22.787
252.96	29.121
253.17	17.763
253.38	24.361
253.59	23.704
253.81	24.519
254.02	19.207
254.23	21.727
254.44	28.286
254.66	27.124
254.87	28.983
255.08	31.794
255.29	37.405
255.50	25.866
255.72	28.235
255.93	44.619
256.14	40.086
256.35	27.378
256.57	33.415
256.78	31.360
256.99	40.112
257.20	39.457
257.41	35.876
257.63	37.406
257.84	33.017
258.05	27.969
258.26	31.672
258.47	37.767
258.69	28.087
258.90	16.064
259.11	18.475
259.32	13.286
259.53	16.393
259.75	17.436
259.96	15.273
260.17	14.114
260.38	11.564
260.59	12.250
260.81	11.203
261.02	10.336
261.23	11.151
261.44	11.241
261.65	8.819
261.87	11.706
262.08	10.801
262.29	14.770
262.50	10.246
262.71	11.782
262.92	15.738
263.14	15.000
263.35	15.423
263.56	15.895
263.77	18.590
263.98	22.431
264.20	23.991
264.41	17.758
264.62	20.497
264.83	15.354
265.04	25.862
265.25	25.225
265.47	26.245
265.68	28.870
265.89	24.027
266.10	23.259
266.31	23.343
266.52	18.884
266.74	18.237
266.95	20.457
267.16	16.406
267.37	17.500
267.58	14.488
267.79	15.422
268.01	18.199
268.22	11.830
268.43	14.842
268.64	18.263
268.85	13.408
269.06	16.971
269.27	20.683
269.49	18.004
269.70	15.243
269.91	14.727
270.12	15.207
270.33	17.740
270.54	19.186
270.75	15.066
270.97	18.721
271.18	12.979
271.39	16.083
271.60	17.812
271.81	13.032
272.02	14.217
272.23	14.444
272.45	14.812
272.66	11.709
272.87	12.821
273.08	12.934
273.29	13.949
273.50	10.580
273.71	14.934
273.92	10.256
274.14	11.004
274.35	13.058
274.56	16.969
274.77	10.036
274.98	13.507
275.19	10.318
275.40	15.341
275.61	13.511
275.83	13.793
276.04	16.894
276.25	15.502
276.46	17.748
276.67	16.003
276.88	17.487
277.09	19.890
277.30	17.612
277.51	17.361
277.73	17.326
277.94	12.745
278.15	15.679
278.36	12.966
278.57	13.879
278.78	16.283
278.99	15.831
279.20	16.209
279.41	14.246
279.62	11.442
279.84	16.712
280.05	16.015
280.26	12.868
280.47	16.547
280.68	14.877
280.89	16.681
281.10	18.911
281.31	13.344
281.52	12.873
281.73	11.733
281.94	10.628
282.16	17.028
282.37	14.684
282.58	14.203
282.79	15.797
283.00	16.094
283.21	12.483
283.42	10.963
283.63	14.639
283.84	8.613
284.05	12.263
284.26	13.855
284.47	11.038
284.68	14.847
284.89	10.585
285.11	12.318
285.32	9.381
285.53	12.158
285.74	12.299
285.95	10.748
286.16	10.472
286.37	11.117
286.58	8.990
286.79	11.439
287.00	10.444
287.21	8.380
287.42	13.280
287.63	10.131
287.84	11.491
288.05	12.133
288.26	12.547
288.48	12.204
288.69	7.692
288.90	11.248
289.11	14.066
289.32	13.006
289.53	11.411
289.74	12.010
289.95	12.218
290.16	11.836
290.37	8.813
290.58	9.144
290.79	8.377
291.00	12.766
291.21	10.229
291.42	9.302
291.63	10.853
291.84	12.795
292.05	10.066
292.26	9.491
292.47	11.320
292.68	8.528
292.89	10.710
293.10	11.937
293.31	10.379
293.52	10.770
293.73	9.452
293.94	15.047
294.15	13.465
294.36	11.841
294.57	15.717
294.79	11.410
295.00	9.646
295.21	12.386
295.42	10.790
295.63	11.536
295.84	10.000
296.05	10.276
296.26	9.835
296.47	6.273
296.68	8.730
296.89	10.591
297.10	10.073
297.31	10.514
297.52	7.817
297.73	9.316
297.94	7.183
298.15	7.624
298.36	8.011
298.57	8.736
298.78	8.957
298.99	7.423
299.20	8.883
299.41	8.477
299.62	8.100
299.83	9.311
300.04	8.146
300.25	12.308
300.46	10.148
300.67	11.099
300.88	11.001
301.09	9.529
301.30	10.556
301.50	13.220
301.71	13.946
301.92	12.977
302.13	11.118
302.34	10.202
302.55	10.632
302.76	11.521
302.97	9.829
303.18	10.343
303.39	12.369
303.60	9.379
303.81	9.959
304.02	12.426
304.23	12.776
304.44	13.989
304.65	10.648
304.86	9.217
305.07	11.414
305.28	10.872
305.49	12.629
305.70	12.500
305.91	11.653
306.12	10.036
306.33	9.131
306.54	11.104
306.75	11.226
306.96	15.466
307.17	9.337
307.38	10.360
307.58	8.249
307.79	11.069
308.00	10.549
308.21	11.393
308.42	9.091
308.63	15.434
308.84	9.542
309.05	11.266
309.26	9.526
309.47	11.413
309.68	9.016
309.89	12.339
310.10	10.984
310.31	8.017
310.52	7.550
310.73	10.775
310.94	7.157
311.14	6.798
311.35	8.601
311.56	7.642
311.77	6.487
311.98	9.220
312.19	7.206
312.40	10.384
312.61	8.122
312.82	10.354
313.03	8.674
313.24	10.990
313.45	9.641
313.66	9.572
313.86	10.893
314.07	7.673
314.28	13.373
314.49	10.674
314.70	11.802
314.91	12.727
315.12	10.724
315.33	10.652
315.54	11.246
315.75	10.427
315.96	10.832
316.16	9.766
316.37	9.644
316.58	11.714
316.79	10.012
317.00	11.376
317.21	10.409
317.42	13.920
317.63	9.252
317.84	11.463
318.05	10.214
318.25	12.932
318.46	9.160
318.67	8.270
318.88	13.205
319.09	11.959
319.30	11.465
319.51	9.573
319.72	9.707
319.93	12.225
320.13	13.512
320.34	11.277
320.55	12.226
320.76	10.031
320.97	10.358
321.18	11.076
321.39	12.224
321.60	10.061
321.80	13.437
322.01	10.112
322.22	11.855
322.43	11.474
322.64	8.455
322.85	11.757
323.06	13.514
323.27	11.730
323.47	12.274
323.68	12.801
323.89	8.760
324.10	11.894
324.31	8.698
324.52	8.693
324.73	9.781
324.93	8.174
325.14	8.982
325.35	11.709
325.56	11.128
325.77	11.603
325.98	10.603
326.19	8.451
326.39	8.446
326.60	10.823
326.81	10.756
327.02	9.408
327.23	8.112
327.44	13.706
327.64	7.281
327.85	10.246
328.06	10.250
328.27	14.145
328.48	10.841
328.69	10.070
328.90	9.349
329.10	9.934
329.31	9.656
329.52	9.296
329.73	11.960
329.94	11.821
330.15	12.432
330.35	9.007
330.56	13.261
330.77	11.754
330.98	11.068
331.19	9.792
331.39	12.479
331.60	12.466
331.81	8.295
332.02	12.900
332.23	12.062
332.44	8.629
332.64	9.647
332.85	10.375
333.06	11.594
333.27	10.055
333.48	9.291
333.68	9.038
333.89	10.284
334.10	10.043
334.31	12.957
334.52	8.853
334.72	9.858
334.93	8.948
335.14	9.372
335.35	10.260
335.56	11.303
335.76	8.084
335.97	9.039
336.18	8.869
336.39	11.596
336.60	9.803
336.80	10.560
337.01	8.829
337.22	6.696
337.43	12.395
337.64	11.323
337.84	11.353
338.05	10.602
338.26	12.063
338.47	9.878
338.68	9.618
338.88	9.494
339.09	9.980
339.30	9.158
339.51	9.768
339.71	9.226
339.92	8.749
340.13	10.883
340.34	10.041
340.55	6.779
340.75	11.145
340.96	7.409
341.17	10.124
341.38	8.751
341.58	8.921
341.79	9.286
342.00	8.380
342.21	9.228
342.41	5.816
342.62	10.064
342.83	10.243
343.04	7.333
343.24	9.461
343.45	10.474
343.66	9.838
343.87	8.058
344.07	9.394
344.28	8.621
344.49	8.549
344.70	10.533
344.90	8.885
345.11	5.321
345.32	9.657
345.53	8.009
345.73	8.375
345.94	7.673
346.15	10.225
346.36	6.261
346.56	9.821
346.77	9.424
346.98	7.993
347.19	8.526
347.39	9.403
347.60	7.421
347.81	9.158
348.02	10.085
348.22	8.022
348.43	9.748
348.64	10.163
348.84	7.720
349.05	10.363
349.26	10.711
349.47	7.934
349.67	9.491
349.88	8.777
350.09	9.767
350.30	10.889
350.50	9.012
350.71	10.440
350.92	9.347
351.12	8.658
351.33	11.228
351.54	8.106
351.74	10.030
351.95	9.055
352.16	9.274
352.37	11.324
352.57	9.392
352.78	10.732
352.99	9.969
353.19	11.027
353.40	8.764
353.61	12.135
353.82	8.982
354.02	11.313
354.23	9.497
354.44	9.160
354.64	7.554
354.85	10.220
355.06	10.302
355.26	7.310
355.47	7.906
355.68	11.687
355.88	10.665
356.09	8.406
356.30	7.416
356.51	10.478
356.71	9.555
356.92	8.774
357.13	8.822
357.33	10.407
357.54	10.082
357.75	6.970
357.95	9.261
358.16	7.391
358.37	9.772
358.57	6.899
358.78	9.452
358.99	9.370
359.19	7.152
359.40	9.701
359.61	7.134
359.81	9.993
360.02	11.679
360.23	8.805
360.43	7.864
360.64	7.062
360.85	6.885
361.05	7.823
361.26	9.776
361.47	7.655
361.67	9.676
361.88	6.596
362.09	6.558
362.29	6.494
362.50	6.789
362.70	6.463
362.91	8.741
363.12	7.561
363.32	7.146
363.53	7.439
363.74	8.062
363.94	5.284
364.15	9.293
364.36	8.696
364.56	7.564
364.77	9.145
364.98	11.049
365.18	9.196
365.39	9.696
365.59	7.315
365.80	6.867
366.01	9.496
366.21	6.608
366.42	7.390
366.63	8.615
366.83	6.711
367.04	5.300
367.24	11.044
367.45	6.421
367.66	7.909
367.86	7.220
368.07	9.902
368.28	8.029
368.48	7.636
368.69	6.411
368.89	6.910
369.10	8.912
369.31	7.624
369.51	8.861
369.72	8.918
369.92	9.561
370.13	5.711
370.34	9.737
370.54	6.270
370.75	8.169
370.95	7.012
371.16	7.387
371.37	6.138
371.57	6.777
371.78	7.890
371.98	8.154
372.19	8.279
372.40	9.757
372.60	8.310
372.81	8.413
373.01	6.840
373.22	6.318
373.43	8.028
373.63	7.007
373.84	8.482
374.04	7.282
374.25	7.753
374.46	7.786
374.66	7.591
374.87	8.622
375.07	6.608
375.28	6.273
375.48	8.581
375.69	8.256
375.90	5.133
376.10	6.511
376.31	7.471
376.51	6.432
376.72	6.893
376.92	5.386
377.13	8.148
377.34	9.369
377.54	6.468
377.75	7.258
377.95	6.894
378.16	7.057
378.36	8.032
378.57	7.759
378.77	7.858
378.98	7.312
379.19	6.544
379.39	5.572
379.60	7.123
379.80	5.594
380.01	7.724
380.21	7.519
380.42	7.386
380.62	6.035
380.83	8.101
381.04	6.914
381.24	8.274
381.45	7.247
381.65	6.737
381.86	6.912
382.06	9.132
382.27	5.343
382.47	5.600
382.68	7.572
382.88	6.522
383.09	5.947
383.29	5.950
383.50	8.353
383.71	7.735
383.91	5.822
384.12	5.412
384.32	7.572
384.53	7.174
384.73	5.644
384.94	6.351
385.14	6.393
385.35	4.777
385.55	7.040
385.76	5.352
385.96	5.264
386.17	6.994
386.37	6.048
386.58	6.933
386.78	7.921
386.99	6.231
387.19	8.790
387.40	6.218
387.60	6.892
387.81	5.880
388.01	5.068
388.22	7.210
388.42	6.642
388.63	7.334
388.83	8.691
389.04	5.411
389.24	6.442
389.45	7.172
389.65	6.583
389.86	6.582
390.06	5.169
390.27	5.965
390.47	6.004
390.68	5.825
390.88	7.802
391.09	6.877
391.29	6.441
391.50	5.829
391.70	5.951
391.91	5.784
392.11	5.774
392.32	5.820
392.52	5.747
392.73	7.139
392.93	6.114
393.14	5.448
393.34	5.821
393.55	7.439
393.75	5.666
393.95	5.932
394.16	6.925
394.36	7.055
394.57	6.794
394.77	6.684
394.98	5.276
395.18	6.620
395.39	6.627
395.59	6.618
395.80	4.970
396.00	6.190
396.21	7.953
396.41	4.938
396.61	6.779
396.82	6.551
397.02	8.090
397.23	6.702
397.43	6.013
397.64	6.128
397.84	7.279
398.05	5.230
398.25	6.265
398.45	5.780
398.66	6.292
398.86	6.274
399.07	7.912
399.27	6.409
399.48	6.966
399.68	4.426
399.89	6.006
400.09	7.109
400.29	6.776
400.50	5.838
400.70	8.367
400.91	5.086
401.11	5.506
401.32	6.676
401.52	4.963
401.72	6.180
401.93	7.510
402.13	7.133
402.34	6.320
402.54	4.881
402.75	8.433
402.95	6.258
403.15	7.738
403.36	6.479
403.56	7.254
403.77	6.629
403.97	4.693
404.17	5.594
404.38	6.515
404.58	5.240
404.79	6.969
404.99	5.418
405.19	5.172
405.40	5.618
405.60	6.031
405.81	5.783
406.01	6.371
406.21	6.337
406.42	6.051
406.62	6.647
406.83	7.009
407.03	7.878
407.23	4.965
407.44	4.973
407.64	5.625
407.85	7.107
408.05	6.374
408.25	6.314
408.46	7.477
408.66	5.886
408.87	5.263
409.07	6.611
409.27	5.192
409.48	6.117
409.68	6.820
409.88	5.036
410.09	6.622
410.29	7.028
410.50	7.552
410.70	5.592
410.90	6.152
411.11	5.179
411.31	5.762
411.51	5.637
411.72	6.976
411.92	5.220
412.12	5.388
412.33	5.399
412.53	5.018
412.74	4.913
412.94	7.361
413.14	5.509
413.35	4.969
413.55	6.613
413.75	5.763
413.96	5.164
414.16	6.407
414.36	5.763
414.57	6.424
414.77	4.746
414.97	6.455
415.18	5.104
415.38	5.771
415.58	5.896
415.79	5.420
415.99	6.344
416.19	6.530
416.40	5.836
416.60	5.346
416.80	5.387
417.01	5.453
417.21	5.664
417.41	7.599
417.62	5.953
417.82	6.670
418.02	4.748
418.23	5.993
418.43	5.240
418.63	6.040
418.84	6.415
419.04	5.284
419.24	7.010
419.45	7.087
419.65	6.538
419.85	6.697
420.06	5.836
420.26	6.355
420.46	6.086
420.67	6.958
420.87	7.176
421.07	7.388
421.28	6.259
421.48	7.957
421.68	6.740
421.88	7.507
422.09	6.552
422.29	7.092
422.49	6.290
422.70	6.902
422.90	6.509
423.10	7.715
423.31	7.075
423.51	7.990
423.71	6.518
423.91	7.599
424.12	7.404
424.32	7.841
424.52	7.159
424.73	7.030
424.93	7.313
425.13	6.854
425.33	6.391
425.54	7.695
425.74	6.579
425.94	8.002
426.15	7.032
426.35	6.893
426.55	7.159
426.75	8.076
426.96	7.232
427.16	6.810
427.36	7.449
427.57	7.731
427.77	6.413
427.97	7.214
428.17	7.356
428.38	7.931
428.58	4.565
428.78	7.528
428.98	5.665
429.19	5.461
429.39	5.301
429.59	7.453
429.79	5.493
430.00	5.583
430.20	4.687
430.40	6.099
430.60	5.423
430.81	6.244
431.01	5.556
431.21	6.298
431.41	4.854
431.62	6.127
431.82	5.417
432.02	7.938
432.22	5.378
432.43	5.277
432.63	4.944
432.83	6.155
433.03	5.429
433.24	5.702
433.44	5.718
433.64	6.393
433.84	5.553
434.05	6.780
434.25	6.055
434.45	7.459
434.65	7.720
434.85	8.290
435.06	7.167
435.26	7.139
435.46	6.790
435.66	7.218
435.87	6.521
436.07	7.015
436.27	6.783
436.47	5.523
436.67	5.173
436.88	7.094
437.08	7.605
437.28	6.378
437.48	6.331
437.69	7.157
437.89	6.486
438.09	8.256
438.29	6.495
438.49	7.405
438.70	7.431
438.90	5.941
439.10	5.788
439.30	6.652
439.50	5.877
439.71	7.321
439.91	6.624
440.11	8.581
440.31	7.366
440.51	6.773
440.72	6.832
440.92	7.041
441.12	7.701
441.32	8.226
441.52	8.343
441.72	7.867
441.93	7.574
442.13	8.216
442.33	7.372
442.53	8.807
442.73	6.623
442.94	8.110
443.14	7.133
443.34	8.861
443.54	8.211
443.74	8.848
443.94	7.211
444.15	7.299
444.35	6.047
444.55	8.367
444.75	6.858
444.95	7.680
445.15	7.186
445.36	6.979
445.56	5.992
445.76	8.054
445.96	7.092
446.16	7.125
446.36	6.446
446.57	8.662
446.77	6.268
446.97	7.545
447.17	8.066
447.37	7.555
447.57	8.083
447.77	8.052
447.98	7.272
448.18	8.900
448.38	7.158
448.58	8.231
448.78	7.744
448.98	8.672
449.18	7.695
449.39	8.353
449.59	7.222
449.79	7.688
449.99	7.219
450.19	7.891
450.39	7.404
450.59	7.921
450.79	7.126
451.00	8.158
451.20	8.026
451.40	6.679
451.60	6.887
451.80	8.618
452.00	6.603
452.20	7.411
452.40	6.672
452.61	7.015
452.81	6.455
453.01	7.939
453.21	6.939
453.41	7.459
453.61	6.609
453.81	7.223
454.01	6.989
454.21	7.280
454.42	7.946
454.62	8.119
454.82	6.809
455.02	7.616
455.22	5.938
455.42	6.645
455.62	6.158
455.82	6.709
456.02	6.517
456.23	7.361
456.43	6.552
456.63	7.209
456.83	5.215
457.03	7.888
457.23	7.255
457.43	7.567
457.63	6.707
457.83	7.745
458.03	6.285
458.23	7.276
458.43	6.283
458.64	7.551
458.84	6.674
459.04	7.548
459.24	6.984
459.44	7.422
459.64	7.575
459.84	7.361
460.04	6.995
460.24	7.878
460.44	7.377
460.64	8.152
460.84	7.747
461.04	8.562
461.24	8.324
461.45	8.878
461.65	8.107
461.85	8.635
462.05	8.314
462.25	9.081
462.45	8.756
462.65	8.611
462.85	6.414
463.05	8.457
463.25	6.223
463.45	8.022
463.65	7.448
463.85	8.102
464.05	7.348
464.25	6.969
464.45	7.527
464.65	7.366
464.85	6.680
465.05	6.835
465.26	6.871
465.46	8.412
465.66	7.655
465.86	7.612
466.06	6.788
466.26	7.223
466.46	5.933
466.66	7.161
466.86	5.973
467.06	7.684
467.26	7.095
467.46	8.658
467.66	6.960
467.86	7.300
468.06	6.173
468.26	6.842
468.46	7.311
468.66	7.449
468.86	6.152
469.06	7.285
469.26	5.501
469.46	7.524
469.66	6.390
469.86	7.736
470.06	6.571
470.26	8.094
470.46	6.561
470.66	8.197
470.86	6.414
471.06	6.588
471.26	5.617
471.46	6.380
471.66	7.212
471.86	7.100
472.06	6.902
472.26	8.422
472.46	8.103
472.66	7.166
472.86	6.310
473.06	6.948
473.26	6.859
473.46	8.370
473.66	6.733
473.86	8.152
474.06	5.953
474.26	7.511
474.46	6.226
474.66	8.444
474.86	7.284
475.06	8.337
475.26	5.590
475.46	8.017
475.66	5.763
475.86	7.847
476.06	7.767
476.26	7.382
476.46	6.173
476.66	7.937
476.86	6.521
477.06	6.703
477.26	6.001
477.46	6.660
477.65	7.128
477.85	7.798
478.05	4.963
478.25	8.773
478.45	6.236
478.65	7.452
478.85	6.528
479.05	9.013
479.25	7.285
479.45	8.206
479.65	5.944
479.85	7.923
480.05	7.257
480.25	8.137
480.45	7.612
480.65	8.572
480.85	7.209
481.05	8.264
481.25	8.243
481.44	8.432
481.64	6.728
481.84	8.817
482.04	7.883
482.24	8.391
482.44	6.768
482.64	7.883
482.84	8.166
483.04	8.026
483.24	8.120
483.44	8.157
483.64	7.931
483.84	8.173
484.04	8.278
484.23	8.427
484.43	8.593
484.63	9.098
484.83	9.545
485.03	10.308
485.23	10.246
485.43	10.352
485.63	10.400
485.83	9.875
486.03	9.572
486.23	9.847
486.42	9.517
486.62	9.770
486.82	9.238
487.02	9.128
487.22	8.936
487.42	8.843
487.62	8.904
487.82	8.852
488.02	8.830
488.22	8.921
488.41	9.330
488.61	8.976
488.81	8.844
489.01	9.533
489.21	9.304
489.41	9.520
489.61	9.636
489.81	9.875
490.01	9.557
490.20	9.721
490.40	9.601
490.60	9.880
490.80	9.383
491.00	9.085
491.20	9.159
491.40	8.957
491.60	8.508
491.79	8.937
491.99	9.057
492.19	9.088
492.39	9.004
492.59	9.078
492.79	9.334
492.99	9.144
493.19	9.605
493.38	9.772
493.58	9.501
493.78	9.756
493.98	9.867
494.18	10.164
494.38	9.001
494.58	9.668
494.77	8.203
494.97	9.549
495.17	7.874
495.37	8.940
495.57	8.570
495.77	9.583
495.96	8.261
496.16	7.879
496.36	8.003
496.56	8.427
496.76	7.520
496.96	8.506
497.15	7.922
497.35	8.602
497.55	8.602
497.75	9.040
497.95	7.658
498.15	8.946
498.34	8.684
498.54	9.103
498.74	10.111
498.94	9.822
499.14	7.638
499.34	9.296
499.53	8.655
499.73	9.231
499.93	8.295
500.13	8.793
500.33	8.358
500.52	8.930
500.72	8.222
500.92	8.638
501.12	7.722
501.32	8.664
501.52	8.562
501.71	8.302
501.91	7.845
502.11	8.777
502.31	7.338
502.51	8.592
502.70	7.318
502.90	8.112
503.10	7.940
503.30	9.291
503.50	8.036
503.69	8.352
503.89	8.313
504.09	8.552
504.29	8.159
504.48	9.094
504.68	8.397
504.88	9.389
505.08	7.372
505.28	8.818
505.47	8.108
505.67	9.986
505.87	8.229
506.07	9.049
506.27	8.273
506.46	9.593
506.66	8.150
506.86	8.182
507.06	9.416
507.25	8.969
507.45	8.773
507.65	8.748
507.85	8.107
508.04	9.696
508.24	8.884
508.44	8.927
508.64	8.269
508.83	9.468
509.03	7.998
509.23	8.834
509.43	8.205
509.63	9.477
509.82	8.762
510.02	9.162
510.22	8.841
510.42	9.916
510.61	9.361
510.81	9.243
511.01	9.125
511.21	9.915
511.40	8.682
511.60	10.084
511.80	8.977
511.99	9.999
512.19	8.994
512.39	10.299
512.59	9.182
512.78	9.816
512.98	9.604
513.18	9.884
513.38	9.136
513.57	9.946
513.77	9.762
513.97	9.757
514.17	8.869
514.36	10.146
514.56	8.835
514.76	9.449
514.95	8.197
515.15	9.005
515.35	8.527
515.55	9.440
515.74	9.174
515.94	10.420
516.14	8.997
516.33	10.070
516.53	8.856
516.73	8.931
516.93	8.742
517.12	10.184
517.32	8.575
517.52	9.790
517.71	9.253
517.91	9.308
518.11	9.431
518.30	9.502
518.50	9.035
518.70	9.939
518.90	9.037
519.09	10.337
519.29	10.380
519.49	10.304
519.68	9.322
519.88	10.613
520.08	10.290
520.27	10.208
520.47	10.587
520.67	10.634
520.86	10.479
521.06	10.660
521.26	9.417
521.45	10.579
521.65	10.075
521.85	10.338
522.04	10.023
522.24	10.227
522.44	9.854
522.63	9.993
522.83	9.301
523.03	10.824
523.22	9.407
523.42	10.268
523.62	9.778
523.81	10.094
524.01	9.831
524.21	9.799
524.40	8.630
524.60	10.372
524.80	9.925
524.99	10.207
525.19	9.563
525.39	10.390
525.58	9.815
525.78	10.184
525.98	10.398
526.17	10.391
526.37	9.819
526.57	10.235
526.76	10.209
526.96	10.579
527.15	10.216
527.35	11.022
527.55	9.930
527.74	10.507
527.94	10.818
528.14	10.444
528.33	10.020
528.53	9.830
528.72	10.137
528.92	10.360
529.12	10.284
529.31	10.223
529.51	10.877
529.71	10.913
529.90	10.870
530.10	10.956
530.29	11.267
530.49	11.347
530.69	11.068
530.88	11.665
531.08	11.477
531.28	11.435
531.47	11.343
531.67	11.250
531.86	10.643
532.06	11.070
532.26	10.601
532.45	10.618
532.65	10.539
532.84	10.859
533.04	10.398
533.24	10.360
533.43	9.997
533.63	10.471
533.82	10.648
534.02	10.808
534.22	11.060
534.41	11.248
534.61	10.739
534.80	10.994
535.00	11.284
535.19	11.863
535.39	11.844
535.59	11.606
535.78	11.429
535.98	11.291
536.17	11.583
536.37	11.153
536.57	11.379
536.76	11.357
536.96	11.034
537.15	11.742
537.35	11.360
537.54	11.318
537.74	11.401
537.93	11.761
538.13	11.307
538.33	11.352
538.52	11.902
538.72	12.002
538.91	11.629
539.11	11.989
539.30	11.910
539.50	11.602
539.70	11.398
539.89	11.582
540.09	11.366
540.28	11.297
540.48	10.821
540.67	11.232
540.87	11.349
541.06	11.555
541.26	11.151
541.45	11.344
541.65	11.301
541.85	11.602
542.04	11.642
542.24	11.761
542.43	11.659
542.63	12.065
542.82	11.798
543.02	12.290
543.21	12.099
543.41	12.353
543.60	12.330
543.80	12.098
543.99	12.722
544.19	12.580
544.38	12.610
544.58	12.842
544.77	12.132
544.97	12.898
545.16	12.176
545.36	12.785
545.56	12.636
545.75	12.689
545.95	12.277
546.14	12.542
546.34	12.301
546.53	12.351
546.73	12.301
546.92	13.322
547.12	12.032
547.31	12.583
547.51	13.040
547.70	13.574
547.90	12.539
548.09	12.839
548.29	12.617
548.48	13.265
548.68	12.823
548.87	13.918
549.07	13.752
549.26	14.163
549.46	12.614
549.65	12.975
549.84	13.025
550.04	13.035
550.23	12.874
550.43	13.000
550.62	12.457
550.82	12.698
551.01	11.174
551.21	13.483
551.40	12.844
551.60	13.566
551.79	11.735
551.99	13.043
552.18	12.153
552.38	13.362
552.57	12.939
552.77	14.103
552.96	13.686
553.16	13.617
553.35	13.799
553.54	14.364
553.74	13.617
553.93	13.877
554.13	13.925
554.32	14.148
554.52	14.818
554.71	15.189
554.91	13.607
555.10	15.401
555.29	13.608
555.49	13.885
555.68	14.279
555.88	14.063
556.07	12.960
556.27	14.809
556.46	13.814
556.66	15.181
556.85	14.713
557.04	15.473
557.24	15.628
557.43	15.110
557.63	14.573
557.82	14.457
558.02	14.101
558.21	16.305
558.40	13.563
558.60	15.436
558.79	15.133
558.99	14.888
559.18	15.527
559.38	15.355
559.57	15.087
559.76	14.704
559.96	16.543
560.15	15.569
560.35	14.652
560.54	15.826
560.73	13.597
560.93	16.119
561.12	15.792
561.32	15.201
561.51	15.522
561.70	16.094
561.90	15.469
562.09	16.795
562.29	15.776
562.48	16.586
562.67	16.614
562.87	17.016
563.06	16.406
563.26	16.631
563.45	15.162
563.64	18.240
563.84	16.790
564.03	17.041
564.23	16.437
564.42	17.855
564.61	17.048
564.81	17.702
565.00	17.168
565.20	18.870
565.39	18.011
565.58	17.430
565.78	16.681
565.97	17.636
566.16	18.351
566.36	17.899
566.55	17.486
566.74	17.539
566.94	17.486
567.13	18.554
567.33	17.995
567.52	19.137
567.71	19.171
567.91	19.629
568.10	18.831
568.29	19.411
568.49	19.002
568.68	19.402
568.87	18.880
569.07	19.280
569.26	19.220
569.45	19.787
569.65	19.095
569.84	19.516
570.04	17.750
570.23	18.692
570.42	17.439
570.62	19.289
570.81	18.784
571.00	18.705
571.20	18.610
571.39	18.883
571.58	19.438
571.78	19.647
571.97	19.418
572.16	19.409
572.36	18.970
572.55	19.537
572.74	19.822
572.94	19.500
573.13	19.227
573.32	20.201
573.51	18.879
573.71	19.854
573.90	18.977
574.09	19.789
574.29	19.525
574.48	20.265
574.67	18.957
574.87	19.970
575.06	19.031
575.25	19.626
575.45	19.060
575.64	19.048
575.83	19.617
576.03	20.131
576.22	19.563
576.41	20.127
576.60	19.481
576.80	19.719
576.99	20.220
577.18	20.746
577.38	19.630
577.57	20.010
577.76	20.328
577.95	20.299
578.15	19.401
578.34	19.580
578.53	19.028
578.73	19.721
578.92	18.941
579.11	19.439
579.30	19.486
579.50	18.878
579.69	19.601
579.88	20.121
580.08	18.154
580.27	19.022
580.46	19.313
580.65	19.762
580.85	19.242
581.04	19.890
581.23	18.955
581.42	19.417
581.62	17.116
581.81	19.078
582.00	18.887
582.19	19.835
582.39	18.956
582.58	18.868
582.77	18.488
582.96	18.553
583.16	17.121
583.35	19.741
583.54	19.172
583.73	19.198
583.93	17.679
584.12	17.706
584.31	16.465
584.50	18.540
584.70	17.683
584.89	18.136
585.08	18.089
585.27	18.236
585.47	17.143
585.66	18.864
585.85	15.733
586.04	17.879
586.24	18.889
586.43	17.854
586.62	17.348
586.81	18.345
587.00	16.577
587.20	18.145
587.39	15.346
587.58	18.898
587.77	18.452
587.97	18.108
588.16	17.926
588.35	19.047
588.54	17.035
588.73	18.198
588.93	17.878
589.12	18.936
589.31	16.959
589.50	17.278
589.69	18.836
589.89	18.566
590.08	17.557
590.27	18.582
590.46	18.017
590.65	18.130
590.85	17.008
591.04	18.065
591.23	18.167
591.42	19.095
591.61	17.844
591.81	17.742
592.00	17.612
592.19	18.316
592.38	17.144
592.57	17.641
592.77	17.513
592.96	17.462
593.15	18.833
593.34	18.149
593.53	17.223
593.72	17.890
593.92	16.723
594.11	19.085
594.30	16.801
594.49	18.958
594.68	18.261
594.87	18.978
595.07	16.750
595.26	19.145
595.45	17.128
595.64	18.755
595.83	17.846
596.02	18.395
596.22	18.301
596.41	18.784
596.60	18.276
596.79	18.692
596.98	17.993
597.17	18.935
597.37	18.005
597.56	19.017
597.75	17.636
597.94	19.605
598.13	19.210
598.32	19.221
598.51	19.276
598.71	19.449
598.90	19.758
599.09	19.661
599.28	18.556
599.47	19.753
599.66	18.369
599.85	19.696
600.05	18.861
600.24	20.326
600.43	19.075
600.62	19.670
600.81	18.940
601.00	19.258
601.19	18.146
601.38	20.031
601.58	19.962
601.77	19.117
601.96	18.373
602.15	20.826
602.34	18.878
602.53	20.427
602.72	19.385
602.91	19.322
603.10	19.480
603.30	20.207
603.49	18.600
603.68	19.854
603.87	18.573
604.06	19.386
604.25	19.749
604.44	19.622
604.63	19.374
604.82	20.630
605.01	20.019
605.21	19.525
605.40	19.694
605.59	20.742
605.78	20.174
605.97	20.214
606.16	20.771
606.35	20.931
606.54	20.197
606.73	21.617
606.92	20.245
607.11	22.260
607.30	20.413
607.50	21.682
607.69	19.368
607.88	19.968
608.07	19.187
608.26	20.551
608.45	19.451
608.64	20.217
608.83	17.921
609.02	19.403
609.21	19.671
609.40	20.167
609.59	18.725
609.78	19.577
609.97	18.789
610.16	20.218
610.35	20.005
610.55	19.658
610.74	19.632
610.93	19.418
611.12	19.076
611.31	19.906
611.50	18.867
611.69	19.740
611.88	18.439
612.07	20.338
612.26	17.493
612.45	18.662
612.64	17.217
612.83	20.284
613.02	16.679
613.21	17.085
613.40	17.727
613.59	19.550
613.78	16.204
613.97	17.926
614.16	16.153
614.35	17.609
614.54	14.079
614.73	18.297
614.92	17.574
615.11	16.781
615.30	15.740
615.49	16.185
615.68	16.461
615.87	15.223
616.07	14.235
616.26	16.828
616.45	15.672
616.64	15.188
616.83	15.812
617.02	18.303
617.21	14.484
617.40	16.103
617.59	17.091
617.78	16.147
617.97	16.858
618.16	15.396
618.35	12.701
618.54	15.725
618.73	14.583
618.92	15.843
619.11	15.055
619.30	16.607
619.49	13.151
619.68	16.732
619.86	14.728
620.05	16.303
620.24	14.759
620.43	15.618
620.62	12.703
620.81	13.875
621.00	16.643
621.19	16.339
621.38	15.013
621.57	16.913
621.76	14.680
621.95	15.309
622.14	15.119
622.33	15.924
622.52	14.427
622.71	16.362
622.90	13.163
623.09	16.411
623.28	15.229
623.47	16.522
623.66	14.666
623.85	14.831
624.04	14.386
624.23	16.052
624.42	14.304
624.61	13.065
624.80	12.377
624.99	15.100
625.18	12.037
625.36	15.605
625.55	15.476
625.74	14.954
625.93	13.252
626.12	14.858
626.31	15.331
626.50	15.279
626.69	14.607
626.88	16.090
627.07	16.262
627.26	15.345
627.45	15.262
627.64	16.220
627.83	14.265
628.02	16.325
628.20	14.522
628.39	16.750
628.58	15.670
628.77	16.352
628.96	14.433
629.15	14.573
629.34	14.655
629.53	15.253
629.72	12.428
629.91	16.002
630.10	14.105
630.29	14.535
630.47	11.874
630.66	13.658
630.85	14.302
631.04	13.976
631.23	14.431
631.42	13.024
631.61	12.909
631.80	14.849
631.99	12.738
632.18	12.876
632.36	12.119
632.55	15.762
632.74	12.918
632.93	13.547
633.12	13.353
633.31	13.287
633.50	12.619
633.69	13.811
633.88	11.583
634.06	15.474
634.25	12.152
634.44	13.494
634.63	15.217
634.82	15.162
635.01	11.651
635.20	14.400
635.39	11.336
635.57	14.896
635.76	12.641
635.95	13.127
636.14	11.804
636.33	14.795
636.52	13.383
636.71	12.922
636.89	13.143
637.08	13.884
637.27	12.112
637.46	13.204
637.65	13.651
637.84	13.691
638.03	12.508
638.21	14.142
638.40	13.832
638.59	13.438
638.78	12.327
638.97	13.936
639.16	14.606
639.34	13.149
639.53	11.639
639.72	14.119
639.91	12.230
640.10	12.420
640.29	14.062
640.47	15.304
640.66	13.021
640.85	14.744
641.04	11.214
641.23	14.625
641.42	13.913
641.60	13.716
641.79	12.652
641.98	15.050
642.17	11.708
642.36	14.888
642.54	12.612
642.73	12.755
642.92	10.095
643.11	11.506
643.30	12.080
643.49	12.915
643.67	10.160
643.86	12.448
644.05	11.108
644.24	12.747
644.43	12.317
644.61	13.392
644.80	12.594
644.99	12.888
645.18	15.440
645.37	13.007
645.55	11.763
645.74	12.216
645.93	10.901
646.12	13.165
646.31	11.617
646.49	11.524
646.68	13.516
646.87	13.394
647.06	12.620
647.24	13.031
647.43	10.670
647.62	14.659
647.81	9.944
648.00	13.816
648.18	11.016
648.37	12.236
648.56	12.533
648.75	11.605
648.93	12.172
649.12	13.614
649.31	11.635
649.50	11.011
649.68	12.139
649.87	11.227
650.06	10.920
650.25	11.056
650.43	11.811
650.62	10.825
650.81	12.083
651.00	10.958
651.18	11.475
651.37	14.063
651.56	10.714
651.75	14.422
651.93	10.568
652.12	13.746
652.31	11.565
652.50	11.210
652.68	13.242
652.87	13.746
653.06	12.809
653.25	12.252
653.43	11.662
653.62	12.895
653.81	11.170
654.00	13.664
654.18	12.472
654.37	12.896
654.56	11.689
654.74	10.911
654.93	9.265
655.12	12.659
655.31	9.788
655.49	10.669
655.68	9.424
655.87	10.142
656.05	9.540
656.24	11.468
656.43	10.486
656.62	10.445
656.80	11.776
656.99	10.430
657.18	10.118
657.36	10.480
657.55	11.773
657.74	8.856
657.93	11.971
658.11	12.254
658.30	12.266
658.49	9.452
658.67	11.984
658.86	10.168
659.05	10.124
659.23	11.650
659.42	8.936
659.61	11.596
659.79	11.276
659.98	11.655
660.17	11.171
660.35	10.564
660.54	11.801
660.73	13.311
660.91	11.138
661.10	11.607
661.29	8.103
661.47	10.695
661.66	10.564
661.85	10.928
662.03	10.072
662.22	7.473
662.41	7.186
662.59	9.270
662.78	7.957
662.97	8.688
663.15	7.111
663.34	7.997
663.53	7.690
663.71	9.827
663.90	9.776
664.09	10.602
664.27	9.437
664.46	9.344
664.65	7.627
664.83	7.600
665.02	8.888
665.21	7.268
665.39	8.602
665.58	8.299
665.77	7.143
665.95	9.671
666.14	9.073
666.32	9.350
666.51	8.749
666.70	6.729
666.88	7.819
667.07	9.200
667.26	7.075
667.44	7.683
667.63	8.966
667.81	8.054
668.00	7.240
668.19	11.196
668.37	7.611
668.56	10.642
668.75	5.688
668.93	10.386
669.12	7.287
669.30	8.779
669.49	5.581
669.68	8.563
669.86	9.061
670.05	7.368
670.23	6.967
670.42	6.761
670.61	8.682
670.79	8.601
670.98	9.155
671.16	11.542
671.35	7.079
671.54	9.353
671.72	7.562
671.91	7.921
672.09	8.253
672.28	9.518
672.46	10.764
672.65	8.540
672.84	10.269
673.02	8.699
673.21	6.504
673.39	7.937
673.58	10.523
673.77	8.227
673.95	8.845
674.14	9.929
674.32	8.521
674.51	10.145
674.69	6.868
674.88	8.375
675.07	7.282
675.25	12.056
675.44	8.878
675.62	8.520
675.81	8.606
675.99	14.442
676.18	10.686
676.36	6.938
676.55	8.018
676.74	10.220
676.92	12.045
677.11	9.227
677.29	8.785
677.48	12.591
677.66	9.277
677.85	8.796
678.03	9.081
678.22	9.738
678.40	11.687
678.59	8.967
678.78	7.555
678.96	8.601
679.15	8.606
679.33	10.516
679.52	10.868
679.70	9.982
679.89	10.234
680.07	10.414
680.26	8.442
680.44	8.984
680.63	9.488
680.81	8.659
681.00	8.177
681.18	9.424
681.37	10.177
681.55	10.383
681.74	10.634
681.92	10.485
682.11	9.047
682.29	9.661
682.48	10.981
682.66	10.345
682.85	10.163
683.03	11.204
683.22	11.719
683.40	14.110
683.59	9.436
683.77	12.916
683.96	10.108
684.14	11.741
684.33	8.563
684.51	13.773
684.70	9.923
684.88	15.069
685.07	11.380
685.25	11.672
685.44	9.921
685.62	11.979
685.81	8.707
685.99	12.794
686.18	10.563
686.36	13.105
686.55	9.467
686.73	9.894
686.92	13.039
687.10	14.098
687.29	13.480
687.47	14.480
687.65	13.528
687.84	12.203
688.02	17.468
688.21	16.222
688.39	13.013
688.58	16.175
688.76	13.701
688.95	13.720
689.13	11.779
689.32	17.097
689.50	14.179
689.68	15.935
689.87	13.983
690.05	14.281
690.24	15.318
690.42	15.472
690.61	17.506
690.79	17.601
690.98	15.615
691.16	14.472
691.34	11.346
691.53	15.706
691.71	14.324
691.90	15.654
692.08	15.167
692.27	21.670
692.45	18.057
692.63	17.388
692.82	20.407
693.00	18.271
693.19	15.818
693.37	21.145
693.56	17.962
693.74	21.583
693.92	19.585
694.11	21.755
694.29	20.555
694.48	25.238
694.66	18.750
694.84	25.245
695.03	20.000
695.21	24.239
695.40	26.060
695.58	29.114
695.76	23.014
695.95	25.639
696.13	23.598
696.32	27.536
696.50	34.913
696.68	28.013
696.87	26.893
697.05	28.252
697.24	28.023
697.42	30.341
697.60	28.243
697.79	31.093
697.97	31.375
698.16	35.015
698.34	29.890
698.52	35.919
698.71	32.158
698.89	34.019
699.07	34.650
699.26	36.383
699.44	35.661
699.63	36.798
699.81	34.969
699.99	38.038
700.18	38.468
700.36	37.756
700.54	37.107
700.73	38.128
700.91	38.121
701.09	40.735
701.28	39.424
701.46	40.572
701.64	38.287
701.83	41.246
702.01	36.566
702.20	45.683
702.38	41.036
702.56	38.971
702.75	41.831
702.93	39.358
703.11	41.214
703.30	44.469
703.48	40.949
703.66	41.974
703.85	40.478
704.03	47.757
704.21	43.322
704.40	47.415
704.58	38.429
704.76	44.912
704.95	43.975
705.13	44.342
705.31	43.836
705.50	47.335
705.68	42.944
705.86	45.879
706.04	44.074
706.23	50.457
706.41	46.974
706.59	43.899
706.78	43.062
706.96	50.301
707.14	47.250
707.33	48.327
707.51	43.855
707.69	48.372
707.88	47.266
708.06	49.036
708.24	45.472
708.42	50.652
708.61	47.653
708.79	51.306
708.97	52.743
709.16	51.265
709.34	52.627
709.52	48.973
709.71	48.957
709.89	52.578
710.07	47.612
710.25	50.112
710.44	50.894
710.62	52.963
710.80	53.532
710.98	50.653
711.17	49.240
711.35	48.772
711.53	46.887
711.72	52.315
711.90	51.989
712.08	51.625
712.26	49.688
712.45	51.244
712.63	50.727
712.81	53.937
712.99	50.670
713.18	58.021
713.36	53.503
713.54	50.500
713.72	49.911
713.91	52.143
714.09	48.390
714.27	52.659
714.45	54.082
714.64	55.342
714.82	52.150
715.00	55.288
715.18	53.975
715.37	56.140
715.55	50.781
715.73	57.182
715.91	50.664
716.10	55.105
716.28	51.395
716.46	55.546
716.64	53.271
716.83	55.474
717.01	53.819
717.19	53.121
717.37	52.816
717.55	58.276
717.74	54.652
717.92	53.836
718.10	49.050
718.28	55.681
718.47	48.583
718.65	54.403
718.83	53.704
719.01	58.383
719.19	53.770
719.38	50.842
719.56	51.100
719.74	53.479
719.92	47.745
720.10	53.767
720.29	53.940
720.47	54.060
720.65	52.902
720.83	56.770
721.01	48.126
721.20	51.522
721.38	55.160
721.56	56.000
721.74	50.151
721.92	57.666
722.11	49.207
722.29	55.010
722.47	49.373
722.65	53.432
722.83	55.108
723.01	56.426
723.20	49.470
723.38	54.947
723.56	54.557
723.74	59.669
723.92	52.214
724.10	57.265
724.29	49.250
724.47	60.302
724.65	54.134
724.83	59.796
725.01	48.454
725.19	58.893
725.38	53.189
725.56	58.096
725.74	55.485
725.92	56.322
726.10	52.094
726.28	55.349
726.46	54.727
726.65	57.793
726.83	54.551
727.01	59.466
727.19	51.659
727.37	58.056
727.55	54.898
727.73	55.097
727.92	53.672
728.10	58.961
728.28	47.719
728.46	59.147
728.64	56.703
728.82	59.720
729.00	54.348
729.19	58.348
729.37	57.733
729.55	58.895
729.73	53.041
729.91	59.712
730.09	57.318
730.27	56.603
730.45	50.892
730.63	56.419
730.82	54.294
731.00	57.367
731.18	53.444
731.36	58.112
731.54	54.844
731.72	57.681
731.90	54.014
732.08	61.974
732.26	54.378
732.45	59.230
732.63	59.642
732.81	57.898
732.99	54.927
733.17	57.913
733.35	55.568
733.53	57.851
733.71	55.171
733.89	58.538
734.07	59.930
734.25	61.361
734.44	55.222
734.62	55.755
734.80	57.625
734.98	60.980
735.16	55.630
735.34	61.292
735.52	58.382
735.70	62.234
735.88	55.919
736.06	58.296
736.24	60.915
736.42	59.549
736.60	59.606
736.78	60.437
736.97	55.737
737.15	59.100
737.33	55.563
737.51	56.345
737.69	61.052
737.87	62.483
738.05	61.522
738.23	58.984
738.41	57.765
738.59	62.725
738.77	55.660
738.95	63.565
739.13	56.320
739.31	59.902
739.49	60.794
739.67	63.033
739.85	60.427
740.03	59.007
740.21	60.000
740.39	59.341
740.57	60.400
740.75	55.981
740.93	58.727
741.11	60.070
741.30	55.865
741.48	63.815
741.66	55.895
741.84	59.649
742.02	52.743
742.20	52.290
742.38	53.251
742.56	63.103
742.74	56.096
742.92	54.864
743.10	57.004
743.28	56.382
743.46	58.960
743.64	58.987
743.82	54.793
744.00	62.681
744.18	54.472
744.36	58.486
744.54	57.765
744.72	63.176
744.90	65.017
745.08	65.095
745.26	53.617
745.44	64.120
745.62	53.880
745.80	52.917
745.98	53.176
746.16	59.632
746.34	55.595
746.52	56.789
746.70	56.429
746.87	56.771
747.05	55.654
747.23	55.009
747.41	54.796
747.59	57.686
747.77	53.901
747.95	60.253
748.13	53.949
748.31	57.197
748.49	55.836
748.67	59.909
748.85	54.937
749.03	60.928
749.21	54.554
749.39	57.204
749.57	47.700
749.75	59.916
749.93	57.938
750.11	58.362
750.29	60.034
750.47	58.383
750.65	55.940
750.83	57.594
751.01	54.252
751.18	59.079
751.36	57.743
751.54	57.473
751.72	51.826
751.90	59.859
752.08	50.594
752.26	58.221
752.44	49.096
752.62	56.759
752.80	54.764
752.98	61.800
753.16	58.802
753.34	64.093
753.52	58.462
753.69	57.217
753.87	57.169
754.05	58.612
754.23	53.880
754.41	57.143
754.59	51.407
754.77	58.564
754.95	49.663
755.13	59.016
755.31	54.736
755.49	56.224
755.66	55.603
755.84	55.915
756.02	47.814
756.20	62.555
756.38	47.946
756.56	59.948
756.74	52.589
756.92	55.375
757.10	50.000
757.28	68.208
757.45	58.737
757.63	57.004
757.81	48.787
757.99	59.944
758.17	51.298
758.35	60.477
758.53	53.478
758.71	57.709
758.88	56.878
759.06	56.155
759.24	49.735
759.42	53.265
759.60	56.397
759.78	56.163
759.96	48.581
760.13	53.273
760.31	48.490
760.49	51.591
760.67	47.346
760.85	51.134
761.03	46.791
761.21	45.250
761.38	39.465
761.56	53.721
761.74	38.675
761.92	51.431
762.10	42.305
762.28	48.234
762.46	43.902
762.63	43.151
762.81	46.672
762.99	46.863
763.17	44.549
763.35	49.795
763.53	51.146
763.70	57.018
763.88	52.338
764.06	52.386
764.24	48.499
764.42	55.998
764.60	57.090
764.77	51.118
764.95	50.309
765.13	56.668
765.31	55.399
765.49	55.612
765.66	53.016
765.84	54.978
766.02	50.989
766.20	54.634
766.38	50.036
766.56	56.110
766.73	50.332
766.91	55.015
767.09	48.990
767.27	57.702
767.45	51.027
767.62	55.434
767.80	53.699
767.98	51.587
768.16	45.986
768.33	52.451
768.51	54.244
768.69	59.462
768.87	49.665
769.05	52.544
769.22	53.927
769.40	61.274
769.58	45.041
769.76	60.445
769.94	51.031
770.11	51.717
770.29	57.029
770.47	56.095
770.65	56.721
770.82	56.438
771.00	48.488
771.18	58.093
771.36	49.638
771.53	50.568
771.71	50.476
771.89	56.264
772.07	55.425
772.25	59.287
772.42	51.103
772.60	57.416
772.78	48.628
772.96	53.263
773.13	49.297
773.31	63.035
773.49	49.803
773.67	56.929
773.84	46.026
774.02	56.312
774.20	46.683
774.37	54.714
774.55	55.586
774.73	57.804
774.91	56.031
775.08	55.527
775.26	57.760
775.44	60.530
775.62	57.580
775.79	52.995
775.97	47.639
776.15	54.749
776.32	49.073
776.50	57.881
776.68	58.498
776.86	62.571
777.03	53.615
777.21	50.201
777.39	52.321
777.56	56.085
777.74	54.184
777.92	51.298
778.10	53.780
778.27	59.413
778.45	46.325
778.63	58.357
778.80	52.789
778.98	58.681
779.16	54.668
779.34	56.309
779.51	51.348
779.69	55.556
779.87	55.336
780.04	53.523
780.22	48.498
780.40	55.065
780.57	54.414
780.75	49.101
780.93	56.499
781.10	52.407
781.28	65.066
781.46	44.628
781.63	55.380
781.81	62.606
781.99	51.348
782.16	51.312
782.34	52.351
782.52	52.665
782.69	49.007
782.87	62.410
783.05	49.183
783.22	58.382
783.40	52.151
783.58	58.552
783.75	54.955
783.93	48.464
784.11	54.400
784.28	55.891
784.46	46.908
784.64	60.000
784.81	52.429
784.99	74.801
785.17	53.729
785.34	56.621
785.52	53.302
785.69	54.173
785.87	53.796
786.05	53.678
786.22	57.827
786.40	64.404
786.58	46.990
786.75	55.178
786.93	48.304
787.11	55.721
787.28	54.246
787.46	63.538
787.63	56.508
787.81	54.161
787.99	51.263
788.16	55.811
788.34	51.223
788.51	59.767
788.69	47.043
788.87	46.165
789.04	41.337
789.22	52.471
789.39	55.949
789.57	54.637
789.75	48.489
789.92	52.820
790.10	45.257
790.27	48.061
790.45	45.768
790.63	51.325
790.80	48.519
790.98	59.150
791.15	46.646
791.33	53.912
791.51	58.199
791.68	65.000
791.86	50.153
792.03	56.231
792.21	47.455
792.39	48.889
792.56	50.577
792.74	56.378
792.91	48.980
793.09	46.805
793.26	46.325
793.44	59.076
793.62	44.392
793.79	51.123
793.97	50.432
794.14	54.775
794.32	53.251
794.49	58.163
794.67	38.898
794.84	50.159
795.02	53.628
795.20	51.184
795.37	53.390
795.55	47.826
795.72	52.139
795.90	50.759
796.07	50.000
796.25	59.259
796.42	44.318
796.60	47.920
796.77	44.374
796.95	48.250
797.13	40.944
797.30	54.448
797.48	50.733
797.65	51.085
797.83	39.489
798.00	60.800
798.18	48.963
798.35	54.575
798.53	51.952
798.70	54.499
798.88	49.531
799.05	54.532
799.23	45.917
799.40	59.828
799.58	56.014
799.75	46.840
799.93	46.603
800.10	51.475
800.28	47.222
800.45	45.814
800.63	39.626
800.80	64.401
800.98	48.622
801.15	51.641
801.33	53.590
801.50	52.846
801.68	41.133
801.85	49.823
802.03	50.099
802.20	56.499
802.38	48.294
802.55	46.903
802.73	55.944
802.90	58.007
803.08	46.429
803.25	63.308
803.43	50.187
803.60	63.672
803.78	46.524
803.95	45.668
804.13	58.513
804.30	57.060
804.48	48.256
804.65	53.816
804.83	50.000
805.00	50.000
805.17	58.564
805.35	57.059
805.52	45.455
805.70	57.986
805.87	57.026
806.05	52.772
806.22	48.065
806.40	49.649
806.57	52.855
806.75	52.091
806.92	53.590
807.09	62.524
807.27	49.806
807.44	53.977
807.62	50.832
807.79	51.759
807.97	49.156
808.14	54.364
808.31	45.138
808.49	43.838
808.66	43.911
808.84	54.878
809.01	48.876
809.19	51.367
809.36	70.524
809.53	58.317
809.71	55.070
809.88	68.067
810.06	57.258
810.23	58.261
810.41	54.713
810.58	71.805
810.75	50.652
810.93	57.292
811.10	56.693
811.28	56.175
811.45	51.481
811.62	50.881
811.80	59.251
811.97	57.045
812.15	53.722
812.32	58.000
812.49	59.322
812.67	48.491
812.84	51.910
813.02	52.263
813.19	45.600
813.36	59.219
813.54	60.131
813.71	61.555
813.89	53.511
814.06	62.768
814.23	54.927
814.41	47.607
814.58	57.234
814.75	60.827
814.93	48.879
815.10	53.318
815.28	60.048
815.45	48.077
815.62	49.199
815.80	45.312
815.97	53.293
816.14	55.584
816.32	58.836
816.49	46.074
816.66	61.194
816.84	52.965
817.01	68.571
817.18	52.000
817.36	63.158
817.53	60.948
817.71	45.412
817.88	60.892
818.05	48.936
818.23	47.047
818.40	51.820
818.57	52.360
818.75	48.357
818.92	50.885
819.09	45.977
819.27	54.772
819.44	53.611
819.61	50.810
819.79	41.818
819.96	59.770
820.13	44.237
820.31	48.963
820.48	60.682
820.65	54.355
820.82	47.713
821.00	48.324
821.17	32.071
821.34	44.399
821.52	49.061
821.69	44.856
821.86	49.435
822.04	50.476
822.21	49.529
822.38	51.823
822.56	48.937
822.73	54.749
822.90	52.932
823.07	53.583
823.25	53.754
823.42	55.856
823.59	53.976
823.77	53.004
823.94	54.519
824.11	53.923
824.29	50.997
824.46	52.752
824.63	55.812
824.80	54.729
824.98	53.795
825.15	53.017
825.32	45.564
825.49	53.768
825.67	50.941
825.84	51.028
826.01	46.233
826.19	53.582
826.36	42.077
826.53	46.579
826.70	45.731
826.88	55.759
827.05	45.301
827.22	44.814
827.39	49.188
827.57	46.831
827.74	40.028
827.91	53.986
828.08	43.356
828.26	50.457
828.43	43.064
828.60	53.663
828.77	45.486
828.95	50.103
829.12	37.894
829.29	37.063
829.46	45.095
829.64	41.149
829.81	40.314
829.98	49.507
830.15	40.914
830.32	38.018
830.50	36.084
830.67	43.572
830.84	39.655
831.01	38.897
831.19	38.704
831.36	48.432
831.53	53.497
831.70	53.053
831.87	47.012
832.05	54.059
832.22	60.638
832.39	53.829
832.56	45.553
832.74	41.164
832.91	44.316
833.08	52.888
833.25	34.438
833.42	46.458
833.60	44.323
833.77	31.655
833.94	38.996
834.11	39.792
834.28	31.380
834.45	41.079
834.63	39.522
834.80	48.737
834.97	39.655
835.14	46.130
835.31	41.441
835.49	38.767
835.66	35.780
835.83	36.484
836.00	46.479
836.17	41.828
836.34	39.975
836.52	47.564
836.69	41.717
836.86	46.823
837.03	40.569
837.20	39.962
837.37	41.806
837.55	42.533
837.72	49.348
837.89	43.973
838.06	54.106
838.23	56.632
838.40	45.542
838.58	47.005
838.75	61.350
838.92	57.391
839.09	57.278
839.26	59.437
839.43	69.444
839.60	67.846
839.78	69.876
839.95	63.393
840.12	61.696
840.29	70.914
840.46	66.044
840.63	54.571
840.80	66.227
840.98	73.003
841.15	59.898
841.32	58.380
841.49	57.025
841.66	52.703
841.83	45.390
842.00	62.890
842.17	77.374
842.34	59.889
842.52	59.394
842.69	62.025
842.86	64.469
843.03	81.029
843.20	62.248
843.37	61.905
843.54	65.188
843.71	80.417
843.88	68.613
844.06	101.695
844.23	102.119
844.40	89.407
844.57	91.322
844.74	86.638
844.91	77.114
845.08	110.169
845.25	89.362
845.42	99.441
845.59	85.656
845.76	81.183
845.94	100.556
846.11	98.515
846.28	79.681
846.45	93.548
846.62	86.000
846.79	80.169
846.96	81.868
847.13	117.391
847.30	94.350
847.47	80.928
847.64	96.735
847.81	132.353
847.98	78.378
848.15	97.207
848.32	83.420
848.50	93.000
848.67	100.000
848.84	107.692
849.01	110.791
849.18	110.000
849.35	106.667
849.52	91.005
849.69	98.901
849.86	104.730
850.03	145.455
850.20	118.667
850.37	85.294
850.54	105.851
850.71	104.167
850.88	92.258
851.05	108.152
851.22	116.265
851.39	108.021
851.56	143.103
851.73	125.000
851.90	110.458
852.07	95.322
852.24	109.150
852.41	84.264
852.58	103.279
852.75	92.442
852.92	101.657
853.09	134.641
853.26	107.843
853.43	98.235
853.60	125.170
853.77	113.408
853.94	119.469
854.11	100.000
854.28	132.639
854.45	125.974
854.62	104.070
854.79	106.061
854.96	141.667
855.13	115.723
855.30	137.226
855.47	151.613
855.64	77.019
855.81	138.849
855.98	143.511
856.15	128.462
856.32	101.896
856.49	105.650
856.66	134.615
856.83	98.113
857.00	114.754
857.17	150.806
857.34	108.696
857.51	98.592
857.68	88.265
857.85	121.176
858.02	134.014
858.19	98.343
858.36	110.345
858.53	98.817
858.70	101.648
858.87	139.310
859.04	117.059
859.21	132.576
859.38	92.627
859.55	134.091
859.72	85.417
859.89	123.077
860.05	136.691
860.22	123.030
860.39	175.862
860.56	117.262
860.73	130.357
860.90	131.138
861.07	122.000
861.24	98.529
861.41	119.653
861.58	109.740
861.75	123.622
861.92	126.875
862.09	102.010
862.26	136.129
862.43	132.000
862.59	112.500
862.76	118.135
862.93	140.769
863.10	158.088
863.27	123.846
863.44	131.707
863.61	111.594
863.78	100.535
863.95	115.854
864.12	119.231
864.29	172.034
864.45	88.679
864.62	125.203
864.79	102.353
864.96	132.692
865.13	113.139
865.30	179.592
865.47	102.069
865.64	155.245
865.81	148.246
865.97	72.956
866.14	95.722
866.31	141.803
866.48	92.958
866.65	130.061
866.82	139.597
866.99	149.286
867.16	136.434
867.33	131.915
867.49	133.735
867.66	141.045
867.83	108.482
868.00	117.742
868.17	130.534
868.34	160.630
868.51	131.690
868.67	123.810
868.84	125.926
869.01	117.931
869.18	108.000
869.35	132.624
869.52	127.007
869.69	169.403
869.85	130.405
870.02	109.239
870.19	153.077
870.36	126.619
870.53	165.476
870.70	174.107
870.86	92.208
871.03	132.117
871.20	150.420
871.37	114.201
871.54	125.472
871.71	115.152
871.87	125.773
872.04	81.250
872.21	156.061
872.38	168.675
872.55	141.429
872.72	92.029
872.88	115.000
873.05	108.556
873.22	170.833
873.39	87.805
873.56	112.950
873.72	103.315
873.89	132.484
874.06	138.525
874.23	134.058
874.40	143.200
874.56	155.303
874.73	178.333
874.90	115.753
875.07	113.740
875.24	124.390
875.40	150.000
875.57	107.937
875.74	102.500
875.91	124.603
876.08	115.000
876.24	134.615
876.41	152.632
876.58	152.555
876.75	110.968
876.92	112.821
877.08	129.927
877.25	112.338
877.42	110.000
877.59	109.036
877.75	113.208
877.92	85.465
878.09	125.000
878.26	108.904
878.42	104.444
878.59	128.977
878.76	114.815
878.93	81.457
879.09	103.401
879.26	110.256
879.43	111.979
879.60	106.061
879.76	106.667
879.93	74.112
880.10	66.512
880.27	71.556
880.43	82.143
880.60	78.873
880.77	76.078
880.94	69.286
881.10	63.793
881.27	61.602
881.44	35.141
881.61	56.942
881.77	45.941
881.94	41.009
882.11	35.207
882.28	36.957
882.44	31.985
882.61	34.865
882.78	37.673
882.94	49.198
883.11	41.546
883.28	40.980
883.45	43.337
883.61	41.316
883.78	36.992
883.95	39.520
884.11	37.021
884.28	41.395
>>>>>End Processed Spectral Data<<<<<
