SpectraSuite Data File
++++++++++++++++++++++++++++++++++++
Date: Thu Sep 19 03:42:12 EST 2019
User: sgrac
Dark Spectrum Present: Yes
Reference Spectrum Present: Yes
Number of Sampled Component Spectra: 1
Spectrometers: USB4E01596
Integration Time (usec): 100000 (USB4E01596)
Spectra Averaged: 1 (USB4E01596)
Boxcar Smoothing: 0 (USB4E01596)
Correct for Electrical Dark: No (USB4E01596)
Strobe/Lamp Enabled: Yes (USB4E01596)
Correct for Detector Non-linearity: No (USB4E01596)
Correct for Stray Light: No (USB4E01596)
Number of Pixels in Processed Spectrum: 3648
>>>>>Begin Processed Spectral Data<<<<<
178.44	664.286
178.66	664.286
178.87	664.286
179.09	-772.727
179.30	244.643
179.52	2228.571
179.74	-716.667
179.95	780.952
180.17	1781.818
180.38	322.388
180.60	0.000
180.82	690.323
181.03	353.704
181.25	2800.000
181.46	1269.231
181.68	-267.442
181.89	1542.857
182.11	791.667
182.33	748.148
182.54	1616.667
182.76	905.556
182.97	-696.429
183.19	333.333
183.40	347.273
183.62	485.714
183.84	1775.000
184.05	1080.000
184.27	-10300.000
184.48	236.508
184.70	8600.000
184.91	734.615
185.13	309.859
185.34	-250.000
185.56	685.185
185.78	380.769
185.99	-4900.000
186.21	-1418.182
186.42	-345.000
186.64	946.667
186.85	-7750.000
187.07	804.545
187.28	1164.286
187.50	650.000
187.72	466.667
187.93	1161.111
188.15	963.158
188.36	1047.059
188.58	535.897
188.79	2716.667
189.01	845.833
189.22	3760.000
189.44	715.000
189.65	-6133.333
189.87	4325.000
190.09	1064.706
190.30	2328.571
190.52	1350.000
190.73	-584.615
190.95	402.273
191.16	737.500
191.38	536.111
191.59	-1363.636
191.81	695.455
192.02	966.667
192.24	634.615
192.45	2050.000
192.67	2183.333
192.88	-633.333
193.10	-19900.000
193.31	554.286
193.53	-795.238
193.74	-3350.000
193.96	2255.556
194.18	1031.250
194.39	451.220
194.61	805.263
194.82	1418.182
195.04	648.000
195.25	5600.000
195.47	439.474
195.68	982.353
195.90	402.326
196.11	646.154
196.33	-2022.222
196.54	-1010.526
196.76	686.364
196.97	2000.000
197.19	-16700.000
197.40	1500.000
197.62	2650.000
197.83	1369.231
198.05	667.857
198.26	442.500
198.48	397.059
198.69	-1900.000
198.91	761.111
199.12	560.000
199.34	-1685.714
199.55	307.018
199.77	419.565
199.98	-1763.636
200.20	870.000
200.41	10400.000
200.63	614.286
200.84	890.476
201.06	-1100.000
201.27	-2920.000
201.49	1425.000
201.70	775.000
201.91	-9550.000
202.13	936.842
202.34	452.174
202.56	6450.000
202.77	787.500
202.99	440.000
203.20	596.970
203.42	-2600.000
203.63	3683.333
203.85	552.778
204.06	613.043
204.28	1812.500
204.49	-1420.000
204.71	504.878
204.92	377.778
205.14	415.556
205.35	337.143
205.56	2650.000
205.78	850.000
205.99	-1570.000
206.21	873.913
206.42	328.814
206.64	-3450.000
206.85	690.476
207.07	852.632
207.28	-3280.000
207.50	353.704
207.71	1037.500
207.93	385.417
208.14	825.926
208.35	823.529
208.57	-428.000
208.78	-378.049
209.00	395.349
209.21	419.048
209.43	732.000
209.64	13100.000
209.86	761.905
210.07	600.000
210.28	-1046.154
210.50	770.588
210.71	825.000
210.93	490.625
211.14	295.714
211.36	395.652
211.57	865.000
211.78	530.769
212.00	1213.333
212.21	1094.118
212.43	973.333
212.64	656.667
212.86	251.282
213.07	689.655
213.29	686.667
213.50	590.323
213.71	516.667
213.93	2671.429
214.14	970.588
214.36	2325.000
214.57	301.408
214.78	1260.000
215.00	805.263
215.21	850.000
215.43	263.291
215.64	740.741
215.86	1193.333
216.07	900.000
216.28	402.222
216.50	6900.000
216.71	-15100.000
216.93	611.111
217.14	316.667
217.35	380.000
217.57	3400.000
217.78	505.714
218.00	6800.000
218.21	562.500
218.42	303.125
218.64	-8350.000
218.85	443.137
219.07	1871.429
219.28	257.377
219.49	-1233.333
219.71	2025.000
219.92	275.676
220.14	1675.000
220.35	361.364
220.56	1130.769
220.78	243.860
220.99	511.429
221.21	167.010
221.42	669.565
221.63	7650.000
221.85	708.333
222.06	645.000
222.28	220.000
222.49	-1744.444
222.70	364.815
222.92	-8400.000
223.13	526.316
223.34	235.870
223.56	1358.333
223.77	261.765
223.99	446.667
224.20	326.667
224.41	229.333
224.63	8000.000
224.84	5266.667
225.05	915.385
225.27	333.333
225.48	373.333
225.69	195.294
225.91	256.250
226.12	208.696
226.34	515.625
226.55	213.235
226.76	345.098
226.98	222.727
227.19	207.692
227.40	390.000
227.62	242.466
227.83	160.714
228.04	203.896
228.26	121.429
228.47	179.167
228.69	94.118
228.90	98.214
229.11	89.956
229.33	81.340
229.54	76.349
229.75	73.498
229.97	62.805
230.18	59.136
230.39	46.717
230.61	60.068
230.82	64.784
231.03	46.815
231.25	61.409
231.46	55.952
231.67	63.019
231.89	54.762
232.10	66.038
232.31	88.393
232.53	94.037
232.74	72.018
232.95	78.431
233.17	70.769
233.38	67.895
233.59	104.494
233.81	96.914
234.02	96.000
234.23	71.134
234.45	81.818
234.66	91.379
234.87	77.326
235.09	93.617
235.30	79.612
235.51	79.372
235.73	82.323
235.94	60.714
236.15	75.373
236.36	90.222
236.58	75.598
236.79	81.466
237.00	78.313
237.22	94.709
237.43	73.541
237.64	103.727
237.86	78.774
238.07	86.975
238.28	70.079
238.50	70.335
238.71	94.301
238.92	76.415
239.13	83.333
239.35	71.784
239.56	83.333
239.77	90.164
239.99	60.484
240.20	77.043
240.41	66.535
240.63	45.672
240.84	73.009
241.05	55.405
241.26	49.580
241.48	51.070
241.69	41.734
241.90	38.161
242.12	36.401
242.33	31.629
242.54	32.101
242.75	34.175
242.97	35.411
243.18	18.887
243.39	16.319
243.61	25.361
243.82	29.192
244.03	25.683
244.24	21.065
244.46	27.929
244.67	30.683
244.88	33.916
245.09	26.898
245.31	25.410
245.52	25.524
245.73	35.355
245.95	53.770
246.16	39.286
246.37	30.808
246.58	26.615
246.80	29.709
247.01	27.907
247.22	15.012
247.43	24.194
247.65	20.607
247.86	18.885
248.07	15.443
248.28	15.177
248.50	16.689
248.71	14.499
248.92	14.029
249.13	13.974
249.35	14.831
249.56	15.670
249.77	16.325
249.98	16.062
250.20	19.712
250.41	25.166
250.62	26.447
250.83	23.984
251.05	30.202
251.26	36.585
251.47	34.574
251.68	34.075
251.90	30.213
252.11	26.456
252.32	30.104
252.53	30.645
252.75	27.141
252.96	26.923
253.17	20.526
253.38	25.700
253.59	23.580
253.81	23.492
254.02	18.835
254.23	24.291
254.44	22.429
254.66	23.529
254.87	29.322
255.08	33.393
255.29	37.595
255.50	31.976
255.72	29.804
255.93	39.686
256.14	50.647
256.35	31.555
256.57	33.661
256.78	38.158
256.99	36.007
257.20	42.797
257.41	43.918
257.63	37.970
257.84	40.228
258.05	23.755
258.26	24.116
258.47	39.573
258.69	24.830
258.90	19.971
259.11	19.897
259.32	18.861
259.53	19.672
259.75	18.379
259.96	18.167
260.17	16.667
260.38	13.971
260.59	10.734
260.81	11.313
261.02	14.331
261.23	12.282
261.44	12.861
261.65	10.441
261.87	14.158
262.08	12.834
262.29	17.312
262.50	13.100
262.71	14.152
262.92	19.754
263.14	18.750
263.35	14.826
263.56	18.737
263.77	19.551
263.98	22.431
264.20	28.374
264.41	17.506
264.62	24.348
264.83	16.929
265.04	28.515
265.25	25.354
265.47	23.553
265.68	25.523
265.89	28.725
266.10	19.711
266.31	24.448
266.52	22.684
266.74	25.966
266.95	14.994
267.16	17.746
267.37	23.804
267.58	16.109
267.79	18.817
268.01	22.139
268.22	14.048
268.43	17.904
268.64	16.467
268.85	16.201
269.06	19.321
269.27	21.145
269.49	22.282
269.70	17.184
269.91	18.909
270.12	18.433
270.33	19.326
270.54	22.868
270.75	16.573
270.97	18.721
271.18	14.472
271.39	15.989
271.60	18.807
271.81	14.225
272.02	18.051
272.23	17.995
272.45	13.308
272.66	12.727
272.87	16.453
273.08	15.861
273.29	13.671
273.50	13.814
273.71	15.143
273.92	12.011
274.14	10.857
274.35	14.567
274.56	17.528
274.77	15.090
274.98	15.149
275.19	13.033
275.40	16.964
275.61	14.644
275.83	15.643
276.04	16.212
276.25	17.473
276.46	17.117
276.67	16.869
276.88	21.968
277.09	15.746
277.30	20.322
277.51	15.799
277.73	15.479
277.94	12.389
278.15	19.338
278.36	19.068
278.57	17.260
278.78	18.159
278.99	14.600
279.20	15.934
279.41	17.114
279.62	15.721
279.84	16.352
280.05	18.063
280.26	12.316
280.47	17.266
280.68	19.806
280.89	15.759
281.10	17.897
281.31	15.297
281.52	13.725
281.73	11.111
281.94	12.025
282.16	17.446
282.37	13.027
282.58	13.043
282.79	19.464
283.00	13.460
283.21	14.000
283.42	10.682
283.63	13.971
283.84	15.474
284.05	13.889
284.26	14.123
284.47	14.739
284.68	13.449
284.89	12.295
285.11	14.437
285.32	9.837
285.53	15.468
285.74	15.821
285.95	13.124
286.16	10.757
286.37	9.537
286.58	12.057
286.79	11.966
287.00	11.302
287.21	10.146
287.42	13.480
287.63	11.444
287.84	13.790
288.05	14.200
288.26	10.654
288.48	14.514
288.69	10.216
288.90	14.895
289.11	15.189
289.32	14.312
289.53	12.038
289.74	12.251
289.95	15.163
290.16	14.795
290.37	10.612
290.58	10.192
290.79	11.785
291.00	11.846
291.21	10.565
291.42	12.126
291.63	11.825
291.84	13.580
292.05	9.736
292.26	10.120
292.47	10.602
292.68	10.613
292.89	11.420
293.10	12.981
293.31	11.809
293.52	10.394
293.73	10.821
293.94	12.821
294.15	14.103
294.36	12.047
294.57	14.538
294.79	11.803
295.00	11.447
295.21	14.268
295.42	12.108
295.63	13.389
295.84	10.828
296.05	11.450
296.26	10.110
296.47	9.489
296.68	11.030
296.89	11.559
297.10	9.969
297.31	11.881
297.52	10.000
297.73	9.586
297.94	10.603
298.15	10.313
298.36	8.330
298.57	9.733
298.78	11.107
298.99	7.089
299.20	10.212
299.41	10.155
299.62	11.126
299.83	9.676
300.04	8.625
300.25	11.514
300.46	11.416
300.67	11.659
300.88	12.101
301.09	9.019
301.30	11.111
301.50	12.768
301.71	14.739
301.92	12.801
302.13	12.123
302.34	10.735
302.55	12.227
302.76	12.212
302.97	9.358
303.18	12.207
303.39	12.718
303.60	10.000
303.81	11.491
304.02	12.840
304.23	9.524
304.44	14.111
304.65	12.374
304.86	13.253
305.07	12.457
305.28	11.570
305.49	13.314
305.70	13.158
305.91	10.311
306.12	11.599
306.33	11.069
306.54	10.067
306.75	12.318
306.96	17.702
307.17	10.904
307.38	13.329
307.58	11.650
307.79	11.005
308.00	16.903
308.21	12.632
308.42	12.292
308.63	12.476
308.84	10.941
309.05	13.810
309.26	9.526
309.47	13.078
309.68	8.961
309.89	11.946
310.10	9.067
310.31	10.515
310.52	7.961
310.73	13.243
310.94	7.453
311.14	8.438
311.35	8.989
311.56	8.767
311.77	7.907
311.98	10.688
312.19	8.141
312.40	11.666
312.61	8.860
312.82	11.045
313.03	9.913
313.24	9.853
313.45	10.899
313.66	8.989
313.86	10.993
314.07	10.505
314.28	15.160
314.49	10.296
314.70	12.442
314.91	15.484
315.12	9.784
315.33	10.303
315.54	11.362
315.75	11.339
315.96	13.284
316.16	9.708
316.37	11.453
316.58	10.229
316.79	9.148
317.00	12.171
317.21	10.710
317.42	14.094
317.63	10.312
317.84	12.239
318.05	11.283
318.25	13.400
318.46	9.571
318.67	10.499
318.88	10.444
319.09	10.494
319.30	10.624
319.51	10.244
319.72	12.454
319.93	11.002
320.13	14.048
320.34	13.520
320.55	11.912
320.76	9.785
320.97	10.295
321.18	12.722
321.39	12.917
321.60	11.455
321.80	13.127
322.01	11.170
322.22	13.448
322.43	12.115
322.64	11.825
322.85	12.133
323.06	12.822
323.27	13.156
323.47	13.333
323.68	11.627
323.89	10.796
324.10	11.721
324.31	9.267
324.52	9.366
324.73	11.421
324.93	10.088
325.14	11.595
325.35	7.489
325.56	11.634
325.77	12.824
325.98	10.754
326.19	12.704
326.39	10.106
326.60	10.973
326.81	12.132
327.02	9.813
327.23	9.164
327.44	13.046
327.64	8.486
327.85	8.890
328.06	10.850
328.27	14.835
328.48	12.480
328.69	11.355
328.90	12.185
329.10	12.227
329.31	9.765
329.52	11.605
329.73	11.735
329.94	11.369
330.15	11.281
330.35	11.302
330.56	11.326
330.77	12.281
330.98	12.225
331.19	10.326
331.39	11.628
331.60	11.220
331.81	8.124
332.02	13.124
332.23	10.339
332.44	9.081
332.64	10.647
332.85	9.713
333.06	11.433
333.27	7.403
333.48	11.600
333.68	8.774
333.89	9.373
334.10	9.721
334.31	12.644
334.52	9.120
334.72	9.146
334.93	9.870
335.14	10.711
335.35	10.367
335.56	10.361
335.76	9.711
335.97	8.312
336.18	7.849
336.39	12.533
336.60	9.904
336.80	8.726
337.01	9.573
337.22	8.135
337.43	11.117
337.64	10.542
337.84	10.290
338.05	8.771
338.26	11.154
338.47	10.132
338.68	9.183
338.88	8.861
339.09	10.079
339.30	10.039
339.51	9.341
339.71	10.564
339.92	8.113
340.13	9.712
340.34	11.410
340.55	7.645
340.75	11.948
340.96	9.526
341.17	8.781
341.38	8.657
341.58	9.784
341.79	10.333
342.00	9.398
342.21	12.045
342.41	8.083
342.62	11.293
342.83	9.100
343.04	8.295
343.24	10.454
343.45	11.327
343.66	9.928
343.87	8.239
344.07	9.764
344.28	10.103
344.49	8.971
344.70	9.189
344.90	7.753
345.11	6.760
345.32	8.634
345.53	9.264
345.73	9.722
345.94	8.046
346.15	11.452
346.36	5.161
346.56	8.027
346.77	10.741
346.98	8.931
347.19	8.816
347.39	9.742
347.60	6.633
347.81	8.637
348.02	10.766
348.22	8.833
348.43	9.209
348.64	9.368
348.84	6.239
349.05	9.703
349.26	9.936
349.47	7.042
349.67	9.037
349.88	9.711
350.09	11.380
350.30	10.517
350.50	10.057
350.71	10.262
350.92	11.856
351.12	9.070
351.33	9.420
351.54	11.010
351.74	8.916
351.95	10.292
352.16	10.071
352.37	13.333
352.57	10.097
352.78	10.067
352.99	9.260
353.19	11.116
353.40	10.022
353.61	11.603
353.82	8.404
354.02	11.617
354.23	9.110
354.44	11.886
354.64	7.432
354.85	10.054
355.06	8.836
355.26	9.148
355.47	8.304
355.68	10.924
355.88	10.107
356.09	11.182
356.30	8.087
356.51	12.112
356.71	8.279
356.92	7.241
357.13	8.785
357.33	11.765
357.54	9.582
357.75	7.741
357.95	10.357
358.16	8.261
358.37	10.152
358.57	7.554
358.78	10.994
358.99	8.075
359.19	7.891
359.40	10.943
359.61	9.088
359.81	11.035
360.02	11.883
360.23	9.211
360.43	9.397
360.64	8.701
360.85	8.197
361.05	8.085
361.26	11.186
361.47	10.267
361.67	9.294
361.88	6.882
362.09	8.504
362.29	8.008
362.50	7.514
362.70	6.513
362.91	10.430
363.12	8.550
363.32	7.220
363.53	9.109
363.74	8.786
363.94	6.626
364.15	8.501
364.36	9.002
364.56	9.286
364.77	10.525
364.98	12.485
365.18	10.449
365.39	10.993
365.59	7.346
365.80	7.931
366.01	10.931
366.21	7.942
366.42	8.711
366.63	10.939
366.83	7.246
367.04	6.434
367.24	11.680
367.45	8.633
367.66	9.484
367.86	9.142
368.07	10.345
368.28	9.572
368.48	8.583
368.69	6.285
368.89	8.811
369.10	9.395
369.31	8.549
369.51	9.380
369.72	11.556
369.92	10.287
370.13	7.657
370.34	10.238
370.54	6.396
370.75	9.637
370.95	6.978
371.16	10.149
371.37	8.130
371.57	7.295
371.78	7.316
371.98	8.841
372.19	8.309
372.40	9.874
372.60	8.338
372.81	8.875
373.01	8.536
373.22	8.472
373.43	8.294
373.63	8.744
373.84	9.104
374.04	9.050
374.25	8.696
374.46	9.710
374.66	8.598
374.87	9.259
375.07	7.154
375.28	7.552
375.48	8.845
375.69	8.525
375.90	5.634
376.10	7.853
376.31	8.534
376.51	7.318
376.72	7.254
376.92	6.882
377.13	9.355
377.34	8.846
377.54	6.828
377.75	8.366
377.95	7.996
378.16	9.707
378.36	8.184
378.57	7.510
378.77	8.565
378.98	7.952
379.19	7.566
379.39	6.531
379.60	7.789
379.80	5.668
380.01	8.994
380.21	7.837
380.42	9.936
380.62	6.690
380.83	8.265
381.04	7.939
381.24	9.430
381.45	8.359
381.65	6.396
381.86	8.200
382.06	8.837
382.27	6.724
382.47	7.882
382.68	8.422
382.88	6.257
383.09	6.157
383.29	7.243
383.50	9.923
383.71	9.033
383.91	6.031
384.12	6.595
384.32	8.203
384.53	7.275
384.73	6.727
384.94	5.484
385.14	6.707
385.35	5.928
385.55	8.343
385.76	6.268
385.96	6.586
386.17	7.902
386.37	7.268
386.58	7.360
386.78	9.222
386.99	6.598
387.19	8.950
387.40	6.723
387.60	9.532
387.81	6.522
388.01	6.742
388.22	7.589
388.42	8.031
388.63	7.474
388.83	9.111
389.04	6.312
389.24	7.313
389.45	7.436
389.65	7.232
389.86	7.073
390.06	6.267
390.27	6.279
390.47	7.784
390.68	6.919
390.88	7.325
391.09	8.562
391.29	6.621
391.50	7.987
391.70	7.327
391.91	6.642
392.11	6.436
392.32	7.753
392.52	7.682
392.73	6.940
392.93	7.053
393.14	6.996
393.34	6.969
393.55	7.954
393.75	6.437
393.95	5.972
394.16	7.253
394.36	7.116
394.57	7.475
394.77	6.704
394.98	6.422
395.18	6.906
395.39	7.163
395.59	7.522
395.80	6.237
396.00	5.600
396.21	8.764
396.41	5.818
396.61	8.123
396.82	7.202
397.02	8.523
397.23	7.015
397.43	7.291
397.64	6.439
397.84	7.884
398.05	5.342
398.25	6.920
398.45	6.927
398.66	7.272
398.86	7.439
399.07	8.813
399.27	7.704
399.48	7.870
399.68	7.319
399.89	6.114
400.09	7.743
400.29	6.996
400.50	6.477
400.70	7.795
400.91	5.526
401.11	5.954
401.32	8.470
401.52	6.301
401.72	6.816
401.93	7.687
402.13	7.583
402.34	7.222
402.54	5.888
402.75	9.780
402.95	7.117
403.15	8.761
403.36	7.274
403.56	7.566
403.77	6.754
403.97	6.320
404.17	6.046
404.38	6.515
404.58	6.757
404.79	7.320
404.99	6.065
405.19	6.484
405.40	6.583
405.60	7.247
405.81	6.450
406.01	6.927
406.21	6.859
406.42	6.536
406.62	7.704
406.83	7.080
407.03	6.996
407.23	5.383
407.44	5.476
407.64	7.140
407.85	7.208
408.05	7.102
408.25	6.958
408.46	8.060
408.66	6.287
408.87	5.891
409.07	6.994
409.27	5.707
409.48	7.353
409.68	7.293
409.88	5.850
410.09	7.316
410.29	7.894
410.50	7.829
410.70	6.194
410.90	6.750
411.11	5.933
411.31	6.446
411.51	6.493
411.72	8.116
411.92	6.047
412.12	6.906
412.33	6.139
412.53	6.223
412.74	4.933
412.94	8.175
413.14	5.975
413.35	7.309
413.55	7.253
413.75	6.856
413.96	5.884
414.16	6.721
414.36	7.110
414.57	7.471
414.77	5.927
414.97	7.527
415.18	5.064
415.38	6.362
415.58	6.968
415.79	5.780
415.99	6.068
416.19	7.565
416.40	6.675
416.60	6.001
416.80	6.704
417.01	7.377
417.21	5.545
417.41	7.758
417.62	6.922
417.82	6.611
418.02	5.539
418.23	6.255
418.43	6.564
418.63	7.235
418.84	6.797
419.04	6.082
419.24	7.618
419.45	7.628
419.65	7.014
419.85	7.055
420.06	5.914
420.26	6.576
420.46	6.748
420.67	7.285
420.87	7.186
421.07	7.407
421.28	6.333
421.48	8.316
421.68	6.914
421.88	7.798
422.09	6.962
422.29	7.896
422.49	6.814
422.70	7.289
422.90	7.239
423.10	8.110
423.31	6.841
423.51	7.831
423.71	6.408
423.91	7.483
424.12	7.224
424.32	8.189
424.52	6.950
424.73	6.892
424.93	7.012
425.13	7.208
425.33	6.542
425.54	7.366
425.74	6.967
425.94	7.650
426.15	7.234
426.35	7.188
426.55	7.448
426.75	7.660
426.96	7.252
427.16	7.254
427.36	7.342
427.57	7.991
427.77	6.482
427.97	6.489
428.17	7.356
428.38	7.372
428.58	5.091
428.78	7.279
428.98	5.469
429.19	6.088
429.39	5.403
429.59	7.354
429.79	5.565
430.00	6.036
430.20	5.686
430.40	6.156
430.60	5.891
430.81	6.872
431.01	5.556
431.21	6.503
431.41	4.580
431.62	6.423
431.82	6.229
432.02	7.394
432.22	6.214
432.43	5.304
432.63	5.736
432.83	6.248
433.03	5.757
433.24	5.739
433.44	5.476
433.64	6.765
433.84	6.027
434.05	6.791
434.25	6.022
434.45	7.141
434.65	7.111
434.85	7.490
435.06	7.049
435.26	7.915
435.46	5.831
435.66	6.393
435.87	6.590
436.07	6.649
436.27	6.467
436.47	5.820
436.67	5.974
436.88	6.601
437.08	6.994
437.28	6.493
437.48	6.242
437.69	7.280
437.89	6.291
438.09	7.457
438.29	5.396
438.49	7.638
438.70	6.495
438.90	6.395
439.10	5.612
439.30	6.775
439.50	5.910
439.71	6.512
439.91	6.085
440.11	7.319
440.31	7.216
440.51	6.421
440.72	6.449
440.92	6.856
441.12	7.069
441.32	7.684
441.52	7.247
441.72	7.815
441.93	6.924
442.13	7.627
442.33	6.682
442.53	7.905
442.73	6.474
442.94	7.084
443.14	6.336
443.34	8.038
443.54	6.529
443.74	8.002
443.94	6.624
444.15	6.297
444.35	6.172
444.55	7.452
444.75	6.422
444.95	6.685
445.15	6.720
445.36	6.665
445.56	5.805
445.76	7.010
445.96	6.603
446.16	6.914
446.36	6.351
446.57	7.533
446.77	5.514
446.97	6.977
447.17	7.301
447.37	7.005
447.57	7.307
447.77	7.408
447.98	6.750
448.18	7.609
448.38	6.749
448.58	7.075
448.78	7.364
448.98	7.724
449.18	6.561
449.39	7.437
449.59	6.959
449.79	7.150
449.99	6.802
450.19	6.900
450.39	6.227
450.59	7.206
450.79	6.268
451.00	7.250
451.20	7.769
451.40	6.464
451.60	6.131
451.80	7.498
452.00	6.434
452.20	6.215
452.40	6.123
452.61	6.736
452.81	5.818
453.01	6.883
453.21	6.259
453.41	6.755
453.61	6.675
453.81	6.476
454.01	6.313
454.21	7.137
454.42	7.935
454.62	6.925
454.82	6.080
455.02	6.830
455.22	5.376
455.42	6.487
455.62	5.710
455.82	7.073
456.02	6.120
456.23	7.208
456.43	6.628
456.63	6.630
456.83	4.665
457.03	6.777
457.23	6.782
457.43	7.017
457.63	5.671
457.83	6.736
458.03	5.913
458.23	6.622
458.43	5.180
458.64	7.211
458.84	6.439
459.04	6.405
459.24	6.610
459.44	6.662
459.64	6.527
459.84	6.615
460.04	6.378
460.24	6.886
460.44	6.654
460.64	7.339
460.84	6.232
461.04	7.536
461.24	7.055
461.45	7.719
461.65	7.698
461.85	7.729
462.05	7.396
462.25	8.066
462.45	7.409
462.65	7.255
462.85	5.748
463.05	7.673
463.25	6.415
463.45	7.542
463.65	6.310
463.85	6.731
464.05	6.725
464.25	6.434
464.45	6.949
464.65	6.711
464.85	6.102
465.05	6.241
465.26	6.318
465.46	7.497
465.66	6.607
465.86	7.324
466.06	6.449
466.26	7.234
466.46	5.663
466.66	6.467
466.86	5.792
467.06	6.389
467.26	6.418
467.46	7.751
467.66	6.395
467.86	6.680
468.06	6.413
468.26	6.038
468.46	6.290
468.66	6.815
468.86	5.528
469.06	6.940
469.26	5.804
469.46	7.055
469.66	5.525
469.86	7.805
470.06	5.894
470.26	7.284
470.46	6.098
470.66	7.504
470.86	6.870
471.06	6.154
471.26	5.606
471.46	6.208
471.66	6.975
471.86	6.729
472.06	6.154
472.26	7.666
472.46	6.995
472.66	6.634
472.86	6.369
473.06	6.603
473.26	6.079
473.46	6.921
473.66	5.980
473.86	6.769
474.06	5.621
474.26	6.739
474.46	5.544
474.66	7.503
474.86	6.524
475.06	7.111
475.26	5.567
475.46	7.668
475.66	6.371
475.86	6.483
476.06	6.841
476.26	7.225
476.46	6.252
476.66	7.276
476.86	6.354
477.06	6.016
477.26	6.210
477.46	6.303
477.65	6.918
477.85	7.239
478.05	5.833
478.25	7.728
478.45	6.105
478.65	6.986
478.85	6.735
479.05	7.665
479.25	6.178
479.45	7.925
479.65	6.348
479.85	7.397
480.05	6.707
480.25	7.559
480.45	6.507
480.65	7.290
480.85	6.997
481.05	7.269
481.25	7.498
481.44	8.277
481.64	6.817
481.84	7.547
482.04	7.262
482.24	7.607
482.44	6.517
482.64	6.893
482.84	7.138
483.04	6.879
483.24	7.018
483.44	6.920
483.64	7.050
483.84	7.202
484.04	7.519
484.23	7.595
484.43	7.578
484.63	8.133
484.83	8.392
485.03	8.916
485.23	8.991
485.43	8.917
485.63	8.724
485.83	8.503
486.03	8.232
486.23	8.224
486.42	8.097
486.62	8.218
486.82	7.747
487.02	7.887
487.22	7.371
487.42	7.422
487.62	7.581
487.82	7.393
488.02	7.629
488.22	7.694
488.41	7.485
488.61	7.926
488.81	7.669
489.01	7.877
489.21	8.053
489.41	8.019
489.61	8.066
489.81	8.399
490.01	8.048
490.20	8.347
490.40	8.044
490.60	8.297
490.80	7.808
491.00	7.721
491.20	7.494
491.40	7.620
491.60	7.795
491.79	7.635
491.99	7.908
492.19	7.872
492.39	7.883
492.59	7.792
492.79	7.709
492.99	8.039
493.19	8.074
493.38	8.035
493.58	8.082
493.78	8.408
493.98	7.851
494.18	8.897
494.38	8.059
494.58	8.195
494.77	7.718
494.97	7.796
495.17	6.822
495.37	7.586
495.57	7.797
495.77	8.070
495.96	7.626
496.16	7.400
496.36	6.963
496.56	7.651
496.76	6.851
496.96	8.083
497.15	7.067
497.35	7.016
497.55	7.628
497.75	7.876
497.95	7.383
498.15	7.920
498.34	7.861
498.54	7.513
498.74	7.671
498.94	8.696
499.14	7.614
499.34	7.839
499.53	7.639
499.73	7.743
499.93	7.753
500.13	8.076
500.33	6.878
500.52	7.663
500.72	7.532
500.92	8.113
501.12	7.488
501.32	8.140
501.52	7.406
501.71	7.530
501.91	7.450
502.11	7.921
502.31	7.349
502.51	8.691
502.70	6.118
502.90	7.678
503.10	6.868
503.30	7.871
503.50	7.664
503.69	7.947
503.89	7.552
504.09	8.120
504.29	7.584
504.48	7.790
504.68	7.701
504.88	8.697
505.08	7.286
505.28	8.619
505.47	7.803
505.67	8.270
505.87	7.904
506.07	7.547
506.27	7.904
506.46	8.514
506.66	7.228
506.86	8.085
507.06	8.412
507.25	7.935
507.45	7.689
507.65	8.086
507.85	8.404
508.04	8.631
508.24	7.811
508.44	8.218
508.64	7.726
508.83	8.763
509.03	7.902
509.23	8.203
509.43	7.795
509.63	8.403
509.82	7.838
510.02	8.114
510.22	8.234
510.42	8.825
510.61	8.206
510.81	8.846
511.01	8.555
511.21	8.853
511.40	7.983
511.60	9.112
511.80	7.960
511.99	8.541
512.19	8.184
512.39	8.603
512.59	8.106
512.78	8.444
512.98	8.875
513.18	8.846
513.38	8.452
513.57	8.920
513.77	8.599
513.97	8.576
514.17	7.820
514.36	8.846
514.56	7.904
514.76	8.843
514.95	7.807
515.15	9.032
515.35	7.972
515.55	8.458
515.74	8.834
515.94	9.589
516.14	8.133
516.33	9.317
516.53	8.157
516.73	9.007
516.93	8.320
517.12	8.604
517.32	7.682
517.52	8.808
517.71	8.276
517.91	8.634
518.11	8.460
518.30	8.894
518.50	7.900
518.70	8.206
518.90	8.536
519.09	9.089
519.29	8.971
519.49	8.908
519.68	8.569
519.88	9.195
520.08	9.139
520.27	8.884
520.47	8.969
520.67	9.642
520.86	8.897
521.06	9.646
521.26	8.662
521.45	9.101
521.65	9.091
521.85	9.009
522.04	8.342
522.24	9.154
522.44	9.035
522.63	9.589
522.83	8.604
523.03	9.020
523.22	8.986
523.42	8.771
523.62	9.206
523.81	9.125
524.01	8.661
524.21	9.644
524.40	8.054
524.60	9.236
524.80	9.032
524.99	9.100
525.19	8.943
525.39	9.011
525.58	9.061
525.78	9.279
525.98	8.983
526.17	9.342
526.37	9.352
526.57	9.233
526.76	9.257
526.96	9.490
527.15	9.284
527.35	9.350
527.55	9.133
527.74	9.492
527.94	8.971
528.14	9.122
528.33	9.265
528.53	8.528
528.72	8.938
528.92	8.798
529.12	9.055
529.31	9.145
529.51	9.356
529.71	9.327
529.90	9.137
530.10	9.380
530.29	9.556
530.49	9.653
530.69	9.910
530.88	9.918
531.08	10.191
531.28	9.751
531.47	9.714
531.67	9.212
531.86	9.516
532.06	9.742
532.26	9.429
532.45	9.740
532.65	8.903
532.84	9.476
533.04	9.122
533.24	9.532
533.43	9.067
533.63	9.331
533.82	9.376
534.02	9.821
534.22	9.506
534.41	9.886
534.61	9.782
534.80	9.695
535.00	9.786
535.19	10.146
535.39	10.184
535.59	10.098
535.78	9.998
535.98	9.456
536.17	9.977
536.37	9.261
536.57	9.901
536.76	10.065
536.96	9.738
537.15	10.142
537.35	10.151
537.54	10.153
537.74	10.177
537.93	9.964
538.13	9.596
538.33	10.313
538.52	10.628
538.72	10.473
538.91	11.130
539.11	10.273
539.30	10.178
539.50	10.603
539.70	9.706
539.89	9.938
540.09	10.084
540.28	10.199
540.48	10.038
540.67	9.689
540.87	10.071
541.06	9.929
541.26	9.508
541.45	9.903
541.65	9.673
541.85	9.613
542.04	10.095
542.24	10.222
542.43	10.194
542.63	10.400
542.82	10.180
543.02	10.465
543.21	10.548
543.41	10.759
543.60	10.614
543.80	10.309
543.99	11.217
544.19	11.026
544.38	10.869
544.58	11.037
544.77	10.799
544.97	11.196
545.16	10.733
545.36	11.218
545.56	10.818
545.75	11.492
545.95	11.045
546.14	10.928
546.34	10.979
546.53	11.415
546.73	10.570
546.92	11.473
547.12	11.199
547.31	11.295
547.51	10.964
547.70	11.531
547.90	10.756
548.09	11.248
548.29	10.870
548.48	11.781
548.68	11.313
548.87	11.534
549.07	11.088
549.26	12.011
549.46	11.940
549.65	11.759
549.84	11.354
550.04	11.778
550.23	11.677
550.43	11.335
550.62	11.474
550.82	11.882
551.01	11.068
551.21	11.991
551.40	11.445
551.60	11.624
551.79	12.002
551.99	12.694
552.18	11.379
552.38	11.515
552.57	11.663
552.77	11.843
552.96	12.085
553.16	12.386
553.35	12.331
553.54	12.569
553.74	12.263
553.93	12.798
554.13	12.347
554.32	12.621
554.52	12.698
554.71	13.667
554.91	12.304
555.10	13.815
555.29	12.826
555.49	12.701
555.68	12.821
555.88	12.386
556.07	12.683
556.27	13.123
556.46	13.163
556.66	13.728
556.85	13.481
557.04	13.111
557.24	13.368
557.43	13.081
557.63	13.036
557.82	12.778
558.02	12.779
558.21	14.201
558.40	12.931
558.60	13.615
558.79	13.934
558.99	13.837
559.18	13.744
559.38	14.459
559.57	12.957
559.76	13.939
559.96	15.319
560.15	13.959
560.35	13.024
560.54	14.188
560.73	13.464
560.93	14.594
561.12	13.749
561.32	14.082
561.51	14.308
561.70	14.160
561.90	13.555
562.09	14.478
562.29	14.318
562.48	14.786
562.67	14.925
562.87	15.037
563.06	14.649
563.26	14.908
563.45	15.201
563.64	15.662
563.84	15.063
564.03	14.666
564.23	15.602
564.42	15.580
564.61	15.717
564.81	15.739
565.00	15.380
565.20	15.453
565.39	15.883
565.58	15.176
565.78	15.277
565.97	15.925
566.16	15.406
566.36	16.553
566.55	16.039
566.74	15.186
566.94	15.117
567.13	16.107
567.33	15.318
567.52	16.246
567.71	16.480
567.91	17.068
568.10	16.710
568.29	16.369
568.49	16.084
568.68	17.271
568.87	15.864
569.07	16.234
569.26	16.194
569.45	16.557
569.65	16.288
569.84	16.428
570.04	16.354
570.23	16.635
570.42	16.066
570.62	16.272
570.81	15.901
571.00	16.831
571.20	15.839
571.39	16.384
571.58	16.191
571.78	16.332
571.97	16.853
572.16	16.806
572.36	16.003
572.55	16.871
572.74	16.718
572.94	15.727
573.13	16.638
573.32	16.680
573.51	16.077
573.71	16.403
573.90	16.668
574.09	16.109
574.29	16.447
574.48	17.417
574.67	16.784
574.87	16.790
575.06	16.654
575.25	16.052
575.45	16.428
575.64	16.619
575.83	16.366
576.03	17.375
576.22	16.478
576.41	16.493
576.60	15.876
576.80	16.958
576.99	16.392
577.18	16.718
577.38	16.557
577.57	16.137
577.76	17.548
577.95	16.384
578.15	16.851
578.34	16.679
578.53	15.728
578.73	17.050
578.92	16.225
579.11	17.212
579.30	15.773
579.50	16.136
579.69	17.094
579.88	16.883
580.08	16.320
580.27	15.742
580.46	16.728
580.65	16.376
580.85	15.424
581.04	16.123
581.23	15.477
581.42	15.235
581.62	15.334
581.81	15.664
582.00	16.507
582.19	16.039
582.39	16.431
582.58	14.874
582.77	15.688
582.96	15.300
583.16	15.773
583.35	16.156
583.54	16.115
583.73	15.907
583.93	16.343
584.12	14.628
584.31	14.925
584.50	16.773
584.70	16.071
584.89	16.727
585.08	16.149
585.27	16.109
585.47	14.683
585.66	16.304
585.85	14.426
586.04	15.056
586.24	15.344
586.43	15.283
586.62	14.898
586.81	16.169
587.00	14.748
587.20	15.688
587.39	14.402
587.58	16.422
587.77	15.692
587.97	14.694
588.16	15.536
588.35	15.870
588.54	14.823
588.73	15.866
588.93	14.971
589.12	15.793
589.31	14.556
589.50	14.969
589.69	15.163
589.89	15.977
590.08	14.556
590.27	14.850
590.46	15.162
590.65	15.717
590.85	14.619
591.04	15.628
591.23	14.670
591.42	15.678
591.61	14.793
591.81	15.152
592.00	15.618
592.19	15.838
592.38	14.674
592.57	15.139
592.77	14.919
592.96	14.645
593.15	15.311
593.34	15.545
593.53	15.134
593.72	15.490
593.92	14.318
594.11	16.077
594.30	13.793
594.49	15.752
594.68	15.946
594.87	16.690
595.07	14.840
595.26	15.048
595.45	14.820
595.64	15.693
595.83	14.437
596.02	15.862
596.22	14.922
596.41	15.863
596.60	16.057
596.79	15.592
596.98	15.101
597.17	16.677
597.37	16.275
597.56	16.429
597.75	15.463
597.94	15.993
598.13	16.187
598.32	15.997
598.51	16.051
598.71	16.616
598.90	15.437
599.09	16.658
599.28	15.865
599.47	16.174
599.66	15.511
599.85	16.067
600.05	14.268
600.24	17.050
600.43	16.280
600.62	16.950
600.81	16.132
601.00	16.955
601.19	16.672
601.38	16.508
601.58	16.584
601.77	16.817
601.96	15.621
602.15	18.078
602.34	16.387
602.53	18.157
602.72	16.935
602.91	16.786
603.10	15.855
603.30	16.965
603.49	15.737
603.68	16.657
603.87	16.933
604.06	17.221
604.25	16.551
604.44	16.515
604.63	16.877
604.82	17.265
605.01	16.786
605.21	17.068
605.40	16.940
605.59	17.839
605.78	16.151
605.97	16.565
606.16	17.809
606.35	16.685
606.54	16.693
606.73	17.328
606.92	17.919
607.11	17.819
607.30	16.738
607.50	17.108
607.69	16.528
607.88	16.924
608.07	17.083
608.26	16.899
608.45	16.804
608.64	16.998
608.83	15.699
609.02	16.559
609.21	16.103
609.40	17.557
609.59	16.052
609.78	16.324
609.97	16.336
610.16	16.730
610.35	16.615
610.55	15.829
610.74	16.458
610.93	16.561
611.12	16.676
611.31	16.491
611.50	15.548
611.69	15.836
611.88	15.749
612.07	16.062
612.26	14.744
612.45	16.046
612.64	14.642
612.83	16.661
613.02	15.187
613.21	15.047
613.40	15.928
613.59	16.490
613.78	14.024
613.97	14.842
614.16	14.139
614.35	15.926
614.54	14.238
614.73	16.364
614.92	15.323
615.11	14.182
615.30	14.207
615.49	13.823
615.68	15.374
615.87	14.231
616.07	10.739
616.26	14.123
616.45	15.221
616.64	13.876
616.83	13.696
617.02	15.318
617.21	12.264
617.40	14.665
617.59	13.864
617.78	13.250
617.97	14.441
618.16	13.915
618.35	12.559
618.54	12.968
618.73	13.633
618.92	13.905
619.11	14.131
619.30	14.683
619.49	13.580
619.68	13.898
619.86	12.369
620.05	14.444
620.24	12.791
620.43	14.401
620.62	11.606
620.81	13.590
621.00	13.672
621.19	14.412
621.38	13.154
621.57	14.350
621.76	13.970
621.95	13.519
622.14	12.325
622.33	15.430
622.52	12.613
622.71	13.283
622.90	11.826
623.09	13.198
623.28	13.462
623.47	14.023
623.66	13.272
623.85	13.918
624.04	12.658
624.23	13.471
624.42	13.422
624.61	12.623
624.80	11.852
624.99	13.613
625.18	11.753
625.36	11.653
625.55	12.579
625.74	13.716
625.93	12.194
626.12	13.087
626.31	12.667
626.50	13.634
626.69	12.538
626.88	13.643
627.07	13.733
627.26	12.801
627.45	13.018
627.64	14.232
627.83	12.973
628.02	13.737
628.20	12.803
628.39	13.749
628.58	13.264
628.77	13.566
628.96	12.530
629.15	13.092
629.34	12.352
629.53	13.020
629.72	11.201
629.91	13.476
630.10	11.559
630.29	11.995
630.47	12.119
630.66	11.839
630.85	11.781
631.04	12.338
631.23	11.465
631.42	11.902
631.61	11.142
631.80	12.736
631.99	12.021
632.18	10.730
632.36	9.983
632.55	13.090
632.74	11.838
632.93	11.365
633.12	12.195
633.31	12.028
633.50	11.689
633.69	12.956
633.88	10.521
634.06	12.183
634.25	11.337
634.44	10.870
634.63	11.316
634.82	13.085
635.01	11.034
635.20	11.873
635.39	10.371
635.57	12.938
635.76	11.393
635.95	11.828
636.14	11.160
636.33	12.049
636.52	12.266
636.71	11.058
636.89	11.097
637.08	11.963
637.27	10.837
637.46	10.785
637.65	11.676
637.84	12.124
638.03	10.192
638.21	13.486
638.40	11.464
638.59	11.937
638.78	10.783
638.97	12.937
639.16	12.718
639.34	11.928
639.53	11.028
639.72	13.514
639.91	9.895
640.10	11.261
640.29	11.967
640.47	13.961
640.66	12.658
640.85	13.610
641.04	10.384
641.23	12.959
641.42	12.184
641.60	12.708
641.79	11.608
641.98	12.313
642.17	11.148
642.36	12.297
642.54	10.100
642.73	11.943
642.92	10.992
643.11	12.217
643.30	11.511
643.49	12.915
643.67	10.755
643.86	12.293
644.05	9.883
644.24	11.397
644.43	12.552
644.61	13.179
644.80	13.009
644.99	11.323
645.18	13.433
645.37	13.163
645.55	10.929
645.74	11.537
645.93	10.556
646.12	12.542
646.31	11.220
646.49	11.341
646.68	13.121
646.87	12.454
647.06	11.059
647.24	10.919
647.43	10.644
647.62	12.281
647.81	10.184
648.00	12.635
648.18	10.240
648.37	9.866
648.56	10.657
648.75	12.026
648.93	10.209
649.12	11.094
649.31	9.591
649.50	9.453
649.68	10.907
649.87	11.227
650.06	9.677
650.25	11.264
650.43	11.096
650.62	10.539
650.81	12.422
651.00	10.525
651.18	9.758
651.37	11.179
651.56	8.955
651.75	13.750
651.93	11.459
652.12	12.160
652.31	10.335
652.50	11.312
652.68	11.616
652.87	12.193
653.06	11.622
653.25	12.100
653.43	10.870
653.62	12.190
653.81	11.755
654.00	11.343
654.18	10.841
654.37	12.896
654.56	11.096
654.74	9.859
654.93	8.876
655.12	11.390
655.31	11.182
655.49	10.277
655.68	9.850
655.87	9.275
656.05	8.153
656.24	10.436
656.43	7.599
656.62	11.495
656.80	11.351
656.99	11.105
657.18	10.433
657.36	10.036
657.55	9.188
657.74	9.717
657.93	10.913
658.11	11.228
658.30	9.514
658.49	10.361
658.67	9.881
658.86	9.551
659.05	9.458
659.23	11.425
659.42	8.663
659.61	10.098
659.79	9.164
659.98	9.723
660.17	9.108
660.35	8.901
660.54	11.357
660.73	11.163
660.91	9.944
661.10	10.156
661.29	8.446
661.47	9.209
661.66	9.993
661.85	10.058
662.03	9.873
662.22	8.042
662.41	7.369
662.59	9.139
662.78	8.490
662.97	9.162
663.15	7.223
663.34	9.078
663.53	9.297
663.71	8.804
663.90	10.241
664.09	10.130
664.27	10.015
664.46	9.500
664.65	8.851
664.83	8.369
665.02	8.950
665.21	7.902
665.39	8.124
665.58	9.634
665.77	8.985
665.95	9.703
666.14	9.398
666.32	9.850
666.51	9.345
666.70	7.700
666.88	8.237
667.07	10.402
667.26	8.909
667.44	8.508
667.63	9.413
667.81	7.929
668.00	7.498
668.19	10.369
668.37	9.018
668.56	10.955
668.75	7.976
668.93	11.443
669.12	7.256
669.30	9.629
669.49	5.828
669.68	8.043
669.86	9.669
670.05	7.307
670.23	10.098
670.42	9.525
670.61	7.700
670.79	9.843
670.98	10.406
671.16	11.356
671.35	7.400
671.54	9.129
671.72	8.866
671.91	8.943
672.09	7.611
672.28	10.633
672.46	10.204
672.65	7.435
672.84	10.136
673.02	10.262
673.21	7.442
673.39	8.758
673.58	9.771
673.77	9.469
673.95	9.530
674.14	10.670
674.32	8.452
674.51	11.628
674.69	7.908
674.88	10.225
675.07	7.906
675.25	12.298
675.44	10.031
675.62	7.996
675.81	7.526
675.99	15.113
676.18	10.584
676.36	7.779
676.55	7.388
676.74	10.778
676.92	11.409
677.11	9.053
677.29	9.695
677.48	12.418
677.66	10.817
677.85	10.052
678.03	9.509
678.22	11.168
678.40	9.993
678.59	9.952
678.78	9.775
678.96	8.733
679.15	8.442
679.33	9.770
679.52	11.318
679.70	11.203
679.89	11.145
680.07	10.414
680.26	8.323
680.44	10.383
680.63	9.572
680.81	10.658
681.00	9.031
681.18	10.486
681.37	10.340
681.55	10.465
681.74	10.279
681.92	11.318
682.11	11.415
682.29	10.137
682.48	11.157
682.66	11.660
682.85	10.623
683.03	12.071
683.22	13.531
683.40	12.600
683.59	9.662
683.77	13.482
683.96	9.981
684.14	11.972
684.33	8.831
684.51	14.645
684.70	10.190
684.88	13.160
685.07	11.697
685.25	13.072
685.44	11.819
685.62	11.802
685.81	10.091
685.99	12.366
686.18	11.761
686.36	13.533
686.55	9.935
686.73	11.064
686.92	12.381
687.10	12.571
687.29	14.167
687.47	15.108
687.65	14.266
687.84	11.651
688.02	14.745
688.21	15.529
688.39	13.649
688.58	14.842
688.76	13.060
688.95	13.442
689.13	10.541
689.32	14.934
689.50	14.606
689.68	15.620
689.87	14.712
690.05	15.308
690.24	14.120
690.42	14.370
690.61	15.259
690.79	16.171
690.98	14.225
691.16	14.583
691.34	12.213
691.53	17.678
691.71	15.048
691.90	15.353
692.08	14.849
692.27	18.585
692.45	16.405
692.63	18.324
692.82	19.729
693.00	16.189
693.19	15.896
693.37	18.823
693.56	17.801
693.74	20.481
693.92	19.829
694.11	23.696
694.29	20.639
694.48	24.824
694.66	20.719
694.84	25.373
695.03	19.403
695.21	25.638
695.40	24.381
695.58	26.624
695.76	23.837
695.95	24.508
696.13	24.595
696.32	28.961
696.50	29.412
696.68	27.610
696.87	27.687
697.05	27.334
697.24	27.442
697.42	29.114
697.60	28.280
697.79	29.967
697.97	30.359
698.16	33.939
698.34	29.501
698.52	33.272
698.71	30.651
698.89	33.074
699.07	32.867
699.26	35.289
699.44	33.449
699.63	34.154
699.81	33.086
699.99	35.873
700.18	35.896
700.36	36.146
700.54	35.904
700.73	35.508
700.91	35.875
701.09	36.760
701.28	37.775
701.46	38.178
701.64	37.190
701.83	40.418
702.01	38.416
702.20	44.561
702.38	42.169
702.56	42.320
702.75	42.755
702.93	41.047
703.11	45.161
703.30	47.035
703.48	43.761
703.66	49.262
703.85	45.216
704.03	46.168
704.21	48.813
704.40	50.877
704.58	46.332
704.76	47.279
704.95	47.672
705.13	51.238
705.31	50.592
705.50	48.557
705.68	52.132
705.86	52.433
706.04	53.379
706.23	50.649
706.41	52.718
706.59	50.170
706.78	51.012
706.96	54.719
707.14	51.228
707.33	51.816
707.51	53.132
707.69	56.159
707.88	54.303
708.06	54.349
708.24	52.726
708.42	58.337
708.61	56.140
708.79	55.090
708.97	59.120
709.16	55.399
709.34	60.386
709.52	55.500
709.71	58.104
709.89	56.851
710.07	56.877
710.25	56.360
710.44	59.831
710.62	57.521
710.80	59.201
710.98	57.542
711.17	57.685
711.35	55.970
711.53	56.291
711.72	57.836
711.90	61.225
712.08	62.202
712.26	57.813
712.45	59.605
712.63	57.691
712.81	57.174
712.99	63.271
713.18	61.857
713.36	62.238
713.54	60.500
713.72	60.275
713.91	60.081
714.09	58.142
714.27	58.681
714.45	62.199
714.64	62.172
714.82	60.564
715.00	64.503
715.18	62.063
715.37	58.749
715.55	58.635
715.73	63.045
715.91	61.327
716.10	63.045
716.28	59.067
716.46	63.158
716.64	62.276
716.83	64.535
717.01	61.141
717.19	58.471
717.37	62.650
717.55	63.794
717.74	62.077
717.92	62.996
718.10	59.259
718.28	64.732
718.47	60.716
718.65	64.069
718.83	64.286
719.01	67.547
719.19	67.199
719.38	64.789
719.56	61.997
719.74	62.301
719.92	62.514
720.10	65.811
720.29	68.134
720.47	63.399
720.65	67.744
720.83	67.638
721.01	66.686
721.20	66.686
721.38	71.092
721.56	66.215
721.74	68.784
721.92	68.467
722.11	63.963
722.29	69.368
722.47	70.075
722.65	69.140
722.83	63.762
723.01	67.197
723.20	67.561
723.38	69.820
723.56	67.558
723.74	69.020
723.92	66.482
724.10	72.650
724.29	68.428
724.47	71.608
724.65	71.654
724.83	69.368
725.01	65.399
725.19	73.550
725.38	66.068
725.56	71.956
725.74	68.484
725.92	70.901
726.10	72.272
726.28	64.543
726.46	70.547
726.65	69.140
726.83	69.722
727.01	69.759
727.19	65.877
727.37	72.853
727.55	67.802
727.73	69.296
727.92	70.448
728.10	67.622
728.28	64.706
728.46	71.303
728.64	73.249
728.82	73.030
729.00	68.822
729.19	70.085
729.37	69.767
729.55	71.560
729.73	69.357
729.91	73.861
730.09	67.930
730.27	69.582
730.45	66.782
730.63	65.234
730.82	70.235
731.00	73.144
731.18	72.216
731.36	67.891
731.54	71.453
731.72	67.478
731.90	72.534
732.08	70.050
732.26	67.627
732.45	74.692
732.63	75.343
732.81	74.091
732.99	70.773
733.17	75.496
733.35	68.898
733.53	71.295
733.71	69.464
733.89	69.504
734.07	74.241
734.25	72.553
734.44	76.803
734.62	71.084
734.80	73.923
734.98	72.668
735.16	73.562
735.34	74.831
735.52	72.832
735.70	77.276
735.88	75.801
736.06	75.969
736.24	85.100
736.42	75.995
736.60	75.085
736.78	77.558
736.97	79.108
737.15	81.377
737.33	79.458
737.51	73.034
737.69	84.222
737.87	81.068
738.05	81.263
738.23	76.306
738.41	78.145
738.59	78.769
738.77	80.317
738.95	75.781
739.13	76.545
739.31	80.823
739.49	84.693
739.67	76.574
739.85	77.564
740.03	76.547
740.21	76.944
740.39	76.030
740.57	83.202
740.75	74.548
740.93	74.880
741.11	81.268
741.30	75.188
741.48	78.425
741.66	76.065
741.84	82.304
742.02	77.918
742.20	78.397
742.38	80.031
742.56	81.811
742.74	83.102
742.92	80.463
743.10	79.514
743.28	78.622
743.46	77.520
743.64	82.598
743.82	80.827
744.00	82.263
744.18	80.163
744.36	79.035
744.54	83.447
744.72	82.984
744.90	90.017
745.08	85.766
745.26	81.109
745.44	85.322
745.62	84.215
745.80	79.984
745.98	82.305
746.16	83.800
746.34	83.438
746.52	86.881
746.70	88.437
746.87	84.843
747.05	83.481
747.23	81.459
747.41	82.327
747.59	79.706
747.77	76.771
747.95	92.517
748.13	80.390
748.31	88.068
748.49	84.669
748.67	85.753
748.85	85.727
749.03	83.854
749.21	84.729
749.39	81.046
749.57	78.024
749.75	81.519
749.93	88.047
750.11	82.167
750.29	82.284
750.47	80.567
750.65	84.220
750.83	87.270
751.01	78.872
751.18	84.275
751.36	80.227
751.54	82.907
751.72	80.174
751.90	80.722
752.08	79.817
752.26	81.671
752.44	75.538
752.62	81.528
752.80	85.396
752.98	84.389
753.16	89.020
753.34	91.382
753.52	85.611
753.69	84.356
753.87	81.695
754.05	80.141
754.23	83.140
754.41	82.891
754.59	78.394
754.77	82.785
754.95	80.892
755.13	84.124
755.31	80.302
755.49	81.880
755.66	85.458
755.84	80.255
756.02	83.051
756.20	78.390
756.38	81.607
756.56	85.530
756.74	81.017
756.92	80.119
757.10	84.771
757.28	90.462
757.45	84.689
757.63	80.529
757.81	83.955
757.99	88.049
758.17	83.997
758.35	84.072
758.53	81.120
758.71	78.238
758.88	78.748
759.06	83.109
759.24	76.637
759.42	73.110
759.60	75.022
759.78	74.132
759.96	73.038
760.13	75.062
760.31	69.627
760.49	65.778
760.67	64.665
760.85	62.804
761.03	59.789
761.21	63.040
761.38	60.363
761.56	66.638
761.74	62.306
761.92	65.152
762.10	62.058
762.28	64.767
762.46	61.396
762.63	65.479
762.81	63.031
762.99	66.228
763.17	60.828
763.35	65.621
763.53	65.162
763.70	63.069
763.88	64.628
764.06	64.520
764.24	61.790
764.42	63.475
764.60	62.135
764.77	63.465
764.95	59.433
765.13	68.536
765.31	62.561
765.49	67.177
765.66	67.398
765.84	65.986
766.02	67.581
766.20	66.645
766.38	70.050
766.56	72.963
766.73	68.192
766.91	77.280
767.09	75.168
767.27	75.898
767.45	74.528
767.62	78.096
767.80	70.407
767.98	73.633
768.16	77.661
768.33	82.979
768.51	77.860
768.69	80.798
768.87	80.766
769.05	81.499
769.22	85.445
769.40	86.148
769.58	82.335
769.76	83.946
769.94	84.536
770.11	78.004
770.29	85.147
770.47	90.745
770.65	86.230
770.82	88.305
771.00	78.052
771.18	83.592
771.36	89.734
771.53	87.386
771.71	87.619
771.89	90.205
772.07	84.434
772.25	93.973
772.42	83.275
772.60	95.574
772.78	90.150
772.96	86.480
773.13	85.363
773.31	93.268
773.49	93.430
773.67	90.886
773.84	86.282
774.02	90.965
774.20	84.198
774.37	92.165
774.55	90.736
774.73	96.693
774.91	87.938
775.08	89.589
775.26	93.522
775.44	92.185
775.62	91.090
775.79	94.141
775.97	85.556
776.15	87.467
776.32	96.291
776.50	91.677
776.68	100.000
776.86	99.857
777.03	93.724
777.21	88.993
777.39	87.060
777.56	90.873
777.74	88.477
777.92	100.458
778.10	93.723
778.27	90.654
778.45	91.123
778.63	94.011
778.80	87.211
778.98	87.752
779.16	90.663
779.34	87.788
779.51	83.262
779.69	93.611
779.87	87.747
780.04	86.856
780.22	88.984
780.40	89.610
780.57	83.267
780.75	86.722
780.93	86.100
781.10	87.345
781.28	97.962
781.46	85.399
781.63	95.570
781.81	101.133
781.99	87.801
782.16	85.131
782.34	88.558
782.52	91.536
782.69	76.291
782.87	97.991
783.05	90.490
783.22	92.197
783.40	98.279
783.58	100.154
783.75	87.988
783.93	86.453
784.11	99.040
784.28	90.937
784.46	83.710
784.64	91.220
784.81	85.930
784.99	106.858
785.17	99.153
785.34	87.671
785.52	81.761
785.69	99.697
785.87	97.577
786.05	89.358
786.22	95.847
786.40	101.490
786.58	82.819
786.75	94.175
786.93	89.499
787.11	97.015
787.28	94.281
787.46	96.308
787.63	93.810
787.81	92.847
787.99	90.193
788.16	80.775
788.34	89.353
788.51	90.379
788.69	79.435
788.87	87.029
789.04	79.400
789.22	82.510
789.39	83.711
789.57	80.702
789.75	87.775
789.92	90.646
790.10	82.385
790.27	86.150
790.45	84.505
790.63	86.750
790.80	80.959
790.98	98.529
791.15	92.988
791.33	81.792
791.51	86.334
791.68	101.207
791.86	80.675
792.03	86.944
792.21	88.342
792.39	79.524
792.56	86.491
792.74	90.079
792.91	84.929
793.09	87.221
793.26	84.786
793.44	93.069
793.62	82.938
793.79	90.674
793.97	79.447
794.14	90.450
794.32	95.079
794.49	93.537
794.67	83.806
794.84	85.828
795.02	93.628
795.20	93.807
795.37	86.949
795.55	82.448
795.72	85.261
795.90	87.352
796.07	80.066
796.25	80.093
796.42	80.195
796.60	91.847
796.77	89.065
796.95	85.540
797.13	76.256
797.30	91.871
797.48	77.419
797.65	86.975
797.83	74.925
798.00	87.680
798.18	81.818
798.35	88.925
798.53	80.330
798.70	87.776
798.88	85.625
799.05	79.240
799.23	67.643
799.40	96.897
799.58	84.880
799.75	84.117
799.93	78.831
800.10	77.139
800.28	86.979
800.45	83.886
800.63	81.308
800.80	87.299
800.98	86.024
801.15	85.838
801.33	90.018
801.50	89.106
801.68	80.622
801.85	80.212
802.03	83.960
802.20	82.322
802.38	83.788
802.55	87.257
802.73	83.392
802.90	81.699
803.08	82.519
803.25	92.205
803.43	88.060
803.60	90.625
803.78	78.610
803.95	87.184
804.13	84.149
804.30	92.456
804.48	80.814
804.65	85.714
804.83	87.063
805.00	82.740
805.17	83.610
805.35	83.333
805.52	78.182
805.70	81.424
805.87	86.762
806.05	82.546
806.22	83.910
806.40	88.947
806.57	79.006
806.75	88.328
806.92	73.905
807.09	93.010
807.27	75.775
807.44	88.068
807.62	80.037
807.79	75.377
807.97	87.242
808.14	81.818
808.31	79.266
808.49	80.458
808.66	84.133
808.84	94.106
809.01	81.835
809.19	84.375
809.36	80.108
809.53	91.781
809.71	80.517
809.88	91.597
810.06	85.282
810.23	93.913
810.41	84.836
810.58	87.030
810.75	75.605
810.93	86.250
811.10	80.512
811.28	78.685
811.45	90.888
811.62	96.035
811.80	85.022
811.97	86.591
812.15	80.282
812.32	87.333
812.49	90.557
812.67	83.190
812.84	83.596
813.02	91.152
813.19	74.800
813.36	74.403
813.54	90.414
813.71	85.529
813.89	82.324
814.06	81.676
814.23	85.954
814.41	85.894
814.58	89.787
814.75	71.260
814.93	74.888
815.10	86.499
815.28	80.630
815.45	79.567
815.62	84.897
815.80	70.089
815.97	70.858
816.14	86.294
816.32	72.414
816.49	72.934
816.66	86.780
816.84	73.006
817.01	89.286
817.18	76.000
817.36	77.193
817.53	77.201
817.71	64.000
817.88	96.850
818.05	62.648
818.23	71.850
818.40	72.377
818.57	78.652
818.75	78.638
818.92	76.327
819.09	71.073
819.27	76.141
819.44	71.116
819.61	73.482
819.79	68.485
819.96	77.969
820.13	68.305
820.31	72.887
820.48	76.840
820.65	80.323
820.82	68.140
821.00	73.464
821.17	61.616
821.34	70.175
821.52	65.141
821.69	60.905
821.86	60.075
822.04	70.079
822.21	59.556
822.38	62.928
822.56	61.196
822.73	59.089
822.90	60.049
823.07	61.163
823.25	58.759
823.42	57.979
823.59	58.118
823.77	57.822
823.94	58.096
824.11	58.135
824.29	55.830
824.46	58.943
824.63	61.806
824.80	59.632
824.98	59.076
825.15	57.232
825.32	56.791
825.49	63.513
825.67	61.355
825.84	60.540
826.01	61.301
826.19	62.500
826.36	54.692
826.53	64.852
826.70	63.398
826.88	68.237
827.05	59.187
827.22	63.895
827.39	62.800
827.57	61.372
827.74	59.549
827.91	57.770
828.08	58.425
828.26	59.874
828.43	55.072
828.60	57.648
828.77	56.613
828.95	62.251
829.12	52.221
829.29	54.524
829.46	56.713
829.64	57.156
829.81	53.717
829.98	62.541
830.15	60.571
830.32	58.595
830.50	50.862
830.67	59.946
830.84	54.377
831.01	62.787
831.19	63.519
831.36	65.854
831.53	70.699
831.70	69.084
831.87	69.124
832.05	80.996
832.22	82.979
832.39	79.650
832.56	67.462
832.74	64.657
832.91	65.511
833.08	77.076
833.25	66.483
833.42	66.063
833.60	56.921
833.77	52.806
833.94	60.875
834.11	52.480
834.28	60.684
834.45	63.546
834.63	52.443
834.80	60.526
834.97	56.573
835.14	59.980
835.31	61.662
835.49	56.362
835.66	50.866
835.83	59.890
836.00	60.915
836.17	64.736
836.34	64.728
836.52	62.692
836.69	64.608
836.86	66.388
837.03	66.726
837.20	63.826
837.37	58.528
837.55	58.979
837.72	67.225
837.89	76.563
838.06	80.193
838.23	74.526
838.40	66.024
838.58	64.747
838.75	90.184
838.92	80.580
839.09	88.608
839.26	86.479
839.43	105.556
839.60	95.177
839.78	94.099
839.95	82.738
840.12	90.936
840.29	85.596
840.46	93.458
840.63	80.886
840.80	84.697
840.98	98.623
841.15	75.127
841.32	83.520
841.49	84.022
841.66	86.216
841.83	71.395
842.00	86.119
842.17	86.872
842.34	91.922
842.52	82.727
842.69	76.899
842.86	81.319
843.03	94.534
843.20	84.150
843.37	112.698
843.54	94.198
843.71	108.333
843.88	79.562
844.06	131.780
844.23	110.593
844.40	105.085
844.57	98.347
844.74	111.207
844.91	115.920
845.08	152.542
845.25	133.511
845.42	131.844
845.59	101.230
845.76	125.269
845.94	136.111
846.11	94.554
846.28	108.765
846.45	130.108
846.62	109.500
846.79	102.110
846.96	110.440
847.13	138.043
847.30	134.463
847.47	120.103
847.64	113.878
847.81	162.500
847.98	127.568
848.15	114.525
848.32	129.016
848.50	138.000
848.67	127.219
848.84	158.580
849.01	161.151
849.18	139.412
849.35	135.714
849.52	119.048
849.69	132.967
849.86	149.324
850.03	181.818
850.20	162.667
850.37	99.412
850.54	159.574
850.71	122.917
850.88	143.226
851.05	132.065
851.22	142.169
851.39	137.968
851.56	206.897
851.73	151.786
851.90	142.484
852.07	133.333
852.24	147.712
852.41	108.122
852.58	118.579
852.75	122.093
852.92	129.834
853.09	184.314
853.26	151.634
853.43	120.000
853.60	150.340
853.77	112.849
853.94	178.761
854.11	144.444
854.28	162.500
854.45	123.377
854.62	122.674
854.79	129.697
854.96	138.194
855.13	142.138
855.30	161.314
855.47	198.387
855.64	107.453
855.81	145.324
855.98	156.489
856.15	169.231
856.32	124.171
856.49	149.153
856.66	125.000
856.83	122.642
857.00	133.607
857.17	163.710
857.34	120.652
857.51	135.915
857.68	144.898
857.85	135.882
858.02	174.830
858.19	102.210
858.36	137.931
858.53	106.509
858.70	125.824
858.87	148.966
859.04	141.765
859.21	150.000
859.38	133.180
859.55	141.477
859.72	143.750
859.89	174.126
860.05	169.784
860.22	158.788
860.39	173.276
860.56	129.762
860.73	163.690
860.90	139.521
861.07	140.000
861.24	138.235
861.41	124.277
861.58	129.221
861.75	134.646
861.92	138.750
862.09	133.166
862.26	151.613
862.43	148.000
862.59	121.711
862.76	132.124
862.93	190.000
863.10	161.765
863.27	143.846
863.44	173.984
863.61	136.957
863.78	148.663
863.95	151.829
864.12	175.641
864.29	188.983
864.45	118.868
864.62	145.528
864.79	117.059
864.96	184.615
865.13	132.847
865.30	211.224
865.47	131.724
865.64	170.629
865.81	180.702
865.97	118.239
866.14	129.947
866.31	151.639
866.48	135.915
866.65	115.951
866.82	150.336
866.99	160.714
867.16	120.155
867.33	131.206
867.49	119.277
867.66	174.627
867.83	118.750
868.00	130.108
868.17	153.435
868.34	167.717
868.51	144.366
868.67	144.048
868.84	137.037
869.01	157.931
869.18	160.000
869.35	126.241
869.52	156.934
869.69	148.507
869.85	133.108
870.02	118.478
870.19	174.615
870.36	137.410
870.53	209.524
870.70	174.107
870.86	125.974
871.03	156.934
871.20	142.017
871.37	141.420
871.54	178.302
871.71	134.091
871.87	214.433
872.04	106.250
872.21	150.000
872.38	254.217
872.55	137.857
872.72	104.348
872.88	130.000
873.05	103.743
873.22	157.500
873.39	93.902
873.56	106.475
873.72	120.994
873.89	138.854
874.06	140.984
874.23	145.652
874.40	166.400
874.56	176.515
874.73	188.333
874.90	121.233
875.07	155.725
875.24	139.634
875.40	200.000
875.57	161.905
875.74	123.125
875.91	158.730
876.08	137.857
876.24	164.103
876.41	160.150
876.58	138.686
876.75	141.935
876.92	193.590
877.08	135.766
877.25	133.117
877.42	130.000
877.59	130.723
877.75	116.509
877.92	125.581
878.09	142.763
878.26	143.836
878.42	131.111
878.59	149.432
878.76	98.942
878.93	133.775
879.09	121.088
879.26	95.513
879.43	116.667
879.60	146.061
879.76	103.590
879.93	98.477
880.10	87.907
880.27	77.778
880.43	96.429
880.60	71.362
880.77	97.647
880.94	82.857
881.10	74.828
881.27	69.890
881.44	51.193
881.61	61.368
881.77	57.196
881.94	50.000
882.11	47.485
882.28	43.342
882.44	44.374
882.61	45.465
882.78	46.638
882.94	53.155
883.11	46.701
883.28	41.078
883.45	45.121
883.61	52.535
883.78	47.866
883.95	50.886
884.11	45.000
884.28	51.860
>>>>>End Processed Spectral Data<<<<<
