SpectraSuite Data File
++++++++++++++++++++++++++++++++++++
Date: Thu Sep 19 03:49:04 EST 2019
User: sgrac
Dark Spectrum Present: Yes
Reference Spectrum Present: Yes
Number of Sampled Component Spectra: 1
Spectrometers: USB4E01596
Integration Time (usec): 100000 (USB4E01596)
Spectra Averaged: 1 (USB4E01596)
Boxcar Smoothing: 0 (USB4E01596)
Correct for Electrical Dark: No (USB4E01596)
Strobe/Lamp Enabled: Yes (USB4E01596)
Correct for Detector Non-linearity: No (USB4E01596)
Correct for Stray Light: No (USB4E01596)
Number of Pixels in Processed Spectrum: 3648
>>>>>Begin Processed Spectral Data<<<<<
178.44	907.143
178.66	907.143
178.87	907.143
179.09	-881.818
179.30	242.857
179.52	2371.429
179.74	-688.889
179.95	700.000
180.17	1918.182
180.38	334.328
180.60	0.000
180.82	729.032
181.03	307.407
181.25	4450.000
181.46	1084.615
181.68	-332.558
181.89	1450.000
182.11	604.167
182.33	759.259
182.54	1541.667
182.76	972.222
182.97	-628.571
183.19	450.000
183.40	361.818
183.62	642.857
183.84	2337.500
184.05	1040.000
184.27	-6700.000
184.48	288.889
184.70	7150.000
184.91	696.154
185.13	278.873
185.34	-286.538
185.56	662.963
185.78	550.000
185.99	-4475.000
186.21	-1527.273
186.42	-380.000
186.64	800.000
186.85	-7750.000
187.07	668.182
187.28	1064.286
187.50	877.273
187.72	480.556
187.93	1005.556
188.15	1105.263
188.36	1164.706
188.58	507.692
188.79	2316.667
189.01	904.167
189.22	3220.000
189.44	755.000
189.65	-7666.667
189.87	3925.000
190.09	982.353
190.30	2628.571
190.52	1491.667
190.73	-638.462
190.95	375.000
191.16	475.000
191.38	469.444
191.59	-1618.182
191.81	768.182
192.02	893.333
192.24	696.154
192.45	1887.500
192.67	2916.667
192.88	-581.481
193.10	-20700.000
193.31	568.571
193.53	-823.810
193.74	-4775.000
193.96	2033.333
194.18	1000.000
194.39	458.537
194.61	1047.368
194.82	1818.182
195.04	564.000
195.25	4600.000
195.47	463.158
195.68	1011.765
195.90	365.116
196.11	826.923
196.33	-1844.444
196.54	-1057.895
196.76	727.273
196.97	2200.000
197.19	-15700.000
197.40	1800.000
197.62	3300.000
197.83	1384.615
198.05	575.000
198.26	475.000
198.48	502.941
198.69	-1922.222
198.91	1022.222
199.12	520.000
199.34	-2214.286
199.55	291.228
199.77	400.000
199.98	-1900.000
200.20	870.000
200.41	9600.000
200.63	642.857
200.84	961.905
201.06	-1415.385
201.27	-3480.000
201.49	1458.333
201.70	975.000
201.91	-10000.000
202.13	878.947
202.34	397.826
202.56	6150.000
202.77	1006.250
202.99	416.000
203.20	618.182
203.42	-2885.714
203.63	2950.000
203.85	586.111
204.06	804.348
204.28	1725.000
204.49	-1370.000
204.71	504.878
204.92	380.000
205.14	288.889
205.35	262.857
205.56	2750.000
205.78	922.727
205.99	-1800.000
206.21	1056.522
206.42	338.983
206.64	-3100.000
206.85	676.190
207.07	721.053
207.28	-2960.000
207.50	324.074
207.71	1025.000
207.93	429.167
208.14	744.444
208.35	923.529
208.57	-492.000
208.78	-397.561
209.00	351.163
209.21	371.429
209.43	612.000
209.64	15600.000
209.86	714.286
210.07	617.241
210.28	-1092.308
210.50	1105.882
210.71	755.000
210.93	506.250
211.14	297.143
211.36	419.565
211.57	970.000
211.78	461.538
212.00	1166.667
212.21	1223.529
212.43	960.000
212.64	623.333
212.86	278.205
213.07	648.276
213.29	646.667
213.50	641.935
213.71	423.333
213.93	3042.857
214.14	929.412
214.36	2275.000
214.57	354.930
214.78	1166.667
215.00	894.737
215.21	911.111
215.43	227.848
215.64	618.519
215.86	1173.333
216.07	889.474
216.28	286.667
216.50	7800.000
216.71	-14300.000
216.93	785.185
217.14	293.939
217.35	385.714
217.57	2900.000
217.78	485.714
218.00	4533.333
218.21	700.000
218.42	356.250
218.64	-10050.000
218.85	419.608
219.07	2271.429
219.28	359.016
219.49	-883.333
219.71	2112.500
219.92	254.054
220.14	2037.500
220.35	372.727
220.56	1107.692
220.78	307.018
220.99	600.000
221.21	186.598
221.42	669.565
221.63	7850.000
221.85	687.500
222.06	600.000
222.28	198.667
222.49	-1788.889
222.70	288.889
222.92	-7800.000
223.13	397.368
223.34	248.913
223.56	1491.667
223.77	252.941
223.99	486.667
224.20	303.333
224.41	270.667
224.63	9100.000
224.84	4666.667
225.05	1038.462
225.27	397.436
225.48	370.000
225.69	203.529
225.91	318.750
226.12	228.986
226.34	606.250
226.55	270.588
226.76	360.784
226.98	195.455
227.19	191.026
227.40	360.000
227.62	293.151
227.83	156.250
228.04	203.896
228.26	114.286
228.47	142.500
228.69	80.882
228.90	83.333
229.11	81.223
229.33	84.689
229.54	71.369
229.75	75.972
229.97	66.768
230.18	69.435
230.39	46.465
230.61	55.631
230.82	77.076
231.03	63.694
231.25	66.443
231.46	60.714
231.67	78.491
231.89	67.857
232.10	75.849
232.31	95.089
232.53	91.743
232.74	90.826
232.95	85.784
233.17	90.769
233.38	90.526
233.59	109.551
233.81	118.519
234.02	93.143
234.23	89.691
234.45	91.364
234.66	91.954
234.87	98.256
235.09	97.340
235.30	90.291
235.51	85.650
235.73	67.172
235.94	75.446
236.15	80.970
236.36	95.556
236.58	82.297
236.79	102.155
237.00	78.715
237.22	108.995
237.43	77.432
237.64	101.863
237.86	71.226
238.07	100.000
238.28	72.835
238.50	73.206
238.71	81.865
238.92	81.604
239.13	84.409
239.35	79.668
239.56	97.222
239.77	114.754
239.99	64.113
240.20	87.160
240.41	86.614
240.63	68.955
240.84	61.504
241.05	58.108
241.26	42.857
241.48	58.104
241.69	40.650
241.90	32.644
242.12	41.104
242.33	39.773
242.54	28.571
242.75	35.522
242.97	33.569
243.18	26.647
243.39	22.193
243.61	25.493
243.82	34.138
244.03	29.645
244.24	25.908
244.46	28.883
244.67	40.446
244.88	25.910
245.09	28.053
245.31	37.541
245.52	33.217
245.73	46.620
245.95	56.944
246.16	35.714
246.37	33.333
246.58	32.769
246.80	32.312
247.01	30.110
247.22	21.132
247.43	24.953
247.65	21.945
247.86	23.762
248.07	15.374
248.28	20.000
248.50	18.551
248.71	17.295
248.92	21.012
249.13	20.000
249.35	21.257
249.56	22.559
249.77	20.427
249.98	20.725
250.20	22.115
250.41	35.588
250.62	31.669
250.83	29.227
251.05	33.092
251.26	27.352
251.47	37.829
251.68	36.301
251.90	34.975
252.11	30.283
252.32	29.758
252.53	34.018
252.75	26.125
252.96	32.692
253.17	22.368
253.38	28.015
253.59	25.679
253.81	32.478
254.02	24.164
254.23	24.696
254.44	30.143
254.66	27.451
254.87	30.847
255.08	39.254
255.29	45.611
255.50	37.067
255.72	30.980
255.93	48.430
256.14	57.328
256.35	34.107
256.57	34.152
256.78	39.693
256.99	41.045
257.20	49.687
257.41	42.268
257.63	40.226
257.84	34.725
258.05	36.398
258.26	29.421
258.47	42.365
258.69	30.529
258.90	23.878
259.11	31.395
259.32	17.438
259.53	24.488
259.75	23.468
259.96	15.193
260.17	17.417
260.38	16.912
260.59	18.435
260.81	17.108
261.02	16.143
261.23	16.290
261.44	18.532
261.65	17.182
261.87	19.398
262.08	19.222
262.29	24.516
262.50	16.602
262.71	17.529
262.92	23.689
263.14	21.429
263.35	18.806
263.56	21.579
263.77	24.359
263.98	20.000
264.20	35.986
264.41	20.025
264.62	28.323
264.83	18.504
265.04	39.920
265.25	29.987
265.47	25.168
265.68	30.404
265.89	24.295
266.10	23.127
266.31	31.768
266.52	26.128
266.74	29.348
266.95	19.060
267.16	23.437
267.37	23.152
267.58	20.871
267.79	21.920
268.01	25.328
268.22	21.996
268.43	19.759
268.64	24.850
268.85	16.760
269.06	20.888
269.27	26.870
269.49	20.677
269.70	20.485
269.91	20.636
270.12	20.553
270.33	20.714
270.54	21.899
270.75	17.326
270.97	21.825
271.18	16.993
271.39	18.827
271.60	21.700
271.81	17.036
272.02	18.131
272.23	21.310
272.45	17.143
272.66	14.691
272.87	19.587
273.08	14.976
273.29	17.835
273.50	16.105
273.71	14.724
273.92	13.158
274.14	14.845
274.35	20.079
274.56	22.486
274.77	20.072
274.98	16.791
275.19	19.007
275.40	21.023
275.61	18.285
275.83	20.101
276.04	19.027
276.25	21.953
276.46	20.901
276.67	21.886
276.88	21.529
277.09	19.061
277.30	22.777
277.51	21.962
277.73	19.173
277.94	18.093
278.15	19.861
278.36	26.102
278.57	21.352
278.78	21.398
278.99	18.470
279.20	21.337
279.41	23.589
279.62	15.349
279.84	16.981
280.05	20.670
280.26	13.971
280.47	19.694
280.68	23.151
280.89	19.447
281.10	17.435
281.31	20.667
281.52	22.421
281.73	12.432
281.94	11.327
282.16	19.783
282.37	18.223
282.58	16.304
282.79	22.638
283.00	18.215
283.21	13.862
283.42	15.882
283.63	18.382
283.84	16.496
284.05	18.022
284.26	15.462
284.47	16.920
284.68	17.776
284.89	17.686
285.11	16.424
285.32	11.596
285.53	18.014
285.74	22.030
285.95	16.449
286.16	16.961
286.37	12.754
286.58	13.009
286.79	16.078
287.00	15.489
287.21	12.014
287.42	17.374
287.63	15.013
287.84	15.220
288.05	19.151
288.26	16.279
288.48	18.602
288.69	15.144
288.90	18.171
289.11	20.686
289.32	17.237
289.53	15.423
289.74	12.674
289.95	14.787
290.16	17.693
290.37	12.290
290.58	12.871
290.79	14.385
291.00	14.376
291.21	15.484
291.42	12.348
291.63	14.903
291.84	14.254
292.05	12.321
292.26	13.608
292.47	14.301
292.68	14.110
292.89	16.391
293.10	15.525
293.31	19.018
293.52	12.398
293.73	11.799
293.94	20.040
294.15	17.167
294.36	11.841
294.57	21.153
294.79	12.262
295.00	13.505
295.21	15.301
295.42	15.119
295.63	15.660
295.84	14.083
296.05	14.210
296.26	14.066
296.47	14.180
296.68	12.912
296.89	15.054
297.10	14.428
297.31	14.050
297.52	12.271
297.73	12.151
297.94	13.596
298.15	11.958
298.36	11.837
298.57	9.932
298.78	14.411
298.99	10.884
299.20	13.533
299.41	12.505
299.62	13.040
299.83	12.825
300.04	12.602
300.25	16.377
300.46	14.482
300.67	16.592
300.88	15.072
301.09	10.210
301.30	16.000
301.50	13.898
301.71	19.841
301.92	17.499
302.13	14.548
302.34	14.947
302.55	13.940
302.76	14.862
302.97	12.066
303.18	15.093
303.39	13.647
303.60	12.547
303.81	17.089
304.02	15.444
304.23	12.892
304.44	12.889
304.65	14.813
304.86	12.108
305.07	14.426
305.28	13.081
305.49	18.229
305.70	16.627
305.91	11.775
306.12	14.002
306.33	13.946
306.54	13.667
306.75	15.231
306.96	20.248
307.17	16.024
307.38	13.834
307.58	13.476
307.79	14.186
308.00	16.841
308.21	12.755
308.42	13.316
308.63	16.720
308.84	11.832
309.05	13.386
309.26	12.514
309.47	15.052
309.68	11.160
309.89	15.143
310.10	12.850
310.31	11.140
310.52	9.194
310.73	16.465
310.94	8.292
311.14	11.620
311.35	12.002
311.56	11.439
311.77	10.369
311.98	12.523
312.19	12.278
312.40	12.815
312.61	13.752
312.82	12.701
313.03	12.850
313.24	14.780
313.45	14.625
313.66	13.460
313.86	14.271
314.07	13.182
314.28	17.325
314.49	11.267
314.70	15.291
314.91	20.821
315.12	14.317
315.33	14.959
315.54	12.000
315.75	11.852
315.96	12.315
316.16	13.041
316.37	14.527
316.58	13.600
316.79	10.990
317.00	15.413
317.21	14.200
317.42	14.851
317.63	13.200
317.84	13.075
318.05	14.074
318.25	14.570
318.46	12.918
318.67	11.496
318.88	13.265
319.09	15.436
319.30	12.965
319.51	13.293
319.72	13.797
319.93	13.142
320.13	16.488
320.34	14.330
320.55	14.232
320.76	12.062
320.97	14.062
321.18	13.797
321.39	15.312
321.60	13.576
321.80	17.523
322.01	13.285
322.22	16.252
322.43	11.474
322.64	10.299
322.85	13.759
323.06	16.468
323.27	15.813
323.47	14.704
323.68	16.383
323.89	9.500
324.10	13.741
324.31	11.654
324.52	12.619
324.73	14.044
324.93	14.382
325.14	13.228
325.35	13.660
325.56	14.213
325.77	13.842
325.98	13.719
326.19	14.558
326.39	9.502
326.60	12.918
326.81	13.507
327.02	11.937
327.23	11.417
327.44	16.701
327.64	9.481
327.85	10.648
328.06	13.950
328.27	18.236
328.48	13.749
328.69	11.891
328.90	15.336
329.10	13.646
329.31	13.912
329.52	13.279
329.73	14.767
329.94	15.328
330.15	15.498
330.35	13.368
330.56	14.115
330.77	12.690
330.98	14.207
331.19	13.234
331.39	14.804
331.60	11.057
331.81	12.929
332.02	17.162
332.23	14.736
332.44	11.168
332.64	14.235
332.85	12.252
333.06	13.956
333.27	11.160
333.48	12.836
333.68	13.055
333.89	12.426
334.10	12.675
334.31	16.092
334.52	10.720
334.72	9.451
334.93	11.659
335.14	12.049
335.35	12.121
335.56	14.024
335.76	11.024
335.97	13.039
336.18	10.754
336.39	17.369
336.60	14.603
336.80	12.593
337.01	12.500
337.22	11.806
337.43	16.429
337.64	14.348
337.84	13.768
338.05	13.205
338.26	16.371
338.47	13.019
338.68	11.745
338.88	12.025
339.09	11.947
339.30	12.684
339.51	11.380
339.71	12.476
339.92	9.189
340.13	12.445
340.34	12.982
340.55	10.907
340.75	13.253
340.96	11.341
341.17	13.017
341.38	9.319
341.58	11.319
341.79	11.524
342.00	10.926
342.21	13.696
342.41	10.793
342.62	12.705
342.83	13.387
343.04	9.899
343.24	11.353
343.45	12.844
343.66	12.040
343.87	10.367
344.07	11.245
344.28	12.932
344.49	12.071
344.70	13.581
344.90	9.538
345.11	11.077
345.32	9.924
345.53	9.437
345.73	13.468
345.94	11.365
346.15	13.374
346.36	9.898
346.56	11.870
346.77	15.062
346.98	13.051
347.19	13.949
347.39	10.843
347.60	11.235
347.81	12.674
348.02	13.277
348.22	10.771
348.43	13.612
348.64	12.726
348.84	12.657
349.05	14.037
349.26	13.309
349.47	11.878
349.67	13.261
349.88	12.979
350.09	11.962
350.30	14.239
350.50	11.493
350.71	12.617
350.92	14.020
351.12	12.552
351.33	12.027
351.54	10.446
351.74	11.144
351.95	11.882
352.16	12.253
352.37	14.429
352.57	14.153
352.78	12.151
352.99	14.089
353.19	12.902
353.40	13.059
353.61	15.235
353.82	13.784
354.02	14.174
354.23	11.732
354.44	13.896
354.64	10.780
354.85	13.461
355.06	11.897
355.26	11.236
355.47	12.356
355.68	16.104
355.88	15.559
356.09	13.204
356.30	12.899
356.51	14.781
356.71	11.335
356.92	10.958
357.13	14.729
357.33	15.008
357.54	15.195
357.75	9.492
357.95	13.786
358.16	9.933
358.37	16.333
358.57	11.038
358.78	15.130
358.99	14.072
359.19	11.484
359.40	15.240
359.61	13.127
359.81	15.137
360.02	16.309
360.23	12.530
360.43	13.629
360.64	11.914
360.85	12.459
361.05	11.227
361.26	17.377
361.47	12.939
361.67	15.353
361.88	10.308
362.09	13.303
362.29	11.191
362.50	12.515
362.70	10.440
362.91	15.173
363.12	12.750
363.32	13.307
363.53	14.448
363.74	15.478
363.94	10.730
364.15	17.107
364.36	13.573
364.56	13.068
364.77	12.924
364.98	16.764
365.18	13.168
365.39	15.768
365.59	12.254
365.80	12.094
366.01	15.934
366.21	12.549
366.42	13.113
366.63	15.587
366.83	10.870
367.04	10.355
367.24	15.850
367.45	12.166
367.66	12.388
367.86	12.984
368.07	13.477
368.28	14.547
368.48	11.612
368.69	11.911
368.89	13.059
369.10	15.058
369.31	13.620
369.51	12.463
369.72	14.729
369.92	15.562
370.13	10.870
370.34	14.590
370.54	10.070
370.75	14.238
370.95	10.985
371.16	12.508
371.37	13.078
371.57	11.874
371.78	12.878
371.98	15.084
372.19	12.080
372.40	14.914
372.60	14.371
372.81	13.212
373.01	10.401
373.22	12.579
373.43	13.607
373.63	13.130
373.84	13.849
374.04	12.976
374.25	13.287
374.46	13.203
374.66	11.860
374.87	15.513
375.07	9.730
375.28	11.267
375.48	11.872
375.69	13.192
375.90	10.590
376.10	10.908
376.31	12.213
376.51	9.806
376.72	10.311
376.92	10.582
377.13	12.647
377.34	14.551
377.54	11.473
377.75	13.064
377.95	11.199
378.16	14.191
378.36	12.882
378.57	13.273
378.77	12.986
378.98	11.768
379.19	11.580
379.39	11.901
379.60	12.298
379.80	11.976
380.01	13.427
380.21	12.115
380.42	13.576
380.62	11.496
380.83	11.275
381.04	12.960
381.24	13.475
381.45	13.763
381.65	9.043
381.86	12.089
382.06	12.678
382.27	10.711
382.47	10.642
382.68	13.363
382.88	10.498
383.09	10.322
383.29	11.551
383.50	13.621
383.71	11.523
383.91	10.418
384.12	9.867
384.32	12.595
384.53	11.483
384.73	9.691
384.94	9.538
385.14	11.363
385.35	10.093
385.55	11.543
385.76	9.330
385.96	11.851
386.17	11.607
386.37	11.547
386.58	12.085
386.78	13.682
386.99	9.485
387.19	13.311
387.40	10.486
387.60	14.008
387.81	9.950
388.01	11.787
388.22	12.742
388.42	13.446
388.63	13.062
388.83	14.573
389.04	10.346
389.24	12.792
389.45	10.026
389.65	10.644
389.86	10.486
390.06	10.290
390.27	9.853
390.47	11.486
390.68	10.390
390.88	13.744
391.09	11.978
391.29	12.045
391.50	11.568
391.70	11.499
391.91	10.271
392.11	11.548
392.32	11.559
392.52	13.139
392.73	11.243
392.93	12.228
393.14	10.836
393.34	11.839
393.55	11.828
393.75	12.372
393.95	11.764
394.16	11.903
394.36	12.382
394.57	13.587
394.77	11.551
394.98	12.132
395.18	12.096
395.39	12.699
395.59	11.135
395.80	11.694
396.00	11.594
396.21	13.650
396.41	9.568
396.61	13.029
396.82	11.475
397.02	14.471
397.23	11.394
397.43	11.916
397.64	9.658
397.84	12.990
398.05	9.281
398.25	12.181
398.45	9.817
398.66	11.387
398.86	10.845
399.07	14.000
399.27	11.076
399.48	13.404
399.68	11.255
399.89	10.377
400.09	11.116
400.29	11.366
400.50	11.456
400.70	13.641
400.91	10.722
401.11	11.396
401.32	12.511
401.52	10.099
401.72	10.892
401.93	13.203
402.13	11.904
402.34	12.366
402.54	9.017
402.75	14.475
402.95	10.122
403.15	13.364
403.36	10.662
403.56	12.617
403.77	11.153
403.97	11.848
404.17	10.176
404.38	11.576
404.58	9.831
404.79	12.200
404.99	10.551
405.19	11.882
405.40	10.477
405.60	12.150
405.81	12.271
406.01	11.719
406.21	11.612
406.42	10.918
406.62	12.475
406.83	12.981
407.03	12.210
407.23	10.824
407.44	10.662
407.64	12.470
407.85	12.301
408.05	12.079
408.25	11.381
408.46	13.226
408.66	11.287
408.87	11.478
409.07	10.332
409.27	10.770
409.48	11.402
409.68	12.284
409.88	8.358
410.09	11.875
410.29	11.748
410.50	12.614
410.70	10.764
410.90	10.602
411.11	10.377
411.31	12.303
411.51	12.595
411.72	13.248
411.92	10.844
412.12	11.042
412.33	10.095
412.53	10.793
412.74	9.747
412.94	12.639
413.14	11.080
413.35	11.504
413.55	11.089
413.75	12.719
413.96	9.463
414.16	11.223
414.36	11.401
414.57	12.445
414.77	10.433
414.97	13.051
415.18	9.905
415.38	10.754
415.58	11.313
415.79	11.289
415.99	10.463
416.19	12.217
416.40	11.393
416.60	11.046
416.80	10.655
417.01	11.910
417.21	10.228
417.41	13.239
417.62	10.830
417.82	11.999
418.02	9.764
418.23	11.215
418.43	10.259
418.63	12.492
418.84	11.025
419.04	11.326
419.24	12.024
419.45	12.783
419.65	12.079
419.85	12.388
420.06	10.775
420.26	12.033
420.46	12.091
420.67	12.895
420.87	11.805
421.07	12.004
421.28	12.009
421.48	12.765
421.68	12.441
421.88	12.953
422.09	12.364
422.29	12.480
422.49	12.187
422.70	12.156
422.90	11.888
423.10	12.565
423.31	12.645
423.51	13.225
423.71	12.058
423.91	12.829
424.12	12.843
424.32	12.837
424.52	11.955
424.73	12.527
424.93	12.045
425.13	12.439
425.33	11.889
425.54	12.593
425.74	12.063
425.94	12.702
426.15	12.358
426.35	12.217
426.55	12.485
426.75	13.511
426.96	12.548
427.16	12.618
427.36	13.231
427.57	13.220
427.77	12.488
427.97	11.909
428.17	12.200
428.38	13.040
428.58	10.933
428.78	12.926
428.98	10.953
429.19	11.948
429.39	10.617
429.59	12.527
429.79	10.063
430.00	11.824
430.20	9.874
430.40	11.393
430.60	10.232
430.81	11.873
431.01	10.238
431.21	12.067
431.41	9.823
431.62	11.634
431.82	11.016
432.02	13.211
432.22	9.573
432.43	10.064
432.63	9.887
432.83	11.452
433.03	10.756
433.24	11.015
433.44	10.674
433.64	11.633
433.84	11.118
434.05	12.053
434.25	11.296
434.45	12.603
434.65	11.923
434.85	12.603
435.06	11.842
435.26	12.456
435.46	11.563
435.66	12.592
435.87	11.383
436.07	11.881
436.27	11.847
436.47	11.602
436.67	11.385
436.88	12.634
437.08	11.823
437.28	11.983
437.48	11.218
437.69	12.836
437.89	11.727
438.09	13.063
438.29	11.378
438.49	12.117
438.70	12.173
438.90	11.372
439.10	11.153
439.30	11.940
439.50	10.970
439.71	12.071
439.91	11.328
440.11	12.795
440.31	11.970
440.51	11.493
440.72	11.214
440.92	11.843
441.12	11.556
441.32	12.221
441.52	12.527
441.72	12.364
441.93	11.717
442.13	12.186
442.33	12.200
442.53	13.251
442.73	11.841
442.94	12.692
443.14	12.405
443.34	12.885
443.54	12.595
443.74	13.446
443.94	11.801
444.15	12.005
444.35	11.082
444.55	12.284
444.75	11.009
444.95	12.249
445.15	11.747
445.36	11.531
445.56	11.068
445.76	12.182
445.96	11.682
446.16	11.467
446.36	11.711
446.57	12.321
446.77	11.159
446.97	11.759
447.17	11.874
447.37	12.503
447.57	12.385
447.77	11.990
447.98	11.673
448.18	12.433
448.38	12.125
448.58	12.589
448.78	12.553
448.98	12.742
449.18	12.013
449.39	12.704
449.59	12.392
449.79	12.660
449.99	12.157
450.19	12.944
450.39	12.072
450.59	12.424
450.79	11.767
451.00	12.786
451.20	13.458
451.40	12.091
451.60	11.482
451.80	12.662
452.00	11.118
452.20	12.466
452.40	11.769
452.61	11.823
452.81	10.769
453.01	12.512
453.21	11.805
453.41	12.475
453.61	11.190
453.81	11.950
454.01	11.086
454.21	11.655
454.42	12.070
454.62	12.575
454.82	11.408
455.02	12.467
455.22	11.068
455.42	11.810
455.62	9.916
455.82	11.121
456.02	12.360
456.23	12.304
456.43	12.410
456.63	11.786
456.83	10.686
457.03	12.702
457.23	12.134
457.43	11.460
457.63	10.850
457.83	12.338
458.03	10.896
458.23	11.634
458.43	10.858
458.64	11.432
458.84	11.197
459.04	11.709
459.24	11.712
459.44	11.745
459.64	10.567
459.84	11.389
460.04	11.130
460.24	11.517
460.44	11.380
460.64	11.854
460.84	11.407
461.04	12.038
461.24	11.874
461.45	11.859
461.65	12.412
461.85	13.239
462.05	12.583
462.25	12.780
462.45	12.526
462.65	12.330
462.85	11.538
463.05	12.760
463.25	12.041
463.45	12.534
463.65	11.515
463.85	12.822
464.05	12.299
464.25	11.916
464.45	11.355
464.65	11.423
464.85	11.108
465.05	11.338
465.26	11.492
465.46	12.373
465.66	11.674
465.86	12.218
466.06	11.692
466.26	11.665
466.46	10.763
466.66	11.291
466.86	10.782
467.06	11.667
467.26	11.409
467.46	12.455
467.66	11.387
467.86	11.843
468.06	10.645
468.26	11.261
468.46	10.805
468.66	11.921
468.86	11.133
469.06	12.275
469.26	11.429
469.46	12.335
469.66	10.377
469.86	12.052
470.06	10.963
470.26	12.518
470.46	10.983
470.66	11.452
470.86	10.796
471.06	11.593
471.26	10.320
471.46	11.339
471.66	11.205
471.86	11.872
472.06	11.853
472.26	12.466
472.46	12.438
472.66	11.533
472.86	11.060
473.06	11.176
473.26	11.153
473.46	11.412
473.66	10.769
473.86	12.100
474.06	10.500
474.26	11.648
474.46	10.941
474.66	12.558
474.86	12.010
475.06	12.838
475.26	10.678
475.46	12.467
475.66	10.562
475.86	12.204
476.06	11.564
476.26	11.693
476.46	10.893
476.66	11.700
476.86	10.843
477.06	11.858
477.26	10.773
477.46	12.134
477.65	11.743
477.85	12.034
478.05	10.898
478.25	12.793
478.45	11.194
478.65	12.566
478.85	11.466
479.05	12.692
479.25	11.678
479.45	12.672
479.65	10.748
479.85	11.973
480.05	11.282
480.25	12.376
480.45	11.268
480.65	12.523
480.85	12.002
481.05	11.603
481.25	12.355
481.44	12.876
481.64	11.936
481.84	11.832
482.04	11.345
482.24	12.150
482.44	11.024
482.64	11.356
482.84	11.711
483.04	11.240
483.24	10.885
483.44	10.621
483.64	10.827
483.84	10.869
484.04	10.832
484.23	11.564
484.43	11.586
484.63	12.395
484.83	12.793
485.03	13.569
485.23	13.552
485.43	13.476
485.63	13.536
485.83	13.076
486.03	12.734
486.23	12.820
486.42	12.379
486.62	12.521
486.82	12.153
487.02	11.938
487.22	11.499
487.42	11.907
487.62	11.895
487.82	11.545
488.02	11.317
488.22	11.758
488.41	11.774
488.61	11.824
488.81	11.520
489.01	12.116
489.21	12.184
489.41	11.974
489.61	12.464
489.81	12.445
490.01	12.455
490.20	12.691
490.40	12.636
490.60	12.722
490.80	12.118
491.00	12.438
491.20	11.484
491.40	11.842
491.60	11.354
491.79	11.535
491.99	11.830
492.19	12.065
492.39	11.895
492.59	11.910
492.79	12.152
492.99	12.242
493.19	12.391
493.38	12.772
493.58	12.329
493.78	12.630
493.98	12.713
494.18	13.099
494.38	12.803
494.58	12.550
494.77	12.566
494.97	12.724
495.17	11.976
495.37	12.056
495.57	12.495
495.77	13.043
495.96	13.035
496.16	12.714
496.36	11.309
496.56	12.028
496.76	11.987
496.96	12.336
497.15	11.854
497.35	11.876
497.55	11.797
497.75	12.211
497.95	12.267
498.15	11.865
498.34	12.279
498.54	12.215
498.74	12.777
498.94	12.998
499.14	12.389
499.34	12.435
499.53	12.159
499.73	12.734
499.93	12.560
500.13	12.966
500.33	12.607
500.52	12.522
500.72	12.560
500.92	12.952
501.12	12.428
501.32	12.495
501.52	12.944
501.71	12.201
501.91	12.327
502.11	12.929
502.31	11.979
502.51	12.003
502.70	12.186
502.90	12.513
503.10	12.275
503.30	12.551
503.50	11.683
503.69	12.612
503.89	12.257
504.09	12.715
504.29	12.414
504.48	12.994
504.68	12.822
504.88	12.541
505.08	12.504
505.28	12.636
505.47	12.529
505.67	12.768
505.87	12.114
506.07	12.742
506.27	12.566
506.46	13.435
506.66	12.789
506.86	13.122
507.06	12.964
507.25	13.336
507.45	12.358
507.65	12.681
507.85	12.583
508.04	12.975
508.24	11.961
508.44	12.618
508.64	12.467
508.83	12.885
509.03	12.518
509.23	12.957
509.43	12.150
509.63	12.996
509.82	12.632
510.02	13.182
510.22	12.474
510.42	13.320
510.61	12.800
510.81	13.092
511.01	12.779
511.21	13.668
511.40	12.345
511.60	13.271
511.80	12.910
511.99	12.715
512.19	12.719
512.39	13.591
512.59	12.866
512.78	12.952
512.98	13.146
513.18	13.469
513.38	13.212
513.57	13.214
513.77	12.954
513.97	13.607
514.17	13.352
514.36	13.501
514.56	12.730
514.76	13.519
514.95	12.906
515.15	13.384
515.35	13.280
515.55	12.609
515.74	12.990
515.94	13.610
516.14	13.486
516.33	12.968
516.53	13.114
516.73	13.242
516.93	13.442
517.12	12.938
517.32	12.515
517.52	13.234
517.71	12.928
517.91	13.140
518.11	12.487
518.30	12.959
518.50	12.750
518.70	12.896
518.90	12.760
519.09	12.719
519.29	13.087
519.49	13.305
519.68	12.599
519.88	13.048
520.08	13.451
520.27	13.691
520.47	14.023
520.67	13.664
520.86	13.927
521.06	13.473
521.26	13.049
521.45	14.125
521.65	13.879
521.85	13.602
522.04	12.894
522.24	13.378
522.44	13.355
522.63	13.935
522.83	12.831
523.03	13.329
523.22	13.712
523.42	13.588
523.62	13.316
523.81	13.360
524.01	13.106
524.21	13.622
524.40	12.997
524.60	13.451
524.80	13.668
524.99	13.625
525.19	13.318
525.39	13.428
525.58	13.408
525.78	13.182
525.98	13.330
526.17	13.260
526.37	13.501
526.57	13.435
526.76	13.233
526.96	13.468
527.15	13.182
527.35	13.203
527.55	13.098
527.74	13.572
527.94	13.029
528.14	13.279
528.33	12.713
528.53	11.973
528.72	12.503
528.92	12.723
529.12	13.084
529.31	13.133
529.51	13.072
529.71	13.515
529.90	13.594
530.10	13.930
530.29	13.786
530.49	14.020
530.69	14.217
530.88	14.324
531.08	14.650
531.28	14.141
531.47	14.174
531.67	13.378
531.86	13.758
532.06	13.959
532.26	13.691
532.45	13.487
532.65	13.607
532.84	13.399
533.04	13.415
533.24	13.520
533.43	12.788
533.63	13.510
533.82	13.531
534.02	13.664
534.22	13.523
534.41	14.123
534.61	13.520
534.80	14.068
535.00	14.021
535.19	14.469
535.39	14.491
535.59	14.556
535.78	14.054
535.98	14.068
536.17	13.735
536.37	13.518
536.57	14.107
536.76	14.212
536.96	13.493
537.15	13.619
537.35	13.852
537.54	14.208
537.74	14.414
537.93	14.280
538.13	14.007
538.33	14.197
538.52	14.509
538.72	14.598
538.91	14.878
539.11	14.696
539.30	14.785
539.50	14.190
539.70	14.735
539.89	14.120
540.09	14.216
540.28	14.351
540.48	14.112
540.67	13.875
540.87	13.795
541.06	13.958
541.26	13.775
541.45	13.655
541.65	13.827
541.85	13.791
542.04	14.085
542.24	14.349
542.43	14.533
542.63	14.748
542.82	14.643
543.02	14.810
543.21	15.165
543.41	15.180
543.60	15.003
543.80	14.959
543.99	14.974
544.19	15.021
544.38	15.179
544.58	15.356
544.77	14.887
544.97	14.975
545.16	15.104
545.36	15.403
545.56	15.306
545.75	15.714
545.95	15.659
546.14	15.282
546.34	15.757
546.53	15.759
546.73	14.918
546.92	15.699
547.12	14.843
547.31	15.397
547.51	15.161
547.70	15.823
547.90	14.915
548.09	15.211
548.29	15.338
548.48	15.171
548.68	15.802
548.87	15.931
549.07	16.135
549.26	16.316
549.46	16.488
549.65	16.941
549.84	15.807
550.04	16.560
550.23	17.128
550.43	16.121
550.62	16.189
550.82	17.161
551.01	16.046
551.21	16.884
551.40	16.515
551.60	16.220
551.79	15.204
551.99	16.839
552.18	15.989
552.38	16.281
552.57	16.006
552.77	16.623
552.96	17.337
553.16	16.748
553.35	16.766
553.54	17.088
553.74	16.926
553.93	16.626
554.13	16.812
554.32	17.409
554.52	18.014
554.71	18.169
554.91	17.092
555.10	18.595
555.29	17.615
555.49	17.294
555.68	17.409
555.88	17.455
556.07	16.641
556.27	17.817
556.46	17.680
556.66	18.291
556.85	18.509
557.04	18.345
557.24	18.041
557.43	18.058
557.63	17.941
557.82	18.220
558.02	17.270
558.21	19.128
558.40	17.040
558.60	19.376
558.79	18.719
558.99	18.620
559.18	18.374
559.38	18.598
559.57	18.390
559.76	18.963
559.96	19.774
560.15	18.629
560.35	18.255
560.54	19.419
560.73	18.804
560.93	19.498
561.12	20.063
561.32	19.449
561.51	19.141
561.70	19.211
561.90	19.132
562.09	19.658
562.29	18.793
562.48	19.680
562.67	18.908
562.87	20.079
563.06	19.674
563.26	20.053
563.45	19.327
563.64	20.245
563.84	20.335
564.03	20.120
564.23	19.804
564.42	20.738
564.61	20.418
564.81	20.981
565.00	19.850
565.20	19.936
565.39	21.039
565.58	19.755
565.78	19.873
565.97	19.265
566.16	20.594
566.36	20.095
566.55	20.400
566.74	20.441
566.94	19.470
567.13	20.193
567.33	21.008
567.52	20.358
567.71	21.014
567.91	20.898
568.10	20.682
568.29	21.341
568.49	21.174
568.68	21.464
568.87	20.961
569.07	20.614
569.26	20.588
569.45	20.971
569.65	21.225
569.84	21.352
570.04	20.556
570.23	20.916
570.42	21.020
570.62	21.380
570.81	21.584
571.00	21.258
571.20	20.503
571.39	21.211
571.58	20.916
571.78	21.425
571.97	21.293
572.16	21.008
572.36	21.183
572.55	20.815
572.74	20.815
572.94	20.042
573.13	21.592
573.32	21.812
573.51	20.740
573.71	21.417
573.90	21.518
574.09	21.416
574.29	22.041
574.48	21.657
574.67	21.173
574.87	20.949
575.06	21.431
575.25	21.392
575.45	21.193
575.64	20.596
575.83	21.554
576.03	21.536
576.22	21.258
576.41	21.189
576.60	20.423
576.80	21.056
576.99	22.650
577.18	21.773
577.38	22.574
577.57	21.049
577.76	22.157
577.95	21.809
578.15	21.419
578.34	21.340
578.53	21.333
578.73	21.708
578.92	21.817
579.11	21.787
579.30	20.943
579.50	21.148
579.69	22.051
579.88	22.294
580.08	21.299
580.27	21.203
580.46	22.396
580.65	21.668
580.85	21.437
581.04	21.081
581.23	20.656
581.42	21.285
581.62	19.948
581.81	21.115
582.00	21.360
582.19	21.778
582.39	21.820
582.58	20.744
582.77	20.161
582.96	21.535
583.16	20.545
583.35	21.342
583.54	21.148
583.73	22.034
583.93	20.879
584.12	20.641
584.31	20.707
584.50	20.666
584.70	20.651
584.89	21.644
585.08	20.934
585.27	20.705
585.47	21.233
585.66	21.456
585.85	20.655
586.04	21.818
586.24	21.268
586.43	20.425
586.62	19.864
586.81	20.839
587.00	19.860
587.20	21.436
587.39	19.011
587.58	20.623
587.77	20.276
587.97	20.246
588.16	20.914
588.35	21.422
588.54	19.980
588.73	21.349
588.93	19.977
589.12	20.398
589.31	19.498
589.50	19.617
589.69	20.166
589.89	21.879
590.08	19.898
590.27	21.469
590.46	19.745
590.65	20.835
590.85	20.401
591.04	21.436
591.23	20.414
591.42	19.805
591.61	20.204
591.81	19.871
592.00	20.721
592.19	19.895
592.38	20.148
592.57	20.590
592.77	21.025
592.96	20.471
593.15	20.985
593.34	21.594
593.53	19.576
593.72	20.512
593.92	19.822
594.11	20.525
594.30	19.383
594.49	20.741
594.68	20.730
594.87	20.809
595.07	20.388
595.26	20.635
595.45	20.346
595.64	21.106
595.83	20.194
596.02	20.764
596.22	21.061
596.41	19.930
596.60	20.263
596.79	19.516
596.98	21.051
597.17	20.747
597.37	21.136
597.56	20.998
597.75	19.510
597.94	21.160
598.13	20.631
598.32	20.411
598.51	20.729
598.71	21.966
598.90	20.970
599.09	21.663
599.28	21.177
599.47	21.826
599.66	21.498
599.85	21.542
600.05	20.875
600.24	21.764
600.43	21.527
600.62	21.522
600.81	22.250
601.00	22.002
601.19	21.779
601.38	22.357
601.58	22.689
601.77	21.384
601.96	21.581
602.15	23.062
602.34	21.505
602.53	22.024
602.72	21.457
602.91	21.461
603.10	21.828
603.30	22.646
603.49	20.833
603.68	22.102
603.87	20.956
604.06	21.780
604.25	21.120
604.44	21.807
604.63	21.241
604.82	21.755
605.01	22.893
605.21	21.641
605.40	21.854
605.59	21.784
605.78	21.626
605.97	22.134
606.16	22.059
606.35	21.775
606.54	21.477
606.73	22.699
606.92	22.825
607.11	23.593
607.30	22.170
607.50	22.482
607.69	21.985
607.88	22.518
608.07	21.390
608.26	22.128
608.45	22.279
608.64	21.980
608.83	21.116
609.02	21.064
609.21	21.639
609.40	21.271
609.59	21.644
609.78	21.634
609.97	21.311
610.16	21.619
610.35	21.545
610.55	20.709
610.74	22.726
610.93	21.381
611.12	20.751
611.31	22.368
611.50	21.084
611.69	21.899
611.88	21.602
612.07	21.063
612.26	21.060
612.45	21.512
612.64	21.234
612.83	22.349
613.02	20.687
613.21	20.670
613.40	21.342
613.59	22.044
613.78	20.679
613.97	21.106
614.16	18.497
614.35	20.974
614.54	19.683
614.73	20.643
614.92	20.540
615.11	19.581
615.30	20.401
615.49	20.257
615.68	20.977
615.87	19.696
616.07	18.084
616.26	21.681
616.45	20.041
616.64	19.574
616.83	19.361
617.02	21.577
617.21	19.050
617.40	19.040
617.59	19.682
617.78	19.084
617.97	20.067
618.16	19.229
618.35	19.133
618.54	19.354
618.73	19.640
618.92	20.061
619.11	19.015
619.30	20.312
619.49	18.583
619.68	20.059
619.86	18.297
620.05	20.404
620.24	18.896
620.43	19.909
620.62	17.663
620.81	18.582
621.00	18.678
621.19	19.311
621.38	19.115
621.57	19.357
621.76	17.985
621.95	18.868
622.14	19.310
622.33	19.540
622.52	18.776
622.71	18.477
622.90	17.447
623.09	19.562
623.28	17.522
623.47	19.723
623.66	19.180
623.85	18.949
624.04	17.882
624.23	19.342
624.42	18.168
624.61	19.055
624.80	17.617
624.99	18.488
625.18	16.389
625.36	17.903
625.55	17.123
625.74	17.508
625.93	17.291
626.12	18.084
626.31	17.558
626.50	19.629
626.69	17.665
626.88	19.582
627.07	17.920
627.26	18.451
627.45	18.330
627.64	18.823
627.83	19.095
628.02	18.056
628.20	19.122
628.39	18.735
628.58	18.652
628.77	19.138
628.96	17.398
629.15	17.926
629.34	17.739
629.53	19.950
629.72	16.252
629.91	19.231
630.10	17.971
630.29	18.446
630.47	16.563
630.66	17.257
630.85	17.883
631.04	17.974
631.23	16.342
631.42	17.195
631.61	17.145
631.80	18.586
631.99	17.641
632.18	17.167
632.36	15.715
632.55	18.351
632.74	16.615
632.93	16.842
633.12	17.123
633.31	17.859
633.50	17.204
633.69	17.661
633.88	15.772
634.06	17.986
634.25	16.547
634.44	17.309
634.63	17.954
634.82	17.472
635.01	15.856
635.20	17.723
635.39	16.377
635.57	17.646
635.76	17.456
635.95	16.683
636.14	16.288
636.33	18.258
636.52	17.161
636.71	17.043
636.89	17.152
637.08	17.417
637.27	16.107
637.46	17.055
637.65	16.582
637.84	18.670
638.03	16.832
638.21	19.563
638.40	16.514
638.59	17.716
638.78	16.459
638.97	18.134
639.16	16.517
639.34	17.164
639.53	14.884
639.72	18.383
639.91	17.189
640.10	17.294
640.29	17.241
640.47	18.770
640.66	17.144
640.85	18.460
641.04	15.514
641.23	17.908
641.42	17.047
641.60	17.140
641.79	15.635
641.98	18.408
642.17	17.256
642.36	17.912
642.54	15.611
642.73	17.188
642.92	15.860
643.11	17.399
643.30	16.115
643.49	18.472
643.67	15.512
643.86	19.358
644.05	16.506
644.24	15.161
644.43	17.390
644.61	18.770
644.80	16.688
644.99	15.914
645.18	18.732
645.37	17.300
645.55	15.936
645.74	15.531
645.93	15.953
646.12	18.359
646.31	16.565
646.49	17.208
646.68	16.776
646.87	17.781
647.06	16.133
647.24	16.817
647.43	15.206
647.62	18.997
647.81	14.595
648.00	18.387
648.18	14.171
648.37	16.306
648.56	15.607
648.75	16.579
648.93	15.460
649.12	16.290
649.31	14.387
649.50	16.372
649.68	15.994
649.87	16.984
650.06	15.574
650.25	15.869
650.43	16.049
650.62	14.728
650.81	15.964
651.00	16.641
651.18	14.702
651.37	17.688
651.56	14.837
651.75	18.454
651.93	15.941
652.12	16.365
652.31	15.018
652.50	17.616
652.68	17.269
652.87	18.102
653.06	16.700
653.25	17.514
653.43	14.731
653.62	17.045
653.81	16.356
654.00	16.592
654.18	16.233
654.37	16.174
654.56	15.621
654.74	14.373
654.93	14.552
655.12	16.078
655.31	15.505
655.49	15.402
655.68	14.930
655.87	15.429
656.05	13.443
656.24	15.539
656.43	12.784
656.62	15.391
656.80	14.699
656.99	15.631
657.18	13.213
657.36	13.446
657.55	13.122
657.74	14.492
657.93	14.866
658.11	16.572
658.30	14.992
658.49	14.076
658.67	14.771
658.86	15.424
659.05	14.544
659.23	14.811
659.42	12.756
659.61	15.288
659.79	13.191
659.98	14.889
660.17	14.844
660.35	14.152
660.54	15.748
660.73	16.054
660.91	13.439
661.10	15.402
661.29	13.367
661.47	14.168
661.66	14.894
661.85	14.869
662.03	13.793
662.22	12.051
662.41	9.747
662.59	12.931
662.78	12.216
662.97	13.339
663.15	11.033
663.34	13.119
663.53	12.798
663.71	13.747
663.90	11.871
664.09	14.324
664.27	13.151
664.46	13.719
664.65	10.703
664.83	10.862
665.02	11.622
665.21	12.345
665.39	11.350
665.58	11.765
665.77	13.058
665.95	13.374
666.14	11.772
666.32	15.416
666.51	12.261
666.70	11.485
666.88	11.326
667.07	12.425
667.26	9.401
667.44	11.873
667.63	12.221
667.81	10.216
668.00	11.345
668.19	13.899
668.37	10.617
668.56	14.491
668.75	11.916
668.93	15.361
669.12	11.597
669.30	13.062
669.49	10.638
669.68	13.394
669.86	13.408
670.05	11.495
670.23	12.124
670.42	12.710
670.61	12.959
670.79	13.053
670.98	12.847
671.16	14.676
671.35	12.645
671.54	11.915
671.72	11.799
671.91	11.530
672.09	10.758
672.28	13.292
672.46	13.825
672.65	13.027
672.84	14.025
673.02	13.422
673.21	11.331
673.39	11.666
673.58	14.896
673.77	12.592
673.95	13.130
674.14	12.723
674.32	11.431
674.51	13.852
674.69	10.371
674.88	12.782
675.07	11.165
675.25	15.570
675.44	13.072
675.62	13.478
675.81	11.847
675.99	19.032
676.18	15.295
676.36	12.719
676.55	11.765
676.74	13.638
676.92	14.553
677.11	11.828
677.29	13.161
677.48	15.747
677.66	13.073
677.85	12.775
678.03	11.218
678.22	16.173
678.40	13.555
678.59	12.330
678.78	12.525
678.96	13.794
679.15	13.253
679.33	14.573
679.52	14.823
679.70	13.431
679.89	14.333
680.07	15.161
680.26	13.853
680.44	14.750
680.63	14.189
680.81	13.628
681.00	12.059
681.18	13.459
681.37	13.850
681.55	14.026
681.74	14.325
681.92	14.979
682.11	16.206
682.29	14.506
682.48	15.432
682.66	16.511
682.85	15.536
683.03	15.118
683.22	17.687
683.40	16.482
683.59	12.818
683.77	17.599
683.96	14.126
684.14	16.887
684.33	14.003
684.51	18.767
684.70	15.135
684.88	17.188
685.07	14.331
685.25	16.177
685.44	14.470
685.62	17.138
685.81	15.046
685.99	17.035
686.18	14.930
686.36	15.456
686.55	13.139
686.73	14.397
686.92	15.486
687.10	16.513
687.29	17.239
687.47	16.155
687.65	18.166
687.84	15.236
688.02	19.908
688.21	20.243
688.39	17.150
688.58	18.281
688.76	17.367
688.95	18.757
689.13	15.387
689.32	20.447
689.50	18.657
689.68	19.867
689.87	19.084
690.05	19.950
690.24	20.073
690.42	19.515
690.61	19.826
690.79	21.249
690.98	19.822
691.16	20.647
691.34	17.527
691.53	21.510
691.71	21.333
691.90	21.765
692.08	20.104
692.27	22.686
692.45	23.055
692.63	23.860
692.82	23.436
693.00	21.768
693.19	21.648
693.37	26.912
693.56	22.312
693.74	28.436
693.92	25.244
694.11	25.071
694.29	28.163
694.48	31.722
694.66	26.541
694.84	30.448
695.03	27.292
695.21	31.481
695.40	27.319
695.58	33.122
695.76	29.395
695.95	33.724
696.13	32.655
696.32	34.828
696.50	37.876
696.68	33.575
696.87	33.375
697.05	34.876
697.24	33.605
697.42	36.594
697.60	33.840
697.79	38.576
697.97	40.660
698.16	37.874
698.34	38.051
698.52	38.966
698.71	39.180
698.89	39.883
699.07	40.192
699.26	37.717
699.44	40.565
699.63	41.263
699.81	38.736
699.99	40.943
700.18	43.823
700.36	42.093
700.54	42.549
700.73	41.840
700.91	44.592
701.09	43.066
701.28	45.181
701.46	46.092
701.64	44.869
701.83	45.713
702.01	44.745
702.20	49.284
702.38	49.737
702.56	48.407
702.75	53.591
702.93	46.664
703.11	52.122
703.30	54.912
703.48	52.504
703.66	53.644
703.85	51.548
704.03	54.019
704.21	54.165
704.40	57.018
704.58	52.106
704.76	55.655
704.95	53.913
705.13	56.047
705.31	56.016
705.50	58.435
705.68	56.599
705.86	57.696
706.04	56.807
706.23	58.818
706.41	59.692
706.59	55.712
706.78	59.309
706.96	61.847
707.14	61.542
707.33	56.549
707.51	60.163
707.69	60.547
707.88	59.154
708.06	63.329
708.24	61.052
708.42	62.397
708.61	59.554
708.79	62.838
708.97	63.025
709.16	66.877
709.34	66.892
709.52	63.168
709.71	65.403
709.89	62.053
710.07	64.279
710.25	61.978
710.44	61.759
710.62	66.135
710.80	65.753
710.98	62.990
711.17	64.298
711.35	60.076
711.53	61.987
711.72	65.316
711.90	65.249
712.08	65.150
712.26	63.393
712.45	62.993
712.63	62.715
712.81	69.160
712.99	65.550
713.18	67.262
713.36	63.694
713.54	62.636
713.72	64.083
713.91	66.441
714.09	65.455
714.27	65.407
714.45	65.770
714.64	66.637
714.82	63.615
715.00	68.044
715.18	66.061
715.37	67.566
715.55	63.989
715.73	68.227
715.91	66.195
716.10	66.230
716.28	63.557
716.46	67.812
716.64	65.636
716.83	69.043
717.01	69.048
717.19	65.053
717.37	67.913
717.55	66.758
717.74	66.964
717.92	65.208
718.10	68.234
718.28	69.405
718.47	66.584
718.65	74.190
718.83	67.778
719.01	69.650
719.19	69.730
719.38	67.684
719.56	69.351
719.74	70.247
719.92	67.756
720.10	71.575
720.29	69.988
720.47	73.550
720.65	72.412
720.83	74.499
721.01	69.423
721.20	70.706
721.38	74.049
721.56	70.708
721.74	75.136
721.92	73.557
722.11	75.061
722.29	74.091
722.47	72.208
722.65	78.046
722.83	72.476
723.01	73.317
723.20	77.667
723.38	76.478
723.56	71.810
723.74	76.399
723.92	76.261
724.10	76.331
724.29	71.168
724.47	77.764
724.65	75.131
724.83	74.537
725.01	75.258
725.19	77.068
725.38	69.040
725.56	75.324
725.74	75.269
725.92	76.709
726.10	76.586
726.28	73.257
726.46	75.627
726.65	76.060
726.83	74.336
727.01	74.587
727.19	71.860
727.37	76.865
727.55	70.430
727.73	73.908
727.92	74.030
728.10	75.687
728.28	70.648
728.46	74.576
728.64	78.502
728.82	76.883
729.00	76.602
729.19	78.291
729.37	81.221
729.55	75.475
729.73	77.719
729.91	77.338
730.09	73.003
730.27	79.458
730.45	75.590
730.63	71.129
730.82	76.353
731.00	77.726
731.18	71.470
731.36	73.997
731.54	74.798
731.72	75.768
731.90	75.688
732.08	76.893
732.26	75.749
732.45	78.331
732.63	82.269
732.81	78.011
732.99	76.148
733.17	79.467
733.35	74.409
733.53	75.317
733.71	73.687
733.89	76.650
734.07	81.951
734.25	79.528
734.44	74.380
734.62	74.789
734.80	76.310
734.98	76.505
735.16	77.417
735.34	79.015
735.52	79.576
735.70	84.764
735.88	83.322
736.06	78.576
736.24	81.012
736.42	84.549
736.60	83.028
736.78	83.015
736.97	85.907
737.15	84.469
737.33	82.240
737.51	79.241
737.69	85.928
737.87	80.999
738.05	90.452
738.23	82.534
738.41	83.486
738.59	82.918
738.77	82.913
738.95	85.866
739.13	84.129
739.31	81.799
739.49	90.181
739.67	81.246
739.85	84.240
740.03	80.421
740.21	83.403
740.39	80.014
740.57	84.489
740.75	83.866
740.93	85.079
741.11	83.169
741.30	86.165
741.48	87.131
741.66	82.386
741.84	89.855
742.02	80.450
742.20	83.740
742.38	82.043
742.56	86.117
742.74	86.265
742.92	87.081
743.10	85.425
743.28	80.893
743.46	83.680
743.64	83.007
743.82	91.381
744.00	83.628
744.18	86.016
744.36	87.521
744.54	89.334
744.72	89.354
744.90	95.747
745.08	93.563
745.26	85.691
745.44	93.047
745.62	86.243
745.80	79.335
745.98	84.483
746.16	92.119
746.34	91.316
746.52	88.899
746.70	85.569
746.87	88.789
747.05	83.481
747.23	84.271
747.41	90.941
747.59	87.824
747.77	84.574
747.95	93.586
748.13	87.755
748.31	94.981
748.49	84.582
748.67	89.772
748.85	90.934
749.03	85.638
749.21	90.616
749.39	87.907
749.57	77.002
749.75	89.958
749.93	95.164
750.11	84.983
750.29	88.497
750.47	85.211
750.65	87.145
750.83	89.728
751.01	81.110
751.18	87.402
751.36	84.252
751.54	86.210
751.72	86.435
751.90	88.468
752.08	90.959
752.26	95.687
752.44	84.324
752.62	89.840
752.80	91.095
752.98	88.613
753.16	94.283
753.34	91.831
753.52	91.946
753.69	91.443
753.87	87.106
754.05	88.664
754.23	88.314
754.41	88.452
754.59	90.894
754.77	81.747
754.95	86.785
755.13	87.921
755.31	88.265
755.49	90.771
755.66	86.997
755.84	83.830
756.02	84.835
756.20	90.726
756.38	88.036
756.56	90.353
756.74	89.827
756.92	84.898
757.10	88.349
757.28	97.592
757.45	88.668
757.63	88.106
757.81	90.858
757.99	95.798
758.17	86.246
758.35	84.157
758.53	89.070
758.71	89.956
758.88	86.155
759.06	81.941
759.24	80.619
759.42	85.309
759.60	81.288
759.78	82.465
759.96	76.544
760.13	81.524
760.31	75.488
760.49	78.934
760.67	67.102
760.85	71.453
761.03	64.338
761.21	75.043
761.38	69.430
761.56	73.653
761.74	65.086
761.92	72.475
762.10	66.502
762.28	71.188
762.46	73.171
762.63	71.259
762.81	71.371
762.99	70.953
763.17	66.061
763.35	71.078
763.53	67.857
763.70	74.423
763.88	71.523
764.06	67.453
764.24	66.506
764.42	70.307
764.60	70.154
764.77	66.108
764.95	66.237
765.13	74.687
765.31	69.669
765.49	73.016
765.66	72.212
765.84	74.583
766.02	73.006
766.20	72.128
766.38	75.594
766.56	77.528
766.73	77.934
766.91	83.283
767.09	79.207
767.27	79.409
767.45	83.073
767.62	79.107
767.80	80.798
767.98	85.362
768.16	84.119
768.33	84.736
768.51	84.963
768.69	90.353
768.87	86.316
769.05	87.327
769.22	92.251
769.40	95.046
769.58	85.331
769.76	91.296
769.94	91.134
770.11	91.631
770.29	91.043
770.47	96.388
770.65	92.787
770.82	88.412
771.00	89.026
771.18	93.570
771.36	97.222
771.53	98.182
771.71	91.310
771.89	96.925
772.07	88.443
772.25	99.631
772.42	90.012
772.60	98.206
772.78	101.995
772.96	93.590
773.13	92.974
773.31	97.185
773.49	93.561
773.67	94.007
773.84	96.923
774.02	94.431
774.20	87.696
774.37	101.992
774.55	104.223
774.73	99.868
774.91	89.883
775.08	97.943
775.26	101.484
775.44	98.675
775.62	101.197
775.79	91.536
775.97	95.694
776.15	96.174
776.32	96.719
776.50	93.190
776.68	102.767
776.86	100.286
777.03	93.042
777.21	92.886
777.39	97.609
777.56	96.693
777.74	105.350
777.92	104.427
778.10	103.138
778.27	95.728
778.45	96.949
778.63	101.950
778.80	97.959
778.98	95.559
779.16	92.287
779.34	100.407
779.51	92.908
779.69	97.778
779.87	96.179
780.04	92.818
780.22	105.579
780.40	97.273
780.57	83.794
780.75	96.542
780.93	91.120
781.10	89.821
781.28	106.696
781.46	96.694
781.63	102.848
781.81	99.008
781.99	95.887
782.16	91.108
782.34	96.238
782.52	103.292
782.69	91.523
782.87	98.422
783.05	92.868
783.22	94.653
783.40	101.721
783.58	103.852
783.75	97.297
783.93	97.207
784.11	106.080
784.28	97.130
784.46	85.219
784.64	105.366
784.81	104.858
784.99	114.354
785.17	98.644
785.34	103.653
785.52	89.937
785.69	97.420
785.87	94.507
786.05	103.130
786.22	97.923
786.40	108.775
786.58	91.630
786.75	93.042
786.93	93.538
787.11	100.000
787.28	99.133
787.46	98.462
787.63	98.571
787.81	94.891
787.99	88.262
788.16	87.805
788.34	88.489
788.51	96.064
788.69	88.038
788.87	95.258
789.04	89.768
789.22	84.030
789.39	88.810
789.57	89.223
789.75	94.918
789.92	92.435
790.10	86.992
790.27	92.659
790.45	87.231
790.63	90.098
790.80	81.241
790.98	103.105
791.15	90.244
791.33	86.344
791.51	85.691
791.68	94.138
791.86	88.804
792.03	91.840
792.21	97.209
792.39	99.365
792.56	95.552
792.74	95.118
792.91	90.424
793.09	90.193
793.26	96.752
793.44	102.145
793.62	95.735
793.79	99.136
793.97	85.665
794.14	94.414
794.32	99.297
794.49	97.109
794.67	96.494
794.84	89.172
795.02	98.053
795.20	110.383
795.37	90.339
795.55	91.465
795.72	85.737
795.90	92.749
796.07	91.362
796.25	87.191
796.42	93.994
796.60	98.669
796.77	83.518
796.95	92.998
797.13	84.475
797.30	95.552
797.48	82.991
797.65	85.094
797.83	78.529
798.00	96.000
798.18	89.952
798.35	101.766
798.53	87.087
798.70	99.321
798.88	87.656
799.05	87.573
799.23	82.897
799.40	92.586
799.58	94.674
799.75	91.572
799.93	88.152
800.10	84.956
800.28	96.007
800.45	91.153
800.63	85.794
800.80	95.707
800.98	95.866
801.15	89.810
801.33	86.515
801.50	88.943
801.68	82.267
801.85	87.809
802.03	95.248
802.20	95.494
802.38	80.717
802.55	88.142
802.73	92.308
802.90	89.379
803.08	91.165
803.25	100.190
803.43	83.769
803.60	103.320
803.78	85.027
803.95	98.195
804.13	100.783
804.30	91.103
804.48	90.504
804.65	94.716
804.83	88.112
805.00	85.943
805.17	86.924
805.35	95.490
805.52	87.475
805.70	86.285
805.87	91.446
806.05	97.331
806.22	90.224
806.40	90.702
806.57	82.320
806.75	89.373
806.92	90.368
807.09	97.476
807.27	88.953
807.44	97.538
807.62	83.364
807.79	85.092
807.97	96.060
808.14	85.636
808.31	83.670
808.49	83.979
808.66	85.424
808.84	95.935
809.01	83.895
809.19	91.211
809.36	90.778
809.53	104.892
809.71	85.089
809.88	95.798
810.06	92.540
810.23	96.957
810.41	86.475
810.58	91.917
810.75	84.171
810.93	91.667
811.10	97.638
811.28	95.020
811.45	89.066
811.62	94.934
811.80	92.291
811.97	88.636
812.15	84.306
812.32	85.556
812.49	102.179
812.67	80.819
812.84	93.483
813.02	92.798
813.19	76.800
813.36	88.286
813.54	91.939
813.71	90.497
813.89	91.525
814.06	90.838
814.23	84.486
814.41	93.703
814.58	85.745
814.75	92.913
814.93	84.305
815.10	96.796
815.28	84.262
815.45	75.240
815.62	85.812
815.80	73.214
815.97	76.846
816.14	100.254
816.32	75.647
816.49	81.818
816.66	82.303
816.84	75.051
817.01	94.524
817.18	83.158
817.36	85.714
817.53	89.616
817.71	71.765
817.88	93.438
818.05	72.577
818.23	76.181
818.40	79.443
818.57	91.461
818.75	84.742
818.92	84.292
819.09	75.287
819.27	78.631
819.44	75.055
819.61	81.579
819.79	74.949
819.96	92.146
820.13	75.085
820.31	78.150
820.48	85.817
820.65	77.581
820.82	74.390
821.00	80.168
821.17	67.172
821.34	73.549
821.52	70.070
821.69	64.609
821.86	67.514
822.04	74.921
822.21	69.650
822.38	69.546
822.56	64.854
822.73	64.976
822.90	68.095
823.07	64.428
823.25	64.188
823.42	66.678
823.59	63.751
823.77	62.735
823.94	62.919
824.11	63.955
824.29	62.927
824.46	60.681
824.63	68.003
824.80	67.075
824.98	66.384
825.15	66.858
825.32	60.734
825.49	71.445
825.67	69.448
825.84	66.645
826.01	68.425
826.19	73.757
826.36	64.462
826.53	70.451
826.70	69.146
826.88	74.346
827.05	66.300
827.22	73.238
827.39	68.291
827.57	69.724
827.74	62.227
827.91	68.919
828.08	63.836
828.26	70.696
828.43	63.561
828.60	71.530
828.77	62.771
828.95	71.380
829.12	55.516
829.29	63.095
829.46	64.372
829.64	68.267
829.81	63.351
829.98	69.989
830.15	64.229
830.32	65.621
830.50	62.069
830.67	65.494
830.84	62.202
831.01	67.381
831.19	68.519
831.36	69.861
831.53	81.474
831.70	83.015
831.87	81.076
832.05	82.472
832.22	90.851
832.39	81.619
832.56	72.234
832.74	67.360
832.91	68.593
833.08	78.881
833.25	65.193
833.42	70.840
833.60	66.874
833.77	58.705
833.94	60.875
834.11	69.550
834.28	61.172
834.45	66.410
834.63	59.826
834.80	66.211
834.97	68.427
835.14	69.654
835.31	62.863
835.49	64.513
835.66	55.352
835.83	60.330
836.00	70.305
836.17	70.528
836.34	58.540
836.52	66.282
836.69	68.976
836.86	75.084
837.03	77.758
837.20	72.538
837.37	70.903
837.55	77.694
837.72	72.439
837.89	85.491
838.06	84.783
838.23	84.211
838.40	78.072
838.58	68.894
838.75	92.945
838.92	90.145
839.09	104.747
839.26	93.239
839.43	100.000
839.60	83.280
839.78	103.727
839.95	94.048
840.12	86.550
840.29	93.352
840.46	97.196
840.63	79.224
840.80	74.670
840.98	103.306
841.15	80.711
841.32	93.296
841.49	80.441
841.66	81.351
841.83	78.014
842.00	88.385
842.17	85.754
842.34	86.351
842.52	91.515
842.69	82.911
842.86	74.359
843.03	104.502
843.20	87.896
843.37	105.159
843.54	94.198
843.71	105.417
843.88	103.650
844.06	143.644
844.23	122.458
844.40	110.169
844.57	114.050
844.74	106.466
844.91	113.433
845.08	151.412
845.25	136.170
845.42	141.341
845.59	102.459
845.76	128.495
845.94	148.333
846.11	142.574
846.28	125.100
846.45	141.398
846.62	130.500
846.79	97.046
846.96	124.725
847.13	130.435
847.30	146.328
847.47	124.227
847.64	109.388
847.81	172.794
847.98	123.243
848.15	136.872
848.32	139.378
848.50	125.500
848.67	134.911
848.84	126.627
849.01	151.079
849.18	144.706
849.35	144.286
849.52	126.455
849.69	132.418
849.86	157.432
850.03	177.686
850.20	165.333
850.37	141.176
850.54	136.170
850.71	107.812
850.88	149.032
851.05	135.326
851.22	152.410
851.39	133.690
851.56	165.517
851.73	147.024
851.90	152.941
852.07	125.146
852.24	160.131
852.41	136.041
852.58	146.995
852.75	121.512
852.92	125.967
853.09	162.092
853.26	165.359
853.43	108.235
853.60	155.782
853.77	131.844
853.94	145.133
854.11	116.667
854.28	161.806
854.45	154.545
854.62	141.860
854.79	132.727
854.96	156.944
855.13	153.459
855.30	170.073
855.47	179.839
855.64	138.509
855.81	180.576
855.98	161.069
856.15	181.538
856.32	117.062
856.49	153.672
856.66	136.538
856.83	135.849
857.00	172.131
857.17	151.613
857.34	126.087
857.51	154.225
857.68	134.694
857.85	142.941
858.02	148.980
858.19	132.597
858.36	151.149
858.53	128.402
858.70	131.319
858.87	168.966
859.04	141.765
859.21	159.848
859.38	121.198
859.55	135.795
859.72	148.611
859.89	183.916
860.05	182.734
860.22	148.485
860.39	198.276
860.56	164.286
860.73	142.857
860.90	148.503
861.07	140.500
861.24	125.000
861.41	157.225
861.58	156.494
861.75	169.291
861.92	140.625
862.09	158.291
862.26	138.065
862.43	158.667
862.59	104.605
862.76	135.751
862.93	201.538
863.10	162.500
863.27	163.846
863.44	165.041
863.61	142.754
863.78	136.898
863.95	154.878
864.12	235.897
864.29	195.763
864.45	132.075
864.62	155.285
864.79	147.647
864.96	236.538
865.13	136.496
865.30	209.184
865.47	148.276
865.64	160.140
865.81	191.228
865.97	113.208
866.14	146.524
866.31	180.328
866.48	134.507
866.65	134.969
866.82	181.208
866.99	186.429
867.16	172.093
867.33	170.922
867.49	146.988
867.66	158.955
867.83	123.214
868.00	126.344
868.17	142.748
868.34	181.102
868.51	134.507
868.67	149.405
868.84	148.148
869.01	153.793
869.18	180.000
869.35	136.879
869.52	164.234
869.69	163.433
869.85	148.649
870.02	117.391
870.19	198.462
870.36	161.871
870.53	200.000
870.70	205.357
870.86	139.610
871.03	152.555
871.20	148.739
871.37	142.604
871.54	190.566
871.71	165.152
871.87	205.155
872.04	110.625
872.21	168.182
872.38	269.880
872.55	134.286
872.72	136.957
872.88	157.500
873.05	114.973
873.22	182.500
873.39	95.122
873.56	105.036
873.72	136.464
873.89	147.771
874.06	153.279
874.23	183.333
874.40	157.600
874.56	161.364
874.73	206.667
874.90	113.014
875.07	154.962
875.24	134.146
875.40	179.464
875.57	150.000
875.74	112.500
875.91	173.810
876.08	160.000
876.24	147.436
876.41	168.421
876.58	151.825
876.75	132.903
876.92	174.359
877.08	151.095
877.25	141.558
877.42	167.692
877.59	143.976
877.75	113.679
877.92	121.512
878.09	145.395
878.26	167.808
878.42	124.444
878.59	142.614
878.76	112.698
878.93	149.669
879.09	117.687
879.26	121.154
879.43	134.896
879.60	125.455
879.76	97.436
879.93	100.508
880.10	97.209
880.27	97.333
880.43	107.143
880.60	102.347
880.77	98.824
880.94	81.429
881.10	79.655
881.27	74.862
881.44	58.568
881.61	62.173
881.77	64.207
881.94	49.527
882.11	51.775
882.28	52.853
882.44	52.339
882.61	52.297
882.78	52.401
882.94	66.952
883.11	56.907
883.28	55.392
883.45	52.676
883.61	59.655
883.78	57.114
883.95	58.811
884.11	53.298
884.28	57.558
>>>>>End Processed Spectral Data<<<<<
