SpectraSuite Data File
++++++++++++++++++++++++++++++++++++
Date: Wed Sep 18 03:14:15 EST 2019
User: sgrac
Dark Spectrum Present: Yes
Reference Spectrum Present: Yes
Number of Sampled Component Spectra: 1
Spectrometers: USB4E01596
Integration Time (usec): 100000 (USB4E01596)
Spectra Averaged: 3 (USB4E01596)
Boxcar Smoothing: 0 (USB4E01596)
Correct for Electrical Dark: No (USB4E01596)
Strobe/Lamp Enabled: Yes (USB4E01596)
Correct for Detector Non-linearity: No (USB4E01596)
Correct for Stray Light: No (USB4E01596)
Number of Pixels in Processed Spectrum: 3648
>>>>>Begin Processed Spectral Data<<<<<
178.44	0.000
178.66	0.000
178.87	0.000
179.09	-70.000
179.30	213.043
179.52	389.474
179.74	-5.556
179.95	-460.000
180.17	460.465
180.38	-256.667
180.60	230.000
180.82	425.000
181.03	230.233
181.25	-1200.000
181.46	-200.000
181.68	-186.047
181.89	304.082
182.11	347.500
182.33	484.314
182.54	256.140
182.76	130.435
182.97	814.286
183.19	131.522
183.40	132.955
183.62	265.385
183.84	166.129
184.05	542.424
184.27	309.836
184.48	900.000
184.70	308.333
184.91	219.565
185.13	-162.500
185.34	-255.000
185.56	-412.121
185.78	855.556
185.99	216.393
186.21	263.415
186.42	-650.000
186.64	165.152
186.85	900.000
187.07	138.095
187.28	280.952
187.50	-188.235
187.72	256.000
187.93	204.819
188.15	339.706
188.36	-652.941
188.58	158.442
188.79	-7300.000
189.01	74.830
189.22	275.325
189.44	408.333
189.65	224.719
189.87	200.000
190.09	153.191
190.30	650.000
190.52	700.000
190.73	210.843
190.95	450.000
191.16	198.507
191.38	-12900.000
191.59	428.261
191.81	181.429
192.02	-264.103
192.24	179.032
192.45	200.000
192.67	103.030
192.88	246.875
193.10	311.364
193.31	176.786
193.53	201.613
193.74	330.303
193.96	162.712
194.18	-421.739
194.39	243.137
194.61	641.379
194.82	461.538
195.04	233.333
195.25	288.525
195.47	-2375.000
195.68	212.676
195.90	112.088
196.11	220.833
196.33	841.176
196.54	383.721
196.76	-596.000
196.97	155.000
197.19	485.000
197.40	133.083
197.62	-254.545
197.83	259.615
198.05	146.980
198.26	-188.000
198.48	147.222
198.69	183.486
198.91	259.420
199.12	-1100.000
199.34	476.000
199.55	7400.000
199.77	161.842
199.98	2316.667
200.20	282.353
200.41	236.620
200.63	198.148
200.84	985.714
201.06	474.194
201.27	198.765
201.49	273.437
201.70	257.377
201.91	429.545
202.13	855.000
202.34	-294.286
202.56	321.667
202.77	-88.372
202.99	226.829
203.20	314.894
203.42	198.571
203.63	150.459
203.85	-272.414
204.06	368.182
204.28	780.000
204.49	304.651
204.71	193.277
204.92	257.692
205.14	663.158
205.35	4275.000
205.56	185.915
205.78	250.617
205.99	174.046
206.21	77.778
206.42	441.304
206.64	314.706
206.85	146.667
207.07	88.571
207.28	161.364
207.50	260.870
207.71	309.302
207.93	291.667
208.14	348.837
208.35	166.102
208.57	234.000
208.78	137.234
209.00	182.796
209.21	161.972
209.43	304.167
209.64	315.385
209.86	981.818
210.07	145.570
210.28	168.675
210.50	221.739
210.71	184.848
210.93	207.273
211.14	367.500
211.36	380.952
211.57	135.833
211.78	515.385
212.00	318.919
212.21	733.333
212.43	761.538
212.64	425.000
212.86	110.909
213.07	305.769
213.29	113.265
213.50	185.000
213.71	125.000
213.93	149.438
214.14	425.000
214.36	409.756
214.57	195.238
214.78	4325.000
215.00	197.561
215.21	382.222
215.43	-4060.000
215.64	230.000
215.86	122.059
216.07	209.589
216.28	266.000
216.50	228.000
216.71	293.333
216.93	-9700.000
217.14	773.684
217.35	-238.983
217.57	175.000
217.78	196.552
218.00	109.524
218.21	208.824
218.42	-2525.000
218.64	325.000
218.85	263.235
219.07	253.488
219.28	250.000
219.49	-6700.000
219.71	186.567
219.92	228.947
220.14	-4200.000
220.35	206.849
220.56	158.696
220.78	87.805
220.99	-144.444
221.21	120.482
221.42	138.158
221.63	684.615
221.85	-146.667
222.06	172.727
222.28	-242.857
222.49	268.421
222.70	231.897
222.92	92.105
223.13	103.425
223.34	866.667
223.56	141.026
223.77	198.765
223.99	169.697
224.20	53.571
224.41	110.909
224.63	101.136
224.84	91.935
225.05	104.918
225.27	220.000
225.48	158.537
225.69	134.375
225.91	136.923
226.12	126.667
226.34	178.431
226.55	67.925
226.76	137.984
226.98	141.026
227.19	74.286
227.40	118.310
227.62	13.846
227.83	39.048
228.04	17.297
228.26	97.973
228.47	30.288
228.69	17.049
228.90	13.079
229.11	16.011
229.33	29.888
229.54	38.803
229.75	19.928
229.97	7.614
230.18	19.426
230.39	27.188
230.61	4.592
230.82	27.143
231.03	10.379
231.25	27.471
231.46	20.744
231.67	13.772
231.89	9.199
232.10	27.036
232.31	31.509
232.53	42.889
232.74	32.731
232.95	39.208
233.17	27.815
233.38	28.605
233.59	37.307
233.81	37.313
234.02	25.937
234.23	38.021
234.45	29.888
234.66	19.802
234.87	32.135
235.09	31.340
235.30	26.382
235.51	21.554
235.73	29.454
235.94	26.050
236.15	15.352
236.36	23.371
236.58	30.682
236.79	39.925
237.00	33.147
237.22	24.494
237.43	36.059
237.64	17.944
237.86	32.927
238.07	30.290
238.28	29.828
238.50	29.039
238.71	28.269
238.92	30.752
239.13	25.855
239.35	27.829
239.56	40.127
239.77	40.430
239.99	10.759
240.20	42.500
240.41	23.625
240.63	28.860
240.84	25.578
241.05	20.296
241.26	20.368
241.48	21.408
241.69	19.677
241.90	9.158
242.12	16.084
242.33	10.567
242.54	12.308
242.75	10.299
242.97	14.185
243.18	9.085
243.39	9.567
243.61	8.432
243.82	10.429
244.03	12.762
244.24	14.716
244.46	10.937
244.67	11.656
244.88	11.402
245.09	10.294
245.31	3.559
245.52	9.975
245.73	15.024
245.95	26.634
246.16	17.492
246.37	14.708
246.58	19.753
246.80	18.400
247.01	16.864
247.22	11.487
247.43	7.962
247.65	12.500
247.86	10.395
248.07	6.152
248.28	6.399
248.50	9.769
248.71	9.851
248.92	10.116
249.13	9.122
249.35	10.760
249.56	10.091
249.77	5.561
249.98	6.967
250.20	12.205
250.41	13.126
250.62	10.711
250.83	13.296
251.05	18.558
251.26	12.658
251.47	16.427
251.68	14.135
251.90	9.299
252.11	17.081
252.32	16.131
252.53	12.243
252.75	8.072
252.96	12.669
253.17	13.913
253.38	12.678
253.59	7.459
253.81	8.353
254.02	9.967
254.23	11.111
254.44	12.998
254.66	13.491
254.87	14.425
255.08	12.360
255.29	16.117
255.50	13.497
255.72	11.933
255.93	15.502
256.14	14.620
256.35	12.230
256.57	11.975
256.78	19.827
256.99	12.410
257.20	13.043
257.41	8.379
257.63	9.680
257.84	13.581
258.05	10.092
258.26	2.536
258.47	8.761
258.69	16.148
258.90	5.817
259.11	13.263
259.32	10.736
259.53	11.709
259.75	2.168
259.96	7.521
260.17	8.737
260.38	9.714
260.59	6.523
260.81	9.884
261.02	9.181
261.23	7.418
261.44	8.768
261.65	7.949
261.87	8.468
262.08	7.219
262.29	9.640
262.50	6.039
262.71	7.092
262.92	7.601
263.14	7.005
263.35	6.667
263.56	8.468
263.77	8.244
263.98	8.218
264.20	10.912
264.41	9.441
264.62	6.920
264.83	1.232
265.04	7.861
265.25	5.539
265.47	8.140
265.68	13.167
265.89	9.183
266.10	7.762
266.31	13.166
266.52	9.880
266.74	9.320
266.95	9.542
267.16	9.179
267.37	8.610
267.58	4.301
267.79	4.662
268.01	7.091
268.22	4.673
268.43	6.686
268.64	6.467
268.85	10.083
269.06	6.940
269.27	11.399
269.49	7.058
269.70	7.898
269.91	9.215
270.12	12.087
270.33	10.499
270.54	8.136
270.75	7.282
270.97	5.667
271.18	5.110
271.39	7.895
271.60	9.032
271.81	5.527
272.02	8.260
272.23	6.758
272.45	6.565
272.66	7.143
272.87	7.575
273.08	6.973
273.29	10.467
273.50	6.329
273.71	5.795
273.92	6.049
274.14	7.127
274.35	9.580
274.56	8.007
274.77	7.062
274.98	9.438
275.19	8.082
275.40	8.833
275.61	5.080
275.83	7.832
276.04	6.560
276.25	8.894
276.46	8.686
276.67	6.601
276.88	11.120
277.09	7.615
277.30	10.568
277.51	6.749
277.73	5.907
277.94	7.101
278.15	9.894
278.36	10.101
278.57	5.762
278.78	12.224
278.99	4.686
279.20	10.598
279.41	13.978
279.62	6.047
279.84	9.878
280.05	7.964
280.26	6.602
280.47	8.138
280.68	5.973
280.89	6.162
281.10	6.034
281.31	6.936
281.52	10.263
281.73	5.411
281.94	7.668
282.16	8.426
282.37	8.531
282.58	8.583
282.79	7.299
283.00	9.079
283.21	6.964
283.42	7.143
283.63	9.360
283.84	7.871
284.05	5.913
284.26	5.663
284.47	7.662
284.68	7.934
284.89	6.457
285.11	7.272
285.32	7.601
285.53	4.986
285.74	7.942
285.95	7.669
286.16	8.659
286.37	4.794
286.58	6.715
286.79	4.930
287.00	5.405
287.21	6.351
287.42	4.987
287.63	6.811
287.84	5.055
288.05	6.549
288.26	7.841
288.48	7.751
288.69	4.940
288.90	7.659
289.11	7.707
289.32	6.562
289.53	7.417
289.74	5.017
289.95	6.020
290.16	6.224
290.37	8.049
290.58	3.293
290.79	3.580
291.00	6.111
291.21	6.660
291.42	5.017
291.63	3.928
291.84	7.072
292.05	4.016
292.26	6.616
292.47	5.968
292.68	5.107
292.89	4.315
293.10	6.445
293.31	6.941
293.52	2.257
293.73	5.573
293.94	5.837
294.15	5.361
294.36	4.723
294.57	6.291
294.79	6.038
295.00	2.943
295.21	7.276
295.42	6.442
295.63	6.878
295.84	2.711
296.05	4.042
296.26	5.938
296.47	5.535
296.68	4.065
296.89	6.545
297.10	6.585
297.31	6.501
297.52	3.509
297.73	4.640
297.94	3.507
298.15	4.105
298.36	5.343
298.57	3.694
298.78	6.972
298.99	4.367
299.20	6.212
299.41	6.466
299.62	5.767
299.83	4.971
300.04	4.458
300.25	5.710
300.46	5.985
300.67	6.752
300.88	6.377
301.09	3.845
301.30	5.374
301.50	4.708
301.71	7.666
301.92	5.317
302.13	2.987
302.34	5.676
302.55	4.981
302.76	5.631
302.97	5.212
303.18	2.353
303.39	8.134
303.60	6.842
303.81	6.730
304.02	4.852
304.23	6.206
304.44	4.978
304.65	4.950
304.86	5.228
305.07	4.598
305.28	4.952
305.49	7.342
305.70	6.911
305.91	4.324
306.12	3.048
306.33	5.622
306.54	6.265
306.75	6.020
306.96	6.883
307.17	4.047
307.38	4.504
307.58	5.293
307.79	5.402
308.00	8.476
308.21	3.582
308.42	4.849
308.63	7.621
308.84	6.563
309.05	6.592
309.26	4.484
309.47	6.140
309.68	3.646
309.89	5.821
310.10	5.306
310.31	4.573
310.52	3.773
310.73	8.395
310.94	4.338
311.14	4.810
311.35	5.615
311.56	5.978
311.77	2.938
311.98	4.199
312.19	5.483
312.40	4.108
312.61	5.430
312.82	4.215
313.03	5.708
313.24	4.868
313.45	6.503
313.66	4.865
313.86	6.877
314.07	2.986
314.28	5.138
314.49	3.221
314.70	4.660
314.91	5.666
315.12	6.271
315.33	5.390
315.54	5.241
315.75	4.737
315.96	3.984
316.16	5.862
316.37	6.014
316.58	6.332
316.79	5.778
317.00	7.545
317.21	7.356
317.42	7.152
317.63	6.309
317.84	6.587
318.05	5.909
318.25	5.130
318.46	5.457
318.67	3.612
318.88	6.444
319.09	7.636
319.30	6.079
319.51	5.805
319.72	5.767
319.93	4.864
320.13	5.755
320.34	4.795
320.55	2.689
320.76	7.957
320.97	8.500
321.18	9.969
321.39	5.775
321.60	5.524
321.80	8.681
322.01	5.907
322.22	7.768
322.43	4.701
322.64	5.967
322.85	5.857
323.06	6.207
323.27	7.251
323.47	7.298
323.68	7.714
323.89	5.090
324.10	5.701
324.31	5.123
324.52	7.303
324.73	6.160
324.93	4.531
325.14	5.485
325.35	7.548
325.56	7.060
325.77	7.395
325.98	4.501
326.19	6.477
326.39	2.834
326.60	5.787
326.81	5.938
327.02	4.013
327.23	6.384
327.44	9.336
327.64	4.037
327.85	5.039
328.06	6.970
328.27	9.572
328.48	7.521
328.69	3.265
328.90	4.995
329.10	5.614
329.31	4.918
329.52	6.384
329.73	6.974
329.94	6.464
330.15	8.843
330.35	9.259
330.56	6.984
330.77	5.885
330.98	8.306
331.19	7.128
331.39	5.594
331.60	6.711
331.81	4.470
332.02	7.392
332.23	7.734
332.44	6.379
332.64	6.876
332.85	7.727
333.06	9.959
333.27	5.032
333.48	7.422
333.68	6.232
333.89	7.783
334.10	7.543
334.31	9.125
334.52	7.359
334.72	7.521
334.93	7.315
335.14	5.657
335.35	7.346
335.56	8.669
335.76	5.348
335.97	9.468
336.18	5.299
336.39	11.230
336.60	8.891
336.80	8.439
337.01	8.026
337.22	7.040
337.43	10.122
337.64	10.873
337.84	8.383
338.05	7.269
338.26	10.553
338.47	11.949
338.68	7.328
338.88	11.995
339.09	11.370
339.30	10.788
339.51	9.524
339.71	11.200
339.92	7.424
340.13	10.219
340.34	9.568
340.55	8.156
340.75	9.002
340.96	9.229
341.17	12.426
341.38	10.578
341.58	11.792
341.79	13.127
342.00	9.450
342.21	11.916
342.41	10.082
342.62	10.628
342.83	12.118
343.04	9.319
343.24	14.606
343.45	14.985
343.66	12.025
343.87	12.379
344.07	9.560
344.28	14.413
344.49	14.594
344.70	17.510
344.90	11.885
345.11	11.732
345.32	14.850
345.53	13.401
345.73	14.803
345.94	17.977
346.15	17.206
346.36	15.659
346.56	15.087
346.77	18.990
346.98	16.383
347.19	16.698
347.39	17.204
347.60	15.243
347.81	19.809
348.02	18.544
348.22	13.427
348.43	15.156
348.64	14.309
348.84	17.562
349.05	17.419
349.26	18.729
349.47	13.435
349.67	15.568
349.88	19.597
350.09	17.664
350.30	18.544
350.50	18.388
350.71	20.131
350.92	17.285
351.12	17.532
351.33	16.931
351.54	17.911
351.74	18.528
351.95	16.997
352.16	19.602
352.37	20.008
352.57	17.840
352.78	16.348
352.99	18.366
353.19	16.285
353.40	19.930
353.61	20.263
353.82	19.252
354.02	19.806
354.23	19.513
354.44	21.078
354.64	19.271
354.85	20.078
355.06	19.404
355.26	16.260
355.47	19.864
355.68	22.204
355.88	20.913
356.09	19.996
356.30	17.000
356.51	19.315
356.71	19.690
356.92	17.943
357.13	21.741
357.33	22.736
357.54	19.235
357.75	17.364
357.95	20.844
358.16	18.839
358.37	23.042
358.57	17.378
358.78	23.868
358.99	20.469
359.19	18.937
359.40	22.002
359.61	20.932
359.81	22.894
360.02	23.243
360.23	18.135
360.43	19.705
360.64	19.839
360.85	20.573
361.05	19.051
361.26	23.011
361.47	20.143
361.67	21.958
361.88	18.179
362.09	22.772
362.29	18.488
362.50	19.948
362.70	18.521
362.91	22.914
363.12	19.794
363.32	20.620
363.53	21.283
363.74	22.465
363.94	17.592
364.15	23.564
364.36	20.737
364.56	19.217
364.77	20.771
364.98	23.251
365.18	20.577
365.39	22.269
365.59	19.570
365.80	19.896
366.01	19.203
366.21	19.815
366.42	18.071
366.63	21.184
366.83	18.267
367.04	16.744
367.24	20.345
367.45	18.939
367.66	16.445
367.86	18.484
368.07	18.660
368.28	19.675
368.48	17.632
368.69	17.088
368.89	19.245
369.10	18.966
369.31	18.572
369.51	20.543
369.72	19.671
369.92	21.611
370.13	15.288
370.34	19.880
370.54	13.421
370.75	19.349
370.95	16.342
371.16	19.509
371.37	17.676
371.57	19.165
371.78	16.749
371.98	19.334
372.19	18.584
372.40	20.569
372.60	18.672
372.81	19.375
373.01	15.644
373.22	17.393
373.43	18.893
373.63	19.971
373.84	18.994
374.04	19.150
374.25	17.884
374.46	18.986
374.66	19.360
374.87	18.953
375.07	16.189
375.28	16.336
375.48	17.954
375.69	19.330
375.90	14.989
376.10	15.219
376.31	15.801
376.51	15.384
376.72	15.750
376.92	16.660
377.13	17.728
377.34	17.385
377.54	17.195
377.75	19.287
377.95	16.408
378.16	17.096
378.36	18.139
378.57	19.964
378.77	16.433
378.98	16.618
379.19	16.470
379.39	17.599
379.60	16.572
379.80	17.653
380.01	17.816
380.21	17.557
380.42	16.784
380.62	17.259
380.83	17.222
381.04	15.938
381.24	17.195
381.45	16.279
381.65	15.788
381.86	16.962
382.06	17.619
382.27	14.909
382.47	15.351
382.68	17.111
382.88	14.810
383.09	14.656
383.29	15.139
383.50	17.278
383.71	16.231
383.91	16.092
384.12	14.322
384.32	16.721
384.53	14.432
384.73	13.643
384.94	14.653
385.14	14.935
385.35	14.152
385.55	16.707
385.76	15.147
385.96	16.332
386.17	16.227
386.37	16.216
386.58	15.997
386.78	16.936
386.99	14.005
387.19	17.202
387.40	14.290
387.60	16.970
387.81	15.298
388.01	15.419
388.22	16.723
388.42	17.234
388.63	16.817
388.83	17.746
389.04	13.672
389.24	16.660
389.45	15.833
389.65	14.572
389.86	14.638
390.06	13.189
390.27	13.898
390.47	15.484
390.68	14.509
390.88	16.934
391.09	15.969
391.29	16.642
391.50	14.568
391.70	16.024
391.91	13.824
392.11	16.161
392.32	15.249
392.52	16.137
392.73	14.756
392.93	15.772
393.14	14.697
393.34	15.500
393.55	16.436
393.75	15.657
393.95	14.925
394.16	16.618
394.36	16.156
394.57	16.303
394.77	15.451
394.98	15.091
395.18	16.322
395.39	15.675
395.59	14.390
395.80	16.499
396.00	15.068
396.21	17.151
396.41	14.053
396.61	15.526
396.82	15.569
397.02	17.475
397.23	14.757
397.43	14.064
397.64	13.058
397.84	16.632
398.05	12.336
398.25	15.949
398.45	13.561
398.66	14.870
398.86	13.439
399.07	15.931
399.27	14.345
399.48	15.857
399.68	13.429
399.89	13.866
400.09	14.778
400.29	14.297
400.50	14.405
400.70	15.524
400.91	12.724
401.11	13.934
401.32	15.503
401.52	13.810
401.72	14.087
401.93	15.916
402.13	13.603
402.34	14.385
402.54	11.759
402.75	16.341
402.95	11.373
403.15	14.706
403.36	13.338
403.56	14.616
403.77	12.228
403.97	13.687
404.17	12.363
404.38	14.540
404.58	12.837
404.79	14.681
404.99	15.055
405.19	12.927
405.40	13.552
405.60	14.728
405.81	13.022
406.01	13.722
406.21	12.221
406.42	14.110
406.62	14.411
406.83	14.369
407.03	14.398
407.23	12.917
407.44	12.764
407.64	14.244
407.85	13.808
408.05	14.130
408.25	13.241
408.46	15.119
408.66	13.313
408.87	14.085
409.07	12.959
409.27	11.600
409.48	12.844
409.68	13.695
409.88	10.576
410.09	14.106
410.29	14.119
410.50	14.198
410.70	10.724
410.90	12.845
411.11	11.436
411.31	13.209
411.51	13.740
411.72	13.598
411.92	12.608
412.12	12.120
412.33	11.735
412.53	13.440
412.74	10.864
412.94	12.804
413.14	12.987
413.35	12.665
413.55	12.583
413.75	13.681
413.96	10.558
414.16	13.019
414.36	12.938
414.57	12.513
414.77	11.903
414.97	13.408
415.18	11.897
415.38	12.735
415.58	12.751
415.79	12.319
415.99	11.521
416.19	13.689
416.40	13.102
416.60	12.797
416.80	12.274
417.01	12.733
417.21	11.928
417.41	13.617
417.62	12.948
417.82	13.195
418.02	12.238
418.23	13.441
418.43	12.674
418.63	13.650
418.84	13.463
419.04	13.029
419.24	13.080
419.45	14.034
419.65	14.140
419.85	13.541
420.06	13.178
420.26	14.439
420.46	13.158
420.67	13.828
420.87	13.375
421.07	13.954
421.28	13.024
421.48	13.779
421.68	13.531
421.88	14.485
422.09	14.128
422.29	13.958
422.49	13.066
422.70	13.829
422.90	13.602
423.10	13.675
423.31	13.394
423.51	14.035
423.71	13.289
423.91	13.847
424.12	13.233
424.32	14.088
424.52	13.684
424.73	13.769
424.93	13.769
425.13	13.795
425.33	13.346
425.54	13.151
425.74	13.249
425.94	13.971
426.15	13.383
426.35	13.615
426.55	13.375
426.75	13.625
426.96	13.197
427.16	13.546
427.36	13.352
427.57	14.079
427.77	12.955
427.97	13.590
428.17	13.186
428.38	13.600
428.58	11.442
428.78	13.578
428.98	12.038
429.19	12.468
429.39	11.074
429.59	13.152
429.79	11.700
430.00	11.505
430.20	10.719
430.40	12.827
430.60	11.408
430.81	11.645
431.01	11.442
431.21	12.302
431.41	11.041
431.62	12.407
431.82	11.578
432.02	12.787
432.22	11.639
432.43	12.044
432.63	11.245
432.83	12.914
433.03	11.794
433.24	11.996
433.44	11.528
433.64	13.076
433.84	12.095
434.05	12.673
434.25	12.331
434.45	12.784
434.65	12.523
434.85	13.106
435.06	12.115
435.26	12.540
435.46	12.477
435.66	13.030
435.87	11.945
436.07	12.893
436.27	12.546
436.47	12.368
436.67	11.985
436.88	12.418
437.08	12.675
437.28	12.735
437.48	12.144
437.69	12.506
437.89	11.688
438.09	12.880
438.29	11.297
438.49	12.885
438.70	12.538
438.90	12.053
439.10	11.774
439.30	12.649
439.50	11.969
439.71	12.553
439.91	12.192
440.11	12.825
440.31	12.327
440.51	12.293
440.72	11.760
440.92	12.440
441.12	12.163
441.32	12.914
441.52	12.461
441.72	12.848
441.93	12.117
442.13	13.134
442.33	12.244
442.53	12.639
442.73	12.389
442.94	12.633
443.14	11.840
443.34	13.372
443.54	12.248
443.74	12.773
443.94	11.797
444.15	11.988
444.35	11.618
444.55	12.630
444.75	12.414
444.95	12.677
445.15	11.652
445.36	12.570
445.56	10.781
445.76	12.243
445.96	11.881
446.16	12.477
446.36	11.737
446.57	12.490
446.77	11.806
446.97	12.661
447.17	12.359
447.37	12.424
447.57	12.169
447.77	12.388
447.98	12.022
448.18	12.524
448.38	12.366
448.58	12.554
448.78	12.082
448.98	12.642
449.18	11.992
449.39	12.422
449.59	12.058
449.79	12.316
449.99	11.680
450.19	12.718
450.39	12.179
450.59	12.593
450.79	11.372
451.00	12.315
451.20	11.793
451.40	11.784
451.60	11.811
451.80	12.392
452.00	11.492
452.20	13.023
452.40	12.183
452.61	11.018
452.81	11.602
453.01	11.713
453.21	11.720
453.41	11.571
453.61	11.579
453.81	11.940
454.01	11.630
454.21	11.905
454.42	11.427
454.62	12.096
454.82	11.555
455.02	11.706
455.22	11.204
455.42	11.917
455.62	11.014
455.82	11.361
456.02	10.981
456.23	11.399
456.43	11.776
456.63	11.410
456.83	10.891
457.03	11.987
457.23	10.949
457.43	12.024
457.63	11.262
457.83	12.221
458.03	11.250
458.23	12.050
458.43	10.889
458.64	11.450
458.84	11.213
459.04	11.501
459.24	11.697
459.44	12.107
459.64	12.180
459.84	12.095
460.04	11.761
460.24	11.913
460.44	11.995
460.64	12.266
460.84	11.542
461.04	12.394
461.24	12.271
461.45	12.600
461.65	11.782
461.85	12.152
462.05	11.601
462.25	12.133
462.45	12.147
462.65	12.074
462.85	11.200
463.05	12.269
463.25	11.345
463.45	11.886
463.65	11.127
463.85	11.309
464.05	11.730
464.25	11.666
464.45	11.785
464.65	11.450
464.85	11.157
465.05	11.522
465.26	10.614
465.46	11.623
465.66	11.361
465.86	11.649
466.06	11.381
466.26	11.423
466.46	10.150
466.66	11.478
466.86	11.340
467.06	11.165
467.26	10.909
467.46	11.938
467.66	10.975
467.86	11.112
468.06	11.397
468.26	11.089
468.46	11.525
468.66	12.111
468.86	10.344
469.06	12.404
469.26	10.730
469.46	12.073
469.66	10.775
469.86	11.703
470.06	11.097
470.26	12.508
470.46	10.658
470.66	12.046
470.86	10.994
471.06	10.942
471.26	10.124
471.46	10.823
471.66	11.243
471.86	11.592
472.06	10.880
472.26	12.092
472.46	11.808
472.66	11.441
472.86	10.574
473.06	11.540
473.26	10.918
473.46	11.647
473.66	10.477
473.86	11.668
474.06	10.657
474.26	11.666
474.46	10.456
474.66	12.123
474.86	11.934
475.06	11.647
475.26	10.368
475.46	11.662
475.66	10.167
475.86	11.584
476.06	11.499
476.26	11.903
476.46	10.753
476.66	11.427
476.86	10.406
477.06	10.993
477.26	10.884
477.46	11.539
477.65	11.183
477.85	12.125
478.05	10.634
478.25	11.832
478.45	11.087
478.65	11.224
478.85	11.063
479.05	12.007
479.25	11.494
479.45	11.538
479.65	10.754
479.85	11.990
480.05	11.382
480.25	11.354
480.45	11.063
480.65	12.297
480.85	11.734
481.05	12.165
481.25	11.993
481.44	11.939
481.64	11.007
481.84	11.797
482.04	11.947
482.24	11.757
482.44	11.351
482.64	11.723
482.84	11.676
483.04	12.055
483.24	11.772
483.44	11.772
483.64	11.657
483.84	11.526
484.04	11.797
484.23	11.775
484.43	11.855
484.63	11.986
484.83	11.950
485.03	11.923
485.23	12.099
485.43	12.358
485.63	12.157
485.83	12.226
486.03	12.349
486.23	12.527
486.42	12.336
486.62	12.481
486.82	12.135
487.02	12.058
487.22	11.923
487.42	11.904
487.62	11.984
487.82	11.814
488.02	12.102
488.22	11.948
488.41	11.847
488.61	11.737
488.81	11.879
489.01	12.107
489.21	12.011
489.41	12.252
489.61	12.180
489.81	12.256
490.01	12.240
490.20	12.279
490.40	12.395
490.60	12.215
490.80	12.251
491.00	12.276
491.20	12.120
491.40	12.021
491.60	11.854
491.79	11.679
491.99	11.756
492.19	11.909
492.39	11.984
492.59	11.804
492.79	11.924
492.99	12.130
493.19	11.840
493.38	12.195
493.58	12.180
493.78	12.345
493.98	12.532
494.18	12.396
494.38	12.302
494.58	12.313
494.77	11.803
494.97	11.919
495.17	11.627
495.37	11.927
495.57	11.759
495.77	11.874
495.96	11.823
496.16	11.718
496.36	11.533
496.56	11.560
496.76	11.200
496.96	11.716
497.15	11.476
497.35	12.058
497.55	11.464
497.75	12.169
497.95	11.778
498.15	11.921
498.34	11.531
498.54	12.068
498.74	11.790
498.94	12.138
499.14	11.464
499.34	12.211
499.53	11.617
499.73	11.679
499.93	11.481
500.13	12.252
500.33	11.518
500.52	12.668
500.72	11.432
500.92	11.667
501.12	11.353
501.32	11.923
501.52	11.657
501.71	11.811
501.91	11.307
502.11	12.217
502.31	11.452
502.51	12.305
502.70	11.519
502.90	11.693
503.10	11.427
503.30	11.889
503.50	11.450
503.69	12.041
503.89	11.744
504.09	12.344
504.29	11.381
504.48	12.095
504.68	11.950
504.88	12.724
505.08	11.387
505.28	12.024
505.47	11.602
505.67	12.493
505.87	11.826
506.07	11.811
506.27	11.485
506.46	12.402
506.66	11.101
506.86	12.011
507.06	11.926
507.25	11.835
507.45	11.769
507.65	12.221
507.85	11.256
508.04	12.379
508.24	11.837
508.44	11.829
508.64	11.429
508.83	12.331
509.03	11.569
509.23	12.237
509.43	11.888
509.63	12.156
509.82	12.443
510.02	12.301
510.22	11.567
510.42	12.272
510.61	11.984
510.81	12.173
511.01	12.032
511.21	12.247
511.40	11.934
511.60	12.279
511.80	12.251
511.99	12.711
512.19	11.999
512.39	12.527
512.59	11.745
512.78	12.656
512.98	12.140
513.18	12.340
513.38	12.412
513.57	12.510
513.77	12.381
513.97	12.171
514.17	11.960
514.36	12.340
514.56	12.189
514.76	12.610
514.95	11.671
515.15	12.373
515.35	11.820
515.55	12.626
515.74	12.414
515.94	12.666
516.14	11.861
516.33	12.630
516.53	12.101
516.73	12.359
516.93	12.149
517.12	12.719
517.32	11.536
517.52	11.982
517.71	12.055
517.91	12.593
518.11	12.075
518.30	12.435
518.50	12.275
518.70	12.280
518.90	12.328
519.09	12.295
519.29	12.178
519.49	12.525
519.68	12.276
519.88	12.563
520.08	12.422
520.27	12.741
520.47	12.512
520.67	12.657
520.86	12.515
521.06	13.120
521.26	12.264
521.45	12.806
521.65	12.466
521.85	12.793
522.04	12.150
522.24	12.490
522.44	12.089
522.63	12.596
522.83	12.052
523.03	12.542
523.22	12.434
523.42	13.061
523.62	12.740
523.81	12.452
524.01	12.391
524.21	12.617
524.40	11.961
524.60	12.327
524.80	11.934
524.99	12.312
525.19	12.330
525.39	12.186
525.58	11.949
525.78	12.378
525.98	12.304
526.17	12.714
526.37	12.454
526.57	12.660
526.76	12.480
526.96	12.310
527.15	12.689
527.35	12.747
527.55	12.546
527.74	12.751
527.94	12.330
528.14	12.446
528.33	12.334
528.53	12.289
528.72	12.500
528.92	12.549
529.12	12.340
529.31	12.630
529.51	12.708
529.71	12.531
529.90	12.631
530.10	12.767
530.29	12.753
530.49	12.879
530.69	13.130
530.88	13.108
531.08	12.997
531.28	12.892
531.47	12.646
531.67	12.894
531.86	13.153
532.06	12.903
532.26	12.652
532.45	12.776
532.65	12.848
532.84	12.850
533.04	12.418
533.24	12.668
533.43	12.359
533.63	12.564
533.82	12.743
534.02	12.792
534.22	12.721
534.41	12.818
534.61	12.798
534.80	12.842
535.00	13.051
535.19	12.991
535.39	12.948
535.59	13.156
535.78	12.881
535.98	12.987
536.17	12.804
536.37	12.951
536.57	12.835
536.76	12.937
536.96	12.842
537.15	13.069
537.35	12.823
537.54	12.889
537.74	13.176
537.93	13.401
538.13	12.879
538.33	13.327
538.52	13.245
538.72	13.315
538.91	13.475
539.11	13.304
539.30	12.867
539.50	12.913
539.70	13.047
539.89	13.510
540.09	13.087
540.28	13.055
540.48	12.860
540.67	13.085
540.87	13.188
541.06	13.142
541.26	12.861
541.45	13.085
541.65	13.060
541.85	13.148
542.04	13.204
542.24	13.086
542.43	12.967
542.63	13.115
542.82	13.108
543.02	13.604
543.21	13.407
543.41	13.653
543.60	13.646
543.80	13.658
543.99	13.293
544.19	13.696
544.38	13.585
544.58	13.733
544.77	13.596
544.97	13.723
545.16	13.533
545.36	13.664
545.56	13.379
545.75	13.884
545.95	13.605
546.14	14.133
546.34	13.626
546.53	13.928
546.73	13.744
546.92	13.905
547.12	13.574
547.31	13.966
547.51	13.627
547.70	13.888
547.90	13.835
548.09	14.173
548.29	13.798
548.48	14.014
548.68	13.938
548.87	14.547
549.07	14.417
549.26	14.044
549.46	14.007
549.65	14.518
549.84	13.561
550.04	14.225
550.23	13.902
550.43	14.217
550.62	13.771
550.82	14.283
551.01	13.291
551.21	14.667
551.40	14.003
551.60	14.649
551.79	13.231
551.99	14.644
552.18	13.557
552.38	14.458
552.57	13.910
552.77	15.421
552.96	14.885
553.16	15.236
553.35	14.388
553.54	15.291
553.74	15.056
553.93	15.520
554.13	15.065
554.32	14.983
554.52	14.511
554.71	14.922
554.91	14.700
555.10	15.498
555.29	14.568
555.49	15.516
555.68	14.313
555.88	15.567
556.07	14.999
556.27	15.529
556.46	15.319
556.66	15.243
556.85	15.432
557.04	16.049
557.24	15.871
557.43	16.843
557.63	15.166
557.82	16.045
558.02	14.976
558.21	15.645
558.40	15.865
558.60	16.303
558.79	15.700
558.99	16.312
559.18	15.430
559.38	16.335
559.57	15.860
559.76	16.292
559.96	15.757
560.15	16.455
560.35	15.990
560.54	16.745
560.73	15.674
560.93	16.372
561.12	16.563
561.32	17.216
561.51	16.671
561.70	17.087
561.90	16.432
562.09	17.209
562.29	16.400
562.48	17.220
562.67	16.995
562.87	17.755
563.06	16.848
563.26	17.763
563.45	16.473
563.64	17.493
563.84	17.813
564.03	17.414
564.23	16.947
564.42	18.531
564.61	17.238
564.81	18.109
565.00	17.674
565.20	18.481
565.39	17.657
565.58	17.610
565.78	18.260
565.97	18.587
566.16	18.212
566.36	18.150
566.55	18.414
566.74	18.808
566.94	18.404
567.13	18.384
567.33	18.397
567.52	18.969
567.71	18.522
567.91	18.912
568.10	18.472
568.29	19.082
568.49	18.652
568.68	19.851
568.87	19.478
569.07	19.662
569.26	19.036
569.45	19.446
569.65	18.599
569.84	19.730
570.04	19.161
570.23	20.091
570.42	18.589
570.62	19.679
570.81	19.679
571.00	19.910
571.20	19.379
571.39	19.593
571.58	19.762
571.78	19.650
571.97	19.890
572.16	19.740
572.36	20.297
572.55	19.940
572.74	19.954
572.94	19.961
573.13	20.088
573.32	20.247
573.51	19.857
573.71	20.102
573.90	19.817
574.09	20.256
574.29	20.015
574.48	20.730
574.67	20.070
574.87	20.145
575.06	19.845
575.25	20.607
575.45	20.426
575.64	20.224
575.83	19.654
576.03	21.040
576.22	20.182
576.41	20.359
576.60	19.914
576.80	20.251
576.99	20.158
577.18	20.854
577.38	20.236
577.57	20.649
577.76	19.776
577.95	20.660
578.15	20.124
578.34	21.112
578.53	20.108
578.73	20.606
578.92	19.815
579.11	20.456
579.30	20.493
579.50	20.123
579.69	20.247
579.88	19.930
580.08	20.120
580.27	20.583
580.46	20.842
580.65	20.596
580.85	19.748
581.04	20.059
581.23	19.616
581.42	20.499
581.62	20.073
581.81	20.313
582.00	20.262
582.19	20.282
582.39	19.966
582.58	20.130
582.77	19.990
582.96	19.922
583.16	20.138
583.35	20.154
583.54	20.739
583.73	20.135
583.93	20.144
584.12	20.904
584.31	19.482
584.50	20.203
584.70	19.472
584.89	21.287
585.08	19.740
585.27	20.599
585.47	19.286
585.66	20.641
585.85	19.382
586.04	20.845
586.24	20.586
586.43	19.950
586.62	19.037
586.81	19.945
587.00	19.625
587.20	19.948
587.39	19.477
587.58	20.241
587.77	19.469
587.97	19.921
588.16	19.231
588.35	19.996
588.54	19.655
588.73	19.846
588.93	19.776
589.12	20.176
589.31	20.405
589.50	19.566
589.69	20.590
589.89	20.363
590.08	18.852
590.27	20.059
590.46	19.316
590.65	19.320
590.85	18.989
591.04	19.868
591.23	20.183
591.42	19.752
591.61	19.883
591.81	20.707
592.00	19.160
592.19	19.802
592.38	18.733
592.57	20.083
592.77	20.519
592.96	19.967
593.15	19.944
593.34	19.748
593.53	20.047
593.72	20.115
593.92	19.604
594.11	20.934
594.30	19.216
594.49	20.347
594.68	19.956
594.87	20.279
595.07	19.974
595.26	20.718
595.45	19.704
595.64	20.546
595.83	20.354
596.02	21.422
596.22	20.594
596.41	20.415
596.60	20.932
596.79	20.779
596.98	20.649
597.17	20.623
597.37	20.688
597.56	20.978
597.75	20.416
597.94	20.968
598.13	21.191
598.32	21.487
598.51	21.161
598.71	21.514
598.90	21.478
599.09	21.058
599.28	20.887
599.47	21.571
599.66	21.143
599.85	21.675
600.05	20.600
600.24	21.287
600.43	21.561
600.62	21.860
600.81	22.132
601.00	22.663
601.19	20.768
601.38	22.033
601.58	21.758
601.77	21.128
601.96	22.078
602.15	22.330
602.34	21.461
602.53	22.855
602.72	21.044
602.91	22.084
603.10	22.083
603.30	22.252
603.49	21.874
603.68	22.555
603.87	21.185
604.06	22.140
604.25	22.618
604.44	21.837
604.63	22.345
604.82	21.962
605.01	21.925
605.21	22.524
605.40	22.190
605.59	22.889
605.78	22.484
605.97	22.422
606.16	22.272
606.35	23.061
606.54	22.239
606.73	23.066
606.92	21.924
607.11	22.697
607.30	22.069
607.50	22.473
607.69	21.990
607.88	21.873
608.07	21.729
608.26	22.474
608.45	22.097
608.64	22.808
608.83	20.936
609.02	23.024
609.21	22.077
609.40	22.106
609.59	21.908
609.78	22.166
609.97	21.447
610.16	21.827
610.35	22.207
610.55	22.045
610.74	22.076
610.93	21.870
611.12	21.564
611.31	22.338
611.50	21.261
611.69	22.255
611.88	21.212
612.07	22.280
612.26	22.206
612.45	22.357
612.64	21.509
612.83	21.727
613.02	21.553
613.21	21.186
613.40	20.889
613.59	21.743
613.78	20.269
613.97	21.721
614.16	21.052
614.35	20.270
614.54	19.815
614.73	22.396
614.92	20.659
615.11	20.527
615.30	20.067
615.49	20.882
615.68	19.401
615.87	20.166
616.07	19.052
616.26	20.654
616.45	20.026
616.64	19.230
616.83	19.710
617.02	19.838
617.21	18.464
617.40	20.389
617.59	19.823
617.78	20.163
617.97	18.416
618.16	18.740
618.35	18.341
618.54	20.035
618.73	18.178
618.92	19.239
619.11	18.135
619.30	19.977
619.49	17.425
619.68	19.193
619.86	18.384
620.05	18.693
620.24	17.984
620.43	19.252
620.62	17.586
620.81	19.037
621.00	18.858
621.19	19.486
621.38	18.574
621.57	18.524
621.76	17.938
621.95	18.727
622.14	18.268
622.33	18.731
622.52	16.625
622.71	18.338
622.90	17.235
623.09	19.113
623.28	17.746
623.47	18.777
623.66	18.297
623.85	18.346
624.04	17.677
624.23	18.153
624.42	17.431
624.61	18.170
624.80	17.423
624.99	18.397
625.18	17.417
625.36	19.005
625.55	17.677
625.74	18.154
625.93	16.780
626.12	18.359
626.31	19.025
626.50	18.761
626.69	17.621
626.88	18.734
627.07	17.540
627.26	17.895
627.45	18.114
627.64	18.381
627.83	17.695
628.02	18.699
628.20	18.250
628.39	18.780
628.58	18.806
628.77	17.867
628.96	17.302
629.15	18.639
629.34	18.108
629.53	18.800
629.72	17.171
629.91	19.451
630.10	17.907
630.29	18.456
630.47	17.870
630.66	18.221
630.85	18.323
631.04	19.051
631.23	18.504
631.42	18.796
631.61	17.660
631.80	18.244
631.99	17.649
632.18	17.989
632.36	16.754
632.55	19.608
632.74	17.114
632.93	17.453
633.12	17.096
633.31	17.704
633.50	17.581
633.69	18.975
633.88	16.541
634.06	17.959
634.25	16.500
634.44	17.114
634.63	18.396
634.82	18.741
635.01	17.269
635.20	17.824
635.39	16.595
635.57	17.551
635.76	17.721
635.95	17.689
636.14	16.845
636.33	17.297
636.52	17.042
636.71	17.340
636.89	16.414
637.08	17.479
637.27	15.964
637.46	17.576
637.65	16.598
637.84	17.579
638.03	15.663
638.21	18.156
638.40	16.754
638.59	16.951
638.78	15.776
638.97	16.861
639.16	17.221
639.34	15.635
639.53	15.098
639.72	16.471
639.91	15.559
640.10	14.887
640.29	16.745
640.47	17.310
640.66	16.084
640.85	16.946
641.04	15.155
641.23	16.172
641.42	15.649
641.60	15.185
641.79	15.274
641.98	16.901
642.17	15.330
642.36	16.579
642.54	14.367
642.73	16.593
642.92	15.504
643.11	16.130
643.30	14.283
643.49	16.642
643.67	13.731
643.86	14.790
644.05	14.381
644.24	16.751
644.43	14.976
644.61	16.939
644.80	15.126
644.99	15.635
645.18	17.034
645.37	16.073
645.55	14.464
645.74	15.904
645.93	15.559
646.12	15.626
646.31	14.800
646.49	15.189
646.68	15.510
646.87	15.720
647.06	14.507
647.24	16.849
647.43	13.357
647.62	17.810
647.81	13.836
648.00	15.967
648.18	14.901
648.37	14.938
648.56	15.319
648.75	15.640
648.93	15.359
649.12	15.964
649.31	15.396
649.50	16.105
649.68	15.189
649.87	16.106
650.06	14.052
650.25	16.071
650.43	14.067
650.62	15.162
650.81	15.062
651.00	14.236
651.18	13.624
651.37	16.432
651.56	13.289
651.75	16.747
651.93	13.992
652.12	15.965
652.31	13.170
652.50	14.961
652.68	15.522
652.87	16.466
653.06	15.501
653.25	16.179
653.43	14.672
653.62	15.477
653.81	13.608
654.00	15.533
654.18	14.357
654.37	16.354
654.56	13.505
654.74	13.369
654.93	14.066
655.12	15.015
655.31	12.852
655.49	15.211
655.68	12.648
655.87	12.805
656.05	11.455
656.24	13.263
656.43	11.435
656.62	13.837
656.80	13.002
656.99	12.711
657.18	11.254
657.36	13.375
657.55	13.246
657.74	13.631
657.93	12.777
658.11	13.251
658.30	13.598
658.49	13.124
658.67	13.344
658.86	11.556
659.05	12.205
659.23	14.146
659.42	11.338
659.61	13.210
659.79	12.363
659.98	13.802
660.17	13.474
660.35	12.245
660.54	12.752
660.73	14.595
660.91	12.265
661.10	12.936
661.29	11.205
661.47	11.615
661.66	11.087
661.85	12.083
662.03	11.558
662.22	10.572
662.41	10.001
662.59	11.028
662.78	10.510
662.97	11.291
663.15	9.759
663.34	10.554
663.53	9.526
663.71	10.479
663.90	9.626
664.09	11.468
664.27	9.586
664.46	11.107
664.65	8.424
664.83	8.636
665.02	9.021
665.21	8.728
665.39	6.337
665.58	10.642
665.77	9.148
665.95	11.080
666.14	6.295
666.32	8.676
666.51	9.023
666.70	8.583
666.88	8.575
667.07	8.574
667.26	7.689
667.44	8.257
667.63	7.636
667.81	8.351
668.00	9.997
668.19	9.329
668.37	9.018
668.56	10.014
668.75	6.440
668.93	10.437
669.12	8.283
669.30	10.022
669.49	8.402
669.68	9.292
669.86	10.361
670.05	8.952
670.23	8.324
670.42	8.751
670.61	9.905
670.79	10.182
670.98	8.421
671.16	10.909
671.35	8.276
671.54	9.112
671.72	8.901
671.91	8.839
672.09	7.303
672.28	10.443
672.46	11.144
672.65	10.221
672.84	9.557
673.02	10.926
673.21	8.516
673.39	9.598
673.58	10.034
673.77	9.679
673.95	9.197
674.14	11.802
674.32	9.587
674.51	11.874
674.69	10.563
674.88	10.025
675.07	9.352
675.25	14.491
675.44	11.306
675.62	11.771
675.81	10.217
675.99	15.789
676.18	11.893
676.36	11.182
676.55	9.698
676.74	12.648
676.92	12.332
677.11	12.486
677.29	9.651
677.48	13.571
677.66	12.464
677.85	12.467
678.03	10.933
678.22	11.197
678.40	13.055
678.59	10.744
678.78	10.267
678.96	11.571
679.15	10.042
679.33	13.808
679.52	13.160
679.70	13.736
679.89	12.179
680.07	12.616
680.26	10.547
680.44	12.572
680.63	12.453
680.81	13.373
681.00	10.032
681.18	12.849
681.37	11.274
681.55	13.830
681.74	14.347
681.92	13.833
682.11	13.573
682.29	12.766
682.48	12.772
682.66	13.449
682.85	12.151
683.03	14.982
683.22	14.059
683.40	15.075
683.59	15.020
683.77	14.324
683.96	12.002
684.14	15.417
684.33	11.806
684.51	18.184
684.70	16.108
684.88	17.360
685.07	14.428
685.25	14.994
685.44	14.680
685.62	15.710
685.81	14.567
685.99	15.942
686.18	13.911
686.36	15.753
686.55	13.646
686.73	16.108
686.92	17.456
687.10	17.729
687.29	16.966
687.47	19.233
687.65	18.598
687.84	18.122
688.02	18.641
688.21	19.797
688.39	15.355
688.58	21.000
688.76	17.759
688.95	17.084
689.13	16.789
689.32	20.252
689.50	19.403
689.68	22.020
689.87	18.833
690.05	20.793
690.24	20.054
690.42	20.801
690.61	21.259
690.79	21.978
690.98	21.663
691.16	23.481
691.34	19.865
691.53	23.827
691.71	21.082
691.90	24.567
692.08	22.151
692.27	24.662
692.45	25.263
692.63	23.711
692.82	25.559
693.00	24.704
693.19	23.451
693.37	27.444
693.56	24.950
693.74	28.845
693.92	26.881
694.11	29.169
694.29	26.429
694.48	30.329
694.66	27.439
694.84	29.094
695.03	26.945
695.21	30.783
695.40	30.397
695.58	30.412
695.76	30.424
695.95	34.726
696.13	29.834
696.32	32.839
696.50	34.817
696.68	35.081
696.87	30.645
697.05	35.327
697.24	32.466
697.42	36.257
697.60	34.193
697.79	35.273
697.97	36.996
698.16	36.885
698.34	35.079
698.52	36.282
698.71	36.577
698.89	38.165
699.07	37.648
699.26	38.824
699.44	38.267
699.63	38.411
699.81	38.213
699.99	40.912
700.18	39.651
700.36	40.858
700.54	40.056
700.73	41.788
700.91	40.694
701.09	40.931
701.28	41.915
701.46	43.789
701.64	41.251
701.83	42.764
702.01	41.973
702.20	46.727
702.38	45.033
702.56	42.895
702.75	42.125
702.93	43.941
703.11	42.694
703.30	44.712
703.48	43.504
703.66	46.919
703.85	43.062
704.03	48.036
704.21	45.038
704.40	48.474
704.58	43.826
704.76	47.215
704.95	45.835
705.13	47.147
705.31	46.676
705.50	50.439
705.68	45.606
705.86	49.168
706.04	47.747
706.23	50.663
706.41	48.593
706.59	49.438
706.78	47.282
706.96	49.009
707.14	47.637
707.33	48.306
707.51	47.739
707.69	50.539
707.88	47.686
708.06	49.521
708.24	48.699
708.42	49.390
708.61	47.781
708.79	49.839
708.97	51.716
709.16	50.546
709.34	50.029
709.52	50.408
709.71	49.180
709.89	50.418
710.07	48.717
710.25	50.738
710.44	51.467
710.62	49.606
710.80	50.675
710.98	51.136
711.17	50.968
711.35	52.046
711.53	51.391
711.72	50.219
711.90	52.871
712.08	52.234
712.26	50.245
712.45	52.214
712.63	52.851
712.81	53.553
712.99	51.463
713.18	52.067
713.36	49.043
713.54	51.872
713.72	50.616
713.91	51.268
714.09	51.272
714.27	54.232
714.45	53.765
714.64	50.107
714.82	51.141
715.00	53.216
715.18	50.505
715.37	50.568
715.55	51.565
715.73	52.493
715.91	51.724
716.10	53.310
716.28	48.836
716.46	53.627
716.64	51.522
716.83	53.353
717.01	51.432
717.19	54.559
717.37	50.657
717.55	53.492
717.74	52.610
717.92	52.515
718.10	50.618
718.28	52.852
718.47	51.399
718.65	53.578
718.83	52.300
719.01	53.461
719.19	49.957
719.38	50.283
719.56	50.411
719.74	52.653
719.92	51.466
720.10	52.507
720.29	51.917
720.47	52.919
720.65	53.660
720.83	52.943
721.01	49.479
721.20	51.283
721.38	49.354
721.56	52.341
721.74	51.467
721.92	54.039
722.11	50.877
722.29	51.298
722.47	50.165
722.65	55.899
722.83	54.172
723.01	50.013
723.20	55.329
723.38	53.699
723.56	50.143
723.74	54.295
723.92	51.827
724.10	55.824
724.29	51.346
724.47	52.403
724.65	48.207
724.83	54.417
725.01	49.350
725.19	54.337
725.38	52.021
725.56	52.658
725.74	51.667
725.92	54.356
726.10	51.432
726.28	53.963
726.46	51.735
726.65	54.599
726.83	50.190
727.01	53.303
727.19	52.007
727.37	55.394
727.55	52.661
727.73	53.869
727.92	51.762
728.10	51.271
728.28	51.243
728.46	51.673
728.64	51.373
728.82	54.184
729.00	51.128
729.19	54.609
729.37	53.725
729.55	55.751
729.73	50.572
729.91	53.431
730.09	49.370
730.27	53.907
730.45	49.000
730.63	53.390
730.82	49.390
731.00	54.288
731.18	52.085
731.36	54.813
731.54	50.648
731.72	54.669
731.90	52.699
732.08	54.929
732.26	52.510
732.45	54.463
732.63	53.850
732.81	53.791
732.99	52.749
733.17	55.997
733.35	49.806
733.53	54.407
733.71	51.948
733.89	55.217
734.07	52.634
734.25	54.930
734.44	53.387
734.62	52.305
734.80	53.619
734.98	54.391
735.16	53.135
735.34	53.810
735.52	55.434
735.70	55.243
735.88	54.254
736.06	54.327
736.24	56.459
736.42	54.401
736.60	52.842
736.78	54.946
736.97	53.494
737.15	55.792
737.33	54.612
737.51	56.834
737.69	52.026
737.87	56.789
738.05	54.623
738.23	55.549
738.41	51.662
738.59	56.314
738.77	54.413
738.95	55.884
739.13	53.704
739.31	56.649
739.49	54.265
739.67	55.275
739.85	51.633
740.03	53.561
740.21	55.709
740.39	59.161
740.57	54.338
740.75	55.684
740.93	51.819
741.11	54.108
741.30	53.172
741.48	58.980
741.66	57.164
741.84	55.583
742.02	50.544
742.20	55.923
742.38	50.940
742.56	59.006
742.74	49.284
742.92	52.658
743.10	51.289
743.28	56.937
743.46	55.011
743.64	53.712
743.82	50.128
744.00	53.456
744.18	54.312
744.36	52.787
744.54	50.522
744.72	54.816
744.90	50.893
745.08	55.544
745.26	48.941
745.44	56.426
745.62	51.112
745.80	49.947
745.98	49.011
746.16	53.288
746.34	49.025
746.52	53.636
746.70	50.179
746.87	53.289
747.05	53.993
747.23	51.468
747.41	50.549
747.59	53.489
747.77	47.057
747.95	51.553
748.13	53.031
748.31	56.665
748.49	48.711
748.67	53.038
748.85	48.128
749.03	54.654
749.21	47.301
749.39	55.128
749.57	48.146
749.75	51.329
749.93	50.688
750.11	51.230
750.29	51.936
750.47	52.279
750.65	52.844
750.83	52.137
751.01	50.069
751.18	54.360
751.36	47.841
751.54	54.089
751.72	52.448
751.90	53.063
752.08	46.516
752.26	52.498
752.44	49.478
752.62	53.462
752.80	49.601
752.98	52.353
753.16	50.627
753.34	52.913
753.52	49.432
753.69	52.556
753.87	50.997
754.05	50.533
754.23	48.627
754.41	54.407
754.59	49.243
754.77	52.786
754.95	50.690
755.13	52.795
755.31	50.251
755.49	50.164
755.66	45.955
755.84	51.654
756.02	47.048
756.20	53.999
756.38	48.392
756.56	50.875
756.74	48.935
756.92	50.806
757.10	48.437
757.28	50.497
757.45	55.120
757.63	53.457
757.81	46.843
757.99	55.448
758.17	46.726
758.35	54.898
758.53	54.722
758.71	49.966
758.88	48.366
759.06	56.053
759.24	47.894
759.42	53.255
759.60	45.483
759.78	51.233
759.96	41.879
760.13	50.721
760.31	41.952
760.49	47.737
760.67	43.824
760.85	47.788
761.03	43.475
761.21	43.639
761.38	40.554
761.56	49.703
761.74	40.982
761.92	47.857
762.10	38.400
762.28	48.222
762.46	38.135
762.63	44.280
762.81	45.648
762.99	45.549
763.17	44.583
763.35	45.946
763.53	43.656
763.70	47.220
763.88	45.125
764.06	48.931
764.24	46.659
764.42	51.605
764.60	49.477
764.77	49.224
764.95	46.957
765.13	51.650
765.31	48.003
765.49	50.166
765.66	49.039
765.84	50.471
766.02	47.545
766.20	49.650
766.38	48.228
766.56	49.742
766.73	47.787
766.91	51.172
767.09	46.286
767.27	50.197
767.45	48.612
767.62	46.708
767.80	45.622
767.98	48.091
768.16	42.801
768.33	49.909
768.51	45.732
768.69	49.740
768.87	47.356
769.05	48.186
769.22	45.043
769.40	49.047
769.58	45.715
769.76	48.763
769.94	43.473
770.11	49.751
770.29	51.397
770.47	47.061
770.65	43.723
770.82	51.558
771.00	44.233
771.18	49.168
771.36	42.722
771.53	49.733
771.71	41.774
771.89	51.245
772.07	44.593
772.25	47.810
772.42	42.044
772.60	43.750
772.78	41.885
772.96	44.530
773.13	45.209
773.31	49.385
773.49	40.384
773.67	43.511
773.84	43.289
774.02	46.014
774.20	38.421
774.37	46.490
774.55	43.709
774.73	45.214
774.91	38.601
775.08	45.154
775.26	44.235
775.44	47.115
775.62	42.623
775.79	44.881
775.97	41.545
776.15	41.879
776.32	38.144
776.50	47.133
776.68	42.709
776.86	48.187
777.03	39.650
777.21	41.987
777.39	39.232
777.56	45.143
777.74	37.796
777.92	45.160
778.10	38.080
778.27	48.563
778.45	38.955
778.63	41.784
778.80	43.029
778.98	47.303
779.16	44.733
779.34	43.111
779.51	41.935
779.69	39.825
779.87	36.709
780.04	45.560
780.22	41.141
780.40	43.635
780.57	42.025
780.75	38.497
780.93	45.470
781.10	45.787
781.28	50.447
781.46	44.645
781.63	45.664
781.81	47.679
781.99	41.862
782.16	40.736
782.34	38.620
782.52	42.499
782.69	44.245
782.87	42.283
783.05	40.163
783.22	45.813
783.40	39.210
783.58	43.562
783.75	37.805
783.93	47.763
784.11	35.868
784.28	47.622
784.46	38.130
784.64	43.546
784.81	38.739
784.99	50.845
785.17	38.342
785.34	41.245
785.52	36.729
785.69	42.911
785.87	32.136
786.05	45.526
786.22	40.184
786.40	49.833
786.58	41.533
786.75	51.430
786.93	41.774
787.11	41.754
787.28	37.117
787.46	46.468
787.63	39.558
787.81	42.049
787.99	36.973
788.16	39.585
788.34	40.433
788.51	42.497
788.69	38.344
788.87	41.057
789.04	35.407
789.22	48.995
789.39	41.712
789.57	40.232
789.75	36.383
789.92	45.029
790.10	35.028
790.27	42.051
790.45	34.940
790.63	44.357
790.80	36.749
790.98	40.429
791.15	41.284
791.33	38.184
791.51	37.699
791.68	39.462
791.86	35.365
792.03	42.884
792.21	26.299
792.39	44.727
792.56	42.693
792.74	40.790
792.91	44.674
793.09	34.942
793.26	29.749
793.44	45.676
793.62	31.745
793.79	38.867
793.97	39.767
794.14	40.889
794.32	32.319
794.49	41.336
794.67	32.594
794.84	34.641
795.02	30.414
795.20	38.881
795.37	33.805
795.55	39.272
795.72	40.353
795.90	41.064
796.07	37.785
796.25	39.078
796.42	36.958
796.60	32.874
796.77	33.333
796.95	41.166
797.13	34.512
797.30	43.671
797.48	38.184
797.65	38.335
797.83	34.491
798.00	37.857
798.18	32.737
798.35	40.786
798.53	38.083
798.70	42.267
798.88	37.546
799.05	37.525
799.23	33.906
799.40	39.400
799.58	31.398
799.75	34.261
799.93	39.603
800.10	43.832
800.28	35.320
800.45	37.910
800.63	38.142
800.80	42.275
800.98	37.737
801.15	37.449
801.33	39.450
801.50	38.041
801.68	38.921
801.85	33.611
802.03	35.899
802.20	37.878
802.38	33.655
802.55	35.618
802.73	36.274
802.90	37.812
803.08	26.275
803.25	38.216
803.43	38.841
803.60	33.650
803.78	35.590
803.95	35.642
804.13	33.752
804.30	29.200
804.48	32.937
804.65	36.576
804.83	33.490
805.00	35.868
805.17	39.870
805.35	36.635
805.52	32.132
805.70	39.176
805.87	35.285
806.05	37.218
806.22	37.554
806.40	28.185
806.57	30.541
806.75	41.564
806.92	40.693
807.09	35.866
807.27	30.397
807.44	41.655
807.62	33.285
807.79	40.548
807.97	29.840
808.14	42.359
808.31	30.279
808.49	42.357
808.66	29.390
808.84	34.457
809.01	34.279
809.19	38.233
809.36	40.048
809.53	30.792
809.71	31.873
809.88	37.385
810.06	42.164
810.23	36.299
810.41	42.254
810.58	38.567
810.75	26.448
810.93	32.681
811.10	39.004
811.28	31.826
811.45	25.536
811.62	35.050
811.80	35.221
811.97	33.449
812.15	44.426
812.32	33.466
812.49	28.935
812.67	34.048
812.84	33.182
813.02	42.201
813.19	30.303
813.36	37.551
813.54	26.518
813.71	37.691
813.89	34.422
814.06	36.838
814.23	35.842
814.41	37.326
814.58	33.943
814.75	33.422
814.93	32.523
815.10	29.202
815.28	22.320
815.45	22.767
815.62	31.178
815.80	27.613
815.97	21.820
816.14	36.245
816.32	29.826
816.49	31.083
816.66	29.740
816.84	32.567
817.01	33.113
817.18	30.114
817.36	34.126
817.53	36.994
817.71	21.934
817.88	35.865
818.05	36.696
818.23	29.379
818.40	23.548
818.57	30.762
818.75	30.763
818.92	30.455
819.09	31.214
819.27	32.716
819.44	34.992
819.61	29.302
819.79	32.400
819.96	36.304
820.13	30.676
820.31	30.389
820.48	36.011
820.65	33.376
820.82	30.370
821.00	36.453
821.17	26.212
821.34	35.236
821.52	34.706
821.69	37.490
821.86	37.990
822.04	38.200
822.21	44.968
822.38	48.161
822.56	46.859
822.73	50.883
822.90	47.242
823.07	50.227
823.25	51.215
823.42	49.228
823.59	49.279
823.77	51.151
823.94	49.941
824.11	51.996
824.29	49.906
824.46	51.603
824.63	52.340
824.80	51.447
824.98	50.581
825.15	49.449
825.32	49.198
825.49	51.094
825.67	46.109
825.84	51.355
826.01	40.966
826.19	48.688
826.36	42.848
826.53	48.292
826.70	43.893
826.88	44.864
827.05	41.377
827.22	43.807
827.39	40.395
827.57	43.004
827.74	40.256
827.91	47.451
828.08	40.492
828.26	45.819
828.43	40.540
828.60	48.340
828.77	42.809
828.95	46.871
829.12	38.443
829.29	39.034
829.46	39.618
829.64	40.918
829.81	35.069
829.98	43.664
830.15	37.681
830.32	41.110
830.50	37.179
830.67	39.534
830.84	28.826
831.01	24.233
831.19	31.392
831.36	32.734
831.53	23.424
831.70	34.631
831.87	32.467
832.05	38.583
832.22	37.680
832.39	31.018
832.56	27.185
832.74	24.227
832.91	27.288
833.08	40.313
833.25	25.548
833.42	27.646
833.60	24.940
833.77	25.098
833.94	30.951
834.11	34.816
834.28	30.977
834.45	38.886
834.63	35.234
834.80	38.796
834.97	35.496
835.14	33.678
835.31	36.318
835.49	36.202
835.66	34.425
835.83	35.063
836.00	35.545
836.17	35.197
836.34	30.961
836.52	33.638
836.69	35.333
836.86	31.930
837.03	34.375
837.20	31.250
837.37	32.609
837.55	24.824
837.72	31.636
837.89	38.230
838.06	37.346
838.23	34.787
838.40	33.333
838.58	22.936
838.75	28.141
838.92	27.232
839.09	45.138
839.26	29.861
839.43	36.698
839.60	37.023
839.78	39.318
839.95	25.948
840.12	29.785
840.29	43.750
840.46	38.208
840.63	31.896
840.80	28.723
840.98	39.460
841.15	34.063
841.32	31.021
841.49	27.043
841.66	31.488
841.83	28.785
842.00	34.109
842.17	39.474
842.34	33.262
842.52	33.750
842.69	33.727
842.86	34.492
843.03	44.219
843.20	28.997
843.37	23.937
843.54	36.957
843.71	37.246
843.88	25.202
844.06	50.312
844.23	43.571
844.40	35.321
844.57	39.167
844.74	28.229
844.91	32.203
845.08	36.861
845.25	37.549
845.42	37.285
845.59	23.125
845.76	31.141
845.94	40.338
846.11	44.894
846.28	41.304
846.45	35.815
846.62	35.940
846.79	28.261
846.96	23.077
847.13	33.716
847.30	33.974
847.47	45.946
847.64	36.920
847.81	45.752
847.98	55.781
848.15	50.131
848.32	38.902
848.50	25.000
848.67	24.729
848.84	36.983
849.01	55.206
849.18	45.455
849.35	42.857
849.52	37.678
849.69	54.321
849.86	62.712
850.03	44.536
850.20	60.352
850.37	26.207
850.54	48.537
850.71	28.814
850.88	23.009
851.05	42.105
851.22	55.941
851.39	44.492
851.56	37.376
851.73	45.170
851.90	18.152
852.07	47.668
852.24	37.671
852.41	36.111
852.58	51.309
852.75	41.913
852.92	37.469
853.09	55.145
853.26	37.619
853.43	61.071
853.60	55.233
853.77	44.226
853.94	47.826
854.11	42.975
854.28	47.059
854.45	37.124
854.62	55.645
854.79	44.751
854.96	26.728
855.13	58.753
855.30	36.986
855.47	45.122
855.64	33.645
855.81	35.920
855.98	30.278
856.15	48.438
856.32	51.852
856.49	45.128
856.66	20.833
856.83	48.175
857.00	27.869
857.17	67.742
857.34	34.043
857.51	48.656
857.68	34.985
857.85	43.840
858.02	50.000
858.19	46.474
858.36	48.736
858.53	33.234
858.70	26.943
858.87	57.099
859.04	33.056
859.21	63.112
859.38	46.523
859.55	49.485
859.72	54.696
859.89	41.620
860.05	50.860
860.22	23.397
860.39	37.805
860.56	39.210
860.73	47.529
860.90	47.649
861.07	46.479
861.24	49.403
861.41	40.751
861.58	38.480
861.75	34.277
861.92	63.285
862.09	65.026
862.26	56.459
862.43	48.618
862.59	60.215
862.76	27.329
862.93	58.108
863.10	44.348
863.27	29.831
863.44	54.265
863.61	50.307
863.78	63.063
863.95	32.461
864.12	46.207
864.29	41.873
864.45	35.312
864.62	41.379
864.79	44.987
864.96	46.247
865.13	39.011
865.30	56.790
865.47	54.506
865.64	49.474
865.81	33.780
865.97	49.842
866.14	37.368
866.31	37.240
866.48	47.654
866.65	29.134
866.82	47.307
866.99	43.582
867.16	37.396
867.33	54.859
867.49	51.837
867.66	49.091
867.83	27.763
868.00	41.481
868.17	41.414
868.34	40.293
868.51	48.827
868.67	36.657
868.84	52.381
869.01	43.871
869.18	32.890
869.35	33.065
869.52	33.426
869.69	42.407
869.85	31.865
870.02	39.597
870.19	38.019
870.36	41.846
870.53	41.549
870.70	48.760
870.86	43.030
871.03	53.804
871.20	40.437
871.37	46.835
871.54	51.149
871.71	28.747
871.87	39.295
872.04	49.728
872.21	34.483
872.38	55.357
872.55	64.225
872.72	34.060
872.88	41.191
873.05	47.598
873.22	26.809
873.39	43.583
873.56	45.507
873.72	33.770
873.89	18.506
874.06	55.718
874.23	33.270
874.40	50.613
874.56	52.096
874.73	42.821
874.90	32.225
875.07	34.007
875.24	52.405
875.40	28.539
875.57	47.753
875.74	36.620
875.91	44.039
876.08	44.478
876.24	43.089
876.41	35.977
876.58	50.000
876.75	66.479
876.92	28.758
877.08	51.128
877.25	35.025
877.42	51.003
877.59	28.487
877.75	67.630
877.92	44.681
878.09	31.854
878.26	48.564
878.42	46.471
878.59	56.764
878.76	37.905
878.93	36.320
879.09	38.182
879.26	43.750
879.43	46.171
879.60	35.949
879.76	24.851
879.93	38.577
880.10	25.407
880.27	26.769
880.43	37.520
880.60	40.922
880.77	29.326
880.94	28.280
881.10	20.075
881.27	28.599
881.44	17.336
881.61	31.587
881.77	37.467
881.94	32.101
882.11	22.854
882.28	26.428
882.44	26.136
882.61	33.065
882.78	34.533
882.94	42.095
883.11	37.401
883.28	37.604
883.45	39.346
883.61	35.217
883.78	36.218
883.95	35.504
884.11	39.480
884.28	32.682
>>>>>End Processed Spectral Data<<<<<
