SpectraSuite Data File
++++++++++++++++++++++++++++++++++++
Date: Thu Sep 19 03:56:35 EST 2019
User: sgrac
Dark Spectrum Present: Yes
Reference Spectrum Present: Yes
Number of Sampled Component Spectra: 1
Spectrometers: USB4E01596
Integration Time (usec): 100000 (USB4E01596)
Spectra Averaged: 1 (USB4E01596)
Boxcar Smoothing: 0 (USB4E01596)
Correct for Electrical Dark: No (USB4E01596)
Strobe/Lamp Enabled: Yes (USB4E01596)
Correct for Detector Non-linearity: No (USB4E01596)
Correct for Stray Light: No (USB4E01596)
Number of Pixels in Processed Spectrum: 3648
>>>>>Begin Processed Spectral Data<<<<<
178.44	850.000
178.66	850.000
178.87	850.000
179.09	-827.273
179.30	210.714
179.52	1942.857
179.74	-788.889
179.95	771.429
180.17	1609.091
180.38	340.299
180.60	0.000
180.82	774.194
181.03	372.222
181.25	3350.000
181.46	1284.615
181.68	-311.628
181.89	1535.714
182.11	733.333
182.33	748.148
182.54	1558.333
182.76	800.000
182.97	-750.000
183.19	414.286
183.40	343.636
183.62	666.667
183.84	1912.500
184.05	1220.000
184.27	-7900.000
184.48	253.968
184.70	6950.000
184.91	830.769
185.13	287.324
185.34	-251.923
185.56	670.370
185.78	565.385
185.99	-4475.000
186.21	-1372.727
186.42	-307.500
186.64	920.000
186.85	-8800.000
187.07	709.091
187.28	1107.143
187.50	745.455
187.72	436.111
187.93	1050.000
188.15	1047.368
188.36	1152.941
188.58	484.615
188.79	2266.667
189.01	950.000
189.22	4020.000
189.44	715.000
189.65	-7966.667
189.87	3950.000
190.09	976.471
190.30	2614.286
190.52	1533.333
190.73	-600.000
190.95	293.182
191.16	537.500
191.38	411.111
191.59	-1472.727
191.81	881.818
192.02	993.333
192.24	742.308
192.45	2275.000
192.67	2483.333
192.88	-507.407
193.10	-20900.000
193.31	548.571
193.53	-852.381
193.74	-3200.000
193.96	2411.111
194.18	1131.250
194.39	404.878
194.61	1152.632
194.82	1581.818
195.04	700.000
195.25	5066.667
195.47	431.579
195.68	923.529
195.90	381.395
196.11	776.923
196.33	-2000.000
196.54	-915.789
196.76	645.455
196.97	1933.333
197.19	-17100.000
197.40	1700.000
197.62	2850.000
197.83	1253.846
198.05	660.714
198.26	455.000
198.48	397.059
198.69	-1744.444
198.91	883.333
199.12	611.429
199.34	-2414.286
199.55	249.123
199.77	467.391
199.98	-1772.727
200.20	925.000
200.41	8500.000
200.63	603.571
200.84	833.333
201.06	-1553.846
201.27	-2640.000
201.49	1791.667
201.70	893.750
201.91	-11750.000
202.13	931.579
202.34	441.304
202.56	8650.000
202.77	1081.250
202.99	406.000
203.20	533.333
203.42	-2400.000
203.63	2550.000
203.85	513.889
204.06	573.913
204.28	2012.500
204.49	-1770.000
204.71	441.463
204.92	448.889
205.14	404.444
205.35	272.857
205.56	3033.333
205.78	863.636
205.99	-1480.000
206.21	813.043
206.42	344.068
206.64	-3566.667
206.85	619.048
207.07	710.526
207.28	-3000.000
207.50	329.630
207.71	1200.000
207.93	441.667
208.14	655.556
208.35	764.706
208.57	-564.000
208.78	-470.732
209.00	341.860
209.21	561.905
209.43	660.000
209.64	16000.000
209.86	585.714
210.07	672.414
210.28	-1176.923
210.50	1158.824
210.71	695.000
210.93	543.750
211.14	275.714
211.36	458.696
211.57	810.000
211.78	517.949
212.00	953.333
212.21	1241.176
212.43	1146.667
212.64	663.333
212.86	251.282
213.07	634.483
213.29	516.667
213.50	612.903
213.71	576.667
213.93	3228.571
214.14	1000.000
214.36	2237.500
214.57	290.141
214.78	1173.333
215.00	910.526
215.21	950.000
215.43	245.570
215.64	588.889
215.86	1146.667
216.07	836.842
216.28	431.111
216.50	6500.000
216.71	-14500.000
216.93	777.778
217.14	295.455
217.35	480.000
217.57	3750.000
217.78	445.714
218.00	4333.333
218.21	620.833
218.42	335.937
218.64	-9050.000
218.85	492.157
219.07	2071.429
219.28	272.131
219.49	-1183.333
219.71	2050.000
219.92	259.459
220.14	2075.000
220.35	418.182
220.56	1553.846
220.78	289.474
220.99	600.000
221.21	161.856
221.42	765.217
221.63	10600.000
221.85	733.333
222.06	625.000
222.28	262.667
222.49	-1588.889
222.70	381.481
222.92	-8700.000
223.13	505.263
223.34	254.348
223.56	1658.333
223.77	261.765
223.99	448.889
224.20	305.000
224.41	244.000
224.63	7850.000
224.84	6800.000
225.05	1253.846
225.27	453.846
225.48	371.667
225.69	183.529
225.91	301.563
226.12	336.232
226.34	668.750
226.55	225.000
226.76	388.235
226.98	195.455
227.19	193.590
227.40	292.000
227.62	232.877
227.83	193.750
228.04	197.403
228.26	155.357
228.47	148.333
228.69	111.765
228.90	92.857
229.11	82.969
229.33	100.000
229.54	68.880
229.75	59.717
229.97	61.280
230.18	71.096
230.39	53.283
230.61	63.823
230.82	73.090
231.03	54.140
231.25	73.154
231.46	59.226
231.67	80.000
231.89	81.746
232.10	81.132
232.31	100.446
232.53	83.028
232.74	73.853
232.95	110.784
233.17	69.744
233.38	80.526
233.59	96.067
233.81	120.370
234.02	98.857
234.23	93.299
234.45	99.091
234.66	81.609
234.87	92.442
235.09	107.979
235.30	94.660
235.51	79.821
235.73	73.232
235.94	77.232
236.15	77.985
236.36	101.778
236.58	74.641
236.79	91.379
237.00	61.847
237.22	90.476
237.43	80.934
237.64	88.199
237.86	76.415
238.07	108.824
238.28	88.976
238.50	89.952
238.71	94.819
238.92	87.264
239.13	91.935
239.35	104.979
239.56	76.667
239.77	109.290
239.99	68.952
240.20	89.883
240.41	82.283
240.63	48.060
240.84	71.239
241.05	71.622
241.26	55.462
241.48	63.303
241.69	36.856
241.90	41.379
242.12	37.014
242.33	44.318
242.54	36.807
242.75	32.660
242.97	40.510
243.18	23.572
243.39	25.979
243.61	32.720
243.82	39.807
244.03	30.328
244.24	28.571
244.46	36.376
244.67	41.004
244.88	37.991
245.09	33.168
245.31	43.934
245.52	30.944
245.73	40.728
245.95	60.119
246.16	43.036
246.37	37.879
246.58	33.692
246.80	33.691
247.01	35.496
247.22	26.559
247.43	28.368
247.65	30.776
247.86	28.715
248.07	16.404
248.28	25.674
248.50	26.995
248.71	22.367
248.92	26.329
249.13	22.914
249.35	27.331
249.56	24.300
249.77	26.579
249.98	23.748
250.20	30.865
250.41	39.579
250.62	36.549
250.83	32.634
251.05	34.538
251.26	37.108
251.47	34.729
251.68	36.986
251.90	35.961
252.11	35.940
252.32	26.298
252.53	36.217
252.75	28.737
252.96	40.110
253.17	24.342
253.38	34.470
253.59	29.012
253.81	30.809
254.02	22.305
254.23	28.610
254.44	28.000
254.66	31.536
254.87	36.949
255.08	34.813
255.29	45.229
255.50	38.697
255.72	34.118
255.93	46.188
256.14	58.405
256.35	40.835
256.57	38.084
256.78	32.456
256.99	36.754
257.20	39.875
257.41	46.186
257.63	39.286
257.84	35.294
258.05	32.375
258.26	34.727
258.47	33.169
258.69	29.715
258.90	22.142
259.11	27.649
259.32	27.877
259.53	26.332
259.75	20.170
259.96	22.428
260.17	20.796
260.38	19.385
260.59	21.468
260.81	19.481
261.02	21.577
261.23	22.662
261.44	22.684
261.65	24.328
261.87	22.854
262.08	25.377
262.29	28.148
262.50	19.520
262.71	19.253
262.92	29.344
263.14	24.821
263.35	20.597
263.56	21.895
263.77	28.419
263.98	23.867
264.20	32.180
264.41	22.040
264.62	29.068
264.83	21.260
265.04	37.401
265.25	29.086
265.47	30.686
265.68	33.612
265.89	28.859
266.10	22.602
266.31	34.669
266.52	26.722
266.74	22.585
266.95	23.253
267.16	24.665
267.37	27.065
267.58	24.721
267.79	26.188
268.01	29.362
268.22	21.627
268.43	23.840
268.64	25.549
268.85	18.156
269.06	23.673
269.27	28.440
269.49	22.460
269.70	24.175
269.91	21.091
270.12	22.396
270.33	28.543
270.54	22.868
270.75	18.927
270.97	22.107
271.18	21.662
271.39	20.530
271.60	24.231
271.81	17.547
272.02	18.450
272.23	23.678
272.45	16.917
272.66	18.982
272.87	19.587
273.08	19.401
273.29	20.541
273.50	19.542
273.71	18.632
273.92	17.004
274.14	16.027
274.35	19.948
274.56	25.000
274.77	23.538
274.98	23.358
275.19	20.714
275.40	17.127
275.61	20.631
275.83	24.306
276.04	23.720
276.25	29.122
276.46	25.405
276.67	26.730
276.88	27.065
277.09	25.322
277.30	27.688
277.51	25.087
277.73	23.747
277.94	19.875
278.15	24.042
278.36	27.542
278.57	22.420
278.78	21.910
278.99	25.682
279.20	21.062
279.41	23.219
279.62	24.465
279.84	20.305
280.05	24.767
280.26	16.728
280.47	25.629
280.68	23.327
280.89	19.363
281.10	25.830
281.31	22.457
281.52	25.916
281.73	16.472
281.94	14.973
282.16	20.701
282.37	21.461
282.58	19.928
282.79	24.753
283.00	23.116
283.21	19.310
283.42	17.709
283.63	20.321
283.84	16.277
284.05	21.341
284.26	20.013
284.47	21.811
284.68	21.172
284.89	18.080
285.11	19.669
285.32	15.309
285.53	20.178
285.74	26.090
285.95	21.378
286.16	19.408
286.37	16.930
286.58	18.826
286.79	16.974
287.00	19.980
287.21	17.415
287.42	19.720
287.63	17.795
287.84	20.123
288.05	21.926
288.26	18.118
288.48	20.735
288.69	16.767
288.90	19.963
289.11	22.281
289.32	20.348
289.53	19.310
289.74	14.846
289.95	16.729
290.16	19.082
290.37	17.446
290.58	16.191
290.79	14.038
291.00	18.689
291.21	15.484
291.42	15.670
291.63	16.199
291.84	19.360
292.05	15.292
292.26	16.238
292.47	16.400
292.68	16.503
292.89	18.698
293.10	19.961
293.31	18.521
293.52	16.030
293.73	15.059
293.94	17.611
294.15	15.316
294.36	15.195
294.57	22.266
294.79	17.443
295.00	14.662
295.21	15.968
295.42	18.758
295.63	18.410
295.84	15.740
296.05	16.148
296.26	17.253
296.47	16.447
296.68	16.780
296.89	19.892
297.10	18.835
297.31	18.482
297.52	15.502
297.73	17.102
297.94	15.605
298.15	15.088
298.36	17.417
298.57	15.756
298.78	18.312
298.99	13.136
299.20	18.265
299.41	18.086
299.62	17.757
299.83	16.385
300.04	17.489
300.25	22.382
300.46	21.617
300.67	19.675
300.88	21.342
301.09	13.613
301.30	20.111
301.50	18.249
301.71	20.918
301.92	18.673
302.13	15.316
302.34	16.607
302.55	16.007
302.76	14.919
302.97	16.951
303.18	16.777
303.39	16.028
303.60	14.596
303.81	18.032
304.02	16.272
304.23	16.783
304.44	16.921
304.65	16.062
304.86	17.711
305.07	15.238
305.28	15.174
305.49	19.429
305.70	20.036
305.91	14.643
306.12	15.625
306.33	17.636
306.54	17.450
306.75	18.568
306.96	24.596
307.17	14.337
307.38	16.235
307.58	16.247
307.79	17.239
308.00	17.890
308.21	17.585
308.42	19.910
308.63	18.650
308.84	16.476
309.05	15.748
309.26	15.051
309.47	20.728
309.68	12.864
309.89	15.255
310.10	15.233
310.31	13.587
310.52	15.152
310.73	20.091
310.94	13.179
311.14	15.188
311.35	16.084
311.56	13.690
311.77	16.383
311.98	15.000
312.19	14.190
312.40	12.726
312.61	16.382
312.82	15.831
313.03	15.649
313.24	15.680
313.45	18.444
313.66	16.375
313.86	19.667
314.07	16.735
314.28	22.306
314.49	14.016
314.70	19.884
314.91	21.701
315.12	15.810
315.33	16.065
315.54	13.217
315.75	13.846
315.96	15.735
316.16	12.924
316.37	14.527
316.58	16.229
316.79	15.593
317.00	18.593
317.21	16.005
317.42	19.220
317.63	17.855
317.84	15.582
318.05	14.371
318.25	16.559
318.46	16.265
318.67	13.138
318.88	15.666
319.09	16.534
319.30	15.126
319.51	17.988
319.72	16.422
319.93	14.425
320.13	16.667
320.34	15.639
320.55	15.235
320.76	17.046
320.97	15.254
321.18	18.544
321.39	16.572
321.60	14.485
321.80	20.929
322.01	15.466
322.22	16.635
322.43	14.615
322.64	11.252
322.85	14.884
323.06	18.982
323.27	16.526
323.47	19.128
323.68	15.796
323.89	14.004
324.10	17.379
324.31	13.474
324.52	12.900
324.73	16.011
324.93	14.796
325.14	16.385
325.35	13.977
325.56	15.680
325.77	18.728
325.98	15.126
326.19	16.957
326.39	9.854
326.60	14.713
326.81	18.271
327.02	12.898
327.23	13.570
327.44	19.036
327.64	13.305
327.85	12.808
328.06	18.150
328.27	22.918
328.48	19.989
328.69	14.301
328.90	15.546
329.10	14.301
329.31	17.458
329.52	15.531
329.73	17.574
329.94	14.649
330.15	17.087
330.35	16.466
330.56	16.335
330.77	13.684
330.98	14.813
331.19	16.558
331.39	17.073
331.60	14.363
331.81	12.300
332.02	18.284
332.23	16.102
332.44	13.029
332.64	15.882
332.85	14.294
333.06	17.230
333.27	11.989
333.48	18.099
333.68	13.742
333.89	13.605
334.10	14.876
334.31	16.614
334.52	14.347
334.72	14.177
334.93	15.510
335.14	15.294
335.35	11.696
335.56	17.582
335.76	10.709
335.97	17.922
336.18	12.385
336.39	21.893
336.60	15.664
336.80	14.576
337.01	13.244
337.22	12.897
337.43	15.199
337.64	16.789
337.84	17.150
338.05	17.928
338.26	19.339
338.47	16.717
338.68	12.035
338.88	15.093
339.09	14.454
339.30	14.545
339.51	15.078
339.71	17.878
339.92	11.926
340.13	15.569
340.34	15.365
340.55	13.201
340.75	17.570
340.96	11.946
341.17	15.702
341.38	13.150
341.58	13.813
341.79	16.714
342.00	12.824
342.21	15.784
342.41	10.941
342.62	15.984
342.83	13.959
343.04	12.466
343.24	15.043
343.45	17.393
343.66	13.747
343.87	14.531
344.07	13.466
344.28	15.357
344.49	13.903
344.70	16.136
344.90	15.200
345.11	10.990
345.32	14.330
345.53	13.680
345.73	15.025
345.94	16.922
346.15	16.483
346.36	11.844
346.56	16.183
346.77	18.519
346.98	15.946
347.19	15.935
347.39	13.088
347.60	14.718
347.81	15.538
348.02	17.277
348.22	12.573
348.43	15.409
348.64	13.610
348.84	12.163
349.05	14.885
349.26	17.548
349.47	13.803
349.67	13.896
349.88	14.472
350.09	12.634
350.30	18.613
350.50	15.411
350.71	15.460
350.92	15.491
351.12	14.338
351.33	16.106
351.54	14.781
351.74	14.102
351.95	15.989
352.16	14.100
352.37	17.991
352.57	14.991
352.78	14.812
352.99	17.102
353.19	15.045
353.40	16.443
353.61	17.715
353.82	16.229
354.02	17.122
354.23	15.170
354.44	18.275
354.64	13.271
354.85	17.075
355.06	15.216
355.26	11.821
355.47	16.289
355.68	17.631
355.88	16.952
356.09	16.693
356.30	13.886
356.51	17.092
356.71	15.435
356.92	12.759
357.13	15.701
357.33	20.211
357.54	18.127
357.75	12.329
357.95	17.356
358.16	12.542
358.37	20.028
358.57	15.074
358.78	18.674
358.99	16.457
359.19	17.260
359.40	18.395
359.61	17.199
359.81	20.247
360.02	20.974
360.23	16.018
360.43	15.328
360.64	15.763
360.85	15.902
361.05	13.290
361.26	21.330
361.47	17.292
361.67	19.147
361.88	12.536
362.09	17.489
362.29	14.605
362.50	16.888
362.70	14.442
362.91	19.320
363.12	16.333
363.32	17.570
363.53	17.637
363.74	18.837
363.94	13.680
364.15	18.268
364.36	18.172
364.56	17.753
364.77	17.121
364.98	20.897
365.18	16.163
365.39	19.334
365.59	16.193
365.80	16.591
366.01	19.503
366.21	14.580
366.42	15.063
366.63	19.027
366.83	15.406
367.04	12.531
367.24	19.192
367.45	14.869
367.66	13.840
367.86	16.362
368.07	16.767
368.28	16.215
368.48	15.368
368.69	12.728
368.89	14.929
369.10	17.568
369.31	14.864
369.51	16.456
369.72	16.934
369.92	20.178
370.13	11.226
370.34	17.408
370.54	10.576
370.75	16.572
370.95	12.721
371.16	16.170
371.37	13.882
371.57	14.469
371.78	14.450
371.98	17.384
372.19	17.443
372.40	17.814
372.60	15.396
372.81	15.698
373.01	13.567
373.22	14.647
373.43	17.296
373.63	16.548
373.84	15.925
374.04	15.523
374.25	15.749
374.46	17.348
374.66	15.274
374.87	17.668
375.07	11.731
375.28	14.068
375.48	15.780
375.69	16.841
375.90	11.534
376.10	13.221
376.31	14.138
376.51	13.979
376.72	12.590
376.92	12.622
377.13	15.995
377.34	17.037
377.54	13.835
377.75	16.574
377.95	14.121
378.16	17.427
378.36	15.357
378.57	17.241
378.77	15.083
378.98	16.273
379.19	13.957
379.39	15.734
379.60	16.449
379.80	15.451
380.01	17.367
380.21	14.320
380.42	16.126
380.62	15.483
380.83	14.751
381.04	14.590
381.24	18.098
381.45	16.010
381.65	12.949
381.86	15.664
382.06	16.519
382.27	12.927
382.47	12.235
382.68	16.631
382.88	12.725
383.09	13.676
383.29	13.059
383.50	16.627
383.71	14.596
383.91	13.055
384.12	12.182
384.32	17.466
384.53	12.700
384.73	11.521
384.94	12.397
385.14	13.896
385.35	11.195
385.55	15.098
385.76	12.295
385.96	14.312
386.17	15.656
386.37	16.639
386.58	12.915
386.78	17.352
386.99	12.600
387.19	16.986
387.40	12.965
387.60	17.006
387.81	12.973
388.01	14.502
388.22	14.965
388.42	15.621
388.63	14.831
388.83	17.824
389.04	13.574
389.24	14.328
389.45	14.656
389.65	13.431
389.86	13.777
390.06	12.729
390.27	11.857
390.47	14.357
390.68	12.435
390.88	16.989
391.09	14.655
391.29	13.446
391.50	14.527
391.70	13.405
391.91	12.690
392.11	14.445
392.32	14.519
392.52	16.176
392.73	14.317
392.93	15.325
393.14	14.254
393.34	14.274
393.55	14.836
393.75	14.743
393.95	13.441
394.16	15.960
394.36	15.035
394.57	15.591
394.77	14.762
394.98	14.681
395.18	14.569
395.39	15.399
395.59	15.141
395.80	13.818
396.00	13.559
396.21	17.132
396.41	13.276
396.61	16.103
396.82	14.405
397.02	17.132
397.23	14.656
397.43	13.921
397.64	12.567
397.84	16.618
398.05	11.796
398.25	15.804
398.45	12.729
398.66	14.849
398.86	12.234
399.07	16.703
399.27	13.979
399.48	15.454
399.68	12.979
399.89	13.757
400.09	13.674
400.29	13.043
400.50	14.012
400.70	15.463
400.91	12.968
401.11	14.127
401.32	14.396
401.52	11.761
401.72	13.105
401.93	15.308
402.13	14.986
402.34	14.046
402.54	11.775
402.75	17.235
402.95	11.342
403.15	16.989
403.36	13.276
403.56	14.953
403.77	13.008
403.97	13.621
404.17	12.285
404.38	13.903
404.58	12.687
404.79	14.523
404.99	13.080
405.19	13.831
405.40	14.352
405.60	15.183
405.81	14.013
406.01	14.214
406.21	13.719
406.42	15.479
406.62	14.314
406.83	15.215
407.03	15.814
407.23	12.460
407.44	12.558
407.64	15.460
407.85	14.435
408.05	14.893
408.25	13.111
408.46	16.000
408.66	14.093
408.87	14.028
409.07	14.966
409.27	11.972
409.48	13.065
409.68	14.934
409.88	11.408
410.09	13.481
410.29	13.397
410.50	15.382
410.70	11.746
410.90	15.295
411.11	12.083
411.31	14.470
411.51	13.637
411.72	15.073
411.92	13.747
412.12	13.375
412.33	12.181
412.53	13.808
412.74	11.385
412.94	14.802
413.14	12.801
413.35	13.747
413.55	13.606
413.75	13.871
413.96	9.998
414.16	14.343
414.36	13.682
414.57	14.056
414.77	12.135
414.97	14.711
415.18	11.035
415.38	14.004
415.58	13.017
415.79	14.026
415.99	13.001
416.19	13.709
416.40	12.913
416.60	13.648
416.80	12.878
417.01	14.169
417.21	12.037
417.41	16.186
417.62	13.784
417.82	15.047
418.02	12.053
418.23	14.439
418.43	14.093
418.63	15.040
418.84	15.148
419.04	14.099
419.24	15.541
419.45	15.289
419.65	15.391
419.85	14.859
420.06	14.819
420.26	14.761
420.46	14.842
420.67	15.796
420.87	15.130
421.07	15.268
421.28	14.648
421.48	14.901
421.68	15.359
421.88	15.579
422.09	15.126
422.29	15.333
422.49	15.052
422.70	15.553
422.90	15.361
423.10	16.510
423.31	15.611
423.51	16.183
423.71	15.129
423.91	15.859
424.12	15.819
424.32	15.227
424.52	15.225
424.73	14.810
424.93	14.893
425.13	14.802
425.33	14.852
425.54	15.218
425.74	14.834
425.94	15.174
426.15	15.523
426.35	15.551
426.55	16.041
426.75	15.755
426.96	15.319
427.16	15.707
427.36	16.512
427.57	15.767
427.77	14.940
427.97	15.227
428.17	15.577
428.38	16.002
428.58	13.827
428.78	15.832
428.98	13.303
429.19	14.685
429.39	12.665
429.59	15.733
429.79	12.212
430.00	14.294
430.20	13.679
430.40	14.274
430.60	13.507
430.81	15.207
431.01	13.764
431.21	14.607
431.41	12.876
431.62	14.775
431.82	13.844
432.02	16.183
432.22	12.774
432.43	13.314
432.63	12.346
432.83	15.229
433.03	13.521
433.24	13.972
433.44	13.133
433.64	14.741
433.84	13.853
434.05	14.656
434.25	13.976
434.45	14.840
434.65	15.719
434.85	15.464
435.06	14.722
435.26	15.312
435.46	14.914
435.66	15.788
435.87	14.483
436.07	15.637
436.27	14.723
436.47	15.020
436.67	13.865
436.88	15.176
437.08	15.002
437.28	14.874
437.48	14.472
437.69	15.065
437.89	14.321
438.09	15.980
438.29	14.162
438.49	15.685
438.70	14.454
438.90	13.753
439.10	13.976
439.30	14.712
439.50	13.760
439.71	14.610
439.91	15.449
440.11	15.157
440.31	15.120
440.51	14.376
440.72	14.946
440.92	14.443
441.12	14.690
441.32	15.570
441.52	14.789
441.72	14.869
441.93	14.578
442.13	15.227
442.33	15.013
442.53	15.182
442.73	14.473
442.94	14.912
443.14	14.960
443.34	16.045
443.54	15.738
443.74	15.603
443.94	14.890
444.15	14.575
444.35	14.446
444.55	15.414
444.75	14.931
444.95	14.501
445.15	14.626
445.36	14.502
445.56	14.040
445.76	14.744
445.96	13.995
446.16	14.515
446.36	14.736
446.57	14.610
446.77	13.874
446.97	14.469
447.17	14.293
447.37	14.197
447.57	14.667
447.77	14.725
447.98	14.790
448.18	15.052
448.38	15.002
448.58	15.071
448.78	15.963
448.98	15.456
449.18	14.950
449.39	15.223
449.59	14.787
449.79	15.097
449.99	14.546
450.19	15.491
450.39	15.159
450.59	15.317
450.79	14.749
451.00	15.341
451.20	16.051
451.40	14.785
451.60	14.121
451.80	15.598
452.00	13.870
452.20	14.029
452.40	14.264
452.61	15.447
452.81	13.916
453.01	15.007
453.21	14.441
453.41	14.719
453.61	13.971
453.81	14.970
454.01	14.121
454.21	14.483
454.42	15.174
454.62	15.446
454.82	13.866
455.02	14.195
455.22	13.586
455.42	14.842
455.62	13.117
455.82	13.952
456.02	13.890
456.23	15.406
456.43	14.531
456.63	13.706
456.83	12.005
457.03	15.171
457.23	14.331
457.43	14.981
457.63	13.604
457.83	14.321
458.03	13.586
458.23	14.625
458.43	13.182
458.64	14.679
458.84	13.876
459.04	15.129
459.24	14.234
459.44	14.311
459.64	13.378
459.84	14.145
460.04	14.327
460.24	14.301
460.44	14.108
460.64	14.227
460.84	14.222
461.04	14.396
461.24	14.641
461.45	14.449
461.65	14.812
461.85	15.601
462.05	14.957
462.25	15.463
462.45	15.060
462.65	15.353
462.85	14.418
463.05	15.536
463.25	13.354
463.45	14.420
463.65	14.817
463.85	15.215
464.05	15.152
464.25	14.056
464.45	14.134
464.65	14.276
464.85	13.215
465.05	14.161
465.26	13.634
465.46	15.165
465.66	14.287
465.86	14.717
466.06	14.267
466.26	14.556
466.46	12.932
466.66	14.299
466.86	14.079
467.06	14.236
467.26	14.822
467.46	15.222
467.66	14.715
467.86	14.248
468.06	13.633
468.26	14.096
468.46	13.923
468.66	14.124
468.86	13.797
469.06	14.086
469.26	13.378
469.46	14.747
469.66	13.578
469.86	14.838
470.06	13.727
470.26	14.972
470.46	14.002
470.66	14.616
470.86	13.308
471.06	14.195
471.26	13.006
471.46	13.710
471.66	13.748
471.86	14.107
472.06	13.675
472.26	15.201
472.46	15.000
472.66	14.556
472.86	13.488
473.06	14.377
473.26	13.863
473.46	14.198
473.66	13.602
473.86	14.335
474.06	12.647
474.26	14.580
474.46	13.486
474.66	14.417
474.86	13.965
475.06	14.683
475.26	11.985
475.46	15.104
475.66	12.801
475.86	14.827
476.06	13.856
476.26	14.000
476.46	13.594
476.66	14.620
476.86	13.110
477.06	13.864
477.26	13.626
477.46	14.588
477.65	13.751
477.85	14.281
478.05	13.242
478.25	14.963
478.45	13.829
478.65	14.399
478.85	13.441
479.05	14.953
479.25	14.638
479.45	14.871
479.65	13.896
479.85	14.383
480.05	13.974
480.25	15.118
480.45	14.566
480.65	14.513
480.85	14.735
481.05	14.436
481.25	14.894
481.44	14.915
481.64	13.873
481.84	14.320
482.04	14.434
482.24	14.366
482.44	14.082
482.64	14.281
482.84	13.843
483.04	14.163
483.24	13.357
483.44	13.164
483.64	12.960
483.84	13.238
484.04	13.743
484.23	13.619
484.43	14.239
484.63	15.180
484.83	15.733
485.03	16.497
485.23	16.721
485.43	16.180
485.63	16.510
485.83	15.761
486.03	15.100
486.23	15.797
486.42	15.214
486.62	15.273
486.82	14.769
487.02	14.687
487.22	13.985
487.42	14.201
487.62	14.822
487.82	13.730
488.02	13.957
488.22	14.188
488.41	14.114
488.61	14.452
488.81	14.787
489.01	14.857
489.21	15.139
489.41	14.991
489.61	14.891
489.81	15.001
490.01	15.417
490.20	14.933
490.40	15.338
490.60	15.598
490.80	15.041
491.00	14.899
491.20	14.339
491.40	13.714
491.60	13.667
491.79	14.042
491.99	14.402
492.19	14.251
492.39	14.506
492.59	14.301
492.79	14.511
492.99	14.521
493.19	14.982
493.38	15.159
493.58	15.381
493.78	15.615
493.98	15.754
494.18	15.928
494.38	15.162
494.58	15.143
494.77	15.532
494.97	15.129
495.17	14.623
495.37	14.926
495.57	15.014
495.77	15.477
495.96	14.519
496.16	15.154
496.36	14.275
496.56	14.673
496.76	14.663
496.96	14.764
497.15	14.264
497.35	14.191
497.55	14.773
497.75	14.756
497.95	14.430
498.15	14.468
498.34	14.416
498.54	14.852
498.74	15.855
498.94	15.469
499.14	14.610
499.34	15.630
499.53	15.246
499.73	15.024
499.93	14.947
500.13	15.832
500.33	14.903
500.52	15.266
500.72	15.056
500.92	15.666
501.12	14.650
501.32	15.196
501.52	14.745
501.71	15.080
501.91	15.067
502.11	15.586
502.31	14.556
502.51	15.334
502.70	14.626
502.90	15.436
503.10	14.537
503.30	15.222
503.50	15.058
503.69	15.064
503.89	15.113
504.09	14.983
504.29	15.383
504.48	15.388
504.68	15.161
504.88	15.539
505.08	14.888
505.28	15.755
505.47	15.206
505.67	15.757
505.87	15.204
506.07	15.302
506.27	15.323
506.46	15.391
506.66	15.418
506.86	15.141
507.06	14.953
507.25	15.656
507.45	14.820
507.65	15.146
507.85	15.180
508.04	15.855
508.24	15.264
508.44	15.600
508.64	15.274
508.83	15.325
509.03	15.240
509.23	15.342
509.43	14.763
509.63	14.993
509.82	15.381
510.02	15.378
510.22	15.714
510.42	15.371
510.61	15.926
510.81	15.256
511.01	15.586
511.21	16.134
511.40	15.394
511.60	16.238
511.80	15.843
511.99	16.210
512.19	16.108
512.39	16.209
512.59	15.721
512.78	15.323
512.98	15.222
513.18	15.801
513.38	16.636
513.57	15.565
513.77	15.851
513.97	15.672
514.17	15.632
514.36	16.725
514.56	15.719
514.76	15.736
514.95	15.098
515.15	16.018
515.35	15.727
515.55	15.722
515.74	15.821
515.94	16.036
516.14	16.039
516.33	16.337
516.53	16.040
516.73	16.099
516.93	16.574
517.12	15.657
517.32	15.183
517.52	15.859
517.71	15.583
517.91	15.709
518.11	15.893
518.30	15.362
518.50	14.872
518.70	15.762
518.90	15.365
519.09	15.242
519.29	15.852
519.49	15.676
519.68	15.425
519.88	15.751
520.08	16.430
520.27	16.320
520.47	15.948
520.67	16.817
520.86	16.467
521.06	16.783
521.26	16.091
521.45	16.649
521.65	16.705
521.85	16.171
522.04	16.035
522.24	16.596
522.44	16.682
522.63	15.975
522.83	16.004
523.03	16.516
523.22	16.070
523.42	15.930
523.62	15.913
523.81	16.504
524.01	15.795
524.21	16.632
524.40	15.647
524.60	15.851
524.80	15.924
524.99	15.978
525.19	16.214
525.39	15.570
525.58	15.319
525.78	15.506
525.98	15.464
526.17	15.708
526.37	15.743
526.57	15.704
526.76	16.011
526.96	15.480
527.15	16.582
527.35	16.140
527.55	15.620
527.74	16.320
527.94	16.186
528.14	15.290
528.33	15.340
528.53	14.943
528.72	15.709
528.92	15.540
529.12	16.091
529.31	15.725
529.51	16.250
529.71	16.330
529.90	16.556
530.10	16.585
530.29	16.669
530.49	17.107
530.69	17.679
530.88	17.102
531.08	17.574
531.28	16.828
531.47	17.009
531.67	16.577
531.86	17.082
532.06	16.321
532.26	16.434
532.45	16.103
532.65	16.107
532.84	15.468
533.04	15.756
533.24	15.678
533.43	16.169
533.63	16.177
533.82	16.372
534.02	16.344
534.22	16.741
534.41	16.680
534.61	16.676
534.80	17.091
535.00	16.954
535.19	16.913
535.39	17.229
535.59	17.062
535.78	17.544
535.98	16.802
536.17	17.254
536.37	16.064
536.57	16.715
536.76	16.869
536.96	16.178
537.15	16.627
537.35	17.104
537.54	16.581
537.74	17.129
537.93	17.110
538.13	16.994
538.33	16.618
538.52	17.367
538.72	17.751
538.91	18.185
539.11	17.373
539.30	17.473
539.50	17.085
539.70	17.090
539.89	17.106
540.09	17.270
540.28	17.515
540.48	16.949
540.67	16.685
540.87	16.630
541.06	16.585
541.26	16.709
541.45	16.744
541.65	16.577
541.85	16.672
542.04	17.167
542.24	17.317
542.43	17.488
542.63	17.366
542.82	17.488
543.02	17.853
543.21	18.065
543.41	18.467
543.60	18.133
543.80	18.171
543.99	18.209
544.19	17.901
544.38	18.109
544.58	18.559
544.77	18.214
544.97	18.431
545.16	18.257
545.36	18.139
545.56	18.431
545.75	18.058
545.95	18.168
546.14	18.006
546.34	17.870
546.53	18.568
546.73	18.666
546.92	18.276
547.12	17.912
547.31	18.416
547.51	18.666
547.70	18.072
547.90	18.528
548.09	18.445
548.29	18.121
548.48	18.936
548.68	19.003
548.87	19.474
549.07	18.646
549.26	20.024
549.46	19.090
549.65	19.153
549.84	19.242
550.04	18.594
550.23	18.934
550.43	18.826
550.62	19.482
550.82	18.219
551.01	18.506
551.21	19.182
551.40	19.242
551.60	19.670
551.79	18.708
551.99	19.646
552.18	19.085
552.38	20.180
552.57	19.219
552.77	18.862
552.96	19.821
553.16	19.921
553.35	19.587
553.54	19.669
553.74	19.600
553.93	20.098
554.13	19.585
554.32	20.152
554.52	20.897
554.71	20.828
554.91	20.254
555.10	20.661
555.29	20.371
555.49	20.833
555.68	20.588
555.88	20.688
556.07	19.368
556.27	20.485
556.46	20.208
556.66	21.691
556.85	21.254
557.04	21.767
557.24	20.557
557.43	21.848
557.63	21.270
557.82	20.884
558.02	19.913
558.21	21.886
558.40	20.750
558.60	21.664
558.79	21.922
558.99	21.748
559.18	21.501
559.38	21.603
559.57	20.763
559.76	21.588
559.96	22.500
560.15	22.582
560.35	21.684
560.54	22.087
560.73	20.775
560.93	22.509
561.12	21.685
561.32	22.332
561.51	22.977
561.70	22.392
561.90	21.608
562.09	22.267
562.29	22.715
562.48	23.066
562.67	22.841
562.87	22.900
563.06	23.744
563.26	22.858
563.45	22.757
563.64	24.710
563.84	23.270
564.03	22.912
564.23	23.582
564.42	23.859
564.61	23.681
564.81	23.499
565.00	23.387
565.20	24.008
565.39	24.155
565.58	23.376
565.78	23.197
565.97	23.079
566.16	23.765
566.36	23.957
566.55	23.335
566.74	24.019
566.94	24.343
567.13	23.623
567.33	23.927
567.52	24.817
567.71	24.657
567.91	25.069
568.10	25.000
568.29	25.202
568.49	25.020
568.68	25.414
568.87	25.485
569.07	24.191
569.26	25.306
569.45	25.302
569.65	24.770
569.84	25.405
570.04	24.904
570.23	24.145
570.42	25.092
570.62	24.925
570.81	25.269
571.00	24.420
571.20	24.128
571.39	23.825
571.58	24.963
571.78	24.772
571.97	24.849
572.16	24.426
572.36	24.429
572.55	25.241
572.74	24.995
572.94	24.318
573.13	25.874
573.32	25.104
573.51	24.801
573.71	24.624
573.90	24.966
574.09	25.107
574.29	25.410
574.48	25.756
574.67	23.976
574.87	25.065
575.06	25.647
575.25	24.511
575.45	24.139
575.64	24.584
575.83	25.211
576.03	25.997
576.22	25.212
576.41	25.249
576.60	24.137
576.80	24.878
576.99	25.069
577.18	25.425
577.38	24.929
577.57	25.185
577.76	26.240
577.95	25.012
578.15	24.794
578.34	24.734
578.53	24.712
578.73	25.957
578.92	24.533
579.11	25.074
579.30	23.776
579.50	25.018
579.69	24.827
579.88	25.547
580.08	24.938
580.27	25.196
580.46	25.128
580.65	25.114
580.85	25.286
581.04	24.967
581.23	24.916
581.42	23.883
581.62	24.166
581.81	23.840
582.00	24.297
582.19	25.084
582.39	24.715
582.58	24.936
582.77	24.483
582.96	25.015
583.16	23.861
583.35	24.742
583.54	24.581
583.73	25.059
583.93	24.297
584.12	24.591
584.31	23.158
584.50	23.902
584.70	23.763
584.89	24.636
585.08	23.699
585.27	25.138
585.47	22.959
585.66	24.560
585.85	23.027
586.04	23.222
586.24	23.791
586.43	24.082
586.62	22.915
586.81	23.920
587.00	23.044
587.20	24.917
587.39	22.628
587.58	22.684
587.77	23.809
587.97	23.692
588.16	23.498
588.35	24.647
588.54	23.869
588.73	23.003
588.93	24.160
589.12	24.179
589.31	22.718
589.50	23.510
589.69	22.842
589.89	24.725
590.08	22.914
590.27	23.542
590.46	23.937
590.65	23.219
590.85	23.130
591.04	24.179
591.23	23.449
591.42	24.331
591.61	22.384
591.81	23.579
592.00	23.086
592.19	23.889
592.38	22.617
592.57	24.414
592.77	23.841
592.96	22.647
593.15	25.387
593.34	24.992
593.53	22.602
593.72	23.370
593.92	23.438
594.11	24.396
594.30	23.067
594.49	24.011
594.68	23.306
594.87	25.004
595.07	22.480
595.26	23.823
595.45	23.592
595.64	23.991
595.83	24.617
596.02	23.326
596.22	23.361
596.41	23.564
596.60	23.962
596.79	23.414
596.98	23.467
597.17	24.197
597.37	24.634
597.56	25.245
597.75	23.570
597.94	24.199
598.13	24.798
598.32	24.236
598.51	24.754
598.71	24.899
598.90	24.258
599.09	24.533
599.28	24.723
599.47	23.828
599.66	24.282
599.85	25.109
600.05	24.162
600.24	25.887
600.43	24.698
600.62	25.475
600.81	24.691
601.00	24.864
601.19	25.000
601.38	26.228
601.58	25.039
601.77	24.706
601.96	25.999
602.15	26.528
602.34	23.504
602.53	26.799
602.72	24.942
602.91	26.074
603.10	25.390
603.30	24.884
603.49	25.000
603.68	24.438
603.87	24.365
604.06	25.379
604.25	24.892
604.44	25.604
604.63	24.654
604.82	25.742
605.01	25.790
605.21	25.320
605.40	26.235
605.59	26.356
605.78	25.363
605.97	25.399
606.16	25.828
606.35	25.785
606.54	25.756
606.73	26.373
606.92	26.801
607.11	27.345
607.30	26.229
607.50	26.948
607.69	24.856
607.88	25.195
608.07	26.187
608.26	26.643
608.45	26.159
608.64	26.460
608.83	24.424
609.02	24.262
609.21	25.577
609.40	24.851
609.59	24.463
609.78	25.169
609.97	25.010
610.16	24.933
610.35	24.044
610.55	24.687
610.74	24.793
610.93	24.523
611.12	24.826
611.31	24.402
611.50	23.638
611.69	25.314
611.88	25.063
612.07	25.024
612.26	25.102
612.45	24.581
612.64	23.674
612.83	24.781
613.02	24.281
613.21	23.745
613.40	24.346
613.59	23.914
613.78	22.492
613.97	24.248
614.16	22.138
614.35	24.555
614.54	22.238
614.73	23.797
614.92	22.811
615.11	23.167
615.30	22.424
615.49	22.883
615.68	22.126
615.87	23.077
616.07	21.208
616.26	22.156
616.45	23.590
616.64	21.685
616.83	21.664
617.02	24.315
617.21	20.730
617.40	21.592
617.59	21.423
617.78	21.961
617.97	22.005
618.16	22.535
618.35	19.825
618.54	22.189
618.73	22.411
618.92	21.877
619.11	20.985
619.30	23.177
619.49	21.054
619.68	23.012
619.86	21.538
620.05	23.071
620.24	20.803
620.43	20.239
620.62	19.289
620.81	21.251
621.00	20.773
621.19	23.678
621.38	22.227
621.57	21.526
621.76	21.776
621.95	22.119
622.14	20.583
622.33	22.437
622.52	20.589
622.71	21.638
622.90	20.059
623.09	22.672
623.28	21.519
623.47	22.573
623.66	21.594
623.85	21.201
624.04	19.168
624.23	21.008
624.42	21.571
624.61	20.462
624.80	20.520
624.99	21.339
625.18	19.012
625.36	20.847
625.55	21.310
625.74	21.104
625.93	19.741
626.12	20.638
626.31	20.971
626.50	21.592
626.69	21.335
626.88	22.167
627.07	21.655
627.26	21.242
627.45	21.465
627.64	21.332
627.83	20.614
628.02	21.042
628.20	21.644
628.39	20.607
628.58	21.453
628.77	22.570
628.96	21.632
629.15	20.906
629.34	19.936
629.53	21.540
629.72	17.623
629.91	22.353
630.10	19.838
630.29	20.189
630.47	18.642
630.66	20.894
630.85	20.885
631.04	19.840
631.23	19.387
631.42	21.326
631.61	18.671
631.80	20.861
631.99	18.462
632.18	17.781
632.36	17.343
632.55	21.566
632.74	17.923
632.93	18.901
633.12	18.934
633.31	19.220
633.50	19.723
633.69	21.654
633.88	17.796
634.06	21.894
634.25	17.920
634.44	18.879
634.63	20.264
634.82	20.171
635.01	16.917
635.20	19.977
635.39	17.323
635.57	20.574
635.76	18.506
635.95	19.760
636.14	17.193
636.33	20.164
636.52	19.882
636.71	18.803
636.89	19.979
637.08	18.843
637.27	17.786
637.46	19.837
637.65	19.467
637.84	19.979
638.03	17.560
638.21	21.530
638.40	18.883
638.59	18.858
638.78	18.910
638.97	21.698
639.16	19.278
639.34	21.132
639.53	15.636
639.72	22.018
639.91	16.995
640.10	18.405
640.29	21.117
640.47	21.235
640.66	19.350
640.85	20.994
641.04	16.467
641.23	20.823
641.42	19.052
641.60	18.499
641.79	16.605
641.98	20.174
642.17	18.834
642.36	19.512
642.54	16.919
642.73	18.813
642.92	15.552
643.11	18.059
643.30	18.469
643.49	19.861
643.67	15.848
643.86	20.057
644.05	16.271
644.24	19.444
644.43	18.332
644.61	20.953
644.80	18.191
644.99	18.889
645.18	20.792
645.37	19.007
645.55	16.510
645.74	18.168
645.93	16.937
646.12	18.696
646.31	17.624
646.49	18.518
646.68	19.379
646.87	19.504
647.06	17.330
647.24	18.002
647.43	16.881
647.62	20.591
647.81	15.664
648.00	19.774
648.18	15.852
648.37	16.899
648.56	18.239
648.75	17.816
648.93	15.566
649.12	19.226
649.31	17.243
649.50	17.824
649.68	17.803
649.87	18.052
650.06	17.160
650.25	18.626
650.43	16.578
650.62	17.538
650.81	17.083
651.00	17.992
651.18	16.029
651.37	21.133
651.56	15.467
651.75	20.212
651.93	18.004
652.12	20.065
652.31	17.609
652.50	18.760
652.68	19.179
652.87	19.755
653.06	19.555
653.25	19.395
653.43	17.442
653.62	18.611
653.81	17.234
654.00	20.206
654.18	18.418
654.37	19.049
654.56	18.799
654.74	14.705
654.93	15.999
655.12	16.327
655.31	16.564
655.49	16.914
655.68	15.101
655.87	15.458
656.05	14.339
656.24	17.575
656.43	12.636
656.62	15.999
656.80	16.090
656.99	15.772
657.18	14.216
657.36	15.442
657.55	16.465
657.74	16.435
657.93	17.261
658.11	17.517
658.30	16.622
658.49	15.062
658.67	17.380
658.86	16.313
659.05	14.734
659.23	18.040
659.42	15.302
659.61	17.438
659.79	15.651
659.98	16.779
660.17	17.229
660.35	16.565
660.54	18.197
660.73	19.179
660.91	16.782
661.10	18.237
661.29	13.825
661.47	16.476
661.66	16.607
661.85	16.030
662.03	15.877
662.22	12.180
662.41	11.889
662.59	14.986
662.78	13.813
662.97	13.283
663.15	11.738
663.34	14.713
663.53	14.118
663.71	15.589
663.90	12.744
664.09	15.269
664.27	14.125
664.46	14.750
664.65	12.712
664.83	12.831
665.02	11.498
665.21	12.187
665.39	12.127
665.58	12.496
665.77	12.508
665.95	15.289
666.14	11.740
666.32	14.321
666.51	13.986
666.70	12.876
666.88	11.165
667.07	12.235
667.26	11.431
667.44	12.317
667.63	13.880
667.81	10.812
668.00	11.862
668.19	15.935
668.37	12.792
668.56	15.524
668.75	10.518
668.93	16.884
669.12	12.744
669.30	15.188
669.49	10.762
669.68	14.587
669.86	12.922
670.05	10.211
670.23	12.922
670.42	11.749
670.61	13.878
670.79	14.537
670.98	13.122
671.16	15.327
671.35	11.840
671.54	12.812
671.72	13.201
671.91	13.861
672.09	10.951
672.28	14.703
672.46	17.051
672.65	14.401
672.84	14.523
673.02	15.324
673.21	11.498
673.39	12.179
673.58	14.178
673.77	12.660
673.95	13.336
674.14	14.810
674.32	11.777
674.51	15.942
674.69	11.134
674.88	13.858
675.07	11.893
675.25	17.327
675.44	15.309
675.62	14.211
675.81	13.171
675.99	20.621
676.18	15.944
676.36	12.404
676.55	13.025
676.74	19.044
676.92	16.673
677.11	14.603
677.29	14.876
677.48	16.719
677.66	15.473
677.85	14.450
678.03	13.212
678.22	17.535
678.40	14.039
678.59	15.251
678.78	13.419
678.96	13.331
679.15	14.071
679.33	15.677
679.52	17.524
679.70	17.155
679.89	14.910
680.07	17.175
680.26	14.566
680.44	16.317
680.63	16.695
680.81	14.738
681.00	13.271
681.18	16.432
681.37	16.218
681.55	18.973
681.74	17.168
681.92	17.309
682.11	18.010
682.29	17.138
682.48	16.486
682.66	17.329
682.85	15.566
683.03	18.703
683.22	18.969
683.40	19.840
683.59	16.490
683.77	18.856
683.96	14.094
684.14	18.799
684.33	13.331
684.51	20.543
684.70	17.875
684.88	21.354
685.07	18.335
685.25	19.317
685.44	15.795
685.62	18.587
685.81	15.191
685.99	19.387
686.18	16.514
686.36	20.548
686.55	13.787
686.73	16.206
686.92	17.495
687.10	22.195
687.29	21.070
687.47	21.144
687.65	21.117
687.84	19.062
688.02	22.631
688.21	23.640
688.39	19.165
688.58	21.789
688.76	19.181
688.95	20.076
689.13	16.979
689.32	24.424
689.50	20.043
689.68	24.184
689.87	19.847
690.05	22.537
690.24	23.267
690.42	22.675
690.61	24.429
690.79	24.897
690.98	21.961
691.16	20.536
691.34	18.168
691.53	25.645
691.71	23.010
691.90	24.481
692.08	23.248
692.27	26.712
692.45	24.667
692.63	25.731
692.82	27.780
693.00	25.580
693.19	22.969
693.37	29.876
693.56	24.043
693.74	29.815
693.92	27.199
694.11	32.430
694.29	28.962
694.48	34.572
694.66	28.467
694.84	32.409
695.03	28.273
695.21	34.650
695.40	33.655
695.58	37.257
695.76	29.518
695.95	32.845
696.13	34.524
696.32	37.804
696.50	42.954
696.68	38.412
696.87	36.261
697.05	40.144
697.24	38.643
697.42	42.348
697.60	38.807
697.79	41.228
697.97	42.909
698.16	43.525
698.34	41.580
698.52	44.106
698.71	43.641
698.89	45.803
699.07	43.868
699.26	46.146
699.44	46.429
699.63	46.728
699.81	43.965
699.99	45.197
700.18	47.959
700.36	47.027
700.54	46.896
700.73	47.243
700.91	50.030
701.09	49.910
701.28	50.614
701.46	51.413
701.64	50.142
701.83	53.566
702.01	48.631
702.20	56.175
702.38	55.322
702.56	54.044
702.75	56.153
702.93	54.012
703.11	56.919
703.30	59.204
703.48	54.042
703.66	59.594
703.85	59.756
704.03	60.514
704.21	57.980
704.40	58.957
704.58	55.703
704.76	58.921
704.95	56.889
705.13	63.089
705.31	61.341
705.50	64.010
705.68	58.782
705.86	61.966
706.04	61.019
706.23	65.834
706.41	64.615
706.59	62.081
706.78	61.037
706.96	64.006
707.14	67.043
707.33	63.767
707.51	60.210
707.69	67.485
707.88	65.573
708.06	67.795
708.24	63.681
708.42	67.134
708.61	63.917
708.79	67.523
708.97	71.083
709.16	68.726
709.34	69.205
709.52	69.192
709.71	69.858
709.89	68.788
710.07	69.150
710.25	69.348
710.44	69.050
710.62	70.146
710.80	69.935
710.98	70.824
711.17	66.935
711.35	70.491
711.53	69.316
711.72	71.460
711.90	75.034
712.08	72.172
712.26	69.062
712.45	69.168
712.63	68.004
712.81	72.003
712.99	71.269
713.18	73.496
713.36	68.699
713.54	69.636
713.72	68.468
713.91	70.230
714.09	73.367
714.27	70.242
714.45	71.614
714.64	70.578
714.82	71.798
715.00	73.082
715.18	70.241
715.37	72.155
715.55	72.155
715.73	75.136
715.91	70.531
716.10	71.859
716.28	69.398
716.46	74.206
716.64	72.177
716.83	75.299
717.01	73.046
717.19	71.720
717.37	75.208
717.55	77.839
717.74	75.705
717.92	71.164
718.10	68.234
718.28	75.307
718.47	72.352
718.65	74.747
718.83	76.349
719.01	78.329
719.19	74.023
719.38	72.947
719.56	74.879
719.74	77.260
719.92	72.717
720.10	76.484
720.29	74.218
720.47	75.116
720.65	74.506
720.83	81.481
721.01	71.684
721.20	77.025
721.38	76.524
721.56	78.462
721.74	74.350
721.92	77.592
722.11	75.976
722.29	80.472
722.47	78.356
722.65	76.685
722.83	75.481
723.01	79.009
723.20	75.671
723.38	75.171
723.56	75.273
723.74	79.326
723.92	78.721
724.10	79.421
724.29	75.734
724.47	78.266
724.65	80.052
724.83	82.004
725.01	77.835
725.19	83.648
725.38	76.223
725.56	81.736
725.74	79.264
725.92	77.193
726.10	80.584
726.28	77.344
726.46	75.370
726.65	79.364
726.83	78.635
727.01	83.672
727.19	74.645
727.37	83.009
727.55	77.121
727.73	80.218
727.92	78.448
728.10	82.557
728.28	75.510
728.46	81.064
728.64	77.476
728.82	80.269
729.00	75.572
729.19	77.208
729.37	80.930
729.55	81.923
729.73	76.784
729.91	82.494
730.09	77.259
730.27	80.023
730.45	74.439
730.63	79.284
730.82	79.882
731.00	81.555
731.18	73.479
731.36	81.572
731.54	77.047
731.72	80.406
731.90	77.236
732.08	81.548
732.26	77.650
732.45	80.845
732.63	82.269
732.81	82.045
732.99	78.723
733.17	85.706
733.35	79.303
733.53	79.394
733.71	78.939
733.89	76.814
734.07	82.418
734.25	79.415
734.44	81.939
734.62	74.565
734.80	78.405
734.98	81.169
735.16	78.825
735.34	81.108
735.52	80.604
735.70	80.504
735.88	82.080
736.06	77.495
736.24	88.080
736.42	81.963
736.60	79.158
736.78	82.060
736.97	85.482
737.15	82.361
737.33	83.381
737.51	79.379
737.69	86.354
737.87	81.276
738.05	84.279
738.23	85.469
738.41	77.372
738.59	83.887
738.77	83.634
738.95	88.707
739.13	80.056
739.31	84.728
739.49	86.931
739.67	81.652
739.85	83.138
740.03	81.033
740.21	82.708
740.39	83.860
740.57	82.988
740.75	82.197
740.93	82.752
741.11	85.845
741.30	82.857
741.48	93.111
741.66	79.759
741.84	84.516
742.02	77.918
742.20	84.885
742.38	86.068
742.56	83.370
742.74	79.167
742.92	82.297
743.10	85.830
743.28	82.772
743.46	79.760
743.64	81.209
743.82	80.651
744.00	84.189
744.18	80.325
744.36	78.702
744.54	81.997
744.72	87.609
744.90	87.153
745.08	91.206
745.26	73.392
745.44	89.700
745.62	83.333
745.80	78.930
745.98	82.123
746.16	94.133
746.34	81.647
746.52	82.752
746.70	82.886
746.87	82.332
747.05	81.184
747.23	82.074
747.41	80.284
747.59	82.642
747.77	77.848
747.95	89.116
748.13	81.278
748.31	86.080
748.49	79.878
748.67	84.840
748.85	80.790
749.03	90.009
749.21	83.073
749.39	85.763
749.57	75.554
749.75	84.051
749.93	89.781
750.11	81.399
750.29	79.429
750.47	81.771
750.65	84.131
750.83	84.723
751.01	76.097
751.18	85.491
751.36	80.140
751.54	77.787
751.72	79.043
751.90	83.803
752.08	78.447
752.26	87.871
752.44	77.950
752.62	82.788
752.80	78.540
752.98	86.501
753.16	82.940
753.34	87.253
753.52	82.624
753.69	87.035
753.87	81.966
754.05	87.698
754.23	86.262
754.41	86.655
754.59	78.725
754.77	86.246
754.95	82.997
755.13	84.469
755.31	77.703
755.49	81.626
755.66	77.331
755.84	78.894
756.02	84.567
756.20	79.003
756.38	75.268
756.56	82.343
756.74	81.381
756.92	78.413
757.10	78.899
757.28	93.256
757.45	81.747
757.63	80.529
757.81	83.582
757.99	91.410
758.17	78.114
758.35	87.479
758.53	78.771
758.71	82.467
758.88	80.688
759.06	84.546
759.24	80.442
759.42	82.474
759.60	77.285
759.78	81.684
759.96	73.790
760.13	78.956
760.31	71.137
760.49	77.042
760.67	68.668
760.85	72.880
761.03	72.949
761.21	73.230
761.38	69.775
761.56	81.180
761.74	68.275
761.92	78.030
762.10	67.490
762.28	79.374
762.46	68.545
762.63	71.971
762.81	72.735
762.99	73.431
763.17	70.494
763.35	79.673
763.53	74.933
763.70	82.158
763.88	77.398
764.06	76.538
764.24	71.436
764.42	76.815
764.60	77.430
764.77	74.136
764.95	73.660
765.13	82.199
765.31	76.560
765.49	73.866
765.66	73.857
765.84	78.602
766.02	75.686
766.20	74.674
766.38	74.154
766.56	82.163
766.73	72.989
766.91	80.699
767.09	74.121
767.27	80.447
767.45	77.486
767.62	79.612
767.80	77.639
767.98	80.864
768.16	73.735
768.33	85.476
768.51	77.214
768.69	83.395
768.87	77.129
769.05	75.856
769.22	83.351
769.40	84.125
769.58	78.822
769.76	83.172
769.94	80.103
770.11	76.502
770.29	87.415
770.47	87.020
770.65	77.923
770.82	78.755
771.00	78.275
771.18	88.137
771.36	79.952
771.53	80.341
771.71	78.452
771.89	85.421
772.07	78.892
772.25	86.224
772.42	75.726
772.60	92.464
772.78	83.791
772.96	81.818
773.13	75.176
773.31	83.476
773.49	74.113
773.67	86.642
773.84	72.308
774.02	83.416
774.20	76.719
774.37	81.541
774.55	79.700
774.73	86.905
774.91	74.449
775.08	75.707
775.26	75.439
775.44	83.576
775.62	81.250
775.79	80.729
775.97	75.972
776.15	77.177
776.32	82.311
776.50	79.823
776.68	82.213
776.86	92.571
777.03	74.352
777.21	85.503
777.39	82.841
777.56	78.042
777.74	79.424
777.92	90.534
778.10	80.884
778.27	82.109
778.45	70.042
778.63	90.111
778.80	79.184
778.98	83.445
779.16	82.273
779.34	89.552
779.51	75.603
779.69	81.389
779.87	76.943
780.04	77.507
780.22	74.249
780.40	73.247
780.57	78.129
780.75	76.072
780.93	77.735
781.10	87.345
781.28	92.140
781.46	79.201
781.63	87.975
781.81	83.003
781.99	77.021
782.16	77.259
782.34	72.571
782.52	85.110
782.69	70.993
782.87	84.075
783.05	76.077
783.22	78.468
783.40	70.396
783.58	85.516
783.75	73.123
783.93	79.749
784.11	72.320
784.28	85.650
784.46	65.913
784.64	82.276
784.81	75.879
784.99	85.805
785.17	87.797
785.34	79.909
785.52	68.396
785.69	80.577
785.87	81.745
786.05	90.141
786.22	72.843
786.40	92.550
786.58	72.247
786.75	81.392
786.93	67.367
787.11	72.637
787.28	75.563
787.46	82.769
787.63	77.143
787.81	74.453
787.99	73.254
788.16	77.044
788.34	72.950
788.51	81.195
788.69	70.296
788.87	79.358
789.04	67.804
789.22	74.905
789.39	75.212
789.57	83.584
789.75	70.330
789.92	82.531
790.10	64.905
790.27	78.116
790.45	66.571
790.63	81.869
790.80	73.766
790.98	83.824
791.15	74.543
791.33	78.094
791.51	71.383
791.68	87.069
791.86	76.227
792.03	79.970
792.21	70.772
792.39	79.365
792.56	76.606
792.74	79.055
792.91	76.295
793.09	71.917
793.26	74.188
793.44	83.993
793.62	68.562
793.79	70.121
793.97	73.230
794.14	78.378
794.32	80.141
794.49	80.612
794.67	72.788
794.84	69.904
795.02	68.850
795.20	89.617
795.37	68.983
795.55	75.845
795.72	75.119
795.90	77.066
796.07	70.266
796.25	70.679
796.42	74.188
796.60	79.867
796.77	69.572
796.95	72.603
797.13	60.731
797.30	77.607
797.48	67.009
797.65	72.938
797.83	65.315
798.00	79.840
798.18	70.813
798.35	78.652
798.53	66.366
798.70	73.345
798.88	69.687
799.05	66.959
799.23	60.247
799.40	87.759
799.58	77.491
799.75	77.147
799.93	70.616
800.10	72.271
800.28	72.743
800.45	73.776
800.63	65.047
800.80	85.331
800.98	63.976
801.15	78.411
801.33	71.454
801.50	73.496
801.68	62.340
801.85	76.325
802.03	69.109
802.20	77.643
802.38	65.529
802.55	72.920
802.73	76.049
802.90	71.569
803.08	72.556
803.25	92.395
803.43	71.828
803.60	86.914
803.78	69.340
803.95	74.910
804.13	77.691
804.30	84.139
804.48	73.062
804.65	73.386
804.83	65.210
805.00	67.794
805.17	72.007
805.35	76.275
805.52	63.838
805.70	71.007
805.87	70.876
806.05	72.895
806.22	79.226
806.40	65.789
806.57	71.455
806.75	72.648
806.92	68.651
807.09	70.485
807.27	65.891
807.44	77.462
807.62	65.434
807.79	63.987
807.97	62.477
808.14	70.000
808.31	65.688
808.49	63.204
808.66	53.506
808.84	80.488
809.01	68.914
809.19	68.945
809.36	81.736
809.53	84.149
809.71	66.600
809.88	82.983
810.06	66.331
810.23	74.783
810.41	81.967
810.58	79.887
810.75	60.335
810.93	65.208
811.10	76.181
811.28	69.323
811.45	77.449
811.62	72.907
811.80	68.722
811.97	77.045
812.15	74.849
812.32	74.889
812.49	71.913
812.67	70.905
812.84	66.292
813.02	78.395
813.19	63.000
813.36	71.584
813.54	71.242
813.71	84.881
813.89	79.177
814.06	72.515
814.23	77.987
814.41	68.010
814.58	70.851
814.75	72.047
814.93	70.404
815.10	66.819
815.28	61.501
815.45	63.942
815.62	80.778
815.80	66.741
815.97	67.665
816.14	79.695
816.32	68.103
816.49	60.537
816.66	77.612
816.84	67.894
817.01	79.048
817.18	65.053
817.36	75.439
817.53	75.847
817.71	57.176
817.88	82.415
818.05	55.792
818.23	67.126
818.40	74.090
818.57	67.865
818.75	63.146
818.92	78.540
819.09	59.195
819.27	73.237
819.44	61.050
819.61	67.004
819.79	57.576
819.96	72.222
820.13	61.525
820.31	68.740
820.48	79.354
820.65	80.000
820.82	67.530
821.00	65.922
821.17	56.566
821.34	65.587
821.52	73.357
821.69	68.107
821.86	64.501
822.04	76.667
822.21	75.101
822.38	74.257
822.56	74.246
822.73	75.247
822.90	74.161
823.07	77.298
823.25	73.246
823.42	74.212
823.59	74.420
823.77	71.683
823.94	69.115
824.11	70.418
824.29	69.145
824.46	68.465
824.63	72.823
824.80	73.643
824.98	72.560
825.15	70.833
825.32	68.949
825.49	72.918
825.67	70.452
825.84	72.108
826.01	67.123
826.19	74.415
826.36	67.077
826.53	72.395
826.70	65.342
826.88	73.735
827.05	66.046
827.22	74.268
827.39	68.368
827.57	72.483
827.74	65.328
827.91	72.095
828.08	69.658
828.26	76.107
828.43	69.220
828.60	69.794
828.77	68.369
828.95	69.595
829.12	58.596
829.29	60.397
829.46	65.146
829.64	66.384
829.81	60.209
829.98	65.279
830.15	56.000
830.32	56.085
830.50	52.709
830.67	66.035
830.84	55.703
831.01	58.193
831.19	52.407
831.36	65.854
831.53	65.406
831.70	59.924
831.87	58.964
832.05	71.587
832.22	75.106
832.39	59.519
832.56	59.002
832.74	56.549
832.91	56.647
833.08	68.412
833.25	45.672
833.42	62.438
833.60	61.897
833.77	52.806
833.94	55.985
834.11	56.171
834.28	49.817
834.45	63.216
834.63	54.615
834.80	65.684
834.97	63.901
835.14	69.959
835.31	61.662
835.49	63.221
835.66	56.575
835.83	59.560
836.00	62.324
836.17	67.696
836.34	53.960
836.52	60.641
836.69	68.223
836.86	67.893
837.03	61.744
837.20	56.061
837.37	56.689
837.55	55.577
837.72	61.080
837.89	66.295
838.06	71.739
838.23	70.105
838.40	61.205
838.58	52.765
838.75	70.552
838.92	61.449
839.09	104.430
839.26	75.211
839.43	87.847
839.60	72.026
839.78	81.677
839.95	72.619
840.12	82.749
840.29	77.839
840.46	76.636
840.63	78.116
840.80	69.921
840.98	89.807
841.15	71.320
841.32	76.536
841.49	63.912
841.66	68.378
841.83	58.156
842.00	73.938
842.17	86.313
842.34	71.309
842.52	71.818
842.69	75.000
842.86	73.626
843.03	84.244
843.20	75.216
843.37	86.905
843.54	86.689
843.71	75.417
843.88	95.620
844.06	121.186
844.23	100.000
844.40	89.407
844.57	96.694
844.74	84.914
844.91	127.363
845.08	110.734
845.25	118.085
845.42	122.905
845.59	84.426
845.76	93.548
845.94	117.778
846.11	112.376
846.28	102.789
846.45	113.978
846.62	103.500
846.79	89.873
846.96	101.099
847.13	141.304
847.30	120.904
847.47	100.515
847.64	89.388
847.81	130.147
847.98	96.216
848.15	120.112
848.32	137.824
848.50	114.000
848.67	84.024
848.84	117.751
849.01	127.338
849.18	148.235
849.35	125.238
849.52	95.238
849.69	109.341
849.86	139.865
850.03	157.025
850.20	145.333
850.37	109.412
850.54	108.511
850.71	109.896
850.88	121.935
851.05	127.717
851.22	150.602
851.39	126.203
851.56	158.621
851.73	162.500
851.90	149.020
852.07	122.807
852.24	147.712
852.41	86.294
852.58	119.672
852.75	110.465
852.92	122.099
853.09	124.183
853.26	116.993
853.43	109.412
853.60	140.136
853.77	116.201
853.94	132.743
854.11	116.667
854.28	154.861
854.45	131.818
854.62	125.000
854.79	131.515
854.96	131.250
855.13	138.994
855.30	144.526
855.47	161.290
855.64	123.602
855.81	169.065
855.98	122.137
856.15	173.846
856.32	116.114
856.49	133.898
856.66	121.154
856.83	101.258
857.00	112.295
857.17	141.129
857.34	108.152
857.51	136.620
857.68	92.857
857.85	121.765
858.02	151.701
858.19	102.210
858.36	128.736
858.53	100.592
858.70	120.879
858.87	125.517
859.04	137.647
859.21	131.061
859.38	105.069
859.55	136.932
859.72	106.944
859.89	152.448
860.05	152.518
860.22	128.485
860.39	188.793
860.56	141.667
860.73	161.905
860.90	138.922
861.07	128.000
861.24	117.647
861.41	115.029
861.58	103.247
861.75	155.906
861.92	103.125
862.09	133.166
862.26	149.032
862.43	148.000
862.59	100.000
862.76	119.171
862.93	186.154
863.10	161.029
863.27	114.615
863.44	156.098
863.61	148.551
863.78	122.460
863.95	146.951
864.12	214.103
864.29	172.034
864.45	92.453
864.62	147.967
864.79	108.235
864.96	192.308
865.13	125.547
865.30	177.551
865.47	128.276
865.64	161.538
865.81	146.491
865.97	98.742
866.14	110.160
866.31	145.082
866.48	138.732
866.65	130.061
866.82	148.993
866.99	137.857
867.16	150.388
867.33	151.773
867.49	128.916
867.66	179.104
867.83	100.000
868.00	117.204
868.17	134.351
868.34	181.102
868.51	121.831
868.67	151.786
868.84	128.889
869.01	173.793
869.18	156.800
869.35	125.532
869.52	141.606
869.69	165.672
869.85	129.054
870.02	109.783
870.19	168.462
870.36	132.374
870.53	164.286
870.70	175.893
870.86	117.532
871.03	127.737
871.20	152.941
871.37	137.870
871.54	158.491
871.71	124.242
871.87	171.134
872.04	86.250
872.21	123.485
872.38	196.386
872.55	145.714
872.72	123.913
872.88	158.333
873.05	94.652
873.22	179.167
873.39	116.463
873.56	110.791
873.72	131.492
873.89	131.210
874.06	122.951
874.23	166.667
874.40	148.000
874.56	153.030
874.73	166.667
874.90	103.425
875.07	124.427
875.24	126.220
875.40	168.750
875.57	140.476
875.74	105.000
875.91	120.635
876.08	135.714
876.24	142.308
876.41	154.887
876.58	145.255
876.75	124.516
876.92	175.641
877.08	114.599
877.25	121.429
877.42	142.308
877.59	127.108
877.75	113.208
877.92	112.791
878.09	134.868
878.26	126.712
878.42	96.296
878.59	150.568
878.76	118.519
878.93	125.166
879.09	99.320
879.26	117.308
879.43	112.500
879.60	97.576
879.76	108.718
879.93	91.371
880.10	74.419
880.27	76.000
880.43	108.163
880.60	82.160
880.77	89.020
880.94	73.929
881.10	68.621
881.27	70.442
881.44	50.759
881.61	62.777
881.77	62.177
881.94	53.785
882.11	41.420
882.28	52.717
882.44	46.776
882.61	56.655
882.78	56.243
882.94	69.091
883.11	53.711
883.28	58.431
883.45	62.644
883.61	60.734
883.78	55.081
883.95	64.546
884.11	52.766
884.28	54.767
>>>>>End Processed Spectral Data<<<<<
