SpectraSuite Data File
++++++++++++++++++++++++++++++++++++
Date: Fri Sep 20 03:30:40 EST 2019
User: sgrac
Dark Spectrum Present: Yes
Reference Spectrum Present: Yes
Number of Sampled Component Spectra: 1
Spectrometers: USB4E01596
Integration Time (usec): 100000 (USB4E01596)
Spectra Averaged: 1 (USB4E01596)
Boxcar Smoothing: 0 (USB4E01596)
Correct for Electrical Dark: No (USB4E01596)
Strobe/Lamp Enabled: Yes (USB4E01596)
Correct for Detector Non-linearity: No (USB4E01596)
Correct for Stray Light: No (USB4E01596)
Number of Pixels in Processed Spectrum: 3648
>>>>>Begin Processed Spectral Data<<<<<
178.44	447.826
178.66	447.826
178.87	447.826
179.09	-575.000
179.30	290.000
179.52	653.571
179.74	3220.000
179.95	-354.286
180.17	-750.000
180.38	-1006.250
180.60	-525.806
180.82	804.348
181.03	-3175.000
181.25	-1750.000
181.46	-1290.909
181.68	0.000
181.89	13600.000
182.11	1662.500
182.33	1415.385
182.54	-357.143
182.76	348.000
182.97	566.667
183.19	1855.556
183.40	-975.000
183.62	1242.857
183.84	-365.000
184.05	0.000
184.27	13800.000
184.48	780.000
184.70	8350.000
184.91	1230.769
185.13	393.182
185.34	298.148
185.56	-771.429
185.78	668.421
185.99	-10400.000
186.21	546.429
186.42	1150.000
186.64	225.373
186.85	246.914
187.07	858.333
187.28	-308.108
187.50	-668.182
187.72	331.250
187.93	20900.000
188.15	722.727
188.36	388.462
188.58	794.118
188.79	6350.000
189.01	555.882
189.22	1258.333
189.44	331.915
189.65	-810.000
189.87	950.000
190.09	516.667
190.30	-3720.000
190.52	397.561
190.73	618.519
190.95	-1053.846
191.16	-833.333
191.38	-586.957
191.59	1800.000
191.81	392.500
192.02	402.500
192.24	247.619
192.45	460.000
192.67	740.909
192.88	0.000
193.10	497.059
193.31	-1220.000
193.53	329.545
193.74	450.000
193.96	1730.000
194.18	271.014
194.39	296.000
194.61	570.000
194.82	468.966
195.04	1108.333
195.25	368.085
195.47	873.684
195.68	-1340.000
195.90	2725.000
196.11	4275.000
196.33	-470.370
196.54	700.000
196.76	277.778
196.97	872.222
197.19	-777.778
197.40	394.444
197.62	-914.286
197.83	1140.000
198.05	563.158
198.26	654.545
198.48	1375.000
198.69	591.429
198.91	1614.286
199.12	497.500
199.34	289.231
199.55	-954.545
199.77	560.000
199.98	2860.000
200.20	1054.545
200.41	612.121
200.63	-2160.000
200.84	565.854
201.06	-17900.000
201.27	1135.294
201.49	368.852
201.70	1041.176
201.91	1056.250
202.13	1020.000
202.34	3650.000
202.56	2242.857
202.77	-2800.000
202.99	793.333
203.20	609.524
203.42	-421.429
203.63	529.032
203.85	-683.333
204.06	4366.667
204.28	-2800.000
204.49	2100.000
204.71	275.000
204.92	1300.000
205.14	0.000
205.35	1000.000
205.56	567.857
205.78	548.718
205.99	464.865
206.21	527.586
206.42	3100.000
206.64	-275.610
206.85	786.667
207.07	1123.077
207.28	526.667
207.50	-1750.000
207.71	297.674
207.93	5600.000
208.14	-302.703
208.35	565.517
208.57	-837.500
208.78	375.862
209.00	347.368
209.21	0.000
209.43	721.739
209.64	388.372
209.86	1971.429
210.07	1200.000
210.28	617.857
210.50	2740.000
210.71	325.641
210.93	460.526
211.14	339.344
211.36	440.000
211.57	2150.000
211.78	-713.636
212.00	526.923
212.21	-647.368
212.43	464.516
212.64	414.286
212.86	503.571
213.07	532.143
213.29	282.895
213.50	-273.529
213.71	-10000.000
213.93	-1422.222
214.14	786.667
214.36	-2142.857
214.57	181.395
214.78	477.143
215.00	-4700.000
215.21	-2183.333
215.43	-421.212
215.64	881.250
215.86	-3525.000
216.07	600.000
216.28	308.065
216.50	346.809
216.71	-1960.000
216.93	1135.714
217.14	344.444
217.35	221.053
217.57	-860.000
217.78	1672.727
218.00	354.545
218.21	270.492
218.42	346.939
218.64	326.667
218.85	303.448
219.07	386.000
219.28	800.000
219.49	-981.818
219.71	471.429
219.92	2416.667
220.14	5300.000
220.35	4366.667
220.56	1040.000
220.78	296.825
220.99	2150.000
221.21	486.486
221.42	500.000
221.63	405.556
221.85	12800.000
222.06	441.379
222.28	600.000
222.49	13000.000
222.70	-4033.333
222.92	298.214
223.13	231.884
223.34	298.182
223.56	421.622
223.77	868.750
223.99	211.538
224.20	181.982
224.41	388.372
224.63	379.412
224.84	464.000
225.05	339.583
225.27	268.519
225.48	269.620
225.69	331.818
225.91	220.779
226.12	279.032
226.34	204.348
226.55	221.875
226.76	168.657
226.98	157.895
227.19	490.000
227.40	174.286
227.62	133.784
227.83	124.211
228.04	309.259
228.26	115.741
228.47	132.292
228.69	71.978
228.90	74.719
229.11	68.582
229.33	51.230
229.54	73.469
229.75	48.289
229.97	39.527
230.18	51.630
230.39	31.176
230.61	46.894
230.82	53.268
231.03	42.820
231.25	50.291
231.46	56.508
231.67	52.703
231.89	63.603
232.10	66.412
232.31	63.256
232.53	77.992
232.74	56.967
232.95	68.844
233.17	77.381
233.38	60.185
233.59	105.294
233.81	87.611
234.02	57.635
234.23	88.172
234.45	111.258
234.66	54.950
234.87	92.442
235.09	76.889
235.30	68.387
235.51	57.328
235.73	66.146
235.94	57.706
236.15	63.060
236.36	74.262
236.58	68.201
236.79	68.726
237.00	63.855
237.22	62.931
237.43	67.037
237.64	70.455
237.86	82.353
238.07	63.347
238.28	64.815
238.50	83.471
238.71	60.993
238.92	70.221
239.13	44.643
239.35	71.429
239.56	50.228
239.77	71.542
239.99	54.688
240.20	62.230
240.41	58.621
240.63	52.615
240.84	52.830
241.05	37.322
241.26	39.244
241.48	40.554
241.69	37.923
241.90	32.967
242.12	28.974
242.33	27.947
242.54	26.307
242.75	24.625
242.97	25.641
243.18	20.286
243.39	18.346
243.61	22.970
243.82	17.718
244.03	15.301
244.24	16.981
244.46	21.268
244.67	24.533
244.88	21.224
245.09	22.785
245.31	22.682
245.52	27.891
245.73	29.677
245.95	45.693
246.16	27.641
246.37	22.819
246.58	26.882
246.80	20.966
247.01	22.050
247.22	17.703
247.43	11.978
247.65	13.454
247.86	12.855
248.07	9.980
248.28	8.788
248.50	10.379
248.71	12.323
248.92	10.186
249.13	10.392
249.35	12.205
249.56	15.045
249.77	15.821
249.98	13.714
250.20	17.317
250.41	20.621
250.62	18.478
250.83	24.602
251.05	25.263
251.26	24.804
251.47	23.153
251.68	21.752
251.90	27.429
252.11	21.182
252.32	23.338
252.53	24.689
252.75	18.484
252.96	24.746
253.17	20.208
253.38	17.577
253.59	21.015
253.81	21.804
254.02	20.403
254.23	17.337
254.44	20.330
254.66	19.522
254.87	16.613
255.08	29.299
255.29	31.957
255.50	29.304
255.72	32.265
255.93	34.577
256.14	31.915
256.35	28.241
256.57	32.721
256.78	35.440
256.99	27.660
257.20	27.216
257.41	25.714
257.63	27.810
257.84	25.771
258.05	25.042
258.26	25.806
258.47	28.019
258.69	25.798
258.90	19.613
259.11	20.892
259.32	21.807
259.53	11.690
259.75	14.065
259.96	13.261
260.17	14.286
260.38	12.164
260.59	9.381
260.81	9.462
261.02	8.746
261.23	7.913
261.44	10.030
261.65	10.591
261.87	8.864
262.08	9.925
262.29	11.625
262.50	9.341
262.71	11.577
262.92	14.253
263.14	14.444
263.35	16.527
263.56	19.085
263.77	16.173
263.98	19.181
264.20	18.064
264.41	24.684
264.62	18.773
264.83	15.820
265.04	24.824
265.25	20.672
265.47	25.868
265.68	21.106
265.89	19.409
266.10	15.336
266.31	16.364
266.52	12.727
266.74	12.039
266.95	12.500
267.16	18.014
267.37	17.340
267.58	22.086
267.79	17.545
268.01	15.227
268.22	12.477
268.43	16.652
268.64	11.717
268.85	14.139
269.06	15.896
269.27	15.177
269.49	14.878
269.70	16.155
269.91	14.404
270.12	11.510
270.33	12.146
270.54	16.255
270.75	12.155
270.97	13.407
271.18	16.561
271.39	13.455
271.60	15.646
271.81	13.206
272.02	14.108
272.23	12.759
272.45	10.059
272.66	12.031
272.87	14.177
273.08	9.430
273.29	12.163
273.50	6.824
273.71	12.943
273.92	8.754
274.14	11.155
274.35	11.075
274.56	8.401
274.77	15.057
274.98	14.244
275.19	10.388
275.40	14.448
275.61	13.809
275.83	17.603
276.04	10.795
276.25	13.855
276.46	10.036
276.67	21.435
276.88	11.558
277.09	14.570
277.30	17.749
277.51	12.436
277.73	14.949
277.94	13.808
278.15	15.866
278.36	16.724
278.57	13.963
278.78	15.277
278.99	11.268
279.20	16.152
279.41	17.761
279.62	15.803
279.84	13.488
280.05	14.083
280.26	15.219
280.47	8.940
280.68	13.002
280.89	15.372
281.10	13.502
281.31	15.313
281.52	12.903
281.73	11.641
281.94	11.345
282.16	13.358
282.37	16.124
282.58	9.607
282.79	9.494
283.00	13.676
283.21	8.384
283.42	11.585
283.63	10.719
283.84	10.942
284.05	11.879
284.26	12.205
284.47	11.261
284.68	11.248
284.89	9.889
285.11	11.738
285.32	9.598
285.53	9.667
285.74	10.716
285.95	12.663
286.16	9.586
286.37	9.631
286.58	8.897
286.79	8.547
287.00	7.598
287.21	10.415
287.42	8.463
287.63	7.630
287.84	8.859
288.05	9.428
288.26	8.968
288.48	11.167
288.69	8.648
288.90	10.827
289.11	11.964
289.32	9.551
289.53	9.956
289.74	12.378
289.95	9.772
290.16	10.932
290.37	9.158
290.58	8.747
290.79	10.860
291.00	11.513
291.21	10.574
291.42	9.125
291.63	9.162
291.84	10.098
292.05	9.471
292.26	8.380
292.47	10.033
292.68	7.435
292.89	11.412
293.10	12.326
293.31	8.106
293.52	10.530
293.73	9.734
293.94	10.224
294.15	9.225
294.36	10.753
294.57	10.550
294.79	9.589
295.00	9.571
295.21	9.404
295.42	12.507
295.63	13.759
295.84	9.915
296.05	11.331
296.26	8.850
296.47	11.302
296.68	7.907
296.89	11.311
297.10	10.372
297.31	9.897
297.52	6.965
297.73	10.314
297.94	9.992
298.15	9.313
298.36	8.387
298.57	5.932
298.78	9.231
298.99	7.529
299.20	6.844
299.41	9.258
299.62	9.542
299.83	8.622
300.04	8.762
300.25	10.632
300.46	9.906
300.67	11.400
300.88	11.225
301.09	7.481
301.30	9.949
301.50	11.022
301.71	13.318
301.92	13.536
302.13	8.645
302.34	10.280
302.55	11.229
302.76	10.859
302.97	10.467
303.18	10.272
303.39	8.901
303.60	8.792
303.81	12.338
304.02	11.286
304.23	8.083
304.44	9.798
304.65	10.691
304.86	11.053
305.07	10.160
305.28	11.505
305.49	10.891
305.70	11.308
305.91	8.812
306.12	9.988
306.33	9.134
306.54	11.189
306.75	9.371
306.96	13.358
307.17	9.239
307.38	13.189
307.58	9.653
307.79	13.377
308.00	11.104
308.21	9.670
308.42	11.823
308.63	9.770
308.84	11.751
309.05	7.874
309.26	7.537
309.47	13.375
309.68	8.988
309.89	10.962
310.10	8.213
310.31	9.361
310.52	5.110
310.73	10.822
310.94	9.972
311.14	7.802
311.35	7.395
311.56	10.014
311.77	8.394
311.98	8.468
312.19	9.735
312.40	9.003
312.61	9.293
312.82	9.112
313.03	10.044
313.24	11.724
313.45	8.452
313.66	9.698
313.86	7.782
314.07	8.906
314.28	12.272
314.49	10.619
314.70	13.570
314.91	11.237
315.12	10.400
315.33	10.741
315.54	7.901
315.75	8.581
315.96	7.800
316.16	9.571
316.37	9.815
316.58	8.508
316.79	11.173
317.00	11.588
317.21	8.155
317.42	8.202
317.63	9.674
317.84	9.085
318.05	11.622
318.25	11.532
318.46	8.443
318.67	11.104
318.88	11.477
319.09	11.460
319.30	9.548
319.51	10.504
319.72	11.372
319.93	10.729
320.13	10.427
320.34	11.190
320.55	11.288
320.76	14.518
320.97	8.637
321.18	11.610
321.39	9.888
321.60	10.619
321.80	13.024
322.01	11.795
322.22	9.379
322.43	12.221
322.64	13.362
322.85	11.858
323.06	12.034
323.27	11.842
323.47	10.939
323.68	10.619
323.89	7.927
324.10	11.155
324.31	9.679
324.52	12.080
324.73	13.090
324.93	10.599
325.14	9.072
325.35	9.551
325.56	9.123
325.77	10.350
325.98	8.801
326.19	11.270
326.39	7.561
326.60	7.552
326.81	9.573
327.02	7.819
327.23	7.874
327.44	11.478
327.64	9.073
327.85	9.914
328.06	10.608
328.27	13.041
328.48	12.147
328.69	9.258
328.90	9.208
329.10	8.997
329.31	10.902
329.52	11.365
329.73	13.161
329.94	9.813
330.15	8.051
330.35	11.079
330.56	12.285
330.77	13.550
330.98	12.788
331.19	10.741
331.39	11.640
331.60	10.966
331.81	9.266
332.02	10.375
332.23	12.273
332.44	11.438
332.64	10.383
332.85	11.382
333.06	10.814
333.27	8.751
333.48	9.791
333.68	11.642
333.89	8.027
334.10	10.826
334.31	10.635
334.52	8.912
334.72	8.337
334.93	11.459
335.14	9.156
335.35	11.571
335.56	10.445
335.76	7.888
335.97	11.387
336.18	6.560
336.39	12.336
336.60	12.412
336.80	9.682
337.01	8.943
337.22	7.765
337.43	10.232
337.64	13.573
337.84	11.427
338.05	9.821
338.26	12.210
338.47	10.982
338.68	9.995
338.88	9.170
339.09	9.459
339.30	10.484
339.51	11.336
339.71	12.176
339.92	9.013
340.13	11.162
340.34	10.924
340.55	11.204
340.75	9.467
340.96	7.052
341.17	11.416
341.38	7.484
341.58	9.715
341.79	8.421
342.00	9.758
342.21	10.057
342.41	9.767
342.62	10.193
342.83	11.522
343.04	7.629
343.24	9.780
343.45	10.831
343.66	9.797
343.87	10.662
344.07	9.483
344.28	12.242
344.49	12.216
344.70	11.525
344.90	8.640
345.11	7.626
345.32	10.820
345.53	10.346
345.73	10.026
345.94	12.407
346.15	12.696
346.36	9.889
346.56	10.752
346.77	12.170
346.98	10.501
347.19	12.779
347.39	10.431
347.60	9.992
347.81	11.116
348.02	10.511
348.22	9.480
348.43	11.206
348.64	8.260
348.84	9.308
349.05	10.325
349.26	13.432
349.47	8.884
349.67	10.058
349.88	12.979
350.09	11.864
350.30	11.480
350.50	11.097
350.71	12.544
350.92	10.203
351.12	9.941
351.33	10.991
351.54	10.295
351.74	10.544
351.95	7.982
352.16	9.368
352.37	10.773
352.57	11.652
352.78	9.963
352.99	11.373
353.19	9.468
353.40	8.965
353.61	13.458
353.82	11.135
354.02	10.142
354.23	12.927
354.44	15.349
354.64	11.169
354.85	12.637
355.06	10.403
355.26	8.316
355.47	10.832
355.68	11.278
355.88	11.154
356.09	9.504
356.30	9.992
356.51	15.048
356.71	10.956
356.92	10.511
357.13	10.137
357.33	13.741
357.54	10.241
357.75	7.870
357.95	10.756
358.16	9.760
358.37	11.979
358.57	9.441
358.78	14.062
358.99	10.378
359.19	9.702
359.40	12.830
359.61	10.863
359.81	12.980
360.02	13.259
360.23	7.581
360.43	10.106
360.64	9.059
360.85	9.388
361.05	7.939
361.26	10.851
361.47	8.437
361.67	13.272
361.88	7.478
362.09	10.991
362.29	7.211
362.50	7.897
362.70	6.416
362.91	11.030
363.12	7.573
363.32	8.206
363.53	9.271
363.74	9.733
363.94	6.980
364.15	11.377
364.36	10.338
364.56	8.897
364.77	10.983
364.98	14.328
365.18	10.788
365.39	11.595
365.59	8.762
365.80	8.280
366.01	12.080
366.21	8.808
366.42	9.406
366.63	11.145
366.83	7.927
367.04	7.217
367.24	12.278
367.45	9.924
367.66	7.057
367.86	10.599
368.07	8.629
368.28	9.941
368.48	8.052
368.69	8.033
368.89	8.842
369.10	10.329
369.31	10.734
369.51	9.553
369.72	11.314
369.92	12.000
370.13	7.947
370.34	9.730
370.54	5.344
370.75	10.019
370.95	6.857
371.16	10.801
371.37	8.859
371.57	9.080
371.78	7.683
371.98	9.645
372.19	10.835
372.40	9.906
372.60	8.326
372.81	9.726
373.01	5.897
373.22	8.385
373.43	10.017
373.63	10.044
373.84	8.880
374.04	9.465
374.25	7.676
374.46	9.067
374.66	8.977
374.87	10.629
375.07	6.538
375.28	8.021
375.48	8.779
375.69	9.478
375.90	6.900
376.10	6.250
376.31	6.895
376.51	8.059
376.72	7.160
376.92	7.601
377.13	8.700
377.34	9.666
377.54	8.152
377.75	10.171
377.95	7.301
378.16	10.057
378.36	9.390
378.57	7.788
378.77	6.909
378.98	6.614
379.19	7.502
379.39	7.115
379.60	8.155
379.80	8.630
380.01	8.829
380.21	8.426
380.42	8.331
380.62	8.748
380.83	8.864
381.04	6.709
381.24	8.508
381.45	7.729
381.65	6.472
381.86	7.694
382.06	9.560
382.27	7.025
382.47	7.033
382.68	8.058
382.88	6.745
383.09	8.160
383.29	7.131
383.50	7.502
383.71	7.062
383.91	6.439
384.12	6.659
384.32	8.366
384.53	7.979
384.73	6.773
384.94	6.014
385.14	7.640
385.35	5.300
385.55	7.358
385.76	7.042
385.96	6.891
386.17	6.224
386.37	7.940
386.58	6.015
386.78	8.259
386.99	5.389
387.19	8.878
387.40	6.175
387.60	8.992
387.81	6.070
388.01	7.006
388.22	7.599
388.42	8.245
388.63	8.287
388.83	8.200
389.04	6.047
389.24	7.053
389.45	6.933
389.65	6.408
389.86	6.741
390.06	6.266
390.27	6.301
390.47	5.846
390.68	5.800
390.88	8.670
391.09	7.570
391.29	7.955
391.50	6.805
391.70	8.313
391.91	5.947
392.11	6.473
392.32	7.751
392.52	6.725
392.73	7.478
392.93	6.474
393.14	5.700
393.34	6.679
393.55	7.965
393.75	7.491
393.95	6.633
394.16	6.699
394.36	8.502
394.57	7.089
394.77	7.006
394.98	6.407
395.18	6.841
395.39	6.422
395.59	6.181
395.80	6.841
396.00	5.861
396.21	8.598
396.41	4.475
396.61	7.117
396.82	7.246
397.02	9.221
397.23	6.449
397.43	7.138
397.64	5.885
397.84	8.394
398.05	4.807
398.25	7.034
398.45	5.523
398.66	7.284
398.86	6.283
399.07	7.364
399.27	6.246
399.48	7.574
399.68	5.806
399.89	6.203
400.09	6.829
400.29	5.920
400.50	6.338
400.70	7.472
400.91	7.494
401.11	6.757
401.32	6.921
401.52	5.502
401.72	6.087
401.93	8.435
402.13	7.450
402.34	5.980
402.54	6.620
402.75	7.788
402.95	6.411
403.15	7.332
403.36	4.630
403.56	7.439
403.77	6.062
403.97	6.911
404.17	6.027
404.38	7.775
404.58	4.654
404.79	7.646
404.99	7.264
405.19	6.127
405.40	5.877
405.60	6.687
405.81	5.768
406.01	6.897
406.21	6.504
406.42	6.661
406.62	6.551
406.83	6.164
407.03	7.336
407.23	5.509
407.44	5.654
407.64	6.912
407.85	7.476
408.05	6.212
408.25	6.833
408.46	7.590
408.66	6.304
408.87	7.427
409.07	7.108
409.27	5.936
409.48	6.414
409.68	7.216
409.88	5.649
410.09	6.737
410.29	6.463
410.50	8.974
410.70	4.859
410.90	6.416
411.11	5.136
411.31	6.214
411.51	5.911
411.72	6.641
411.92	5.524
412.12	5.051
412.33	5.490
412.53	5.212
412.74	4.548
412.94	6.462
413.14	5.893
413.35	6.108
413.55	6.180
413.75	7.498
413.96	5.443
414.16	7.287
414.36	6.091
414.57	6.863
414.77	5.609
414.97	7.228
415.18	6.675
415.38	5.818
415.58	5.733
415.79	5.885
415.99	4.981
416.19	6.030
416.40	5.670
416.60	5.752
416.80	5.943
417.01	5.718
417.21	4.928
417.41	7.584
417.62	5.720
417.82	6.233
418.02	5.164
418.23	6.415
418.43	6.201
418.63	5.410
418.84	6.144
419.04	5.438
419.24	6.289
419.45	6.629
419.65	7.007
419.85	6.489
420.06	5.732
420.26	6.255
420.46	5.647
420.67	7.010
420.87	6.532
421.07	7.405
421.28	5.641
421.48	7.658
421.68	6.765
421.88	7.445
422.09	6.485
422.29	6.578
422.49	5.490
422.70	6.626
422.90	6.462
423.10	7.023
423.31	6.882
423.51	7.057
423.71	5.657
423.91	7.129
424.12	7.192
424.32	7.291
424.52	6.236
424.73	5.882
424.93	6.691
425.13	5.742
425.33	6.286
425.54	7.116
425.74	6.339
425.94	7.075
426.15	6.643
426.35	6.573
426.55	6.504
426.75	6.915
426.96	6.043
427.16	6.296
427.36	6.625
427.57	7.029
427.77	5.977
427.97	6.647
428.17	6.442
428.38	6.855
428.58	4.429
428.78	6.458
428.98	5.342
429.19	6.149
429.39	4.792
429.59	5.870
429.79	4.563
430.00	5.391
430.20	5.393
430.40	5.498
430.60	5.083
430.81	6.220
431.01	4.901
431.21	5.881
431.41	4.240
431.62	6.207
431.82	5.940
432.02	6.365
432.22	5.436
432.43	4.174
432.63	4.525
432.83	5.436
433.03	4.898
433.24	4.521
433.44	5.594
433.64	5.606
433.84	4.638
434.05	5.595
434.25	5.592
434.45	6.880
434.65	6.524
434.85	7.140
435.06	6.239
435.26	6.177
435.46	5.635
435.66	6.629
435.87	5.733
436.07	6.179
436.27	5.374
436.47	4.777
436.67	4.853
436.88	6.060
437.08	5.509
437.28	5.603
437.48	5.018
437.69	6.505
437.89	5.582
438.09	6.494
438.29	4.993
438.49	6.272
438.70	5.857
438.90	5.248
439.10	4.400
439.30	5.334
439.50	4.292
439.71	6.005
439.91	5.386
440.11	6.476
440.31	5.660
440.51	5.670
440.72	5.066
440.92	5.686
441.12	5.700
441.32	6.886
441.52	6.247
441.72	6.659
441.93	5.826
442.13	7.152
442.33	5.679
442.53	7.239
442.73	5.022
442.94	6.065
443.14	5.578
443.34	6.663
443.54	5.965
443.74	6.793
443.94	5.890
444.15	5.806
444.35	5.518
444.55	5.615
444.75	5.774
444.95	6.524
445.15	5.303
445.36	6.205
445.56	4.845
445.76	6.094
445.96	5.392
446.16	5.177
446.36	5.070
446.57	5.939
446.77	4.599
446.97	6.328
447.17	6.403
447.37	6.262
447.57	6.665
447.77	6.149
447.98	5.471
448.18	6.614
448.38	5.771
448.58	6.704
448.78	6.439
448.98	6.362
449.18	5.729
449.39	6.368
449.59	6.223
449.79	5.796
449.99	5.420
450.19	6.219
450.39	6.118
450.59	6.500
450.79	5.740
451.00	6.790
451.20	6.868
451.40	6.058
451.60	4.903
451.80	6.923
452.00	5.255
452.20	5.428
452.40	5.915
452.61	5.537
452.81	5.460
453.01	6.221
453.21	4.868
453.41	6.001
453.61	4.777
453.81	5.558
454.01	5.545
454.21	5.448
454.42	6.656
454.62	5.995
454.82	6.130
455.02	4.994
455.22	4.500
455.42	5.317
455.62	3.915
455.82	5.458
456.02	5.757
456.23	5.230
456.43	5.310
456.63	5.322
456.83	4.340
457.03	5.139
457.23	4.999
457.43	5.739
457.63	4.943
457.83	5.681
458.03	4.913
458.23	5.766
458.43	4.010
458.64	4.934
458.84	4.970
459.04	5.123
459.24	5.021
459.44	5.828
459.64	5.606
459.84	6.356
460.04	5.440
460.24	6.576
460.44	5.700
460.64	6.286
460.84	5.622
461.04	6.730
461.24	6.475
461.45	7.152
461.65	6.751
461.85	6.581
462.05	6.385
462.25	6.110
462.45	6.740
462.65	5.888
462.85	4.234
463.05	6.477
463.25	4.619
463.45	6.117
463.65	4.981
463.85	5.714
464.05	5.319
464.25	5.306
464.45	5.844
464.65	5.875
464.85	4.357
465.05	4.670
465.26	5.390
465.46	5.642
465.66	6.247
465.86	5.209
466.06	4.793
466.26	5.710
466.46	4.407
466.66	5.192
466.86	5.166
467.06	6.194
467.26	5.742
467.46	6.149
467.66	5.744
467.86	5.711
468.06	5.217
468.26	5.245
468.46	5.302
468.66	6.233
468.86	4.106
469.06	6.805
469.26	4.258
469.46	5.768
469.66	4.825
469.86	6.534
470.06	5.315
470.26	6.351
470.46	4.955
470.66	6.707
470.86	5.256
471.06	5.937
471.26	4.797
471.46	5.042
471.66	5.686
471.86	5.289
472.06	4.841
472.26	6.534
472.46	5.619
472.66	5.843
472.86	4.587
473.06	5.381
473.26	5.448
473.46	5.786
473.66	4.735
473.86	5.961
474.06	4.494
474.26	5.783
474.46	4.821
474.66	5.614
474.86	5.412
475.06	6.383
475.26	4.583
475.46	5.912
475.66	4.776
475.86	5.653
476.06	5.599
476.26	6.338
476.46	4.743
476.66	5.919
476.86	4.119
477.06	5.071
477.26	5.632
477.46	5.585
477.65	5.525
477.85	6.353
478.05	3.768
478.25	6.511
478.45	5.067
478.65	6.091
478.85	4.447
479.05	5.845
479.25	5.750
479.45	6.449
479.65	5.588
479.85	5.702
480.05	5.114
480.25	6.611
480.45	5.715
480.65	6.284
480.85	5.485
481.05	6.275
481.25	5.945
481.44	5.558
481.64	4.453
481.84	6.517
482.04	5.861
482.24	6.358
482.44	5.046
482.64	5.897
482.84	5.909
483.04	6.478
483.24	5.904
483.44	6.361
483.64	5.829
483.84	6.313
484.04	6.255
484.23	6.428
484.43	6.726
484.63	7.145
484.83	7.391
485.03	7.838
485.23	7.667
485.43	7.825
485.63	7.526
485.83	7.535
486.03	7.031
486.23	7.612
486.42	7.248
486.62	7.520
486.82	7.234
487.02	7.026
487.22	6.575
487.42	6.827
487.62	6.400
487.82	6.592
488.02	6.350
488.22	6.808
488.41	6.512
488.61	6.741
488.81	6.705
489.01	6.682
489.21	6.999
489.41	7.306
489.61	7.181
489.81	7.207
490.01	7.352
490.20	7.303
490.40	6.765
490.60	7.327
490.80	6.531
491.00	6.856
491.20	6.373
491.40	6.461
491.60	6.345
491.79	6.589
491.99	6.650
492.19	6.687
492.39	6.661
492.59	6.851
492.79	6.748
492.99	6.803
493.19	6.750
493.38	7.150
493.58	6.834
493.78	7.179
493.98	7.364
494.18	7.159
494.38	6.847
494.58	7.337
494.77	5.404
494.97	6.316
495.17	5.859
495.37	6.195
495.57	5.764
495.77	6.511
495.96	5.867
496.16	5.731
496.36	5.881
496.56	6.247
496.76	5.249
496.96	5.766
497.15	5.073
497.35	5.847
497.55	5.632
497.75	6.709
497.95	5.383
498.15	6.752
498.34	5.443
498.54	6.242
498.74	6.302
498.94	6.325
499.14	5.394
499.34	6.483
499.53	5.899
499.73	6.690
499.93	6.019
500.13	6.324
500.33	5.093
500.52	6.480
500.72	5.682
500.92	5.675
501.12	5.568
501.32	5.691
501.52	5.710
501.71	5.304
501.91	4.871
502.11	6.394
502.31	4.834
502.51	6.834
502.70	4.830
502.90	5.691
503.10	5.452
503.30	6.598
503.50	5.917
503.69	5.030
503.89	6.195
504.09	6.074
504.29	5.737
504.48	5.718
504.68	6.368
504.88	6.781
505.08	4.630
505.28	6.192
505.47	5.642
505.67	6.793
505.87	5.348
506.07	5.938
506.27	5.407
506.46	6.341
506.66	5.453
506.86	6.434
507.06	6.532
507.25	6.030
507.45	5.510
507.65	6.219
507.85	5.335
508.04	6.645
508.24	5.890
508.44	6.544
508.64	5.557
508.83	6.422
509.03	5.245
509.23	6.124
509.43	4.958
509.63	6.360
509.82	5.163
510.02	6.346
510.22	6.007
510.42	6.596
510.61	5.920
510.81	6.130
511.01	5.836
511.21	6.286
511.40	5.351
511.60	6.036
511.80	5.745
511.99	6.646
512.19	5.675
512.39	7.146
512.59	5.266
512.78	6.909
512.98	6.103
513.18	6.257
513.38	6.119
513.57	7.385
513.77	6.059
513.97	6.509
514.17	6.208
514.36	6.026
514.56	5.764
514.76	7.014
514.95	4.792
515.15	6.232
515.35	4.898
515.55	6.692
515.74	6.704
515.94	6.750
516.14	5.350
516.33	6.047
516.53	5.818
516.73	5.980
516.93	5.093
517.12	6.931
517.32	5.387
517.52	6.043
517.71	5.923
517.91	6.365
518.11	5.534
518.30	6.683
518.50	5.520
518.70	6.332
518.90	6.281
519.09	6.518
519.29	6.788
519.49	7.137
519.68	5.790
519.88	7.270
520.08	6.799
520.27	7.278
520.47	6.397
520.67	6.731
520.86	6.759
521.06	7.672
521.26	6.306
521.45	7.031
521.65	6.059
521.85	6.493
522.04	5.706
522.24	6.332
522.44	5.866
522.63	6.263
522.83	5.451
523.03	7.231
523.22	5.737
523.42	6.622
523.62	6.537
523.81	6.945
524.01	6.621
524.21	6.096
524.40	6.117
524.60	6.572
524.80	5.401
524.99	5.700
525.19	6.143
525.39	6.619
525.58	6.239
525.78	6.374
525.98	5.872
526.17	6.714
526.37	6.030
526.57	6.524
526.76	6.618
526.96	6.675
527.15	6.028
527.35	6.848
527.55	6.492
527.74	7.444
527.94	6.813
528.14	6.666
528.33	6.523
528.53	6.581
528.72	6.501
528.92	6.771
529.12	6.658
529.31	6.785
529.51	6.894
529.71	7.261
529.90	7.139
530.10	6.995
530.29	7.235
530.49	7.390
530.69	7.611
530.88	7.557
531.08	7.434
531.28	7.536
531.47	7.447
531.67	7.116
531.86	7.075
532.06	6.891
532.26	6.732
532.45	7.221
532.65	6.794
532.84	6.771
533.04	6.131
533.24	6.835
533.43	6.571
533.63	6.673
533.82	6.815
534.02	7.086
534.22	6.974
534.41	7.093
534.61	7.253
534.80	7.399
535.00	7.417
535.19	7.658
535.39	7.603
535.59	7.547
535.78	6.709
535.98	7.044
536.17	6.529
536.37	7.258
536.57	7.054
536.76	7.042
536.96	6.625
537.15	7.383
537.35	6.408
537.54	7.356
537.74	6.931
537.93	7.194
538.13	6.898
538.33	7.371
538.52	6.925
538.72	7.135
538.91	7.172
539.11	7.387
539.30	6.822
539.50	6.942
539.70	6.720
539.89	7.091
540.09	7.016
540.28	7.090
540.48	5.848
540.67	6.743
540.87	6.636
541.06	7.203
541.26	6.320
541.45	7.059
541.65	7.005
541.85	7.016
542.04	7.281
542.24	7.261
542.43	7.255
542.63	7.474
542.82	7.340
543.02	7.536
543.21	7.299
543.41	7.514
543.60	7.821
543.80	7.765
543.99	7.420
544.19	7.560
544.38	7.379
544.58	7.933
544.77	7.527
544.97	7.926
545.16	6.483
545.36	7.747
545.56	7.035
545.75	7.668
545.95	7.001
546.14	7.501
546.34	6.568
546.53	7.558
546.73	6.950
546.92	7.225
547.12	6.856
547.31	7.443
547.51	7.194
547.70	7.561
547.90	6.846
548.09	7.787
548.29	6.921
548.48	7.643
548.68	6.899
548.87	7.733
549.07	7.332
549.26	7.526
549.46	7.113
549.65	7.341
549.84	6.907
550.04	6.993
550.23	6.832
550.43	7.631
550.62	6.130
550.82	7.248
551.01	6.546
551.21	6.752
551.40	6.280
551.60	7.115
551.79	5.808
551.99	6.970
552.18	5.909
552.38	7.144
552.57	7.776
552.77	7.230
552.96	7.076
553.16	7.729
553.35	6.631
553.54	7.664
553.74	7.236
553.93	7.827
554.13	7.584
554.32	7.500
554.52	6.786
554.71	7.725
554.91	6.618
555.10	8.184
555.29	6.435
555.49	8.445
555.68	7.471
555.88	7.737
556.07	6.436
556.27	8.104
556.46	7.352
556.66	8.289
556.85	7.581
557.04	8.816
557.24	7.429
557.43	8.309
557.63	8.100
557.82	7.445
558.02	7.020
558.21	8.139
558.40	6.318
558.60	8.496
558.79	6.764
558.99	8.326
559.18	7.001
559.38	8.517
559.57	7.498
559.76	8.567
559.96	8.408
560.15	8.824
560.35	7.068
560.54	7.281
560.73	6.720
560.93	8.412
561.12	7.497
561.32	9.178
561.51	8.301
561.70	9.214
561.90	7.737
562.09	9.127
562.29	7.642
562.48	9.034
562.67	8.344
562.87	9.429
563.06	8.486
563.26	8.057
563.45	8.517
563.64	9.739
563.84	7.807
564.03	10.069
564.23	8.278
564.42	10.265
564.61	8.599
564.81	9.151
565.00	9.574
565.20	9.494
565.39	9.550
565.58	9.948
565.78	8.587
565.97	9.497
566.16	9.478
566.36	10.354
566.55	9.277
566.74	10.094
566.94	9.224
567.13	11.176
567.33	9.633
567.52	10.537
567.71	10.273
567.91	10.564
568.10	10.315
568.29	11.141
568.49	10.254
568.68	10.795
568.87	9.619
569.07	10.871
569.26	10.124
569.45	11.833
569.65	10.251
569.84	11.975
570.04	9.978
570.23	10.502
570.42	9.326
570.62	11.026
570.81	10.483
571.00	11.026
571.20	11.106
571.39	11.747
571.58	10.487
571.78	11.153
571.97	11.129
572.16	10.949
572.36	10.894
572.55	12.150
572.74	10.886
572.94	11.587
573.13	10.919
573.32	12.193
573.51	11.333
573.71	11.939
573.90	10.906
574.09	11.879
574.29	12.160
574.48	12.102
574.67	11.202
574.87	12.411
575.06	11.454
575.25	11.897
575.45	10.753
575.64	11.475
575.83	10.853
576.03	12.696
576.22	11.784
576.41	11.986
576.60	10.758
576.80	12.353
576.99	11.665
577.18	12.172
577.38	11.761
577.57	11.656
577.76	11.752
577.95	11.284
578.15	11.493
578.34	12.389
578.53	11.295
578.73	11.754
578.92	9.765
579.11	10.777
579.30	11.564
579.50	10.911
579.69	11.378
579.88	11.222
580.08	9.618
580.27	11.750
580.46	10.988
580.65	11.131
580.85	10.535
581.04	10.858
581.23	11.272
581.42	11.194
581.62	10.834
581.81	11.015
582.00	10.979
582.19	10.974
582.39	12.169
582.58	10.601
582.77	11.386
582.96	11.933
583.16	9.676
583.35	11.729
583.54	10.887
583.73	11.929
583.93	10.959
584.12	11.506
584.31	10.159
584.50	11.094
584.70	10.284
584.89	10.134
585.08	10.148
585.27	11.176
585.47	8.956
585.66	10.599
585.85	9.581
586.04	11.340
586.24	10.824
586.43	9.861
586.62	10.552
586.81	11.696
587.00	9.372
587.20	10.925
587.39	9.223
587.58	12.268
587.77	11.120
587.97	10.594
588.16	10.110
588.35	11.876
588.54	9.803
588.73	10.571
588.93	10.163
589.12	11.336
589.31	10.575
589.50	10.233
589.69	11.399
589.89	10.763
590.08	9.202
590.27	10.746
590.46	10.643
590.65	10.884
590.85	9.310
591.04	11.100
591.23	10.151
591.42	11.290
591.61	10.263
591.81	10.863
592.00	10.874
592.19	11.409
592.38	10.116
592.57	11.286
592.77	11.404
592.96	11.132
593.15	11.703
593.34	10.777
593.53	10.668
593.72	11.262
593.92	10.301
594.11	12.033
594.30	10.562
594.49	11.785
594.68	11.346
594.87	11.519
595.07	9.688
595.26	12.054
595.45	10.246
595.64	12.432
595.83	9.339
596.02	11.760
596.22	10.631
596.41	12.442
596.60	10.852
596.79	11.708
596.98	11.403
597.17	11.416
597.37	11.450
597.56	12.594
597.75	11.433
597.94	12.218
598.13	12.749
598.32	12.427
598.51	11.521
598.71	13.406
598.90	11.199
599.09	12.503
599.28	10.036
599.47	11.818
599.66	11.011
599.85	12.520
600.05	11.054
600.24	12.393
600.43	10.899
600.62	11.740
600.81	11.164
601.00	12.330
601.19	10.689
601.38	11.622
601.58	11.158
601.77	11.605
601.96	10.891
602.15	11.655
602.34	10.993
602.53	12.922
602.72	11.019
602.91	12.079
603.10	10.741
603.30	12.943
603.49	10.854
603.68	12.528
603.87	10.356
604.06	12.422
604.25	12.082
604.44	12.447
604.63	11.774
604.82	12.453
605.01	12.309
605.21	12.888
605.40	11.977
605.59	12.873
605.78	11.870
605.97	13.087
606.16	12.277
606.35	13.640
606.54	12.492
606.73	14.175
606.92	12.404
607.11	13.760
607.30	12.414
607.50	12.636
607.69	10.896
607.88	12.116
608.07	10.586
608.26	12.237
608.45	12.180
608.64	12.319
608.83	10.657
609.02	12.422
609.21	12.076
609.40	12.556
609.59	10.741
609.78	11.757
609.97	11.779
610.16	11.389
610.35	11.851
610.55	12.732
610.74	12.209
610.93	12.536
611.12	11.035
611.31	11.628
611.50	11.853
611.69	10.704
611.88	11.397
612.07	12.829
612.26	11.005
612.45	11.627
612.64	10.978
612.83	11.687
613.02	9.815
613.21	10.168
613.40	11.152
613.59	12.819
613.78	10.295
613.97	11.648
614.16	9.807
614.35	11.148
614.54	8.928
614.73	10.115
614.92	10.939
615.11	9.293
615.30	10.048
615.49	10.395
615.68	10.730
615.87	9.744
616.07	8.248
616.26	8.930
616.45	10.611
616.64	9.602
616.83	9.924
617.02	10.174
617.21	7.743
617.40	8.962
617.59	9.903
617.78	8.664
617.97	9.025
618.16	8.862
618.35	7.017
618.54	9.820
618.73	10.190
618.92	9.898
619.11	8.468
619.30	10.028
619.49	7.579
619.68	9.711
619.86	8.313
620.05	8.651
620.24	9.503
620.43	9.718
620.62	7.510
620.81	9.606
621.00	9.226
621.19	11.538
621.38	9.104
621.57	9.053
621.76	8.452
621.95	9.024
622.14	8.750
622.33	9.587
622.52	8.168
622.71	9.110
622.90	6.617
623.09	9.729
623.28	7.164
623.47	8.330
623.66	8.282
623.85	8.468
624.04	8.554
624.23	8.941
624.42	7.989
624.61	8.325
624.80	8.072
624.99	9.553
625.18	7.822
625.36	9.100
625.55	8.764
625.74	8.014
625.93	7.172
626.12	7.743
626.31	9.070
626.50	9.006
626.69	8.305
626.88	10.790
627.07	9.946
627.26	8.099
627.45	8.966
627.64	9.028
627.83	9.100
628.02	10.159
628.20	8.650
628.39	8.240
628.58	7.870
628.77	9.803
628.96	8.403
629.15	9.021
629.34	9.414
629.53	7.541
629.72	7.365
629.91	9.991
630.10	7.958
630.29	8.175
630.47	8.232
630.66	8.585
630.85	8.045
631.04	9.588
631.23	9.825
631.42	8.958
631.61	7.919
631.80	9.497
631.99	7.941
632.18	7.609
632.36	7.588
632.55	10.185
632.74	7.873
632.93	7.952
633.12	8.484
633.31	9.456
633.50	7.304
633.69	7.752
633.88	7.159
634.06	8.300
634.25	7.780
634.44	8.091
634.63	8.076
634.82	9.653
635.01	8.333
635.20	7.846
635.39	7.597
635.57	8.035
635.76	8.438
635.95	7.671
636.14	6.840
636.33	8.683
636.52	7.870
636.71	8.209
636.89	7.752
637.08	8.049
637.27	8.016
637.46	7.491
637.65	7.301
637.84	8.552
638.03	7.881
638.21	9.522
638.40	8.442
638.59	7.547
638.78	8.082
638.97	8.400
639.16	10.259
639.34	7.596
639.53	5.558
639.72	8.304
639.91	8.050
640.10	6.743
640.29	9.219
640.47	9.983
640.66	8.144
640.85	9.402
641.04	6.995
641.23	7.343
641.42	7.690
641.60	7.721
641.79	7.872
641.98	8.521
642.17	7.825
642.36	8.652
642.54	7.385
642.73	8.644
642.92	8.766
643.11	8.284
643.30	7.573
643.49	7.171
643.67	6.494
643.86	7.981
644.05	7.420
644.24	7.678
644.43	7.951
644.61	9.055
644.80	8.079
644.99	7.113
645.18	8.557
645.37	7.020
645.55	5.854
645.74	8.054
645.93	7.897
646.12	7.478
646.31	8.391
646.49	7.808
646.68	8.886
646.87	8.835
647.06	8.713
647.24	7.931
647.43	6.770
647.62	9.301
647.81	6.757
648.00	9.081
648.18	6.951
648.37	6.090
648.56	8.091
648.75	7.190
648.93	8.635
649.12	7.844
649.31	6.826
649.50	7.058
649.68	7.299
649.87	7.526
650.06	7.910
650.25	7.615
650.43	7.480
650.62	6.342
650.81	7.082
651.00	8.101
651.18	8.431
651.37	7.912
651.56	7.361
651.75	8.068
651.93	6.593
652.12	9.230
652.31	7.241
652.50	7.575
652.68	8.900
652.87	9.322
653.06	8.685
653.25	9.194
653.43	6.887
653.62	8.876
653.81	8.395
654.00	8.683
654.18	7.307
654.37	8.855
654.56	7.341
654.74	6.944
654.93	6.521
655.12	7.008
655.31	7.037
655.49	9.223
655.68	6.566
655.87	6.290
656.05	6.631
656.24	7.470
656.43	5.680
656.62	7.046
656.80	8.450
656.99	6.023
657.18	6.220
657.36	7.582
657.55	6.663
657.74	7.026
657.93	7.636
658.11	7.908
658.30	8.647
658.49	7.490
658.67	8.217
658.86	6.713
659.05	6.072
659.23	7.972
659.42	6.715
659.61	6.191
659.79	6.720
659.98	6.641
660.17	7.120
660.35	7.156
660.54	7.419
660.73	9.441
660.91	6.883
661.10	7.379
661.29	6.610
661.47	6.267
661.66	7.033
661.85	6.678
662.03	6.940
662.22	6.077
662.41	4.659
662.59	7.090
662.78	6.376
662.97	5.060
663.15	5.446
663.34	6.733
663.53	5.049
663.71	7.266
663.90	5.790
664.09	5.583
664.27	7.061
664.46	6.269
664.65	6.061
664.83	7.391
665.02	6.236
665.21	6.826
665.39	6.983
665.58	6.991
665.77	6.145
665.95	7.353
666.14	6.938
666.32	7.266
666.51	5.260
666.70	4.687
666.88	7.395
667.07	6.210
667.26	6.814
667.44	6.736
667.63	7.277
667.81	6.564
668.00	7.287
668.19	7.770
668.37	7.434
668.56	7.873
668.75	6.568
668.93	7.943
669.12	6.321
669.30	9.047
669.49	5.607
669.68	6.208
669.86	7.985
670.05	6.288
670.23	7.198
670.42	6.753
670.61	7.056
670.79	6.700
670.98	7.359
671.16	8.212
671.35	6.637
671.54	9.038
671.72	7.256
671.91	7.646
672.09	8.072
672.28	9.314
672.46	8.830
672.65	8.243
672.84	9.705
673.02	8.621
673.21	7.304
673.39	7.101
673.58	8.243
673.77	8.947
673.95	6.161
674.14	9.168
674.32	7.848
674.51	10.709
674.69	7.010
674.88	7.114
675.07	7.711
675.25	11.231
675.44	7.573
675.62	8.198
675.81	7.721
675.99	14.468
676.18	10.565
676.36	8.592
676.55	8.194
676.74	11.986
676.92	11.495
677.11	6.712
677.29	7.236
677.48	11.779
677.66	10.104
677.85	8.047
678.03	9.931
678.22	10.674
678.40	8.481
678.59	7.220
678.78	7.934
678.96	8.668
679.15	10.234
679.33	10.481
679.52	10.508
679.70	10.131
679.89	8.505
680.07	8.951
680.26	7.047
680.44	9.245
680.63	9.969
680.81	8.521
681.00	7.847
681.18	8.724
681.37	8.820
681.55	9.564
681.74	10.732
681.92	10.161
682.11	8.845
682.29	8.890
682.48	6.923
682.66	10.341
682.85	11.245
683.03	10.254
683.22	10.985
683.40	11.509
683.59	10.101
683.77	9.176
683.96	9.079
684.14	10.917
684.33	6.687
684.51	12.854
684.70	10.553
684.88	14.102
685.07	11.308
685.25	13.548
685.44	9.196
685.62	10.630
685.81	9.695
685.99	11.046
686.18	9.110
686.36	11.219
686.55	8.367
686.73	10.099
686.92	12.883
687.10	11.385
687.29	12.126
687.47	10.988
687.65	12.381
687.84	12.020
688.02	13.142
688.21	13.992
688.39	9.489
688.58	13.054
688.76	12.150
688.95	11.623
689.13	10.161
689.32	13.300
689.50	11.452
689.68	11.139
689.87	10.837
690.05	14.179
690.24	13.673
690.42	15.187
690.61	14.815
690.79	16.345
690.98	13.532
691.16	14.075
691.34	9.918
691.53	13.871
691.71	10.858
691.90	13.722
692.08	10.369
692.27	13.816
692.45	16.522
692.63	14.496
692.82	15.323
693.00	15.750
693.19	12.913
693.37	15.620
693.56	14.841
693.74	18.608
693.92	12.992
694.11	16.742
694.29	17.734
694.48	18.596
694.66	15.844
694.84	20.075
695.03	16.878
695.21	20.883
695.40	20.536
695.58	20.788
695.76	17.620
695.95	19.336
696.13	16.725
696.32	20.846
696.50	24.791
696.68	20.804
696.87	21.110
697.05	23.239
697.24	21.849
697.42	25.406
697.60	21.955
697.79	23.921
697.97	22.246
698.16	25.417
698.34	21.167
698.52	25.146
698.71	22.745
698.89	26.097
699.07	24.944
699.26	26.145
699.44	25.205
699.63	25.807
699.81	24.000
699.99	28.174
700.18	26.928
700.36	28.088
700.54	27.320
700.73	27.539
700.91	26.238
701.09	28.044
701.28	27.480
701.46	28.665
701.64	26.780
701.83	29.412
702.01	24.982
702.20	33.281
702.38	27.780
702.56	28.199
702.75	29.251
702.93	28.688
703.11	30.161
703.30	31.920
703.48	30.776
703.66	31.374
703.85	29.746
704.03	34.914
704.21	32.946
704.40	34.959
704.58	31.201
704.76	35.211
704.95	31.548
705.13	33.446
705.31	35.315
705.50	34.309
705.68	30.119
705.86	36.278
706.04	33.104
706.23	34.567
706.41	35.421
706.59	33.901
706.78	31.526
706.96	36.974
707.14	35.007
707.33	36.104
707.51	36.139
707.69	37.724
707.88	37.044
708.06	36.545
708.24	36.870
708.42	39.366
708.61	35.827
708.79	39.524
708.97	38.618
709.16	37.615
709.34	36.551
709.52	37.649
709.71	36.000
709.89	38.216
710.07	35.911
710.25	41.272
710.44	34.553
710.62	39.065
710.80	39.906
710.98	38.839
711.17	37.385
711.35	39.082
711.53	36.792
711.72	39.744
711.90	40.671
712.08	39.035
712.26	36.872
712.45	39.125
712.63	40.803
712.81	39.947
712.99	38.347
713.18	39.832
713.36	38.669
713.54	38.759
713.72	37.989
713.91	39.908
714.09	37.395
714.27	42.077
714.45	40.418
714.64	42.160
714.82	40.374
715.00	39.901
715.18	37.886
715.37	43.784
715.55	41.508
715.73	41.119
715.91	41.953
716.10	42.524
716.28	38.663
716.46	45.266
716.64	42.701
716.83	41.798
717.01	43.855
717.19	41.532
717.37	42.225
717.55	40.268
717.74	40.102
717.92	41.499
718.10	35.077
718.28	39.951
718.47	42.446
718.65	42.244
718.83	43.307
719.01	44.373
719.19	44.278
719.38	41.494
719.56	41.657
719.74	43.478
719.92	33.034
720.10	43.496
720.29	40.000
720.47	44.805
720.65	43.668
720.83	47.055
721.01	39.346
721.20	44.933
721.38	41.749
721.56	49.507
721.74	45.807
721.92	46.562
722.11	42.793
722.29	46.530
722.47	45.144
722.65	46.455
722.83	42.539
723.01	43.569
723.20	45.760
723.38	45.188
723.56	41.971
723.74	51.731
723.92	46.422
724.10	47.891
724.29	44.066
724.47	49.798
724.65	44.944
724.83	50.261
725.01	42.217
725.19	49.239
725.38	42.642
725.56	48.456
725.74	48.636
725.92	49.139
726.10	42.383
726.28	50.893
726.46	49.573
726.65	48.969
726.83	46.751
727.01	48.289
727.19	48.289
727.37	49.170
727.55	45.047
727.73	49.037
727.92	49.398
728.10	49.939
728.28	42.841
728.46	51.140
728.64	50.624
728.82	49.739
729.00	46.678
729.19	50.468
729.37	49.593
729.55	52.166
729.73	49.882
729.91	49.527
730.09	49.797
730.27	51.402
730.45	49.821
730.63	54.837
730.82	42.998
731.00	53.730
731.18	47.232
731.36	53.981
731.54	45.615
731.72	55.388
731.90	47.858
732.08	52.237
732.26	45.014
732.45	54.162
732.63	50.704
732.81	53.605
732.99	48.953
733.17	51.498
733.35	49.942
733.53	53.560
733.71	50.114
733.89	52.236
734.07	52.471
734.25	54.745
734.44	54.046
734.62	52.074
734.80	51.065
734.98	56.498
735.16	47.862
735.34	55.769
735.52	58.290
735.70	51.752
735.88	51.175
736.06	56.296
736.24	60.000
736.42	57.612
736.60	56.170
736.78	61.463
736.97	49.828
737.15	57.906
737.33	57.250
737.51	59.571
737.69	57.002
737.87	56.478
738.05	57.484
738.23	55.853
738.41	51.289
738.59	58.745
738.77	54.769
738.95	57.819
739.13	55.394
739.31	51.827
739.49	54.232
739.67	57.654
739.85	54.025
740.03	62.427
740.21	54.462
740.39	56.439
740.57	57.368
740.75	54.993
740.93	53.035
741.11	58.084
741.30	57.578
741.48	61.462
741.66	64.511
741.84	54.370
742.02	56.216
742.20	60.015
742.38	56.628
742.56	58.994
742.74	55.512
742.92	59.453
743.10	51.654
743.28	60.369
743.46	56.686
743.64	58.891
743.82	63.045
744.00	58.989
744.18	63.004
744.36	61.126
744.54	62.346
744.72	64.996
744.90	66.636
745.08	60.911
745.26	55.537
745.44	61.499
745.62	58.781
745.80	60.546
745.98	57.105
746.16	64.867
746.34	61.182
746.52	62.466
746.70	52.842
746.87	63.702
747.05	60.203
747.23	58.150
747.41	60.894
747.59	61.274
747.77	62.033
747.95	61.491
748.13	57.104
748.31	65.443
748.49	59.539
748.67	63.410
748.85	60.587
749.03	60.663
749.21	60.486
749.39	58.333
749.57	56.102
749.75	59.134
749.93	56.876
750.11	60.843
750.29	63.014
750.47	64.083
750.65	56.256
750.83	61.949
751.01	57.308
751.18	56.266
751.36	61.679
751.54	58.326
751.72	57.461
751.90	54.181
752.08	58.405
752.26	59.545
752.44	56.296
752.62	59.686
752.80	55.516
752.98	60.224
753.16	57.516
753.34	58.866
753.52	59.216
753.69	58.500
753.87	60.400
754.05	59.530
754.23	57.919
754.41	59.051
754.59	58.193
754.77	61.237
754.95	57.380
755.13	63.652
755.31	60.067
755.49	60.983
755.66	55.526
755.84	56.234
756.02	57.528
756.20	63.462
756.38	54.900
756.56	62.090
756.74	55.598
756.92	62.804
757.10	59.714
757.28	62.298
757.45	66.393
757.63	60.708
757.81	54.578
757.99	63.769
758.17	59.907
758.35	63.776
758.53	61.502
758.71	65.590
758.88	60.053
759.06	58.032
759.24	51.316
759.42	53.420
759.60	54.775
759.78	53.454
759.96	45.607
760.13	50.710
760.31	44.494
760.49	51.195
760.67	42.202
760.85	47.458
761.03	44.346
761.21	41.993
761.38	40.472
761.56	43.354
761.74	40.431
761.92	45.236
762.10	42.721
762.28	45.033
762.46	38.500
762.63	44.518
762.81	41.056
762.99	40.707
763.17	47.812
763.35	45.247
763.53	39.905
763.70	44.641
763.88	45.735
764.06	48.218
764.24	44.684
764.42	46.419
764.60	46.397
764.77	46.602
764.95	43.301
765.13	48.181
765.31	49.394
765.49	48.178
765.66	44.924
765.84	52.503
766.02	50.162
766.20	53.157
766.38	51.320
766.56	54.565
766.73	51.962
766.91	55.280
767.09	50.700
767.27	53.081
767.45	49.880
767.62	55.104
767.80	56.177
767.98	60.980
768.16	51.982
768.33	54.537
768.51	61.373
768.69	61.472
768.87	58.126
769.05	58.090
769.22	54.736
769.40	60.266
769.58	58.991
769.76	61.523
769.94	55.579
770.11	59.287
770.29	54.693
770.47	61.478
770.65	60.092
770.82	65.192
771.00	59.117
771.18	60.793
771.36	57.519
771.53	62.414
771.71	64.450
771.89	68.498
772.07	57.192
772.25	57.494
772.42	59.316
772.60	61.583
772.78	54.668
772.96	68.599
773.13	58.830
773.31	66.864
773.49	57.314
773.67	60.876
773.84	57.213
774.02	68.302
774.20	63.284
774.37	63.137
774.55	61.294
774.73	69.883
774.91	55.501
775.08	65.312
775.26	54.235
775.44	63.206
775.62	57.016
775.79	69.393
775.97	57.568
776.15	65.385
776.32	56.242
776.50	71.171
776.68	70.475
776.86	64.125
777.03	58.658
777.21	64.525
777.39	62.281
777.56	66.620
777.74	65.554
777.92	65.612
778.10	57.932
778.27	65.452
778.45	63.698
778.63	66.389
778.80	62.726
778.98	66.277
779.16	70.029
779.34	60.699
779.51	58.999
779.69	64.336
779.87	61.411
780.04	61.853
780.22	61.341
780.40	67.398
780.57	63.010
780.75	61.717
780.93	65.738
781.10	61.295
781.28	67.350
781.46	54.583
781.63	61.674
781.81	68.895
781.99	65.648
782.16	58.187
782.34	56.815
782.52	60.809
782.69	65.551
782.87	63.976
783.05	60.714
783.22	69.206
783.40	60.991
783.58	65.321
783.75	68.254
783.93	72.471
784.11	62.764
784.28	56.132
784.46	60.094
784.64	68.819
784.81	62.340
784.99	60.821
785.17	62.623
785.34	69.901
785.52	59.675
785.69	64.697
785.87	58.347
786.05	70.427
786.22	65.669
786.40	67.599
786.58	61.306
786.75	64.058
786.93	58.228
787.11	65.329
787.28	54.313
787.46	62.866
787.63	60.000
787.81	69.863
787.99	65.309
788.16	65.583
788.34	52.433
788.51	61.119
788.69	63.864
788.87	59.207
789.04	53.501
789.22	57.888
789.39	59.808
789.57	52.995
789.75	53.614
789.92	59.811
790.10	53.308
790.27	64.113
790.45	53.201
790.63	55.096
790.80	51.689
790.98	62.899
791.15	56.928
791.33	61.404
791.51	51.724
791.68	57.052
791.86	57.285
792.03	64.500
792.21	61.730
792.39	60.252
792.56	57.302
792.74	56.056
792.91	63.458
793.09	61.093
793.26	58.451
793.44	63.293
793.62	57.619
793.79	60.884
793.97	62.684
794.14	64.138
794.32	64.794
794.49	71.587
794.67	59.353
794.84	59.051
795.02	63.032
795.20	69.118
795.37	57.286
795.55	59.816
795.72	63.251
795.90	60.804
796.07	62.069
796.25	56.020
796.42	67.304
796.60	58.867
796.77	51.410
796.95	60.925
797.13	50.647
797.30	53.910
797.48	58.754
797.65	58.070
797.83	54.006
798.00	65.858
798.18	52.804
798.35	57.307
798.53	55.667
798.70	57.099
798.88	58.027
799.05	59.034
799.23	60.248
799.40	58.758
799.58	59.278
799.75	64.216
799.93	58.076
800.10	62.405
800.28	60.659
800.45	66.786
800.63	53.058
800.80	69.574
800.98	55.019
801.15	55.575
801.33	56.790
801.50	57.168
801.68	59.345
801.85	57.804
802.03	60.235
802.20	55.993
802.38	53.357
802.55	66.154
802.73	56.174
802.90	65.492
803.08	45.907
803.25	63.269
803.43	51.434
803.60	74.481
803.78	65.725
803.95	64.431
804.13	61.419
804.30	64.440
804.48	55.814
804.65	56.890
804.83	56.155
805.00	61.207
805.17	61.165
805.35	62.879
805.52	50.096
805.70	63.208
805.87	52.865
806.05	63.002
806.22	60.037
806.40	59.538
806.57	61.610
806.75	67.156
806.92	62.632
807.09	63.947
807.27	56.326
807.44	62.214
807.62	61.415
807.79	58.036
807.97	63.233
808.14	61.000
808.31	53.704
808.49	57.640
808.66	53.565
808.84	56.783
809.01	61.571
809.19	61.728
809.36	64.766
809.53	63.294
809.71	50.965
809.88	61.419
810.06	64.961
810.23	67.200
810.41	61.618
810.58	64.482
810.75	47.854
810.93	60.750
811.10	56.000
811.28	60.850
811.45	54.507
811.62	66.742
811.80	57.872
811.97	58.009
812.15	74.359
812.32	47.414
812.49	57.952
812.67	57.447
812.84	53.187
813.02	68.834
813.19	51.242
813.36	66.161
813.54	65.265
813.71	67.045
813.89	56.608
814.06	70.106
814.23	59.404
814.41	56.501
814.58	56.250
814.75	74.939
814.93	62.619
815.10	74.103
815.28	68.873
815.45	46.552
815.62	58.753
815.80	51.039
815.97	57.143
816.14	63.425
816.32	42.543
816.49	55.263
816.66	50.750
816.84	61.780
817.01	57.484
817.18	55.012
817.36	55.149
817.53	67.662
817.71	43.629
817.88	55.000
818.05	56.376
818.23	55.476
818.40	50.236
818.57	55.342
818.75	51.740
818.92	63.147
819.09	56.693
819.27	59.412
819.44	56.660
819.61	50.000
819.79	49.383
819.96	61.584
820.13	56.649
820.31	50.087
820.48	48.567
820.65	55.987
820.82	50.571
821.00	51.971
821.17	41.202
821.34	46.781
821.52	42.572
821.69	42.519
821.86	43.875
822.04	45.601
822.21	40.267
822.38	46.191
822.56	43.393
822.73	46.951
822.90	42.182
823.07	46.536
823.25	43.680
823.42	44.710
823.59	42.505
823.77	46.243
823.94	44.426
824.11	44.395
824.29	42.838
824.46	47.704
824.63	47.538
824.80	47.355
824.98	42.265
825.15	51.109
825.32	39.485
825.49	46.841
825.67	43.442
825.84	49.686
826.01	42.907
826.19	48.800
826.36	43.015
826.53	43.984
826.70	39.535
826.88	44.453
827.05	40.547
827.22	45.447
827.39	42.790
827.57	47.041
827.74	37.728
827.91	44.538
828.08	37.686
828.26	44.570
828.43	38.824
828.60	48.992
828.77	38.947
828.95	46.418
829.12	37.208
829.29	30.626
829.46	40.962
829.64	44.063
829.81	35.744
829.98	46.872
830.15	43.855
830.32	43.506
830.50	39.920
830.67	48.458
830.84	45.522
831.01	40.596
831.19	41.958
831.36	60.569
831.53	47.222
831.70	61.036
831.87	52.273
832.05	55.446
832.22	59.865
832.39	55.652
832.56	48.092
832.74	55.357
832.91	51.899
833.08	62.551
833.25	44.112
833.42	53.541
833.60	51.471
833.77	43.137
833.94	37.636
834.11	40.364
834.28	31.722
834.45	36.836
834.63	38.742
834.80	41.189
834.97	34.213
835.14	46.562
835.31	43.600
835.49	37.693
835.66	38.272
835.83	41.765
836.00	39.530
836.17	46.532
836.34	38.702
836.52	46.316
836.69	50.935
836.86	45.781
837.03	52.614
837.20	42.628
837.37	47.532
837.55	55.575
837.72	49.711
837.89	53.435
838.06	53.846
838.23	54.545
838.40	58.392
838.58	53.333
838.75	57.265
838.92	63.103
839.09	66.138
839.26	73.529
839.43	69.452
839.60	67.893
839.78	71.605
839.95	69.381
840.12	64.873
840.29	57.325
840.46	71.678
840.63	64.706
840.80	53.067
840.98	80.000
841.15	53.000
841.32	45.902
841.49	53.333
841.66	83.607
841.83	63.733
842.00	59.494
842.17	78.356
842.34	46.418
842.52	72.156
842.69	79.874
842.86	61.938
843.03	85.849
843.20	78.367
843.37	91.958
843.54	87.805
843.71	75.102
843.88	86.755
844.06	90.283
844.23	80.676
844.40	76.136
844.57	68.511
844.74	83.843
844.91	99.537
845.08	80.000
845.25	83.212
845.42	85.427
845.59	112.865
845.76	88.182
845.94	127.215
846.11	110.945
846.28	122.759
846.45	76.687
846.62	89.730
846.79	105.556
846.96	86.425
847.13	97.647
847.30	88.384
847.47	103.846
847.64	102.326
847.81	96.154
847.98	101.622
848.15	115.054
848.32	94.330
848.50	131.056
848.67	127.778
848.84	108.586
849.01	79.592
849.18	84.737
849.35	92.147
849.52	109.249
849.69	128.324
849.86	144.172
850.03	119.863
850.20	143.750
850.37	100.000
850.54	123.899
850.71	121.138
850.88	107.692
851.05	109.589
851.22	126.708
851.39	116.495
851.56	106.250
851.73	110.556
851.90	132.500
852.07	129.412
852.24	127.206
852.41	148.175
852.58	108.333
852.75	98.225
852.92	75.543
853.09	104.469
853.26	109.554
853.43	84.091
853.60	103.608
853.77	115.603
853.94	131.061
854.11	118.803
854.28	120.745
854.45	115.385
854.62	155.034
854.79	124.615
854.96	121.739
855.13	92.222
855.30	112.435
855.47	117.931
855.64	138.739
855.81	134.921
855.98	97.333
856.15	111.034
856.32	106.103
856.49	97.260
856.66	119.186
856.83	121.990
857.00	114.754
857.17	154.167
857.34	112.121
857.51	109.615
857.68	125.000
857.85	106.667
858.02	201.351
858.19	117.857
858.36	133.143
858.53	124.571
858.70	88.079
858.87	133.793
859.04	119.718
859.21	94.348
859.38	122.517
859.55	170.370
859.72	140.496
859.89	159.804
860.05	117.054
860.22	128.947
860.39	166.355
860.56	166.055
860.73	115.060
860.90	116.000
861.07	122.404
861.24	138.462
861.41	158.571
861.58	116.749
861.75	148.148
861.92	107.874
862.09	111.446
862.26	178.723
862.43	142.857
862.59	114.872
862.76	114.966
862.93	148.447
863.10	109.655
863.27	107.027
863.44	135.526
863.61	99.412
863.78	144.366
863.95	157.252
864.12	103.472
864.29	125.581
864.45	187.671
864.62	132.331
864.79	116.216
864.96	136.508
865.13	135.115
865.30	157.273
865.47	162.037
865.64	108.750
865.81	98.765
865.97	80.874
866.14	109.048
866.31	151.220
866.48	124.806
866.65	114.000
866.82	123.490
866.99	173.786
867.16	167.143
867.33	145.299
867.49	143.066
867.66	108.252
867.83	136.000
868.00	108.511
868.17	161.364
868.34	155.479
868.51	92.958
868.67	147.934
868.84	135.374
869.01	144.094
869.18	116.279
869.35	201.111
869.52	102.740
869.69	131.298
869.85	105.882
870.02	134.579
870.19	147.899
870.36	119.048
870.53	89.205
870.70	86.047
870.86	106.918
871.03	179.832
871.20	102.649
871.37	108.612
871.54	86.897
871.71	92.593
871.87	104.795
872.04	120.645
872.21	155.914
872.38	86.503
872.55	138.732
872.72	93.953
872.88	104.734
873.05	113.736
873.22	107.143
873.39	146.951
873.56	120.231
873.72	145.522
873.89	120.290
874.06	128.289
874.23	135.593
874.40	135.664
874.56	148.113
874.73	125.000
874.90	127.684
875.07	139.583
875.24	90.173
875.40	109.032
875.57	117.816
875.74	96.000
875.91	152.893
876.08	119.697
876.24	138.312
876.41	134.302
876.58	107.453
876.75	102.381
876.92	128.319
877.08	164.286
877.25	105.696
877.42	91.111
877.59	120.280
877.75	148.993
877.92	107.200
878.09	125.564
878.26	126.623
878.42	115.217
878.59	123.529
878.76	82.051
878.93	119.883
879.09	105.851
879.26	95.135
879.43	117.647
879.60	105.556
879.76	124.183
879.93	94.304
880.10	88.272
880.27	79.358
880.43	87.805
880.60	85.388
880.77	83.550
880.94	65.455
881.10	67.063
881.27	56.267
881.44	47.113
881.61	49.127
881.77	51.984
881.94	32.487
882.11	29.467
882.28	29.444
882.44	35.165
882.61	35.237
882.78	34.949
882.94	44.191
883.11	33.985
883.28	31.799
883.45	37.207
883.61	32.834
883.78	29.744
883.95	36.524
884.11	35.373
884.28	36.461
>>>>>End Processed Spectral Data<<<<<
