SpectraSuite Data File
++++++++++++++++++++++++++++++++++++
Date: Fri Sep 20 02:55:47 EST 2019
User: sgrac
Dark Spectrum Present: Yes
Reference Spectrum Present: Yes
Number of Sampled Component Spectra: 1
Spectrometers: USB4E01596
Integration Time (usec): 100000 (USB4E01596)
Spectra Averaged: 1 (USB4E01596)
Boxcar Smoothing: 0 (USB4E01596)
Correct for Electrical Dark: No (USB4E01596)
Strobe/Lamp Enabled: Yes (USB4E01596)
Correct for Detector Non-linearity: No (USB4E01596)
Correct for Stray Light: No (USB4E01596)
Number of Pixels in Processed Spectrum: 3648
>>>>>Begin Processed Spectral Data<<<<<
178.44	395.652
178.66	395.652
178.87	395.652
179.09	-215.000
179.30	173.333
179.52	417.857
179.74	1840.000
179.95	-191.429
180.17	-337.500
180.38	-587.500
180.60	-287.097
180.82	452.174
181.03	-1650.000
181.25	-740.000
181.46	-781.818
181.68	0.000
181.89	7800.000
182.11	1150.000
182.33	792.308
182.54	-248.571
182.76	260.000
182.97	322.222
183.19	1322.222
183.40	-475.000
183.62	700.000
183.84	-205.000
184.05	0.000
184.27	7400.000
184.48	470.000
184.70	3850.000
184.91	846.154
185.13	265.909
185.34	216.667
185.56	-428.571
185.78	415.789
185.99	-4550.000
186.21	385.714
186.42	675.000
186.64	167.164
186.85	125.926
187.07	529.167
187.28	-105.405
187.50	-427.273
187.72	228.125
187.93	7800.000
188.15	318.182
188.36	232.692
188.58	558.824
188.79	4300.000
189.01	429.412
189.22	375.000
189.44	282.979
189.65	-470.000
189.87	550.000
190.09	197.222
190.30	-2080.000
190.52	285.366
190.73	455.556
190.95	-653.846
191.16	-533.333
191.38	-417.391
191.59	755.556
191.81	295.000
192.02	257.500
192.24	171.429
192.45	317.143
192.67	331.818
192.88	0.000
193.10	258.824
193.31	-740.000
193.53	245.455
193.74	228.947
193.96	1210.000
194.18	146.377
194.39	196.000
194.61	363.333
194.82	337.931
195.04	691.667
195.25	229.787
195.47	584.211
195.68	-310.000
195.90	1900.000
196.11	2450.000
196.33	-270.370
196.54	382.759
196.76	131.111
196.97	377.778
197.19	-411.111
197.40	211.111
197.62	-528.571
197.83	500.000
198.05	284.211
198.26	377.273
198.48	741.667
198.69	388.571
198.91	500.000
199.12	205.000
199.34	216.923
199.55	-754.545
199.77	390.000
199.98	2220.000
200.20	772.727
200.41	378.788
200.63	-1380.000
200.84	295.122
201.06	-7000.000
201.27	476.471
201.49	188.525
201.70	700.000
201.91	468.750
202.13	435.000
202.34	2150.000
202.56	928.571
202.77	-933.333
202.99	526.667
203.20	380.952
203.42	-107.143
203.63	416.129
203.85	-179.167
204.06	2466.667
204.28	-2275.000
204.49	1071.429
204.71	177.083
204.92	855.556
205.14	0.000
205.35	613.333
205.56	285.714
205.78	297.436
205.99	237.838
206.21	337.931
206.42	1766.667
206.64	-170.732
206.85	653.333
207.07	738.462
207.28	400.000
207.50	-800.000
207.71	204.651
207.93	3550.000
208.14	-124.324
208.35	379.310
208.57	-550.000
208.78	317.241
209.00	247.368
209.21	0.000
209.43	291.304
209.64	186.047
209.86	885.714
210.07	681.818
210.28	382.143
210.50	1980.000
210.71	182.051
210.93	223.684
211.14	168.852
211.36	357.143
211.57	1137.500
211.78	-159.091
212.00	292.308
212.21	-257.895
212.43	258.065
212.64	200.000
212.86	321.429
213.07	267.857
213.29	125.000
213.50	-194.118
213.71	-4500.000
213.93	-922.222
214.14	293.333
214.36	-1600.000
214.57	129.070
214.78	262.857
215.00	-2533.333
215.21	-1316.667
215.43	-254.545
215.64	725.000
215.86	-1900.000
216.07	419.048
216.28	191.935
216.50	238.298
216.71	-1380.000
216.93	678.571
217.14	288.889
217.35	198.684
217.57	-413.333
217.78	827.273
218.00	261.364
218.21	185.246
218.42	161.224
218.64	237.778
218.85	201.724
219.07	222.000
219.28	385.714
219.49	-945.455
219.71	307.143
219.92	1383.333
220.14	3666.667
220.35	1500.000
220.56	780.000
220.78	188.889
220.99	1583.333
221.21	270.270
221.42	348.148
221.63	291.667
221.85	6600.000
222.06	310.345
222.28	445.000
222.49	8200.000
222.70	-2666.667
222.92	135.714
223.13	128.986
223.34	245.455
223.56	78.378
223.77	581.250
223.99	135.897
224.20	126.126
224.41	334.884
224.63	264.706
224.84	200.000
225.05	100.000
225.27	216.667
225.48	112.658
225.69	150.000
225.91	96.104
226.12	132.258
226.34	88.406
226.55	98.437
226.76	120.896
226.98	100.000
227.19	113.333
227.40	86.667
227.62	83.784
227.83	98.947
228.04	107.407
228.26	42.593
228.47	54.167
228.69	62.637
228.90	60.112
229.11	31.418
229.33	33.607
229.54	59.592
229.75	28.517
229.97	27.027
230.18	25.815
230.39	27.353
230.61	17.702
230.82	27.124
231.03	30.026
231.25	21.802
231.46	33.968
231.67	36.486
231.89	46.691
232.10	37.023
232.31	22.326
232.53	39.382
232.74	30.328
232.95	39.196
233.17	41.667
233.38	50.463
233.59	46.471
233.81	61.504
234.02	21.182
234.23	55.376
234.45	69.536
234.66	43.069
234.87	62.791
235.09	20.000
235.30	-1.290
235.51	32.759
235.73	31.250
235.94	44.803
236.15	35.448
236.36	43.460
236.58	51.883
236.79	43.243
237.00	36.948
237.22	44.828
237.43	48.889
237.64	49.545
237.86	53.431
238.07	34.263
238.28	24.537
238.50	49.174
238.71	29.787
238.92	47.059
239.13	47.321
239.35	22.581
239.56	18.721
239.77	45.850
239.99	36.328
240.20	42.806
240.41	26.646
240.63	25.846
240.84	31.132
241.05	12.251
241.26	20.640
241.48	28.715
241.69	18.510
241.90	25.714
242.12	15.091
242.33	25.285
242.54	19.017
242.75	14.865
242.97	11.396
243.18	13.246
243.39	9.948
243.61	14.733
243.82	11.893
244.03	8.313
244.24	10.967
244.46	10.304
244.67	14.667
244.88	17.318
245.09	15.893
245.31	9.768
245.52	12.925
245.73	16.129
245.95	26.030
246.16	15.669
246.37	12.584
246.58	14.286
246.80	14.897
247.01	11.323
247.22	6.955
247.43	9.256
247.65	6.645
247.86	8.969
248.07	4.793
248.28	7.856
248.50	7.272
248.71	9.242
248.92	5.093
249.13	5.787
249.35	5.529
249.56	11.387
249.77	9.160
249.98	9.455
250.20	14.653
250.41	12.971
250.62	8.043
250.83	11.628
251.05	16.579
251.26	9.890
251.47	14.915
251.68	12.991
251.90	20.846
252.11	17.898
252.32	16.407
252.53	15.528
252.75	5.186
252.96	10.025
253.17	9.469
253.38	11.045
253.59	7.556
253.81	12.329
254.02	11.744
254.23	10.930
254.44	15.629
254.66	9.831
254.87	7.029
255.08	14.490
255.29	20.826
255.50	19.231
255.72	17.836
255.93	9.950
256.14	18.936
256.35	30.787
256.57	11.213
256.78	18.962
256.99	7.565
257.20	12.784
257.41	13.524
257.63	17.143
257.84	15.608
258.05	18.197
258.26	17.148
258.47	16.873
258.69	20.111
258.90	6.354
259.11	12.229
259.32	11.007
259.53	10.707
259.75	9.177
259.96	8.790
260.17	8.468
260.38	7.490
260.59	7.937
260.81	3.226
261.02	5.106
261.23	4.903
261.44	5.645
261.65	5.957
261.87	6.928
262.08	8.111
262.29	5.379
262.50	6.526
262.71	6.889
262.92	9.022
263.14	13.675
263.35	11.235
263.56	8.958
263.77	9.197
263.98	13.147
264.20	7.202
264.41	14.007
264.62	6.871
264.83	6.467
265.04	13.529
265.25	14.197
265.47	12.096
265.68	12.060
265.89	13.239
266.10	12.421
266.31	11.469
266.52	8.961
266.74	9.091
266.95	10.000
267.16	11.085
267.37	7.872
267.58	10.123
267.79	11.545
268.01	8.459
268.22	6.510
268.43	7.795
268.64	6.440
268.85	7.541
269.06	8.999
269.27	11.551
269.49	8.386
269.70	9.570
269.91	9.908
270.12	5.709
270.33	10.776
270.54	8.365
270.75	7.827
270.97	7.897
271.18	10.646
271.39	11.545
271.60	10.927
271.81	8.167
272.02	10.834
272.23	7.840
272.45	7.914
272.66	5.662
272.87	10.215
273.08	6.156
273.29	6.773
273.50	4.401
273.71	7.293
273.92	5.304
274.14	8.779
274.35	9.401
274.56	7.594
274.77	8.661
274.98	9.302
275.19	4.462
275.40	7.035
275.61	9.930
275.83	8.678
276.04	5.690
276.25	7.009
276.46	7.105
276.67	9.162
276.88	7.454
277.09	11.175
277.30	10.435
277.51	6.432
277.73	9.122
277.94	11.297
278.15	7.719
278.36	9.044
278.57	6.940
278.78	8.692
278.99	4.754
279.20	9.800
279.41	13.805
279.62	8.581
279.84	9.450
280.05	9.477
280.26	9.181
280.47	8.764
280.68	8.813
280.89	9.192
281.10	9.002
281.31	9.766
281.52	8.777
281.73	8.828
281.94	5.184
282.16	8.118
282.37	10.557
282.58	8.151
282.79	5.626
283.00	7.380
283.21	0.671
283.42	6.504
283.63	6.667
283.84	7.626
284.05	6.585
284.26	7.087
284.47	6.811
284.68	9.363
284.89	5.856
285.11	5.642
285.32	6.226
285.53	7.574
285.74	7.630
285.95	6.727
286.16	6.481
286.37	5.886
286.58	6.139
286.79	4.525
287.00	6.029
287.21	6.168
287.42	4.256
287.63	4.901
287.84	5.623
288.05	4.661
288.26	5.997
288.48	7.482
288.69	5.862
288.90	5.821
289.11	6.429
289.32	4.994
289.53	6.472
289.74	7.256
289.95	5.635
290.16	10.184
290.37	6.275
290.58	5.850
290.79	3.337
291.00	8.772
291.21	6.280
291.42	5.866
291.63	5.830
291.84	6.786
292.05	4.392
292.26	4.828
292.47	6.670
292.68	3.977
292.89	5.588
293.10	7.613
293.31	4.146
293.52	5.105
293.73	6.360
293.94	6.728
294.15	6.016
294.36	5.242
294.57	8.149
294.79	5.791
295.00	2.610
295.21	5.266
295.42	8.397
295.63	7.542
295.84	5.382
296.05	6.627
296.26	6.041
296.47	5.469
296.68	5.170
296.89	5.055
297.10	5.062
297.31	5.556
297.52	3.799
297.73	3.763
297.94	3.895
298.15	3.435
298.36	3.674
298.57	4.810
298.78	5.602
298.99	4.085
299.20	3.689
299.41	5.865
299.62	4.314
299.83	4.124
300.04	3.515
300.25	7.807
300.46	5.894
300.67	6.522
300.88	5.666
301.09	3.498
301.30	5.718
301.50	6.017
301.71	8.002
301.92	8.855
302.13	6.414
302.34	1.599
302.55	6.089
302.76	6.794
302.97	6.190
303.18	6.413
303.39	3.374
303.60	5.084
303.81	7.143
304.02	4.887
304.23	5.658
304.44	5.818
304.65	4.204
304.86	5.934
305.07	5.169
305.28	4.408
305.49	3.786
305.70	5.711
305.91	5.969
306.12	4.127
306.33	3.855
306.54	5.331
306.75	4.716
306.96	4.473
307.17	5.462
307.38	8.993
307.58	6.498
307.79	7.907
308.00	3.701
308.21	5.248
308.42	5.296
308.63	3.671
308.84	6.690
309.05	2.907
309.26	5.638
309.47	6.998
309.68	5.631
309.89	6.985
310.10	1.986
310.31	7.146
310.52	3.168
310.73	5.411
310.94	5.197
311.14	3.582
311.35	3.439
311.56	2.977
311.77	3.716
311.98	4.435
312.19	6.307
312.40	5.604
312.61	5.279
312.82	4.899
313.03	4.267
313.24	7.229
313.45	4.463
313.66	5.281
313.86	4.374
314.07	4.071
314.28	5.141
314.49	4.652
314.70	6.247
314.91	8.018
315.12	4.783
315.33	5.088
315.54	3.317
315.75	5.149
315.96	4.366
316.16	3.190
316.37	3.926
316.58	5.304
316.79	6.313
317.00	7.631
317.21	3.702
317.42	3.258
317.63	7.270
317.84	4.244
318.05	5.487
318.25	4.543
318.46	5.112
318.67	5.970
318.88	6.416
319.09	6.225
319.30	4.974
319.51	5.042
319.72	6.438
319.93	6.181
320.13	4.382
320.34	5.802
320.55	6.214
320.76	7.711
320.97	0.740
321.18	6.928
321.39	3.794
321.60	5.942
321.80	5.351
322.01	8.620
322.22	6.401
322.43	8.002
322.64	6.526
322.85	5.834
323.06	5.987
323.27	6.078
323.47	3.028
323.68	8.850
323.89	5.813
324.10	6.558
324.31	7.246
324.52	5.755
324.73	7.886
324.93	3.498
325.14	3.202
325.35	5.975
325.56	4.935
325.77	4.000
325.98	6.323
326.19	6.017
326.39	5.854
326.60	5.322
326.81	3.829
327.02	4.711
327.23	2.859
327.44	6.946
327.64	3.240
327.85	5.513
328.06	5.080
328.27	7.998
328.48	5.544
328.69	4.682
328.90	6.829
329.10	3.144
329.31	5.999
329.52	5.736
329.73	7.705
329.94	3.914
330.15	4.831
330.35	7.253
330.56	5.225
330.77	6.721
330.98	8.672
331.19	2.929
331.39	4.300
331.60	4.364
331.81	5.838
332.02	6.788
332.23	8.011
332.44	7.269
332.64	6.066
332.85	6.829
333.06	6.466
333.27	4.403
333.48	5.654
333.68	4.522
333.89	3.043
334.10	4.759
334.31	8.054
334.52	5.492
334.72	4.489
334.93	6.613
335.14	3.734
335.35	8.482
335.56	6.042
335.76	5.496
335.97	5.221
336.18	2.303
336.39	6.370
336.60	4.724
336.80	5.710
337.01	3.833
337.22	3.247
337.43	4.597
337.64	6.667
337.84	6.069
338.05	4.360
338.26	5.454
338.47	5.051
338.68	4.879
338.88	3.833
339.09	4.941
339.30	4.231
339.51	3.481
339.71	6.308
339.92	4.101
340.13	7.204
340.34	4.171
340.55	4.941
340.75	5.966
340.96	2.987
341.17	5.633
341.38	4.684
341.58	5.397
341.79	4.710
342.00	5.021
342.21	5.171
342.41	7.488
342.62	5.188
342.83	4.684
343.04	4.360
343.24	5.280
343.45	4.202
343.66	5.823
343.87	4.855
344.07	6.579
344.28	6.231
344.49	5.127
344.70	4.978
344.90	4.561
345.11	4.723
345.32	5.024
345.53	5.729
345.73	2.858
345.94	6.183
346.15	6.513
346.36	5.103
346.56	4.244
346.77	5.899
346.98	5.614
347.19	6.658
347.39	5.339
347.60	4.934
347.81	6.152
348.02	4.809
348.22	4.325
348.43	5.175
348.64	3.059
348.84	4.263
349.05	3.514
349.26	6.018
349.47	2.723
349.67	3.677
349.88	7.230
350.09	5.047
350.30	5.629
350.50	5.843
350.71	7.624
350.92	4.784
351.12	4.698
351.33	5.603
351.54	4.778
351.74	4.715
351.95	4.561
352.16	5.299
352.37	6.180
352.57	5.207
352.78	4.630
352.99	3.328
353.19	4.626
353.40	6.323
353.61	6.490
353.82	5.482
354.02	5.438
354.23	6.664
354.44	7.779
354.64	3.843
354.85	6.480
355.06	3.109
355.26	5.381
355.47	4.022
355.68	4.116
355.88	5.421
356.09	5.642
356.30	4.804
356.51	7.228
356.71	4.837
356.92	5.330
357.13	5.895
357.33	7.952
357.54	6.606
357.75	3.638
357.95	5.939
358.16	4.963
358.37	6.152
358.57	4.720
358.78	7.471
358.99	5.386
359.19	4.338
359.40	6.708
359.61	5.080
359.81	8.426
360.02	5.976
360.23	3.988
360.43	4.345
360.64	6.007
360.85	4.165
361.05	3.809
361.26	5.440
361.47	4.088
361.67	5.920
361.88	3.712
362.09	4.443
362.29	4.296
362.50	4.044
362.70	2.854
362.91	5.562
363.12	3.944
363.32	3.409
363.53	4.925
363.74	4.665
363.94	3.401
364.15	5.277
364.36	4.922
364.56	3.104
364.77	4.942
364.98	7.076
365.18	4.903
365.39	5.546
365.59	3.977
365.80	2.517
366.01	6.385
366.21	4.736
366.42	5.643
366.63	6.178
366.83	4.585
367.04	2.150
367.24	6.139
367.45	6.737
367.66	2.455
367.86	4.311
368.07	4.180
368.28	5.325
368.48	3.995
368.69	3.671
368.89	5.823
369.10	3.900
369.31	5.818
369.51	5.459
369.72	6.195
369.92	5.143
370.13	3.893
370.34	4.663
370.54	2.735
370.75	5.871
370.95	3.185
371.16	6.996
371.37	3.489
371.57	4.009
371.78	3.856
371.98	4.880
372.19	5.502
372.40	3.349
372.60	2.719
372.81	4.808
373.01	3.577
373.22	4.276
373.43	4.896
373.63	2.997
373.84	4.426
374.04	5.176
374.25	3.674
374.46	5.118
374.66	4.061
374.87	5.078
375.07	3.774
375.28	3.332
375.48	5.402
375.69	3.994
375.90	4.420
376.10	2.130
376.31	2.975
376.51	4.127
376.72	3.485
376.92	3.709
377.13	5.156
377.34	5.941
377.54	3.910
377.75	5.110
377.95	3.749
378.16	4.991
378.36	5.467
378.57	4.074
378.77	3.687
378.98	2.715
379.19	5.590
379.39	4.971
379.60	4.688
379.80	4.204
380.01	4.813
380.21	4.058
380.42	3.825
380.62	4.922
380.83	4.799
381.04	3.099
381.24	4.008
381.45	3.865
381.65	2.993
381.86	4.441
382.06	4.896
382.27	3.448
382.47	3.834
382.68	4.830
382.88	3.745
383.09	4.410
383.29	3.672
383.50	3.606
383.71	4.320
383.91	3.418
384.12	3.961
384.32	4.268
384.53	4.298
384.73	3.796
384.94	3.030
385.14	4.244
385.35	3.103
385.55	3.551
385.76	3.765
385.96	4.018
386.17	3.989
386.37	3.503
386.58	3.182
386.78	4.016
386.99	3.060
387.19	3.852
387.40	3.254
387.60	4.442
387.81	3.475
388.01	3.627
388.22	4.568
388.42	4.269
388.63	4.385
388.83	4.100
389.04	3.149
389.24	3.357
389.45	3.037
389.65	3.238
389.86	3.229
390.06	3.843
390.27	2.847
390.47	2.644
390.68	2.535
390.88	4.312
391.09	3.931
391.29	3.890
391.50	2.867
391.70	4.024
391.91	2.879
392.11	2.206
392.32	3.995
392.52	3.276
392.73	3.173
392.93	3.596
393.14	2.860
393.34	3.310
393.55	5.191
393.75	4.745
393.95	3.760
394.16	2.655
394.36	4.191
394.57	4.020
394.77	2.928
394.98	2.547
395.18	3.441
395.39	3.285
395.59	2.696
395.80	3.796
396.00	2.726
396.21	4.415
396.41	2.022
396.61	3.680
396.82	3.954
397.02	5.242
397.23	3.442
397.43	4.543
397.64	3.628
397.84	4.580
398.05	2.001
398.25	3.624
398.45	2.676
398.66	3.481
398.86	2.800
399.07	4.251
399.27	4.258
399.48	3.968
399.68	2.154
399.89	2.920
400.09	3.414
400.29	2.578
400.50	3.790
400.70	3.942
400.91	3.379
401.11	2.754
401.32	3.765
401.52	2.419
401.72	3.324
401.93	4.991
402.13	3.950
402.34	3.021
402.54	3.555
402.75	2.883
402.95	3.379
403.15	4.093
403.36	2.472
403.56	2.834
403.77	3.062
403.97	3.812
404.17	3.087
404.38	3.467
404.58	2.522
404.79	3.572
404.99	4.118
405.19	3.146
405.40	3.111
405.60	2.751
405.81	2.397
406.01	3.198
406.21	3.543
406.42	2.860
406.62	3.086
406.83	3.677
407.03	3.602
407.23	2.782
407.44	3.260
407.64	3.187
407.85	3.316
408.05	3.059
408.25	2.689
408.46	3.884
408.66	3.741
408.87	3.485
409.07	3.204
409.27	3.516
409.48	3.047
409.68	3.669
409.88	3.389
410.09	4.026
410.29	3.392
410.50	4.794
410.70	1.936
410.90	3.593
411.11	2.371
411.31	2.605
411.51	3.019
411.72	3.367
411.92	2.934
412.12	2.239
412.33	2.524
412.53	2.934
412.74	2.374
412.94	3.064
413.14	3.225
413.35	2.852
413.55	2.934
413.75	4.253
413.96	2.894
414.16	3.744
414.36	3.066
414.57	3.646
414.77	1.675
414.97	3.286
415.18	4.172
415.38	3.105
415.58	3.122
415.79	2.925
415.99	2.472
416.19	2.835
416.40	3.247
416.60	2.885
416.80	2.762
417.01	2.752
417.21	1.866
417.41	4.034
417.62	2.641
417.82	3.160
418.02	2.694
418.23	3.180
418.43	2.616
418.63	2.784
418.84	3.309
419.04	2.243
419.24	2.977
419.45	2.944
419.65	3.109
419.85	3.338
420.06	3.034
420.26	3.387
420.46	2.848
420.67	3.066
420.87	3.537
421.07	4.095
421.28	3.187
421.48	3.757
421.68	3.285
421.88	3.662
422.09	3.796
422.29	2.985
422.49	2.694
422.70	2.819
422.90	3.312
423.10	3.641
423.31	3.297
423.51	4.210
423.71	2.838
423.91	3.978
424.12	3.493
424.32	3.518
424.52	3.421
424.73	2.886
424.93	2.922
425.13	2.532
425.33	3.176
425.54	3.993
425.74	2.842
425.94	3.990
426.15	3.015
426.35	2.981
426.55	2.963
426.75	3.860
426.96	3.265
427.16	3.092
427.36	3.318
427.57	3.869
427.77	2.698
427.97	3.632
428.17	3.917
428.38	3.772
428.58	2.019
428.78	3.118
428.98	2.303
429.19	2.612
429.39	1.682
429.59	3.069
429.79	2.353
430.00	2.964
430.20	2.661
430.40	3.174
430.60	2.230
430.81	3.577
431.01	2.386
431.21	2.789
431.41	1.960
431.62	3.425
431.82	2.522
432.02	3.574
432.22	2.747
432.43	1.961
432.63	1.741
432.83	2.686
433.03	2.431
433.24	2.630
433.44	2.573
433.64	2.913
433.84	2.412
434.05	3.266
434.25	2.475
434.45	3.746
434.65	3.523
434.85	3.994
435.06	2.870
435.26	3.166
435.46	2.988
435.66	3.218
435.87	2.468
436.07	3.125
436.27	3.120
436.47	1.901
436.67	1.919
436.88	3.364
437.08	2.767
437.28	2.565
437.48	2.446
437.69	3.314
437.89	2.982
438.09	3.347
438.29	2.550
438.49	2.778
438.70	2.616
438.90	2.068
439.10	2.130
439.30	2.795
439.50	1.918
439.71	3.013
439.91	2.442
440.11	3.711
440.31	2.697
440.51	2.869
440.72	2.729
440.92	2.571
441.12	3.012
441.32	3.858
441.52	3.007
441.72	3.308
441.93	2.690
442.13	3.598
442.33	2.403
442.53	4.237
442.73	1.813
442.94	3.047
443.14	3.079
443.34	3.388
443.54	3.286
443.74	3.782
443.94	2.760
444.15	2.169
444.35	2.792
444.55	3.375
444.75	2.881
444.95	3.142
445.15	2.667
445.36	2.891
445.56	1.917
445.76	3.553
445.96	3.089
446.16	2.593
446.36	2.393
446.57	3.623
446.77	2.701
446.97	3.881
447.17	3.731
447.37	3.523
447.57	3.747
447.77	3.664
447.98	2.955
448.18	3.889
448.38	2.679
448.58	3.827
448.78	3.466
448.98	3.713
449.18	2.895
449.39	2.958
449.59	2.586
449.79	2.644
449.99	2.552
450.19	2.879
450.39	3.414
450.59	3.291
450.79	2.303
451.00	4.062
451.20	3.522
451.40	2.492
451.60	2.552
451.80	3.432
452.00	2.225
452.20	3.174
452.40	3.033
452.61	2.461
452.81	2.776
453.01	3.274
453.21	2.263
453.41	2.743
453.61	2.762
453.81	3.058
454.01	2.629
454.21	3.108
454.42	3.677
454.62	2.557
454.82	3.258
455.02	2.238
455.22	2.762
455.42	1.976
455.62	1.569
455.82	3.651
456.02	2.342
456.23	2.691
456.43	2.912
456.63	2.212
456.83	2.427
457.03	3.496
457.23	2.373
457.43	2.857
457.63	2.472
457.83	2.840
458.03	2.659
458.23	3.142
458.43	1.928
458.64	2.403
458.84	2.456
459.04	2.889
459.24	3.461
459.44	3.231
459.64	2.662
459.84	3.924
460.04	2.927
460.24	3.569
460.44	3.384
460.64	4.134
460.84	3.091
461.04	4.377
461.24	4.145
461.45	4.959
461.65	4.441
461.85	4.264
462.05	3.957
462.25	3.862
462.45	4.299
462.65	3.680
462.85	2.329
463.05	3.740
463.25	1.769
463.45	4.010
463.65	2.457
463.85	3.185
464.05	2.767
464.25	2.914
464.45	3.388
464.65	3.019
464.85	2.004
465.05	3.187
465.26	3.109
465.46	3.360
465.66	3.666
465.86	3.530
466.06	2.941
466.26	3.089
466.46	2.302
466.66	3.150
466.86	3.520
467.06	3.478
467.26	3.627
467.46	3.618
467.66	3.231
467.86	3.393
468.06	3.229
468.26	2.512
468.46	3.217
468.66	3.154
468.86	1.975
469.06	4.219
469.26	2.302
469.46	3.275
469.66	3.677
469.86	4.107
470.06	2.612
470.26	3.754
470.46	2.766
470.66	4.682
470.86	3.089
471.06	3.682
471.26	2.236
471.46	2.901
471.66	3.989
471.86	3.538
472.06	2.800
472.26	4.376
472.46	4.358
472.66	4.169
472.86	2.780
473.06	3.602
473.26	3.499
473.46	3.726
473.66	2.778
473.86	3.700
474.06	1.937
474.26	3.790
474.46	2.144
474.66	3.558
474.86	3.294
475.06	3.387
475.26	1.903
475.46	3.672
475.66	2.498
475.86	3.727
476.06	3.131
476.26	4.202
476.46	3.196
476.66	4.318
476.86	2.895
477.06	2.950
477.26	3.346
477.46	3.612
477.65	3.431
477.85	4.038
478.05	1.674
478.25	4.588
478.45	3.509
478.65	3.793
478.85	2.372
479.05	3.956
479.25	3.537
479.45	4.364
479.65	2.908
479.85	3.255
480.05	3.973
480.25	3.963
480.45	3.259
480.65	4.713
480.85	3.096
481.05	4.382
481.25	4.329
481.44	3.550
481.64	2.748
481.84	4.709
482.04	3.677
482.24	4.431
482.44	3.007
482.64	3.878
482.84	4.396
483.04	4.675
483.24	4.270
483.44	5.105
483.64	4.580
483.84	5.222
484.04	5.103
484.23	5.407
484.43	5.634
484.63	5.862
484.83	5.958
485.03	6.544
485.23	6.508
485.43	6.592
485.63	6.235
485.83	6.156
486.03	5.650
486.23	6.054
486.42	5.342
486.62	6.189
486.82	5.522
487.02	5.731
487.22	5.039
487.42	5.518
487.62	5.108
487.82	5.344
488.02	5.055
488.22	5.663
488.41	5.093
488.61	5.668
488.81	5.478
489.01	5.471
489.21	5.525
489.41	5.505
489.61	5.417
489.81	6.067
490.01	5.825
490.20	5.725
490.40	5.625
490.60	5.637
490.80	5.013
491.00	5.300
491.20	4.797
491.40	4.772
491.60	4.451
491.79	5.009
491.99	5.329
492.19	5.221
492.39	4.975
492.59	5.405
492.79	5.290
492.99	5.351
493.19	5.253
493.38	5.413
493.58	4.867
493.78	5.418
493.98	5.684
494.18	5.771
494.38	4.955
494.58	5.624
494.77	3.118
494.97	4.510
495.17	3.914
495.37	4.229
495.57	3.912
495.77	4.729
495.96	4.081
496.16	3.818
496.36	4.475
496.56	4.840
496.76	3.427
496.96	3.977
497.15	3.345
497.35	4.200
497.55	3.447
497.75	4.493
497.95	3.429
498.15	5.041
498.34	3.801
498.54	3.618
498.74	4.240
498.94	4.738
499.14	3.448
499.34	5.188
499.53	3.796
499.73	4.487
499.93	3.546
500.13	4.123
500.33	3.485
500.52	3.762
500.72	3.638
500.92	3.335
501.12	2.747
501.32	3.933
501.52	3.871
501.71	3.488
501.91	2.783
502.11	3.767
502.31	2.809
502.51	4.678
502.70	2.975
502.90	3.687
503.10	3.140
503.30	4.495
503.50	3.255
503.69	3.284
503.89	3.813
504.09	4.894
504.29	3.028
504.48	4.078
504.68	4.271
504.88	4.335
505.08	2.557
505.28	3.833
505.47	3.989
505.67	4.340
505.87	3.187
506.07	4.117
506.27	3.334
506.46	4.308
506.66	3.587
506.86	3.931
507.06	4.551
507.25	3.279
507.45	3.608
507.65	4.625
507.85	3.272
508.04	4.855
508.24	4.125
508.44	4.326
508.64	3.356
508.83	4.051
509.03	2.856
509.23	4.274
509.43	3.098
509.63	4.193
509.82	3.015
510.02	3.856
510.22	3.454
510.42	5.002
510.61	4.159
510.81	4.170
511.01	3.562
511.21	4.698
511.40	3.293
511.60	4.651
511.80	3.173
511.99	4.907
512.19	4.175
512.39	4.573
512.59	2.966
512.78	5.010
512.98	4.941
513.18	3.767
513.38	3.978
513.57	4.929
513.77	3.418
513.97	4.931
514.17	3.460
514.36	3.803
514.56	4.062
514.76	4.868
514.95	2.700
515.15	4.027
515.35	2.797
515.55	4.368
515.74	4.854
515.94	4.538
516.14	3.160
516.33	4.271
516.53	3.407
516.73	3.565
516.93	3.432
517.12	4.654
517.32	2.897
517.52	4.078
517.71	3.377
517.91	3.960
518.11	3.989
518.30	4.033
518.50	3.506
518.70	4.348
518.90	4.253
519.09	4.786
519.29	4.508
519.49	5.260
519.68	3.911
519.88	5.564
520.08	4.436
520.27	5.480
520.47	4.432
520.67	4.624
520.86	4.805
521.06	5.359
521.26	3.590
521.45	4.931
521.65	3.830
521.85	3.482
522.04	3.339
522.24	4.219
522.44	3.109
522.63	4.700
522.83	3.034
523.03	4.270
523.22	3.891
523.42	4.649
523.62	4.794
523.81	4.097
524.01	4.138
524.21	3.685
524.40	3.445
524.60	4.238
524.80	3.549
524.99	3.691
525.19	3.943
525.39	4.556
525.58	4.297
525.78	4.951
525.98	4.419
526.17	5.078
526.37	4.576
526.57	5.014
526.76	5.079
526.96	5.221
527.15	4.240
527.35	5.234
527.55	4.504
527.74	5.438
527.94	4.819
528.14	5.486
528.33	5.107
528.53	5.661
528.72	5.175
528.92	5.922
529.12	5.692
529.31	5.787
529.51	6.023
529.71	6.200
529.90	5.729
530.10	6.124
530.29	6.067
530.49	6.187
530.69	6.066
530.88	6.159
531.08	5.741
531.28	5.758
531.47	5.471
531.67	5.896
531.86	5.435
532.06	5.546
532.26	4.592
532.45	5.724
532.65	4.553
532.84	5.475
533.04	4.386
533.24	5.439
533.43	4.862
533.63	5.704
533.82	5.428
534.02	6.105
534.22	5.417
534.41	5.907
534.61	5.787
534.80	5.782
535.00	6.058
535.19	6.150
535.39	5.990
535.59	5.722
535.78	4.737
535.98	5.274
536.17	4.293
536.37	5.002
536.57	4.939
536.76	5.786
536.96	4.787
537.15	5.750
537.35	4.543
537.54	5.568
537.74	5.092
537.93	5.804
538.13	4.544
538.33	5.936
538.52	4.874
538.72	5.385
538.91	5.175
539.11	5.206
539.30	3.998
539.50	4.805
539.70	4.229
539.89	4.988
540.09	4.743
540.28	4.793
540.48	3.971
540.67	5.013
540.87	4.958
541.06	5.099
541.26	4.689
541.45	5.621
541.65	5.623
541.85	5.995
542.04	5.283
542.24	6.317
542.43	5.977
542.63	5.897
542.82	5.892
543.02	6.483
543.21	5.753
543.41	6.186
543.60	5.442
543.80	6.089
543.99	5.280
544.19	5.913
544.38	5.169
544.58	6.087
544.77	5.292
544.97	6.319
545.16	4.507
545.36	5.586
545.56	4.544
545.75	5.532
545.95	4.735
546.14	5.586
546.34	4.178
546.53	5.561
546.73	4.807
546.92	5.450
547.12	4.509
547.31	5.832
547.51	4.931
547.70	5.680
547.90	4.374
548.09	5.345
548.29	4.650
548.48	5.658
548.68	4.580
548.87	5.763
549.07	5.556
549.26	5.116
549.46	3.840
549.65	4.649
549.84	4.211
550.04	4.374
550.23	3.782
550.43	3.978
550.62	4.380
550.82	4.521
551.01	2.719
551.21	4.072
551.40	3.756
551.60	3.999
551.79	3.334
551.99	4.353
552.18	3.580
552.38	4.254
552.57	4.786
552.77	5.013
552.96	4.548
553.16	4.812
553.35	4.179
553.54	5.743
553.74	4.994
553.93	5.847
554.13	5.201
554.32	5.114
554.52	3.938
554.71	5.190
554.91	3.541
555.10	5.218
555.29	4.045
555.49	4.667
555.68	3.563
555.88	5.317
556.07	3.580
556.27	4.611
556.46	4.531
556.66	4.402
556.85	4.668
557.04	5.361
557.24	4.519
557.43	5.104
557.63	4.831
557.82	4.025
558.02	4.368
558.21	5.048
558.40	3.747
558.60	4.974
558.79	4.040
558.99	5.352
559.18	3.958
559.38	4.577
559.57	3.948
559.76	5.079
559.96	4.673
560.15	5.233
560.35	3.879
560.54	4.425
560.73	3.572
560.93	5.146
561.12	4.645
561.32	5.052
561.51	5.086
561.70	4.950
561.90	4.780
562.09	5.961
562.29	4.354
562.48	5.689
562.67	5.061
562.87	5.660
563.06	4.849
563.26	5.212
563.45	5.142
563.64	5.993
563.84	4.772
564.03	5.955
564.23	4.657
564.42	7.053
564.61	5.041
564.81	5.914
565.00	6.632
565.20	6.260
565.39	5.831
565.58	6.242
565.78	4.640
565.97	6.790
566.16	6.598
566.36	8.290
566.55	5.692
566.74	6.380
566.94	5.868
567.13	7.802
567.33	6.833
567.52	6.757
567.71	6.898
567.91	7.772
568.10	6.888
568.29	7.935
568.49	6.125
568.68	6.671
568.87	5.691
569.07	7.872
569.26	6.508
569.45	7.972
569.65	6.411
569.84	7.678
570.04	6.929
570.23	7.656
570.42	5.190
570.62	7.872
570.81	6.697
571.00	7.290
571.20	7.674
571.39	8.271
571.58	6.608
571.78	7.754
571.97	7.477
572.16	7.709
572.36	8.031
572.55	8.421
572.74	8.142
572.94	7.643
573.13	8.411
573.32	8.823
573.51	7.555
573.71	8.166
573.90	6.995
574.09	8.359
574.29	8.346
574.48	8.736
574.67	7.508
574.87	8.118
575.06	7.436
575.25	8.671
575.45	7.827
575.64	8.406
575.83	7.482
576.03	8.628
576.22	7.663
576.41	8.407
576.60	6.928
576.80	8.329
576.99	8.519
577.18	9.574
577.38	6.833
577.57	7.730
577.76	7.997
577.95	7.811
578.15	6.744
578.34	8.285
578.53	5.900
578.73	8.623
578.92	5.659
579.11	7.419
579.30	7.714
579.50	6.644
579.69	7.774
579.88	6.878
580.08	5.972
580.27	7.916
580.46	6.306
580.65	7.332
580.85	6.205
581.04	6.933
581.23	6.864
581.42	6.275
581.62	6.352
581.81	6.908
582.00	6.747
582.19	5.907
582.39	7.501
582.58	5.489
582.77	5.977
582.96	6.345
583.16	5.862
583.35	7.918
583.54	6.761
583.73	7.167
583.93	7.148
584.12	6.907
584.31	5.514
584.50	6.212
584.70	6.212
584.89	7.573
585.08	6.121
585.27	6.696
585.47	5.054
585.66	6.889
585.85	5.247
586.04	7.039
586.24	6.711
586.43	5.520
586.62	5.145
586.81	7.249
587.00	5.403
587.20	6.339
587.39	4.249
587.58	7.442
587.77	6.212
587.97	6.232
588.16	6.524
588.35	7.345
588.54	6.029
588.73	6.960
588.93	6.211
589.12	6.861
589.31	6.367
589.50	6.572
589.69	6.935
589.89	6.672
590.08	6.279
590.27	6.688
590.46	6.208
590.65	6.224
590.85	5.269
591.04	6.980
591.23	5.859
591.42	7.600
591.61	5.418
591.81	6.586
592.00	5.624
592.19	6.697
592.38	5.191
592.57	7.004
592.77	6.627
592.96	6.854
593.15	7.267
593.34	7.180
593.53	6.796
593.72	6.700
593.92	6.387
594.11	7.166
594.30	5.321
594.49	7.350
594.68	7.091
594.87	7.219
595.07	5.862
595.26	7.520
595.45	5.274
595.64	8.133
595.83	5.191
596.02	7.570
596.22	6.130
596.41	8.362
596.60	7.258
596.79	8.340
596.98	6.788
597.17	8.909
597.37	7.582
597.56	9.170
597.75	7.073
597.94	9.254
598.13	8.450
598.32	8.130
598.51	6.935
598.71	9.137
598.90	7.223
599.09	8.208
599.28	5.722
599.47	8.105
599.66	5.978
599.85	6.819
600.05	5.351
600.24	7.377
600.43	6.226
600.62	7.933
600.81	6.678
601.00	8.059
601.19	5.785
601.38	7.497
601.58	5.657
601.77	6.049
601.96	5.753
602.15	7.695
602.34	6.726
602.53	8.983
602.72	5.399
602.91	7.708
603.10	5.684
603.30	7.540
603.49	6.554
603.68	7.752
603.87	6.679
604.06	7.297
604.25	7.767
604.44	8.642
604.63	7.606
604.82	9.001
605.01	8.025
605.21	9.200
605.40	8.169
605.59	9.072
605.78	9.028
605.97	9.507
606.16	8.445
606.35	8.872
606.54	8.052
606.73	9.166
606.92	6.181
607.11	9.401
607.30	7.547
607.50	8.704
607.69	6.455
607.88	6.882
608.07	6.305
608.26	7.329
608.45	7.939
608.64	8.571
608.83	5.749
609.02	7.928
609.21	8.287
609.40	8.446
609.59	6.830
609.78	7.848
609.97	6.635
610.16	8.914
610.35	7.433
610.55	8.997
610.74	7.846
610.93	7.823
611.12	7.719
611.31	8.330
611.50	6.756
611.69	6.809
611.88	7.551
612.07	9.313
612.26	5.678
612.45	7.357
612.64	6.097
612.83	7.531
613.02	5.611
613.21	5.663
613.40	6.110
613.59	6.659
613.78	5.293
613.97	6.558
614.16	5.311
614.35	6.582
614.54	5.170
614.73	5.449
614.92	5.937
615.11	5.131
615.30	4.816
615.49	4.549
615.68	5.781
615.87	5.533
616.07	4.832
616.26	5.797
616.45	6.239
616.64	6.113
616.83	5.299
617.02	6.701
617.21	4.161
617.40	4.266
617.59	5.594
617.78	5.749
617.97	5.145
618.16	4.703
618.35	4.493
618.54	6.294
618.73	5.319
618.92	5.225
619.11	4.326
619.30	5.858
619.49	3.728
619.68	5.716
619.86	4.721
620.05	5.312
620.24	5.010
620.43	4.990
620.62	4.181
620.81	5.133
621.00	6.006
621.19	5.967
621.38	5.884
621.57	6.216
621.76	4.352
621.95	5.267
622.14	4.439
622.33	6.260
622.52	3.621
622.71	5.365
622.90	3.818
623.09	5.882
623.28	4.755
623.47	4.990
623.66	5.293
623.85	4.000
624.04	5.049
624.23	4.852
624.42	4.538
624.61	4.142
624.80	4.306
624.99	5.099
625.18	3.838
625.36	5.599
625.55	5.950
625.74	4.376
625.93	4.525
626.12	4.438
626.31	5.194
626.50	5.101
626.69	3.955
626.88	6.671
627.07	6.897
627.26	4.883
627.45	5.594
627.64	5.138
627.83	5.079
628.02	5.948
628.20	5.443
628.39	6.021
628.58	4.476
628.77	6.167
628.96	4.989
629.15	4.763
629.34	5.249
629.53	4.041
629.72	4.479
629.91	5.636
630.10	4.789
630.29	4.345
630.47	4.212
630.66	3.465
630.85	4.209
631.04	5.020
631.23	5.200
631.42	5.161
631.61	3.576
631.80	6.079
631.99	3.950
632.18	3.499
632.36	3.721
632.55	5.792
632.74	4.300
632.93	4.280
633.12	4.872
633.31	4.917
633.50	4.046
633.69	4.894
633.88	3.844
634.06	4.838
634.25	4.286
634.44	4.075
634.63	3.808
634.82	6.062
635.01	4.737
635.20	4.296
635.39	3.385
635.57	4.128
635.76	3.680
635.95	3.725
636.14	3.246
636.33	5.259
636.52	4.039
636.71	5.425
636.89	4.118
637.08	4.769
637.27	3.616
637.46	4.372
637.65	4.461
637.84	4.958
638.03	3.445
638.21	6.112
638.40	5.322
638.59	3.582
638.78	3.303
638.97	4.728
639.16	6.745
639.34	4.158
639.53	2.744
639.72	3.796
639.91	4.600
640.10	3.324
640.29	5.087
640.47	6.014
640.66	4.696
640.85	6.471
641.04	4.622
641.23	4.494
641.42	4.307
641.60	4.384
641.79	3.631
641.98	4.311
642.17	4.695
642.36	5.144
642.54	3.795
642.73	4.837
642.92	3.838
643.11	4.748
643.30	3.369
643.49	5.522
643.67	4.029
643.86	4.332
644.05	3.931
644.24	5.469
644.43	4.029
644.61	5.208
644.80	4.066
644.99	2.966
645.18	4.893
645.37	4.715
645.55	3.246
645.74	4.147
645.93	4.701
646.12	4.013
646.31	4.156
646.49	4.050
646.68	3.581
646.87	4.404
647.06	4.127
647.24	4.218
647.43	3.865
647.62	4.326
647.81	4.392
648.00	4.908
648.18	4.529
648.37	3.232
648.56	4.373
648.75	2.797
648.93	4.014
649.12	5.126
649.31	3.142
649.50	4.696
649.68	3.962
649.87	3.777
650.06	3.995
650.25	4.717
650.43	3.820
650.62	3.647
650.81	3.943
651.00	3.814
651.18	4.495
651.37	4.381
651.56	4.469
651.75	4.577
651.93	2.730
652.12	5.651
652.31	2.943
652.50	4.303
652.68	4.655
652.87	5.349
653.06	5.799
653.25	5.427
653.43	3.444
653.62	4.237
653.81	4.529
654.00	5.171
654.18	3.855
654.37	6.553
654.56	3.052
654.74	3.555
654.93	2.547
655.12	3.334
655.31	4.171
655.49	4.312
655.68	3.748
655.87	3.830
656.05	4.169
656.24	4.075
656.43	2.534
656.62	3.508
656.80	4.633
656.99	2.939
657.18	4.271
657.36	4.141
657.55	3.487
657.74	4.332
657.93	3.888
658.11	5.272
658.30	5.128
658.49	3.718
658.67	3.943
658.86	3.743
659.05	2.797
659.23	4.828
659.42	4.123
659.61	3.447
659.79	3.652
659.98	4.343
660.17	3.897
660.35	3.924
660.54	3.551
660.73	5.828
660.91	3.933
661.10	3.634
661.29	3.605
661.47	3.389
661.66	3.024
661.85	4.403
662.03	3.559
662.22	2.538
662.41	2.038
662.59	4.771
662.78	2.997
662.97	2.041
663.15	3.369
663.34	3.595
663.53	2.614
663.71	4.202
663.90	4.772
664.09	2.124
664.27	4.061
664.46	3.786
664.65	4.530
664.83	3.535
665.02	3.086
665.21	5.957
665.39	2.498
665.58	3.322
665.77	3.571
665.95	2.712
666.14	3.119
666.32	2.542
666.51	3.195
666.70	1.138
666.88	3.151
667.07	2.381
667.26	2.633
667.44	3.710
667.63	3.951
667.81	3.413
668.00	3.949
668.19	5.049
668.37	4.872
668.56	4.956
668.75	3.206
668.93	6.217
669.12	2.830
669.30	3.807
669.49	2.478
669.68	2.921
669.86	4.607
670.05	2.552
670.23	3.168
670.42	3.929
670.61	4.453
670.79	2.960
670.98	3.032
671.16	4.344
671.35	2.001
671.54	4.053
671.72	4.644
671.91	3.606
672.09	5.032
672.28	4.708
672.46	3.910
672.65	2.714
672.84	4.351
673.02	4.429
673.21	2.935
673.39	4.205
673.58	3.630
673.77	2.787
673.95	2.042
674.14	4.039
674.32	3.174
674.51	5.216
674.69	2.646
674.88	4.152
675.07	3.543
675.25	5.581
675.44	3.137
675.62	4.547
675.81	3.447
675.99	8.313
676.18	5.053
676.36	1.725
676.55	3.420
676.74	4.704
676.92	5.472
677.11	1.811
677.29	1.721
677.48	5.559
677.66	5.070
677.85	1.395
678.03	5.848
678.22	5.490
678.40	2.933
678.59	3.509
678.78	3.659
678.96	3.246
679.15	4.615
679.33	5.065
679.52	5.045
679.70	4.661
679.89	4.238
680.07	4.934
680.26	3.523
680.44	4.967
680.63	4.459
680.81	4.371
681.00	3.323
681.18	4.691
681.37	4.146
681.55	4.520
681.74	4.807
681.92	3.914
682.11	4.539
682.29	3.181
682.48	3.295
682.66	4.474
682.85	4.422
683.03	4.275
683.22	5.815
683.40	5.566
683.59	3.946
683.77	3.348
683.96	4.476
684.14	5.492
684.33	3.742
684.51	5.769
684.70	4.331
684.88	6.358
685.07	5.080
685.25	5.695
685.44	5.175
685.62	4.116
685.81	3.450
685.99	5.359
686.18	5.049
686.36	5.591
686.55	2.728
686.73	5.288
686.92	5.016
687.10	4.443
687.29	6.728
687.47	5.261
687.65	6.084
687.84	4.864
688.02	6.152
688.21	5.030
688.39	2.956
688.58	5.782
688.76	5.497
688.95	4.677
689.13	4.723
689.32	7.120
689.50	5.058
689.68	6.268
689.87	6.488
690.05	5.970
690.24	5.273
690.42	6.196
690.61	6.303
690.79	8.599
690.98	6.437
691.16	7.185
691.34	4.978
691.53	5.579
691.71	6.115
691.90	4.293
692.08	5.282
692.27	8.088
692.45	6.491
692.63	6.417
692.82	7.056
693.00	6.579
693.19	4.249
693.37	6.403
693.56	5.370
693.74	7.616
693.92	4.020
694.11	7.591
694.29	7.396
694.48	7.856
694.66	6.612
694.84	8.598
695.03	6.261
695.21	8.705
695.40	9.991
695.58	9.485
695.76	7.738
695.95	8.348
696.13	6.910
696.32	8.586
696.50	12.354
696.68	8.084
696.87	8.283
697.05	7.046
697.24	8.389
697.42	8.726
697.60	7.827
697.79	8.147
697.97	10.734
698.16	9.722
698.34	7.500
698.52	11.329
698.71	9.318
698.89	11.080
699.07	11.442
699.26	9.943
699.44	9.918
699.63	11.071
699.81	9.395
699.99	15.220
700.18	12.314
700.36	13.303
700.54	9.751
700.73	12.233
700.91	9.434
701.09	12.481
701.28	11.455
701.46	11.840
701.64	8.998
701.83	11.375
702.01	9.277
702.20	15.352
702.38	10.648
702.56	10.758
702.75	9.061
702.93	10.108
703.11	12.466
703.30	12.009
703.48	10.758
703.66	10.332
703.85	10.479
704.03	14.226
704.21	12.331
704.40	13.116
704.58	9.863
704.76	12.537
704.95	11.288
705.13	11.955
705.31	12.382
705.50	12.543
705.68	11.029
705.86	14.144
706.04	10.167
706.23	14.070
706.41	9.158
706.59	10.366
706.78	11.935
706.96	12.976
707.14	12.802
707.33	15.756
707.51	12.178
707.69	14.092
707.88	12.332
708.06	12.555
708.24	13.130
708.42	13.538
708.61	13.340
708.79	14.466
708.97	14.662
709.16	13.088
709.34	13.768
709.52	15.671
709.71	14.173
709.89	12.739
710.07	10.674
710.25	15.135
710.44	12.228
710.62	15.744
710.80	13.568
710.98	16.202
711.17	11.468
711.35	14.645
711.53	13.163
711.72	17.462
711.90	14.944
712.08	15.570
712.26	13.194
712.45	14.810
712.63	15.825
712.81	17.202
712.99	12.602
713.18	17.020
713.36	14.568
713.54	12.725
713.72	13.103
713.91	14.312
714.09	13.402
714.27	15.528
714.45	16.712
714.64	20.191
714.82	14.299
715.00	17.145
715.18	13.658
715.37	20.018
715.55	17.030
715.73	16.883
715.91	15.721
716.10	16.379
716.28	11.879
716.46	17.834
716.64	16.262
716.83	16.754
717.01	13.605
717.19	14.865
717.37	16.279
717.55	16.957
717.74	15.438
717.92	14.457
718.10	13.244
718.28	15.332
718.47	15.996
718.65	18.848
718.83	13.176
719.01	17.178
719.19	15.111
719.38	12.814
719.56	15.845
719.74	14.568
719.92	9.591
720.10	12.493
720.29	13.391
720.47	15.466
720.65	16.487
720.83	16.466
721.01	10.917
721.20	16.444
721.38	14.636
721.56	14.365
721.74	18.488
721.92	16.250
722.11	17.092
722.29	16.914
722.47	13.911
722.65	18.595
722.83	16.780
723.01	17.781
723.20	15.949
723.38	15.688
723.56	15.623
723.74	20.256
723.92	14.636
724.10	17.910
724.29	12.311
724.47	19.650
724.65	14.937
724.83	16.188
725.01	17.425
725.19	18.845
725.38	17.157
725.56	16.980
725.74	17.078
725.92	18.450
726.10	14.518
726.28	21.010
726.46	15.450
726.65	18.926
726.83	17.706
727.01	17.726
727.19	17.807
727.37	17.050
727.55	19.117
727.73	14.681
727.92	17.088
728.10	16.931
728.28	11.319
728.46	22.677
728.64	16.993
728.82	18.826
729.00	17.133
729.19	18.830
729.37	18.372
729.55	19.840
729.73	15.625
729.91	18.757
730.09	20.371
730.27	20.152
730.45	18.399
730.63	18.603
730.82	13.771
731.00	20.455
731.18	17.878
731.36	20.199
731.54	16.186
731.72	20.684
731.90	18.389
732.08	20.686
732.26	18.384
732.45	20.867
732.63	16.901
732.81	20.508
732.99	18.895
733.17	22.198
733.35	17.346
733.53	22.727
733.71	17.922
733.89	20.762
734.07	20.690
734.25	22.010
734.44	19.364
734.62	20.348
734.80	19.231
734.98	21.354
735.16	21.617
735.34	23.858
735.52	24.871
735.70	21.902
735.88	22.846
736.06	22.694
736.24	21.077
736.42	24.092
736.60	19.504
736.78	24.895
736.97	17.251
737.15	21.012
737.33	19.357
737.51	23.429
737.69	22.029
737.87	21.045
738.05	21.547
738.23	22.567
738.41	19.341
738.59	21.509
738.77	23.483
738.95	23.731
739.13	20.190
739.31	18.403
739.49	21.056
739.67	25.608
739.85	20.359
740.03	24.123
740.21	19.972
740.39	26.953
740.57	20.458
740.75	22.082
740.93	20.159
741.11	19.985
741.30	22.660
741.48	22.620
741.66	21.863
741.84	21.423
742.02	21.158
742.20	24.886
742.38	21.839
742.56	27.134
742.74	20.807
742.92	26.016
743.10	19.685
743.28	22.082
743.46	24.138
743.64	22.675
743.82	17.453
744.00	26.645
744.18	25.408
744.36	23.571
744.54	24.691
744.72	26.423
744.90	23.299
745.08	24.141
745.26	21.635
745.44	25.495
745.62	23.840
745.80	23.739
745.98	22.291
746.16	22.873
746.34	22.727
746.52	23.663
746.70	24.423
746.87	22.414
747.05	26.593
747.23	26.784
747.41	21.508
747.59	27.625
747.77	20.614
747.95	24.224
748.13	21.767
748.31	28.111
748.49	22.120
748.67	22.797
748.85	22.153
749.03	24.642
749.21	21.332
749.39	28.136
749.57	25.319
749.75	21.818
749.93	23.260
750.11	22.915
750.29	22.557
750.47	26.270
750.65	20.342
750.83	29.871
751.01	21.836
751.18	24.315
751.36	25.456
751.54	29.462
751.72	26.043
751.90	24.913
752.08	21.902
752.26	21.103
752.44	25.648
752.62	21.204
752.80	21.352
752.98	26.747
753.16	23.582
753.34	23.402
753.52	27.516
753.69	23.801
753.87	23.760
754.05	25.693
754.23	24.494
754.41	24.253
754.59	19.841
754.77	25.436
754.95	23.319
755.13	25.022
755.31	24.600
755.49	20.617
755.66	24.403
755.84	21.289
756.02	19.796
756.20	26.486
756.38	19.873
756.56	25.598
756.74	21.429
756.92	23.271
757.10	21.524
757.28	24.955
757.45	29.041
757.63	24.690
757.81	21.487
757.99	29.918
758.17	21.581
758.35	18.882
758.53	27.471
758.71	25.923
758.88	24.583
759.06	24.278
759.24	21.491
759.42	22.857
759.60	18.820
759.78	23.834
759.96	16.736
760.13	18.379
760.31	15.542
760.49	19.209
760.67	13.094
760.85	20.339
761.03	17.138
761.21	12.544
761.38	14.924
761.56	13.814
761.74	9.914
761.92	15.612
762.10	14.298
762.28	18.404
762.46	12.805
762.63	10.882
762.81	14.578
762.99	12.826
763.17	14.531
763.35	14.868
763.53	13.052
763.70	15.652
763.88	11.681
764.06	14.540
764.24	12.564
764.42	14.379
764.60	14.738
764.77	13.477
764.95	15.380
765.13	17.641
765.31	17.015
765.49	19.590
765.66	16.628
765.84	21.335
766.02	15.724
766.20	18.194
766.38	19.062
766.56	17.681
766.73	15.692
766.91	18.880
767.09	17.860
767.27	20.789
767.45	21.446
767.62	21.367
767.80	24.707
767.98	24.864
768.16	21.106
768.33	27.044
768.51	20.000
768.69	24.187
768.87	23.040
769.05	19.799
769.22	26.122
769.40	24.208
769.58	21.451
769.76	25.050
769.94	24.505
770.11	23.002
770.29	20.173
770.47	27.212
770.65	25.029
770.82	23.749
771.00	25.319
771.18	28.965
771.36	20.856
771.53	27.011
771.71	23.096
771.89	26.007
772.07	25.913
772.25	25.410
772.42	23.349
772.60	25.728
772.78	26.536
772.96	27.295
773.13	28.421
773.31	28.402
773.49	24.601
773.67	23.666
773.84	22.738
774.02	33.711
774.20	20.027
774.37	19.035
774.55	27.538
774.73	31.943
774.91	23.227
775.08	31.301
775.26	29.918
775.44	27.858
775.62	31.353
775.79	31.794
775.97	21.757
776.15	24.934
776.32	20.940
776.50	24.024
776.68	29.822
776.86	30.000
777.03	22.685
777.21	27.309
777.39	25.439
777.56	28.532
777.74	28.304
777.92	26.960
778.10	26.062
778.27	29.420
778.45	26.046
778.63	23.472
778.80	24.757
778.98	27.445
779.16	33.041
779.34	27.972
779.51	27.470
779.69	28.951
779.87	28.354
780.04	23.025
780.22	29.957
780.40	36.207
780.57	29.255
780.75	25.068
780.93	23.443
781.10	23.042
781.28	25.546
781.46	22.709
781.63	31.718
781.81	29.070
781.99	26.346
782.16	29.094
782.34	18.377
782.52	23.795
782.69	27.894
782.87	26.906
783.05	24.000
783.22	23.810
783.40	23.220
783.58	27.504
783.75	32.612
783.93	30.846
784.11	24.065
784.28	25.786
784.46	27.387
784.64	25.669
784.81	25.801
784.99	26.698
785.17	27.049
785.34	25.493
785.52	24.390
785.69	22.551
785.87	16.695
786.05	34.017
786.22	23.150
786.40	27.467
786.58	30.096
786.75	28.914
786.93	21.519
787.11	27.769
787.28	20.607
787.46	26.873
787.63	22.222
787.81	28.463
787.99	30.619
788.16	22.600
788.34	23.077
788.51	17.820
788.69	23.746
788.87	27.621
789.04	23.950
789.22	23.930
789.39	27.298
789.57	22.266
789.75	25.230
789.92	22.869
790.10	20.865
790.27	27.660
790.45	27.169
790.63	21.861
790.80	19.383
790.98	27.246
791.15	23.193
791.33	29.187
791.51	24.438
791.68	24.564
791.86	23.179
792.03	24.000
792.21	23.627
792.39	32.492
792.56	22.540
792.74	21.118
792.91	21.569
793.09	24.338
793.26	30.282
793.44	29.674
793.62	29.365
793.79	26.514
793.97	22.913
794.14	28.793
794.32	29.775
794.49	39.299
794.67	25.360
794.84	24.253
795.02	31.857
795.20	27.574
795.37	24.121
795.55	25.460
795.72	33.746
795.90	24.288
796.07	28.793
796.25	16.555
796.42	20.522
796.60	24.888
796.77	17.745
796.95	30.303
797.13	18.608
797.30	26.789
797.48	20.178
797.65	23.418
797.83	25.964
798.00	21.845
798.18	19.315
798.35	24.642
798.53	26.667
798.70	23.511
798.88	28.595
799.05	21.340
799.23	25.311
799.40	19.427
799.58	28.694
799.75	34.477
799.93	20.790
800.10	25.000
800.28	21.318
800.45	33.393
800.63	25.719
800.80	28.876
800.98	15.799
801.15	22.124
801.33	29.277
801.50	28.152
801.68	27.746
801.85	29.331
802.03	18.121
802.20	25.094
802.38	19.258
802.55	25.962
802.73	25.565
802.90	28.571
803.08	22.242
803.25	30.769
803.43	34.588
803.60	29.668
803.78	29.567
803.95	25.407
804.13	31.834
804.30	34.578
804.48	29.338
804.65	22.638
804.83	24.115
805.00	18.966
805.17	14.951
805.35	23.674
805.52	25.621
805.70	23.962
805.87	26.063
806.05	31.588
806.22	23.420
806.40	21.002
806.57	24.532
806.75	25.688
806.92	26.316
807.09	35.294
807.27	17.851
807.44	28.817
807.62	31.029
807.79	25.714
807.97	35.702
808.14	27.000
808.31	31.070
808.49	22.244
808.66	25.626
808.84	23.643
809.01	31.635
809.19	34.156
809.36	36.253
809.53	29.365
809.71	25.097
809.88	27.938
810.06	25.787
810.23	37.200
810.41	28.838
810.58	38.689
810.75	20.601
810.93	36.292
811.10	21.263
811.28	34.676
811.45	27.044
811.62	22.247
811.80	33.191
811.97	28.355
812.15	31.755
812.32	17.888
812.49	21.569
812.67	26.383
812.84	31.868
813.02	37.444
813.19	24.153
813.36	39.046
813.54	29.204
813.71	25.909
813.89	26.652
814.06	26.984
814.23	16.743
814.41	27.660
814.58	18.750
814.75	33.415
814.93	31.905
815.10	31.538
815.28	35.784
815.45	17.488
815.62	26.139
815.80	25.404
815.97	24.224
816.14	28.330
816.32	22.249
816.49	30.526
816.66	19.250
816.84	25.654
817.01	33.623
817.18	26.573
817.36	25.400
817.53	36.070
817.71	19.006
817.88	24.091
818.05	31.096
818.23	21.429
818.40	22.642
818.57	29.487
818.75	24.362
818.92	32.543
819.09	32.874
819.27	24.902
819.44	19.682
819.61	21.218
819.79	25.103
819.96	30.297
820.13	27.634
820.31	19.478
820.48	28.185
820.65	21.922
820.82	24.307
821.00	19.124
821.17	14.592
821.34	17.310
821.52	20.350
821.69	17.115
821.86	18.993
822.04	17.353
822.21	14.968
822.38	16.017
822.56	13.163
822.73	19.904
822.90	15.886
823.07	22.517
823.25	19.337
823.42	17.711
823.59	16.798
823.77	19.123
823.94	15.730
824.11	19.379
824.29	17.368
824.46	19.410
824.63	21.745
824.80	17.578
824.98	17.173
825.15	18.296
825.32	12.986
825.49	19.180
825.67	12.476
825.84	18.994
826.01	19.312
826.19	20.073
826.36	15.627
826.53	15.447
826.70	15.282
826.88	16.999
827.05	14.013
827.22	16.091
827.39	13.952
827.57	17.456
827.74	16.533
827.91	18.746
828.08	15.697
828.26	16.150
828.43	13.287
828.60	22.648
828.77	17.614
828.95	15.863
829.12	17.585
829.29	13.323
829.46	17.097
829.64	18.548
829.81	12.397
829.98	20.679
830.15	11.687
830.32	15.385
830.50	18.825
830.67	16.838
830.84	23.731
831.01	19.749
831.19	19.755
831.36	25.610
831.53	23.810
831.70	33.973
831.87	27.273
832.05	36.634
832.22	29.821
832.39	28.696
832.56	16.539
832.74	21.652
832.91	27.004
833.08	32.794
833.25	20.035
833.42	19.689
833.60	21.405
833.77	8.824
833.94	13.995
834.11	15.758
834.28	16.392
834.45	14.876
834.63	15.619
834.80	13.588
834.97	15.838
835.14	16.562
835.31	17.200
835.49	15.345
835.66	16.152
835.83	14.424
836.00	17.469
836.17	19.420
836.34	17.067
836.52	16.316
836.69	24.460
836.86	22.969
837.03	22.766
837.20	20.513
837.37	20.475
837.55	26.549
837.72	31.021
837.89	23.155
838.06	25.721
838.23	24.402
838.40	24.350
838.58	29.867
838.75	14.245
838.92	32.069
839.09	25.661
839.26	35.294
839.43	30.548
839.60	32.441
839.78	46.605
839.95	33.225
840.12	33.861
840.29	32.484
840.46	40.210
840.63	37.647
840.80	30.400
840.98	51.143
841.15	33.000
841.32	23.185
841.49	28.696
841.66	40.984
841.83	21.867
842.00	26.899
842.17	30.411
842.34	21.203
842.52	29.641
842.69	30.818
842.86	34.256
843.03	51.258
843.20	42.449
843.37	33.916
843.54	45.122
843.71	34.694
843.88	53.311
844.06	47.773
844.23	68.116
844.40	43.939
844.57	32.340
844.74	44.105
844.91	63.426
845.08	49.804
845.25	44.891
845.42	35.678
845.59	77.193
845.76	63.636
845.94	74.684
846.11	63.682
846.28	66.207
846.45	50.920
846.62	49.730
846.79	71.111
846.96	47.059
847.13	82.353
847.30	32.323
847.47	60.989
847.64	42.442
847.81	55.495
847.98	34.054
848.15	54.839
848.32	54.639
848.50	72.050
848.67	80.556
848.84	64.646
849.01	44.898
849.18	51.053
849.35	81.675
849.52	71.676
849.69	71.098
849.86	53.988
850.03	65.068
850.20	59.722
850.37	53.571
850.54	49.057
850.71	56.911
850.88	53.147
851.05	58.904
851.22	68.323
851.39	85.052
851.56	29.861
851.73	66.667
851.90	50.625
852.07	70.000
852.24	61.029
852.41	91.971
852.58	16.667
852.75	73.373
852.92	61.413
853.09	52.514
853.26	58.599
853.43	45.909
853.60	44.845
853.77	99.291
853.94	34.848
854.11	56.410
854.28	68.085
854.45	76.224
854.62	81.208
854.79	37.692
854.96	63.043
855.13	68.333
855.30	74.093
855.47	52.414
855.64	54.955
855.81	79.365
855.98	54.000
856.15	66.207
856.32	57.746
856.49	63.470
856.66	83.140
856.83	66.492
857.00	72.951
857.17	74.167
857.34	62.121
857.51	84.615
857.68	65.714
857.85	73.333
858.02	118.919
858.19	30.000
858.36	52.000
858.53	67.429
858.70	52.318
858.87	85.517
859.04	70.423
859.21	42.174
859.38	58.278
859.55	115.741
859.72	89.256
859.89	100.980
860.05	72.093
860.22	82.895
860.39	85.047
860.56	78.899
860.73	60.843
860.90	88.000
861.07	85.792
861.24	108.547
861.41	90.714
861.58	63.054
861.75	75.000
861.92	79.528
862.09	66.867
862.26	68.085
862.43	58.647
862.59	56.410
862.76	60.544
862.93	88.820
863.10	78.621
863.27	48.649
863.44	71.053
863.61	59.412
863.78	91.549
863.95	108.397
864.12	44.444
864.29	75.969
864.45	79.452
864.62	72.180
864.79	59.459
864.96	95.238
865.13	68.702
865.30	96.364
865.47	58.333
865.64	74.375
865.81	31.481
865.97	60.109
866.14	72.857
866.31	56.911
866.48	62.791
866.65	58.000
866.82	98.658
866.99	116.505
867.16	78.571
867.33	71.795
867.49	82.482
867.66	76.699
867.83	33.600
868.00	78.014
868.17	78.788
868.34	67.808
868.51	44.366
868.67	87.603
868.84	99.320
869.01	115.748
869.18	60.465
869.35	93.333
869.52	75.342
869.69	49.618
869.85	64.706
870.02	81.308
870.19	73.109
870.36	57.823
870.53	35.227
870.70	45.349
870.86	74.214
871.03	104.202
871.20	61.589
871.37	75.598
871.54	22.069
871.71	58.025
871.87	49.315
872.04	61.935
872.21	112.903
872.38	36.810
872.55	77.465
872.72	78.605
872.88	52.071
873.05	77.473
873.22	56.548
873.39	76.220
873.56	51.445
873.72	86.567
873.89	52.899
874.06	78.289
874.23	81.356
874.40	82.517
874.56	87.736
874.73	55.435
874.90	77.401
875.07	77.083
875.24	31.792
875.40	63.871
875.57	61.494
875.74	62.000
875.91	72.727
876.08	45.455
876.24	64.286
876.41	72.093
876.58	60.870
876.75	70.833
876.92	56.637
877.08	59.821
877.25	77.848
877.42	32.593
877.59	54.545
877.75	77.852
877.92	72.000
878.09	59.398
878.26	62.338
878.42	66.667
878.59	63.235
878.76	76.282
878.93	62.573
879.09	63.830
879.26	45.946
879.43	54.706
879.60	67.284
879.76	52.941
879.93	50.633
880.10	39.506
880.27	55.046
880.43	55.122
880.60	35.616
880.77	41.126
880.94	29.455
881.10	26.587
881.27	21.600
881.44	22.633
881.61	30.568
881.77	20.040
881.94	17.766
882.11	11.755
882.28	15.833
882.44	13.874
882.61	16.889
882.78	10.598
882.94	20.847
883.11	16.178
883.28	12.029
883.45	10.554
883.61	11.477
883.78	12.473
883.95	16.441
884.11	17.019
884.28	15.321
>>>>>End Processed Spectral Data<<<<<
