SpectraSuite Data File
++++++++++++++++++++++++++++++++++++
Date: Fri Sep 20 03:04:38 EST 2019
User: sgrac
Dark Spectrum Present: Yes
Reference Spectrum Present: Yes
Number of Sampled Component Spectra: 1
Spectrometers: USB4E01596
Integration Time (usec): 100000 (USB4E01596)
Spectra Averaged: 1 (USB4E01596)
Boxcar Smoothing: 0 (USB4E01596)
Correct for Electrical Dark: No (USB4E01596)
Strobe/Lamp Enabled: Yes (USB4E01596)
Correct for Detector Non-linearity: No (USB4E01596)
Correct for Stray Light: No (USB4E01596)
Number of Pixels in Processed Spectrum: 3648
>>>>>Begin Processed Spectral Data<<<<<
178.44	391.304
178.66	391.304
178.87	391.304
179.09	-440.000
179.30	306.667
179.52	521.429
179.74	2020.000
179.95	-322.857
180.17	-537.500
180.38	-681.250
180.60	-354.839
180.82	500.000
181.03	-2250.000
181.25	-1140.000
181.46	-1181.818
181.68	0.000
181.89	10100.000
182.11	1300.000
182.33	1200.000
182.54	-162.857
182.76	208.000
182.97	370.370
183.19	1077.778
183.40	-625.000
183.62	878.571
183.84	-170.000
184.05	0.000
184.27	14000.000
184.48	660.000
184.70	5250.000
184.91	1061.538
185.13	325.000
185.34	227.778
185.56	-509.524
185.78	468.421
185.99	-5450.000
186.21	525.000
186.42	983.333
186.64	164.179
186.85	192.593
187.07	570.833
187.28	-237.838
187.50	-395.455
187.72	182.813
187.93	12800.000
188.15	609.091
188.36	286.538
188.58	582.353
188.79	5500.000
189.01	397.059
189.22	825.000
189.44	236.170
189.65	-700.000
189.87	742.857
190.09	336.111
190.30	-2820.000
190.52	287.805
190.73	466.667
190.95	-807.692
191.16	-483.333
191.38	-630.435
191.59	1133.333
191.81	332.500
192.02	305.000
192.24	258.730
192.45	277.143
192.67	395.455
192.88	0.000
193.10	405.882
193.31	-900.000
193.53	268.182
193.74	328.947
193.96	1180.000
194.18	215.942
194.39	216.000
194.61	543.333
194.82	365.517
195.04	1225.000
195.25	234.043
195.47	831.579
195.68	-1320.000
195.90	3250.000
196.11	3375.000
196.33	-422.222
196.54	458.621
196.76	162.222
196.97	444.444
197.19	-566.667
197.40	397.222
197.62	-735.714
197.83	953.333
198.05	384.211
198.26	500.000
198.48	1158.333
198.69	434.286
198.91	1214.286
199.12	317.500
199.34	224.615
199.55	-963.636
199.77	440.000
199.98	1260.000
200.20	800.000
200.41	384.848
200.63	-1140.000
200.84	378.049
201.06	-12600.000
201.27	847.059
201.49	209.836
201.70	876.471
201.91	931.250
202.13	720.000
202.34	2800.000
202.56	1371.429
202.77	-2133.333
202.99	760.000
203.20	652.381
203.42	-289.286
203.63	425.806
203.85	-491.667
204.06	3800.000
204.28	-2125.000
204.49	1642.857
204.71	231.250
204.92	1700.000
205.14	0.000
205.35	626.667
205.56	457.143
205.78	348.718
205.99	264.865
206.21	489.655
206.42	2233.333
206.64	-226.829
206.85	993.333
207.07	846.154
207.28	360.000
207.50	-1025.000
207.71	288.372
207.93	6450.000
208.14	-224.324
208.35	375.862
208.57	-718.750
208.78	368.966
209.00	297.368
209.21	0.000
209.43	473.913
209.64	258.140
209.86	1485.714
210.07	863.636
210.28	439.286
210.50	2280.000
210.71	310.256
210.93	339.474
211.14	227.869
211.36	362.857
211.57	1550.000
211.78	-277.273
212.00	396.154
212.21	-573.684
212.43	293.548
212.64	252.381
212.86	282.143
213.07	471.429
213.29	176.316
213.50	-285.294
213.71	-9800.000
213.93	-1155.556
214.14	613.333
214.36	-1857.143
214.57	155.814
214.78	231.429
215.00	-3000.000
215.21	-1783.333
215.43	-272.727
215.64	812.500
215.86	-2875.000
216.07	542.857
216.28	262.903
216.50	323.404
216.71	-2160.000
216.93	957.143
217.14	386.111
217.35	218.421
217.57	-526.667
217.78	990.909
218.00	222.727
218.21	195.082
218.42	257.143
218.64	197.778
218.85	263.793
219.07	260.000
219.28	723.810
219.49	-754.545
219.71	371.429
219.92	1950.000
220.14	3633.333
220.35	2800.000
220.56	780.000
220.78	214.286
220.99	1966.667
221.21	340.541
221.42	292.593
221.63	352.778
221.85	6600.000
222.06	289.655
222.28	375.000
222.49	12200.000
222.70	-2300.000
222.92	251.786
223.13	202.899
223.34	238.182
223.56	272.973
223.77	1006.250
223.99	194.872
224.20	121.622
224.41	244.186
224.63	311.765
224.84	396.000
225.05	191.667
225.27	233.333
225.48	167.089
225.69	240.909
225.91	164.935
226.12	246.774
226.34	201.449
226.55	175.000
226.76	132.836
226.98	100.877
227.19	283.333
227.40	165.714
227.62	116.216
227.83	124.211
228.04	190.741
228.26	105.556
228.47	75.000
228.69	44.505
228.90	70.225
229.11	45.594
229.33	32.787
229.54	55.510
229.75	37.643
229.97	41.216
230.18	37.772
230.39	27.059
230.61	36.025
230.82	31.699
231.03	31.593
231.25	34.884
231.46	45.079
231.67	47.568
231.89	44.853
232.10	52.290
232.31	53.488
232.53	53.282
232.74	44.672
232.95	49.246
233.17	44.643
233.38	40.278
233.59	61.765
233.81	55.310
234.02	30.049
234.23	69.355
234.45	68.874
234.66	48.020
234.87	54.070
235.09	41.333
235.30	29.032
235.51	45.690
235.73	62.500
235.94	46.237
236.15	50.373
236.36	61.603
236.58	48.536
236.79	66.409
237.00	45.783
237.22	66.379
237.43	51.111
237.64	55.909
237.86	62.255
238.07	52.191
238.28	49.074
238.50	58.264
238.71	37.589
238.92	49.265
239.13	42.411
239.35	41.935
239.56	22.374
239.77	59.684
239.99	42.578
240.20	53.237
240.41	40.125
240.63	38.154
240.84	46.226
241.05	24.501
241.26	35.756
241.48	35.516
241.69	30.023
241.90	26.813
242.12	23.340
242.33	19.582
242.54	21.236
242.75	18.468
242.97	17.379
243.18	15.394
243.39	10.465
243.61	15.429
243.82	18.325
244.03	12.892
244.24	16.156
244.46	15.059
244.67	21.333
244.88	16.797
245.09	17.159
245.31	14.901
245.52	14.116
245.73	22.097
245.95	26.217
246.16	22.007
246.37	16.779
246.58	17.358
246.80	17.793
247.01	13.945
247.22	11.380
247.43	10.526
247.65	8.450
247.86	9.791
248.07	8.864
248.28	8.256
248.50	9.447
248.71	8.010
248.92	6.894
249.13	9.334
249.35	8.024
249.56	9.248
249.77	11.052
249.98	10.733
250.20	12.274
250.41	16.851
250.62	9.674
250.83	20.196
251.05	22.368
251.26	13.187
251.47	19.318
251.68	16.767
251.90	29.154
252.11	22.496
252.32	17.115
252.53	19.410
252.75	16.356
252.96	14.213
253.17	17.206
253.38	14.727
253.59	12.987
253.81	14.954
254.02	14.472
254.23	11.935
254.44	14.740
254.66	16.994
254.87	13.259
255.08	17.834
255.29	28.007
255.50	24.908
255.72	24.850
255.93	18.905
256.14	28.511
256.35	20.602
256.57	26.654
256.78	30.248
256.99	8.038
257.20	17.113
257.41	24.571
257.63	23.048
257.84	20.327
258.05	19.032
258.26	21.392
258.47	21.362
258.69	18.031
258.90	10.773
259.11	13.503
259.32	18.692
259.53	9.332
259.75	10.978
259.96	9.483
260.17	7.364
260.38	8.003
260.59	6.073
260.81	6.774
261.02	6.067
261.23	4.854
261.44	6.603
261.65	8.096
261.87	4.636
262.08	7.577
262.29	9.948
262.50	7.678
262.71	8.310
262.92	8.491
263.14	12.906
263.35	13.928
263.56	12.561
263.77	11.734
263.98	16.595
264.20	9.563
264.41	15.959
264.62	17.423
264.83	9.469
265.04	20.706
265.25	17.933
265.47	15.449
265.68	18.593
265.89	17.738
266.10	11.407
266.31	16.224
266.52	9.870
266.74	11.057
266.95	12.717
267.16	11.085
267.37	10.106
267.58	11.759
267.79	11.909
268.01	11.309
268.22	8.770
268.43	12.932
268.64	5.188
268.85	13.796
269.06	12.700
269.27	14.503
269.49	10.640
269.70	9.394
269.91	12.018
270.12	9.576
270.33	14.064
270.54	12.072
270.75	9.669
270.97	10.744
271.18	12.466
271.39	10.382
271.60	11.175
271.81	10.426
272.02	7.327
272.23	8.455
272.45	8.876
272.66	8.988
272.87	10.910
273.08	6.680
273.29	9.952
273.50	3.508
273.71	8.213
273.92	7.029
274.14	7.723
274.35	8.113
274.56	7.594
274.77	10.926
274.98	10.174
275.19	9.876
275.40	10.363
275.61	7.991
275.83	12.231
276.04	5.690
276.25	7.416
276.46	7.726
276.67	12.360
276.88	7.035
277.09	13.079
277.30	9.614
277.51	7.547
277.73	8.108
277.94	10.042
278.15	8.576
278.36	15.017
278.57	10.284
278.78	8.428
278.99	7.218
279.20	10.345
279.41	12.037
279.62	11.810
279.84	9.364
280.05	10.186
280.26	10.174
280.47	10.167
280.68	10.908
280.89	10.063
281.10	10.720
281.31	11.719
281.52	9.227
281.73	9.609
281.94	7.363
282.16	8.561
282.37	9.544
282.58	7.424
282.79	6.259
283.00	10.968
283.21	6.237
283.42	6.572
283.63	7.124
283.84	8.687
284.05	9.103
284.26	8.793
284.47	10.182
284.68	10.078
284.89	6.701
285.11	8.885
285.32	6.291
285.53	5.911
285.74	8.794
285.95	6.501
286.16	7.353
286.37	7.919
286.58	6.243
286.79	5.882
287.00	6.127
287.21	5.106
287.42	5.658
287.63	5.457
287.84	5.623
288.05	6.356
288.26	6.483
288.48	7.091
288.69	4.353
288.90	6.112
289.11	9.226
289.32	5.743
289.53	7.716
289.74	8.780
289.95	6.355
290.16	10.932
290.37	7.688
290.58	6.964
290.79	5.260
291.00	7.950
291.21	8.374
291.42	5.378
291.63	5.362
291.84	6.786
292.05	5.291
292.26	6.548
292.47	7.497
292.68	3.919
292.89	9.824
293.10	7.976
293.31	6.436
293.52	6.318
293.73	8.112
293.94	7.124
294.15	7.420
294.36	6.922
294.57	8.275
294.79	8.219
295.00	6.401
295.21	5.768
295.42	6.753
295.63	9.269
295.84	6.516
296.05	9.995
296.26	6.041
296.47	7.760
296.68	6.488
296.89	6.507
297.10	7.841
297.31	6.536
297.52	5.020
297.73	5.888
297.94	5.673
298.15	5.753
298.36	4.553
298.57	4.850
298.78	6.193
298.99	4.565
299.20	3.730
299.41	4.776
299.62	5.098
299.83	6.654
300.04	3.416
300.25	8.064
300.46	5.102
300.67	7.688
300.88	7.178
301.09	5.328
301.30	5.775
301.50	5.964
301.71	9.121
301.92	8.911
302.13	7.864
302.34	4.911
302.55	8.324
302.76	6.446
302.97	8.666
303.18	6.186
303.39	4.072
303.60	6.280
303.81	6.789
304.02	6.457
304.23	7.968
304.44	7.165
304.65	6.727
304.86	5.701
305.07	5.882
305.28	6.812
305.49	7.047
305.70	7.881
305.91	7.049
306.12	5.682
306.33	3.499
306.54	6.503
306.75	7.618
306.96	7.721
307.17	7.496
307.38	8.753
307.58	8.139
307.79	9.750
308.00	6.190
308.21	7.488
308.42	5.296
308.63	6.534
308.84	8.202
309.05	4.543
309.26	3.323
309.47	9.199
309.68	6.605
309.89	6.824
310.10	3.382
310.31	7.348
310.52	2.197
310.73	5.210
310.94	5.243
311.14	4.907
311.35	6.029
311.56	5.187
311.77	2.890
311.98	6.362
312.19	5.073
312.40	5.742
312.61	5.497
312.82	5.586
313.03	6.267
313.24	9.453
313.45	3.181
313.66	6.625
313.86	3.815
314.07	8.346
314.28	8.181
314.49	7.937
314.70	5.654
314.91	8.187
315.12	5.506
315.33	7.575
315.54	4.584
315.75	6.178
315.96	5.588
316.16	4.118
316.37	5.427
316.58	5.414
316.79	6.536
317.00	6.727
317.21	5.147
317.42	4.421
317.63	7.785
317.84	7.233
318.05	6.667
318.25	6.523
318.46	4.193
318.67	9.313
318.88	6.180
319.09	6.166
319.30	7.547
319.51	5.582
319.72	6.077
319.93	9.213
320.13	7.876
320.34	8.111
320.55	5.644
320.76	9.578
320.97	3.393
321.18	7.120
321.39	5.348
321.60	5.626
321.80	7.221
322.01	8.360
322.22	7.098
322.43	7.630
322.64	8.577
322.85	7.736
323.06	6.964
323.27	7.206
323.47	6.675
323.68	8.968
323.89	6.753
324.10	7.287
324.31	6.527
324.52	7.123
324.73	7.994
324.93	7.260
325.14	6.670
325.35	5.363
325.56	6.780
325.77	6.250
325.98	5.766
326.19	8.414
326.39	5.317
326.60	5.423
326.81	4.664
327.02	5.974
327.23	4.463
327.44	8.128
327.64	5.135
327.85	6.930
328.06	6.823
328.27	8.304
328.48	5.242
328.69	4.366
328.90	7.605
329.10	7.371
329.31	8.033
329.52	6.585
329.73	7.087
329.94	5.257
330.15	5.497
330.35	5.311
330.56	7.615
330.77	7.588
330.98	7.190
331.19	6.376
331.39	6.021
331.60	5.565
331.81	6.052
332.02	7.781
332.23	8.693
332.44	6.093
332.64	8.142
332.85	6.829
333.06	6.745
333.27	6.109
333.48	6.963
333.68	6.965
333.89	5.037
334.10	6.851
334.31	7.383
334.52	6.995
334.72	4.341
334.93	7.067
335.14	4.962
335.35	7.592
335.56	7.885
335.76	5.852
335.97	6.862
336.18	3.505
336.39	6.269
336.60	5.226
336.80	6.058
337.01	4.914
337.22	4.141
337.43	5.190
337.64	5.707
337.84	6.543
338.05	6.196
338.26	8.156
338.47	5.097
338.68	4.927
338.88	5.289
339.09	6.635
339.30	5.548
339.51	5.315
339.71	5.037
339.92	5.818
340.13	7.103
340.34	6.902
340.55	6.262
340.75	7.643
340.96	3.134
341.17	4.686
341.38	4.249
341.58	7.164
341.79	4.234
342.00	4.169
342.21	3.463
342.41	5.721
342.62	4.545
342.83	5.621
343.04	6.085
343.24	6.657
343.45	4.669
343.66	6.054
343.87	5.426
344.07	6.034
344.28	6.713
344.49	9.006
344.70	5.785
344.90	4.737
345.11	5.113
345.32	5.281
345.53	5.301
345.73	5.077
345.94	6.266
346.15	6.843
346.36	5.103
346.56	6.427
346.77	3.919
346.98	4.766
347.19	5.831
347.39	4.846
347.60	6.177
347.81	5.982
348.02	5.149
348.22	5.636
348.43	5.988
348.64	2.098
348.84	5.350
349.05	5.293
349.26	8.068
349.47	5.893
349.67	3.943
349.88	6.228
350.09	5.824
350.30	5.762
350.50	6.179
350.71	7.934
350.92	5.673
351.12	7.424
351.33	7.284
351.54	8.732
351.74	6.644
351.95	5.351
352.16	5.977
352.37	6.094
352.57	7.128
352.78	5.085
352.99	5.097
353.19	7.436
353.40	6.280
353.61	8.057
353.82	6.885
354.02	4.877
354.23	7.868
354.44	10.607
354.64	7.006
354.85	8.951
355.06	5.420
355.26	6.686
355.47	6.611
355.68	8.192
355.88	5.889
356.09	7.611
356.30	6.610
356.51	9.859
356.71	6.156
356.92	7.207
357.13	7.477
357.33	9.967
357.54	7.829
357.75	5.177
357.95	8.182
358.16	8.161
358.37	9.570
358.57	7.210
358.78	10.049
358.99	6.634
359.19	7.450
359.40	8.662
359.61	6.645
359.81	9.401
360.02	10.679
360.23	5.241
360.43	7.370
360.64	6.714
360.85	8.175
361.05	6.242
361.26	7.274
361.47	5.538
361.67	8.726
361.88	6.204
362.09	6.805
362.29	4.899
362.50	6.437
362.70	4.952
362.91	9.333
363.12	7.162
363.32	6.490
363.53	7.437
363.74	6.984
363.94	5.812
364.15	8.829
364.36	8.111
364.56	6.264
364.77	7.514
364.98	9.248
365.18	8.529
365.39	9.104
365.59	6.400
365.80	5.520
366.01	9.442
366.21	6.184
366.42	6.300
366.63	10.145
366.83	5.699
367.04	6.296
367.24	9.449
367.45	7.193
367.66	5.585
367.86	7.515
368.07	6.121
368.28	7.367
368.48	6.658
368.69	5.491
368.89	7.086
369.10	7.556
369.31	8.027
369.51	8.156
369.72	10.564
369.92	8.635
370.13	6.789
370.34	7.025
370.54	3.238
370.75	7.626
370.95	4.875
371.16	8.101
371.37	7.160
371.57	5.739
371.78	5.638
371.98	7.364
372.19	7.703
372.40	8.090
372.60	6.308
372.81	8.041
373.01	4.723
373.22	7.015
373.43	7.710
373.63	7.131
373.84	7.767
374.04	7.120
374.25	7.318
374.46	7.137
374.66	7.053
374.87	8.296
375.07	5.201
375.28	5.367
375.48	7.457
375.69	6.319
375.90	6.558
376.10	3.700
376.31	5.616
376.51	6.219
376.72	6.071
376.92	6.234
377.13	6.928
377.34	7.009
377.54	6.542
377.75	8.044
377.95	6.019
378.16	7.573
378.36	6.399
378.57	6.758
378.77	4.810
378.98	6.639
379.19	6.815
379.39	6.140
379.60	6.409
379.80	5.762
380.01	7.001
380.21	6.255
380.42	6.654
380.62	6.715
380.83	6.399
381.04	4.661
381.24	6.827
381.45	6.037
381.65	5.347
381.86	6.042
382.06	6.684
382.27	5.507
382.47	6.187
382.68	7.051
382.88	5.489
383.09	6.260
383.29	5.748
383.50	5.475
383.71	5.820
383.91	5.126
384.12	5.322
384.32	6.098
384.53	6.028
384.73	4.317
384.94	5.408
385.14	5.683
385.35	4.822
385.55	6.050
385.76	5.229
385.96	6.218
386.17	6.128
386.37	6.095
386.58	4.784
386.78	7.255
386.99	4.567
387.19	6.907
387.40	5.423
387.60	8.056
387.81	4.689
388.01	5.181
388.22	5.005
388.42	6.560
388.63	6.635
388.83	6.709
389.04	4.564
389.24	5.340
389.45	5.588
389.65	5.972
389.86	4.879
390.06	5.055
390.27	4.854
390.47	4.361
390.68	3.654
390.88	6.156
391.09	5.997
391.29	6.490
391.50	5.033
391.70	5.862
391.91	4.055
392.11	5.751
392.32	6.233
392.52	5.269
392.73	4.628
392.93	4.471
393.14	4.844
393.34	5.351
393.55	6.717
393.75	6.931
393.95	5.071
394.16	4.949
394.36	6.176
394.57	5.205
394.77	5.552
394.98	4.554
395.18	4.961
395.39	4.611
395.59	4.699
395.80	3.970
396.00	5.238
396.21	6.147
396.41	3.513
396.61	4.453
396.82	5.841
397.02	8.515
397.23	5.643
397.43	5.797
397.64	4.425
397.84	7.320
398.05	3.350
398.25	5.233
398.45	3.404
398.66	5.587
398.86	4.894
399.07	7.192
399.27	4.906
399.48	6.017
399.68	4.001
399.89	4.114
400.09	5.100
400.29	3.058
400.50	5.567
400.70	5.882
400.91	6.324
401.11	4.872
401.32	5.478
401.52	3.918
401.72	5.115
401.93	6.364
402.13	5.990
402.34	4.889
402.54	4.662
402.75	5.658
402.95	3.942
403.15	5.515
403.36	3.327
403.56	5.291
403.77	4.246
403.97	5.864
404.17	4.630
404.38	5.797
404.58	3.520
404.79	5.155
404.99	6.330
405.19	4.821
405.40	4.258
405.60	5.501
405.81	4.993
406.01	5.360
406.21	4.379
406.42	4.917
406.62	4.097
406.83	4.833
407.03	5.649
407.23	3.685
407.44	4.354
407.64	4.896
407.85	4.611
408.05	4.683
408.25	3.984
408.46	4.701
408.66	5.581
408.87	4.540
409.07	5.538
409.27	3.537
409.48	5.902
409.68	4.676
409.88	4.417
410.09	5.461
410.29	5.761
410.50	4.933
410.70	2.865
410.90	5.096
411.11	4.070
411.31	4.744
411.51	4.537
411.72	5.655
411.92	3.405
412.12	4.422
412.33	3.236
412.53	3.591
412.74	3.012
412.94	4.321
413.14	5.574
413.35	4.489
413.55	4.009
413.75	5.064
413.96	3.986
414.16	5.485
414.36	4.362
414.57	5.011
414.77	3.817
414.97	5.197
415.18	4.331
415.38	4.147
415.58	4.276
415.79	3.244
415.99	2.942
416.19	4.484
416.40	4.458
416.60	4.025
416.80	4.119
417.01	4.243
417.21	3.356
417.41	5.567
417.62	3.473
417.82	4.464
418.02	3.043
418.23	4.867
418.43	3.784
418.63	4.216
418.84	4.579
419.04	3.908
419.24	4.579
419.45	4.688
419.65	4.160
419.85	4.610
420.06	4.998
420.26	4.181
420.46	4.297
420.67	4.932
420.87	4.821
421.07	5.476
421.28	4.377
421.48	5.420
421.68	5.691
421.88	5.510
422.09	5.505
422.29	5.272
422.49	4.143
422.70	4.884
422.90	5.019
423.10	5.314
423.31	5.129
423.51	5.642
423.71	3.753
423.91	5.518
424.12	5.423
424.32	5.365
424.52	4.816
424.73	4.541
424.93	5.149
425.13	4.409
425.33	4.748
425.54	5.864
425.74	4.673
425.94	5.906
426.15	5.515
426.35	5.037
426.55	4.972
426.75	5.345
426.96	4.848
427.16	5.043
427.36	4.630
427.57	5.598
427.77	4.246
427.97	5.291
428.17	5.746
428.38	5.752
428.58	3.140
428.78	4.412
428.98	3.621
429.19	4.491
429.39	3.039
429.59	4.322
429.79	3.251
430.00	3.740
430.20	4.098
430.40	4.194
430.60	3.577
430.81	4.971
431.01	3.672
431.21	3.997
431.41	3.184
431.62	4.711
431.82	3.707
432.02	5.354
432.22	4.515
432.43	3.379
432.63	3.483
432.83	4.125
433.03	3.689
433.24	3.870
433.44	3.999
433.64	4.797
433.84	3.142
434.05	3.930
434.25	3.949
434.45	5.155
434.65	5.172
434.85	6.126
435.06	4.661
435.26	4.995
435.46	4.686
435.66	5.173
435.87	4.061
436.07	4.747
436.27	4.122
436.47	4.177
436.67	3.677
436.88	4.821
437.08	3.597
437.28	3.661
437.48	4.030
437.69	5.001
437.89	4.282
438.09	6.195
438.29	4.362
438.49	4.323
438.70	4.302
438.90	3.410
439.10	3.768
439.30	4.447
439.50	3.230
439.71	5.329
439.91	3.829
440.11	5.692
440.31	4.731
440.51	4.395
440.72	4.093
440.92	4.809
441.12	4.980
441.32	5.693
441.52	5.383
441.72	5.739
441.93	4.543
442.13	6.213
442.33	4.967
442.53	6.211
442.73	3.970
442.94	5.116
443.14	4.725
443.34	5.654
443.54	5.222
443.74	5.842
443.94	4.985
444.15	4.505
444.35	5.152
444.55	5.174
444.75	4.775
444.95	5.016
445.15	4.824
445.36	5.307
445.56	3.522
445.76	5.943
445.96	5.027
446.16	4.557
446.36	4.452
446.57	5.825
446.77	4.096
446.97	5.787
447.17	6.484
447.37	5.852
447.57	6.352
447.77	6.043
447.98	5.933
448.18	6.524
448.38	5.457
448.58	7.068
448.78	5.962
448.98	6.081
449.18	5.285
449.39	5.944
449.59	5.084
449.79	5.184
449.99	5.499
450.19	6.051
450.39	5.534
450.59	5.984
450.79	4.969
451.00	7.231
451.20	6.458
451.40	5.443
451.60	4.856
451.80	6.489
452.00	5.303
452.20	5.488
452.40	6.008
452.61	5.340
452.81	5.541
453.01	6.865
453.21	5.345
453.41	5.782
453.61	4.929
453.81	5.636
454.01	6.030
454.21	6.118
454.42	6.966
454.62	6.464
454.82	6.017
455.02	5.700
455.22	5.927
455.42	5.724
455.62	4.888
455.82	6.493
456.02	5.649
456.23	6.358
456.43	6.154
456.63	6.957
456.83	4.985
457.03	6.758
457.23	6.160
457.43	7.104
457.63	6.191
457.83	6.802
458.03	6.101
458.23	7.211
458.43	4.791
458.64	7.002
458.84	5.785
459.04	6.791
459.24	6.874
459.44	7.483
459.64	7.393
459.84	7.652
460.04	7.214
460.24	7.914
460.44	7.799
460.64	8.394
460.84	7.507
461.04	8.334
461.24	8.437
461.45	8.759
461.65	8.520
461.85	8.861
462.05	8.206
462.25	9.060
462.45	9.199
462.65	8.735
462.85	6.988
463.05	8.802
463.25	5.721
463.45	8.762
463.65	8.427
463.85	8.910
464.05	7.452
464.25	8.290
464.45	8.673
464.65	8.414
464.85	6.952
465.05	8.031
465.26	9.136
465.46	9.399
465.66	9.202
465.86	8.740
466.06	7.919
466.26	8.989
466.46	6.791
466.66	8.804
466.86	8.447
467.06	9.495
467.26	8.701
467.46	9.700
467.66	8.747
467.86	9.486
468.06	9.148
468.26	9.682
468.46	8.635
468.66	9.832
468.86	6.865
469.06	10.958
469.26	7.823
469.46	9.624
469.66	9.064
469.86	11.038
470.06	9.044
470.26	10.398
470.46	8.510
470.66	11.197
470.86	8.461
471.06	10.280
471.26	8.052
471.46	9.054
471.66	9.461
471.86	10.233
472.06	9.445
472.26	11.881
472.46	10.674
472.66	11.116
472.86	9.243
473.06	10.040
473.26	9.816
473.46	10.622
473.66	9.706
473.86	11.209
474.06	8.932
474.26	10.477
474.46	9.018
474.66	11.306
474.86	10.212
475.06	11.346
475.26	8.110
475.46	10.876
475.66	9.759
475.86	11.329
476.06	10.988
476.26	11.421
476.46	9.486
476.66	11.535
476.86	9.741
477.06	10.053
477.26	9.525
477.46	10.815
477.65	10.791
477.85	10.657
478.05	8.587
478.25	11.987
478.45	10.194
478.65	11.290
478.85	9.767
479.05	10.908
479.25	11.367
479.45	11.619
479.65	10.064
479.85	10.526
480.05	10.615
480.25	10.776
480.45	10.385
480.65	11.170
480.85	9.978
481.05	11.122
481.25	10.539
481.44	10.814
481.64	9.047
481.84	11.192
482.04	9.735
482.24	10.837
482.44	10.018
482.64	10.240
482.84	10.381
483.04	10.131
483.24	9.436
483.44	9.361
483.64	8.704
483.84	8.852
484.04	8.691
484.23	8.999
484.43	8.980
484.63	9.002
484.83	9.619
485.03	9.937
485.23	9.994
485.43	10.091
485.63	9.938
485.83	9.465
486.03	8.881
486.23	9.942
486.42	9.790
486.62	10.021
486.82	9.686
487.02	9.581
487.22	9.442
487.42	9.056
487.62	9.272
487.82	9.269
488.02	9.296
488.22	9.081
488.41	9.257
488.61	9.013
488.81	9.257
489.01	9.311
489.21	9.460
489.41	9.174
489.61	9.906
489.81	9.865
490.01	9.914
490.20	10.409
490.40	9.792
490.60	10.253
490.80	10.054
491.00	10.112
491.20	10.093
491.40	9.635
491.60	9.594
491.79	9.497
491.99	9.524
492.19	9.154
492.39	9.129
492.59	9.360
492.79	9.370
492.99	9.618
493.19	9.605
493.38	9.807
493.58	9.388
493.78	10.075
493.98	10.370
494.18	10.506
494.38	10.677
494.58	10.959
494.77	9.894
494.97	11.463
495.17	10.227
495.37	10.754
495.57	10.473
495.77	10.975
495.96	11.373
496.16	11.339
496.36	10.727
496.56	10.570
496.76	9.966
496.96	10.845
497.15	9.728
497.35	10.429
497.55	9.490
497.75	10.976
497.95	9.793
498.15	11.003
498.34	10.011
498.54	9.943
498.74	10.254
498.94	10.868
499.14	9.372
499.34	10.935
499.53	10.704
499.73	11.047
499.93	10.010
500.13	10.438
500.33	9.486
500.52	10.812
500.72	10.149
500.92	10.627
501.12	9.767
501.32	10.378
501.52	10.389
501.71	10.245
501.91	9.192
502.11	10.747
502.31	9.459
502.51	11.333
502.70	9.273
502.90	10.471
503.10	10.117
503.30	11.152
503.50	10.196
503.69	10.308
503.89	10.504
504.09	10.703
504.29	9.877
504.48	10.381
504.68	10.707
504.88	10.841
505.08	9.288
505.28	10.621
505.47	9.811
505.67	10.870
505.87	9.543
506.07	10.027
506.27	9.221
506.46	10.408
506.66	9.477
506.86	10.452
507.06	10.553
507.25	10.258
507.45	9.645
507.65	10.796
507.85	8.569
508.04	10.740
508.24	9.941
508.44	10.724
508.64	9.521
508.83	10.141
509.03	9.028
509.23	10.128
509.43	8.576
509.63	9.557
509.82	8.599
510.02	9.648
510.22	8.965
510.42	10.186
510.61	9.946
510.81	9.976
511.01	9.174
511.21	9.886
511.40	8.702
511.60	10.293
511.80	9.214
511.99	10.375
512.19	8.828
512.39	10.001
512.59	8.973
512.78	10.271
512.98	9.555
513.18	9.389
513.38	9.322
513.57	10.419
513.77	9.333
513.97	9.666
514.17	9.041
514.36	8.970
514.56	9.152
514.76	9.882
514.95	8.111
515.15	9.384
515.35	8.656
515.55	9.638
515.74	9.811
515.94	10.594
516.14	8.425
516.33	9.694
516.53	8.741
516.73	9.143
516.93	8.265
517.12	9.887
517.32	7.840
517.52	9.335
517.71	8.621
517.91	9.577
518.11	8.672
518.30	8.831
518.50	8.284
518.70	8.724
518.90	8.568
519.09	9.573
519.29	8.989
519.49	9.149
519.68	8.423
519.88	9.063
520.08	8.871
520.27	9.148
520.47	8.950
520.67	9.261
520.86	8.888
521.06	9.601
521.26	8.232
521.45	9.639
521.65	8.803
521.85	8.506
522.04	8.239
522.24	9.048
522.44	7.990
522.63	9.212
522.83	8.255
523.03	9.357
523.22	8.253
523.42	9.534
523.62	8.987
523.81	9.055
524.01	9.325
524.21	8.689
524.40	8.205
524.60	8.906
524.80	7.880
524.99	8.256
525.19	8.311
525.39	8.882
525.58	8.116
525.78	8.658
525.98	7.921
526.17	8.958
526.37	8.333
526.57	8.360
526.76	8.343
526.96	8.573
527.15	8.171
527.35	8.684
527.55	8.190
527.74	8.854
527.94	8.199
528.14	8.247
528.33	7.995
528.53	8.150
528.72	7.846
528.92	8.126
529.12	8.174
529.31	8.081
529.51	8.161
529.71	8.277
529.90	8.252
530.10	8.363
530.29	8.192
530.49	8.545
530.69	8.488
530.88	8.652
531.08	8.357
531.28	8.680
531.47	8.589
531.67	8.256
531.86	8.110
532.06	8.969
532.26	7.817
532.45	8.501
532.65	7.611
532.84	8.196
533.04	7.152
533.24	8.338
533.43	7.702
533.63	8.146
533.82	8.106
534.02	8.478
534.22	8.294
534.41	8.074
534.61	8.424
534.80	8.453
535.00	8.080
535.19	8.693
535.39	8.490
535.59	9.117
535.78	8.425
535.98	8.153
536.17	7.962
536.37	8.001
536.57	8.488
536.76	8.236
536.96	8.041
537.15	8.670
537.35	7.803
537.54	8.163
537.74	8.119
537.93	8.578
538.13	7.641
538.33	8.623
538.52	7.677
538.72	8.550
538.91	8.376
539.11	8.451
539.30	7.974
539.50	8.313
539.70	7.820
539.89	8.589
540.09	8.383
540.28	8.215
540.48	6.840
540.67	8.414
540.87	7.986
541.06	8.026
541.26	7.478
541.45	8.549
541.65	8.140
541.85	8.212
542.04	8.212
542.24	7.948
542.43	8.229
542.63	8.202
542.82	8.310
543.02	8.528
543.21	8.336
543.41	8.418
543.60	8.336
543.80	8.781
543.99	8.858
544.19	8.465
544.38	8.281
544.58	8.526
544.77	8.323
544.97	8.922
545.16	6.867
545.36	7.964
545.56	7.873
545.75	8.549
545.95	7.854
546.14	8.488
546.34	7.275
546.53	8.213
546.73	7.516
546.92	8.815
547.12	7.272
547.31	8.304
547.51	7.649
547.70	7.957
547.90	7.469
548.09	8.489
548.29	7.445
548.48	8.793
548.68	7.678
548.87	8.601
549.07	8.193
549.26	7.777
549.46	7.191
549.65	8.076
549.84	6.855
550.04	7.353
550.23	6.734
550.43	7.966
550.62	7.532
550.82	7.409
551.01	5.706
551.21	7.259
551.40	6.470
551.60	7.208
551.79	6.503
551.99	7.393
552.18	6.000
552.38	7.779
552.57	7.542
552.77	8.090
552.96	7.141
553.16	8.687
553.35	7.073
553.54	8.722
553.74	7.247
553.93	8.679
554.13	7.139
554.32	7.884
554.52	6.376
554.71	8.065
554.91	6.795
555.10	8.399
555.29	6.004
555.49	8.083
555.68	6.438
555.88	8.275
556.07	6.216
556.27	8.030
556.46	7.228
556.66	7.713
556.85	7.517
557.04	8.994
557.24	7.287
557.43	8.600
557.63	6.924
557.82	6.571
558.02	6.578
558.21	8.268
558.40	6.189
558.60	8.290
558.79	6.659
558.99	8.312
559.18	6.920
559.38	8.278
559.57	7.937
559.76	7.691
559.96	8.020
560.15	8.450
560.35	7.440
560.54	7.069
560.73	6.919
560.93	8.775
561.12	7.235
561.32	8.277
561.51	7.927
561.70	8.145
561.90	7.533
562.09	8.565
562.29	7.341
562.48	8.147
562.67	6.652
562.87	8.760
563.06	7.777
563.26	7.915
563.45	7.751
563.64	8.990
563.84	7.081
564.03	8.563
564.23	6.782
564.42	10.238
564.61	8.179
564.81	8.812
565.00	9.277
565.20	9.700
565.39	9.183
565.58	9.618
565.78	8.199
565.97	9.404
566.16	9.673
566.36	10.898
566.55	8.716
566.74	9.944
566.94	8.612
567.13	10.079
567.33	9.466
567.52	9.795
567.71	9.767
567.91	10.384
568.10	9.202
568.29	9.914
568.49	9.126
568.68	9.903
568.87	8.755
569.07	10.456
569.26	9.522
569.45	11.296
569.65	9.913
569.84	9.998
570.04	10.063
570.23	10.646
570.42	8.586
570.62	10.035
570.81	9.872
571.00	11.062
571.20	10.683
571.39	11.134
571.58	9.588
571.78	10.375
571.97	10.265
572.16	11.108
572.36	9.904
572.55	11.197
572.74	10.639
572.94	11.096
573.13	11.122
573.32	11.272
573.51	10.236
573.71	12.166
573.90	10.164
574.09	11.611
574.29	11.228
574.48	11.275
574.67	10.293
574.87	11.278
575.06	10.499
575.25	11.514
575.45	10.596
575.64	10.868
575.83	10.632
576.03	12.031
576.22	10.129
576.41	11.379
576.60	10.259
576.80	11.624
576.99	10.654
577.18	11.330
577.38	9.985
577.57	11.475
577.76	10.801
577.95	11.272
578.15	9.674
578.34	11.808
578.53	9.316
578.73	10.626
578.92	8.968
579.11	10.588
579.30	10.584
579.50	9.708
579.69	10.375
579.88	9.841
580.08	8.032
580.27	11.223
580.46	10.191
580.65	10.333
580.85	9.468
581.04	9.469
581.23	9.793
581.42	10.585
581.62	9.148
581.81	10.508
582.00	10.339
582.19	8.761
582.39	10.350
582.58	9.248
582.77	9.696
582.96	9.046
583.16	8.301
583.35	10.729
583.54	8.887
583.73	10.097
583.93	9.447
584.12	8.494
584.31	7.652
584.50	9.334
584.70	9.538
584.89	9.238
585.08	8.747
585.27	10.141
585.47	8.108
585.66	10.165
585.85	7.724
586.04	9.681
586.24	9.631
586.43	8.522
586.62	8.547
586.81	10.539
587.00	7.577
587.20	8.845
587.39	6.868
587.58	10.253
587.77	8.738
587.97	8.118
588.16	9.477
588.35	9.777
588.54	8.556
588.73	8.920
588.93	9.341
589.12	9.450
589.31	8.907
589.50	8.211
589.69	10.056
589.89	9.557
590.08	8.382
590.27	8.903
590.46	9.032
590.65	8.371
590.85	7.499
591.04	10.210
591.23	8.948
591.42	10.006
591.61	8.270
591.81	9.685
592.00	9.051
592.19	10.637
592.38	7.677
592.57	9.998
592.77	8.991
592.96	9.367
593.15	10.329
593.34	10.279
593.53	8.325
593.72	8.791
593.92	8.533
594.11	10.458
594.30	8.180
594.49	10.641
594.68	9.723
594.87	10.613
595.07	7.790
595.26	10.308
595.45	9.063
595.64	10.598
595.83	7.537
596.02	10.922
596.22	8.188
596.41	10.865
596.60	9.020
596.79	10.859
596.98	8.789
597.17	10.932
597.37	10.047
597.56	11.014
597.75	9.241
597.94	11.760
598.13	10.844
598.32	10.413
598.51	9.646
598.71	12.371
598.90	10.104
599.09	11.395
599.28	8.456
599.47	10.448
599.66	7.900
599.85	10.189
600.05	8.587
600.24	10.500
600.43	9.263
600.62	9.887
600.81	9.041
601.00	11.211
601.19	8.496
601.38	9.717
601.58	8.877
601.77	9.594
601.96	7.682
602.15	10.057
602.34	8.842
602.53	11.428
602.72	8.006
602.91	10.442
603.10	8.680
603.30	10.605
603.49	9.033
603.68	11.216
603.87	8.776
604.06	10.416
604.25	10.621
604.44	10.925
604.63	9.923
604.82	11.867
605.01	10.324
605.21	12.041
605.40	10.704
605.59	12.553
605.78	12.151
605.97	12.174
606.16	10.569
606.35	11.808
606.54	10.968
606.73	12.605
606.92	8.397
607.11	11.981
607.30	10.317
607.50	11.299
607.69	9.714
607.88	10.851
608.07	9.009
608.26	9.199
608.45	10.728
608.64	10.754
608.83	7.989
609.02	10.239
609.21	9.982
609.40	10.936
609.59	9.022
609.78	11.324
609.97	9.576
610.16	10.405
610.35	9.759
610.55	11.582
610.74	10.261
610.93	10.458
611.12	9.949
611.31	9.922
611.50	8.822
611.69	9.140
611.88	9.042
612.07	10.896
612.26	8.066
612.45	9.062
612.64	8.546
612.83	10.089
613.02	7.969
613.21	8.015
613.40	8.502
613.59	9.115
613.78	7.387
613.97	8.868
614.16	7.161
614.35	9.686
614.54	6.144
614.73	7.802
614.92	7.239
615.11	7.879
615.30	7.930
615.49	7.513
615.68	7.404
615.87	6.751
616.07	6.186
616.26	7.852
616.45	8.871
616.64	7.635
616.83	8.200
617.02	8.825
617.21	5.280
617.40	6.952
617.59	7.520
617.78	8.044
617.97	7.407
618.16	6.601
618.35	5.068
618.54	8.036
618.73	7.357
618.92	7.377
619.11	5.713
619.30	7.486
619.49	5.449
619.68	7.601
619.86	6.404
620.05	6.228
620.24	6.480
620.43	7.082
620.62	4.681
620.81	7.236
621.00	7.162
621.19	8.836
621.38	6.813
621.57	6.738
621.76	6.560
621.95	8.146
622.14	6.112
622.33	8.740
622.52	4.935
622.71	7.132
622.90	4.942
623.09	7.918
623.28	6.375
623.47	7.203
623.66	6.745
623.85	6.277
624.04	6.113
624.23	6.525
624.42	5.944
624.61	5.440
624.80	5.596
624.99	7.097
625.18	4.025
625.36	7.838
625.55	7.477
625.74	5.815
625.93	5.453
626.12	6.398
626.31	7.084
626.50	6.538
626.69	5.644
626.88	8.784
627.07	8.498
627.26	7.640
627.45	6.829
627.64	7.476
627.83	7.379
628.02	7.488
628.20	7.071
628.39	7.342
628.58	6.173
628.77	8.631
628.96	6.162
629.15	6.431
629.34	7.664
629.53	5.935
629.72	5.004
629.91	7.795
630.10	6.392
630.29	6.040
630.47	5.405
630.66	6.521
630.85	5.803
631.04	7.627
631.23	8.019
631.42	6.822
631.61	6.121
631.80	6.979
631.99	5.852
632.18	5.432
632.36	5.655
632.55	9.060
632.74	6.481
632.93	5.707
633.12	5.355
633.31	6.661
633.50	5.271
633.69	6.334
633.88	5.817
634.06	6.903
634.25	5.220
634.44	6.142
634.63	6.373
634.82	7.867
635.01	5.394
635.20	6.610
635.39	5.137
635.57	6.706
635.76	5.876
635.95	5.375
636.14	4.737
636.33	7.216
636.52	5.413
636.71	6.346
636.89	4.937
637.08	6.021
637.27	5.358
637.46	6.964
637.65	6.081
637.84	5.997
638.03	6.508
638.21	6.842
638.40	6.653
638.59	5.339
638.78	4.638
638.97	6.220
639.16	7.241
639.34	5.830
639.53	4.479
639.72	6.121
639.91	4.999
640.10	5.104
640.29	6.592
640.47	7.938
640.66	6.603
640.85	8.181
641.04	5.635
641.23	6.729
641.42	5.229
641.60	6.451
641.79	5.663
641.98	5.884
642.17	5.593
642.36	6.599
642.54	5.179
642.73	6.689
642.92	4.487
643.11	5.471
643.30	4.382
643.49	6.647
643.67	4.691
643.86	6.248
644.05	5.051
644.24	5.680
644.43	5.923
644.61	6.281
644.80	5.634
644.99	5.850
645.18	6.479
645.37	6.570
645.55	4.683
645.74	6.566
645.93	6.661
646.12	6.436
646.31	6.247
646.49	5.188
646.68	6.154
646.87	6.445
647.06	6.124
647.24	6.976
647.43	3.545
647.62	6.580
647.81	5.198
648.00	7.113
648.18	3.739
648.37	5.021
648.56	3.954
648.75	4.889
648.93	5.017
649.12	6.731
649.31	5.038
649.50	6.049
649.68	6.465
649.87	5.746
650.06	4.762
650.25	6.535
650.43	4.509
650.62	3.938
650.81	4.851
651.00	4.761
651.18	5.266
651.37	6.418
651.56	5.573
651.75	6.543
651.93	4.249
652.12	7.568
652.31	4.376
652.50	5.772
652.68	7.059
652.87	5.884
653.06	7.137
653.25	6.270
653.43	5.967
653.62	6.624
653.81	5.906
654.00	5.934
654.18	5.851
654.37	6.932
654.56	5.059
654.74	4.464
654.93	5.570
655.12	5.086
655.31	5.647
655.49	6.825
655.68	4.271
655.87	4.333
656.05	5.036
656.24	5.490
656.43	4.078
656.62	5.071
656.80	5.857
656.99	3.986
657.18	4.700
657.36	6.037
657.55	6.096
657.74	5.776
657.93	5.734
658.11	6.150
658.30	7.256
658.49	5.657
658.67	6.105
658.86	5.915
659.05	4.710
659.23	5.951
659.42	4.214
659.61	5.137
659.79	4.818
659.98	5.271
660.17	5.667
660.35	5.666
660.54	5.770
660.73	7.613
660.91	5.857
661.10	6.035
661.29	4.345
661.47	4.712
661.66	5.449
661.85	5.120
662.03	5.135
662.22	4.077
662.41	3.679
662.59	6.458
662.78	4.278
662.97	2.684
663.15	3.706
663.34	5.478
663.53	4.514
663.71	6.478
663.90	5.208
664.09	4.945
664.27	7.485
664.46	4.066
664.65	4.591
664.83	4.370
665.02	3.825
665.21	6.857
665.39	4.612
665.58	5.789
665.77	4.537
665.95	5.065
666.14	5.092
666.32	4.431
666.51	4.163
666.70	3.950
666.88	4.727
667.07	2.896
667.26	3.983
667.44	3.222
667.63	5.301
667.81	4.824
668.00	6.035
668.19	5.639
668.37	4.714
668.56	6.556
668.75	4.148
668.93	6.750
669.12	4.245
669.30	5.483
669.49	3.810
669.68	5.265
669.86	5.590
670.05	3.676
670.23	5.014
670.42	4.972
670.61	6.742
670.79	4.799
670.98	5.875
671.16	6.183
671.35	4.700
671.54	7.334
671.72	5.708
671.91	5.776
672.09	5.708
672.28	5.459
672.46	7.010
672.65	5.427
672.84	6.961
673.02	6.457
673.21	4.949
673.39	4.791
673.58	4.986
673.77	6.401
673.95	4.673
674.14	6.498
674.32	4.744
674.51	8.067
674.69	4.708
674.88	5.003
675.07	5.801
675.25	7.918
675.44	5.842
675.62	4.719
675.81	6.101
675.99	11.709
676.18	6.290
676.36	4.507
676.55	7.196
676.74	8.188
676.92	7.014
677.11	5.007
677.29	4.882
677.48	8.026
677.66	6.605
677.85	4.936
678.03	6.228
678.22	7.896
678.40	4.876
678.59	4.791
678.78	4.651
678.96	4.585
679.15	5.953
679.33	6.849
679.52	7.262
679.70	6.681
679.89	5.282
680.07	5.731
680.26	5.703
680.44	6.575
680.63	6.163
680.81	6.020
681.00	5.473
681.18	6.008
681.37	5.954
681.55	8.131
681.74	7.406
681.92	8.097
682.11	6.546
682.29	4.686
682.48	6.076
682.66	8.000
682.85	8.492
683.03	7.714
683.22	8.031
683.40	8.679
683.59	7.607
683.77	6.278
683.96	6.266
684.14	8.155
684.33	5.925
684.51	9.750
684.70	6.635
684.88	9.909
685.07	6.472
685.25	9.374
685.44	6.189
685.62	6.084
685.81	5.483
685.99	8.349
686.18	6.391
686.36	7.419
686.55	4.902
686.73	6.610
686.92	8.697
687.10	8.921
687.29	7.320
687.47	7.480
687.65	10.187
687.84	6.450
688.02	11.045
688.21	11.017
688.39	4.927
688.58	10.004
688.76	9.699
688.95	7.679
689.13	6.798
689.32	9.035
689.50	8.382
689.68	8.202
689.87	7.177
690.05	8.209
690.24	10.509
690.42	8.991
690.61	9.152
690.79	9.600
690.98	8.647
691.16	9.064
691.34	5.645
691.53	8.024
691.71	7.722
691.90	7.589
692.08	6.058
692.27	8.862
692.45	10.543
692.63	9.084
692.82	10.847
693.00	8.772
693.19	6.064
693.37	9.829
693.56	10.106
693.74	12.845
693.92	8.506
694.11	8.904
694.29	9.472
694.48	13.289
694.66	10.262
694.84	13.063
695.03	8.291
695.21	13.976
695.40	13.733
695.58	13.166
695.76	10.345
695.95	13.714
696.13	9.287
696.32	9.526
696.50	20.159
696.68	13.295
696.87	11.540
697.05	11.578
697.24	13.695
697.42	15.219
697.60	13.784
697.79	14.583
697.97	15.643
698.16	14.965
698.34	11.933
698.52	18.238
698.71	14.737
698.89	16.423
699.07	16.620
699.26	16.527
699.44	16.424
699.63	18.452
699.81	14.526
699.99	21.246
700.18	18.917
700.36	19.016
700.54	17.762
700.73	18.065
700.91	17.040
701.09	17.913
701.28	17.684
701.46	16.432
701.64	16.968
701.83	18.746
702.01	15.157
702.20	21.992
702.38	17.328
702.56	16.911
702.75	16.591
702.93	15.097
703.11	16.086
703.30	18.750
703.48	17.567
703.66	19.526
703.85	15.414
704.03	21.339
704.21	19.265
704.40	19.941
704.58	16.553
704.76	19.638
704.95	15.774
705.13	17.183
705.31	16.345
705.50	19.082
705.68	16.320
705.86	20.447
706.04	15.815
706.23	21.276
706.41	18.579
706.59	18.227
706.78	19.163
706.96	20.942
707.14	19.547
707.33	18.995
707.51	18.911
707.69	19.080
707.88	19.471
708.06	20.876
708.24	21.076
708.42	20.163
708.61	19.485
708.79	23.285
708.97	21.123
709.16	21.425
709.34	19.304
709.52	19.924
709.71	17.728
709.89	22.471
710.07	15.655
710.25	21.170
710.44	16.026
710.62	18.739
710.80	21.925
710.98	21.467
711.17	19.725
711.35	22.982
711.53	16.757
711.72	24.713
711.90	23.669
712.08	21.447
712.26	19.310
712.45	21.927
712.63	23.670
712.81	23.977
712.99	19.015
713.18	23.740
713.36	23.156
713.54	18.885
713.72	19.199
713.91	18.853
714.09	18.369
714.27	21.585
714.45	22.389
714.64	23.655
714.82	20.654
715.00	21.364
715.18	21.573
715.37	26.417
715.55	20.481
715.73	25.301
715.91	23.814
716.10	23.423
716.28	16.847
716.46	27.477
716.64	22.397
716.83	23.772
717.01	21.315
717.19	22.568
717.37	20.748
717.55	23.266
717.74	23.134
717.92	23.151
718.10	18.426
718.28	23.194
718.47	20.596
718.65	26.175
718.83	23.045
719.01	25.417
719.19	20.056
719.38	19.138
719.56	22.676
719.74	21.231
719.92	15.648
720.10	16.791
720.29	20.406
720.47	24.498
720.65	22.999
720.83	23.558
721.01	17.922
721.20	23.709
721.38	23.149
721.56	21.763
721.74	22.999
721.92	21.375
722.11	19.196
722.29	24.226
722.47	20.801
722.65	22.015
722.83	23.839
723.01	20.113
723.20	24.293
723.38	22.375
723.56	20.459
723.74	25.705
723.92	21.470
724.10	25.308
724.29	18.813
724.47	27.254
724.65	20.093
724.83	25.326
725.01	20.628
725.19	28.490
725.38	23.920
725.56	26.913
725.74	24.351
725.92	27.983
726.10	20.052
726.28	24.954
726.46	20.776
726.65	25.234
726.83	22.149
727.01	22.922
727.19	23.891
727.37	25.223
727.55	22.902
727.73	23.285
727.92	20.277
728.10	26.979
728.28	19.525
728.46	25.658
728.64	26.144
728.82	27.135
729.00	21.737
729.19	27.427
729.37	24.244
729.55	27.081
729.73	20.519
729.91	24.201
730.09	27.568
730.27	26.811
730.45	22.342
730.63	25.358
730.82	19.640
731.00	28.555
731.18	22.376
731.36	28.923
731.54	21.483
731.72	30.997
731.90	22.501
732.08	29.518
732.26	23.621
732.45	29.989
732.63	22.704
732.81	25.946
732.99	22.849
733.17	25.749
733.35	24.272
733.53	31.599
733.71	25.799
733.89	28.658
734.07	27.529
734.25	30.601
734.44	26.705
734.62	29.148
734.80	25.976
734.98	31.117
735.16	24.487
735.34	27.584
735.52	30.334
735.70	27.534
735.88	26.240
736.06	23.906
736.24	32.121
736.42	28.352
736.60	25.816
736.78	26.512
736.97	21.031
737.15	30.077
737.33	26.158
737.51	28.071
737.69	27.479
737.87	29.563
738.05	28.127
738.23	29.478
738.41	25.430
738.59	28.420
738.77	27.240
738.95	30.247
739.13	27.332
739.31	25.507
739.49	25.728
739.67	30.329
739.85	28.676
740.03	28.509
740.21	25.708
740.39	35.186
740.57	29.185
740.75	29.817
740.93	23.194
741.11	29.042
741.30	26.152
741.48	29.855
741.66	28.945
741.84	25.290
742.02	27.799
742.20	31.639
742.38	27.969
742.56	33.613
742.74	24.068
742.92	31.563
743.10	29.685
743.28	33.417
743.46	26.072
743.64	31.974
743.82	21.460
744.00	30.979
744.18	33.820
744.36	27.704
744.54	26.808
744.72	34.664
744.90	28.891
745.08	29.811
745.26	27.939
745.44	31.008
745.62	30.391
745.80	31.183
745.98	27.975
746.16	29.369
746.34	29.000
746.52	30.372
746.70	25.755
746.87	27.223
747.05	30.840
747.23	31.101
747.41	30.447
747.59	32.358
747.77	22.915
747.95	30.790
748.13	27.505
748.31	33.483
748.49	27.373
748.67	29.502
748.85	30.071
749.03	30.376
749.21	29.613
749.39	34.140
749.57	23.679
749.75	28.398
749.93	26.146
750.11	27.305
750.29	27.397
750.47	33.850
750.65	30.513
750.83	33.915
751.01	24.332
751.18	27.718
751.36	25.639
751.54	28.864
751.72	33.642
751.90	24.913
752.08	23.055
752.26	28.109
752.44	24.630
752.62	26.178
752.80	29.448
752.98	29.767
753.16	30.513
753.34	27.723
753.52	28.851
753.69	29.468
753.87	30.983
754.05	29.891
754.23	30.018
754.41	31.019
754.59	25.864
754.77	32.230
754.95	27.773
755.13	31.168
755.31	33.109
755.49	25.819
755.66	25.464
755.84	28.159
756.02	26.952
756.20	33.566
756.38	21.688
756.56	32.507
756.74	23.359
756.92	26.542
757.10	25.333
757.28	30.431
757.45	33.516
757.63	33.009
757.81	26.655
757.99	35.133
758.17	27.535
758.35	29.672
758.53	28.422
758.71	31.550
758.88	28.007
759.06	29.964
759.24	26.404
759.42	26.926
759.60	26.779
759.78	28.325
759.96	21.841
760.13	25.982
760.31	21.226
760.49	24.402
760.67	16.931
760.85	25.508
761.03	23.410
761.21	16.370
761.38	20.489
761.56	23.023
761.74	16.379
761.92	22.498
762.10	18.977
762.28	27.362
762.46	16.512
762.63	16.983
762.81	20.489
762.99	18.510
763.17	22.031
763.35	17.012
763.53	18.151
763.70	23.203
763.88	21.261
764.06	24.540
764.24	19.102
764.42	21.597
764.60	22.107
764.77	19.479
764.95	19.721
765.13	23.043
765.31	24.670
765.49	25.342
765.66	21.704
765.84	26.043
766.02	21.832
766.20	21.860
766.38	20.894
766.56	23.696
766.73	18.357
766.91	26.240
767.09	25.103
767.27	28.184
767.45	21.606
767.62	23.356
767.80	26.330
767.98	28.312
768.16	22.949
768.33	29.470
768.51	25.490
768.69	28.203
768.87	26.099
769.05	26.935
769.22	24.826
769.40	26.660
769.58	26.814
769.76	29.960
769.94	27.424
770.11	28.726
770.29	27.400
770.47	30.347
770.65	29.873
770.82	31.665
771.00	28.804
771.18	28.855
771.36	24.808
771.53	25.172
771.71	30.230
771.89	38.950
772.07	31.050
772.25	29.157
772.42	26.533
772.60	33.178
772.78	29.484
772.96	33.213
773.13	33.099
773.31	31.243
773.49	26.729
773.67	20.930
773.84	26.406
774.02	33.459
774.20	25.634
774.37	22.922
774.55	34.898
774.73	36.636
774.91	33.863
775.08	32.114
775.26	29.098
775.44	34.823
775.62	26.422
775.79	36.939
775.97	27.027
776.15	30.106
776.32	20.537
776.50	34.234
776.68	32.196
776.86	30.625
777.03	28.054
777.21	32.664
777.39	27.339
777.56	32.410
777.74	24.433
777.92	31.499
778.10	28.329
778.27	33.603
778.45	30.229
778.63	30.000
778.80	28.790
778.98	37.080
779.16	40.058
779.34	31.329
779.51	29.499
779.69	33.566
779.87	33.610
780.04	29.564
780.22	31.812
780.40	34.639
780.57	28.411
780.75	35.014
780.93	29.672
781.10	38.102
781.28	33.470
781.46	29.549
781.63	30.396
781.81	28.343
781.99	33.042
782.16	26.901
782.34	21.746
782.52	29.549
782.69	32.915
782.87	27.653
783.05	28.714
783.22	38.730
783.40	26.006
783.58	27.055
783.75	30.736
783.93	37.479
784.11	26.016
784.28	36.792
784.46	27.543
784.64	25.039
784.81	32.532
784.99	30.648
785.17	30.492
785.34	35.362
785.52	22.764
785.69	31.571
785.87	33.052
786.05	36.068
786.22	29.134
786.40	34.704
786.58	37.102
786.75	29.073
786.93	26.582
787.11	30.658
787.28	28.435
787.46	31.596
787.63	36.752
787.81	30.898
787.99	34.853
788.16	27.326
788.34	28.414
788.51	27.835
788.69	28.466
788.87	26.215
789.04	25.910
789.22	29.144
789.39	27.435
789.57	24.870
789.75	27.332
789.92	31.529
790.10	19.720
790.27	30.213
790.45	26.885
790.63	26.588
790.80	25.110
790.98	30.145
791.15	25.301
791.33	27.911
791.51	26.537
791.68	31.220
791.86	31.457
792.03	30.000
792.21	26.789
792.39	31.861
792.56	25.873
792.74	32.143
792.91	35.651
793.09	33.609
793.26	28.345
793.44	33.276
793.62	27.778
793.79	33.552
793.97	35.516
794.14	34.655
794.32	34.644
794.49	41.882
794.67	32.554
794.84	26.011
795.02	25.554
795.20	38.051
795.37	26.968
795.55	29.601
795.72	40.813
795.90	26.968
796.07	32.931
796.25	26.923
796.42	22.783
796.60	33.681
796.77	28.524
796.95	34.290
797.13	21.521
797.30	29.950
797.48	32.047
797.65	21.203
797.83	26.113
798.00	25.728
798.18	26.947
798.35	29.943
798.53	23.333
798.70	29.618
798.88	23.913
799.05	26.324
799.23	31.677
799.40	29.299
799.58	30.069
799.75	39.216
799.93	24.914
800.10	28.053
800.28	35.078
800.45	30.700
800.63	29.317
800.80	27.713
800.98	29.554
801.15	28.673
801.33	33.157
801.50	25.734
801.68	28.902
801.85	25.729
802.03	27.181
802.20	34.831
802.38	26.855
802.55	35.000
802.73	31.652
802.90	36.549
803.08	27.402
803.25	32.308
803.43	32.079
803.60	35.062
803.78	38.983
803.95	36.382
804.13	35.121
804.30	31.827
804.48	30.233
804.65	20.079
804.83	33.052
805.00	30.862
805.17	26.408
805.35	34.848
805.52	22.562
805.70	26.792
805.87	35.305
806.05	36.300
806.22	33.643
806.40	27.168
806.57	28.464
806.75	31.927
806.92	27.193
807.09	40.987
807.27	34.315
807.44	40.076
807.62	34.244
807.79	35.893
807.97	35.524
808.14	24.600
808.31	28.395
808.49	25.338
808.66	31.407
808.84	30.039
809.01	42.251
809.19	33.745
809.36	43.992
809.53	27.579
809.71	27.799
809.88	35.477
810.06	34.252
810.23	40.000
810.41	31.328
810.58	35.729
810.75	29.614
810.93	33.925
811.10	26.316
811.28	27.964
811.45	24.319
811.62	33.034
811.80	31.915
811.97	34.416
812.15	43.195
812.32	29.526
812.49	41.830
812.67	35.319
812.84	40.879
813.02	39.238
813.19	27.088
813.36	32.755
813.54	32.743
813.71	31.364
813.89	35.463
814.06	37.037
814.23	30.275
814.41	31.915
814.58	30.288
814.75	39.558
814.93	47.857
815.10	38.718
815.28	48.775
815.45	25.616
815.62	25.659
815.80	33.256
815.97	29.814
816.14	40.803
816.32	33.252
816.49	31.316
816.66	29.000
816.84	31.152
817.01	44.035
817.18	30.769
817.36	24.714
817.53	40.547
817.71	22.246
817.88	24.773
818.05	31.767
818.23	34.048
818.40	35.849
818.57	39.957
818.75	32.947
818.92	38.578
819.09	30.118
819.27	27.843
819.44	24.652
819.61	22.325
819.79	29.424
819.96	27.327
820.13	32.470
820.31	20.522
820.48	29.936
820.65	29.680
820.82	27.406
821.00	24.088
821.17	21.459
821.34	22.461
821.52	22.597
821.69	19.160
821.86	20.133
822.04	22.841
822.21	20.169
822.38	21.116
822.56	19.570
822.73	25.958
822.90	21.948
823.07	28.060
823.25	24.595
823.42	23.350
823.59	22.978
823.77	26.314
823.94	23.042
824.11	25.496
824.29	22.496
824.46	26.166
824.63	25.501
824.80	22.650
824.98	21.041
825.15	23.538
825.32	16.614
825.49	24.018
825.67	16.827
825.84	24.591
826.01	21.419
826.19	24.291
826.36	16.811
826.53	20.081
826.70	18.937
826.88	20.351
827.05	16.252
827.22	19.702
827.39	19.252
827.57	24.334
827.74	16.606
827.91	24.383
828.08	18.065
828.26	20.804
828.43	16.955
828.60	27.352
828.77	21.544
828.95	21.345
829.12	18.340
829.29	13.404
829.46	21.104
829.64	24.534
829.81	17.355
829.98	22.375
830.15	21.205
830.32	19.546
830.50	20.160
830.67	26.607
830.84	23.433
831.01	15.674
831.19	20.804
831.36	31.098
831.53	22.619
831.70	44.530
831.87	33.678
832.05	28.713
832.22	32.511
832.39	27.391
832.56	26.718
832.74	36.161
832.91	32.700
833.08	37.854
833.25	21.617
833.42	30.743
833.60	26.471
833.77	17.157
833.94	21.196
834.11	20.485
834.28	20.755
834.45	19.953
834.63	17.850
834.80	20.913
834.97	21.929
835.14	23.750
835.31	17.600
835.49	17.199
835.66	19.239
835.83	24.865
836.00	18.477
836.17	22.699
836.34	21.875
836.52	19.868
836.69	27.482
836.86	29.531
837.03	28.499
837.20	23.718
837.37	27.057
837.55	25.487
837.72	34.682
837.89	22.392
838.06	41.587
838.23	32.536
838.40	38.061
838.58	32.533
838.75	28.490
838.92	46.552
839.09	39.153
839.26	48.396
839.43	42.363
839.60	42.809
839.78	46.296
839.95	42.671
840.12	35.759
840.29	57.643
840.46	32.168
840.63	50.000
840.80	36.000
840.98	45.429
841.15	44.250
841.32	27.869
841.49	37.101
841.66	44.536
841.83	37.067
842.00	32.911
842.17	49.589
842.34	28.653
842.52	47.006
842.69	51.572
842.86	36.332
843.03	56.604
843.20	48.571
843.37	46.853
843.54	43.902
843.71	41.224
843.88	56.291
844.06	53.441
844.23	72.464
844.40	55.303
844.57	56.596
844.74	66.812
844.91	58.796
845.08	67.451
845.25	58.394
845.42	50.251
845.59	83.041
845.76	54.091
845.94	70.253
846.11	84.577
846.28	77.931
846.45	50.307
846.62	83.243
846.79	56.111
846.96	60.633
847.13	65.882
847.30	64.646
847.47	73.077
847.64	55.814
847.81	58.791
847.98	57.297
848.15	70.968
848.32	73.711
848.50	70.186
848.67	92.361
848.84	79.293
849.01	50.340
849.18	78.421
849.35	70.157
849.52	58.960
849.69	60.116
849.86	51.534
850.03	99.315
850.20	79.861
850.37	54.286
850.54	100.000
850.71	80.488
850.88	85.315
851.05	86.301
851.22	96.894
851.39	94.845
851.56	52.083
851.73	57.778
851.90	95.625
852.07	86.471
852.24	81.618
852.41	91.241
852.58	59.848
852.75	94.083
852.92	65.761
853.09	70.950
853.26	84.713
853.43	45.909
853.60	61.340
853.77	101.418
853.94	56.818
854.11	81.197
854.28	83.511
854.45	34.266
854.62	71.812
854.79	70.000
854.96	77.536
855.13	57.778
855.30	64.249
855.47	71.034
855.64	100.000
855.81	107.937
855.98	80.000
856.15	64.138
856.32	70.423
856.49	87.215
856.66	86.047
856.83	76.440
857.00	59.016
857.17	64.167
857.34	76.515
857.51	53.205
857.68	75.000
857.85	75.152
858.02	124.324
858.19	83.571
858.36	106.286
858.53	117.714
858.70	68.212
858.87	110.345
859.04	78.169
859.21	68.696
859.38	82.119
859.55	131.481
859.72	99.174
859.89	150.000
860.05	98.450
860.22	107.237
860.39	125.234
860.56	94.495
860.73	83.735
860.90	81.333
861.07	89.071
861.24	101.709
861.41	98.571
861.58	82.759
861.75	105.556
861.92	82.677
862.09	80.120
862.26	89.362
862.43	87.218
862.59	55.385
862.76	83.673
862.93	115.528
863.10	43.448
863.27	64.324
863.44	98.684
863.61	89.412
863.78	66.197
863.95	127.481
864.12	90.972
864.29	75.194
864.45	82.192
864.62	92.481
864.79	89.189
864.96	80.952
865.13	74.046
865.30	115.455
865.47	108.333
865.64	103.750
865.81	67.901
865.97	69.945
866.14	75.714
866.31	94.309
866.48	71.318
866.65	92.000
866.82	73.154
866.99	146.602
867.16	58.571
867.33	82.051
867.49	108.759
867.66	81.553
867.83	77.600
868.00	73.050
868.17	115.152
868.34	93.836
868.51	71.831
868.67	115.702
868.84	101.361
869.01	125.197
869.18	99.225
869.35	132.222
869.52	75.342
869.69	67.939
869.85	73.262
870.02	72.897
870.19	125.210
870.36	72.789
870.53	61.932
870.70	52.326
870.86	64.780
871.03	115.126
871.20	58.278
871.37	74.641
871.54	74.483
871.71	70.370
871.87	79.452
872.04	66.452
872.21	160.215
872.38	77.914
872.55	61.972
872.72	64.651
872.88	75.740
873.05	69.231
873.22	69.048
873.39	88.415
873.56	65.318
873.72	88.060
873.89	76.812
874.06	99.342
874.23	120.339
874.40	69.231
874.56	133.962
874.73	76.630
874.90	89.831
875.07	97.222
875.24	47.977
875.40	63.871
875.57	95.977
875.74	58.000
875.91	87.603
876.08	85.606
876.24	98.701
876.41	80.233
876.58	93.168
876.75	73.214
876.92	55.752
877.08	109.821
877.25	90.506
877.42	58.519
877.59	87.413
877.75	104.698
877.92	82.400
878.09	74.436
878.26	106.494
878.42	97.101
878.59	103.676
878.76	94.231
878.93	73.099
879.09	61.170
879.26	61.081
879.43	80.588
879.60	80.247
879.76	73.856
879.93	74.684
880.10	66.667
880.27	45.413
880.43	71.220
880.60	42.009
880.77	58.442
880.94	43.636
881.10	52.778
881.27	34.933
881.44	38.568
881.61	31.878
881.77	31.151
881.94	17.597
882.11	19.749
882.28	19.306
882.44	20.742
882.61	23.451
882.78	18.940
882.94	23.670
883.11	21.173
883.28	17.678
883.45	19.723
883.61	16.068
883.78	14.392
883.95	22.477
884.11	22.024
884.28	22.565
>>>>>End Processed Spectral Data<<<<<
