SpectraSuite Data File
++++++++++++++++++++++++++++++++++++
Date: Fri Sep 20 03:15:42 EST 2019
User: sgrac
Dark Spectrum Present: Yes
Reference Spectrum Present: Yes
Number of Sampled Component Spectra: 1
Spectrometers: USB4E01596
Integration Time (usec): 100000 (USB4E01596)
Spectra Averaged: 1 (USB4E01596)
Boxcar Smoothing: 0 (USB4E01596)
Correct for Electrical Dark: No (USB4E01596)
Strobe/Lamp Enabled: Yes (USB4E01596)
Correct for Detector Non-linearity: No (USB4E01596)
Correct for Stray Light: No (USB4E01596)
Number of Pixels in Processed Spectrum: 3648
>>>>>Begin Processed Spectral Data<<<<<
178.44	500.000
178.66	500.000
178.87	500.000
179.09	-560.000
179.30	270.000
179.52	532.143
179.74	2940.000
179.95	-354.286
180.17	-593.750
180.38	-781.250
180.60	-451.613
180.82	591.304
181.03	-2625.000
181.25	-1140.000
181.46	-1054.545
181.68	0.000
181.89	11000.000
182.11	975.000
182.33	1153.846
182.54	-311.429
182.76	280.000
182.97	462.963
183.19	1522.222
183.40	-956.250
183.62	900.000
183.84	-215.000
184.05	0.000
184.27	13700.000
184.48	650.000
184.70	8300.000
184.91	1261.538
185.13	395.455
185.34	264.815
185.56	-700.000
185.78	542.105
185.99	-8450.000
186.21	457.143
186.42	1100.000
186.64	197.015
186.85	238.272
187.07	608.333
187.28	-197.297
187.50	-450.000
187.72	275.000
187.93	13200.000
188.15	786.364
188.36	257.692
188.58	711.765
188.79	6350.000
189.01	517.647
189.22	1291.667
189.44	408.511
189.65	-700.000
189.87	900.000
190.09	452.778
190.30	-3060.000
190.52	375.610
190.73	611.111
190.95	-1092.308
191.16	-1125.000
191.38	-600.000
191.59	1222.222
191.81	327.500
192.02	377.500
192.24	222.222
192.45	371.429
192.67	609.091
192.88	0.000
193.10	447.059
193.31	-1250.000
193.53	340.909
193.74	281.579
193.96	1500.000
194.18	240.580
194.39	310.000
194.61	543.333
194.82	434.483
195.04	1150.000
195.25	361.702
195.47	915.789
195.68	-940.000
195.90	3200.000
196.11	3225.000
196.33	-525.926
196.54	606.897
196.76	273.333
196.97	594.444
197.19	-711.111
197.40	352.778
197.62	-850.000
197.83	860.000
198.05	455.263
198.26	540.909
198.48	983.333
198.69	382.857
198.91	1585.714
199.12	392.500
199.34	267.692
199.55	-1100.000
199.77	690.000
199.98	2340.000
200.20	1300.000
200.41	506.061
200.63	-2440.000
200.84	382.927
201.06	-11800.000
201.27	917.647
201.49	336.066
201.70	894.118
201.91	987.500
202.13	790.000
202.34	3550.000
202.56	1885.714
202.77	-2383.333
202.99	726.667
203.20	733.333
203.42	-432.143
203.63	509.677
203.85	-454.167
204.06	3333.333
204.28	-2900.000
204.49	1042.857
204.71	260.417
204.92	1500.000
205.14	0.000
205.35	706.667
205.56	453.571
205.78	512.821
205.99	345.946
206.21	575.862
206.42	2733.333
206.64	-363.415
206.85	760.000
207.07	1061.538
207.28	470.000
207.50	-1425.000
207.71	358.140
207.93	5500.000
208.14	-267.568
208.35	441.379
208.57	-887.500
208.78	631.034
209.00	305.263
209.21	0.000
209.43	652.174
209.64	346.512
209.86	1985.714
210.07	1181.818
210.28	528.571
210.50	2320.000
210.71	317.949
210.93	336.842
211.14	324.590
211.36	408.571
211.57	1575.000
211.78	-640.909
212.00	565.385
212.21	-547.368
212.43	429.032
212.64	357.143
212.86	550.000
213.07	603.571
213.29	190.789
213.50	-344.118
213.71	-11200.000
213.93	-1366.667
214.14	786.667
214.36	-1771.429
214.57	168.605
214.78	320.000
215.00	-4666.667
215.21	-1883.333
215.43	-306.061
215.64	831.250
215.86	-3125.000
216.07	566.667
216.28	246.774
216.50	334.043
216.71	-2400.000
216.93	1207.143
217.14	272.222
217.35	252.632
217.57	-753.333
217.78	1681.818
218.00	315.909
218.21	211.475
218.42	279.592
218.64	291.111
218.85	286.207
219.07	316.000
219.28	652.381
219.49	-1118.182
219.71	352.381
219.92	1983.333
220.14	4333.333
220.35	2500.000
220.56	913.333
220.78	255.556
220.99	2450.000
221.21	378.378
221.42	392.593
221.63	450.000
221.85	13200.000
222.06	503.448
222.28	510.000
222.49	16200.000
222.70	-4166.667
222.92	267.857
223.13	198.551
223.34	243.636
223.56	294.595
223.77	743.750
223.99	226.923
224.20	140.541
224.41	320.930
224.63	382.353
224.84	380.000
225.05	304.167
225.27	337.037
225.48	237.975
225.69	293.182
225.91	183.117
226.12	243.548
226.34	221.739
226.55	190.625
226.76	183.582
226.98	132.456
227.19	360.000
227.40	113.333
227.62	120.270
227.83	166.316
228.04	246.296
228.26	110.185
228.47	102.083
228.69	72.527
228.90	61.236
229.11	57.854
229.33	51.230
229.54	61.224
229.75	47.529
229.97	46.959
230.18	48.370
230.39	45.588
230.61	46.273
230.82	36.275
231.03	37.598
231.25	37.791
231.46	49.524
231.67	59.459
231.89	47.426
232.10	58.397
232.31	60.930
232.53	66.795
232.74	63.525
232.95	61.307
233.17	66.667
233.38	56.019
233.59	62.941
233.81	70.796
234.02	41.379
234.23	72.043
234.45	87.417
234.66	57.426
234.87	65.116
235.09	62.667
235.30	65.161
235.51	57.328
235.73	47.396
235.94	61.290
236.15	57.463
236.36	56.118
236.58	58.159
236.79	56.371
237.00	38.554
237.22	56.034
237.43	69.259
237.64	61.364
237.86	66.667
238.07	52.988
238.28	40.741
238.50	57.025
238.71	53.191
238.92	59.926
239.13	64.286
239.35	58.986
239.56	50.685
239.77	76.680
239.99	44.531
240.20	57.194
240.41	46.395
240.63	40.308
240.84	52.516
241.05	35.328
241.26	44.186
241.48	45.844
241.69	28.668
241.90	41.099
242.12	22.334
242.33	26.236
242.54	24.089
242.75	23.574
242.97	19.088
243.18	16.229
243.39	17.571
243.61	19.838
243.82	17.233
244.03	16.386
244.24	14.976
244.46	23.778
244.67	24.800
244.88	21.875
245.09	16.315
245.31	17.053
245.52	19.388
245.73	23.548
245.95	37.266
246.16	28.873
246.37	17.617
246.58	21.659
246.80	20.552
247.01	18.117
247.22	14.120
247.43	10.799
247.65	12.223
247.86	13.378
248.07	10.177
248.28	11.052
248.50	11.871
248.71	11.953
248.92	5.901
249.13	10.019
249.35	11.598
249.56	12.491
249.77	12.566
249.98	14.480
250.20	20.742
250.41	18.182
250.62	11.957
250.83	17.258
251.05	20.263
251.26	18.367
251.47	25.142
251.68	17.523
251.90	21.317
252.11	29.228
252.32	23.197
252.53	23.602
252.75	17.686
252.96	20.305
253.17	18.591
253.38	18.765
253.59	18.300
253.81	19.863
254.02	18.743
254.23	20.477
254.44	17.535
254.66	19.803
254.87	18.371
255.08	25.318
255.29	22.801
255.50	27.839
255.72	29.259
255.93	30.100
256.14	36.809
256.35	30.556
256.57	23.713
256.78	30.700
256.99	12.766
257.20	28.660
257.41	24.381
257.63	24.190
257.84	27.223
258.05	29.883
258.26	18.166
258.47	21.207
258.69	25.520
258.90	15.470
259.11	17.197
259.32	17.030
259.53	13.261
259.75	13.979
259.96	9.869
260.17	9.720
260.38	10.627
260.59	7.697
260.81	8.763
261.02	8.595
261.23	6.553
261.44	8.165
261.65	8.299
261.87	7.590
262.08	9.392
262.29	9.080
262.50	9.149
262.71	9.304
262.92	12.737
263.14	15.043
263.35	16.806
263.56	15.579
263.77	18.499
263.98	20.690
264.20	15.939
264.41	18.140
264.62	16.319
264.83	13.972
265.04	23.529
265.25	13.076
265.47	20.599
265.68	20.101
265.89	15.681
266.10	12.548
266.31	22.797
266.52	16.234
266.74	13.514
266.95	14.130
267.16	19.169
267.37	13.085
267.58	14.519
267.79	15.727
268.01	11.487
268.22	10.036
268.43	13.552
268.64	9.571
268.85	18.509
269.06	10.681
269.27	16.779
269.49	12.263
269.70	14.135
269.91	13.486
270.12	12.155
270.33	12.420
270.54	15.589
270.75	13.536
270.97	13.039
271.18	13.194
271.39	15.199
271.60	14.570
271.81	9.904
272.02	11.146
272.23	7.840
272.45	12.870
272.66	9.766
272.87	12.856
273.08	10.085
273.29	10.712
273.50	5.293
273.71	10.578
273.92	9.521
274.14	11.419
274.35	10.238
274.56	10.013
274.77	10.993
274.98	11.047
275.19	10.827
275.40	10.287
275.61	9.232
275.83	16.446
276.04	11.632
276.25	15.811
276.46	12.522
276.67	15.903
276.88	10.972
277.09	17.964
277.30	16.023
277.51	13.122
277.73	8.868
277.94	13.808
278.15	14.151
278.36	13.823
278.57	11.538
278.78	9.482
278.99	7.658
279.20	13.249
279.41	17.172
279.62	11.300
279.84	13.402
280.05	11.780
280.26	12.986
280.47	14.461
280.68	13.176
280.89	14.818
281.10	12.684
281.31	14.844
281.52	13.728
281.73	10.391
281.94	6.837
282.16	9.889
282.37	12.220
282.58	8.443
282.79	11.463
283.00	13.067
283.21	6.908
283.42	7.588
283.63	12.092
283.84	10.411
284.05	10.006
284.26	11.220
284.47	10.452
284.68	10.468
284.89	6.831
285.11	10.506
285.32	9.468
285.53	10.406
285.74	9.144
285.95	7.858
286.16	8.660
286.37	8.240
286.58	7.388
286.79	7.290
287.00	6.275
287.21	7.685
287.42	4.507
287.63	6.620
287.84	8.753
288.05	7.839
288.26	8.050
288.48	9.604
288.69	6.442
288.90	7.974
289.11	10.536
289.32	8.240
289.53	8.276
289.74	8.293
289.95	7.434
290.16	11.795
290.37	8.705
290.58	8.022
290.79	8.710
291.00	9.923
291.21	10.252
291.42	7.605
291.63	7.548
291.84	8.143
292.05	8.360
292.26	6.604
292.47	10.584
292.68	6.398
292.89	10.706
293.10	10.272
293.31	7.983
293.52	11.423
293.73	10.123
293.94	10.356
294.15	9.024
294.36	7.460
294.57	9.602
294.79	8.593
295.00	7.831
295.21	7.022
295.42	5.520
295.63	12.608
295.84	8.782
296.05	9.888
296.26	8.002
296.47	7.760
296.68	5.829
296.89	9.459
297.10	7.990
297.31	8.170
297.52	7.191
297.73	7.924
297.94	5.504
298.15	5.795
298.36	5.671
298.57	4.729
298.78	6.746
298.99	4.886
299.20	6.189
299.41	5.614
299.62	5.359
299.83	7.123
300.04	5.743
300.25	9.040
300.46	5.696
300.67	7.582
300.88	7.393
301.09	6.781
301.30	8.348
301.50	6.869
301.71	11.248
301.92	11.788
302.13	8.979
302.34	5.939
302.55	8.101
302.76	8.072
302.97	6.978
303.18	6.754
303.39	4.945
303.60	8.014
303.81	10.567
304.02	7.563
304.23	6.524
304.44	8.696
304.65	7.688
304.86	7.737
305.07	7.724
305.28	9.388
305.49	6.931
305.70	10.223
305.91	9.096
306.12	6.280
306.33	7.533
306.54	7.791
306.75	7.920
306.96	8.578
307.17	8.251
307.38	12.710
307.58	5.868
307.79	11.058
308.00	7.722
308.21	8.785
308.42	7.882
308.63	8.650
308.84	8.610
309.05	5.815
309.26	6.291
309.47	6.828
309.68	6.659
309.89	5.696
310.10	6.495
310.31	9.864
310.52	4.752
310.73	8.717
310.94	8.661
311.14	7.164
311.35	6.736
311.56	7.578
311.77	4.862
311.98	5.376
312.19	6.444
312.40	7.028
312.61	7.286
312.82	7.280
313.03	9.022
313.24	9.870
313.45	4.368
313.66	8.065
313.86	5.646
314.07	7.481
314.28	7.297
314.49	7.882
314.70	10.285
314.91	9.486
315.12	7.286
315.33	10.288
315.54	5.127
315.75	7.780
315.96	5.937
316.16	6.439
316.37	8.718
316.58	9.779
316.79	9.050
317.00	9.780
317.21	5.147
317.42	6.806
317.63	10.418
317.84	6.515
318.05	7.729
318.25	9.086
318.46	5.284
318.67	11.881
318.88	6.710
319.09	8.959
319.30	7.547
319.51	6.663
319.72	7.040
319.93	9.388
320.13	7.876
320.34	10.835
320.55	11.003
320.76	10.904
320.97	6.786
321.18	8.659
321.39	7.898
321.60	9.166
321.80	9.542
322.01	8.684
322.22	8.809
322.43	7.630
322.64	8.577
322.85	10.653
323.06	11.484
323.27	9.273
323.47	6.799
323.68	8.968
323.89	7.986
324.10	9.081
324.31	8.352
324.52	7.863
324.73	9.335
324.93	7.207
325.14	7.257
325.35	7.099
325.56	10.120
325.77	8.950
325.98	6.879
326.19	9.944
326.39	5.756
326.60	4.714
326.81	5.940
327.02	6.751
327.23	4.564
327.44	10.493
327.64	5.783
327.85	7.790
328.06	6.524
328.27	8.813
328.48	9.123
328.69	4.997
328.90	7.708
329.10	6.016
329.31	8.764
329.52	8.178
329.73	9.618
329.94	6.600
330.15	6.941
330.35	9.537
330.56	10.228
330.77	9.973
330.98	7.190
331.19	9.018
331.39	9.920
331.60	8.511
331.81	8.195
332.02	8.333
332.23	10.000
332.44	8.658
332.64	6.557
332.85	7.751
333.06	7.302
333.27	6.659
333.48	7.592
333.68	6.601
333.89	6.506
334.10	7.584
334.31	9.861
334.52	6.788
334.72	7.104
334.93	9.086
335.14	6.445
335.35	9.791
335.56	8.449
335.76	6.718
335.97	6.564
336.18	4.707
336.39	8.291
336.60	9.347
336.80	8.987
337.01	5.209
337.22	5.506
337.43	8.304
337.64	7.962
337.84	8.393
338.05	6.792
338.26	7.529
338.47	9.546
338.68	7.674
338.88	5.143
339.09	8.376
339.30	7.193
339.51	6.397
339.71	6.650
339.92	5.866
340.13	7.813
340.34	7.299
340.55	8.562
340.75	9.024
340.96	6.219
341.17	7.278
341.38	8.981
341.58	10.402
341.79	7.374
342.00	6.774
342.21	6.404
342.41	5.953
342.62	6.887
342.83	6.183
343.04	6.131
343.24	7.071
343.45	5.789
343.66	9.658
343.87	6.473
344.07	6.851
344.28	10.180
344.49	9.808
344.70	7.489
344.90	6.096
345.11	6.976
345.32	7.042
345.53	7.225
345.73	4.224
345.94	7.593
346.15	8.491
346.36	6.171
346.56	6.508
346.77	7.096
346.98	6.462
347.19	7.899
347.39	6.489
347.60	5.597
347.81	7.170
348.02	7.277
348.22	5.767
348.43	7.613
348.64	5.682
348.84	7.873
349.05	4.685
349.26	8.504
349.47	7.232
349.67	8.108
349.88	8.188
350.09	7.765
350.30	7.668
350.50	7.818
350.71	8.112
350.92	6.859
351.12	6.669
351.33	8.060
351.54	7.168
351.74	6.858
351.95	6.272
352.16	6.571
352.37	7.425
352.57	8.152
352.78	6.821
352.99	5.729
353.19	6.615
353.40	7.666
353.61	8.232
353.82	8.670
354.02	5.999
354.23	7.668
354.44	10.025
354.64	7.726
354.85	8.019
355.06	6.656
355.26	6.971
355.47	6.093
355.68	7.835
355.88	7.761
356.09	6.626
356.30	6.764
356.51	6.894
356.71	7.842
356.92	6.944
357.13	7.045
357.33	10.480
357.54	7.620
357.75	4.407
357.95	6.302
358.16	7.428
358.37	7.650
358.57	7.436
358.78	8.189
358.99	5.255
359.19	5.960
359.40	7.782
359.61	7.955
359.81	8.100
360.02	7.413
360.23	6.460
360.43	5.632
360.64	6.489
360.85	7.181
361.05	4.673
361.26	7.184
361.47	5.712
361.67	7.267
361.88	5.473
362.09	6.497
362.29	5.427
362.50	4.331
362.70	5.733
362.91	6.057
363.12	6.025
363.32	5.290
363.53	5.151
363.74	5.446
363.94	4.594
364.15	6.023
364.36	7.066
364.56	5.931
364.77	6.243
364.98	7.546
365.18	7.043
365.39	7.058
365.59	6.220
365.80	4.519
366.01	7.884
366.21	5.400
366.42	6.748
366.63	8.207
366.83	5.094
367.04	5.313
367.24	8.486
367.45	6.737
367.66	4.633
367.86	5.898
368.07	6.569
368.28	6.154
368.48	7.340
368.69	5.052
368.89	5.422
369.10	6.520
369.31	6.596
369.51	5.173
369.72	7.108
369.92	7.365
370.13	5.502
370.34	6.124
370.54	3.961
370.75	6.382
370.95	3.932
371.16	7.334
371.37	5.704
371.57	6.043
371.78	5.989
371.98	6.093
372.19	7.082
372.40	6.018
372.60	4.934
372.81	5.720
373.01	4.612
373.22	5.590
373.43	6.894
373.63	5.966
373.84	4.660
374.04	7.263
374.25	5.346
374.46	5.616
374.66	5.282
374.87	5.373
375.07	3.536
375.28	5.190
375.48	6.136
375.69	5.693
375.90	5.047
376.10	4.456
376.31	5.088
376.51	5.661
376.72	5.581
376.92	5.839
377.13	5.908
377.34	5.419
377.54	4.574
377.75	6.333
377.95	5.180
378.16	6.442
378.36	6.374
378.57	4.649
378.77	4.688
378.98	5.306
379.19	6.129
379.39	4.630
379.60	5.212
379.80	5.638
380.01	5.354
380.21	5.428
380.42	5.187
380.62	5.725
380.83	5.665
381.04	4.353
381.24	6.077
381.45	5.683
381.65	5.244
381.86	4.570
382.06	6.839
382.27	5.661
382.47	4.759
382.68	5.294
382.88	6.130
383.09	5.499
383.29	4.657
383.50	4.317
383.71	5.510
383.91	4.928
384.12	5.419
384.32	5.098
384.53	5.583
384.73	4.887
384.94	4.406
385.14	4.339
385.35	4.321
385.55	4.415
385.76	5.089
385.96	4.848
386.17	4.927
386.37	4.881
386.58	4.598
386.78	5.111
386.99	4.339
387.19	5.136
387.40	4.427
387.60	5.900
387.81	4.570
388.01	4.528
388.22	4.545
388.42	5.437
388.63	4.982
388.83	5.481
389.04	4.336
389.24	4.935
389.45	5.054
389.65	3.652
389.86	4.525
390.06	4.496
390.27	4.201
390.47	3.967
390.68	3.928
390.88	5.372
391.09	4.717
391.29	4.677
391.50	4.048
391.70	4.677
391.91	3.845
392.11	4.350
392.32	5.074
392.52	3.334
392.73	3.658
392.93	4.646
393.14	3.930
393.34	4.538
393.55	4.379
393.75	5.492
393.95	3.606
394.16	4.204
394.36	5.655
394.57	4.331
394.77	3.816
394.98	4.130
395.18	3.961
395.39	3.472
395.59	3.543
395.80	4.066
396.00	3.349
396.21	4.532
396.41	3.337
396.61	4.250
396.82	4.235
397.02	5.926
397.23	4.510
397.43	4.607
397.64	5.000
397.84	5.347
398.05	3.872
398.25	4.525
398.45	3.468
398.66	5.307
398.86	4.189
399.07	5.818
399.27	4.452
399.48	4.779
399.68	3.837
399.89	4.519
400.09	4.640
400.29	3.473
400.50	4.475
400.70	5.759
400.91	4.159
401.11	3.813
401.32	4.824
401.52	3.276
401.72	4.187
401.93	5.275
402.13	4.981
402.34	3.588
402.54	4.087
402.75	4.045
402.95	3.769
403.15	4.421
403.36	4.226
403.56	4.295
403.77	3.225
403.97	4.565
404.17	3.816
404.38	3.839
404.58	2.894
404.79	3.881
404.99	4.194
405.19	3.661
405.40	3.603
405.60	3.816
405.81	3.190
406.01	4.038
406.21	4.524
406.42	3.906
406.62	3.970
406.83	3.449
407.03	4.626
407.23	3.504
407.44	4.222
407.64	3.821
407.85	4.023
408.05	4.872
408.25	4.163
408.46	4.203
408.66	4.899
408.87	4.261
409.07	3.989
409.27	4.488
409.48	4.880
409.68	4.596
409.88	3.759
410.09	4.903
410.29	4.014
410.50	4.338
410.70	3.523
410.90	4.381
411.11	3.556
411.31	3.758
411.51	3.923
411.72	3.906
411.92	3.115
412.12	4.237
412.33	3.140
412.53	3.552
412.74	3.690
412.94	4.164
413.14	4.579
413.35	2.987
413.55	3.403
413.75	3.877
413.96	3.460
414.16	4.605
414.36	3.272
414.57	3.860
414.77	3.505
414.97	4.719
415.18	4.033
415.38	3.656
415.58	4.030
415.79	3.918
415.99	3.285
416.19	3.539
416.40	3.264
416.60	3.023
416.80	3.583
417.01	3.473
417.21	2.358
417.41	4.081
417.62	3.531
417.82	3.000
418.02	2.373
418.23	3.705
418.43	3.439
418.63	3.089
418.84	3.887
419.04	2.766
419.24	3.336
419.45	3.282
419.65	3.208
419.85	3.184
420.06	3.336
420.26	2.681
420.46	2.828
420.67	3.520
420.87	3.195
421.07	3.641
421.28	3.553
421.48	3.380
421.68	3.596
421.88	3.662
422.09	3.771
422.29	3.170
422.49	2.940
422.70	2.695
422.90	3.240
423.10	2.942
423.31	3.803
423.51	3.433
423.71	3.323
423.91	3.688
424.12	3.583
424.32	3.729
424.52	3.274
424.73	2.911
424.93	2.999
425.13	2.624
425.33	2.942
425.54	3.538
425.74	3.099
425.94	3.434
426.15	3.383
426.35	2.784
426.55	3.284
426.75	3.283
426.96	3.056
427.16	3.092
427.36	2.795
427.57	3.675
427.77	2.744
427.97	3.451
428.17	3.362
428.38	3.697
428.58	2.566
428.78	3.535
428.98	2.900
429.19	3.123
429.39	2.799
429.59	3.477
429.79	2.795
430.00	3.458
430.20	3.287
430.40	3.571
430.60	2.505
430.81	3.204
431.01	2.844
431.21	3.537
431.41	3.100
431.62	3.313
431.82	2.908
432.02	3.493
432.22	2.948
432.43	2.650
432.63	3.047
432.83	3.380
433.03	2.480
433.24	2.943
433.44	3.685
433.64	3.225
433.84	2.458
434.05	2.907
434.25	2.622
434.45	3.331
434.65	3.459
434.85	4.015
435.06	3.188
435.26	3.367
435.46	3.540
435.66	3.604
435.87	3.140
436.07	3.385
436.27	3.006
436.47	2.164
436.67	2.575
436.88	2.890
437.08	2.731
437.28	3.088
437.48	2.471
437.69	3.289
437.89	3.161
438.09	3.734
438.29	2.944
438.49	3.090
438.70	3.005
438.90	2.288
439.10	2.902
439.30	2.828
439.50	2.178
439.71	3.290
439.91	2.719
440.11	3.570
440.31	2.539
440.51	2.685
440.72	2.586
440.92	2.282
441.12	2.881
441.32	3.063
441.52	3.119
441.72	3.099
441.93	3.047
442.13	3.705
442.33	2.332
442.53	4.057
442.73	2.302
442.94	2.715
443.14	2.977
443.34	3.182
443.54	2.742
443.74	3.454
443.94	2.694
444.15	2.269
444.35	3.036
444.55	2.766
444.75	2.938
444.95	3.037
445.15	2.901
445.36	3.139
445.56	2.238
445.76	3.571
445.96	2.471
446.16	2.464
446.36	2.325
446.57	3.258
446.77	2.295
446.97	2.912
447.17	3.103
447.37	2.908
447.57	3.075
447.77	3.384
447.98	2.887
448.18	3.446
448.38	2.893
448.58	3.566
448.78	2.930
448.98	3.185
449.18	2.478
449.39	2.368
449.59	2.508
449.79	2.719
449.99	2.611
450.19	3.151
450.39	3.278
450.59	2.982
450.79	2.964
451.00	3.327
451.20	4.446
451.40	2.973
451.60	3.036
451.80	3.643
452.00	2.730
452.20	3.017
452.40	3.382
452.61	2.832
452.81	2.846
453.01	3.252
453.21	2.346
453.41	2.633
453.61	2.199
453.81	3.069
454.01	3.347
454.21	2.713
454.42	3.788
454.62	2.802
454.82	2.963
455.02	2.803
455.22	3.073
455.42	2.622
455.62	1.970
455.82	2.961
456.02	3.126
456.23	2.668
456.43	3.474
456.63	3.700
456.83	2.487
457.03	2.723
457.23	3.030
457.43	3.261
457.63	3.196
457.83	3.227
458.03	3.394
458.23	3.347
458.43	2.745
458.64	2.727
458.84	3.283
459.04	2.671
459.24	2.854
459.44	3.092
459.64	2.784
459.84	3.267
460.04	2.760
460.24	3.094
460.44	3.446
460.64	3.675
460.84	2.864
461.04	3.900
461.24	3.374
461.45	4.255
461.65	3.589
461.85	3.981
462.05	3.542
462.25	3.575
462.45	4.036
462.65	3.796
462.85	2.557
463.05	3.750
463.25	2.076
463.45	3.773
463.65	2.957
463.85	3.459
464.05	3.163
464.25	3.100
464.45	3.423
464.65	3.101
464.85	2.559
465.05	2.886
465.26	4.082
465.46	3.542
465.66	4.498
465.86	3.254
466.06	2.895
466.26	3.078
466.46	2.547
466.66	3.161
466.86	3.281
467.06	3.478
467.26	3.375
467.46	4.040
467.66	3.296
467.86	3.488
468.06	2.927
468.26	3.729
468.46	3.481
468.66	3.263
468.86	2.086
469.06	4.942
469.26	2.805
469.46	3.409
469.66	3.036
469.86	4.356
470.06	3.216
470.26	4.125
470.46	3.296
470.66	4.468
470.86	3.147
471.06	3.623
471.26	2.734
471.46	2.912
471.66	3.395
471.86	3.538
472.06	3.275
472.26	4.736
472.46	4.010
472.66	4.074
472.86	3.533
473.06	3.380
473.26	3.733
473.46	4.043
473.66	3.003
473.86	4.336
474.06	2.468
474.26	3.618
474.46	2.598
474.66	4.213
474.86	3.781
475.06	3.935
475.26	2.309
475.46	3.856
475.66	2.949
475.86	3.486
476.06	3.760
476.26	4.440
476.46	3.196
476.66	4.465
476.86	3.052
477.06	3.425
477.26	3.336
477.46	4.009
477.65	3.929
477.85	3.875
478.05	2.491
478.25	4.637
478.45	3.619
478.65	3.843
478.85	2.809
479.05	3.897
479.25	3.949
479.45	4.025
479.65	3.295
479.85	3.977
480.05	3.306
480.25	3.934
480.45	3.259
480.65	4.292
480.85	3.380
481.05	4.098
481.25	4.119
481.44	3.605
481.64	2.597
481.84	4.291
482.04	3.628
482.24	4.287
482.44	3.104
482.64	3.624
482.84	3.774
483.04	3.926
483.24	4.205
483.44	4.131
483.64	3.681
483.84	4.319
484.04	4.358
484.23	4.479
484.43	4.495
484.63	5.149
484.83	4.932
485.03	5.427
485.23	5.435
485.43	5.521
485.63	5.344
485.83	5.249
486.03	4.606
486.23	5.277
486.42	4.865
486.62	5.243
486.82	4.618
487.02	4.653
487.22	3.944
487.42	4.710
487.62	4.194
487.82	4.473
488.02	4.127
488.22	4.935
488.41	4.440
488.61	4.614
488.81	4.592
489.01	4.593
489.21	4.720
489.41	4.746
489.61	4.947
489.81	5.449
490.01	4.866
490.20	5.021
490.40	4.569
490.60	4.715
490.80	4.107
491.00	4.330
491.20	4.146
491.40	4.231
491.60	3.916
491.79	4.041
491.99	4.424
492.19	4.488
492.39	4.455
492.59	4.564
492.79	4.395
492.99	4.854
493.19	4.668
493.38	4.844
493.58	4.276
493.78	4.969
493.98	5.030
494.18	4.878
494.38	4.155
494.58	5.187
494.77	3.373
494.97	4.144
495.17	3.453
495.37	3.958
495.57	4.051
495.77	4.499
495.96	4.266
496.16	4.123
496.36	4.360
496.56	4.382
496.76	3.560
496.96	3.667
497.15	3.401
497.35	4.383
497.55	3.401
497.75	3.871
497.95	3.786
498.15	4.642
498.34	3.550
498.54	3.633
498.74	3.890
498.94	4.644
499.14	3.733
499.34	4.868
499.53	3.629
499.73	4.078
499.93	3.613
500.13	3.887
500.33	3.512
500.52	4.314
500.72	3.611
500.92	3.606
501.12	3.007
501.32	3.515
501.52	4.256
501.71	3.421
501.91	3.391
502.11	4.025
502.31	2.898
502.51	4.519
502.70	3.352
502.90	3.798
503.10	3.538
503.30	4.405
503.50	3.837
503.69	3.899
503.89	4.269
504.09	3.921
504.29	3.076
504.48	3.675
504.68	4.905
504.88	4.287
505.08	3.033
505.28	4.280
505.47	3.457
505.67	4.688
505.87	2.955
506.07	3.498
506.27	2.933
506.46	3.912
506.66	3.703
506.86	4.173
507.06	4.855
507.25	4.004
507.45	3.647
507.65	4.159
507.85	3.225
508.04	4.564
508.24	4.329
508.44	4.116
508.64	3.383
508.83	4.217
509.03	2.926
509.23	3.953
509.43	3.011
509.63	3.435
509.82	3.098
510.02	4.294
510.22	3.553
510.42	4.345
510.61	4.010
510.81	3.725
511.01	3.304
511.21	4.523
511.40	3.167
511.60	4.299
511.80	3.037
511.99	4.447
512.19	3.715
512.39	4.772
512.59	3.176
512.78	4.483
512.98	3.912
513.18	4.093
513.38	3.742
513.57	4.535
513.77	3.713
513.97	4.142
514.17	3.992
514.36	3.743
514.56	3.299
514.76	4.366
514.95	2.728
515.15	3.407
515.35	3.099
515.55	3.987
515.74	4.589
515.94	4.191
516.14	3.151
516.33	4.129
516.53	3.540
516.73	3.884
516.93	3.265
517.12	4.269
517.32	3.422
517.52	3.345
517.71	3.284
517.91	3.809
518.11	3.488
518.30	3.647
518.50	3.139
518.70	3.665
518.90	3.788
519.09	4.138
519.29	4.045
519.49	4.408
519.68	3.387
519.88	5.046
520.08	4.254
520.27	4.712
520.47	4.091
520.67	4.324
520.86	4.170
521.06	4.772
521.26	3.679
521.45	4.385
521.65	3.513
521.85	3.913
522.04	3.488
522.24	3.759
522.44	3.314
522.63	3.858
522.83	3.113
523.03	4.665
523.22	3.195
523.42	4.570
523.62	4.228
523.81	4.343
524.01	4.755
524.21	3.432
524.40	3.093
524.60	3.707
524.80	3.186
524.99	3.266
525.19	3.755
525.39	3.782
525.58	3.696
525.78	4.124
525.98	3.569
526.17	4.691
526.37	3.770
526.57	4.132
526.76	4.057
526.96	4.471
527.15	3.728
527.35	4.436
527.55	3.930
527.74	4.853
527.94	4.345
528.14	4.653
528.33	4.027
528.53	4.753
528.72	4.223
528.92	5.087
529.12	4.774
529.31	4.898
529.51	5.057
529.71	5.219
529.90	4.747
530.10	5.065
530.29	5.091
530.49	5.301
530.69	5.059
530.88	5.115
531.08	4.732
531.28	4.989
531.47	4.525
531.67	4.832
531.86	4.314
532.06	4.379
532.26	3.914
532.45	4.917
532.65	3.852
532.84	4.452
533.04	3.513
533.24	4.555
533.43	4.040
533.63	4.460
533.82	4.279
534.02	4.588
534.22	4.456
534.41	4.998
534.61	5.011
534.80	5.016
535.00	4.809
535.19	5.176
535.39	5.001
535.59	4.800
535.78	4.183
535.98	4.190
536.17	3.599
536.37	4.278
536.57	3.841
536.76	4.889
536.96	3.875
537.15	4.778
537.35	3.661
537.54	4.461
537.74	4.191
537.93	4.954
538.13	3.940
538.33	4.956
538.52	3.982
538.72	4.376
538.91	4.580
539.11	4.391
539.30	3.322
539.50	4.467
539.70	4.246
539.89	4.350
540.09	4.010
540.28	4.587
540.48	3.234
540.67	4.287
540.87	4.201
541.06	4.500
541.26	3.753
541.45	4.774
541.65	4.614
541.85	4.676
542.04	4.615
542.24	5.355
542.43	4.777
542.63	5.178
542.82	4.827
543.02	5.457
543.21	4.911
543.41	4.975
543.60	4.721
543.80	5.398
543.99	4.791
544.19	4.766
544.38	4.421
544.58	5.379
544.77	4.617
544.97	5.284
545.16	3.752
545.36	4.744
545.56	4.071
545.75	4.868
545.95	4.426
546.14	5.236
546.34	3.539
546.53	4.544
546.73	3.667
546.92	4.940
547.12	4.034
547.31	4.731
547.51	4.122
547.70	4.740
547.90	3.841
548.09	4.840
548.29	4.102
548.48	4.790
548.68	4.514
548.87	5.075
549.07	4.649
549.26	4.381
549.46	3.664
549.65	4.450
549.84	3.710
550.04	4.057
550.23	3.848
550.43	4.581
550.62	3.569
550.82	4.441
551.01	3.116
551.21	4.143
551.40	3.709
551.60	4.266
551.79	3.428
551.99	3.931
552.18	3.545
552.38	4.300
552.57	4.652
552.77	4.519
552.96	4.116
553.16	5.360
553.35	4.031
553.54	4.839
553.74	4.506
553.93	5.314
554.13	4.851
554.32	4.180
554.52	3.895
554.71	4.455
554.91	4.117
555.10	5.026
555.29	3.567
555.49	4.468
555.68	3.967
555.88	5.024
556.07	3.948
556.27	4.870
556.46	4.169
556.66	4.778
556.85	5.177
557.04	4.929
557.24	4.030
557.43	4.889
557.63	4.353
557.82	4.526
558.02	4.602
558.21	5.177
558.40	3.682
558.60	5.141
558.79	3.829
558.99	5.854
559.18	3.918
559.38	3.980
559.57	4.533
559.76	4.920
559.96	5.181
560.15	5.487
560.35	4.583
560.54	4.159
560.73	3.665
560.93	5.198
561.12	5.037
561.32	4.896
561.51	5.371
561.70	5.638
561.90	5.214
562.09	5.885
562.29	4.982
562.48	5.841
562.67	4.711
562.87	5.956
563.06	5.184
563.26	4.929
563.45	5.388
563.64	5.929
563.84	4.928
564.03	5.767
564.23	4.342
564.42	6.330
564.61	5.855
564.81	5.614
565.00	6.581
565.20	6.170
565.39	6.097
565.58	6.595
565.78	5.308
565.97	6.510
566.16	6.460
566.36	8.046
566.55	6.318
566.74	6.572
566.94	6.237
567.13	7.486
567.33	6.353
567.52	6.705
567.71	6.951
567.91	7.127
568.10	6.779
568.29	7.383
568.49	6.464
568.68	6.451
568.87	6.436
569.07	7.255
569.26	6.532
569.45	8.425
569.65	6.786
569.84	7.849
570.04	7.221
570.23	7.801
570.42	6.161
570.62	7.334
570.81	6.769
571.00	7.939
571.20	7.392
571.39	7.646
571.58	6.733
571.78	8.154
571.97	7.412
572.16	8.175
572.36	7.673
572.55	8.535
572.74	7.646
572.94	8.092
573.13	8.258
573.32	8.965
573.51	7.442
573.71	8.867
573.90	7.260
574.09	8.638
574.29	7.671
574.48	8.540
574.67	7.530
574.87	8.412
575.06	7.669
575.25	8.934
575.45	7.470
575.64	8.015
575.83	8.223
576.03	8.944
576.22	7.863
576.41	8.053
576.60	6.761
576.80	9.326
576.99	8.473
577.18	10.147
577.38	7.774
577.57	8.503
577.76	8.686
577.95	8.800
578.15	6.959
578.34	8.143
578.53	7.582
578.73	8.132
578.92	6.902
579.11	7.853
579.30	7.196
579.50	6.586
579.69	8.588
579.88	8.018
580.08	6.269
580.27	7.872
580.46	7.739
580.65	8.352
580.85	6.937
581.04	7.605
581.23	7.154
581.42	7.874
581.62	7.172
581.81	7.969
582.00	8.121
582.19	7.219
582.39	8.077
582.58	6.684
582.77	7.176
582.96	7.394
583.16	6.878
583.35	8.777
583.54	7.697
583.73	8.011
583.93	8.408
584.12	7.404
584.31	6.221
584.50	7.338
584.70	8.110
584.89	7.781
585.08	6.685
585.27	7.957
585.47	5.597
585.66	8.013
585.85	6.485
586.04	7.651
586.24	7.598
586.43	6.682
586.62	6.246
586.81	8.454
587.00	5.699
587.20	7.158
587.39	5.896
587.58	7.816
587.77	7.242
587.97	6.520
588.16	7.433
588.35	7.663
588.54	6.701
588.73	7.238
588.93	7.033
589.12	7.750
589.31	7.208
589.50	7.475
589.69	8.094
589.89	7.527
590.08	6.861
590.27	6.466
590.46	7.051
590.65	7.232
590.85	6.361
591.04	7.899
591.23	7.837
591.42	7.630
591.61	6.414
591.81	7.531
592.00	7.119
592.19	8.494
592.38	6.066
592.57	7.567
592.77	8.059
592.96	7.045
593.15	8.823
593.34	8.320
593.53	6.946
593.72	7.714
593.92	6.338
594.11	8.773
594.30	6.655
594.49	8.995
594.68	7.737
594.87	7.280
595.07	6.657
595.26	8.332
595.45	6.911
595.64	8.313
595.83	6.584
596.02	7.982
596.22	6.944
596.41	8.464
596.60	7.369
596.79	8.884
596.98	7.229
597.17	8.326
597.37	8.101
597.56	9.282
597.75	7.457
597.94	9.375
598.13	8.658
598.32	8.252
598.51	7.785
598.71	9.597
598.90	8.110
599.09	8.769
599.28	6.420
599.47	8.827
599.66	7.214
599.85	8.126
600.05	6.985
600.24	8.882
600.43	8.048
600.62	8.270
600.81	7.860
601.00	7.870
601.19	6.994
601.38	8.756
601.58	7.990
601.77	7.407
601.96	7.204
602.15	8.720
602.34	8.137
602.53	9.934
602.72	7.498
602.91	8.725
603.10	7.472
603.30	8.918
603.49	7.271
603.68	9.108
603.87	6.751
604.06	8.871
604.25	9.108
604.44	9.080
604.63	8.551
604.82	9.928
605.01	8.751
605.21	10.370
605.40	8.746
605.59	9.711
605.78	9.381
605.97	10.467
606.16	8.604
606.35	9.499
606.54	8.591
606.73	10.818
606.92	8.284
607.11	9.905
607.30	8.371
607.50	9.963
607.69	8.212
607.88	8.451
608.07	7.218
608.26	8.197
608.45	8.962
608.64	9.549
608.83	6.935
609.02	8.361
609.21	9.643
609.40	9.301
609.59	7.437
609.78	8.439
609.97	7.402
610.16	8.586
610.35	8.341
610.55	9.024
610.74	8.285
610.93	8.950
611.12	8.419
611.31	8.785
611.50	7.767
611.69	7.361
611.88	7.975
612.07	9.455
612.26	7.682
612.45	7.206
612.64	7.107
612.83	7.851
613.02	6.781
613.21	5.989
613.40	6.202
613.59	8.021
613.78	6.766
613.97	6.735
614.16	6.485
614.35	7.966
614.54	5.886
614.73	6.535
614.92	7.828
615.11	6.545
615.30	5.813
615.49	6.814
615.68	6.714
615.87	6.358
616.07	5.311
616.26	6.164
616.45	6.473
616.64	6.916
616.83	7.254
617.02	7.354
617.21	4.679
617.40	5.824
617.59	6.857
617.78	6.183
617.97	6.432
618.16	6.237
618.35	4.822
618.54	7.216
618.73	6.297
618.92	6.168
619.11	5.774
619.30	6.513
619.49	5.735
619.68	7.191
619.86	5.624
620.05	5.882
620.24	6.356
620.43	6.559
620.62	5.409
620.81	6.411
621.00	7.121
621.19	7.401
621.38	6.627
621.57	6.383
621.76	5.740
621.95	5.778
622.14	5.533
622.33	6.777
622.52	5.431
622.71	6.880
622.90	5.111
623.09	7.287
623.28	4.670
623.47	6.514
623.66	5.400
623.85	5.149
624.04	5.445
624.23	6.335
624.42	5.688
624.61	5.151
624.80	5.263
624.99	6.139
625.18	4.730
625.36	7.207
625.55	5.910
625.74	6.295
625.93	5.197
626.12	6.263
626.31	6.359
626.50	6.096
626.69	5.051
626.88	7.974
627.07	6.505
627.26	6.432
627.45	6.278
627.64	5.475
627.83	5.857
628.02	6.718
628.20	6.578
628.39	6.902
628.58	5.774
628.77	6.881
628.96	5.795
629.15	5.858
629.34	6.334
629.53	5.647
629.72	4.329
629.91	5.672
630.10	5.535
630.29	4.459
630.47	4.905
630.66	4.633
630.85	4.681
631.04	5.961
631.23	5.875
631.42	7.000
631.61	5.475
631.80	6.304
631.99	5.141
632.18	4.964
632.36	5.156
632.55	6.726
632.74	6.190
632.93	5.141
633.12	5.544
633.31	5.821
633.50	4.441
633.69	4.874
633.88	4.535
634.06	5.891
634.25	5.180
634.44	5.479
634.63	5.050
634.82	6.494
635.01	5.278
635.20	4.845
635.39	4.133
635.57	5.236
635.76	4.453
635.95	5.597
636.14	4.675
636.33	5.605
636.52	5.767
636.71	5.957
636.89	5.630
637.08	5.244
637.27	4.836
637.46	5.558
637.65	5.260
637.84	5.109
638.03	5.629
638.21	6.754
638.40	6.263
638.59	4.415
638.78	5.107
638.97	5.417
639.16	7.028
639.34	5.436
639.53	3.963
639.72	5.362
639.91	5.374
640.10	3.989
640.29	5.947
640.47	7.674
640.66	5.967
640.85	6.471
641.04	4.918
641.23	5.378
641.42	5.845
641.60	4.807
641.79	5.663
641.98	6.873
642.17	5.413
642.36	5.872
642.54	5.513
642.73	6.972
642.92	6.017
643.11	5.755
643.30	5.750
643.49	6.517
643.67	5.539
643.86	5.513
644.05	5.415
644.24	5.785
644.43	5.390
644.61	5.260
644.80	5.554
644.99	4.806
645.18	6.534
645.37	5.351
645.55	4.524
645.74	5.556
645.93	6.205
646.12	6.123
646.31	5.532
646.49	4.526
646.68	5.623
646.87	5.290
647.06	6.339
647.24	5.703
647.43	4.638
647.62	7.098
647.81	5.873
648.00	6.378
648.18	5.161
648.37	4.861
648.56	5.473
648.75	5.673
648.93	5.387
649.12	6.498
649.31	3.846
649.50	5.333
649.68	6.309
649.87	6.070
650.06	5.503
650.25	4.796
650.43	5.836
650.62	4.757
650.81	4.851
651.00	5.024
651.18	6.011
651.37	6.701
651.56	6.230
651.75	5.741
651.93	5.331
652.12	7.492
652.31	3.308
652.50	5.179
652.68	6.189
652.87	5.706
653.06	6.560
653.25	6.401
653.43	5.415
653.62	5.176
653.81	6.224
654.00	5.226
654.18	6.875
654.37	7.230
654.56	5.362
654.74	5.043
654.93	5.654
655.12	5.143
655.31	5.108
655.49	7.053
655.68	5.288
655.87	4.669
656.05	5.260
656.24	5.348
656.43	4.340
656.62	5.159
656.80	5.536
656.99	4.655
657.18	5.474
657.36	5.716
657.55	5.642
657.74	5.665
657.93	6.154
658.11	5.766
658.30	5.947
658.49	5.179
658.67	5.011
658.86	4.367
659.05	4.279
659.23	5.637
659.42	4.191
659.61	4.830
659.79	4.602
659.98	5.144
660.17	4.677
660.35	4.974
660.54	4.862
660.73	7.441
660.91	4.596
661.10	5.529
661.29	5.131
661.47	4.341
661.66	4.753
661.85	5.887
662.03	5.033
662.22	4.231
662.41	2.806
662.59	5.403
662.78	4.605
662.97	3.886
663.15	4.436
663.34	4.793
663.53	5.108
663.71	4.698
663.90	5.324
664.09	3.641
664.27	5.758
664.46	3.973
664.65	5.081
664.83	4.884
665.02	4.468
665.21	6.640
665.39	5.125
665.58	6.232
665.77	4.279
665.95	5.065
666.14	5.092
666.32	5.409
666.51	4.130
666.70	3.113
666.88	6.913
667.07	5.502
667.26	4.839
667.44	5.109
667.63	6.157
667.81	5.711
668.00	5.425
668.19	5.934
668.37	4.144
668.56	6.807
668.75	3.551
668.93	6.185
669.12	3.491
669.30	5.787
669.49	3.965
669.68	5.295
669.86	6.143
670.05	4.405
670.23	5.137
670.42	6.599
670.61	4.672
670.79	4.737
670.98	5.780
671.16	5.866
671.35	6.129
671.54	5.983
671.72	6.675
671.91	5.209
672.09	6.079
672.28	6.892
672.46	7.044
672.65	6.072
672.84	8.099
673.02	7.268
673.21	4.300
673.39	5.688
673.58	7.327
673.77	5.884
673.95	5.538
674.14	5.585
674.32	5.999
674.51	7.093
674.69	3.849
674.88	6.297
675.07	6.738
675.25	7.987
675.44	5.626
675.62	5.408
675.81	6.515
675.99	9.763
676.18	6.749
676.36	4.648
676.55	6.983
676.74	7.038
676.92	7.859
677.11	4.261
677.29	4.285
677.48	8.582
677.66	7.247
677.85	5.365
678.03	7.093
678.22	8.946
678.40	5.618
678.59	5.297
678.78	6.601
678.96	5.857
679.15	6.957
679.33	6.913
679.52	7.391
679.70	8.390
679.89	6.058
680.07	6.440
680.26	5.882
680.44	6.115
680.63	5.481
680.81	6.075
681.00	6.144
681.18	6.145
681.37	6.483
681.55	6.064
681.74	6.065
681.92	8.070
682.11	7.157
682.29	5.652
682.48	5.653
682.66	7.615
682.85	7.613
683.03	6.660
683.22	8.154
683.40	7.075
683.59	7.449
683.77	7.308
683.96	7.353
684.14	7.629
684.33	4.331
684.51	8.468
684.70	7.219
684.88	9.706
685.07	8.212
685.25	10.011
685.44	8.147
685.62	7.516
685.81	6.209
685.99	8.312
686.18	8.475
686.36	8.674
686.55	4.644
686.73	9.034
686.92	9.275
687.10	7.949
687.29	9.020
687.47	8.160
687.65	9.904
687.84	6.979
688.02	11.709
688.21	10.379
688.39	7.299
688.58	9.471
688.76	9.279
688.95	7.504
689.13	5.725
689.32	9.975
689.50	7.948
689.68	8.990
689.87	7.756
690.05	8.600
690.24	9.491
690.42	9.898
690.61	9.865
690.79	11.305
690.98	10.585
691.16	10.391
691.34	7.409
691.53	9.285
691.71	9.996
691.90	9.046
692.08	8.699
692.27	10.255
692.45	12.352
692.63	10.823
692.82	11.734
693.00	10.965
693.19	9.612
693.37	12.031
693.56	12.304
693.74	12.598
693.92	10.114
694.11	12.680
694.29	14.403
694.48	11.408
694.66	10.477
694.84	13.189
695.03	12.225
695.21	12.832
695.40	15.051
695.58	15.721
695.76	12.784
695.95	15.332
696.13	10.563
696.32	13.669
696.50	17.738
696.68	12.515
696.87	12.867
697.05	13.597
697.24	15.060
697.42	17.573
697.60	15.235
697.79	15.290
697.97	16.631
698.16	16.319
698.34	12.167
698.52	15.904
698.71	14.647
698.89	16.170
699.07	15.284
699.26	15.741
699.44	16.107
699.63	18.016
699.81	14.868
699.99	20.242
700.18	18.322
700.36	18.223
700.54	16.547
700.73	18.009
700.91	16.627
701.09	18.462
701.28	18.059
701.46	18.071
701.64	16.791
701.83	18.427
702.01	14.682
702.20	21.758
702.38	17.800
702.56	18.215
702.75	18.825
702.93	18.925
703.11	19.035
703.30	21.473
703.48	19.837
703.66	20.095
703.85	17.810
704.03	23.477
704.21	22.289
704.40	21.453
704.58	19.043
704.76	22.282
704.95	18.427
705.13	20.813
705.31	19.217
705.50	20.351
705.68	20.178
705.86	21.241
706.04	19.155
706.23	22.882
706.41	20.421
706.59	23.185
706.78	19.448
706.96	22.846
707.14	22.009
707.33	23.296
707.51	19.604
707.69	22.228
707.88	20.070
708.06	24.477
708.24	21.076
708.42	23.764
708.61	19.724
708.79	22.912
708.97	24.006
709.16	22.928
709.34	24.841
709.52	23.411
709.71	20.741
709.89	25.286
710.07	18.738
710.25	23.723
710.44	19.546
710.62	22.414
710.80	25.540
710.98	24.437
711.17	21.514
711.35	22.938
711.53	20.575
711.72	26.260
711.90	23.803
712.08	23.246
712.26	21.756
712.45	22.944
712.63	23.039
712.81	24.373
712.99	20.867
713.18	24.094
713.36	25.450
713.54	22.122
713.72	21.520
713.91	21.835
714.09	20.431
714.27	21.858
714.45	23.388
714.64	24.476
714.82	21.168
715.00	23.474
715.18	20.608
715.37	26.645
715.55	23.842
715.73	23.682
715.91	22.744
716.10	25.540
716.28	21.635
716.46	29.767
716.64	23.300
716.83	24.035
717.01	22.993
717.19	26.486
717.37	20.930
717.55	23.803
717.74	23.227
717.92	24.880
718.10	18.330
718.28	25.307
718.47	23.262
718.65	25.316
718.83	20.892
719.01	28.541
719.19	23.389
719.38	20.720
719.56	22.676
719.74	24.393
719.92	17.162
720.10	23.438
720.29	22.145
720.47	26.623
720.65	24.612
720.83	27.163
721.01	21.716
721.20	25.876
721.38	22.857
721.56	25.339
721.74	24.269
721.92	26.625
722.11	22.513
722.29	28.067
722.47	21.719
722.65	24.378
722.83	25.820
723.01	21.627
723.20	25.101
723.38	24.000
723.56	25.852
723.74	33.462
723.92	26.048
724.10	24.659
724.29	22.601
724.47	29.879
724.65	25.380
724.83	27.089
725.01	23.254
725.19	29.759
725.38	21.853
725.56	29.329
725.74	25.195
725.92	29.336
726.10	24.479
726.28	28.281
726.46	26.298
726.65	28.170
726.83	24.138
727.01	26.895
727.19	28.580
727.37	29.630
727.55	28.013
727.73	25.993
727.92	24.368
728.10	29.294
728.28	20.826
728.46	31.619
728.64	27.689
728.82	29.518
729.00	28.263
729.19	27.251
729.37	31.047
729.55	30.730
729.73	23.880
729.91	27.929
730.09	27.858
730.27	29.089
730.45	27.957
730.63	27.934
730.82	22.196
731.00	32.867
731.18	28.950
731.36	30.504
731.54	26.427
731.72	31.170
731.90	26.442
732.08	28.937
732.26	29.415
732.45	31.927
732.63	27.155
732.81	30.910
732.99	28.837
733.17	30.078
733.35	27.299
733.53	29.792
733.71	28.767
733.89	32.358
734.07	29.310
734.25	33.296
734.44	30.116
734.62	29.596
734.80	31.302
734.98	36.730
735.16	29.174
735.34	32.512
735.52	32.262
735.70	32.040
735.88	32.311
736.06	32.795
736.24	35.556
736.42	34.777
736.60	30.000
736.78	35.373
736.97	30.722
737.15	36.472
737.33	31.764
737.51	33.071
737.69	37.774
737.87	33.429
738.05	33.478
738.23	34.697
738.41	30.946
738.59	34.062
738.77	35.405
738.95	34.636
739.13	33.601
739.31	31.529
739.49	32.972
739.67	36.624
739.85	32.402
740.03	35.453
740.21	32.224
740.39	38.072
740.57	37.625
740.75	31.857
740.93	33.598
741.11	36.452
741.30	31.724
741.48	35.263
741.66	37.182
741.84	33.101
742.02	34.672
742.20	35.888
742.38	32.490
742.56	37.424
742.74	33.929
742.92	34.531
743.10	32.756
743.28	34.173
743.46	39.865
743.64	35.237
743.82	32.769
744.00	38.042
744.18	39.571
744.36	37.467
744.54	38.536
744.72	37.638
744.90	37.651
745.08	39.261
745.26	31.346
745.44	38.071
745.62	36.670
745.80	35.070
745.98	36.323
746.16	36.505
746.34	34.636
746.52	37.081
746.70	35.702
746.87	35.572
747.05	40.813
747.23	38.678
747.41	34.637
747.59	38.898
747.77	33.941
747.95	33.008
748.13	32.332
748.31	42.793
748.49	37.419
748.67	37.644
748.85	37.989
749.03	37.186
749.21	38.524
749.39	40.143
749.57	32.969
749.75	36.537
749.93	33.531
750.11	35.645
750.29	36.164
750.47	39.276
750.65	37.174
750.83	41.452
751.01	36.453
751.18	35.270
751.36	37.135
751.54	39.026
751.72	37.164
751.90	33.014
752.08	30.932
752.26	38.879
752.44	35.370
752.62	32.024
752.80	36.299
752.98	34.771
753.16	35.014
753.34	37.174
753.52	36.866
753.69	34.263
753.87	36.815
754.05	38.455
754.23	37.109
754.41	42.443
754.59	36.847
754.77	37.544
754.95	36.070
755.13	38.718
755.31	38.163
755.49	37.669
755.66	35.632
755.84	35.963
756.02	30.390
756.20	40.559
756.38	33.575
756.56	41.187
756.74	39.189
756.92	36.168
757.10	34.381
757.28	38.061
757.45	41.370
757.63	40.796
757.81	31.822
757.99	40.805
758.17	37.953
758.35	34.104
758.53	42.300
758.71	39.299
758.88	34.416
759.06	35.108
759.24	30.263
759.42	37.316
759.60	34.363
759.78	33.161
759.96	31.967
760.13	28.237
760.31	26.110
760.49	29.101
760.67	23.937
760.85	27.034
761.03	24.823
761.21	25.089
761.38	23.356
761.56	24.674
761.74	23.707
761.92	27.302
762.10	22.010
762.28	24.837
762.46	24.263
762.63	21.270
762.81	21.040
762.99	23.579
763.17	22.812
763.35	23.159
763.53	22.366
763.70	27.527
763.88	24.660
764.06	24.598
764.24	22.058
764.42	24.494
764.60	25.600
764.77	24.009
764.95	23.741
765.13	25.193
765.31	27.037
765.49	28.303
765.66	25.904
765.84	30.870
766.02	28.590
766.20	26.612
766.38	27.126
766.56	29.420
766.73	26.647
766.91	30.400
767.09	30.947
767.27	30.649
767.45	29.639
767.62	30.363
767.80	31.019
767.98	37.477
768.16	27.742
768.33	35.849
768.51	35.784
768.69	37.954
768.87	31.740
769.05	36.683
769.22	33.101
769.40	38.202
769.58	32.597
769.76	38.778
769.94	36.392
770.11	38.013
770.29	37.001
770.47	34.043
770.65	42.215
770.82	40.629
771.00	44.832
771.18	35.463
771.36	36.004
771.53	37.586
771.71	35.308
771.89	45.665
772.07	38.584
772.25	40.164
772.42	36.557
772.60	49.010
772.78	39.435
772.96	39.010
773.13	43.626
773.31	34.911
773.49	34.176
773.67	41.997
773.84	37.164
774.02	45.535
774.20	36.315
774.37	38.606
774.55	40.863
774.73	48.892
774.91	41.443
775.08	36.992
775.26	36.202
775.44	42.050
775.62	38.306
775.79	44.063
775.97	40.135
776.15	36.605
776.32	33.691
776.50	45.045
776.68	46.588
776.86	42.250
777.03	40.671
777.21	41.767
777.39	42.398
777.56	43.213
777.74	41.789
777.92	39.065
778.10	39.802
778.27	37.922
778.45	41.026
778.63	40.972
778.80	37.830
778.98	46.277
779.16	44.444
779.34	46.154
779.51	43.302
779.69	46.993
779.87	46.335
780.04	35.695
780.22	41.227
780.40	41.536
780.57	42.194
780.75	42.916
780.93	42.951
781.10	42.169
781.28	42.350
781.46	38.988
781.63	41.850
781.81	46.076
781.99	37.991
782.16	34.503
782.34	35.681
782.52	39.347
782.69	46.025
782.87	42.003
783.05	37.571
783.22	43.810
783.40	44.892
783.58	44.843
783.75	44.300
783.93	52.405
784.11	37.398
784.28	43.868
784.46	39.124
784.64	41.890
784.81	36.378
784.99	40.758
785.17	41.475
785.34	40.132
785.52	38.537
785.69	45.257
785.87	39.460
786.05	47.521
786.22	35.591
786.40	48.355
786.58	37.102
786.75	45.048
786.93	29.589
787.11	47.191
787.28	36.422
787.46	46.580
787.63	40.855
787.81	48.097
787.99	40.554
788.16	38.405
788.34	34.694
788.51	36.082
788.69	37.611
788.87	39.003
789.04	35.994
789.22	41.845
789.39	41.015
789.57	39.323
789.75	36.268
789.92	41.407
790.10	35.751
790.27	47.376
790.45	42.105
790.63	37.962
790.80	34.802
790.98	41.159
791.15	40.964
791.33	37.799
791.51	34.633
791.68	42.631
791.86	34.437
792.03	44.000
792.21	38.769
792.39	42.587
792.56	44.286
792.74	32.453
792.91	48.128
793.09	41.060
793.26	38.204
793.44	42.196
793.62	45.556
793.79	41.899
793.97	35.516
794.14	43.966
794.32	44.757
794.49	46.310
794.67	39.388
794.84	30.756
795.02	49.574
795.20	46.324
795.37	35.343
795.55	42.178
795.72	43.286
795.90	43.049
796.07	36.897
796.25	39.298
796.42	43.130
796.60	41.133
796.77	26.202
796.95	42.743
797.13	25.728
797.30	35.940
797.48	38.872
797.65	36.709
797.83	33.680
798.00	38.673
798.18	30.374
798.35	40.831
798.53	40.333
798.70	42.290
798.88	37.458
799.05	32.555
799.23	42.236
799.40	39.331
799.58	43.814
799.75	46.242
799.93	37.973
800.10	33.015
800.28	46.899
800.45	41.293
800.63	33.633
800.80	41.473
800.98	38.104
801.15	39.646
801.33	43.563
801.50	42.832
801.68	48.170
801.85	36.021
802.03	32.886
802.20	39.700
802.38	35.689
802.55	37.308
802.73	34.957
802.90	41.558
803.08	37.367
803.25	41.923
803.43	41.577
803.60	51.867
803.78	40.490
803.95	39.228
804.13	41.869
804.30	45.383
804.48	45.796
804.65	41.929
804.83	35.245
805.00	35.172
805.17	42.330
805.35	40.152
805.52	46.080
805.70	38.491
805.87	43.068
806.05	37.871
806.22	41.450
806.40	38.343
806.57	41.199
806.75	39.633
806.92	41.228
807.09	50.854
807.27	33.795
807.44	48.282
807.62	46.624
807.79	38.393
807.97	44.405
808.14	41.200
808.31	34.568
808.49	41.586
808.66	42.582
808.84	32.171
809.01	45.223
809.19	48.148
809.36	46.029
809.53	40.278
809.71	38.417
809.88	40.576
810.06	35.827
810.23	43.200
810.41	40.664
810.58	55.180
810.75	32.618
810.93	42.801
811.10	34.316
811.28	50.336
811.45	39.832
811.62	42.247
811.80	44.681
811.97	55.628
812.15	50.296
812.32	45.690
812.49	39.651
812.67	39.149
812.84	40.879
813.02	56.502
813.19	39.278
813.36	50.325
813.54	45.796
813.71	35.227
813.89	41.410
814.06	51.852
814.23	36.697
814.41	50.355
814.58	41.106
814.75	56.511
814.93	45.714
815.10	41.795
815.28	54.167
815.45	32.266
815.62	40.528
815.80	37.644
815.97	43.892
816.14	41.860
816.32	34.719
816.49	44.737
816.66	35.250
816.84	47.906
817.01	45.553
817.18	37.296
817.36	33.638
817.53	48.010
817.71	29.590
817.88	45.000
818.05	42.058
818.23	41.667
818.40	43.396
818.57	38.675
818.75	47.564
818.92	43.750
819.09	39.961
819.27	41.961
819.44	40.358
819.61	33.579
819.79	34.979
819.96	39.010
820.13	32.470
820.31	29.391
820.48	36.146
820.65	41.315
820.82	32.953
821.00	34.891
821.17	31.044
821.34	24.893
821.52	24.095
821.69	30.140
821.86	30.199
822.04	28.006
822.21	23.963
822.38	27.295
822.56	21.471
822.73	27.875
822.90	22.701
823.07	28.753
823.25	24.451
823.42	23.483
823.59	25.148
823.77	25.637
823.94	24.017
824.11	26.682
824.29	25.128
824.46	29.974
824.63	28.005
824.80	24.049
824.98	23.112
825.15	27.671
825.32	20.452
825.49	27.888
825.67	21.049
825.84	27.547
826.01	28.371
826.19	26.545
826.36	21.231
826.53	28.130
826.70	23.588
826.88	28.093
827.05	21.227
827.22	25.039
827.39	23.772
827.57	25.296
827.74	24.399
827.91	26.145
828.08	23.139
828.26	23.836
828.43	20.900
828.60	29.570
828.77	25.614
828.95	26.462
829.12	24.528
829.29	19.253
829.46	25.289
829.64	25.613
829.81	19.628
829.98	27.041
830.15	26.265
830.32	30.769
830.50	26.569
830.67	37.275
830.84	31.194
831.01	24.608
831.19	26.224
831.36	39.837
831.53	36.905
831.70	45.489
831.87	40.702
832.05	37.624
832.22	42.377
832.39	36.522
832.56	33.333
832.74	47.991
832.91	43.460
833.08	52.227
833.25	35.149
833.42	31.779
833.60	31.046
833.77	28.431
833.94	28.940
834.11	26.667
834.28	20.401
834.45	26.210
834.63	21.095
834.80	26.752
834.97	27.817
835.14	26.562
835.31	28.400
835.49	20.082
835.66	21.708
835.83	25.081
836.00	24.300
836.17	33.670
836.34	24.038
836.52	25.658
836.69	37.266
836.86	36.406
837.03	32.884
837.20	32.051
837.37	36.929
837.55	35.575
837.72	29.094
837.89	31.298
838.06	43.510
838.23	46.651
838.40	45.626
838.58	41.333
838.75	41.880
838.92	64.828
839.09	45.503
839.26	44.652
839.43	50.144
839.60	57.191
839.78	68.827
839.95	50.163
840.12	49.051
840.29	68.153
840.46	68.881
840.63	57.941
840.80	40.800
840.98	66.000
841.15	48.000
841.32	46.838
841.49	40.870
841.66	63.115
841.83	40.000
842.00	39.241
842.17	52.329
842.34	42.693
842.52	55.689
842.69	50.629
842.86	52.249
843.03	66.981
843.20	77.959
843.37	59.790
843.54	67.886
843.71	53.061
843.88	75.497
844.06	80.567
844.23	88.889
844.40	62.121
844.57	73.191
844.74	71.616
844.91	81.944
845.08	63.529
845.25	76.277
845.42	68.342
845.59	111.696
845.76	80.909
845.94	120.253
846.11	71.144
846.28	101.379
846.45	76.074
846.62	83.243
846.79	88.889
846.96	75.113
847.13	72.941
847.30	70.707
847.47	66.484
847.64	74.419
847.81	74.176
847.98	84.865
848.15	82.796
848.32	115.979
848.50	106.832
848.67	113.194
848.84	97.475
849.01	91.837
849.18	94.211
849.35	96.335
849.52	102.312
849.69	91.908
849.86	119.018
850.03	97.945
850.20	103.472
850.37	74.286
850.54	87.421
850.71	115.447
850.88	98.601
851.05	91.096
851.22	85.093
851.39	108.247
851.56	70.139
851.73	72.778
851.90	86.875
852.07	102.353
852.24	112.500
852.41	124.818
852.58	71.970
852.75	108.876
852.92	82.609
853.09	103.911
853.26	122.293
853.43	82.273
853.60	101.031
853.77	112.766
853.94	107.576
854.11	126.496
854.28	85.638
854.45	100.000
854.62	95.973
854.79	100.769
854.96	114.493
855.13	94.444
855.30	88.083
855.47	104.828
855.64	92.793
855.81	131.746
855.98	100.000
856.15	66.207
856.32	80.751
856.49	104.566
856.66	88.953
856.83	94.241
857.00	104.918
857.17	134.167
857.34	122.727
857.51	77.564
857.68	127.143
857.85	87.273
858.02	182.432
858.19	105.000
858.36	92.000
858.53	94.286
858.70	78.808
858.87	106.897
859.04	127.465
859.21	67.391
859.38	90.066
859.55	140.741
859.72	104.132
859.89	142.157
860.05	124.031
860.22	118.421
860.39	135.514
860.56	153.211
860.73	99.398
860.90	122.667
861.07	94.536
861.24	118.803
861.41	109.286
861.58	95.074
861.75	125.000
861.92	109.449
862.09	107.229
862.26	146.809
862.43	110.526
862.59	62.051
862.76	100.000
862.93	111.801
863.10	70.345
863.27	78.919
863.44	82.895
863.61	100.000
863.78	133.803
863.95	129.771
864.12	100.000
864.29	105.426
864.45	123.288
864.62	93.985
864.79	100.000
864.96	120.635
865.13	129.008
865.30	183.636
865.47	93.519
865.64	100.000
865.81	87.037
865.97	74.317
866.14	100.476
866.31	130.081
866.48	96.124
866.65	79.000
866.82	110.067
866.99	171.845
867.16	132.857
867.33	119.658
867.49	145.255
867.66	87.864
867.83	112.800
868.00	107.801
868.17	128.030
868.34	132.192
868.51	94.366
868.67	122.314
868.84	130.612
869.01	145.669
869.18	111.628
869.35	163.333
869.52	89.041
869.69	74.809
869.85	90.909
870.02	89.720
870.19	149.580
870.36	94.558
870.53	86.364
870.70	84.302
870.86	85.535
871.03	129.412
871.20	86.755
871.37	92.823
871.54	82.759
871.71	70.988
871.87	91.781
872.04	84.516
872.21	143.011
872.38	82.822
872.55	102.817
872.72	78.605
872.88	95.266
873.05	91.209
873.22	94.048
873.39	113.415
873.56	100.000
873.72	125.373
873.89	77.536
874.06	98.684
874.23	132.203
874.40	125.175
874.56	131.132
874.73	81.522
874.90	109.605
875.07	98.611
875.24	63.584
875.40	94.839
875.57	116.667
875.74	86.667
875.91	135.537
876.08	88.636
876.24	100.000
876.41	94.186
876.58	86.957
876.75	72.024
876.92	131.858
877.08	117.857
877.25	74.051
877.42	91.852
877.59	86.713
877.75	115.436
877.92	103.200
878.09	92.481
878.26	110.390
878.42	112.319
878.59	103.676
878.76	86.538
878.93	100.585
879.09	89.894
879.26	63.243
879.43	111.765
879.60	96.914
879.76	81.699
879.93	82.278
880.10	88.272
880.27	65.596
880.43	78.049
880.60	52.511
880.77	68.831
880.94	63.273
881.10	60.317
881.27	56.533
881.44	35.797
881.61	38.646
881.77	39.087
881.94	23.689
882.11	25.078
882.28	21.806
882.44	26.923
882.61	26.245
882.78	22.661
882.94	26.059
883.11	19.653
883.28	20.607
883.45	24.627
883.61	24.451
883.78	18.017
883.95	25.598
884.11	21.913
884.28	24.584
>>>>>End Processed Spectral Data<<<<<
