SpectraSuite Data File
++++++++++++++++++++++++++++++++++++
Date: Fri Sep 20 03:22:36 EST 2019
User: sgrac
Dark Spectrum Present: Yes
Reference Spectrum Present: Yes
Number of Sampled Component Spectra: 1
Spectrometers: USB4E01596
Integration Time (usec): 100000 (USB4E01596)
Spectra Averaged: 1 (USB4E01596)
Boxcar Smoothing: 0 (USB4E01596)
Correct for Electrical Dark: No (USB4E01596)
Strobe/Lamp Enabled: Yes (USB4E01596)
Correct for Detector Non-linearity: No (USB4E01596)
Correct for Stray Light: No (USB4E01596)
Number of Pixels in Processed Spectrum: 3648
>>>>>Begin Processed Spectral Data<<<<<
178.44	500.000
178.66	500.000
178.87	500.000
179.09	-470.000
179.30	366.667
179.52	621.429
179.74	2660.000
179.95	-391.429
180.17	-612.500
180.38	-1093.750
180.60	-519.355
180.82	726.087
181.03	-2375.000
181.25	-1300.000
181.46	-1145.455
181.68	0.000
181.89	13000.000
182.11	1500.000
182.33	1253.846
182.54	-385.714
182.76	300.000
182.97	600.000
183.19	1888.889
183.40	-962.500
183.62	1214.286
183.84	-305.000
184.05	0.000
184.27	13300.000
184.48	710.000
184.70	6900.000
184.91	1200.000
185.13	365.909
185.34	261.111
185.56	-785.714
185.78	784.211
185.99	-6500.000
186.21	525.000
186.42	1166.667
186.64	219.403
186.85	175.309
187.07	675.000
187.28	-281.081
187.50	-486.364
187.72	248.438
187.93	12500.000
188.15	645.455
188.36	380.769
188.58	888.235
188.79	7200.000
189.01	494.118
189.22	1158.333
189.44	404.255
189.65	-825.000
189.87	828.571
190.09	477.778
190.30	-3260.000
190.52	373.171
190.73	637.037
190.95	-915.385
191.16	-1041.667
191.38	-621.739
191.59	1644.444
191.81	312.500
192.02	362.500
192.24	263.492
192.45	394.286
192.67	590.909
192.88	0.000
193.10	441.176
193.31	-1130.000
193.53	295.455
193.74	302.632
193.96	1860.000
194.18	301.449
194.39	356.000
194.61	523.333
194.82	513.793
195.04	925.000
195.25	380.851
195.47	900.000
195.68	-1240.000
195.90	3875.000
196.11	2475.000
196.33	-466.667
196.54	672.414
196.76	257.778
196.97	788.889
197.19	-783.333
197.40	497.222
197.62	-828.571
197.83	1033.333
198.05	478.947
198.26	590.909
198.48	1225.000
198.69	548.571
198.91	2114.286
199.12	365.000
199.34	266.154
199.55	-1045.455
199.77	800.000
199.98	2760.000
200.20	927.273
200.41	463.636
200.63	-3000.000
200.84	417.073
201.06	-15100.000
201.27	847.059
201.49	283.607
201.70	911.765
201.91	1043.750
202.13	860.000
202.34	3925.000
202.56	1400.000
202.77	-2183.333
202.99	893.333
203.20	523.810
203.42	-514.286
203.63	548.387
203.85	-529.167
204.06	3566.667
204.28	-2875.000
204.49	1700.000
204.71	322.917
204.92	1944.444
205.14	0.000
205.35	773.333
205.56	532.143
205.78	489.744
205.99	367.568
206.21	437.931
206.42	2433.333
206.64	-353.659
206.85	1186.667
207.07	1038.462
207.28	470.000
207.50	-1687.500
207.71	358.140
207.93	7850.000
208.14	-132.432
208.35	441.379
208.57	-756.250
208.78	610.345
209.00	336.842
209.21	0.000
209.43	634.783
209.64	346.512
209.86	1757.143
210.07	1036.364
210.28	610.714
210.50	2740.000
210.71	392.308
210.93	476.316
211.14	280.328
211.36	422.857
211.57	2162.500
211.78	-663.636
212.00	553.846
212.21	-568.421
212.43	490.323
212.64	380.952
212.86	450.000
213.07	507.143
213.29	225.000
213.50	-402.941
213.71	-11600.000
213.93	-1122.222
214.14	826.667
214.36	-2671.429
214.57	191.860
214.78	354.286
215.00	-4533.333
215.21	-1933.333
215.43	-363.636
215.64	968.750
215.86	-3000.000
216.07	700.000
216.28	237.097
216.50	297.872
216.71	-2900.000
216.93	1428.571
217.14	477.778
217.35	227.632
217.57	-900.000
217.78	1563.636
218.00	311.364
218.21	214.754
218.42	310.204
218.64	275.556
218.85	325.862
219.07	280.000
219.28	785.714
219.49	-1281.818
219.71	414.286
219.92	2666.667
220.14	5200.000
220.35	2733.333
220.56	766.667
220.78	255.556
220.99	1950.000
221.21	308.108
221.42	377.778
221.63	413.889
221.85	12400.000
222.06	441.379
222.28	645.000
222.49	10000.000
222.70	-3100.000
222.92	341.071
223.13	191.304
223.34	250.909
223.56	337.838
223.77	906.250
223.99	192.308
224.20	174.775
224.41	281.395
224.63	438.235
224.84	564.000
225.05	204.167
225.27	242.593
225.48	188.608
225.69	286.364
225.91	206.494
226.12	248.387
226.34	211.594
226.55	190.625
226.76	119.403
226.98	135.965
227.19	393.333
227.40	133.333
227.62	160.811
227.83	169.474
228.04	214.815
228.26	107.407
228.47	118.750
228.69	63.187
228.90	78.090
229.11	47.893
229.33	56.967
229.54	72.245
229.75	53.232
229.97	46.959
230.18	41.576
230.39	33.824
230.61	39.130
230.82	52.941
231.03	41.253
231.25	50.581
231.46	52.063
231.67	62.973
231.89	70.588
232.10	57.634
232.31	63.721
232.53	77.992
232.74	58.607
232.95	86.935
233.17	69.643
233.38	59.722
233.59	74.706
233.81	93.363
234.02	60.591
234.23	87.634
234.45	96.026
234.66	75.743
234.87	92.442
235.09	73.778
235.30	88.387
235.51	55.172
235.73	39.583
235.94	58.781
236.15	71.642
236.36	71.308
236.58	58.159
236.79	58.687
237.00	68.273
237.22	77.586
237.43	78.519
237.64	70.455
237.86	74.020
238.07	54.980
238.28	53.241
238.50	59.091
238.71	51.418
238.92	68.750
239.13	58.036
239.35	40.553
239.56	42.466
239.77	69.170
239.99	38.672
240.20	58.993
240.41	43.260
240.63	48.000
240.84	51.258
241.05	37.607
241.26	39.244
241.48	45.088
241.69	31.377
241.90	39.560
242.12	27.968
242.33	34.030
242.54	25.990
242.75	26.877
242.97	29.772
243.18	20.167
243.39	17.700
243.61	22.042
243.82	22.573
244.03	18.554
244.24	16.038
244.46	22.193
244.67	20.533
244.88	23.698
245.09	24.473
245.31	22.351
245.52	23.810
245.73	21.774
245.95	50.000
246.16	33.451
246.37	20.973
246.58	23.810
246.80	24.000
247.01	22.765
247.22	17.071
247.43	15.608
247.65	15.176
247.86	15.471
248.07	13.526
248.28	12.117
248.50	14.108
248.71	14.479
248.92	11.925
249.13	14.997
249.35	13.756
249.56	14.286
249.77	17.865
249.98	13.629
250.20	23.406
250.41	21.397
250.62	17.174
250.83	19.706
251.05	22.895
251.26	22.763
251.47	30.824
251.68	19.033
251.90	30.878
252.11	25.616
252.32	23.904
252.53	35.248
252.75	17.952
252.96	25.127
253.17	18.707
253.38	20.665
253.59	21.251
253.81	22.489
254.02	24.081
254.23	21.734
254.44	24.142
254.66	21.208
254.87	16.933
255.08	28.822
255.29	31.418
255.50	32.051
255.72	33.267
255.93	35.821
256.14	32.340
256.35	40.509
256.57	34.926
256.78	36.569
256.99	21.513
257.20	25.155
257.41	23.048
257.63	26.857
257.84	26.860
258.05	26.711
258.26	25.976
258.47	21.981
258.69	19.140
258.90	14.503
259.11	16.561
259.32	22.430
259.53	14.538
259.75	17.324
259.96	13.107
260.17	11.193
260.38	12.100
260.59	10.283
260.81	9.409
261.02	10.415
261.23	10.437
261.44	12.903
261.65	10.743
261.87	10.851
262.08	12.273
262.29	12.724
262.50	11.900
262.71	12.145
262.92	14.481
263.14	13.590
263.35	15.227
263.56	18.695
263.77	18.605
263.98	21.336
264.20	21.015
264.41	17.681
264.62	20.000
264.83	16.166
265.04	21.529
265.25	20.174
265.47	21.557
265.68	23.116
265.89	20.437
266.10	18.631
266.31	17.203
266.52	16.883
266.74	14.496
266.95	16.957
267.16	16.166
267.37	13.085
267.58	18.405
267.79	20.091
268.01	16.652
268.22	12.568
268.43	16.475
268.64	11.628
268.85	15.938
269.06	14.718
269.27	17.875
269.49	14.157
269.70	18.788
269.91	20.183
270.12	13.904
270.33	17.808
270.54	17.205
270.75	14.180
270.97	16.162
271.18	16.379
271.39	14.037
271.60	18.543
271.81	10.686
272.02	11.458
272.23	13.144
272.45	12.500
272.66	13.871
272.87	12.370
273.08	12.705
273.29	12.716
273.50	9.630
273.71	12.615
273.92	10.032
274.14	13.465
274.35	11.462
274.56	12.097
274.77	15.390
274.98	12.282
275.19	13.972
275.40	12.859
275.61	12.490
275.83	17.686
276.04	11.297
276.25	16.381
276.46	12.167
276.67	18.755
276.88	13.484
277.09	16.060
277.30	20.624
277.51	13.465
277.73	16.216
277.94	13.556
278.15	15.009
278.36	15.358
278.57	11.455
278.78	12.204
278.99	13.556
279.20	15.245
279.41	21.296
279.62	15.973
279.84	16.065
280.05	13.906
280.26	12.903
280.47	14.724
280.68	15.445
280.89	17.433
281.10	14.894
281.31	17.813
281.52	13.953
281.73	10.547
281.94	11.420
282.16	14.170
282.37	14.100
282.58	10.699
282.79	12.799
283.00	14.353
283.21	9.859
283.42	11.247
283.63	11.569
283.84	12.798
284.05	9.813
284.26	11.220
284.47	13.082
284.68	11.769
284.89	10.280
285.11	12.127
285.32	9.209
285.53	11.084
285.74	11.881
285.95	10.401
286.16	12.418
286.37	9.791
286.58	9.157
286.79	9.553
287.00	9.706
287.21	11.678
287.42	8.863
287.63	9.955
287.84	8.806
288.05	11.441
288.26	8.968
288.48	12.284
288.69	10.331
288.90	11.700
289.11	13.274
289.32	9.988
289.53	11.388
289.74	10.610
289.95	9.952
290.16	13.003
290.37	9.949
290.58	9.081
290.79	7.975
291.00	9.814
291.21	11.541
291.42	9.995
291.63	7.652
291.84	11.129
292.05	9.524
292.26	9.545
292.47	11.466
292.68	9.856
292.89	14.294
293.10	14.743
293.31	10.210
293.52	9.892
293.73	11.875
293.94	10.620
294.15	10.027
294.36	12.366
294.57	15.351
294.79	9.465
295.00	7.582
295.21	12.038
295.42	10.804
295.63	13.472
295.84	10.028
296.05	11.652
296.26	9.062
296.47	13.698
296.68	9.681
296.89	11.111
297.10	11.365
297.31	10.411
297.52	8.910
297.73	10.314
297.94	9.102
298.15	7.616
298.36	9.665
298.57	8.497
298.78	11.124
298.99	7.769
299.20	9.262
299.41	8.630
299.62	8.932
299.83	7.638
300.04	6.683
300.25	13.816
300.46	11.838
300.67	12.672
300.88	12.412
301.09	8.665
301.30	9.720
301.50	9.212
301.71	14.605
301.92	15.341
302.13	9.872
302.34	8.567
302.55	10.782
302.76	9.756
302.97	10.129
303.18	11.294
303.39	9.831
303.60	11.782
303.81	14.404
304.02	10.704
304.23	8.545
304.44	10.533
304.65	9.850
304.86	12.682
305.07	11.111
305.28	9.445
305.49	11.706
305.70	12.222
305.91	10.460
306.12	7.117
306.33	8.719
306.54	11.131
306.75	8.404
306.96	12.623
307.17	9.181
307.38	13.070
307.58	9.590
307.79	13.674
308.00	11.040
308.21	11.439
308.42	8.374
308.63	10.765
308.84	10.413
309.05	6.420
309.26	9.614
309.47	11.174
309.68	8.554
309.89	12.466
310.10	7.890
310.31	13.437
310.52	7.614
310.73	11.323
310.94	9.691
311.14	7.507
311.35	9.797
311.56	7.758
311.77	8.165
311.98	7.034
312.19	9.049
312.40	8.130
312.61	8.377
312.82	9.890
313.03	9.867
313.24	12.095
313.45	9.924
313.66	10.514
313.86	8.342
314.07	9.262
314.28	10.337
314.49	11.111
314.70	10.662
314.91	12.874
315.12	8.621
315.33	10.967
315.54	10.977
315.75	9.497
315.96	7.509
316.16	6.903
316.37	11.778
316.58	10.331
316.79	10.447
317.00	10.401
317.21	7.808
317.42	8.319
317.63	11.334
317.84	8.787
318.05	9.322
318.25	9.144
318.46	7.295
318.67	11.701
318.88	12.066
319.09	10.937
319.30	11.435
319.51	11.224
319.72	9.687
319.93	12.536
320.13	10.593
320.34	11.782
320.55	12.087
320.76	15.783
320.97	9.439
321.18	10.969
321.39	9.764
321.60	9.608
321.80	14.249
322.01	13.415
322.22	11.407
322.43	9.181
322.64	10.938
322.85	12.175
323.06	10.141
323.27	11.278
323.47	9.518
323.68	10.914
323.89	10.746
324.10	10.202
324.31	10.232
324.52	10.997
324.73	11.749
324.93	10.016
325.14	10.299
325.35	11.185
325.56	10.269
325.77	11.450
325.98	9.712
326.19	11.882
326.39	9.122
326.60	7.907
326.81	9.327
327.02	7.819
327.23	6.269
327.44	12.365
327.64	7.777
327.85	9.206
328.06	10.757
328.27	15.028
328.48	12.802
328.69	8.048
328.90	9.312
329.10	9.919
329.31	12.989
329.52	11.312
329.73	11.867
329.94	7.652
330.15	10.605
330.35	11.136
330.56	12.285
330.77	9.214
330.98	10.044
331.19	8.443
331.39	10.608
331.60	9.493
331.81	9.052
332.02	11.589
332.23	11.932
332.44	9.888
332.64	11.038
332.85	12.737
333.06	11.093
333.27	8.365
333.48	10.366
333.68	8.888
333.89	7.398
334.10	7.845
334.31	10.583
334.52	8.705
334.72	9.521
334.93	9.490
335.14	8.235
335.35	12.618
335.56	11.111
335.76	8.651
335.97	11.188
336.18	5.608
336.39	11.678
336.60	10.503
336.80	9.186
337.01	8.649
337.22	7.247
337.43	10.232
337.64	11.703
337.84	8.867
338.05	9.316
338.26	11.776
338.47	11.168
338.68	9.948
338.88	10.432
339.09	9.035
339.30	10.719
339.51	9.454
339.71	12.372
339.92	9.442
340.13	9.741
340.34	9.682
340.55	11.106
340.75	9.813
340.96	7.003
341.17	11.515
341.38	6.857
341.58	9.176
341.79	9.277
342.00	9.569
342.21	10.057
342.41	8.884
342.62	9.229
342.83	9.555
343.04	9.991
343.24	11.892
343.45	10.177
343.66	11.414
343.87	10.328
344.07	11.661
344.28	12.505
344.49	11.502
344.70	12.825
344.90	10.482
345.11	10.572
345.32	9.575
345.53	10.859
345.73	10.196
345.94	14.357
346.15	13.685
346.36	11.590
346.56	12.409
346.77	12.995
346.98	9.208
347.19	12.696
347.39	10.965
347.60	10.738
347.81	13.152
348.02	11.745
348.22	10.485
348.43	11.292
348.64	7.299
348.84	10.787
349.05	11.584
349.26	15.307
349.47	9.018
349.67	10.589
349.88	12.500
350.09	10.613
350.30	14.805
350.50	14.166
350.71	14.317
350.92	11.600
351.12	12.710
351.33	12.888
351.54	10.556
351.74	11.745
351.95	9.912
352.16	13.099
352.37	12.575
352.57	13.444
352.78	11.368
352.99	10.320
353.19	11.933
353.40	13.036
353.61	14.373
353.82	14.195
354.02	12.041
354.23	14.211
354.44	16.389
354.64	12.810
354.85	15.391
355.06	12.635
355.26	9.906
355.47	13.301
355.68	15.235
355.88	13.534
356.09	13.215
356.30	10.992
356.51	15.938
356.71	13.192
356.92	11.974
357.13	14.450
357.33	16.270
357.54	15.309
357.75	9.969
357.95	14.451
358.16	11.659
358.37	15.885
358.57	13.353
358.78	17.520
358.99	12.841
359.19	13.377
359.40	15.891
359.61	14.153
359.81	17.957
360.02	17.962
360.23	11.437
360.43	14.065
360.64	12.432
360.85	13.895
361.05	10.851
361.26	16.441
361.47	12.264
361.67	16.358
361.88	10.729
362.09	15.177
362.29	11.231
362.50	12.084
362.70	11.173
362.91	16.686
363.12	11.856
363.32	14.225
363.53	14.673
363.74	16.036
363.94	11.904
364.15	16.474
364.36	16.552
364.56	13.221
364.77	14.451
364.98	17.968
365.18	13.908
365.39	15.807
365.59	11.094
365.80	13.254
366.01	13.519
366.21	12.640
366.42	11.795
366.63	16.687
366.83	11.143
367.04	11.026
367.24	14.746
367.45	13.505
367.66	10.126
367.86	12.006
368.07	11.974
368.28	13.846
368.48	13.038
368.69	10.637
368.89	13.401
369.10	12.888
369.31	14.063
369.51	14.376
369.72	16.237
369.92	16.000
370.13	9.299
370.34	15.356
370.54	7.325
370.75	13.848
370.95	9.847
371.16	14.851
371.37	9.921
371.57	12.147
371.78	10.722
371.98	14.352
372.19	12.839
372.40	13.852
372.60	12.279
372.81	13.070
373.01	9.530
373.22	11.571
373.43	13.450
373.63	12.736
373.84	12.720
374.04	11.925
374.25	12.664
374.46	14.712
374.66	11.756
374.87	13.020
375.07	8.351
375.28	11.442
375.48	11.685
375.69	12.608
375.90	10.094
376.10	9.669
376.31	11.037
376.51	10.820
376.72	10.237
376.92	10.784
377.13	13.480
377.34	13.940
377.54	11.321
377.75	13.667
377.95	10.977
378.16	13.646
378.36	13.680
378.57	12.629
378.77	11.230
378.98	12.414
379.19	11.768
379.39	11.672
379.60	9.651
379.80	12.438
380.01	12.716
380.21	11.321
380.42	11.842
380.62	12.600
380.83	11.513
381.04	10.166
381.24	11.611
381.45	11.417
381.65	9.696
381.86	12.729
382.06	12.642
382.27	9.882
382.47	10.153
382.68	12.009
382.88	9.669
383.09	10.264
383.29	10.351
383.50	12.635
383.71	10.450
383.91	11.218
384.12	9.988
384.32	12.756
384.53	10.375
384.73	9.452
384.94	7.156
385.14	10.233
385.35	8.427
385.55	11.189
385.76	9.668
385.96	9.899
386.17	9.108
386.37	11.210
386.58	9.452
386.78	13.187
386.99	9.774
387.19	11.955
387.40	9.805
387.60	12.976
387.81	9.855
388.01	10.430
388.22	11.088
388.42	12.694
388.63	12.029
388.83	13.265
389.04	8.307
389.24	11.041
389.45	9.947
389.65	10.289
389.86	10.488
390.06	9.387
390.27	9.242
390.47	10.485
390.68	7.582
390.88	11.805
391.09	10.894
391.29	11.648
391.50	9.628
391.70	11.091
391.91	8.846
392.11	9.751
392.32	10.987
392.52	11.746
392.73	10.449
392.93	12.325
393.14	9.883
393.34	10.801
393.55	11.650
393.75	11.863
393.95	10.181
394.16	12.150
394.36	12.091
394.57	11.789
394.77	10.418
394.98	9.842
395.18	11.242
395.39	11.088
395.59	9.551
395.80	10.580
396.00	9.073
396.21	12.741
396.41	9.048
396.61	10.675
396.82	9.876
397.02	14.720
397.23	10.763
397.43	10.815
397.64	7.965
397.84	12.229
398.05	7.179
398.25	10.937
398.45	8.007
398.66	11.882
398.86	9.369
399.07	12.022
399.27	9.553
399.48	11.777
399.68	9.089
399.89	9.785
400.09	10.593
400.29	9.851
400.50	9.615
400.70	11.063
400.91	8.685
401.11	9.574
401.32	9.671
401.52	7.643
401.72	9.540
401.93	13.296
402.13	9.875
402.34	9.589
402.54	8.025
402.75	13.038
402.95	7.277
403.15	10.965
403.36	7.912
403.56	10.272
403.77	8.349
403.97	8.921
404.17	8.530
404.38	11.359
404.58	8.037
404.79	10.716
404.99	11.363
405.19	9.807
405.40	9.498
405.60	9.747
405.81	8.904
406.01	9.719
406.21	10.665
406.42	10.078
406.62	9.619
406.83	11.697
407.03	10.995
407.23	9.592
407.44	8.971
407.64	10.215
407.85	9.694
408.05	9.215
408.25	10.040
408.46	10.956
408.66	10.542
408.87	9.877
409.07	8.805
409.27	8.728
409.48	8.843
409.68	10.361
409.88	8.053
410.09	10.185
410.29	9.434
410.50	11.589
410.70	7.956
410.90	10.467
411.11	8.001
411.31	9.656
411.51	9.309
411.72	10.175
411.92	7.807
412.12	7.845
412.33	8.380
412.53	9.691
412.74	7.261
412.94	9.036
413.14	8.740
413.35	9.094
413.55	8.860
413.75	11.592
413.96	6.839
414.16	10.150
414.36	8.457
414.57	9.008
414.77	7.673
414.97	11.171
415.18	9.257
415.38	8.687
415.58	9.290
415.79	8.332
415.99	7.201
416.19	9.534
416.40	9.068
416.60	8.672
416.80	8.237
417.01	9.158
417.21	7.253
417.41	11.259
417.62	9.193
417.82	9.885
418.02	7.690
418.23	10.189
418.43	8.976
418.63	9.732
418.84	10.121
419.04	9.789
419.24	9.505
419.45	10.161
419.65	10.444
419.85	10.822
420.06	10.493
420.26	10.579
420.46	10.024
420.67	10.701
420.87	10.516
421.07	11.254
421.28	9.981
421.48	11.083
421.68	10.920
421.88	11.054
422.09	11.260
422.29	10.728
422.49	10.582
422.70	11.046
422.90	10.636
423.10	11.630
423.31	11.016
423.51	11.603
423.71	10.875
423.91	11.468
424.12	10.928
424.32	11.231
424.52	11.017
424.73	10.356
424.93	10.041
425.13	10.839
425.33	10.214
425.54	11.426
425.74	10.796
425.94	11.488
426.15	10.873
426.35	11.628
426.55	11.036
426.75	11.834
426.96	10.443
427.16	11.247
427.36	11.361
427.57	11.998
427.77	10.371
427.97	11.164
428.17	11.043
428.38	12.068
428.58	8.377
428.78	10.633
428.98	9.741
429.19	10.308
429.39	7.845
429.59	9.671
429.79	7.928
430.00	9.074
430.20	7.954
430.40	10.089
430.60	8.487
430.81	10.042
431.01	8.031
431.21	9.950
431.41	7.396
431.62	10.038
431.82	9.303
432.02	10.775
432.22	8.312
432.43	8.825
432.63	7.770
432.83	9.792
433.03	8.663
433.24	8.541
433.44	8.989
433.64	10.633
433.84	8.475
434.05	10.211
434.25	9.278
434.45	11.117
434.65	10.696
434.85	11.620
435.06	10.031
435.26	10.625
435.46	9.659
435.66	10.972
435.87	9.623
436.07	11.222
436.27	9.962
436.47	9.467
436.67	8.308
436.88	10.165
437.08	9.263
437.28	9.687
437.48	8.909
437.69	10.565
437.89	9.240
438.09	10.778
438.29	8.688
438.49	10.088
438.70	9.440
438.90	8.482
439.10	8.565
439.30	10.170
439.50	7.337
439.71	10.453
439.91	9.310
440.11	10.479
440.31	9.374
440.51	10.586
440.72	9.245
440.92	10.407
441.12	9.802
441.32	10.693
441.52	10.533
441.72	10.774
441.93	10.049
442.13	11.345
442.33	10.059
442.53	11.800
442.73	10.243
442.94	10.659
443.14	10.862
443.34	11.298
443.54	11.240
443.74	11.948
443.94	10.657
444.15	10.111
444.35	9.950
444.55	10.568
444.75	10.265
444.95	10.985
445.15	10.168
445.36	10.718
445.56	8.483
445.76	11.026
445.96	10.616
446.16	10.035
446.36	10.114
446.57	10.732
446.77	10.049
446.97	10.849
447.17	10.930
447.37	10.620
447.57	11.114
447.77	10.795
447.98	11.123
448.18	11.763
448.38	10.999
448.58	11.466
448.78	10.962
448.98	12.086
449.18	11.271
449.39	11.879
449.59	10.671
449.79	11.752
449.99	11.216
450.19	11.568
450.39	11.673
450.59	12.256
450.79	11.953
451.00	12.640
451.20	11.876
451.40	11.970
451.60	10.421
451.80	12.323
452.00	10.871
452.20	11.728
452.40	11.702
452.61	11.654
452.81	10.618
453.01	12.736
453.21	10.566
453.41	11.059
453.61	11.092
453.81	11.797
454.01	11.442
454.21	11.697
454.42	12.892
454.62	12.024
454.82	11.704
455.02	12.284
455.22	11.463
455.42	12.023
455.62	10.421
455.82	12.617
456.02	11.744
456.23	12.857
456.43	11.402
456.63	12.721
456.83	11.106
457.03	12.928
457.23	11.967
457.43	12.893
457.63	11.871
457.83	13.542
458.03	12.154
458.23	13.230
458.43	11.392
458.64	12.698
458.84	12.094
459.04	13.157
459.24	12.444
459.44	12.747
459.64	11.879
459.84	13.049
460.04	12.463
460.24	12.528
460.44	12.837
460.64	13.556
460.84	12.782
461.04	12.483
461.24	13.354
461.45	12.735
461.65	12.968
461.85	13.860
462.05	14.342
462.25	13.746
462.45	15.057
462.65	14.565
462.85	13.159
463.05	14.566
463.25	12.777
463.45	14.588
463.65	14.630
463.85	14.394
464.05	14.029
464.25	15.221
464.45	14.680
464.65	15.389
464.85	13.832
465.05	14.231
465.26	15.234
465.46	14.951
465.66	16.027
465.86	15.375
466.06	14.264
466.26	15.200
466.46	14.233
466.66	15.103
466.86	14.475
467.06	15.336
467.26	15.211
467.46	15.172
467.66	15.242
467.86	15.506
468.06	14.591
468.26	15.094
468.46	14.497
468.66	15.729
468.86	13.784
469.06	16.491
469.26	14.204
469.46	15.649
469.66	15.115
469.86	15.145
470.06	15.021
470.26	16.243
470.46	16.043
470.66	16.498
470.86	14.928
471.06	16.440
471.26	15.166
471.46	15.592
471.66	16.109
471.86	16.213
472.06	15.911
472.26	17.900
472.46	16.112
472.66	16.948
472.86	15.752
473.06	16.622
473.26	16.067
473.46	16.612
473.66	15.713
473.86	16.270
474.06	15.185
474.26	17.153
474.46	15.619
474.66	16.932
474.86	16.235
475.06	17.427
475.26	16.046
475.46	16.776
475.66	15.830
475.86	16.787
476.06	16.401
476.26	17.262
476.46	16.725
476.66	16.755
476.86	16.272
477.06	16.582
477.26	16.612
477.46	16.922
477.65	16.658
477.85	16.806
478.05	14.060
478.25	17.019
478.45	16.306
478.65	17.124
478.85	15.186
479.05	16.753
479.25	16.667
479.45	17.089
479.65	16.118
479.85	16.745
480.05	16.696
480.25	17.106
480.45	16.999
480.65	17.186
480.85	15.850
481.05	16.015
481.25	16.192
481.44	16.746
481.64	16.008
481.84	16.327
482.04	15.554
482.24	15.558
482.44	15.274
482.64	15.056
482.84	14.604
483.04	14.513
483.24	13.830
483.44	13.472
483.64	12.636
483.84	12.583
484.04	12.355
484.23	12.367
484.43	12.783
484.63	13.234
484.83	13.944
485.03	14.541
485.23	15.008
485.43	14.683
485.63	14.716
485.83	13.816
486.03	13.721
486.23	14.329
486.42	14.357
486.62	14.651
486.82	14.485
487.02	13.822
487.22	13.920
487.42	13.381
487.62	13.407
487.82	13.398
488.02	13.297
488.22	13.077
488.41	13.457
488.61	13.187
488.81	13.113
489.01	13.578
489.21	13.998
489.41	13.610
489.61	14.375
489.81	14.333
490.01	14.585
490.20	14.781
490.40	15.182
490.60	15.035
490.80	15.254
491.00	14.976
491.20	14.929
491.40	14.091
491.60	13.938
491.79	13.426
491.99	14.009
492.19	13.449
492.39	13.335
492.59	13.358
492.79	13.479
492.99	14.001
493.19	13.685
493.38	14.410
493.58	15.003
493.78	14.976
493.98	15.543
494.18	15.980
494.38	16.115
494.58	16.407
494.77	15.831
494.97	16.538
495.17	16.547
495.37	16.085
495.57	15.769
495.77	16.506
495.96	16.791
496.16	16.336
496.36	15.953
496.56	15.799
496.76	16.005
496.96	15.843
497.15	14.745
497.35	15.814
497.55	15.308
497.75	15.804
497.95	15.040
498.15	15.745
498.34	15.675
498.54	15.320
498.74	16.230
498.94	15.512
499.14	15.675
499.34	15.963
499.53	16.177
499.73	16.377
499.93	15.946
500.13	16.366
500.33	15.741
500.52	16.635
500.72	16.137
500.92	15.733
501.12	16.229
501.32	16.217
501.52	16.561
501.71	15.979
501.91	16.092
502.11	17.210
502.31	16.119
502.51	17.014
502.70	16.334
502.90	16.703
503.10	16.416
503.30	16.673
503.50	16.976
503.69	16.706
503.89	16.203
504.09	16.383
504.29	15.353
504.48	16.176
504.68	15.836
504.88	16.073
505.08	15.543
505.28	16.141
505.47	16.212
505.67	16.197
505.87	15.956
506.07	16.041
506.27	15.655
506.46	16.180
506.66	15.960
506.86	16.605
507.06	16.359
507.25	16.024
507.45	15.769
507.65	16.014
507.85	15.198
508.04	16.101
508.24	15.775
508.44	15.780
508.64	15.186
508.83	14.909
509.03	14.291
509.23	14.749
509.43	14.858
509.63	14.928
509.82	14.348
510.02	15.133
510.22	15.221
510.42	15.131
510.61	14.692
510.81	15.231
511.01	15.027
511.21	15.066
511.40	14.532
511.60	14.885
511.80	14.587
511.99	14.889
512.19	14.622
512.39	14.864
512.59	14.433
512.78	15.147
512.98	15.131
513.18	14.802
513.38	15.204
513.57	15.407
513.77	14.827
513.97	14.786
514.17	15.223
514.36	14.779
514.56	14.580
514.76	15.463
514.95	14.348
515.15	14.869
515.35	14.430
515.55	14.667
515.74	15.184
515.94	16.032
516.14	14.165
516.33	14.805
516.53	14.854
516.73	14.149
516.93	14.490
517.12	14.771
517.32	14.431
517.52	14.418
517.71	14.340
517.91	14.454
518.11	13.927
518.30	14.100
518.50	13.378
518.70	13.452
518.90	13.651
519.09	13.644
519.29	13.748
519.49	13.903
519.68	13.204
519.88	13.870
520.08	13.637
520.27	13.841
520.47	13.903
520.67	13.973
520.86	13.923
521.06	14.453
521.26	14.076
521.45	14.132
521.65	14.536
521.85	13.585
522.04	14.359
522.24	14.261
522.44	13.557
522.63	14.294
522.83	13.521
523.03	14.611
523.22	13.633
523.42	14.999
523.62	14.454
523.81	14.892
524.01	14.581
524.21	14.069
524.40	13.902
524.60	13.886
524.80	13.273
524.99	12.992
525.19	13.708
525.39	13.125
525.58	13.674
525.78	13.165
525.98	13.445
526.17	13.326
526.37	12.516
526.57	12.993
526.76	13.014
526.96	13.459
527.15	12.486
527.35	13.045
527.55	12.421
527.74	13.116
527.94	13.194
528.14	12.303
528.33	11.999
528.53	12.092
528.72	12.101
528.92	11.873
529.12	11.827
529.31	11.915
529.51	12.074
529.71	12.393
529.90	12.329
530.10	12.650
530.29	12.771
530.49	12.937
530.69	13.158
530.88	13.025
531.08	13.024
531.28	13.090
531.47	13.364
531.67	12.783
531.86	13.146
532.06	12.837
532.26	12.621
532.45	12.927
532.65	12.546
532.84	12.365
533.04	11.856
533.24	12.259
533.43	12.096
533.63	11.950
533.82	12.238
534.02	12.302
534.22	12.464
534.41	12.795
534.61	12.986
534.80	12.800
535.00	13.009
535.19	13.029
535.39	13.765
535.59	13.616
535.78	13.168
535.98	13.077
536.17	12.609
536.37	13.104
536.57	12.755
536.76	12.543
536.96	12.642
537.15	12.647
537.35	12.742
537.54	12.720
537.74	12.706
537.93	12.907
538.13	13.004
538.33	13.180
538.52	13.604
538.72	13.549
538.91	13.998
539.11	13.891
539.30	12.913
539.50	13.602
539.70	13.327
539.89	13.553
540.09	13.225
540.28	12.945
540.48	12.471
540.67	13.151
540.87	12.064
541.06	12.165
541.26	11.751
541.45	12.335
541.65	12.184
541.85	11.900
542.04	12.200
542.24	12.407
542.43	12.428
542.63	12.360
542.82	12.711
543.02	12.573
543.21	13.101
543.41	13.336
543.60	12.882
543.80	13.456
543.99	13.270
544.19	13.310
544.38	13.350
544.58	13.197
544.77	13.405
544.97	13.347
545.16	13.254
545.36	13.192
545.56	12.905
545.75	13.372
545.95	13.511
546.14	13.079
546.34	13.097
546.53	13.013
546.73	12.677
546.92	12.926
547.12	12.353
547.31	13.159
547.51	13.374
547.70	13.316
547.90	12.961
548.09	13.743
548.29	13.153
548.48	13.639
548.68	13.450
548.87	13.883
549.07	14.020
549.26	14.112
549.46	13.063
549.65	14.483
549.84	13.699
550.04	13.617
550.23	12.899
550.43	13.631
550.62	13.268
550.82	14.519
551.01	12.007
551.21	14.223
551.40	12.786
551.60	12.660
551.79	12.334
551.99	13.178
552.18	12.781
552.38	13.293
552.57	12.674
552.77	13.653
552.96	12.304
553.16	13.657
553.35	13.041
553.54	13.787
553.74	13.382
553.93	13.808
554.13	13.293
554.32	13.620
554.52	13.604
554.71	14.265
554.91	12.351
555.10	14.195
555.29	13.441
555.49	13.803
555.68	12.733
555.88	14.179
556.07	12.186
556.27	13.441
556.46	12.807
556.66	14.159
556.85	13.419
557.04	13.923
557.24	13.313
557.43	14.541
557.63	13.577
557.82	13.077
558.02	13.118
558.21	14.127
558.40	12.028
558.60	13.946
558.79	12.778
558.99	14.722
559.18	12.736
559.38	14.115
559.57	13.002
559.76	14.282
559.96	14.018
560.15	14.564
560.35	12.794
560.54	13.659
560.73	12.144
560.93	14.452
561.12	13.385
561.32	14.674
561.51	13.684
561.70	14.444
561.90	13.168
562.09	14.309
562.29	13.741
562.48	15.193
562.67	13.343
562.87	15.539
563.06	13.541
563.26	15.560
563.45	14.321
563.64	14.738
563.84	13.565
564.03	14.908
564.23	13.394
564.42	15.177
564.61	14.389
564.81	15.117
565.00	15.381
565.20	16.746
565.39	14.963
565.58	15.165
565.78	13.980
565.97	15.237
566.16	15.204
566.36	15.426
566.55	14.483
566.74	15.393
566.94	14.607
567.13	15.677
567.33	15.495
567.52	15.419
567.71	16.190
567.91	16.580
568.10	15.468
568.29	16.214
568.49	16.052
568.68	16.169
568.87	15.724
569.07	16.526
569.26	15.572
569.45	16.945
569.65	15.660
569.84	16.760
570.04	15.906
570.23	16.289
570.42	15.122
570.62	17.504
570.81	15.646
571.00	16.527
571.20	16.735
571.39	16.689
571.58	16.401
571.78	16.419
571.97	16.607
572.16	16.603
572.36	16.061
572.55	17.247
572.74	17.078
572.94	16.593
573.13	16.220
573.32	17.029
573.51	16.601
573.71	17.125
573.90	16.269
574.09	16.965
574.29	16.306
574.48	17.004
574.67	16.245
574.87	16.890
575.06	16.759
575.25	17.102
575.45	16.603
575.64	16.670
575.83	16.379
576.03	17.932
576.22	16.904
576.41	16.637
576.60	16.087
576.80	17.341
576.99	17.279
577.18	17.463
577.38	16.841
577.57	17.466
577.76	16.696
577.95	17.328
578.15	15.989
578.34	16.996
578.53	15.513
578.73	17.113
578.92	15.303
579.11	15.976
579.30	16.884
579.50	16.208
579.69	17.291
579.88	17.659
580.08	15.205
580.27	16.872
580.46	16.733
580.65	17.265
580.85	14.713
581.04	17.196
581.23	15.894
581.42	16.646
581.62	15.195
581.81	17.246
582.00	17.226
582.19	15.400
582.39	16.821
582.58	16.027
582.77	15.750
582.96	16.008
583.16	15.242
583.35	16.617
583.54	16.124
583.73	17.184
583.93	16.454
584.12	16.298
584.31	15.882
584.50	15.658
584.70	16.188
584.89	17.051
585.08	15.206
585.27	16.998
585.47	14.265
585.66	16.926
585.85	14.828
586.04	16.801
586.24	15.551
586.43	16.010
586.62	14.234
586.81	16.990
587.00	15.006
587.20	15.610
587.39	13.801
587.58	16.981
587.77	14.821
587.97	15.836
588.16	16.245
588.35	16.979
588.54	14.777
588.73	15.818
588.93	15.821
589.12	16.295
589.31	15.473
589.50	16.207
589.69	17.084
589.89	15.603
590.08	14.974
590.27	15.978
590.46	15.492
590.65	15.354
590.85	14.713
591.04	16.212
591.23	15.264
591.42	16.913
591.61	15.258
591.81	16.659
592.00	15.111
592.19	17.239
592.38	14.587
592.57	16.342
592.77	15.409
592.96	16.428
593.15	17.133
593.34	17.202
593.53	15.852
593.72	16.727
593.92	15.247
594.11	16.585
594.30	14.406
594.49	17.380
594.68	15.853
594.87	16.787
595.07	14.402
595.26	16.863
595.45	14.777
595.64	16.822
595.83	14.606
596.02	16.258
596.22	15.058
596.41	16.985
596.60	15.987
596.79	16.269
596.98	15.698
597.17	16.814
597.37	16.163
597.56	17.486
597.75	16.425
597.94	17.327
598.13	17.988
598.32	16.980
598.51	16.506
598.71	18.083
598.90	16.571
599.09	17.592
599.28	15.587
599.47	17.182
599.66	15.114
599.85	17.811
600.05	15.988
600.24	18.314
600.43	15.927
600.62	16.641
600.81	16.164
601.00	17.393
601.19	14.833
601.38	17.232
601.58	15.579
601.77	16.578
601.96	16.098
602.15	17.492
602.34	15.913
602.53	18.169
602.72	15.454
602.91	17.324
603.10	15.411
603.30	17.139
603.49	16.303
603.68	17.598
603.87	15.570
604.06	17.226
604.25	16.782
604.44	17.851
604.63	16.421
604.82	17.868
605.01	16.267
605.21	17.745
605.40	16.855
605.59	17.894
605.78	18.385
605.97	17.508
606.16	17.635
606.35	17.367
606.54	17.641
606.73	19.212
606.92	17.818
607.11	18.995
607.30	17.056
607.50	17.081
607.69	16.504
607.88	17.398
608.07	15.215
608.26	16.895
608.45	17.577
608.64	17.973
608.83	14.973
609.02	17.638
609.21	17.483
609.40	17.207
609.59	16.474
609.78	18.119
609.97	16.643
610.16	16.940
610.35	15.705
610.55	17.751
610.74	16.790
610.93	17.805
611.12	16.981
611.31	17.299
611.50	16.272
611.69	16.654
611.88	16.154
612.07	17.073
612.26	15.481
612.45	16.925
612.64	16.184
612.83	17.265
613.02	14.001
613.21	15.506
613.40	14.575
613.59	16.580
613.78	14.599
613.97	15.407
614.16	13.607
614.35	15.537
614.54	12.567
614.73	15.142
614.92	14.498
615.11	14.788
615.30	12.663
615.49	14.636
615.68	13.611
615.87	13.584
616.07	12.664
616.26	14.178
616.45	16.405
616.64	14.382
616.83	14.424
617.02	14.464
617.21	11.967
617.40	13.187
617.59	14.688
617.78	14.640
617.97	12.282
618.16	13.302
618.35	11.161
618.54	14.227
618.73	14.265
618.92	13.668
619.11	12.304
619.30	15.091
619.49	11.348
619.68	14.485
619.86	12.479
620.05	13.230
620.24	12.133
620.43	13.843
620.62	11.234
620.81	13.214
621.00	13.787
621.19	15.156
621.38	14.513
621.57	15.436
621.76	12.384
621.95	13.863
622.14	13.125
622.33	14.607
622.52	11.875
622.71	13.970
622.90	11.686
623.09	14.004
623.28	12.985
623.47	14.342
623.66	12.828
623.85	13.064
624.04	11.871
624.23	13.496
624.42	13.272
624.61	12.116
624.80	10.880
624.99	13.777
625.18	11.079
625.36	13.823
625.55	12.704
625.74	11.591
625.93	11.994
626.12	12.430
626.31	14.226
626.50	14.696
626.69	12.817
626.88	15.666
627.07	14.288
627.26	13.834
627.45	12.540
627.64	13.943
627.83	13.600
628.02	14.550
628.20	13.452
628.39	14.309
628.58	13.394
628.77	14.730
628.96	12.675
629.15	13.402
629.34	13.666
629.53	11.654
629.72	10.907
629.91	14.968
630.10	13.064
630.29	12.729
630.47	10.694
630.66	11.797
630.85	11.684
631.04	13.451
631.23	13.378
631.42	12.992
631.61	11.778
631.80	13.181
631.99	11.536
632.18	11.089
632.36	10.416
632.55	13.495
632.74	11.737
632.93	13.533
633.12	11.634
633.31	12.292
633.50	10.625
633.69	12.400
633.88	9.396
634.06	12.146
634.25	10.380
634.44	12.361
634.63	12.224
634.82	13.361
635.01	11.195
635.20	12.574
635.39	9.919
635.57	11.438
635.76	10.797
635.95	11.878
636.14	10.943
636.33	13.759
636.52	10.702
636.71	12.815
636.89	11.218
637.08	11.135
637.27	10.717
637.46	12.368
637.65	10.386
637.84	11.496
638.03	11.642
638.21	13.530
638.40	12.273
638.59	11.039
638.78	11.829
638.97	13.771
639.16	14.316
639.34	11.080
639.53	9.146
639.72	12.716
639.91	10.819
640.10	10.731
640.29	12.873
640.47	12.629
640.66	11.641
640.85	13.748
641.04	9.664
641.23	11.616
641.42	11.869
641.60	11.831
641.79	11.046
641.98	11.945
642.17	11.673
642.36	13.224
642.54	10.103
642.73	12.040
642.92	10.270
643.11	11.484
643.30	9.802
643.49	11.541
643.67	9.939
643.86	12.654
644.05	9.190
644.24	13.226
644.43	9.712
644.61	12.143
644.80	10.896
644.99	10.629
645.18	12.220
645.37	11.947
645.55	9.393
645.74	11.776
645.93	12.033
646.12	12.611
646.31	11.091
646.49	10.879
646.68	12.228
646.87	10.607
647.06	10.925
647.24	11.008
647.43	10.448
647.62	12.383
647.81	9.018
648.00	11.732
648.18	9.110
648.37	10.230
648.56	10.867
648.75	11.320
648.93	10.351
649.12	10.898
649.31	10.211
649.50	10.931
649.68	10.636
649.87	11.033
650.06	8.651
650.25	12.227
650.43	9.708
650.62	10.069
650.81	9.157
651.00	9.416
651.18	10.745
651.37	13.067
651.56	11.540
651.75	12.128
651.93	8.962
652.12	12.426
652.31	8.257
652.50	11.492
652.68	10.870
652.87	11.615
653.06	12.097
653.25	13.251
653.43	9.884
653.62	12.738
653.81	10.355
654.00	13.092
654.18	10.650
654.37	13.729
654.56	10.861
654.74	9.672
654.93	9.880
655.12	10.935
655.31	9.847
655.49	11.765
655.68	9.123
655.87	8.191
656.05	8.562
656.24	11.149
656.43	7.836
656.62	10.554
656.80	9.907
656.99	9.485
657.18	9.774
657.36	9.624
657.55	9.498
657.74	10.830
657.93	11.524
658.11	12.603
658.30	11.948
658.49	10.491
658.67	11.091
658.86	9.359
659.05	9.706
659.23	11.633
659.42	9.148
659.61	10.582
659.79	10.134
659.98	10.331
660.17	11.039
660.35	11.752
660.54	10.822
660.73	13.720
660.91	10.581
661.10	12.093
661.29	9.106
661.47	9.448
661.66	9.313
661.85	10.735
662.03	9.253
662.22	7.846
662.41	5.109
662.59	10.438
662.78	7.548
662.97	8.666
663.15	8.198
663.34	8.787
663.53	6.980
663.71	9.163
663.90	8.932
664.09	9.163
664.27	11.182
664.46	9.311
664.65	7.713
664.83	8.644
665.02	8.068
665.21	8.936
665.39	7.687
665.58	9.617
665.77	8.462
665.95	8.987
666.14	8.466
666.32	7.657
666.51	8.293
666.70	7.231
666.88	8.199
667.07	7.529
667.26	6.781
667.44	8.851
667.63	8.364
667.81	7.056
668.00	9.984
668.19	12.000
668.37	9.427
668.56	11.041
668.75	7.542
668.93	11.900
669.12	6.384
669.30	10.935
669.49	7.652
669.68	9.677
669.86	11.271
670.05	8.414
670.23	8.736
670.42	8.963
670.61	10.191
670.79	10.689
670.98	10.234
671.16	11.382
671.35	10.035
671.54	10.550
671.72	9.384
671.91	10.618
672.09	9.524
672.28	11.975
672.46	11.527
672.65	9.769
672.84	10.207
673.02	12.677
673.21	8.976
673.39	10.031
673.58	11.431
673.77	9.601
673.95	7.892
674.14	11.907
674.32	9.208
674.51	13.213
674.69	8.007
674.88	12.423
675.07	8.927
675.25	14.231
675.44	9.592
675.62	10.920
675.81	10.100
675.99	16.590
676.18	13.145
676.36	9.648
676.55	10.331
676.74	14.425
676.92	14.065
677.11	10.866
677.29	8.957
677.48	14.107
677.66	11.282
677.85	10.265
678.03	12.872
678.22	13.318
678.40	11.590
678.59	8.468
678.78	9.268
678.96	10.509
679.15	10.635
679.33	12.138
679.52	13.175
679.70	12.710
679.89	11.012
680.07	14.476
680.26	10.152
680.44	12.461
680.63	12.070
680.81	12.479
681.00	10.193
681.18	11.523
681.37	10.824
681.55	13.920
681.74	13.052
681.92	14.772
682.11	11.638
682.29	12.894
682.48	9.734
682.66	13.985
682.85	13.236
683.03	14.095
683.22	15.138
683.40	16.415
683.59	13.384
683.77	12.009
683.96	10.806
684.14	14.600
684.33	9.044
684.51	16.768
684.70	12.410
684.88	18.059
685.07	13.431
685.25	16.590
685.44	11.783
685.62	12.992
685.81	11.583
685.99	15.057
686.18	13.347
686.36	15.591
686.55	10.468
686.73	15.314
686.92	14.904
687.10	15.515
687.29	14.935
687.47	16.428
687.65	17.368
687.84	12.936
688.02	17.686
688.21	15.551
688.39	12.737
688.58	18.127
688.76	17.612
688.95	15.323
689.13	11.091
689.32	19.986
689.50	15.173
689.68	16.655
689.87	14.643
690.05	16.986
690.24	16.909
690.42	17.076
690.61	18.234
690.79	17.902
690.98	16.945
691.16	17.502
691.34	14.230
691.53	16.431
691.71	16.503
691.90	16.328
692.08	14.214
692.27	17.454
692.45	21.164
692.63	17.743
692.82	17.863
693.00	17.982
693.19	15.553
693.37	19.127
693.56	19.493
693.74	20.379
693.92	14.600
694.11	19.122
694.29	20.545
694.48	21.103
694.66	18.119
694.84	23.038
695.03	16.413
695.21	20.842
695.40	24.660
695.58	24.556
695.76	18.419
695.95	21.039
696.13	17.958
696.32	21.273
696.50	26.544
696.68	21.953
696.87	19.702
697.05	25.340
697.24	25.283
697.42	24.107
697.60	22.184
697.79	25.335
697.97	25.212
698.16	27.431
698.34	21.233
698.52	26.497
698.71	24.442
698.89	25.197
699.07	26.531
699.26	27.039
699.44	26.739
699.63	27.627
699.81	25.211
699.99	29.436
700.18	28.011
700.36	27.585
700.54	27.044
700.73	27.881
700.91	26.651
701.09	27.434
701.28	26.228
701.46	27.780
701.64	26.603
701.83	29.837
702.01	24.580
702.20	32.305
702.38	27.544
702.56	29.055
702.75	25.445
702.93	27.011
703.11	29.491
703.30	29.063
703.48	25.919
703.66	31.374
703.85	26.222
704.03	32.032
704.21	29.083
704.40	32.374
704.58	29.199
704.76	32.174
704.95	27.593
705.13	30.687
705.31	27.786
705.50	31.381
705.68	26.954
705.86	32.854
706.04	27.849
706.23	32.181
706.41	32.000
706.59	30.195
706.78	26.343
706.96	32.866
707.14	30.625
707.33	32.044
707.51	30.891
707.69	32.542
707.88	30.504
708.06	31.338
708.24	30.766
708.42	32.021
708.61	29.443
708.79	34.531
708.97	35.785
709.16	36.840
709.34	34.444
709.52	32.871
709.71	33.531
709.89	34.781
710.07	28.558
710.25	33.287
710.44	30.662
710.62	33.757
710.80	33.333
710.98	31.908
711.17	33.349
711.35	33.701
711.53	30.234
711.72	36.428
711.90	37.987
712.08	34.254
712.26	31.586
712.45	30.195
712.63	35.212
712.81	33.172
712.99	31.933
713.18	35.279
713.36	33.318
713.54	31.475
713.72	27.889
713.91	31.743
714.09	29.053
714.27	33.834
714.45	33.424
714.64	35.506
714.82	32.243
715.00	35.278
715.18	30.985
715.37	34.872
715.55	32.879
715.73	33.441
715.91	35.535
716.10	34.875
716.28	28.049
716.46	36.328
716.64	33.856
716.83	34.825
717.01	31.791
717.19	35.090
717.37	32.604
717.55	33.512
717.74	32.592
717.92	31.700
718.10	26.967
718.28	35.725
718.47	33.978
718.65	34.058
718.83	32.493
719.01	36.080
719.19	33.833
719.38	31.243
719.56	29.059
719.74	33.427
719.92	25.799
720.10	29.341
720.29	30.957
720.47	34.888
720.65	32.796
720.83	33.774
721.01	28.138
721.20	33.652
721.38	35.102
721.56	32.984
721.74	32.846
721.92	35.625
722.11	33.546
722.29	34.820
722.47	31.037
722.65	33.085
722.83	34.737
723.01	34.111
723.20	33.378
723.38	32.625
723.56	31.990
723.74	39.487
723.92	33.591
724.10	33.420
724.29	30.051
724.47	36.205
724.65	33.972
724.83	37.794
725.01	30.942
725.19	37.944
725.38	34.941
725.56	37.852
725.74	36.753
725.92	35.424
726.10	32.878
726.28	34.935
726.46	33.399
726.65	35.540
726.83	35.146
727.01	35.147
727.19	33.207
727.37	34.994
727.55	36.088
727.73	35.499
727.92	33.694
728.10	38.368
728.28	30.673
728.46	36.295
728.64	34.165
728.82	38.117
729.00	33.741
729.19	36.433
729.37	34.012
729.55	37.685
729.73	32.370
729.91	37.456
730.09	35.287
730.27	36.857
730.45	37.634
730.63	37.493
730.82	30.854
731.00	37.121
731.18	35.928
731.36	37.939
731.54	37.022
731.72	42.410
731.90	31.411
732.08	38.524
732.26	35.042
732.45	39.168
732.63	35.380
732.81	39.066
732.99	33.256
733.17	38.735
733.35	34.808
733.53	36.473
733.71	38.470
733.89	39.150
734.07	36.897
734.25	39.697
734.44	36.705
734.62	36.547
734.80	36.864
734.98	43.075
735.16	38.840
735.34	38.522
735.52	40.296
735.70	38.548
735.88	36.749
736.06	38.316
736.24	37.643
736.42	41.760
736.60	39.645
736.78	39.733
736.97	33.127
737.15	44.343
737.33	38.565
737.51	41.643
737.69	40.727
737.87	41.518
738.05	40.853
738.23	40.339
738.41	37.751
738.59	39.563
738.77	39.740
738.95	41.221
739.13	33.746
739.31	38.295
739.49	38.998
739.67	43.205
739.85	34.464
740.03	38.816
740.21	40.085
740.39	44.476
740.57	41.059
740.75	40.717
740.93	37.500
741.11	40.943
741.30	38.559
741.48	43.107
741.66	47.113
741.84	43.619
742.02	39.073
742.20	41.047
742.38	39.693
742.56	45.503
742.74	40.217
742.92	38.281
743.10	38.740
743.28	43.325
743.46	41.295
743.64	43.883
743.82	38.825
744.00	42.697
744.18	43.605
744.36	38.874
744.54	40.917
744.72	44.605
744.90	42.032
745.08	39.433
745.26	34.242
745.44	43.842
745.62	36.215
745.80	39.289
745.98	40.409
746.16	43.275
746.34	40.091
746.52	44.968
746.70	38.188
746.87	44.374
747.05	40.259
747.23	43.172
747.41	44.972
747.59	42.857
747.77	35.475
747.95	41.437
748.13	36.794
748.31	48.970
748.49	41.567
748.67	43.103
748.85	40.391
749.03	44.444
749.21	36.544
749.39	46.237
749.57	37.250
749.75	39.134
749.93	38.879
750.11	38.894
750.29	39.909
750.47	46.167
750.65	43.474
750.83	40.349
751.01	35.829
751.18	41.494
751.36	38.047
751.54	39.966
751.72	43.095
751.90	40.854
752.08	35.927
752.26	38.879
752.44	41.667
752.62	37.173
752.80	38.968
752.98	43.054
753.16	43.474
753.34	39.514
753.52	41.318
753.69	46.120
753.87	38.729
754.05	41.226
754.23	40.331
754.41	40.861
754.59	37.998
754.77	44.077
754.95	38.253
755.13	42.757
755.31	41.618
755.49	40.559
755.66	37.135
755.84	42.070
756.02	39.498
756.20	44.580
756.38	37.114
756.56	42.073
756.74	40.444
756.92	40.654
757.10	39.143
757.28	40.036
757.45	46.393
757.63	44.602
757.81	37.262
757.99	43.824
758.17	38.605
758.35	43.064
758.53	44.772
758.71	42.897
758.88	39.157
759.06	38.899
759.24	36.053
759.42	39.048
759.60	37.172
759.78	38.428
759.96	31.130
760.13	33.166
760.31	31.972
760.49	36.686
760.67	29.024
760.85	33.305
761.03	28.887
761.21	26.423
761.38	29.089
761.56	30.148
761.74	25.776
761.92	31.465
762.10	25.737
762.28	30.782
762.46	28.644
762.63	23.908
762.81	26.950
762.99	29.493
763.17	29.531
763.35	30.164
763.53	24.949
763.70	30.024
763.88	30.161
764.06	32.241
764.24	27.970
764.42	32.039
764.60	31.932
764.77	28.426
764.95	32.476
765.13	32.635
765.31	30.121
765.49	34.681
765.66	32.497
765.84	34.863
766.02	34.308
766.20	33.062
766.38	35.777
766.56	37.609
766.73	34.567
766.91	36.080
767.09	35.062
767.27	37.387
767.45	34.779
767.62	37.716
767.80	40.397
767.98	40.563
768.16	32.719
768.33	38.365
768.51	38.431
768.69	38.719
768.87	36.807
769.05	43.015
769.22	35.095
769.40	40.858
769.58	43.323
769.76	40.381
769.94	40.459
770.11	44.600
770.29	40.669
770.47	40.649
770.65	44.752
770.82	39.464
771.00	43.902
771.18	43.392
771.36	34.248
771.53	39.425
771.71	47.400
771.89	48.230
772.07	44.064
772.25	42.623
772.42	37.618
772.60	40.978
772.78	39.435
772.96	48.188
773.13	48.304
773.31	47.219
773.49	39.495
773.67	40.903
773.84	37.775
774.02	46.541
774.20	41.389
774.37	39.812
774.55	42.766
774.73	45.893
774.91	37.042
775.08	38.482
775.26	41.393
775.44	44.678
775.62	39.949
775.79	52.243
775.97	45.811
776.15	43.369
776.32	41.879
776.50	52.853
776.68	48.071
776.86	44.500
777.03	39.195
777.21	41.633
777.39	40.789
777.56	46.260
777.74	45.260
777.92	46.355
778.10	37.394
778.27	44.669
778.45	45.614
778.63	47.361
778.80	41.307
778.98	51.095
779.16	50.000
779.34	42.937
779.51	48.714
779.69	49.510
779.87	44.398
780.04	42.098
780.22	41.084
780.40	46.708
780.57	46.976
780.75	47.548
780.93	46.393
781.10	46.536
781.28	46.721
781.46	35.157
781.63	46.990
781.81	50.872
781.99	42.795
782.16	38.450
782.34	45.636
782.52	42.613
782.69	49.512
782.87	47.534
783.05	41.286
783.22	44.762
783.40	44.272
783.58	46.188
783.75	40.548
783.93	54.229
784.11	46.992
784.28	44.182
784.46	46.322
784.64	42.362
784.81	38.622
784.99	45.656
785.17	46.066
785.34	49.013
785.52	37.398
785.69	39.191
785.87	37.268
786.05	50.427
786.22	44.567
786.40	47.862
786.58	40.924
786.75	46.166
786.93	40.032
787.11	50.562
787.28	44.728
787.46	42.182
787.63	50.085
787.81	46.575
787.99	51.303
788.16	37.962
788.34	37.206
788.51	43.741
788.69	39.676
788.87	40.026
789.04	27.031
789.22	37.299
789.39	39.506
789.57	36.328
789.75	42.576
789.92	47.632
790.10	36.260
790.27	43.262
790.45	43.101
790.63	42.688
790.80	35.242
790.98	43.043
791.15	45.783
791.33	45.295
791.51	43.778
791.68	45.166
791.86	40.728
792.03	41.667
792.21	39.434
792.39	49.211
792.56	46.190
792.74	42.391
792.91	48.485
793.09	36.093
793.26	44.366
793.44	48.885
793.62	45.397
793.79	42.717
793.97	34.043
794.14	49.310
794.32	46.067
794.49	50.369
794.67	36.871
794.84	37.610
795.02	46.508
795.20	45.588
795.37	38.861
795.55	42.331
795.72	44.523
795.90	47.236
796.07	42.586
796.25	41.137
796.42	42.957
796.60	39.642
796.77	42.123
796.95	45.295
797.13	31.553
797.30	39.434
797.48	35.015
797.65	34.019
797.83	46.439
798.00	35.113
798.18	27.882
798.35	41.977
798.53	43.167
798.70	41.221
798.88	44.816
799.05	33.489
799.23	37.112
799.40	37.102
799.58	43.127
799.75	49.510
799.93	37.457
800.10	44.084
800.28	47.674
800.45	49.910
800.63	39.928
800.80	50.969
800.98	44.238
801.15	37.345
801.33	48.501
801.50	45.596
801.68	46.628
801.85	39.451
802.03	29.866
802.20	41.760
802.38	39.576
802.55	51.154
802.73	45.043
802.90	45.640
803.08	33.274
803.25	42.115
803.43	41.219
803.60	51.245
803.78	52.166
803.95	46.748
804.13	44.291
804.30	44.401
804.48	42.218
804.65	40.354
804.83	38.111
805.00	41.034
805.17	45.825
805.35	43.561
805.52	34.226
805.70	38.868
805.87	48.244
806.05	47.993
806.22	44.796
806.40	37.958
806.57	34.644
806.75	53.578
806.92	45.088
807.09	56.926
807.27	41.768
807.44	53.053
807.62	47.428
807.79	44.107
807.97	46.181
808.14	48.600
808.31	40.535
808.49	45.841
808.66	46.050
808.84	37.016
809.01	49.469
809.19	51.440
809.36	53.157
809.53	44.841
809.71	37.838
809.88	48.780
810.06	43.307
810.23	44.800
810.41	43.154
810.58	46.723
810.75	39.700
810.93	46.746
811.10	44.211
811.28	50.112
811.45	45.283
811.62	41.798
811.80	44.255
811.97	56.710
812.15	52.663
812.32	42.241
812.49	57.081
812.67	52.766
812.84	55.385
813.02	53.139
813.19	45.372
813.36	47.289
813.54	44.912
813.71	51.364
813.89	45.154
814.06	50.265
814.23	46.101
814.41	44.208
814.58	49.519
814.75	59.459
814.93	47.619
815.10	58.205
815.28	54.167
815.45	41.626
815.62	39.089
815.80	35.566
815.97	50.311
816.14	52.854
816.32	43.765
816.49	53.158
816.66	39.250
816.84	48.429
817.01	60.087
817.18	39.161
817.36	37.986
817.53	49.502
817.71	37.581
817.88	38.636
818.05	49.888
818.23	44.048
818.40	38.208
818.57	51.282
818.75	45.940
818.92	45.043
819.09	44.488
819.27	44.902
819.44	37.972
819.61	42.804
819.79	38.889
819.96	45.347
820.13	44.214
820.31	36.348
820.48	44.427
820.65	42.833
820.82	34.258
821.00	37.664
821.17	28.040
821.34	34.907
821.52	26.342
821.69	27.234
821.86	32.099
822.04	33.172
822.21	28.812
822.38	31.134
822.56	26.777
822.73	33.362
822.90	28.386
823.07	34.373
823.25	31.869
823.42	30.448
823.59	30.013
823.77	32.119
823.94	29.802
824.11	33.632
824.29	29.880
824.46	35.200
824.63	36.352
824.80	34.062
824.98	32.919
825.15	36.038
825.32	28.076
825.49	34.604
825.67	30.966
825.84	35.220
826.01	33.076
826.19	36.291
826.36	26.440
826.53	34.065
826.70	24.751
826.88	32.482
827.05	26.368
827.22	29.906
827.39	26.267
827.57	31.065
827.74	26.220
827.91	32.981
828.08	24.560
828.26	29.619
828.43	24.221
828.60	36.358
828.77	29.965
828.95	33.918
829.12	28.755
829.29	26.970
829.46	30.098
829.64	31.305
829.81	26.343
829.98	29.692
830.15	31.084
830.32	26.734
830.50	30.307
830.67	35.219
830.84	32.090
831.01	31.975
831.19	35.839
831.36	35.976
831.53	39.484
831.70	49.520
831.87	45.041
832.05	40.594
832.22	52.691
832.39	35.217
832.56	35.369
832.74	45.536
832.91	37.764
833.08	44.939
833.25	31.810
833.42	37.306
833.60	33.333
833.77	28.922
833.94	27.174
834.11	30.303
834.28	22.642
834.45	29.398
834.63	25.558
834.80	27.389
834.97	28.629
835.14	34.062
835.31	30.000
835.49	25.850
835.66	25.514
835.83	28.418
836.00	29.339
836.17	29.508
836.34	29.808
836.52	30.263
836.69	42.590
836.86	38.906
837.03	41.315
837.20	36.538
837.37	38.574
837.55	32.212
837.72	40.848
837.89	34.351
838.06	39.904
838.23	49.043
838.40	49.173
838.58	43.733
838.75	39.316
838.92	51.379
839.09	54.233
839.26	58.556
839.43	53.314
839.60	66.555
839.78	76.543
839.95	58.632
840.12	32.595
840.29	61.146
840.46	53.497
840.63	54.706
840.80	60.533
840.98	69.143
841.15	43.250
841.32	46.838
841.49	52.754
841.66	62.295
841.83	42.400
842.00	46.519
842.17	60.822
842.34	48.138
842.52	61.078
842.69	60.377
842.86	51.903
843.03	83.962
843.20	75.510
843.37	58.042
843.54	67.480
843.71	66.122
843.88	79.470
844.06	66.397
844.23	77.295
844.40	73.106
844.57	78.298
844.74	74.672
844.91	86.574
845.08	72.941
845.25	72.993
845.42	57.286
845.59	107.602
845.76	80.455
845.94	117.089
846.11	80.597
846.28	90.345
846.45	89.571
846.62	97.297
846.79	106.667
846.96	61.538
847.13	110.000
847.30	81.818
847.47	70.879
847.64	65.116
847.81	82.967
847.98	83.243
848.15	96.774
848.32	91.237
848.50	114.286
848.67	104.861
848.84	129.293
849.01	91.156
849.18	90.000
849.35	80.628
849.52	97.688
849.69	75.723
849.86	100.000
850.03	100.000
850.20	104.861
850.37	108.571
850.54	108.805
850.71	123.577
850.88	98.601
851.05	92.466
851.22	105.590
851.39	108.247
851.56	106.250
851.73	78.333
851.90	91.875
852.07	101.765
852.24	115.441
852.41	127.737
852.58	105.303
852.75	93.491
852.92	92.391
853.09	91.620
853.26	110.191
853.43	85.000
853.60	81.959
853.77	119.149
853.94	71.212
854.11	120.513
854.28	104.787
854.45	93.007
854.62	100.000
854.79	103.846
854.96	108.696
855.13	81.667
855.30	87.565
855.47	116.552
855.64	105.405
855.81	126.984
855.98	110.000
856.15	68.276
856.32	99.061
856.49	94.521
856.66	111.047
856.83	92.147
857.00	112.295
857.17	115.833
857.34	79.545
857.51	99.359
857.68	121.429
857.85	98.182
858.02	177.027
858.19	113.571
858.36	79.429
858.53	109.714
858.70	88.079
858.87	133.103
859.04	94.366
859.21	77.826
859.38	111.258
859.55	157.407
859.72	140.496
859.89	199.020
860.05	111.628
860.22	126.974
860.39	156.075
860.56	131.193
860.73	98.193
860.90	92.000
861.07	116.393
861.24	119.658
861.41	127.857
861.58	98.030
861.75	137.963
861.92	130.709
862.09	109.639
862.26	169.149
862.43	109.023
862.59	77.436
862.76	99.320
862.93	125.466
863.10	90.345
863.27	89.730
863.44	120.395
863.61	104.706
863.78	106.338
863.95	122.137
864.12	88.889
864.29	114.729
864.45	176.712
864.62	114.286
864.79	112.838
864.96	111.111
865.13	106.870
865.30	158.182
865.47	137.037
865.64	91.875
865.81	122.840
865.97	86.885
866.14	92.381
866.31	107.317
866.48	129.457
866.65	134.000
866.82	112.752
866.99	137.864
867.16	111.429
867.33	140.171
867.49	150.365
867.66	106.796
867.83	90.400
868.00	119.858
868.17	123.485
868.34	102.055
868.51	106.338
868.67	112.397
868.84	125.170
869.01	151.181
869.18	102.326
869.35	175.556
869.52	102.740
869.69	88.550
869.85	98.930
870.02	132.710
870.19	169.748
870.36	98.639
870.53	80.114
870.70	68.605
870.86	104.403
871.03	133.613
871.20	79.470
871.37	104.785
871.54	105.517
871.71	92.593
871.87	89.041
872.04	91.613
872.21	162.366
872.38	75.460
872.55	116.901
872.72	94.419
872.88	107.101
873.05	85.714
873.22	107.143
873.39	110.976
873.56	85.549
873.72	144.030
873.89	94.928
874.06	103.947
874.23	106.780
874.40	102.098
874.56	167.925
874.73	108.696
874.90	101.695
875.07	134.028
875.24	49.133
875.40	79.355
875.57	108.046
875.74	103.333
875.91	118.182
876.08	103.030
876.24	122.078
876.41	120.930
876.58	113.665
876.75	74.405
876.92	110.619
877.08	111.607
877.25	121.519
877.42	114.815
877.59	86.713
877.75	102.013
877.92	104.000
878.09	90.977
878.26	116.883
878.42	115.217
878.59	100.000
878.76	113.462
878.93	118.713
879.09	87.766
879.26	71.892
879.43	83.529
879.60	79.630
879.76	96.078
879.93	92.405
880.10	75.926
880.27	75.688
880.43	87.805
880.60	43.379
880.77	71.429
880.94	61.818
881.10	60.714
881.27	48.267
881.44	41.570
881.61	44.323
881.77	41.270
881.94	27.411
882.11	26.332
882.28	21.806
882.44	24.863
882.61	24.666
882.78	22.886
882.94	27.253
883.11	24.756
883.28	22.071
883.45	30.597
883.61	23.553
883.78	22.708
883.95	30.177
884.11	27.586
884.28	29.929
>>>>>End Processed Spectral Data<<<<<
