SpectraSuite Data File
++++++++++++++++++++++++++++++++++++
Date: Fri Sep 20 03:34:03 EST 2019
User: sgrac
Dark Spectrum Present: Yes
Reference Spectrum Present: Yes
Number of Sampled Component Spectra: 1
Spectrometers: USB4E01596
Integration Time (usec): 100000 (USB4E01596)
Spectra Averaged: 1 (USB4E01596)
Boxcar Smoothing: 0 (USB4E01596)
Correct for Electrical Dark: No (USB4E01596)
Strobe/Lamp Enabled: Yes (USB4E01596)
Correct for Detector Non-linearity: No (USB4E01596)
Correct for Stray Light: No (USB4E01596)
Number of Pixels in Processed Spectrum: 3648
>>>>>Begin Processed Spectral Data<<<<<
178.44	513.043
178.66	513.043
178.87	513.043
179.09	-570.000
179.30	363.333
179.52	632.143
179.74	3420.000
179.95	-500.000
180.17	-656.250
180.38	-918.750
180.60	-603.226
180.82	730.435
181.03	-3375.000
181.25	-1600.000
181.46	-1345.455
181.68	0.000
181.89	18600.000
182.11	1825.000
182.33	1569.231
182.54	-328.571
182.76	342.000
182.97	622.222
183.19	1700.000
183.40	-762.500
183.62	1242.857
183.84	-357.500
184.05	0.000
184.27	13500.000
184.48	720.000
184.70	6650.000
184.91	1369.231
185.13	438.636
185.34	368.519
185.56	-761.905
185.78	778.947
185.99	-8700.000
186.21	510.714
186.42	900.000
186.64	250.746
186.85	224.691
187.07	770.833
187.28	-332.432
187.50	-713.636
187.72	278.125
187.93	14400.000
188.15	836.364
188.36	348.077
188.58	911.765
188.79	7750.000
189.01	467.647
189.22	1125.000
189.44	480.851
189.65	-760.000
189.87	1085.714
190.09	541.667
190.30	-3760.000
190.52	353.659
190.73	633.333
190.95	-1161.538
191.16	-900.000
191.38	-656.522
191.59	1855.556
191.81	285.000
192.02	447.500
192.24	306.349
192.45	382.857
192.67	622.727
192.88	0.000
193.10	502.941
193.31	-1200.000
193.53	304.545
193.74	328.947
193.96	1920.000
194.18	223.188
194.39	314.000
194.61	670.000
194.82	634.483
195.04	1425.000
195.25	268.085
195.47	1005.263
195.68	-1350.000
195.90	3475.000
196.11	3925.000
196.33	-414.815
196.54	600.000
196.76	304.444
196.97	888.889
197.19	-772.222
197.40	558.333
197.62	-1000.000
197.83	1086.667
198.05	436.842
198.26	645.455
198.48	1416.667
198.69	342.857
198.91	1957.143
199.12	490.000
199.34	295.385
199.55	-1045.455
199.77	755.000
199.98	2760.000
200.20	1545.455
200.41	527.273
200.63	-2660.000
200.84	500.000
201.06	-15200.000
201.27	911.765
201.49	355.738
201.70	876.471
201.91	1106.250
202.13	790.000
202.34	3525.000
202.56	2171.429
202.77	-2283.333
202.99	946.667
203.20	709.524
203.42	-450.000
203.63	603.226
203.85	-629.167
204.06	4766.667
204.28	-3575.000
204.49	1771.429
204.71	337.500
204.92	1777.778
205.14	0.000
205.35	1126.667
205.56	475.000
205.78	523.077
205.99	375.676
206.21	427.586
206.42	3016.667
206.64	-375.610
206.85	826.667
207.07	1061.538
207.28	523.333
207.50	-1787.500
207.71	409.302
207.93	7350.000
208.14	-248.649
208.35	524.138
208.57	-681.250
208.78	651.724
209.00	384.211
209.21	0.000
209.43	678.261
209.64	423.256
209.86	2271.429
210.07	1118.182
210.28	657.143
210.50	2980.000
210.71	474.359
210.93	423.684
211.14	309.836
211.36	414.286
211.57	2062.500
211.78	-704.545
212.00	711.538
212.21	-968.421
212.43	519.355
212.64	450.000
212.86	517.857
213.07	535.714
213.29	252.632
213.50	-385.294
213.71	-10100.000
213.93	-1888.889
214.14	860.000
214.36	-2242.857
214.57	229.070
214.78	482.857
215.00	-3966.667
215.21	-2633.333
215.43	-442.424
215.64	1118.750
215.86	-4125.000
216.07	695.238
216.28	296.774
216.50	306.383
216.71	-2800.000
216.93	1221.429
217.14	469.444
217.35	218.421
217.57	-713.333
217.78	1518.182
218.00	386.364
218.21	227.869
218.42	346.939
218.64	357.778
218.85	317.241
219.07	302.000
219.28	742.857
219.49	-1636.364
219.71	404.762
219.92	2316.667
220.14	6000.000
220.35	4733.333
220.56	740.000
220.78	287.302
220.99	2550.000
221.21	445.946
221.42	418.519
221.63	538.889
221.85	12700.000
222.06	503.448
222.28	665.000
222.49	16300.000
222.70	-4033.333
222.92	373.214
223.13	185.507
223.34	330.909
223.56	356.757
223.77	743.750
223.99	273.077
224.20	172.072
224.41	372.093
224.63	476.471
224.84	608.000
225.05	295.833
225.27	305.556
225.48	220.253
225.69	295.455
225.91	236.364
226.12	275.806
226.34	217.391
226.55	192.188
226.76	180.597
226.98	184.211
227.19	423.333
227.40	146.667
227.62	131.081
227.83	195.789
228.04	257.407
228.26	105.556
228.47	102.083
228.69	74.725
228.90	82.022
229.11	71.264
229.33	51.639
229.54	65.714
229.75	52.852
229.97	52.365
230.18	41.576
230.39	39.118
230.61	52.174
230.82	52.288
231.03	50.392
231.25	45.349
231.46	53.016
231.67	58.108
231.89	66.176
232.10	63.740
232.31	63.721
232.53	81.081
232.74	63.115
232.95	62.312
233.17	96.429
233.38	72.222
233.59	73.529
233.81	86.726
234.02	62.562
234.23	86.559
234.45	97.351
234.66	53.960
234.87	108.721
235.09	68.444
235.30	72.903
235.51	71.552
235.73	51.042
235.94	69.892
236.15	72.015
236.36	59.072
236.58	61.088
236.79	66.023
237.00	58.635
237.22	68.534
237.43	70.370
237.64	83.182
237.86	73.039
238.07	65.737
238.28	59.722
238.50	59.091
238.71	68.794
238.92	73.162
239.13	66.964
239.35	70.968
239.56	56.621
239.77	75.494
239.99	52.344
240.20	73.022
240.41	48.589
240.63	49.846
240.84	59.434
241.05	49.858
241.26	54.070
241.48	50.126
241.69	37.698
241.90	31.648
242.12	32.394
242.33	26.426
242.54	23.138
242.75	25.976
242.97	21.795
243.18	19.928
243.39	24.548
243.61	20.302
243.82	20.146
244.03	24.940
244.24	17.571
244.46	21.929
244.67	25.733
244.88	30.990
245.09	19.972
245.31	26.325
245.52	23.129
245.73	33.226
245.95	48.689
246.16	24.120
246.37	21.141
246.58	23.349
246.80	24.000
247.01	23.480
247.22	13.909
247.43	17.151
247.65	16.325
247.86	15.172
248.07	11.425
248.28	10.386
248.50	12.679
248.71	13.925
248.92	10.683
249.13	12.819
249.35	12.205
249.56	15.804
249.77	16.654
249.98	13.969
250.20	21.028
250.41	21.175
250.62	22.065
250.83	22.644
251.05	28.553
251.26	15.699
251.47	25.426
251.68	24.018
251.90	28.997
252.11	30.706
252.32	25.601
252.53	24.068
252.75	16.223
252.96	21.574
253.17	17.206
253.38	17.933
253.59	23.613
253.81	22.146
254.02	16.014
254.23	16.960
254.44	20.839
254.66	27.107
254.87	24.601
255.08	24.045
255.29	30.880
255.50	40.476
255.72	38.677
255.93	29.851
256.14	32.766
256.35	30.324
256.57	25.368
256.78	38.600
256.99	30.969
257.20	29.278
257.41	30.667
257.63	28.190
257.84	27.949
258.05	32.387
258.26	26.316
258.47	28.173
258.69	26.630
258.90	21.409
259.11	20.892
259.32	23.157
259.53	16.208
259.75	16.381
259.96	16.731
260.17	10.530
260.38	9.027
260.59	8.659
260.81	9.194
261.02	10.364
261.23	8.932
261.44	11.139
261.65	12.067
261.87	10.596
262.08	11.419
262.29	11.278
262.50	11.644
262.71	11.790
262.92	14.632
263.14	15.470
263.35	16.899
263.56	20.740
263.77	19.767
263.98	21.875
264.20	17.473
264.41	20.896
264.62	13.988
264.83	18.476
265.04	24.588
265.25	20.423
265.47	25.868
265.68	16.960
265.89	17.481
266.10	17.364
266.31	23.217
266.52	16.623
266.74	17.199
266.95	17.500
267.16	17.667
267.37	13.404
267.58	17.791
267.79	14.818
268.01	17.542
268.22	12.568
268.43	16.475
268.64	14.758
268.85	19.366
269.06	16.064
269.27	18.971
269.49	15.149
269.70	15.189
269.91	16.239
270.12	14.273
270.33	13.242
270.54	15.684
270.75	17.127
270.97	15.243
271.18	15.560
271.39	16.279
271.60	17.467
271.81	9.818
272.02	13.484
272.23	12.452
272.45	14.867
272.66	11.465
272.87	15.636
273.08	10.871
273.29	9.813
273.50	9.758
273.71	11.104
273.92	11.118
274.14	13.201
274.35	10.947
274.56	13.911
274.77	15.923
274.98	14.535
275.19	12.290
275.40	14.221
275.61	11.482
275.83	19.091
276.04	12.301
276.25	15.240
276.46	16.163
276.67	20.052
276.88	13.903
277.09	15.977
277.30	15.448
277.51	15.180
277.73	14.611
277.94	14.561
278.15	14.322
278.36	18.430
278.57	12.458
278.78	11.940
278.99	8.803
279.20	16.152
279.41	18.771
279.62	10.705
279.84	14.175
280.05	15.058
280.26	15.385
280.47	17.791
280.68	12.129
280.89	16.719
281.10	15.303
281.31	16.719
281.52	15.904
281.73	11.016
281.94	7.288
282.16	13.579
282.37	14.606
282.58	10.844
282.79	10.970
283.00	15.708
283.21	7.981
283.42	12.060
283.63	10.850
283.84	10.809
284.05	12.137
284.26	10.696
284.47	11.194
284.68	12.289
284.89	9.694
285.11	14.137
285.32	12.322
285.53	10.037
285.74	11.998
285.95	11.362
286.16	11.329
286.37	11.129
286.58	8.585
286.79	8.648
287.00	9.412
287.21	10.364
287.42	9.364
287.63	6.822
287.84	9.920
288.05	8.792
288.26	8.806
288.48	12.507
288.69	9.692
288.90	11.583
289.11	12.262
289.32	9.675
289.53	11.077
289.74	11.768
289.95	7.494
290.16	14.097
290.37	8.366
290.58	9.916
290.79	8.937
291.00	10.088
291.21	11.648
291.42	10.755
291.63	7.652
291.84	10.098
292.05	9.101
292.26	8.435
292.47	11.742
292.68	8.357
292.89	10.706
293.10	11.964
293.31	10.396
293.52	8.934
293.73	12.784
293.94	11.675
294.15	9.291
294.36	13.306
294.57	12.571
294.79	9.838
295.00	10.068
295.21	8.966
295.42	9.689
295.63	12.320
295.84	10.368
296.05	10.957
296.26	11.076
296.47	9.740
296.68	9.883
296.89	10.360
297.10	11.712
297.31	10.317
297.52	6.965
297.73	7.835
297.94	8.679
298.15	8.568
298.36	7.907
298.57	6.253
298.78	10.414
298.99	7.649
299.20	8.197
299.41	10.222
299.62	9.891
299.83	10.216
300.04	7.772
300.25	13.046
300.46	9.807
300.67	11.983
300.88	11.819
301.09	8.988
301.30	10.406
301.50	10.650
301.71	14.885
301.92	13.311
302.13	10.876
302.34	9.595
302.55	9.777
302.76	12.892
302.97	12.662
303.18	11.464
303.39	6.864
303.60	8.792
303.81	14.404
304.02	11.518
304.23	10.162
304.44	9.675
304.65	10.751
304.86	10.937
305.07	10.398
305.28	12.421
305.49	11.474
305.70	11.308
305.91	10.688
306.12	8.553
306.33	7.651
306.54	10.135
306.75	11.487
306.96	13.235
307.17	9.994
307.38	14.209
307.58	9.905
307.79	14.625
308.00	12.955
308.21	11.616
308.42	9.729
308.63	10.392
308.84	11.926
309.05	9.146
309.26	7.893
309.47	11.287
309.68	8.338
309.89	11.714
310.10	7.354
310.31	10.569
310.52	6.898
310.73	9.870
310.94	9.504
311.14	7.311
311.35	8.196
311.56	8.029
311.77	7.385
311.98	7.706
312.19	8.867
312.40	9.049
312.61	8.901
312.82	9.158
313.03	9.644
313.24	13.948
313.45	8.167
313.66	9.073
313.86	9.969
314.07	9.313
314.28	10.282
314.49	7.280
314.70	10.932
314.91	14.737
315.12	9.789
315.33	12.606
315.54	8.565
315.75	10.240
315.96	8.149
316.16	7.483
316.37	10.912
316.58	10.331
316.79	10.782
317.00	11.871
317.21	9.485
317.42	9.133
317.63	12.135
317.84	7.352
318.05	10.501
318.25	10.134
318.46	8.443
318.67	11.701
318.88	12.301
319.09	11.751
319.30	11.778
319.51	11.224
319.72	10.168
319.93	10.554
320.13	10.871
320.34	10.598
320.55	9.977
320.76	16.145
320.97	8.637
321.18	13.342
321.39	12.562
321.60	8.913
321.80	12.121
322.01	13.286
322.22	11.407
322.43	8.499
322.64	10.938
322.85	8.878
323.06	14.050
323.27	13.659
323.47	10.754
323.68	12.802
323.89	11.039
324.10	10.762
324.31	11.781
324.52	11.282
324.73	11.964
324.93	9.910
325.14	10.085
325.35	10.776
325.56	10.718
325.77	11.250
325.98	11.836
326.19	12.596
326.39	8.390
326.60	10.441
326.81	10.604
327.02	8.208
327.23	8.425
327.44	13.744
327.64	6.580
327.85	9.307
328.06	10.608
328.27	13.296
328.48	14.819
328.69	10.573
328.90	10.760
329.10	11.328
329.31	15.649
329.52	12.586
329.73	14.848
329.94	8.528
330.15	10.938
330.35	12.850
330.56	14.564
330.77	11.057
330.98	12.130
331.19	12.349
331.39	11.755
331.60	11.566
331.81	8.945
332.02	13.135
332.23	11.818
332.44	11.865
332.64	11.749
332.85	11.003
333.06	13.601
333.27	8.200
333.48	12.042
333.68	9.719
333.89	11.333
334.10	11.454
334.31	13.371
334.52	11.192
334.72	12.136
334.93	12.115
335.14	8.645
335.35	13.455
335.56	15.361
335.76	9.618
335.97	14.520
336.18	8.963
336.39	14.408
336.60	13.819
336.80	11.619
337.01	11.400
337.22	9.412
337.43	12.111
337.64	14.916
337.84	14.130
338.05	11.198
338.26	12.790
338.47	14.875
338.68	10.422
338.88	10.238
339.09	13.459
339.30	12.694
339.51	12.277
339.71	16.577
339.92	12.113
340.13	14.916
340.34	12.860
340.55	13.894
340.75	12.870
340.96	10.186
341.17	15.155
341.38	10.816
341.58	14.966
341.79	11.465
342.00	10.611
342.21	12.666
342.41	12.651
342.62	14.141
342.83	11.429
343.04	11.308
343.24	13.545
343.45	13.585
343.66	12.800
343.87	12.803
344.07	13.203
344.28	17.946
344.49	14.712
344.70	16.996
344.90	13.377
345.11	13.475
345.32	13.010
345.53	12.997
345.73	12.713
345.94	17.012
346.15	15.087
346.36	13.726
346.56	14.268
346.77	15.800
346.98	14.015
347.19	15.343
347.39	15.606
347.60	15.216
347.81	15.783
348.02	14.936
348.22	10.135
348.43	14.628
348.64	12.194
348.84	15.398
349.05	13.232
349.26	17.575
349.47	10.179
349.67	12.362
349.88	16.420
350.09	14.797
350.30	16.888
350.50	14.628
350.71	17.465
350.92	13.971
351.12	15.436
351.33	17.845
351.54	15.334
351.74	15.302
351.95	12.237
352.16	14.964
352.37	14.850
352.57	16.389
352.78	14.179
352.99	13.901
353.19	13.273
353.40	14.465
353.61	16.551
353.82	16.150
354.02	13.423
354.23	16.218
354.44	18.386
354.64	15.372
354.85	17.254
355.06	13.272
355.26	11.252
355.47	15.293
355.68	16.620
355.88	17.005
356.09	14.048
356.30	14.297
356.51	16.420
356.71	15.390
356.92	14.264
357.13	18.116
357.33	20.007
357.54	15.554
357.75	11.368
357.95	17.420
358.16	15.123
358.37	17.904
358.57	12.544
358.78	19.413
358.99	14.548
359.19	15.828
359.40	17.323
359.61	14.377
359.81	18.543
360.02	18.909
360.23	13.942
360.43	15.642
360.64	14.263
360.85	15.760
361.05	14.373
361.26	16.592
361.47	13.598
361.67	17.565
361.88	11.054
362.09	16.564
362.29	13.191
362.50	11.989
362.70	12.710
362.91	18.124
363.12	13.719
363.32	15.589
363.53	15.578
363.74	17.045
363.94	13.096
364.15	17.580
364.36	15.947
364.56	14.911
364.77	16.474
364.98	19.583
365.18	16.077
365.39	17.467
365.59	11.872
365.80	14.134
366.01	17.176
366.21	14.570
366.42	13.706
366.63	15.990
366.83	13.626
367.04	11.179
367.24	16.010
367.45	14.901
367.66	10.433
367.86	14.341
368.07	13.228
368.28	14.497
368.48	14.679
368.69	13.241
368.89	12.939
369.10	15.296
369.31	14.686
369.51	16.725
369.72	16.172
369.92	17.556
370.13	12.420
370.34	16.351
370.54	7.765
370.75	14.391
370.95	10.205
371.16	15.005
371.37	11.195
371.57	14.060
371.78	12.007
371.98	14.236
372.19	13.234
372.40	14.561
372.60	12.980
372.81	14.921
373.01	9.391
373.22	12.325
373.43	14.069
373.63	12.764
373.84	14.097
374.04	13.497
374.25	12.425
374.46	14.653
374.66	12.061
374.87	14.674
375.07	8.559
375.28	11.855
375.48	11.773
375.69	12.936
375.90	10.579
376.10	10.230
376.31	10.147
376.51	11.601
376.72	11.489
376.92	10.416
377.13	13.480
377.34	13.601
377.54	10.529
377.75	15.012
377.95	11.618
378.16	13.843
378.36	13.214
378.57	12.725
378.77	11.694
378.98	12.660
379.19	11.841
379.39	11.696
379.60	10.848
379.80	12.043
380.01	13.925
380.21	11.269
380.42	12.078
380.62	12.814
380.83	12.851
381.04	9.475
381.24	12.542
381.45	11.745
381.65	9.363
381.86	11.696
382.06	11.192
382.27	10.165
382.47	10.576
382.68	11.260
382.88	8.618
383.09	11.353
383.29	10.937
383.50	11.714
383.71	11.407
383.91	10.946
384.12	10.134
384.32	12.415
384.53	10.598
384.73	10.494
384.94	8.718
385.14	10.281
385.35	9.071
385.55	10.885
385.76	9.807
385.96	11.111
386.17	10.695
386.37	11.350
386.58	9.870
386.78	12.594
386.99	8.769
387.19	12.066
387.40	9.185
387.60	13.934
387.81	8.903
388.01	10.273
388.22	10.675
388.42	13.008
388.63	11.662
388.83	13.330
389.04	8.717
389.24	11.109
389.45	10.202
389.65	10.634
389.86	9.804
390.06	10.273
390.27	9.522
390.47	9.835
390.68	8.495
390.88	12.243
391.09	10.939
391.29	12.347
391.50	9.081
391.70	10.784
391.91	9.204
392.11	9.709
392.32	10.148
392.52	9.925
392.73	9.317
392.93	10.634
393.14	9.630
393.34	11.157
393.55	10.779
393.75	11.713
393.95	9.352
394.16	10.441
394.36	11.791
394.57	11.051
394.77	9.772
394.98	8.568
395.18	9.882
395.39	10.472
395.59	9.782
395.80	10.619
396.00	9.034
396.21	12.663
396.41	8.067
396.61	11.427
396.82	10.136
397.02	11.724
397.23	10.654
397.43	11.010
397.64	8.673
397.84	12.733
398.05	7.440
398.25	10.315
398.45	7.472
398.66	11.173
398.86	10.075
399.07	11.700
399.27	9.120
399.48	10.945
399.68	8.227
399.89	8.612
400.09	10.221
400.29	9.371
400.50	9.208
400.70	11.187
400.91	9.898
401.11	10.252
401.32	9.648
401.52	8.713
401.72	8.979
401.93	12.533
402.13	9.940
402.34	9.820
402.54	7.982
402.75	11.747
402.95	7.884
403.15	11.315
403.36	8.092
403.56	10.184
403.77	8.308
403.97	10.052
404.17	9.030
404.38	11.026
404.58	7.665
404.79	9.886
404.99	10.124
405.19	8.850
405.40	9.243
405.60	10.813
405.81	8.526
406.01	9.648
406.21	9.684
406.42	9.765
406.62	9.908
406.83	10.051
407.03	10.578
407.23	8.725
407.44	8.632
407.64	10.081
407.85	10.420
408.05	9.290
408.25	8.865
408.46	10.817
408.66	10.831
408.87	9.896
409.07	7.999
409.27	9.266
409.48	8.800
409.68	9.272
409.88	8.032
410.09	10.484
410.29	8.832
410.50	11.094
410.70	7.143
410.90	10.174
411.11	7.783
411.31	9.153
411.51	9.020
411.72	9.970
411.92	7.644
412.12	8.677
412.33	7.783
412.53	8.069
412.74	7.500
412.94	8.878
413.14	8.939
413.35	8.304
413.55	8.371
413.75	9.654
413.96	7.588
414.16	9.269
414.36	8.745
414.57	9.671
414.77	8.101
414.97	9.697
415.18	8.621
415.38	9.021
415.58	8.420
415.79	7.339
415.99	7.742
416.19	8.950
416.40	8.361
416.60	8.326
416.80	7.835
417.01	9.404
417.21	7.122
417.41	11.650
417.62	8.668
417.82	9.349
418.02	7.704
418.23	10.231
418.43	8.644
418.63	9.255
418.84	10.223
419.04	8.352
419.24	9.362
419.45	10.597
419.65	9.941
419.85	10.170
420.06	10.504
420.26	10.281
420.46	9.344
420.67	10.701
420.87	9.746
421.07	11.226
421.28	9.541
421.48	10.751
421.68	10.538
421.88	10.484
422.09	10.968
422.29	10.649
422.49	9.684
422.70	10.689
422.90	10.337
423.10	10.681
423.31	10.964
423.51	10.982
423.71	9.767
423.91	11.010
424.12	10.990
424.32	10.809
424.52	10.133
424.73	10.381
424.93	10.290
425.13	10.076
425.33	9.595
425.54	10.597
425.74	10.664
425.94	10.451
426.15	10.052
426.35	10.820
426.55	10.036
426.75	10.888
426.96	10.085
427.16	10.261
427.36	10.102
427.57	10.738
427.77	9.403
427.97	10.740
428.17	11.102
428.38	10.351
428.58	8.103
428.78	10.035
428.98	9.338
429.19	9.120
429.39	8.028
429.59	10.389
429.79	7.557
430.00	8.820
430.20	8.253
430.40	8.899
430.60	7.878
430.81	9.352
431.01	8.217
431.21	9.705
431.41	7.771
431.62	9.660
431.82	8.338
432.02	9.737
432.22	8.182
432.43	8.507
432.63	7.731
432.83	9.072
433.03	8.550
433.24	8.979
433.44	9.097
433.64	9.975
433.84	8.475
434.05	9.689
434.25	8.877
434.45	10.353
434.65	9.887
434.85	10.679
435.06	9.787
435.26	9.845
435.46	9.406
435.66	9.881
435.87	8.986
436.07	9.920
436.27	9.769
436.47	9.755
436.67	7.924
436.88	9.473
437.08	9.371
437.28	8.903
437.48	8.846
437.69	9.880
437.89	10.273
438.09	10.603
438.29	8.581
438.49	10.214
438.70	9.299
438.90	8.372
439.10	8.799
439.30	8.994
439.50	8.107
439.71	9.766
439.91	9.022
440.11	10.358
440.31	8.949
440.51	10.103
440.72	9.179
440.92	9.758
441.12	9.722
441.32	10.546
441.52	10.205
441.72	10.358
441.93	9.764
442.13	10.449
442.33	9.044
442.53	11.458
442.73	9.228
442.94	10.137
443.14	9.724
443.34	10.103
443.54	9.932
443.74	10.966
443.94	9.762
444.15	10.656
444.35	9.086
444.55	10.084
444.75	9.551
444.95	9.844
445.15	9.221
445.36	10.305
445.56	8.620
445.76	10.147
445.96	9.511
446.16	9.811
446.36	9.411
446.57	10.009
446.77	8.832
446.97	10.293
447.17	10.529
447.37	9.858
447.57	10.188
447.77	10.341
447.98	10.244
448.18	10.239
448.38	9.920
448.58	10.436
448.78	9.999
448.98	10.749
449.18	9.788
449.39	10.598
449.59	9.696
449.79	10.397
449.99	9.673
450.19	10.092
450.39	10.263
450.59	10.399
450.79	9.287
451.00	11.044
451.20	10.238
451.40	9.802
451.60	9.310
451.80	10.390
452.00	9.343
452.20	9.474
452.40	10.273
452.61	9.890
452.81	9.840
453.01	9.845
453.21	8.614
453.41	9.841
453.61	9.554
453.81	9.598
454.01	9.675
454.21	9.390
454.42	9.447
454.62	9.959
454.82	9.683
455.02	9.669
455.22	9.161
455.42	9.077
455.62	7.490
455.82	9.478
456.02	9.511
456.23	9.978
456.43	9.555
456.63	9.870
456.83	8.356
457.03	9.751
457.23	8.356
457.43	9.746
457.63	8.626
457.83	9.979
458.03	8.613
458.23	10.220
458.43	8.056
458.64	9.474
458.84	9.021
459.04	9.810
459.24	9.855
459.44	10.179
459.64	9.565
459.84	10.617
460.04	10.109
460.24	10.557
460.44	10.007
460.64	10.953
460.84	10.407
461.04	10.444
461.24	10.767
461.45	11.106
461.65	10.665
461.85	11.312
462.05	11.058
462.25	11.395
462.45	11.865
462.65	11.311
462.85	10.094
463.05	11.663
463.25	9.259
463.45	10.761
463.65	10.472
463.85	11.208
464.05	9.944
464.25	10.856
464.45	11.362
464.65	10.685
464.85	9.837
465.05	11.485
465.26	11.164
465.46	11.307
465.66	11.565
465.86	11.500
466.06	10.374
466.26	11.264
466.46	9.174
466.66	11.226
466.86	11.262
467.06	11.737
467.26	10.981
467.46	11.565
467.66	10.901
467.86	11.677
468.06	11.308
468.26	11.298
468.46	10.720
468.66	11.989
468.86	10.418
469.06	13.281
469.26	10.673
469.46	11.424
469.66	11.291
469.86	12.479
470.06	11.827
470.26	12.983
470.46	11.064
470.66	13.065
470.86	12.657
471.06	12.923
471.26	11.111
471.46	12.385
471.66	12.595
471.86	12.975
472.06	13.230
472.26	14.255
472.46	13.351
472.66	14.382
472.86	12.462
473.06	13.276
473.26	13.515
473.46	13.532
473.66	13.227
473.86	14.250
474.06	12.673
474.26	13.878
474.46	12.716
474.66	13.997
474.86	14.435
475.06	14.677
475.26	12.983
475.46	14.248
475.66	13.321
475.86	14.757
476.06	14.492
476.26	15.545
476.46	14.692
476.66	15.052
476.86	14.342
477.06	14.881
477.26	14.228
477.46	14.845
477.65	14.191
477.85	15.256
478.05	13.712
478.25	14.858
478.45	14.467
478.65	15.163
478.85	14.124
479.05	15.627
479.25	15.363
479.45	14.635
479.65	14.480
479.85	15.575
480.05	14.888
480.25	15.367
480.45	14.523
480.65	15.442
480.85	14.566
481.05	15.589
481.25	14.667
481.44	14.994
481.64	14.436
481.84	15.448
482.04	14.684
482.24	14.779
482.44	14.630
482.64	13.480
482.84	13.595
483.04	13.093
483.24	13.128
483.44	12.560
483.64	12.021
483.84	11.559
484.04	11.650
484.23	11.694
484.43	11.860
484.63	12.498
484.83	12.899
485.03	13.352
485.23	13.627
485.43	13.539
485.63	13.682
485.83	13.195
486.03	12.568
486.23	13.296
486.42	13.515
486.62	13.316
486.82	13.056
487.02	13.223
487.22	13.043
487.42	12.617
487.62	12.557
487.82	12.297
488.02	12.668
488.22	12.425
488.41	12.173
488.61	12.205
488.81	12.359
489.01	12.563
489.21	12.817
489.41	12.721
489.61	13.246
489.81	13.008
490.01	13.613
490.20	13.633
490.40	14.027
490.60	13.881
490.80	13.663
491.00	13.345
491.20	13.207
491.40	12.885
491.60	12.925
491.79	12.458
491.99	12.814
492.19	12.363
492.39	12.531
492.59	12.757
492.79	12.452
492.99	12.587
493.19	12.986
493.38	12.722
493.58	13.673
493.78	13.779
493.98	14.482
494.18	14.635
494.38	14.495
494.58	14.744
494.77	14.212
494.97	15.289
495.17	14.363
495.37	15.093
495.57	14.817
495.77	15.448
495.96	15.190
496.16	15.524
496.36	14.547
496.56	14.502
496.76	14.050
496.96	14.251
497.15	14.215
497.35	14.661
497.55	14.224
497.75	14.156
497.95	14.165
498.15	14.924
498.34	13.713
498.54	13.952
498.74	14.845
498.94	14.660
499.14	14.204
499.34	14.772
499.53	14.258
499.73	14.879
499.93	14.437
500.13	14.536
500.33	14.666
500.52	14.960
500.72	14.741
500.92	14.685
501.12	14.553
501.32	14.850
501.52	14.616
501.71	15.042
501.91	14.543
502.11	15.634
502.31	14.700
502.51	15.803
502.70	14.639
502.90	15.240
503.10	14.522
503.30	15.677
503.50	14.505
503.69	14.504
503.89	14.654
504.09	14.821
504.29	14.114
504.48	14.401
504.68	15.349
504.88	14.685
505.08	14.345
505.28	14.855
505.47	14.474
505.67	14.684
505.87	14.561
506.07	14.945
506.27	15.146
506.46	14.985
506.66	14.531
506.86	15.402
507.06	14.927
507.25	14.957
507.45	14.570
507.65	15.412
507.85	14.260
508.04	15.623
508.24	14.809
508.44	14.949
508.64	14.031
508.83	13.921
509.03	13.962
509.23	13.904
509.43	13.820
509.63	14.549
509.82	14.067
510.02	14.513
510.22	14.444
510.42	14.104
510.61	13.874
510.81	14.024
511.01	14.122
511.21	14.908
511.40	13.776
511.60	14.105
511.80	14.121
511.99	14.304
512.19	13.906
512.39	13.935
512.59	13.986
512.78	14.821
512.98	14.446
513.18	14.610
513.38	14.404
513.57	14.585
513.77	13.992
513.97	14.605
514.17	14.819
514.36	14.224
514.56	13.790
514.76	14.695
514.95	14.275
515.15	14.869
515.35	14.345
515.55	14.063
515.74	15.279
515.94	15.367
516.14	14.269
516.33	14.843
516.53	14.911
516.73	14.468
516.93	14.286
517.12	14.532
517.32	13.905
517.52	14.400
517.71	13.899
517.91	13.924
518.11	13.434
518.30	13.760
518.50	12.842
518.70	13.114
518.90	13.021
519.09	13.397
519.29	13.061
519.49	13.692
519.68	13.082
519.88	13.503
520.08	13.708
520.27	13.390
520.47	13.869
520.67	13.640
520.86	14.240
521.06	13.640
521.26	13.531
521.45	14.278
521.65	14.029
521.85	14.815
522.04	13.944
522.24	14.160
522.44	14.156
522.63	14.651
522.83	14.085
523.03	14.453
523.22	13.502
523.42	14.227
523.62	14.330
523.81	14.585
524.01	14.581
524.21	13.693
524.40	14.443
524.60	13.667
524.80	13.561
524.99	12.992
525.19	13.346
525.39	13.125
525.58	13.333
525.78	12.768
525.98	12.996
526.17	12.895
526.37	12.803
526.57	13.011
526.76	13.050
526.96	12.698
527.15	12.579
527.35	12.982
527.55	12.660
527.74	12.754
527.94	12.368
528.14	12.122
528.33	11.934
528.53	11.929
528.72	12.389
528.92	11.818
529.12	11.889
529.31	11.875
529.51	12.395
529.71	12.303
529.90	12.457
530.10	12.606
530.29	12.811
530.49	12.766
530.69	13.319
530.88	13.104
531.08	12.977
531.28	13.253
531.47	13.139
531.67	12.885
531.86	13.518
532.06	12.904
532.26	13.121
532.45	13.207
532.65	13.288
532.84	12.693
533.04	12.317
533.24	12.300
533.43	12.639
533.63	12.055
533.82	12.798
534.02	12.465
534.22	12.832
534.41	12.431
534.61	12.568
534.80	12.508
535.00	13.057
535.19	13.205
535.39	13.335
535.59	13.793
535.78	13.192
535.98	12.832
536.17	13.404
536.37	12.808
536.57	13.079
536.76	13.360
536.96	13.039
537.15	13.485
537.35	13.143
537.54	13.234
537.74	13.436
537.93	13.344
538.13	13.406
538.33	13.408
538.52	13.850
538.72	13.746
538.91	14.329
539.11	13.982
539.30	13.559
539.50	13.521
539.70	14.192
539.89	13.975
540.09	13.768
540.28	13.515
540.48	12.859
540.67	13.180
540.87	13.074
541.06	13.013
541.26	12.526
541.45	12.999
541.65	13.021
541.85	12.964
542.04	12.922
542.24	13.010
542.43	13.332
542.63	12.827
542.82	13.318
543.02	13.425
543.21	13.693
543.41	13.709
543.60	13.824
543.80	13.817
543.99	14.319
544.19	13.423
544.38	13.810
544.58	13.694
544.77	13.717
544.97	14.297
545.16	13.933
545.36	14.083
545.56	14.012
545.75	13.924
545.95	14.440
546.14	14.218
546.34	13.828
546.53	14.249
546.73	13.492
546.92	14.265
547.12	13.824
547.31	14.274
547.51	14.086
547.70	14.332
547.90	14.186
548.09	14.376
548.29	14.241
548.48	15.158
548.68	14.411
548.87	14.777
549.07	14.999
549.26	15.460
549.46	15.046
549.65	15.278
549.84	15.350
550.04	15.233
550.23	14.123
550.43	15.475
550.62	14.716
550.82	15.416
551.01	14.842
551.21	15.652
551.40	14.658
551.60	14.706
551.79	14.160
551.99	15.548
552.18	14.651
552.38	16.160
552.57	15.631
552.77	15.449
552.96	15.156
553.16	15.910
553.35	14.356
553.54	16.150
553.74	15.583
553.93	15.757
554.13	15.570
554.32	15.176
554.52	16.215
554.71	15.911
554.91	15.715
555.10	16.946
555.29	15.901
555.49	17.008
555.68	15.845
555.88	16.025
556.07	14.638
556.27	15.851
556.46	16.090
556.66	16.466
556.85	16.446
557.04	17.022
557.24	15.913
557.43	16.479
557.63	16.522
557.82	16.703
558.02	16.212
558.21	17.231
558.40	16.344
558.60	17.751
558.79	16.410
558.99	18.937
559.18	15.926
559.38	17.578
559.57	17.176
559.76	17.624
559.96	17.713
560.15	17.715
560.35	17.138
560.54	16.795
560.73	16.219
560.93	17.693
561.12	17.480
561.32	17.546
561.51	17.648
561.70	18.465
561.90	18.445
562.09	18.496
562.29	17.882
562.48	17.942
562.67	17.364
562.87	19.102
563.06	17.746
563.26	19.086
563.45	18.034
563.64	18.652
563.84	18.830
564.03	19.694
564.23	17.145
564.42	19.098
564.61	18.432
564.81	18.982
565.00	19.794
565.20	19.503
565.39	18.998
565.58	18.603
565.78	18.681
565.97	19.496
566.16	19.415
566.36	18.877
566.55	19.127
566.74	19.225
566.94	20.063
567.13	19.315
567.33	19.632
567.52	19.322
567.71	20.156
567.91	20.535
568.10	20.576
568.29	20.712
568.49	20.305
568.68	19.968
568.87	20.421
569.07	20.925
569.26	20.309
569.45	20.937
569.65	20.128
569.84	20.923
570.04	20.151
570.23	20.219
570.42	19.791
570.62	20.804
570.81	20.450
571.00	20.358
571.20	20.660
571.39	21.404
571.58	20.405
571.78	21.084
571.97	20.529
572.16	20.542
572.36	21.082
572.55	21.214
572.74	20.380
572.94	21.079
573.13	20.797
573.32	21.097
573.51	21.807
573.71	21.311
573.90	21.961
574.09	21.129
574.29	21.588
574.48	21.002
574.67	21.155
574.87	22.131
575.06	22.053
575.25	21.531
575.45	21.539
575.64	20.174
575.83	21.088
576.03	22.491
576.22	21.490
576.41	21.211
576.60	21.061
576.80	21.847
576.99	22.273
577.18	21.559
577.38	22.086
577.57	21.935
577.76	21.765
577.95	21.555
578.15	21.963
578.34	22.506
578.53	21.633
578.73	21.279
578.92	21.542
579.11	22.001
579.30	22.260
579.50	21.234
579.69	21.433
579.88	21.789
580.08	22.244
580.27	21.671
580.46	22.153
580.65	22.276
580.85	22.778
581.04	21.717
581.23	21.904
581.42	21.078
581.62	21.972
581.81	21.908
582.00	21.490
582.19	21.139
582.39	21.412
582.58	21.516
582.77	20.728
582.96	21.565
583.16	22.120
583.35	22.286
583.54	21.219
583.73	22.281
583.93	21.571
584.12	21.827
584.31	21.267
584.50	21.569
584.70	21.460
584.89	21.198
585.08	21.617
585.27	22.335
585.47	20.166
585.66	22.097
585.85	20.499
586.04	22.858
586.24	21.826
586.43	20.820
586.62	21.187
586.81	22.251
587.00	21.084
587.20	21.638
587.39	20.636
587.58	21.319
587.77	20.454
587.97	21.333
588.16	21.714
588.35	21.113
588.54	20.630
588.73	20.941
588.93	20.942
589.12	21.550
589.31	21.166
589.50	21.783
589.69	21.192
589.89	20.641
590.08	20.686
590.27	22.027
590.46	20.754
590.65	21.958
590.85	20.970
591.04	21.606
591.23	20.895
591.42	22.329
591.61	19.846
591.81	22.145
592.00	21.265
592.19	22.140
592.38	20.997
592.57	21.961
592.77	22.133
592.96	20.738
593.15	22.066
593.34	21.683
593.53	20.655
593.72	21.590
593.92	20.406
594.11	21.452
594.30	21.077
594.49	21.611
594.68	21.462
594.87	21.302
595.07	20.631
595.26	21.902
595.45	21.294
595.64	21.858
595.83	21.674
596.02	21.799
596.22	21.321
596.41	21.484
596.60	22.176
596.79	21.108
596.98	21.886
597.17	20.735
597.37	22.065
597.56	22.140
597.75	22.012
597.94	21.557
598.13	22.518
598.32	22.058
598.51	22.217
598.71	23.719
598.90	21.877
599.09	22.804
599.28	21.694
599.47	22.812
599.66	22.937
599.85	22.913
600.05	21.243
600.24	23.702
600.43	22.406
600.62	22.756
600.81	22.671
601.00	23.437
601.19	22.673
601.38	22.632
601.58	21.567
601.77	22.328
601.96	22.124
602.15	23.641
602.34	22.346
602.53	23.790
602.72	23.680
602.91	22.473
603.10	21.562
603.30	22.418
603.49	22.783
603.68	22.476
603.87	22.666
604.06	22.365
604.25	21.721
604.44	22.366
604.63	23.020
604.82	22.576
605.01	21.968
605.21	22.578
605.40	22.273
605.59	23.200
605.78	23.069
605.97	23.009
606.16	23.237
606.35	22.964
606.54	22.948
606.73	24.479
606.92	23.515
607.11	22.983
607.30	23.450
607.50	22.723
607.69	22.208
607.88	22.695
608.07	23.196
608.26	23.756
608.45	23.106
608.64	23.008
608.83	22.467
609.02	22.260
609.21	21.580
609.40	22.097
609.59	22.311
609.78	23.139
609.97	21.020
610.16	21.821
610.35	22.147
610.55	22.270
610.74	22.126
610.93	22.165
611.12	22.699
611.31	22.431
611.50	22.515
611.69	22.696
611.88	22.951
612.07	23.377
612.26	22.011
612.45	22.511
612.64	20.260
612.83	22.558
613.02	21.111
613.21	20.807
613.40	21.973
613.59	23.143
613.78	21.307
613.97	22.142
614.16	21.106
614.35	21.289
614.54	18.950
614.73	20.571
614.92	20.028
615.11	21.293
615.30	19.846
615.49	20.441
615.68	21.197
615.87	20.912
616.07	18.267
616.26	19.915
616.45	22.008
616.64	22.250
616.83	19.933
617.02	19.898
617.21	18.095
617.40	20.324
617.59	20.468
617.78	18.776
617.97	19.232
618.16	19.197
618.35	17.214
618.54	19.967
618.73	19.707
618.92	20.328
619.11	18.221
619.30	21.227
619.49	18.640
619.68	19.955
619.86	18.042
620.05	19.560
620.24	17.578
620.43	19.336
620.62	19.014
620.81	21.150
621.00	19.752
621.19	19.667
621.38	18.415
621.57	20.359
621.76	18.419
621.95	19.539
622.14	18.164
622.33	18.967
622.52	18.211
622.71	19.819
622.90	16.288
623.09	20.212
623.28	17.719
623.47	19.019
623.66	18.634
623.85	19.511
624.04	18.402
624.23	18.686
624.42	18.023
624.61	17.845
624.80	17.079
624.99	18.460
625.18	16.888
625.36	20.155
625.55	17.849
625.74	18.605
625.93	18.969
626.12	18.540
626.31	18.847
626.50	20.092
626.69	17.940
626.88	19.662
627.07	19.397
627.26	19.279
627.45	18.417
627.64	18.937
627.83	18.762
628.02	20.564
628.20	17.925
628.39	19.220
628.58	17.987
628.77	19.096
628.96	18.627
629.15	18.894
629.34	17.620
629.53	18.654
629.72	16.979
629.91	18.554
630.10	17.779
630.29	18.521
630.47	18.061
630.66	18.454
630.85	17.113
631.04	18.333
631.23	18.857
631.42	18.529
631.61	17.778
631.80	18.768
631.99	16.594
632.18	18.352
632.36	17.193
632.55	20.666
632.74	17.511
632.93	17.667
633.12	17.808
633.31	18.827
633.50	17.244
633.69	17.170
633.88	16.168
634.06	18.381
634.25	17.814
634.44	18.347
634.63	16.914
634.82	18.089
635.01	17.401
635.20	18.262
635.39	17.497
635.57	17.439
635.76	17.344
635.95	18.401
636.14	15.741
636.33	18.488
636.52	16.989
636.71	16.663
636.89	17.563
637.08	17.415
637.27	16.467
637.46	17.069
637.65	17.310
637.84	18.337
638.03	15.695
638.21	17.737
638.40	17.183
638.59	17.301
638.78	16.210
638.97	17.122
639.16	17.665
639.34	16.562
639.53	13.579
639.72	18.244
639.91	15.560
640.10	15.598
640.29	15.930
640.47	18.186
640.66	17.315
640.85	18.730
641.04	14.137
641.23	16.920
641.42	16.124
641.60	16.214
641.79	16.100
641.98	16.865
642.17	15.059
642.36	17.797
642.54	14.615
642.73	18.163
642.92	14.678
643.11	16.800
643.30	12.310
643.49	17.011
643.67	14.763
643.86	15.831
644.05	13.564
644.24	16.408
644.43	15.715
644.61	15.205
644.80	16.024
644.99	15.820
645.18	17.687
645.37	15.709
645.55	13.465
645.74	16.268
645.93	15.982
646.12	15.868
646.31	15.564
646.49	16.040
646.68	15.172
646.87	15.897
647.06	14.756
647.24	16.101
647.43	13.779
647.62	16.969
647.81	12.942
648.00	19.029
648.18	13.323
648.37	16.400
648.56	15.004
648.75	14.588
648.93	15.685
649.12	16.231
649.31	14.978
649.50	15.707
649.68	14.286
649.87	15.997
650.06	13.545
650.25	17.365
650.43	13.581
650.62	13.901
650.81	15.149
651.00	15.544
651.18	14.628
651.37	17.732
651.56	15.668
651.75	16.240
651.93	12.851
652.12	16.901
652.31	13.259
652.50	14.970
652.68	15.908
652.87	15.920
653.06	16.689
653.25	15.358
653.43	14.327
653.62	16.707
653.81	14.354
654.00	16.957
654.18	15.476
654.37	17.330
654.56	13.280
654.74	13.172
654.93	13.350
655.12	14.693
655.31	15.409
655.49	15.962
655.68	13.045
655.87	13.167
656.05	10.548
656.24	14.120
656.43	11.360
656.62	13.443
656.80	14.598
656.99	12.744
657.18	11.981
657.36	13.386
657.55	12.957
657.74	13.302
657.93	12.587
658.11	13.454
658.30	14.321
658.49	12.776
658.67	13.991
658.86	12.378
659.05	12.264
659.23	14.125
659.42	10.928
659.61	12.382
659.79	11.906
659.98	12.861
660.17	12.745
660.35	13.452
660.54	13.570
660.73	16.516
660.91	12.954
661.10	13.634
661.29	10.908
661.47	11.467
661.66	11.066
661.85	12.664
662.03	12.227
662.22	9.744
662.41	9.767
662.59	12.836
662.78	9.183
662.97	10.540
663.15	10.247
663.34	10.499
663.53	10.157
663.71	11.701
663.90	10.416
664.09	10.771
664.27	11.909
664.46	10.087
664.65	9.397
664.83	10.733
665.02	6.782
665.21	10.797
665.39	8.328
665.58	10.187
665.77	9.202
665.95	9.641
666.14	10.057
666.32	8.961
666.51	8.809
666.70	7.466
666.88	7.942
667.07	8.398
667.26	7.209
667.44	9.535
667.63	9.516
667.81	8.631
668.00	9.342
668.19	10.689
668.37	8.605
668.56	11.010
668.75	8.171
668.93	12.308
669.12	8.270
669.30	10.813
669.49	7.993
669.68	10.712
669.86	11.057
670.05	8.050
670.23	7.967
670.42	8.901
670.61	10.913
670.79	10.658
670.98	9.539
671.16	12.238
671.35	7.653
671.54	10.357
671.72	9.674
671.91	10.150
672.09	9.152
672.28	11.395
672.46	11.662
672.65	11.364
672.84	11.412
673.02	11.325
673.21	9.625
673.39	9.583
673.58	10.617
673.77	9.326
673.95	9.450
674.14	11.416
674.32	10.882
674.51	12.309
674.69	7.388
674.88	11.436
675.07	8.579
675.25	15.068
675.44	9.412
675.62	10.162
675.81	9.548
675.99	16.413
676.18	11.555
676.36	10.000
676.55	9.868
676.74	11.672
676.92	13.588
677.11	9.588
677.29	9.484
677.48	14.767
677.66	12.710
677.85	9.549
678.03	10.865
678.22	13.318
678.40	10.035
678.59	10.020
678.78	10.055
678.96	11.948
679.15	10.167
679.33	12.042
679.52	12.404
679.70	12.399
679.89	11.638
680.07	12.230
680.26	9.734
680.44	12.173
680.63	12.241
680.81	12.892
681.00	10.779
681.18	12.455
681.37	10.295
681.55	14.526
681.74	13.499
681.92	13.646
682.11	12.191
682.29	9.855
682.48	11.094
682.66	11.733
682.85	13.529
683.03	13.290
683.22	12.769
683.40	14.528
683.59	11.995
683.77	12.717
683.96	11.957
684.14	14.765
684.33	11.746
684.51	16.700
684.70	13.029
684.88	16.943
685.07	12.874
685.25	15.989
685.44	13.601
685.62	13.744
685.81	12.164
685.99	17.098
686.18	14.442
686.36	14.982
686.55	11.463
686.73	15.461
686.92	15.915
687.10	16.557
687.29	16.229
687.47	18.361
687.65	18.536
687.84	14.029
688.02	17.756
688.21	19.908
688.39	14.599
688.58	18.766
688.76	17.262
688.95	17.871
689.13	13.810
689.32	20.347
689.50	16.221
689.68	19.341
689.87	16.781
690.05	19.581
690.24	19.673
690.42	22.365
690.61	19.551
690.79	21.090
690.98	20.706
691.16	21.444
691.34	15.876
691.53	20.749
691.71	18.620
691.90	19.394
692.08	18.291
692.27	22.949
692.45	22.069
692.63	22.304
692.82	24.556
693.00	23.485
693.19	18.647
693.37	25.612
693.56	22.960
693.74	27.336
693.92	21.752
694.11	23.718
694.29	23.832
694.48	26.954
694.66	23.444
694.84	28.715
695.03	25.000
695.21	28.320
695.40	27.976
695.58	29.710
695.76	26.913
695.95	31.729
696.13	26.717
696.32	30.500
696.50	33.389
696.68	31.350
696.87	29.433
697.05	32.344
697.24	31.213
697.42	36.039
697.60	29.057
697.79	33.929
697.97	34.428
698.16	32.396
698.34	30.767
698.52	36.045
698.71	33.730
698.89	35.911
699.07	34.243
699.26	35.979
699.44	35.625
699.63	35.495
699.81	36.000
699.99	36.801
700.18	36.590
700.36	37.054
700.54	36.188
700.73	37.496
700.91	36.616
701.09	36.832
701.28	35.493
701.46	37.291
701.64	36.734
701.83	38.129
702.01	34.368
702.20	41.094
702.38	36.739
702.56	39.976
702.75	37.981
702.93	40.516
703.11	40.706
703.30	40.446
703.48	40.172
703.66	42.986
703.85	41.447
704.03	43.980
704.21	41.601
704.40	45.490
704.58	40.771
704.76	43.928
704.95	40.039
705.13	42.691
705.31	42.546
705.50	42.118
705.68	42.384
705.86	47.097
706.04	42.289
706.23	47.663
706.41	44.526
706.59	44.266
706.78	40.942
706.96	43.387
707.14	43.624
707.33	44.418
707.51	45.050
707.69	44.988
707.88	45.632
708.06	44.720
708.24	42.297
708.42	46.663
708.61	43.926
708.79	47.737
708.97	48.410
709.16	48.279
709.34	47.330
709.52	47.731
709.71	47.704
709.89	45.849
710.07	44.545
710.25	46.982
710.44	42.520
710.62	47.005
710.80	47.653
710.98	46.085
711.17	45.046
711.35	44.420
711.53	44.609
711.72	49.867
711.90	48.993
712.08	50.395
712.26	48.056
712.45	46.552
712.63	45.807
712.81	48.570
712.99	48.871
713.18	47.790
713.36	49.056
713.54	44.110
713.72	44.768
713.91	46.468
714.09	46.111
714.27	47.996
714.45	47.729
714.64	49.453
714.82	47.383
715.00	45.736
715.18	46.477
715.37	50.091
715.55	46.912
715.73	49.491
715.91	47.163
716.10	46.370
716.28	42.412
716.46	48.745
716.64	48.883
716.83	45.307
717.01	47.166
717.19	47.297
717.37	48.290
717.55	44.966
717.74	47.288
717.92	47.118
718.10	42.658
718.28	48.894
718.47	49.033
718.65	47.499
718.83	50.026
719.01	50.673
719.19	48.722
719.38	48.037
719.56	44.849
719.74	46.697
719.92	40.718
720.10	46.132
720.29	47.826
720.47	50.118
720.65	50.060
720.83	50.901
721.01	43.724
721.20	50.860
721.38	47.813
721.56	48.705
721.74	50.889
721.92	49.875
722.11	45.855
722.29	47.274
722.47	48.950
722.65	48.818
722.83	49.102
723.01	53.153
723.20	51.413
723.38	50.250
723.56	46.187
723.74	53.654
723.92	49.259
724.10	46.009
724.29	44.571
724.47	53.499
724.65	46.332
724.83	51.567
725.01	43.882
725.19	53.173
725.38	49.217
725.56	51.946
725.74	48.506
725.92	52.522
726.10	47.201
726.28	53.543
726.46	48.784
726.65	50.156
726.83	48.740
727.01	50.489
727.19	47.402
727.37	53.895
727.55	52.681
727.73	50.181
727.92	49.519
728.10	51.523
728.28	46.180
728.46	52.542
728.64	51.515
728.82	51.365
729.00	49.126
729.19	49.064
729.37	49.477
729.55	51.140
729.73	50.649
729.91	47.633
730.09	49.797
730.27	51.227
730.45	51.613
730.63	49.513
730.82	47.531
731.00	56.177
731.18	48.155
731.36	52.986
731.54	49.147
731.72	54.345
731.90	49.572
732.08	54.445
732.26	49.304
732.45	55.416
732.63	49.746
732.81	52.778
732.99	50.465
733.17	50.943
733.35	48.079
733.53	53.724
733.71	52.112
733.89	52.015
734.07	48.391
734.25	53.004
734.44	51.445
734.62	52.522
734.80	50.355
734.98	57.230
735.16	51.260
735.34	53.065
735.52	55.591
735.70	52.816
735.88	50.196
736.06	55.488
736.24	53.535
736.42	53.212
736.60	54.326
736.78	56.751
736.97	52.509
737.15	54.462
737.33	53.886
737.51	55.286
737.69	58.138
737.87	52.470
738.05	54.013
738.23	55.007
738.41	51.504
738.59	53.456
738.77	52.818
738.95	54.938
739.13	55.831
739.31	51.150
739.49	54.028
739.67	55.293
739.85	50.832
740.03	59.649
740.21	51.204
740.39	56.580
740.57	56.366
740.75	58.158
740.93	49.494
741.11	55.314
741.30	55.275
741.48	59.025
741.66	60.662
741.84	53.828
742.02	51.583
742.20	56.753
742.38	53.487
742.56	60.366
742.74	56.444
742.92	56.016
743.10	49.528
743.28	58.606
743.46	58.537
743.64	53.915
743.82	57.881
744.00	60.514
744.18	60.258
744.36	57.960
744.54	59.436
744.72	60.238
744.90	60.112
745.08	59.278
745.26	55.877
745.44	54.091
745.62	50.864
745.80	56.493
745.98	56.572
746.16	58.371
746.34	55.091
746.52	62.738
746.70	57.016
746.87	60.799
747.05	59.003
747.23	56.211
747.41	57.169
747.59	57.229
747.77	54.938
747.95	61.047
748.13	52.095
748.31	60.967
748.49	55.484
748.67	63.506
748.85	57.028
749.03	64.247
749.21	58.056
749.39	60.753
749.57	54.098
749.75	58.095
749.93	53.820
750.11	55.399
750.29	56.530
750.47	59.604
750.65	60.486
750.83	62.776
751.01	53.209
751.18	54.606
751.36	59.945
751.54	56.362
751.72	61.446
751.90	53.833
752.08	52.834
752.26	52.452
752.44	57.593
752.62	54.887
752.80	53.737
752.98	58.412
753.16	57.336
753.34	55.356
753.52	61.443
753.69	55.362
753.87	53.960
754.05	58.186
754.23	57.919
754.41	54.306
754.59	53.942
754.77	55.575
754.95	55.459
755.13	54.522
755.31	57.540
755.49	58.767
755.66	50.575
755.84	52.757
756.02	54.461
756.20	61.276
756.38	53.902
756.56	55.004
756.74	56.757
756.92	59.346
757.10	58.571
757.28	57.810
757.45	59.543
757.63	60.708
757.81	50.771
757.99	61.574
758.17	52.186
758.35	58.285
758.53	60.456
758.71	59.410
758.88	50.658
759.06	56.227
759.24	51.667
759.42	51.515
759.60	50.187
759.78	48.532
759.96	43.849
760.13	48.538
760.31	46.181
760.49	46.744
760.67	42.452
760.85	46.610
761.03	39.576
761.21	40.391
761.38	39.713
761.56	36.751
761.74	35.259
761.92	45.316
762.10	36.395
762.28	39.007
762.46	39.933
762.63	41.303
762.81	40.347
762.99	41.705
763.17	39.531
763.35	36.598
763.53	39.769
763.70	42.083
763.88	43.449
764.06	45.460
764.24	37.692
764.42	42.100
764.60	40.884
764.77	43.262
764.95	40.675
765.13	44.101
765.31	44.824
765.49	44.761
765.66	44.691
765.84	46.365
766.02	41.391
766.20	47.454
766.38	48.607
766.56	50.942
766.73	45.744
766.91	50.160
767.09	52.922
767.27	52.013
767.45	46.988
767.62	46.626
767.80	55.095
767.98	55.354
768.16	50.599
768.33	58.491
768.51	54.510
768.69	58.700
768.87	52.103
769.05	53.467
769.22	54.237
769.40	56.486
769.58	52.681
769.76	54.509
769.94	58.916
770.11	55.724
770.29	55.556
770.47	57.335
770.65	55.017
770.82	59.953
771.00	57.259
771.18	57.709
771.36	52.360
771.53	63.793
771.71	61.669
771.89	58.852
772.07	59.703
772.25	57.728
772.42	62.854
772.60	61.583
772.78	61.057
772.96	65.580
773.13	65.146
773.31	60.947
773.49	59.176
773.67	57.319
773.84	58.924
774.02	60.252
774.20	53.004
774.37	62.601
774.55	59.645
774.73	64.537
774.91	54.890
775.08	59.621
775.26	61.612
775.44	58.344
775.62	58.407
775.79	65.435
775.97	55.811
776.15	55.040
776.32	54.899
776.50	68.919
776.68	67.953
776.86	65.000
777.03	53.691
777.21	57.697
777.39	60.526
777.56	68.560
777.74	59.546
777.92	59.697
778.10	60.198
778.27	63.158
778.45	60.864
778.63	59.583
778.80	56.467
778.98	68.029
779.16	69.883
779.34	64.755
779.51	56.834
779.69	70.350
779.87	61.687
780.04	55.177
780.22	54.494
780.40	60.345
780.57	55.274
780.75	57.493
780.93	62.131
781.10	57.380
781.28	59.973
781.46	53.215
781.63	60.352
781.81	62.355
781.99	60.990
782.16	52.339
782.34	56.662
782.52	65.630
782.69	56.625
782.87	59.791
783.05	50.714
783.22	61.270
783.40	59.752
783.58	58.146
783.75	59.885
783.93	69.652
784.11	60.000
784.28	66.667
784.46	55.712
784.64	60.945
784.81	60.417
784.99	65.087
785.17	65.574
785.34	63.487
785.52	55.122
785.69	62.053
785.87	59.191
786.05	65.128
786.22	49.134
786.40	63.158
786.58	61.783
786.75	55.591
786.93	49.051
787.11	55.859
787.28	53.834
787.46	64.821
787.63	64.957
787.81	56.773
787.99	58.143
788.16	51.551
788.34	53.846
788.51	55.081
788.69	54.425
788.87	53.453
789.04	47.899
789.22	56.016
789.39	51.852
789.57	45.703
789.75	56.110
789.92	56.698
790.10	46.438
790.27	59.291
790.45	52.916
790.63	48.301
790.80	49.046
790.98	60.725
791.15	52.108
791.33	60.766
791.51	50.375
791.68	61.965
791.86	53.477
792.03	51.000
792.21	55.574
792.39	61.830
792.56	51.587
792.74	55.280
792.91	63.102
793.09	51.821
793.26	62.676
793.44	60.206
793.62	54.286
793.79	56.792
793.97	62.029
794.14	56.379
794.32	61.049
794.49	67.159
794.67	54.856
794.84	62.390
795.02	55.196
795.20	67.647
795.37	53.266
795.55	54.755
795.72	59.717
795.90	57.119
796.07	55.000
796.25	60.368
796.42	51.826
796.60	52.310
796.77	53.566
796.95	53.589
797.13	51.618
797.30	54.908
797.48	49.555
797.65	49.525
797.83	45.549
798.00	58.252
798.18	48.442
798.35	61.891
798.53	49.333
798.70	57.557
798.88	48.495
799.05	52.804
799.23	49.534
799.40	63.854
799.58	53.780
799.75	60.131
799.93	44.845
800.10	58.779
800.28	62.597
800.45	59.246
800.63	57.554
800.80	59.690
800.98	54.275
801.15	60.708
801.33	53.086
801.50	53.195
801.68	55.106
801.85	48.199
802.03	47.987
802.20	54.494
802.38	48.233
802.55	58.462
802.73	54.435
802.90	63.451
803.08	43.060
803.25	59.808
803.43	55.376
803.60	53.734
803.78	61.017
803.95	55.488
804.13	59.343
804.30	59.332
804.48	55.635
804.65	56.102
804.83	51.771
805.00	52.414
805.17	57.476
805.35	56.439
805.52	53.920
805.70	61.887
805.87	53.235
806.05	53.927
806.22	50.743
806.40	50.289
806.57	50.562
806.75	53.028
806.92	53.509
807.09	69.450
807.27	56.326
807.44	61.069
807.62	55.145
807.79	54.821
807.97	58.970
808.14	55.000
808.31	56.584
808.49	49.130
808.66	51.445
808.84	57.946
809.01	63.057
809.19	71.193
809.36	65.173
809.53	50.198
809.71	54.440
809.88	65.410
810.06	59.843
810.23	63.200
810.41	55.809
810.58	61.099
810.75	55.579
810.93	63.314
811.10	42.316
811.28	58.613
811.45	45.702
811.62	49.663
811.80	61.277
811.97	56.494
812.15	65.286
812.32	52.586
812.49	62.963
812.67	54.894
812.84	50.110
813.02	57.623
813.19	54.628
813.36	57.701
813.54	57.301
813.71	54.091
813.89	54.626
814.06	71.164
814.23	58.028
814.41	56.265
814.58	53.846
814.75	66.093
814.93	66.905
815.10	59.744
815.28	59.804
815.45	49.754
815.62	57.074
815.80	50.346
815.97	44.099
816.14	55.391
816.32	58.191
816.49	58.421
816.66	52.250
816.84	50.785
817.01	67.028
817.18	44.755
817.36	53.089
817.53	66.915
817.71	42.333
817.88	52.045
818.05	53.691
818.23	51.429
818.40	53.774
818.57	53.419
818.75	46.172
818.92	55.388
819.09	55.512
819.27	46.471
819.44	44.135
819.61	46.679
819.79	46.708
819.96	54.653
820.13	46.632
820.31	45.565
820.48	50.955
820.65	51.602
820.82	45.024
821.00	44.234
821.17	37.768
821.34	43.348
821.52	38.826
821.69	34.230
821.86	40.836
822.04	44.310
822.21	39.564
822.38	42.412
822.56	37.487
822.73	40.854
822.90	39.089
823.07	43.572
823.25	38.639
823.42	39.635
823.59	38.593
823.77	42.277
823.94	39.649
824.11	39.942
824.29	39.179
824.46	42.591
824.63	44.032
824.80	39.921
824.98	36.878
825.15	44.304
825.32	33.386
825.49	45.020
825.67	34.997
825.84	40.755
826.01	37.079
826.19	42.400
826.36	36.385
826.53	41.463
826.70	38.040
826.88	39.425
827.05	33.002
827.22	38.697
827.39	36.477
827.57	38.905
827.74	35.397
827.91	40.381
828.08	36.130
828.26	39.704
828.43	37.785
828.60	44.019
828.77	36.351
828.95	41.959
829.12	34.943
829.29	32.413
829.46	36.866
829.64	40.530
829.81	28.409
829.98	37.540
830.15	40.000
830.32	36.192
830.50	41.789
830.67	46.787
830.84	38.209
831.01	33.856
831.19	45.455
831.36	49.593
831.53	42.659
831.70	63.148
831.87	49.793
832.05	58.218
832.22	56.726
832.39	45.652
832.56	44.784
832.74	52.902
832.91	50.000
833.08	56.275
833.25	37.610
833.42	46.287
833.60	43.627
833.77	36.601
833.94	34.239
834.11	36.485
834.28	35.967
834.45	35.537
834.63	34.280
834.80	34.607
834.97	36.751
835.14	39.479
835.31	35.300
835.49	38.826
835.66	31.481
835.83	40.151
836.00	36.170
836.17	42.497
836.34	32.692
836.52	39.868
836.69	46.043
836.86	47.031
837.03	45.868
837.20	45.513
837.37	41.865
837.55	51.327
837.72	52.601
837.89	48.092
838.06	44.952
838.23	52.392
838.40	62.411
838.58	52.000
838.75	47.863
838.92	52.759
839.09	64.815
839.26	64.171
839.43	63.112
839.60	64.214
839.78	85.494
839.95	65.472
840.12	64.873
840.29	69.108
840.46	68.531
840.63	68.824
840.80	58.933
840.98	79.143
841.15	57.000
841.32	54.333
841.49	51.304
841.66	69.672
841.83	48.800
842.00	63.924
842.17	73.425
842.34	46.418
842.52	69.760
842.69	75.786
842.86	69.550
843.03	94.340
843.20	104.898
843.37	84.266
843.54	82.520
843.71	66.531
843.88	82.781
844.06	100.810
844.23	115.942
844.40	75.758
844.57	82.553
844.74	83.406
844.91	110.648
845.08	98.431
845.25	93.796
845.42	79.899
845.59	110.526
845.76	78.182
845.94	130.380
846.11	100.995
846.28	138.621
846.45	94.479
846.62	98.378
846.79	117.778
846.96	72.851
847.13	107.059
847.30	108.586
847.47	96.154
847.64	101.163
847.81	98.901
847.98	86.486
848.15	103.226
848.32	96.907
848.50	134.161
848.67	153.472
848.84	120.202
849.01	120.408
849.18	114.737
849.35	97.382
849.52	113.295
849.69	102.312
849.86	125.153
850.03	121.918
850.20	122.222
850.37	84.286
850.54	107.547
850.71	127.642
850.88	111.189
851.05	147.945
851.22	121.118
851.39	111.340
851.56	128.472
851.73	121.111
851.90	108.750
852.07	97.059
852.24	137.500
852.41	143.796
852.58	138.636
852.75	113.609
852.92	113.587
853.09	91.620
853.26	122.930
853.43	82.273
853.60	123.196
853.77	117.021
853.94	101.515
854.11	164.957
854.28	134.043
854.45	123.077
854.62	120.805
854.79	105.385
854.96	103.623
855.13	91.111
855.30	100.518
855.47	144.138
855.64	135.135
855.81	124.603
855.98	134.000
856.15	104.138
856.32	100.469
856.49	101.826
856.66	106.977
856.83	119.372
857.00	150.820
857.17	166.667
857.34	114.394
857.51	100.641
857.68	142.857
857.85	107.273
858.02	212.162
858.19	132.857
858.36	112.000
858.53	122.286
858.70	92.715
858.87	157.931
859.04	115.493
859.21	109.565
859.38	106.623
859.55	172.222
859.72	143.802
859.89	177.451
860.05	113.953
860.22	125.658
860.39	148.598
860.56	180.734
860.73	113.855
860.90	111.333
861.07	122.404
861.24	113.675
861.41	135.000
861.58	109.852
861.75	143.519
861.92	134.646
862.09	130.723
862.26	181.915
862.43	96.992
862.59	86.667
862.76	111.565
862.93	133.540
863.10	117.241
863.27	105.405
863.44	110.526
863.61	116.471
863.78	130.986
863.95	163.359
864.12	97.917
864.29	116.279
864.45	152.055
864.62	132.331
864.79	102.027
864.96	141.270
865.13	160.305
865.30	141.818
865.47	145.370
865.64	115.000
865.81	87.037
865.97	105.464
866.14	115.238
866.31	129.268
866.48	124.031
866.65	165.000
866.82	115.436
866.99	196.117
867.16	167.143
867.33	152.991
867.49	154.745
867.66	102.427
867.83	100.800
868.00	120.567
868.17	157.576
868.34	140.411
868.51	106.338
868.67	154.545
868.84	138.095
869.01	122.835
869.18	110.078
869.35	150.000
869.52	114.384
869.69	137.405
869.85	98.396
870.02	105.607
870.19	159.664
870.36	114.966
870.53	91.477
870.70	101.744
870.86	130.189
871.03	159.664
871.20	98.675
871.37	100.000
871.54	117.931
871.71	93.827
871.87	127.397
872.04	100.000
872.21	213.978
872.38	90.184
872.55	138.028
872.72	85.116
872.88	99.408
873.05	101.648
873.22	108.333
873.39	128.049
873.56	119.075
873.72	169.403
873.89	86.957
874.06	130.921
874.23	144.068
874.40	103.497
874.56	206.604
874.73	117.935
874.90	133.333
875.07	130.556
875.24	95.376
875.40	110.968
875.57	101.724
875.74	122.667
875.91	120.661
876.08	119.697
876.24	141.558
876.41	130.233
876.58	123.602
876.75	113.690
876.92	103.540
877.08	150.893
877.25	103.165
877.42	121.481
877.59	94.406
877.75	118.121
877.92	108.800
878.09	115.038
878.26	116.234
878.42	132.609
878.59	132.353
878.76	112.179
878.93	130.994
879.09	105.851
879.26	88.108
879.43	94.118
879.60	94.444
879.76	101.961
879.93	136.709
880.10	100.617
880.27	86.239
880.43	87.805
880.60	59.361
880.77	80.952
880.94	51.636
881.10	75.794
881.27	48.533
881.44	42.725
881.61	51.092
881.77	40.079
881.94	29.949
882.11	24.922
882.28	24.861
882.44	31.731
882.61	30.620
882.78	32.244
882.94	36.048
883.11	30.076
883.28	31.276
883.45	31.023
883.61	30.240
883.78	28.465
883.95	34.860
884.11	34.816
884.28	34.798
>>>>>End Processed Spectral Data<<<<<
