SpectraSuite Data File
++++++++++++++++++++++++++++++++++++
Date: Fri Sep 20 03:41:52 EST 2019
User: sgrac
Dark Spectrum Present: Yes
Reference Spectrum Present: Yes
Number of Sampled Component Spectra: 1
Spectrometers: USB4E01596
Integration Time (usec): 100000 (USB4E01596)
Spectra Averaged: 1 (USB4E01596)
Boxcar Smoothing: 0 (USB4E01596)
Correct for Electrical Dark: No (USB4E01596)
Strobe/Lamp Enabled: Yes (USB4E01596)
Correct for Detector Non-linearity: No (USB4E01596)
Correct for Stray Light: No (USB4E01596)
Number of Pixels in Processed Spectrum: 3648
>>>>>Begin Processed Spectral Data<<<<<
178.44	591.304
178.66	591.304
178.87	591.304
179.09	-480.000
179.30	376.667
179.52	642.857
179.74	3220.000
179.95	-411.429
180.17	-893.750
180.38	-1031.250
180.60	-438.710
180.82	726.087
181.03	-3425.000
181.25	-1300.000
181.46	-1509.091
181.68	0.000
181.89	17900.000
182.11	1925.000
182.33	1315.385
182.54	-454.286
182.76	326.000
182.97	470.370
183.19	1422.222
183.40	-906.250
183.62	1014.286
183.84	-310.000
184.05	0.000
184.27	12600.000
184.48	775.000
184.70	8350.000
184.91	1184.615
185.13	352.273
185.34	309.259
185.56	-623.810
185.78	626.316
185.99	-8750.000
186.21	507.143
186.42	1083.333
186.64	219.403
186.85	248.148
187.07	779.167
187.28	-264.865
187.50	-550.000
187.72	346.875
187.93	18000.000
188.15	763.636
188.36	371.154
188.58	876.471
188.79	7300.000
189.01	597.059
189.22	1233.333
189.44	451.064
189.65	-990.000
189.87	757.143
190.09	577.778
190.30	-4240.000
190.52	456.098
190.73	659.259
190.95	-1084.615
191.16	-1100.000
191.38	-808.696
191.59	2233.333
191.81	365.000
192.02	432.500
192.24	266.667
192.45	408.571
192.67	681.818
192.88	0.000
193.10	570.588
193.31	-1400.000
193.53	368.182
193.74	368.421
193.96	2150.000
194.18	307.246
194.39	394.000
194.61	466.667
194.82	534.483
195.04	1358.333
195.25	327.660
195.47	952.632
195.68	-1620.000
195.90	3900.000
196.11	3925.000
196.33	-525.926
196.54	637.931
196.76	293.333
196.97	866.667
197.19	-922.222
197.40	461.111
197.62	-985.714
197.83	926.667
198.05	439.474
198.26	763.636
198.48	1258.333
198.69	480.000
198.91	2214.286
199.12	412.500
199.34	310.769
199.55	-1200.000
199.77	825.000
199.98	2840.000
200.20	1218.182
200.41	421.212
200.63	-2540.000
200.84	531.707
201.06	-14700.000
201.27	982.353
201.49	368.852
201.70	994.118
201.91	943.750
202.13	950.000
202.34	4275.000
202.56	2285.714
202.77	-2550.000
202.99	733.333
203.20	638.095
203.42	-403.571
203.63	612.903
203.85	-587.500
204.06	3933.333
204.28	-3525.000
204.49	2028.571
204.71	418.750
204.92	1477.778
205.14	0.000
205.35	866.667
205.56	575.000
205.78	574.359
205.99	424.324
206.21	496.552
206.42	3433.333
206.64	-331.707
206.85	853.333
207.07	1061.538
207.28	623.333
207.50	-2187.500
207.71	358.140
207.93	8450.000
208.14	-294.595
208.35	562.069
208.57	-881.250
208.78	586.207
209.00	371.053
209.21	0.000
209.43	643.478
209.64	437.209
209.86	2371.429
210.07	1654.545
210.28	696.429
210.50	3380.000
210.71	338.462
210.93	460.526
211.14	316.393
211.36	454.286
211.57	2250.000
211.78	-750.000
212.00	526.923
212.21	-742.105
212.43	480.645
212.64	419.048
212.86	557.143
213.07	714.286
213.29	253.947
213.50	-408.824
213.71	-14800.000
213.93	-2188.889
214.14	1026.667
214.36	-2442.857
214.57	193.023
214.78	442.857
215.00	-4733.333
215.21	-2516.667
215.43	-490.909
215.64	918.750
215.86	-3975.000
216.07	761.905
216.28	319.355
216.50	344.681
216.71	-2980.000
216.93	1221.429
217.14	394.444
217.35	243.421
217.57	-620.000
217.78	1254.545
218.00	409.091
218.21	268.852
218.42	404.082
218.64	437.778
218.85	348.276
219.07	366.000
219.28	785.714
219.49	-1090.909
219.71	442.857
219.92	2150.000
220.14	5866.667
220.35	4500.000
220.56	1146.667
220.78	258.730
220.99	2166.667
221.21	483.784
221.42	544.444
221.63	527.778
221.85	14600.000
222.06	455.172
222.28	575.000
222.49	15800.000
222.70	-4100.000
222.92	255.357
223.13	192.754
223.34	292.727
223.56	294.595
223.77	1193.750
223.99	239.744
224.20	161.261
224.41	397.674
224.63	458.824
224.84	592.000
225.05	318.750
225.27	316.667
225.48	240.506
225.69	343.182
225.91	223.377
226.12	295.161
226.34	286.957
226.55	185.938
226.76	216.418
226.98	164.035
227.19	333.333
227.40	128.571
227.62	163.514
227.83	150.526
228.04	212.963
228.26	132.407
228.47	135.417
228.69	52.198
228.90	79.213
229.11	57.854
229.33	63.525
229.54	72.245
229.75	55.894
229.97	41.216
230.18	55.707
230.39	39.118
230.61	41.304
230.82	57.190
231.03	36.815
231.25	46.221
231.46	57.460
231.67	53.243
231.89	67.279
232.10	62.977
232.31	61.860
232.53	72.201
232.74	63.115
232.95	70.352
233.17	67.262
233.38	79.167
233.59	76.471
233.81	85.841
234.02	63.547
234.23	85.484
234.45	117.219
234.66	68.812
234.87	86.628
235.09	81.333
235.30	85.161
235.51	69.828
235.73	65.104
235.94	67.025
236.15	63.060
236.36	78.903
236.58	64.854
236.79	76.834
237.00	56.225
237.22	56.897
237.43	67.407
237.64	71.364
237.86	80.392
238.07	74.104
238.28	65.741
238.50	55.785
238.71	56.738
238.92	65.809
239.13	64.286
239.35	55.300
239.56	63.470
239.77	91.700
239.99	54.297
240.20	64.748
240.41	54.232
240.63	52.923
240.84	60.063
241.05	43.590
241.26	55.523
241.48	43.325
241.69	38.600
241.90	44.615
242.12	31.992
242.33	26.046
242.54	26.307
242.75	26.877
242.97	22.792
243.18	18.974
243.39	19.767
243.61	24.942
243.82	21.966
244.03	16.988
244.24	17.689
244.46	24.835
244.67	24.000
244.88	20.312
245.09	20.113
245.31	26.325
245.52	28.231
245.73	31.774
245.95	48.876
246.16	34.507
246.37	26.342
246.58	23.810
246.80	22.621
247.01	20.143
247.22	15.385
247.43	15.426
247.65	17.966
247.86	16.966
248.07	9.915
248.28	12.250
248.50	11.871
248.71	11.460
248.92	10.621
249.13	12.508
249.35	10.991
249.56	13.665
249.77	19.001
249.98	14.991
250.20	20.647
250.41	19.512
250.62	19.783
250.83	23.990
251.05	23.421
251.26	19.937
251.47	25.852
251.68	26.133
251.90	30.878
252.11	23.810
252.32	28.006
252.53	24.845
252.75	16.356
252.96	23.858
253.17	19.053
253.38	19.359
253.59	20.779
253.81	18.379
254.02	22.894
254.23	17.337
254.44	23.380
254.66	27.247
254.87	20.607
255.08	27.229
255.29	37.702
255.50	36.081
255.72	36.072
255.93	31.095
256.14	38.298
256.35	34.491
256.57	32.169
256.78	36.117
256.99	28.605
257.20	33.814
257.41	33.333
257.63	31.810
257.84	24.682
258.05	29.048
258.26	15.110
258.47	26.006
258.69	27.878
258.90	20.304
259.11	20.764
259.32	21.703
259.53	15.226
259.75	13.293
259.96	13.955
260.17	9.794
260.38	11.140
260.59	8.358
260.81	7.151
261.02	8.948
261.23	8.981
261.44	10.232
261.65	10.642
261.87	9.322
262.08	11.046
262.29	12.493
262.50	11.644
262.71	8.239
262.92	10.917
263.14	15.726
263.35	16.156
263.56	15.774
263.77	17.442
263.98	24.461
264.20	15.821
264.41	17.681
264.62	17.669
264.83	13.972
265.04	26.000
265.25	22.665
265.47	23.234
265.68	22.487
265.89	24.422
266.10	14.449
266.31	19.441
266.52	17.792
266.74	13.882
266.95	19.891
267.16	16.282
267.37	16.064
267.58	21.881
267.79	16.091
268.01	15.227
268.22	15.642
268.43	15.146
268.64	12.880
268.85	19.623
269.06	16.737
269.27	16.442
269.49	14.968
269.70	15.013
269.91	16.697
270.12	12.155
270.33	16.073
270.54	19.487
270.75	14.825
270.97	12.672
271.18	19.472
271.39	16.030
271.60	16.060
271.81	15.030
272.02	15.978
272.23	13.682
272.45	12.574
272.66	11.465
272.87	16.887
273.08	9.627
273.29	12.854
273.50	9.694
273.71	11.629
273.92	8.882
274.14	13.003
274.35	12.943
274.56	14.315
274.77	12.858
274.98	12.645
275.19	12.436
275.40	10.893
275.61	11.404
275.83	17.273
276.04	11.715
276.25	14.588
276.46	13.943
276.67	19.620
276.88	14.908
277.09	14.983
277.30	16.516
277.51	14.494
277.73	13.598
277.94	17.573
278.15	11.750
278.36	16.638
278.57	14.716
278.78	12.204
278.99	9.155
279.20	13.249
279.41	19.949
279.62	15.463
279.84	12.973
280.05	14.349
280.26	15.881
280.47	14.110
280.68	14.921
280.89	14.263
281.10	14.730
281.31	14.141
281.52	15.529
281.73	11.953
281.94	9.016
282.16	13.063
282.37	14.967
282.58	9.898
282.79	14.416
283.00	13.406
283.21	8.518
283.42	12.127
283.63	12.484
283.84	10.212
284.05	10.329
284.26	11.549
284.47	10.317
284.68	11.313
284.89	9.759
285.11	10.636
285.32	9.857
285.53	11.145
285.74	12.347
285.95	13.341
286.16	9.314
286.37	9.952
286.58	9.105
286.79	9.452
287.00	9.314
287.21	10.465
287.42	7.661
287.63	7.125
287.84	8.912
288.05	9.534
288.26	8.644
288.48	12.395
288.69	9.576
288.90	9.080
289.11	13.512
289.32	8.989
289.53	11.014
289.74	12.378
289.95	8.753
290.16	14.672
290.37	9.553
290.58	8.969
290.79	9.559
291.00	11.678
291.21	12.721
291.42	9.288
291.63	8.121
291.84	11.183
292.05	9.524
292.26	8.602
292.47	9.482
292.68	7.262
292.89	11.412
293.10	13.535
293.31	10.520
293.52	10.019
293.73	10.188
293.94	12.401
294.15	9.759
294.36	10.215
294.57	12.950
294.79	10.399
295.00	8.825
295.21	8.401
295.42	10.628
295.63	13.184
295.84	9.802
296.05	10.689
296.26	9.963
296.47	9.635
296.68	7.603
296.89	8.809
297.10	11.563
297.31	7.796
297.52	5.970
297.73	8.057
297.94	8.383
298.15	7.657
298.36	8.147
298.57	5.451
298.78	9.073
298.99	7.089
299.20	7.623
299.41	7.960
299.62	8.845
299.83	8.201
300.04	9.406
300.25	12.327
300.46	10.698
300.67	10.233
300.88	10.308
301.09	7.643
301.30	10.692
301.50	9.744
301.71	14.270
301.92	13.424
302.13	9.983
302.34	8.110
302.55	10.503
302.76	10.453
302.97	10.129
303.18	10.556
303.39	9.424
303.60	9.390
303.81	11.275
304.02	12.042
304.23	10.393
304.44	9.614
304.65	9.550
304.86	10.529
305.07	8.437
305.28	11.162
305.49	9.377
305.70	9.937
305.91	11.370
306.12	10.825
306.33	7.888
306.54	9.842
306.75	10.218
306.96	12.316
307.17	9.878
307.38	12.650
307.58	8.391
307.79	11.356
308.00	11.104
308.21	9.847
308.42	10.099
308.63	10.392
308.84	12.216
309.05	9.025
309.26	7.537
309.47	10.779
309.68	8.663
309.89	11.016
310.10	6.817
310.31	9.914
310.52	4.548
310.73	9.920
310.94	9.504
311.14	7.017
311.35	9.421
311.56	9.066
311.77	7.661
311.98	7.168
312.19	7.861
312.40	9.141
312.61	8.464
312.82	10.073
313.03	8.667
313.24	11.956
313.45	7.930
313.66	8.785
313.86	8.138
314.07	8.957
314.28	12.438
314.49	10.181
314.70	9.855
314.91	10.446
315.12	9.121
315.33	9.949
315.54	7.841
315.75	9.268
315.96	7.218
316.16	7.831
316.37	12.067
316.58	8.895
316.79	10.000
317.00	10.797
317.21	8.097
317.42	10.529
317.63	10.532
317.84	9.803
318.05	11.976
318.25	11.648
318.46	7.352
318.67	12.179
318.88	10.948
319.09	9.191
319.30	11.264
319.51	11.104
319.72	9.627
319.93	11.195
320.13	9.817
320.34	11.486
320.55	11.003
320.76	13.133
320.97	6.909
321.18	14.047
321.39	9.950
321.60	10.367
321.80	13.153
322.01	13.934
322.22	11.660
322.43	9.553
322.64	9.882
322.85	13.063
323.06	10.385
323.27	11.341
323.47	8.653
323.68	11.917
323.89	8.925
324.10	9.249
324.31	10.951
324.52	11.681
324.73	10.354
324.93	8.797
325.14	8.698
325.35	9.908
325.56	10.867
325.77	12.150
325.98	9.813
326.19	11.882
326.39	7.610
326.60	10.188
326.81	7.953
327.02	8.499
327.23	6.921
327.44	12.266
327.64	8.824
327.85	8.498
328.06	9.412
328.27	14.162
328.48	12.399
328.69	9.837
328.90	10.243
329.10	9.214
329.31	11.946
329.52	9.772
329.73	13.330
329.94	9.755
330.15	11.049
330.35	13.192
330.56	12.785
330.77	12.520
330.98	12.898
331.19	10.339
331.39	10.378
331.60	10.147
331.81	9.106
332.02	11.369
332.23	11.761
332.44	10.796
332.64	9.836
332.85	11.111
333.06	9.699
333.27	7.430
333.48	11.309
333.68	8.992
333.89	7.870
334.10	10.146
334.31	12.958
334.52	9.585
334.72	9.225
334.93	11.459
335.14	8.082
335.35	11.675
335.56	11.777
335.76	7.990
335.97	9.448
336.18	7.862
336.39	12.538
336.60	9.799
336.80	10.179
337.01	8.354
337.22	9.788
337.43	10.331
337.64	10.839
337.84	10.763
338.05	9.959
338.26	11.824
338.47	11.631
338.68	7.816
338.88	10.577
339.09	10.494
339.30	10.202
339.51	9.972
339.71	11.687
339.92	9.061
340.13	11.365
340.34	9.037
340.55	9.980
340.75	10.996
340.96	7.199
341.17	11.964
341.38	7.243
341.58	10.599
341.79	7.755
342.00	8.906
342.21	8.871
342.41	9.674
342.62	9.091
342.83	10.023
343.04	8.946
343.24	11.846
343.45	10.598
343.66	11.645
343.87	9.329
344.07	9.437
344.28	10.355
344.49	11.057
344.70	8.789
344.90	11.140
345.11	8.752
345.32	8.845
345.53	8.807
345.73	8.703
345.94	11.867
346.15	11.995
346.36	8.940
346.56	9.539
346.77	7.467
346.98	8.522
347.19	11.084
347.39	7.803
347.60	9.826
347.81	10.649
348.02	9.957
348.22	9.087
348.43	8.298
348.64	7.124
348.84	9.178
349.05	8.460
349.26	10.249
349.47	7.857
349.67	6.247
349.88	10.714
350.09	9.103
350.30	10.417
350.50	11.686
350.71	10.195
350.92	8.510
351.12	7.089
351.33	10.603
351.54	9.687
351.74	7.758
351.95	7.632
352.16	8.436
352.37	10.386
352.57	9.859
352.78	8.351
352.99	6.950
353.19	9.555
353.40	9.528
353.61	9.669
353.82	10.242
354.02	8.373
354.23	8.631
354.44	11.647
354.64	8.327
354.85	10.652
355.06	8.649
355.26	7.909
355.47	9.000
355.68	9.458
355.88	8.385
356.09	7.914
356.30	8.417
356.51	10.675
356.71	7.952
356.92	8.446
357.13	9.418
357.33	11.250
357.54	8.913
357.75	6.471
357.95	9.898
358.16	7.628
358.37	10.221
358.57	9.473
358.78	10.604
358.99	7.094
359.19	6.490
359.40	9.052
359.61	9.042
359.81	11.223
360.02	10.516
360.23	6.592
360.43	7.499
360.64	7.967
360.85	8.082
361.05	7.746
361.26	7.965
361.47	6.814
361.67	9.848
361.88	5.337
362.09	8.064
362.29	6.055
362.50	5.408
362.70	5.392
362.91	8.767
363.12	6.097
363.32	5.949
363.53	7.915
363.74	8.371
363.94	5.685
364.15	7.825
364.36	7.946
364.56	5.931
364.77	7.803
364.98	10.863
365.18	8.440
365.39	9.786
365.59	6.788
365.80	6.218
366.01	8.633
366.21	6.365
366.42	6.778
366.63	8.661
366.83	6.495
367.04	5.620
367.24	9.509
367.45	8.103
367.66	6.505
367.86	7.545
368.07	7.166
368.28	8.550
368.48	6.782
368.69	6.401
368.89	7.671
369.10	7.648
369.31	8.401
369.51	7.775
369.72	8.282
369.92	9.841
370.13	7.014
370.34	8.144
370.54	4.118
370.75	8.009
370.95	6.337
371.16	8.377
371.37	6.857
371.57	7.896
371.78	6.135
371.98	8.230
372.19	8.155
372.40	7.011
372.60	6.812
372.81	8.262
373.01	5.981
373.22	6.484
373.43	8.216
373.63	6.992
373.84	6.917
374.04	7.607
374.25	6.601
374.46	6.815
374.66	7.420
374.87	7.824
375.07	5.884
375.28	6.104
375.48	6.400
375.69	7.869
375.90	5.845
376.10	4.680
376.31	6.061
376.51	5.996
376.72	6.071
376.92	5.602
377.13	7.197
377.34	6.696
377.54	6.721
377.75	7.873
377.95	5.279
378.16	6.786
378.36	7.551
378.57	6.590
378.77	5.444
378.98	6.194
379.19	6.521
379.39	5.604
379.60	6.434
379.80	6.454
380.01	6.924
380.21	6.927
380.42	5.423
380.62	7.089
380.83	6.504
381.04	6.095
381.24	5.482
381.45	6.870
381.65	5.423
381.86	6.429
382.06	6.839
382.27	5.301
382.47	5.341
382.68	6.121
382.88	5.925
383.09	5.550
383.29	5.242
383.50	6.317
383.71	5.768
383.91	4.606
384.12	6.148
384.32	6.805
384.53	6.546
384.73	6.648
384.94	5.221
385.14	5.376
385.35	5.753
385.55	4.041
385.76	5.531
385.96	5.679
386.17	5.696
386.37	5.535
386.58	4.668
386.78	6.616
386.99	5.070
387.19	5.712
387.40	5.600
387.60	6.336
387.81	5.261
388.01	5.091
388.22	5.854
388.42	5.639
388.63	6.772
388.83	5.964
389.04	4.906
389.24	4.845
389.45	6.422
389.65	4.961
389.86	5.138
390.06	5.031
390.27	4.994
390.47	4.477
390.68	4.156
390.88	6.571
391.09	5.907
391.29	5.704
391.50	4.967
391.70	5.372
391.91	3.929
392.11	5.030
392.32	6.113
392.52	4.503
392.73	4.830
392.93	4.724
393.14	3.949
393.34	5.153
393.55	4.953
393.75	5.885
393.95	4.994
394.16	4.406
394.36	6.537
394.57	5.166
394.77	5.411
394.98	4.014
395.18	5.141
395.39	4.349
395.59	3.774
395.80	4.298
396.00	4.439
396.21	5.602
396.41	3.395
396.61	5.266
396.82	5.219
397.02	6.675
397.23	5.534
397.43	6.273
397.64	5.000
397.84	6.706
398.05	3.829
398.25	4.654
398.45	4.689
398.66	5.221
398.86	4.850
399.07	5.410
399.27	4.755
399.48	6.166
399.68	4.411
399.89	4.370
400.09	5.647
400.29	4.281
400.50	5.118
400.70	5.903
400.91	5.047
401.11	5.423
401.32	5.929
401.52	4.731
401.72	4.684
401.93	6.473
402.13	6.033
402.34	4.050
402.54	4.193
402.75	4.647
402.95	4.505
403.15	4.771
403.36	4.361
403.56	5.800
403.77	4.327
403.97	5.403
404.17	5.026
404.38	5.562
404.58	3.402
404.79	5.291
404.99	5.186
405.19	4.471
405.40	4.713
405.60	4.435
405.81	4.704
406.01	4.645
406.21	5.069
406.42	3.784
406.62	5.017
406.83	4.850
407.03	5.991
407.23	4.371
407.44	4.523
407.64	4.781
407.85	5.200
408.05	4.909
408.25	4.263
408.46	5.378
408.66	5.271
408.87	5.217
409.07	5.135
409.27	5.253
409.48	5.434
409.68	5.281
409.88	4.273
410.09	5.003
410.29	4.978
410.50	6.359
410.70	3.813
410.90	4.821
411.11	4.228
411.31	4.353
411.51	4.754
411.72	5.078
411.92	3.894
412.12	3.626
412.33	3.679
412.53	4.054
412.74	4.528
412.94	4.950
413.14	5.136
413.35	4.740
413.55	4.440
413.75	5.420
413.96	4.350
414.16	5.325
414.36	4.835
414.57	4.504
414.77	3.077
414.97	5.476
415.18	5.205
415.38	4.599
415.58	4.806
415.79	4.715
415.99	3.898
416.19	4.209
416.40	4.997
416.60	3.662
416.80	4.487
417.01	3.834
417.21	2.980
417.41	5.020
417.62	3.867
417.82	3.899
418.02	3.419
418.23	4.756
418.43	4.236
418.63	3.447
418.84	4.387
419.04	2.954
419.24	4.280
419.45	4.089
419.65	3.941
419.85	3.913
420.06	3.897
420.26	3.949
420.46	3.508
420.67	3.752
420.87	3.794
421.07	4.587
421.28	3.846
421.48	4.099
421.68	4.297
421.88	4.310
422.09	4.389
422.29	3.770
422.49	3.516
422.70	3.383
422.90	3.440
423.10	3.744
423.31	4.099
423.51	4.512
423.71	3.506
423.91	4.119
424.12	4.068
424.32	4.538
424.52	3.794
424.73	3.022
424.93	4.001
425.13	3.303
425.33	3.619
425.54	4.562
425.74	3.795
425.94	4.670
426.15	3.741
426.35	3.538
426.55	3.844
426.75	4.049
426.96	3.773
427.16	3.492
427.36	4.150
427.57	4.591
427.77	3.677
427.97	4.105
428.17	4.648
428.38	4.887
428.58	2.996
428.78	4.454
428.98	4.038
429.19	3.758
429.39	2.700
429.59	4.575
429.79	3.251
430.00	3.331
430.20	3.486
430.40	4.010
430.60	3.519
430.81	4.152
431.01	3.444
431.21	4.227
431.41	3.323
431.62	4.138
431.82	3.597
432.02	4.761
432.22	3.796
432.43	3.260
432.63	3.074
432.83	4.074
433.03	3.104
433.24	3.519
433.44	3.214
433.64	3.722
433.84	3.351
434.05	3.277
434.25	3.359
434.45	4.215
434.65	4.119
434.85	4.760
435.06	3.792
435.26	3.780
435.46	3.870
435.66	4.355
435.87	3.504
436.07	3.823
436.27	3.860
436.47	3.114
436.67	3.231
436.88	3.619
437.08	3.753
437.28	3.213
437.48	3.472
437.69	4.512
437.89	4.180
438.09	4.646
438.29	3.349
438.49	3.205
438.70	3.500
438.90	3.212
439.10	3.019
439.30	3.050
439.50	2.807
439.71	3.874
439.91	3.199
440.11	4.374
440.31	3.408
440.51	2.878
440.72	3.387
440.92	3.133
441.12	3.741
441.32	4.179
441.52	4.087
441.72	3.759
441.93	3.314
442.13	4.378
442.33	3.383
442.53	5.075
442.73	3.073
442.94	3.322
443.14	3.749
443.34	4.130
443.54	3.904
443.74	4.521
443.94	4.123
444.15	3.081
444.35	3.657
444.55	4.017
444.75	3.596
444.95	3.456
445.15	3.898
445.36	3.531
445.56	2.860
445.76	3.883
445.96	3.754
446.16	3.101
446.36	2.977
446.57	3.875
446.77	2.717
446.97	3.675
447.17	3.979
447.37	3.728
447.57	3.911
447.77	3.890
447.98	3.258
448.18	4.324
448.38	3.199
448.58	3.962
448.78	3.935
448.98	3.918
449.18	3.153
449.39	3.290
449.59	3.521
449.79	3.274
449.99	3.254
450.19	3.664
450.39	3.195
450.59	3.941
450.79	3.625
451.00	4.402
451.20	4.095
451.40	3.565
451.60	3.426
451.80	4.182
452.00	3.944
452.20	3.077
452.40	3.661
452.61	3.413
452.81	3.636
453.01	3.545
453.21	3.041
453.41	3.609
453.61	2.675
453.81	3.527
454.01	3.534
454.21	3.427
454.42	4.541
454.62	3.405
454.82	3.837
455.02	2.956
455.22	3.660
455.42	3.341
455.62	2.250
455.82	3.889
456.02	3.862
456.23	4.031
456.43	4.135
456.63	3.798
456.83	2.857
457.03	3.569
457.23	3.257
457.43	3.931
457.63	3.608
457.83	3.276
458.03	3.198
458.23	3.744
458.43	2.922
458.64	3.270
458.84	3.213
459.04	3.499
459.24	3.412
459.44	3.241
459.64	3.339
459.84	3.648
460.04	3.110
460.24	3.506
460.44	3.977
460.64	4.127
460.84	2.963
461.04	3.999
461.24	3.822
461.45	4.416
461.65	4.159
461.85	3.944
462.05	3.916
462.25	3.836
462.45	4.769
462.65	3.419
462.85	2.806
463.05	3.998
463.25	2.649
463.45	3.591
463.65	3.380
463.85	3.404
464.05	3.618
464.25	3.286
464.45	4.086
464.65	3.359
464.85	2.993
465.05	2.978
465.26	4.034
465.46	3.723
465.66	4.305
465.86	4.243
466.06	3.126
466.26	3.357
466.46	2.605
466.66	3.611
466.86	3.179
467.06	3.555
467.26	3.726
467.46	3.729
467.66	3.372
467.86	3.595
468.06	3.305
468.26	3.286
468.46	3.132
468.66	3.762
468.86	2.406
469.06	4.219
469.26	2.850
469.46	3.353
469.66	2.980
469.86	3.188
470.06	3.091
470.26	4.406
470.46	3.013
470.66	4.153
470.86	2.986
471.06	3.954
471.26	2.758
471.46	3.445
471.66	3.822
471.86	3.584
472.06	3.773
472.26	3.992
472.46	4.010
472.66	4.169
472.86	3.336
473.06	3.469
473.26	4.089
473.46	3.714
473.66	2.913
473.86	3.370
474.06	2.911
474.26	3.424
474.46	2.620
474.66	4.080
474.86	3.645
475.06	3.890
475.26	2.448
475.46	3.244
475.66	3.111
475.86	3.601
476.06	3.248
476.26	4.067
476.46	3.331
476.66	3.958
476.86	3.086
477.06	2.883
477.26	3.489
477.46	3.466
477.65	3.628
477.85	3.936
478.05	1.889
478.25	3.927
478.45	3.318
478.65	3.556
478.85	2.591
479.05	3.564
479.25	3.565
479.45	4.083
479.65	3.216
479.85	3.665
480.05	3.123
480.25	3.856
480.45	2.891
480.65	4.071
480.85	3.162
481.05	3.587
481.25	3.653
481.44	3.304
481.64	2.615
481.84	3.984
482.04	3.595
482.24	3.869
482.44	2.834
482.64	3.290
482.84	3.608
483.04	3.724
483.24	3.574
483.44	3.928
483.64	3.728
483.84	4.069
484.04	4.168
484.23	4.222
484.43	4.552
484.63	4.885
484.83	4.900
485.03	5.332
485.23	5.307
485.43	5.451
485.63	5.185
485.83	5.083
486.03	4.701
486.23	5.204
486.42	4.667
486.62	5.027
486.82	4.371
487.02	4.391
487.22	3.708
487.42	4.481
487.62	4.011
487.82	4.092
488.02	4.072
488.22	4.634
488.41	4.436
488.61	4.530
488.81	4.262
489.01	4.774
489.21	4.538
489.41	4.471
489.61	4.469
489.81	4.995
490.01	4.634
490.20	4.543
490.40	4.250
490.60	4.577
490.80	4.129
491.00	4.516
491.20	3.793
491.40	4.000
491.60	4.166
491.79	4.167
491.99	4.205
492.19	4.099
492.39	4.128
492.59	4.564
492.79	4.216
492.99	4.575
493.19	4.339
493.38	4.599
493.58	3.977
493.78	4.405
493.98	4.858
494.18	4.568
494.38	4.346
494.58	4.257
494.77	2.803
494.97	4.240
495.17	3.420
495.37	3.415
495.57	3.497
495.77	3.617
495.96	3.738
496.16	3.748
496.36	3.918
496.56	4.094
496.76	3.120
496.96	3.814
497.15	3.119
497.35	3.882
497.55	3.355
497.75	3.762
497.95	3.057
498.15	4.082
498.34	3.786
498.54	3.091
498.74	3.882
498.94	4.058
499.14	2.958
499.34	4.181
499.53	3.696
499.73	3.980
499.93	3.521
500.13	3.297
500.33	2.787
500.52	3.569
500.72	3.647
500.92	3.163
501.12	2.821
501.32	3.031
501.52	4.015
501.71	3.125
501.91	3.116
502.11	3.737
502.31	3.027
502.51	4.529
502.70	3.124
502.90	3.637
503.10	3.588
503.30	3.867
503.50	3.837
503.69	3.363
503.89	3.713
504.09	3.686
504.29	3.657
504.48	3.953
504.68	4.174
504.88	4.014
505.08	3.052
505.28	3.739
505.47	3.562
505.67	4.350
505.87	3.187
506.07	3.555
506.27	3.334
506.46	3.700
506.66	2.945
506.86	3.678
507.06	4.423
507.25	3.446
507.45	3.501
507.65	3.799
507.85	3.075
508.04	4.227
508.24	3.874
508.44	3.906
508.64	3.338
508.83	3.929
509.03	2.882
509.23	3.683
509.43	3.063
509.63	3.419
509.82	2.899
510.02	3.881
510.22	3.380
510.42	3.918
510.61	3.729
510.81	3.611
511.01	3.130
511.21	4.265
511.40	3.058
511.60	3.812
511.80	3.418
511.99	4.071
512.19	3.562
512.39	4.158
512.59	3.320
512.78	4.583
512.98	4.088
513.18	3.408
513.38	3.759
513.57	4.451
513.77	3.595
513.97	3.662
514.17	3.563
514.36	3.786
514.56	3.734
514.76	4.877
514.95	2.964
515.15	3.562
515.35	3.099
515.55	3.337
515.74	3.824
515.94	4.135
516.14	3.218
516.33	4.242
516.53	3.531
516.73	4.258
516.93	3.275
517.12	4.260
517.32	3.504
517.52	3.895
517.71	3.140
517.91	3.733
518.11	3.782
518.30	3.400
518.50	3.006
518.70	3.701
518.90	3.267
519.09	4.318
519.29	4.257
519.49	4.709
519.68	3.298
519.88	4.876
520.08	3.976
520.27	4.532
520.47	4.264
520.67	4.243
520.86	3.874
521.06	4.866
521.26	3.254
521.45	4.393
521.65	4.108
521.85	3.690
522.04	3.737
522.24	4.077
522.44	3.271
522.63	3.926
522.83	3.457
523.03	4.560
523.22	3.743
523.42	4.228
523.62	4.299
523.81	4.448
524.01	4.359
524.21	3.642
524.40	3.540
524.60	4.179
524.80	3.434
524.99	3.397
525.19	3.810
525.39	3.864
525.58	4.022
525.78	3.857
525.98	3.736
526.17	4.336
526.37	3.826
526.57	4.240
526.76	4.610
526.96	4.459
527.15	3.781
527.35	4.145
527.55	3.930
527.74	5.037
527.94	4.254
528.14	4.297
528.33	4.060
528.53	4.766
528.72	4.262
528.92	4.720
529.12	4.858
529.31	4.868
529.51	4.928
529.71	4.950
529.90	4.824
530.10	5.135
530.29	5.226
530.49	5.219
530.69	5.186
530.88	5.339
531.08	5.159
531.28	5.419
531.47	4.721
531.67	4.899
531.86	4.551
532.06	4.640
532.26	4.087
532.45	4.981
532.65	4.501
532.84	4.655
533.04	3.727
533.24	4.652
533.43	4.364
533.63	4.726
533.82	4.559
534.02	4.909
534.22	4.493
534.41	4.753
534.61	5.061
534.80	4.937
535.00	5.092
535.19	5.357
535.39	5.140
535.59	5.193
535.78	4.612
535.98	4.618
536.17	4.293
536.37	4.517
536.57	4.387
536.76	5.136
536.96	4.533
537.15	4.718
537.35	4.297
537.54	4.431
537.74	4.568
537.93	5.270
538.13	4.658
538.33	4.678
538.52	4.488
538.72	5.077
538.91	4.757
539.11	4.799
539.30	4.426
539.50	4.378
539.70	4.488
539.89	5.035
540.09	4.480
540.28	4.848
540.48	3.785
540.67	4.439
540.87	4.412
541.06	4.644
541.26	4.238
541.45	5.140
541.65	4.685
541.85	5.189
542.04	4.715
542.24	5.076
542.43	5.229
542.63	5.559
542.82	5.448
543.02	5.666
543.21	5.257
543.41	5.438
543.60	5.067
543.80	5.534
543.99	5.247
544.19	5.289
544.38	4.910
544.58	5.585
544.77	5.356
544.97	5.668
545.16	4.397
545.36	5.235
545.56	5.003
545.75	4.905
545.95	4.841
546.14	5.692
546.34	4.346
546.53	5.463
546.73	4.822
546.92	5.672
547.12	4.658
547.31	5.205
547.51	4.813
547.70	5.068
547.90	4.746
548.09	5.119
548.29	4.588
548.48	5.337
548.68	4.580
548.87	5.840
549.07	5.728
549.26	4.949
549.46	4.660
549.65	5.424
549.84	4.535
550.04	4.786
550.23	5.072
550.43	4.749
550.62	4.670
550.82	5.016
551.01	4.177
551.21	5.229
551.40	4.965
551.60	4.731
551.79	5.054
551.99	4.846
552.18	4.325
552.38	5.502
552.57	5.478
552.77	5.659
552.96	5.174
553.16	5.928
553.35	4.968
553.54	6.030
553.74	5.253
553.93	6.432
554.13	5.285
554.32	5.425
554.52	4.920
554.71	5.904
554.91	4.471
555.10	6.509
555.29	4.780
555.49	5.802
555.68	5.440
555.88	6.491
556.07	5.002
556.27	6.124
556.46	6.079
556.66	5.731
556.85	6.500
557.04	7.076
557.24	5.729
557.43	6.700
557.63	6.304
557.82	6.121
558.02	5.746
558.21	7.032
558.40	5.245
558.60	6.787
558.79	5.553
558.99	7.321
559.18	5.681
559.38	6.209
559.57	5.876
559.76	6.683
559.96	6.721
560.15	6.968
560.35	6.032
560.54	6.564
560.73	5.450
560.93	6.973
561.12	6.477
561.32	6.671
561.51	7.088
561.70	6.999
561.90	6.463
562.09	7.225
562.29	6.852
562.48	7.805
562.67	7.517
562.87	8.014
563.06	7.093
563.26	7.117
563.45	7.375
563.64	7.944
563.84	7.872
564.03	8.025
564.23	7.307
564.42	8.833
564.61	7.693
564.81	8.120
565.00	8.400
565.20	7.948
565.39	8.576
565.58	9.070
565.78	7.810
565.97	9.030
566.16	9.053
566.36	9.622
566.55	8.824
566.74	8.810
566.94	8.369
567.13	9.130
567.33	9.121
567.52	9.548
567.71	9.450
567.91	9.845
568.10	9.464
568.29	10.146
568.49	8.810
568.68	9.289
568.87	8.968
569.07	9.828
569.26	9.582
569.45	10.367
569.65	9.382
569.84	10.254
570.04	9.612
570.23	9.875
570.42	9.156
570.62	10.365
570.81	10.147
571.00	10.894
571.20	10.236
571.39	9.736
571.58	10.043
571.78	10.598
571.97	10.016
572.16	10.557
572.36	9.925
572.55	10.804
572.74	10.071
572.94	10.749
573.13	10.704
573.32	11.312
573.51	10.402
573.71	11.032
573.90	10.673
574.09	11.106
574.29	10.746
574.48	11.253
574.67	11.159
574.87	11.300
575.06	10.544
575.25	11.558
575.45	10.954
575.64	11.052
575.83	10.080
576.03	12.315
576.22	10.928
576.41	10.937
576.60	10.714
576.80	11.591
576.99	11.757
577.18	11.786
577.38	10.914
577.57	11.427
577.76	11.039
577.95	11.890
578.15	10.634
578.34	12.118
578.53	11.502
578.73	11.661
578.92	10.602
579.11	11.102
579.30	10.934
579.50	10.495
579.69	11.813
579.88	10.723
580.08	10.240
580.27	11.809
580.46	10.397
580.65	10.924
580.85	10.779
581.04	11.347
581.23	10.952
581.42	11.727
581.62	10.667
581.81	10.969
582.00	10.339
582.19	10.058
582.39	11.138
582.58	11.104
582.77	10.387
582.96	11.284
583.16	9.348
583.35	11.713
583.54	11.347
583.73	11.276
583.93	10.943
584.12	10.561
584.31	10.031
584.50	10.539
584.70	10.316
584.89	10.487
585.08	10.374
585.27	11.354
585.47	9.276
585.66	11.386
585.85	9.646
586.04	10.873
586.24	10.986
586.43	9.232
586.62	9.139
586.81	11.647
587.00	9.718
587.20	10.188
587.39	8.910
587.58	11.261
587.77	10.782
587.97	11.601
588.16	10.695
588.35	10.350
588.54	10.203
588.73	10.540
588.93	10.621
589.12	11.290
589.31	10.591
589.50	10.340
589.69	11.585
589.89	9.557
590.08	9.053
590.27	10.583
590.46	11.160
590.65	10.168
590.85	9.834
591.04	11.544
591.23	10.455
591.42	11.128
591.61	10.353
591.81	10.724
592.00	10.079
592.19	11.346
592.38	10.757
592.57	11.109
592.77	10.616
592.96	11.164
593.15	12.465
593.34	11.211
593.53	10.352
593.72	10.629
593.92	9.810
594.11	11.073
594.30	9.450
594.49	11.628
594.68	10.889
594.87	11.565
595.07	9.917
595.26	11.089
595.45	10.230
595.64	11.215
595.83	10.701
596.02	12.127
596.22	11.341
596.41	12.254
596.60	11.143
596.79	11.854
596.98	11.616
597.17	12.098
597.37	11.007
597.56	12.782
597.75	11.891
597.94	12.893
598.13	12.089
598.32	12.402
598.51	11.746
598.71	12.997
598.90	12.321
599.09	11.614
599.28	11.060
599.47	11.995
599.66	10.493
599.85	12.898
600.05	10.958
600.24	13.331
600.43	11.625
600.62	11.942
600.81	11.678
601.00	12.141
601.19	11.311
601.38	12.408
601.58	11.628
601.77	11.852
601.96	10.840
602.15	13.375
602.34	11.990
602.53	13.347
602.72	11.544
602.91	12.603
603.10	11.192
603.30	12.169
603.49	11.466
603.68	12.233
603.87	11.175
604.06	12.575
604.25	12.998
604.44	13.246
604.63	12.530
604.82	13.843
605.01	11.898
605.21	13.807
605.40	12.182
605.59	13.809
605.78	12.797
605.97	13.063
606.16	12.668
606.35	13.264
606.54	12.899
606.73	14.284
606.92	12.461
607.11	14.294
607.30	12.354
607.50	13.413
607.69	11.551
607.88	13.524
608.07	11.880
608.26	12.387
608.45	12.741
608.64	12.971
608.83	11.349
609.02	12.309
609.21	11.322
609.40	12.646
609.59	11.007
609.78	12.493
609.97	11.751
610.16	12.346
610.35	11.961
610.55	12.935
610.74	11.660
610.93	12.576
611.12	12.207
611.31	11.983
611.50	11.114
611.69	11.931
611.88	12.072
612.07	13.209
612.26	10.154
612.45	11.576
612.64	11.046
612.83	12.451
613.02	9.998
613.21	9.680
613.40	10.600
613.59	11.629
613.78	10.566
613.97	10.611
614.16	9.747
614.35	11.603
614.54	9.485
614.73	9.994
614.92	9.841
615.11	9.556
615.30	10.878
615.49	10.066
615.68	9.493
615.87	9.496
616.07	9.206
616.26	9.011
616.45	9.465
616.64	10.808
616.83	10.135
617.02	10.501
617.21	7.391
617.40	9.721
617.59	9.136
617.78	9.305
617.97	7.905
618.16	8.539
618.35	7.899
618.54	10.988
618.73	8.845
618.92	9.201
619.11	8.304
619.30	9.790
619.49	8.603
619.68	8.830
619.86	8.723
620.05	8.712
620.24	8.344
620.43	8.773
620.62	7.739
620.81	9.153
621.00	9.391
621.19	9.917
621.38	8.671
621.57	9.366
621.76	8.768
621.95	8.942
622.14	7.527
622.33	9.711
622.52	8.728
622.71	10.499
622.90	7.720
623.09	10.381
623.28	7.655
623.47	8.956
623.66	8.388
623.85	8.851
624.04	8.199
624.23	9.131
624.42	9.544
624.61	7.913
624.80	7.260
624.99	8.762
625.18	6.743
625.36	9.080
625.55	8.704
625.74	8.193
625.93	7.528
626.12	8.357
626.31	8.497
626.50	8.269
626.69	7.568
626.88	9.576
627.07	9.401
627.26	8.763
627.45	8.198
627.64	8.324
627.83	7.809
628.02	9.094
628.20	8.897
628.39	8.794
628.58	8.203
628.77	9.038
628.96	8.106
629.15	8.274
629.34	8.959
629.53	7.162
629.72	7.178
629.91	9.094
630.10	7.622
630.29	7.317
630.47	7.405
630.66	7.047
630.85	6.648
631.04	8.412
631.23	9.250
631.42	8.266
631.61	7.051
631.80	8.923
631.99	7.273
632.18	7.854
632.36	7.277
632.55	9.187
632.74	8.039
632.93	7.931
633.12	7.560
633.31	7.796
633.50	6.869
633.69	6.971
633.88	6.508
634.06	9.049
634.25	7.902
634.44	7.818
634.63	6.994
634.82	9.437
635.01	6.497
635.20	7.219
635.39	7.164
635.57	7.330
635.76	6.649
635.95	7.530
636.14	6.023
636.33	9.091
636.52	7.370
636.71	8.843
636.89	8.571
637.08	8.869
637.27	8.234
637.46	8.084
637.65	8.078
637.84	8.335
638.03	7.453
638.21	9.588
638.40	8.924
638.59	7.029
638.78	7.519
638.97	8.607
639.16	9.269
639.34	7.526
639.53	5.699
639.72	8.327
639.91	8.355
640.10	7.028
640.29	8.789
640.47	9.863
640.66	7.973
640.85	9.451
641.04	6.896
641.23	7.638
641.42	7.024
641.60	9.191
641.79	7.186
641.98	7.761
642.17	8.440
642.36	8.574
642.54	7.128
642.73	8.155
642.92	6.846
643.11	7.974
643.30	7.016
643.49	9.343
643.67	7.607
643.86	8.349
644.05	6.743
644.24	8.073
644.43	7.577
644.61	8.767
644.80	7.866
644.99	7.141
645.18	8.557
645.37	8.079
645.55	6.732
645.74	8.426
645.93	8.703
646.12	8.390
646.31	8.020
646.49	6.750
646.68	7.480
646.87	7.868
647.06	9.118
647.24	9.257
647.43	6.823
647.62	9.456
647.81	7.277
648.00	8.793
648.18	5.319
648.37	6.731
648.56	6.808
648.75	7.085
648.93	7.658
649.12	8.051
649.31	7.069
649.50	8.650
649.68	7.430
649.87	6.960
650.06	6.958
650.25	7.378
650.43	6.844
650.62	5.127
650.81	6.926
651.00	6.733
651.18	8.351
651.37	7.758
651.56	8.438
651.75	9.568
651.93	6.773
652.12	9.435
652.31	5.835
652.50	7.781
652.68	8.184
652.87	8.456
653.06	8.580
653.25	7.534
653.43	6.966
653.62	8.018
653.81	8.024
654.00	7.485
654.18	8.547
654.37	8.503
654.56	6.351
654.74	6.090
654.93	7.025
655.12	7.262
655.31	7.747
655.49	7.253
655.68	6.304
655.87	6.011
656.05	5.960
656.24	7.102
656.43	6.671
656.62	6.751
656.80	7.255
656.99	6.197
657.18	7.137
657.36	6.591
657.55	7.570
657.74	8.109
657.93	8.112
658.11	8.072
658.30	8.292
658.49	6.587
658.67	7.632
658.86	6.588
659.05	7.172
659.23	7.523
659.42	5.295
659.61	5.269
659.79	5.985
659.98	5.882
660.17	5.898
660.35	6.401
660.54	6.531
660.73	8.280
660.91	5.451
661.10	7.093
661.29	6.309
661.47	5.246
661.66	5.857
661.85	6.307
662.03	6.075
662.22	5.308
662.41	4.235
662.59	7.143
662.78	6.730
662.97	3.886
663.15	5.952
663.34	6.505
663.53	5.108
663.71	6.595
663.90	6.576
664.09	5.613
664.27	6.667
664.46	6.207
664.65	5.816
664.83	7.423
665.02	6.397
665.21	7.478
665.39	5.766
665.58	6.802
665.77	6.660
665.95	6.961
666.14	7.320
666.32	6.321
666.51	6.744
666.70	5.089
666.88	7.460
667.07	4.665
667.26	5.892
667.44	5.500
667.63	7.474
667.81	6.334
668.00	6.517
668.19	7.672
668.37	6.169
668.56	8.814
668.75	6.065
668.93	7.378
669.12	5.975
669.30	8.559
669.49	4.926
669.68	7.212
669.86	7.463
670.05	5.012
670.23	6.583
670.42	6.906
670.61	7.495
670.79	7.292
670.98	6.822
671.16	7.800
671.35	6.446
671.54	7.945
671.72	7.707
671.91	7.546
672.09	7.329
672.28	7.779
672.46	7.145
672.65	8.311
672.84	9.404
673.02	7.573
673.21	5.904
673.39	7.515
673.58	8.548
673.77	7.226
673.95	7.927
674.14	8.641
674.32	7.569
674.51	10.709
674.69	6.598
674.88	7.828
675.07	8.440
675.25	9.836
675.44	7.285
675.62	7.716
675.81	7.101
675.99	12.947
676.18	8.975
676.36	6.162
676.55	8.336
676.74	10.732
676.92	10.760
677.11	6.250
677.29	6.428
677.48	11.084
677.66	10.032
677.85	5.472
678.03	8.824
678.22	10.539
678.40	7.208
678.59	7.152
678.78	6.908
678.96	8.400
679.15	8.027
679.33	7.932
679.52	9.254
679.70	10.006
679.89	8.535
680.07	8.833
680.26	6.748
680.44	7.264
680.63	8.378
680.81	6.625
681.00	6.367
681.18	7.874
681.37	6.956
681.55	9.013
681.74	8.552
681.92	9.973
682.11	8.379
682.29	7.753
682.48	7.346
682.66	8.148
682.85	9.253
683.03	8.953
683.22	10.369
683.40	10.409
683.59	9.659
683.77	9.530
683.96	8.632
684.14	9.799
684.33	8.108
684.51	12.112
684.70	10.210
684.88	12.716
685.07	9.429
685.25	11.001
685.44	6.923
685.62	9.377
685.81	7.516
685.99	11.229
686.18	10.275
686.36	9.857
686.55	7.851
686.73	9.475
686.92	11.079
687.10	9.198
687.29	10.203
687.47	10.308
687.65	12.770
687.84	9.094
688.02	13.317
688.21	12.186
688.39	8.869
688.58	12.345
688.76	11.730
688.95	10.785
689.13	9.374
689.32	13.083
689.50	10.296
689.68	11.855
689.87	10.294
690.05	12.082
690.24	13.273
690.42	13.903
690.61	12.286
690.79	14.715
690.98	13.261
691.16	13.080
691.34	10.074
691.53	12.419
691.71	12.230
691.90	13.108
692.08	10.641
692.27	15.441
692.45	14.634
692.63	14.805
692.82	15.282
693.00	14.195
693.19	13.201
693.37	14.845
693.56	16.660
693.74	19.226
693.92	12.315
694.11	17.891
694.29	16.436
694.48	18.721
694.66	17.518
694.84	19.366
695.03	17.809
695.21	22.722
695.40	21.556
695.58	23.040
695.76	17.956
695.95	23.807
696.13	18.310
696.32	20.889
696.50	27.254
696.68	25.482
696.87	20.547
697.05	26.658
697.24	24.268
697.42	27.476
697.60	22.222
697.79	26.525
697.97	27.507
698.16	27.917
698.34	24.033
698.52	27.019
698.71	28.104
698.89	26.265
699.07	27.840
699.26	29.585
699.44	27.453
699.63	28.934
699.81	28.158
699.99	32.913
700.18	29.635
700.36	29.252
700.54	30.000
700.73	31.892
700.91	30.307
701.09	32.896
701.28	32.238
701.46	33.978
701.64	31.314
701.83	35.542
702.01	30.716
702.20	36.523
702.38	33.045
702.56	36.064
702.75	36.698
702.93	34.796
703.11	36.238
703.30	39.732
703.48	38.901
703.66	41.801
703.85	38.675
704.03	40.028
704.21	38.762
704.40	42.906
704.58	39.014
704.76	43.144
704.95	38.109
705.13	38.674
705.31	41.209
705.50	42.313
705.68	40.406
705.86	43.772
706.04	41.061
706.23	44.206
706.41	41.421
706.59	44.116
706.78	41.179
706.96	44.990
707.14	42.787
707.33	46.109
707.51	45.198
707.69	45.472
707.88	43.335
708.06	46.521
708.24	44.041
708.42	45.367
708.61	43.640
708.79	46.804
708.97	48.807
709.16	48.667
709.34	47.526
709.52	46.966
709.71	47.852
709.89	45.515
710.07	43.975
710.25	46.657
710.44	39.463
710.62	45.100
710.80	49.531
710.98	47.930
711.17	44.541
711.35	47.243
711.53	45.957
711.72	48.408
711.90	50.067
712.08	46.360
712.26	47.881
712.45	47.038
712.63	47.656
712.81	47.338
712.99	50.045
713.18	47.834
713.36	46.987
713.54	46.358
713.72	46.542
713.91	48.899
714.09	46.439
714.27	47.495
714.45	50.136
714.64	50.593
714.82	51.075
715.00	49.147
715.18	48.986
715.37	50.503
715.55	50.500
715.73	48.427
715.91	47.209
716.10	48.963
716.28	46.251
716.46	50.242
716.64	49.643
716.83	48.596
717.01	50.068
717.19	49.099
717.37	49.567
717.55	47.472
717.74	49.374
717.92	48.655
718.10	44.194
718.28	49.681
718.47	52.065
718.65	51.895
718.83	48.031
719.01	50.619
719.19	48.833
719.38	49.564
719.56	47.760
719.74	51.214
719.92	42.513
720.10	49.112
720.29	49.739
720.47	52.656
720.65	50.597
720.83	56.550
721.01	49.037
721.20	54.430
721.38	49.446
721.56	53.329
721.74	52.414
721.92	53.000
722.11	54.018
722.29	56.568
722.47	53.150
722.65	54.478
722.83	50.093
723.01	56.873
723.20	54.105
723.38	54.250
723.56	52.201
723.74	54.359
723.92	51.838
724.10	54.380
724.29	49.053
724.47	60.027
724.65	56.841
724.83	55.091
725.01	51.634
725.19	55.330
725.38	49.217
725.56	57.517
725.74	51.623
725.92	58.241
726.10	55.013
726.28	54.467
726.46	52.991
726.65	52.842
726.83	55.968
727.01	52.995
727.19	54.816
727.37	51.916
727.55	56.972
727.73	54.934
727.92	50.722
728.10	56.212
728.28	49.745
728.46	59.614
728.64	53.535
728.82	53.806
729.00	54.196
729.19	54.211
729.37	53.314
729.55	56.271
729.73	53.125
729.91	54.497
730.09	54.962
730.27	54.322
730.45	55.018
730.63	55.810
730.82	50.320
731.00	58.333
731.18	54.268
731.36	56.733
731.54	50.853
731.72	58.864
731.90	48.601
732.08	57.176
732.26	55.097
732.45	56.670
732.63	51.775
732.81	55.024
732.99	53.314
733.17	54.162
733.35	56.286
733.53	55.750
733.71	53.025
733.89	58.034
734.07	56.667
734.25	56.710
734.44	57.225
734.62	55.325
734.80	54.793
734.98	58.023
735.16	52.958
735.34	58.113
735.52	61.311
735.70	58.010
735.88	55.287
736.06	57.306
736.24	60.202
736.42	63.547
736.60	61.277
736.78	57.032
736.97	55.945
737.15	61.490
737.33	61.435
737.51	64.000
737.69	64.118
737.87	62.706
738.05	60.376
738.23	62.059
738.41	56.877
738.59	61.707
738.77	62.500
738.95	62.620
739.13	61.224
739.31	56.969
739.49	59.106
739.67	64.521
739.85	56.420
740.03	59.430
740.21	57.224
740.39	59.395
740.57	60.515
740.75	62.518
740.93	56.575
741.11	63.024
741.30	60.327
741.48	61.995
741.66	64.280
741.84	62.413
742.02	61.081
742.20	62.291
742.38	59.540
742.56	66.692
742.74	63.043
742.92	67.266
743.10	59.449
743.28	63.224
743.46	65.938
743.64	61.827
743.82	63.758
744.00	66.613
744.18	69.013
744.36	68.690
744.54	62.169
744.72	68.564
744.90	70.457
745.08	63.574
745.26	64.395
745.44	62.618
745.62	69.609
745.80	59.801
745.98	64.298
746.16	64.044
746.34	67.727
746.52	68.994
746.70	66.341
746.87	63.702
747.05	70.175
747.23	66.872
747.41	69.553
747.59	67.470
747.77	66.443
747.95	65.395
748.13	62.659
748.31	67.144
748.49	64.793
748.67	70.498
748.85	66.103
749.03	66.129
749.21	62.106
749.39	71.953
749.57	66.029
749.75	63.203
749.93	64.771
750.11	67.867
750.29	65.023
750.47	71.921
750.65	68.047
750.83	67.096
751.01	62.656
751.18	58.755
751.36	65.237
751.54	68.659
751.72	68.489
751.90	60.889
752.08	64.745
752.26	61.734
752.44	66.852
752.62	61.780
752.80	66.014
752.98	65.142
753.16	64.626
753.34	65.077
753.52	66.518
753.69	62.162
753.87	62.663
754.05	64.484
754.23	64.825
754.41	65.114
754.59	61.027
754.77	65.679
754.95	65.415
755.13	65.584
755.31	66.217
755.49	67.148
755.66	60.124
755.84	59.372
756.02	62.546
756.20	69.406
756.38	62.432
756.56	66.076
756.74	66.795
756.92	65.421
757.10	66.952
757.28	65.978
757.45	70.502
757.63	66.372
757.81	60.381
757.99	70.540
758.17	64.279
758.35	61.850
758.53	65.399
758.71	70.480
758.88	64.442
759.06	61.101
759.24	60.175
759.42	63.636
759.60	58.333
759.78	58.031
759.96	49.372
760.13	52.214
760.31	49.822
760.49	52.350
760.67	39.867
760.85	52.288
761.03	47.261
761.21	44.751
761.38	37.690
761.56	45.004
761.74	42.759
761.92	47.398
762.10	43.241
762.28	47.231
762.46	39.933
762.63	44.683
762.81	43.420
762.99	45.699
763.17	46.719
763.35	47.605
763.53	42.216
763.70	48.051
763.88	44.067
764.06	46.264
764.24	42.581
764.42	47.020
764.60	45.797
764.77	46.886
764.95	45.874
765.13	47.464
765.31	47.467
765.49	50.399
765.66	49.650
765.84	50.894
766.02	50.552
766.20	52.953
766.38	52.126
766.56	53.623
766.73	52.480
766.91	56.400
767.09	56.708
767.27	55.136
767.45	53.494
767.62	55.277
767.80	58.341
767.98	61.071
768.16	56.313
768.33	62.444
768.51	64.118
768.69	62.906
768.87	60.421
769.05	63.216
769.22	61.416
769.40	67.518
769.58	64.984
769.76	66.733
769.94	68.717
770.11	66.199
770.29	65.049
770.47	66.517
770.65	68.397
770.82	67.404
771.00	70.267
771.18	65.419
771.36	63.666
771.53	68.736
771.71	68.803
771.89	72.405
772.07	62.443
772.25	67.330
772.42	63.561
772.60	69.383
772.78	71.253
772.96	67.512
773.13	73.567
773.31	68.639
773.49	68.617
773.67	70.315
773.84	66.993
774.02	77.862
774.20	68.491
774.37	65.282
774.55	75.381
774.73	77.836
774.91	57.579
775.08	66.938
775.26	65.984
775.44	78.975
775.62	69.912
775.79	74.670
775.97	70.135
776.15	77.056
776.32	66.711
776.50	72.072
776.68	76.706
776.86	67.625
777.03	62.148
777.21	69.478
777.39	66.813
777.56	72.161
777.74	70.761
777.92	68.638
778.10	71.388
778.27	72.200
778.45	71.525
778.63	75.139
778.80	66.759
778.98	74.745
779.16	77.485
779.34	71.888
779.51	65.494
779.69	64.196
779.87	69.018
780.04	68.256
780.22	65.763
780.40	74.451
780.57	70.183
780.75	77.248
780.93	77.213
781.10	71.235
781.28	77.732
781.46	62.791
781.63	71.806
781.81	75.436
781.99	68.850
782.16	68.275
782.34	62.634
782.52	69.984
782.69	70.014
782.87	63.677
783.05	65.429
783.22	68.254
783.40	61.146
783.58	71.300
783.75	69.408
783.93	79.934
784.11	70.569
784.28	66.981
784.46	62.598
784.64	71.496
784.81	62.660
784.99	71.564
785.17	66.885
785.34	72.697
785.52	63.577
785.69	74.650
785.87	63.069
786.05	72.137
786.22	67.244
786.40	87.829
786.58	70.701
786.75	72.524
786.93	65.823
787.11	63.242
787.28	65.974
787.46	69.544
787.63	74.188
787.81	66.819
787.99	73.290
788.16	70.901
788.34	62.951
788.51	63.918
788.69	66.224
788.87	61.381
789.04	56.723
789.22	58.690
789.39	60.905
789.57	56.901
789.75	55.059
789.92	66.441
790.10	55.598
790.27	63.972
790.45	64.580
790.63	64.845
790.80	57.562
790.98	63.623
791.15	61.295
791.33	69.219
791.51	63.718
791.68	65.135
791.86	63.907
792.03	73.333
792.21	67.388
792.39	70.347
792.56	65.079
792.74	62.422
792.91	73.975
793.09	71.689
793.26	66.901
793.44	73.928
793.62	63.333
793.79	70.213
793.97	65.630
794.14	77.241
794.32	69.101
794.49	75.461
794.67	65.647
794.84	65.729
795.02	70.187
795.20	72.059
795.37	63.652
795.55	67.178
795.72	71.555
795.90	68.342
796.07	74.483
796.25	67.057
796.42	59.304
796.60	63.934
796.77	60.531
796.95	68.262
797.13	60.841
797.30	65.391
797.48	60.386
797.65	61.392
797.83	63.947
798.00	71.683
798.18	63.707
798.35	62.607
798.53	64.833
798.70	68.244
798.88	63.712
799.05	59.190
799.23	64.752
799.40	60.032
799.58	63.058
799.75	70.425
799.93	59.794
800.10	72.519
800.28	75.388
800.45	67.864
800.63	60.072
800.80	67.829
800.98	59.851
801.15	64.779
801.33	61.376
801.50	66.494
801.68	66.667
801.85	60.206
802.03	55.369
802.20	69.101
802.38	57.597
802.55	65.962
802.73	69.565
802.90	72.542
803.08	57.295
803.25	69.038
803.43	69.892
803.60	74.066
803.78	68.550
803.95	72.154
804.13	71.107
804.30	65.029
804.48	67.263
804.65	64.173
804.83	63.069
805.00	51.724
805.17	59.806
805.35	63.068
805.52	60.612
805.70	71.887
805.87	66.728
806.05	71.553
806.22	68.773
806.40	50.674
806.57	58.989
806.75	69.725
806.92	65.088
807.09	73.814
807.27	60.139
807.44	63.740
807.62	61.093
807.79	61.786
807.97	69.982
808.14	64.600
808.31	58.642
808.49	58.221
808.66	60.886
808.84	58.721
809.01	74.947
809.19	67.901
809.36	77.393
809.53	63.690
809.71	64.865
809.88	60.089
810.06	67.913
810.23	68.600
810.41	67.012
810.58	81.818
810.75	69.957
810.93	60.355
811.10	57.474
811.28	67.338
811.45	56.604
811.62	67.865
811.80	62.766
811.97	67.532
812.15	71.203
812.32	69.181
812.49	66.231
812.67	64.468
812.84	68.571
813.02	73.543
813.19	60.497
813.36	73.319
813.54	67.920
813.71	71.136
813.89	61.894
814.06	79.365
814.23	62.385
814.41	59.574
814.58	66.587
814.75	80.098
814.93	70.714
815.10	68.462
815.28	77.696
815.45	60.837
815.62	57.314
815.80	57.275
815.97	56.108
816.14	71.459
816.32	58.924
816.49	72.632
816.66	52.250
816.84	63.089
817.01	68.113
817.18	58.275
817.36	63.387
817.53	74.129
817.71	50.972
817.88	60.455
818.05	66.443
818.23	55.000
818.40	67.453
818.57	62.821
818.75	55.916
818.92	64.871
819.09	62.205
819.27	61.373
819.44	52.684
819.61	58.303
819.79	53.086
819.96	58.218
820.13	51.813
820.31	51.478
820.48	52.070
820.65	59.865
820.82	48.613
821.00	50.803
821.17	47.496
821.34	46.352
821.52	46.941
821.69	45.425
821.86	43.305
822.04	47.619
822.21	40.408
822.38	44.451
822.56	39.940
822.73	42.726
822.90	42.851
823.07	47.229
823.25	41.952
823.42	41.227
823.59	40.335
823.77	41.825
823.94	40.819
824.11	40.743
824.29	41.094
824.46	45.689
824.63	44.783
824.80	43.157
824.98	42.035
825.15	43.901
825.32	37.855
825.49	44.678
825.67	40.627
825.84	44.906
826.01	42.346
826.19	46.473
826.36	37.648
826.53	45.691
826.70	39.286
826.88	44.852
827.05	38.143
827.22	44.819
827.39	41.154
827.57	44.822
827.74	38.966
827.91	44.750
828.08	38.092
828.26	43.300
828.43	38.062
828.60	45.094
828.77	40.491
828.95	43.056
829.12	37.057
829.29	37.937
829.46	45.058
829.64	46.418
829.81	35.434
829.98	47.614
830.15	43.133
830.32	43.001
830.50	44.993
830.67	48.972
830.84	47.612
831.01	42.790
831.19	49.650
831.36	58.537
831.53	57.937
831.70	67.946
831.87	59.091
832.05	62.772
832.22	67.937
832.39	63.913
832.56	48.601
832.74	54.687
832.91	56.540
833.08	67.814
833.25	42.531
833.42	55.095
833.60	48.693
833.77	36.765
833.94	44.429
834.11	38.788
834.28	33.255
834.45	44.038
834.63	39.554
834.80	42.569
834.97	38.173
835.14	48.333
835.31	37.800
835.49	40.680
835.66	35.288
835.83	41.765
836.00	41.657
836.17	44.388
836.34	40.745
836.52	43.421
836.69	54.532
836.86	47.344
837.03	50.253
837.20	43.590
837.37	50.457
837.55	53.451
837.72	48.940
837.89	53.181
838.06	54.087
838.23	57.177
838.40	67.376
838.58	69.067
838.75	51.852
838.92	87.931
839.09	68.783
839.26	67.647
839.43	74.640
839.60	70.569
839.78	97.840
839.95	72.964
840.12	69.937
840.29	74.841
840.46	75.874
840.63	70.588
840.80	61.067
840.98	87.714
841.15	61.500
841.32	60.422
841.49	72.464
841.66	76.776
841.83	63.200
842.00	69.937
842.17	73.151
842.34	61.891
842.52	63.174
842.69	74.843
842.86	76.471
843.03	84.906
843.20	98.367
843.37	83.566
843.54	81.301
843.71	75.102
843.88	84.437
844.06	90.688
844.23	104.348
844.40	89.394
844.57	86.809
844.74	86.026
844.91	112.963
845.08	100.392
845.25	94.161
845.42	91.457
845.59	124.561
845.76	109.091
845.94	147.468
846.11	103.980
846.28	128.276
846.45	106.135
846.62	103.784
846.79	116.111
846.96	88.688
847.13	121.765
847.30	98.485
847.47	92.857
847.64	98.837
847.81	97.802
847.98	100.000
848.15	122.581
848.32	115.464
848.50	147.826
848.67	133.333
848.84	116.162
849.01	108.163
849.18	113.158
849.35	93.717
849.52	112.717
849.69	103.468
849.86	115.337
850.03	142.466
850.20	139.583
850.37	90.000
850.54	147.170
850.71	141.463
850.88	132.168
851.05	143.151
851.22	134.783
851.39	117.526
851.56	122.222
851.73	124.444
851.90	133.125
852.07	128.235
852.24	130.147
852.41	136.496
852.58	118.182
852.75	108.876
852.92	119.022
853.09	118.436
853.26	127.389
853.43	95.000
853.60	125.773
853.77	137.589
853.94	119.697
854.11	153.846
854.28	126.064
854.45	109.091
854.62	134.228
854.79	146.923
854.96	139.855
855.13	113.889
855.30	123.316
855.47	145.517
855.64	136.937
855.81	169.048
855.98	147.333
856.15	94.483
856.32	102.347
856.49	101.826
856.66	129.070
856.83	114.136
857.00	142.623
857.17	147.500
857.34	126.515
857.51	108.333
857.68	125.000
857.85	124.848
858.02	266.216
858.19	133.571
858.36	125.143
858.53	139.429
858.70	115.894
858.87	144.828
859.04	121.127
859.21	93.913
859.38	137.748
859.55	210.185
859.72	146.281
859.89	169.608
860.05	132.558
860.22	150.000
860.39	158.879
860.56	151.376
860.73	123.494
860.90	137.333
861.07	133.333
861.24	187.179
861.41	147.857
861.58	109.852
861.75	157.407
861.92	128.346
862.09	122.289
862.26	227.660
862.43	117.293
862.59	96.410
862.76	133.333
862.93	150.932
863.10	116.552
863.27	99.459
863.44	111.184
863.61	121.765
863.78	160.563
863.95	157.252
864.12	125.694
864.29	140.310
864.45	195.890
864.62	131.579
864.79	104.054
864.96	134.127
865.13	164.122
865.30	163.636
865.47	163.889
865.64	115.000
865.81	137.654
865.97	104.372
866.14	97.143
866.31	170.732
866.48	141.085
866.65	119.000
866.82	158.389
866.99	207.767
867.16	185.714
867.33	152.137
867.49	152.555
867.66	132.039
867.83	164.800
868.00	106.383
868.17	137.121
868.34	163.699
868.51	104.225
868.67	152.066
868.84	145.578
869.01	159.055
869.18	127.132
869.35	180.000
869.52	116.438
869.69	146.565
869.85	97.861
870.02	148.598
870.19	170.588
870.36	127.211
870.53	84.659
870.70	116.279
870.86	103.774
871.03	165.546
871.20	110.596
871.37	95.215
871.54	114.483
871.71	112.346
871.87	110.959
872.04	89.677
872.21	200.000
872.38	92.638
872.55	127.465
872.72	84.651
872.88	123.077
873.05	127.473
873.22	113.095
873.39	134.146
873.56	101.734
873.72	165.672
873.89	127.536
874.06	109.868
874.23	177.966
874.40	128.671
874.56	159.434
874.73	112.500
874.90	118.079
875.07	127.083
875.24	65.318
875.40	116.774
875.57	139.655
875.74	120.000
875.91	145.455
876.08	125.000
876.24	166.234
876.41	133.140
876.58	124.224
876.75	119.048
876.92	121.239
877.08	150.000
877.25	117.722
877.42	118.519
877.59	116.783
877.75	146.309
877.92	119.200
878.09	112.030
878.26	141.558
878.42	132.609
878.59	137.500
878.76	105.769
878.93	112.281
879.09	105.851
879.26	84.865
879.43	110.588
879.60	135.185
879.76	111.111
879.93	108.861
880.10	88.889
880.27	95.413
880.43	102.439
880.60	65.297
880.77	83.983
880.94	72.000
881.10	71.032
881.27	56.267
881.44	48.961
881.61	47.598
881.77	46.627
881.94	32.318
882.11	31.818
882.28	36.944
882.44	31.593
882.61	36.574
882.78	32.018
882.94	37.242
883.11	33.442
883.28	34.205
883.45	34.222
883.61	31.836
883.78	25.373
883.95	36.108
884.11	37.375
884.28	38.955
>>>>>End Processed Spectral Data<<<<<
