SpectraSuite Data File
++++++++++++++++++++++++++++++++++++
Date: Fri Sep 20 03:48:27 EST 2019
User: sgrac
Dark Spectrum Present: Yes
Reference Spectrum Present: Yes
Number of Sampled Component Spectra: 1
Spectrometers: USB4E01596
Integration Time (usec): 100000 (USB4E01596)
Spectra Averaged: 1 (USB4E01596)
Boxcar Smoothing: 0 (USB4E01596)
Correct for Electrical Dark: No (USB4E01596)
Strobe/Lamp Enabled: Yes (USB4E01596)
Correct for Detector Non-linearity: No (USB4E01596)
Correct for Stray Light: No (USB4E01596)
Number of Pixels in Processed Spectrum: 3648
>>>>>Begin Processed Spectral Data<<<<<
178.44	547.826
178.66	547.826
178.87	547.826
179.09	-570.000
179.30	400.000
179.52	542.857
179.74	2800.000
179.95	-400.000
180.17	-800.000
180.38	-856.250
180.60	-464.516
180.82	713.043
181.03	-3275.000
181.25	-1540.000
181.46	-1290.909
181.68	0.000
181.89	16400.000
182.11	2150.000
182.33	1476.923
182.54	-414.286
182.76	360.000
182.97	581.481
183.19	1655.556
183.40	-1068.750
183.62	914.286
183.84	-385.000
184.05	0.000
184.27	13300.000
184.48	875.000
184.70	8400.000
184.91	1346.154
185.13	479.545
185.34	350.000
185.56	-642.857
185.78	678.947
185.99	-9950.000
186.21	550.000
186.42	1266.667
186.64	320.896
186.85	275.309
187.07	870.833
187.28	-340.541
187.50	-513.636
187.72	271.875
187.93	16400.000
188.15	700.000
188.36	365.385
188.58	870.588
188.79	7300.000
189.01	532.353
189.22	1375.000
189.44	453.191
189.65	-930.000
189.87	885.714
190.09	516.667
190.30	-3620.000
190.52	407.317
190.73	781.481
190.95	-1161.538
191.16	-1208.333
191.38	-595.652
191.59	1877.778
191.81	400.000
192.02	467.500
192.24	257.143
192.45	388.571
192.67	859.091
192.88	0.000
193.10	514.706
193.31	-1180.000
193.53	420.455
193.74	447.368
193.96	1840.000
194.18	305.797
194.39	338.000
194.61	726.667
194.82	600.000
195.04	1408.333
195.25	419.149
195.47	1063.158
195.68	-1150.000
195.90	4025.000
196.11	4250.000
196.33	-592.593
196.54	682.759
196.76	337.778
196.97	766.667
197.19	-833.333
197.40	594.444
197.62	-1221.429
197.83	966.667
198.05	489.474
198.26	709.091
198.48	1533.333
198.69	462.857
198.91	2285.714
199.12	482.500
199.34	310.769
199.55	-1154.545
199.77	770.000
199.98	2760.000
200.20	1218.182
200.41	542.424
200.63	-2300.000
200.84	585.366
201.06	-13100.000
201.27	1094.118
201.49	319.672
201.70	1111.765
201.91	1206.250
202.13	890.000
202.34	4225.000
202.56	1942.857
202.77	-2216.667
202.99	1053.333
203.20	514.286
203.42	-528.571
203.63	541.935
203.85	-658.333
204.06	3000.000
204.28	-3425.000
204.49	1514.286
204.71	352.083
204.92	1433.333
205.14	0.000
205.35	1060.000
205.56	550.000
205.78	423.077
205.99	400.000
206.21	593.103
206.42	2816.667
206.64	-348.780
206.85	1213.333
207.07	1169.231
207.28	573.333
207.50	-1812.500
207.71	444.186
207.93	8600.000
208.14	-337.838
208.35	431.034
208.57	-887.500
208.78	565.517
209.00	368.421
209.21	0.000
209.43	843.478
209.64	388.372
209.86	2257.143
210.07	1300.000
210.28	632.143
210.50	3260.000
210.71	448.718
210.93	423.684
211.14	306.557
211.36	482.857
211.57	2087.500
211.78	-704.545
212.00	661.538
212.21	-873.684
212.43	441.935
212.64	428.571
212.86	642.857
213.07	517.857
213.29	267.105
213.50	-426.471
213.71	-14200.000
213.93	-1644.444
214.14	1000.000
214.36	-2414.286
214.57	210.465
214.78	480.000
215.00	-4600.000
215.21	-2683.333
215.43	-393.939
215.64	1200.000
215.86	-3475.000
216.07	733.333
216.28	250.000
216.50	331.915
216.71	-2840.000
216.93	1207.143
217.14	386.111
217.35	286.842
217.57	-966.667
217.78	1472.727
218.00	395.455
218.21	224.590
218.42	381.633
218.64	380.000
218.85	315.517
219.07	418.000
219.28	604.762
219.49	-1336.364
219.71	395.238
219.92	3100.000
220.14	5500.000
220.35	4000.000
220.56	1006.667
220.78	322.222
220.99	2566.667
221.21	397.297
221.42	548.148
221.63	530.556
221.85	12400.000
222.06	606.897
222.28	660.000
222.49	15000.000
222.70	-4233.333
222.92	314.286
223.13	208.696
223.34	301.818
223.56	445.946
223.77	1131.250
223.99	244.872
224.20	185.586
224.41	469.767
224.63	447.059
224.84	512.000
225.05	316.667
225.27	329.630
225.48	231.646
225.69	295.455
225.91	275.325
226.12	316.129
226.34	233.333
226.55	170.312
226.76	213.433
226.98	142.105
227.19	450.000
227.40	143.810
227.62	139.189
227.83	167.368
228.04	255.556
228.26	125.000
228.47	128.125
228.69	75.275
228.90	98.315
229.11	65.134
229.33	59.426
229.54	81.224
229.75	57.795
229.97	56.419
230.18	52.989
230.39	35.000
230.61	53.416
230.82	50.980
231.03	44.125
231.25	58.430
231.46	57.460
231.67	52.432
231.89	67.279
232.10	70.229
232.31	49.302
232.53	98.842
232.74	77.459
232.95	85.427
233.17	82.143
233.38	61.574
233.59	77.059
233.81	84.513
234.02	50.739
234.23	85.484
234.45	124.503
234.66	75.743
234.87	78.488
235.09	78.222
235.30	65.161
235.51	66.810
235.73	84.375
235.94	72.760
236.15	64.925
236.36	55.696
236.58	70.711
236.79	83.012
237.00	59.036
237.22	76.293
237.43	70.741
237.64	83.636
237.86	81.863
238.07	72.908
238.28	66.667
238.50	69.008
238.71	69.149
238.92	67.647
239.13	75.000
239.35	82.028
239.56	53.425
239.77	79.447
239.99	64.844
240.20	76.978
240.41	51.724
240.63	50.462
240.84	65.409
241.05	36.182
241.26	51.163
241.48	49.370
241.69	36.795
241.90	40.000
242.12	36.419
242.33	40.494
242.54	29.635
242.75	22.973
242.97	38.034
243.18	19.451
243.39	17.700
243.61	28.306
243.82	23.908
244.03	19.398
244.24	18.160
244.46	20.872
244.67	22.000
244.88	22.526
245.09	24.473
245.31	28.974
245.52	28.231
245.73	33.871
245.95	46.629
246.16	39.613
246.37	21.980
246.58	25.038
246.80	19.586
247.01	24.195
247.22	12.540
247.43	15.789
247.65	19.032
247.86	16.218
248.07	13.395
248.28	14.780
248.50	14.295
248.71	14.418
248.92	13.168
249.13	15.868
249.35	12.744
249.56	15.252
249.77	20.893
249.98	17.462
250.20	23.216
250.41	24.279
250.62	25.761
250.83	23.868
251.05	27.368
251.26	20.565
251.47	26.847
251.68	21.752
251.90	31.505
252.11	27.422
252.32	28.430
252.53	33.075
252.75	19.947
252.96	23.731
253.17	16.282
253.38	22.684
253.59	22.432
253.81	23.402
254.02	23.962
254.23	21.482
254.44	21.347
254.66	26.826
254.87	22.364
255.08	32.006
255.29	36.625
255.50	38.828
255.72	28.257
255.93	47.264
256.14	41.702
256.35	40.741
256.57	31.985
256.78	37.923
256.99	26.714
257.20	29.485
257.41	32.762
257.63	30.667
257.84	30.127
258.05	31.219
258.26	22.581
258.47	26.471
258.69	30.374
258.90	17.403
259.11	20.382
259.32	21.911
259.53	19.253
259.75	20.326
259.96	12.953
260.17	15.022
260.38	13.828
260.59	14.372
260.81	11.989
261.02	10.920
261.23	9.854
261.44	13.357
261.65	13.187
261.87	11.055
262.08	12.753
262.29	14.633
262.50	14.971
262.71	13.423
262.92	17.437
263.14	16.410
263.35	17.734
263.56	20.253
263.77	20.825
263.98	24.138
264.20	19.717
264.41	21.584
264.62	22.577
264.83	15.358
265.04	26.235
265.25	21.669
265.47	28.503
265.68	27.764
265.89	20.694
266.10	23.828
266.31	22.657
266.52	18.312
266.74	20.025
266.95	23.478
267.16	15.820
267.37	14.894
267.58	19.734
267.79	18.455
268.01	15.227
268.22	13.472
268.43	17.272
268.64	13.596
268.85	18.166
269.06	13.709
269.27	22.597
269.49	18.756
269.70	16.067
269.91	17.890
270.12	18.324
270.33	19.452
270.54	17.776
270.75	14.273
270.97	16.621
271.18	15.560
271.39	14.535
271.60	18.295
271.81	16.681
272.02	15.822
272.23	13.682
272.45	14.645
272.66	14.579
272.87	15.010
273.08	11.919
273.29	13.062
273.50	10.842
273.71	12.943
273.92	11.821
274.14	13.003
274.35	13.715
274.56	15.255
274.77	17.588
274.98	13.881
275.19	13.533
275.40	15.582
275.61	14.430
275.83	20.165
276.04	17.238
276.25	14.751
276.46	12.877
276.67	19.706
276.88	16.332
277.09	17.881
277.30	19.967
277.51	14.580
277.73	15.118
277.94	16.736
278.15	15.009
278.36	18.259
278.57	12.625
278.78	12.643
278.99	11.444
279.20	17.877
279.41	22.222
279.62	14.783
279.84	15.979
280.05	15.678
280.26	16.708
280.47	17.704
280.68	11.955
280.89	16.086
281.10	16.039
281.31	20.156
281.52	15.304
281.73	13.984
281.94	10.594
282.16	16.605
282.37	15.980
282.58	12.664
282.79	13.432
283.00	16.385
283.21	9.591
283.42	10.298
283.63	14.052
283.84	13.064
284.05	13.041
284.26	11.220
284.47	14.026
284.68	13.069
284.89	12.297
285.11	16.018
285.32	13.554
285.53	13.608
285.74	12.638
285.95	13.228
286.16	12.800
286.37	12.039
286.58	12.799
286.79	10.558
287.00	7.549
287.21	11.325
287.42	11.718
287.63	8.944
287.84	11.141
288.05	11.335
288.26	11.345
288.48	14.350
288.69	11.143
288.90	11.874
289.11	13.988
289.32	14.482
289.53	9.583
289.74	12.866
289.95	11.751
290.16	15.708
290.37	13.397
290.58	11.031
290.79	9.785
291.00	12.116
291.21	12.292
291.42	12.113
291.63	10.672
291.84	11.618
292.05	9.788
292.26	11.154
292.47	11.356
292.68	9.568
292.89	13.294
293.10	13.353
293.31	11.943
293.52	11.806
293.73	12.654
293.94	11.807
294.15	13.369
294.36	13.105
294.57	13.834
294.79	12.204
295.00	10.379
295.21	13.229
295.42	9.806
295.63	13.702
295.84	11.331
296.05	12.400
296.26	8.744
296.47	12.708
296.68	9.174
296.89	10.661
297.10	12.060
297.31	9.991
297.52	7.553
297.73	10.403
297.94	9.483
298.15	10.886
298.36	7.827
298.57	8.577
298.78	9.625
298.99	7.809
299.20	9.344
299.41	9.887
299.62	10.370
299.83	8.622
300.04	7.079
300.25	13.200
300.46	10.996
300.67	11.930
300.88	12.035
301.09	8.611
301.30	11.321
301.50	12.300
301.71	13.990
301.92	15.454
302.13	11.433
302.34	9.766
302.55	9.553
302.76	12.195
302.97	11.761
303.18	12.372
303.39	8.028
303.60	10.706
303.81	14.699
304.02	10.297
304.23	10.624
304.44	9.430
304.65	7.207
304.86	13.845
305.07	12.299
305.28	9.788
305.49	12.114
305.70	14.792
305.91	12.280
306.12	9.510
306.33	10.261
306.54	11.013
306.75	11.548
306.96	14.890
307.17	9.646
307.38	13.909
307.58	9.022
307.79	13.734
308.00	12.444
308.21	10.083
308.42	10.653
308.63	10.828
308.84	12.391
309.05	11.084
309.26	9.258
309.47	12.190
309.68	11.803
309.89	10.962
310.10	9.179
310.31	11.122
310.52	6.592
310.73	11.623
310.94	11.376
311.14	7.704
311.35	8.902
311.56	9.111
311.77	9.862
311.98	8.423
312.19	7.907
312.40	9.600
312.61	8.682
312.82	9.478
313.03	10.578
313.24	12.095
313.45	9.212
313.66	11.042
313.86	8.850
314.07	10.178
314.28	11.111
314.49	10.509
314.70	11.255
314.91	14.568
315.12	11.290
315.33	13.680
315.54	9.469
315.75	8.295
315.96	9.430
316.16	10.151
316.37	13.741
316.58	12.265
316.79	11.676
317.00	12.210
317.21	10.295
317.42	10.006
317.63	12.707
317.84	12.612
318.05	11.976
318.25	10.134
318.46	10.913
318.67	12.657
318.88	11.418
319.09	12.914
319.30	11.664
319.51	11.345
319.72	11.613
319.93	11.720
320.13	11.592
320.34	13.085
320.55	11.688
320.76	14.217
320.97	7.773
321.18	14.304
321.39	8.769
321.60	9.798
321.80	17.086
322.01	15.749
322.22	12.421
322.43	11.352
322.64	11.311
322.85	12.873
323.06	14.905
323.27	12.594
323.47	11.867
323.68	12.743
323.89	10.628
324.10	12.444
324.31	11.449
324.52	12.650
324.73	12.285
324.93	12.136
325.14	11.526
325.35	9.499
325.56	10.818
325.77	11.650
325.98	10.572
326.19	12.902
326.39	10.293
326.60	9.579
326.81	11.242
327.02	8.694
327.23	7.121
327.44	14.039
327.64	7.577
327.85	9.509
328.06	12.052
328.27	14.926
328.48	14.819
328.69	9.206
328.90	9.933
329.10	9.702
329.31	13.615
329.52	12.533
329.73	14.792
329.94	9.813
330.15	10.716
330.35	12.621
330.56	13.841
330.77	12.791
330.98	11.690
331.19	11.947
331.39	13.589
331.60	10.911
331.81	9.373
332.02	14.128
332.23	11.534
332.44	11.758
332.64	12.896
332.85	13.496
333.06	10.758
333.27	11.062
333.48	9.843
333.68	11.331
333.89	8.027
334.10	10.722
334.31	12.752
334.52	11.865
334.72	11.495
334.93	12.468
335.14	8.645
335.35	11.204
335.56	13.978
335.76	7.990
335.97	13.376
336.18	9.314
336.39	12.690
336.60	10.905
336.80	11.867
337.01	10.762
337.22	9.412
337.43	10.628
337.64	13.621
337.84	11.807
338.05	9.500
338.26	12.983
338.47	13.670
338.68	9.806
338.88	12.761
339.09	11.812
339.30	12.506
339.51	12.183
339.71	14.425
339.92	9.251
340.13	13.039
340.34	10.328
340.55	12.280
340.75	11.686
340.96	8.472
341.17	10.967
341.38	10.623
341.58	12.267
341.79	8.516
342.00	9.711
342.21	11.338
342.41	10.651
342.62	10.009
342.83	10.773
343.04	9.718
343.24	10.606
343.45	10.644
343.66	11.506
343.87	9.948
344.07	12.024
344.28	11.803
344.49	12.216
344.70	12.108
344.90	9.518
345.11	11.135
345.32	10.262
345.53	10.261
345.73	11.647
345.94	12.780
346.15	12.861
346.36	11.155
346.56	11.681
346.77	12.706
346.98	10.057
347.19	12.903
347.39	11.786
347.60	13.226
347.81	12.940
348.02	12.043
348.22	8.606
348.43	11.206
348.64	8.392
348.84	10.570
349.05	11.236
349.26	11.993
349.47	7.679
349.67	9.880
349.88	11.629
350.09	10.742
350.30	13.697
350.50	13.703
350.71	13.298
350.92	11.643
351.12	12.206
351.33	12.845
351.54	9.948
351.74	10.459
351.95	9.386
352.16	12.166
352.37	12.618
352.57	12.079
352.78	11.038
352.99	10.110
353.19	11.803
353.40	11.477
353.61	13.066
353.82	13.090
354.02	10.790
354.23	13.328
354.44	16.223
354.64	12.250
354.85	14.743
355.06	11.200
355.26	10.844
355.47	11.947
355.68	14.167
355.88	12.480
356.09	12.609
356.30	10.915
356.51	14.826
356.71	11.799
356.92	10.173
357.13	12.797
357.33	14.877
357.54	12.199
357.75	8.744
357.95	12.801
358.16	10.160
358.37	14.518
358.57	10.928
358.78	14.356
358.99	12.053
359.19	11.026
359.40	13.220
359.61	10.863
359.81	14.053
360.02	14.566
360.23	9.591
360.43	12.134
360.64	10.472
360.85	11.688
361.05	9.987
361.26	13.766
361.47	10.699
361.67	13.749
361.88	9.157
362.09	12.327
362.29	9.296
362.50	10.337
362.70	8.417
362.91	13.481
363.12	9.485
363.32	9.664
363.53	12.111
363.74	13.364
363.94	8.426
364.15	12.716
364.36	12.648
364.56	10.449
364.77	12.399
364.98	15.414
365.18	12.065
365.39	14.087
365.59	10.377
365.80	9.190
366.01	13.549
366.21	10.709
366.42	10.809
366.63	13.689
366.83	10.888
367.04	9.122
367.24	12.910
367.45	11.290
367.66	8.898
367.86	11.228
368.07	10.331
368.28	11.982
368.48	11.583
368.69	9.225
368.89	10.290
369.10	11.578
369.31	12.321
369.51	12.599
369.72	13.042
369.92	13.556
370.13	9.331
370.34	12.683
370.54	6.162
370.75	11.455
370.95	9.132
371.16	13.900
371.37	9.314
371.57	10.143
371.78	10.429
371.98	11.811
372.19	12.190
372.40	11.269
372.60	10.569
372.81	10.666
373.01	9.530
373.22	11.207
373.43	11.705
373.63	10.350
373.84	12.280
374.04	10.466
374.25	9.409
374.46	12.343
374.66	10.748
374.87	12.725
375.07	7.905
375.28	9.112
375.48	10.804
375.69	10.700
375.90	7.813
376.10	8.492
376.31	8.841
376.51	9.509
376.72	9.039
376.92	9.022
377.13	10.795
377.34	11.490
377.54	9.072
377.75	11.443
377.95	8.905
378.16	10.376
378.36	11.375
378.57	10.352
378.77	9.448
378.98	9.699
379.19	9.095
379.39	9.259
379.60	9.651
379.80	10.262
380.01	10.476
380.21	10.390
380.42	10.113
380.62	10.968
380.83	11.303
381.04	8.656
381.24	9.516
381.45	9.118
381.65	7.547
381.86	10.018
382.06	10.751
382.27	7.411
382.47	7.007
382.68	10.046
382.88	7.463
383.09	8.819
383.29	8.169
383.50	10.977
383.71	9.234
383.91	8.470
384.12	8.433
384.32	10.268
384.53	9.956
384.73	7.368
384.94	7.413
385.14	8.489
385.35	7.902
385.55	8.479
385.76	8.041
385.96	9.001
386.17	8.772
386.37	9.785
386.58	8.221
386.78	9.811
386.99	7.216
387.19	9.542
387.40	7.924
387.60	11.039
387.81	7.403
388.01	8.335
388.22	9.206
388.42	10.177
388.63	10.009
388.83	9.757
389.04	7.188
389.24	8.855
389.45	8.671
389.65	7.579
389.86	8.367
390.06	8.409
390.27	7.865
390.47	7.539
390.68	7.376
390.88	10.168
391.09	9.277
391.29	10.708
391.50	7.133
391.70	9.436
391.91	7.144
392.11	7.339
392.32	8.710
392.52	8.220
392.73	8.023
392.93	8.495
393.14	8.716
393.34	9.037
393.55	9.273
393.75	9.060
393.95	8.542
394.16	7.524
394.36	9.304
394.57	8.973
394.77	8.581
394.98	7.989
395.18	8.602
395.39	7.672
395.59	8.743
395.80	8.865
396.00	7.282
396.21	9.590
396.41	6.732
396.61	9.414
396.82	9.574
397.02	11.018
397.23	9.651
397.43	9.258
397.64	7.058
397.84	11.308
398.05	6.744
398.25	8.385
398.45	7.729
398.66	9.820
398.86	7.496
399.07	10.605
399.27	8.234
399.48	8.684
399.68	7.243
399.89	7.951
400.09	8.645
400.29	7.929
400.50	8.715
400.70	9.474
400.91	8.209
401.11	7.795
401.32	8.048
401.52	6.572
401.72	7.555
401.93	11.051
402.13	8.459
402.34	8.414
402.54	8.557
402.75	10.994
402.95	6.714
403.15	9.280
403.36	6.518
403.56	8.236
403.77	7.573
403.97	9.424
404.17	6.966
404.38	8.950
404.58	6.942
404.79	8.959
404.99	8.122
405.19	7.893
405.40	8.060
405.60	8.320
405.81	7.156
406.01	8.076
406.21	7.794
406.42	7.986
406.62	8.699
406.83	9.088
407.03	9.725
407.23	6.991
407.44	6.879
407.64	9.025
407.85	7.359
408.05	8.289
408.25	6.873
408.46	9.283
408.66	8.950
408.87	7.666
409.07	7.469
409.27	6.949
409.48	7.905
409.68	8.748
409.88	6.265
410.09	8.810
410.29	8.711
410.50	10.361
410.70	6.659
410.90	8.378
411.11	6.835
411.31	6.753
411.51	8.080
411.72	9.673
411.92	6.249
412.12	6.735
412.33	6.665
412.53	8.089
412.74	6.264
412.94	8.427
413.14	8.342
413.35	7.457
413.55	7.334
413.75	9.496
413.96	6.920
414.16	8.288
414.36	6.893
414.57	6.921
414.77	5.979
414.97	9.120
415.18	7.608
415.38	7.704
415.58	7.304
415.79	6.382
415.99	6.569
416.19	8.194
416.40	7.789
416.60	7.238
416.80	6.914
417.01	7.995
417.21	5.943
417.41	9.320
417.62	7.486
417.82	6.987
418.02	6.141
418.23	8.655
418.43	7.582
418.63	7.491
418.84	8.376
419.04	7.587
419.24	8.011
419.45	8.188
419.65	7.543
419.85	8.446
420.06	8.496
420.26	9.057
420.46	8.095
420.67	8.522
420.87	8.653
421.07	9.325
421.28	8.204
421.48	9.025
421.68	8.052
421.88	9.638
422.09	8.829
422.29	9.360
422.49	8.134
422.70	8.823
422.90	9.012
423.10	9.111
423.31	8.504
423.51	9.670
423.71	7.863
423.91	8.810
424.12	8.719
424.32	9.587
424.52	8.375
424.73	8.845
424.93	8.636
425.13	8.500
425.33	8.266
425.54	9.637
425.74	8.965
425.94	9.522
426.15	8.269
426.35	8.782
426.55	8.669
426.75	9.081
426.96	8.990
427.16	8.854
427.36	8.673
427.57	9.307
427.77	7.969
427.97	8.960
428.17	9.202
428.38	9.211
428.58	6.683
428.78	8.866
428.98	7.396
429.19	7.821
429.39	5.442
429.59	7.489
429.79	6.217
430.00	7.226
430.20	6.503
430.40	7.709
430.60	6.995
430.81	7.801
431.01	7.073
431.21	7.692
431.41	6.117
431.62	8.039
431.82	6.753
432.02	8.173
432.22	6.759
432.43	6.731
432.63	6.029
432.83	7.569
433.03	6.631
433.24	7.376
433.44	6.536
433.64	8.484
433.84	6.690
434.05	7.599
434.25	7.361
434.45	8.835
434.65	8.227
434.85	9.013
435.06	7.976
435.26	8.239
435.46	7.697
435.66	8.152
435.87	7.633
436.07	8.333
436.27	7.310
436.47	6.903
436.67	6.240
436.88	8.028
437.08	7.627
437.28	7.484
437.48	7.033
437.69	8.853
437.89	7.227
438.09	8.630
438.29	6.900
438.49	8.243
438.70	6.682
438.90	6.876
439.10	6.588
439.30	7.885
439.50	5.852
439.71	7.860
439.91	7.145
440.11	8.508
440.31	7.517
440.51	8.007
440.72	7.108
440.92	7.678
441.12	7.940
441.32	8.772
441.52	8.701
441.72	8.187
441.93	7.465
442.13	9.474
442.33	7.994
442.53	9.727
442.73	7.197
442.94	8.286
443.14	7.915
443.34	9.207
443.54	8.163
443.74	8.874
443.94	7.701
444.15	7.319
444.35	7.136
444.55	7.950
444.75	7.736
444.95	7.770
445.15	7.684
445.36	8.271
445.56	6.110
445.76	8.305
445.96	7.611
446.16	7.374
446.36	6.648
446.57	8.303
446.77	6.910
446.97	8.707
447.17	8.652
447.37	7.902
447.57	8.449
447.77	8.453
447.98	8.016
448.18	8.340
448.38	7.907
448.58	8.772
448.78	8.364
448.98	8.679
449.18	7.665
449.39	8.036
449.59	7.882
449.79	7.650
449.99	7.803
450.19	8.532
450.39	7.904
450.59	8.202
450.79	7.569
451.00	8.578
451.20	9.009
451.40	9.221
451.60	7.337
451.80	8.200
452.00	7.287
452.20	7.669
452.40	7.798
452.61	6.663
452.81	7.121
453.01	8.140
453.21	6.072
453.41	7.537
453.61	6.878
453.81	7.199
454.01	8.008
454.21	7.084
454.42	7.864
454.62	7.034
454.82	7.231
455.02	6.949
455.22	6.422
455.42	6.981
455.62	5.326
455.82	7.266
456.02	6.276
456.23	7.110
456.43	6.802
456.63	7.289
456.83	5.882
457.03	7.973
457.23	6.589
457.43	7.875
457.63	6.366
457.83	7.338
458.03	6.886
458.23	8.186
458.43	5.951
458.64	6.817
458.84	7.019
459.04	7.009
459.24	7.188
459.44	7.265
459.64	7.280
459.84	7.599
460.04	7.087
460.24	7.914
460.44	7.792
460.64	8.564
460.84	7.465
461.04	8.555
461.24	8.158
461.45	9.082
461.65	8.347
461.85	8.572
462.05	8.613
462.25	8.531
462.45	9.481
462.65	8.512
462.85	6.740
463.05	8.233
463.25	6.293
463.45	7.902
463.65	7.293
463.85	7.509
464.05	6.793
464.25	7.582
464.45	7.416
464.65	7.548
464.85	6.301
465.05	6.768
465.26	7.551
465.46	7.640
465.66	8.008
465.86	7.360
466.06	7.051
466.26	7.360
466.46	5.860
466.66	7.754
466.86	7.039
467.06	7.751
467.26	7.452
467.46	8.047
467.66	7.485
467.86	7.593
468.06	7.452
468.26	7.525
468.46	7.598
468.66	7.404
468.86	6.114
469.06	8.920
469.26	6.348
469.46	7.433
469.66	6.658
469.86	8.088
470.06	6.775
470.26	8.105
470.46	6.226
470.66	8.395
470.86	6.478
471.06	7.742
471.26	5.990
471.46	6.924
471.66	7.063
471.86	7.202
472.06	5.956
472.26	9.124
472.46	8.260
472.66	8.242
472.86	6.845
473.06	7.394
473.26	6.864
473.46	7.428
473.66	6.613
473.86	7.937
474.06	5.811
474.26	8.210
474.46	6.250
474.66	8.516
474.86	7.393
475.06	8.093
475.26	5.592
475.46	7.990
475.66	6.163
475.86	7.511
476.06	6.926
476.26	7.976
476.46	6.245
476.66	8.129
476.86	6.015
477.06	7.545
477.26	6.627
477.46	7.496
477.65	7.059
477.85	8.270
478.05	5.401
478.25	8.258
478.45	7.128
478.65	7.755
478.85	6.283
479.05	8.333
479.25	7.763
479.45	8.234
479.65	6.868
479.85	7.359
480.05	7.444
480.25	8.215
480.45	7.668
480.65	8.650
480.85	7.193
481.05	8.055
481.25	8.192
481.44	7.912
481.64	6.785
481.84	8.556
482.04	8.257
482.24	8.445
482.44	7.431
482.64	8.083
482.84	8.100
483.04	8.210
483.24	8.156
483.44	8.137
483.64	7.949
483.84	8.183
484.04	8.008
484.23	8.276
484.43	8.327
484.63	9.272
484.83	9.362
485.03	9.892
485.23	9.924
485.43	10.015
485.63	9.807
485.83	9.564
486.03	9.086
486.23	9.627
486.42	9.194
486.62	9.354
486.82	9.011
487.02	9.138
487.22	8.832
487.42	8.413
487.62	8.193
487.82	8.712
488.02	8.482
488.22	8.547
488.41	8.607
488.61	8.733
488.81	8.660
489.01	8.986
489.21	8.757
489.41	9.056
489.61	8.797
489.81	9.565
490.01	9.333
490.20	9.413
490.40	9.170
490.60	9.232
490.80	9.046
491.00	9.328
491.20	8.320
491.40	8.349
491.60	8.194
491.79	8.344
491.99	8.460
492.19	8.685
492.39	8.417
492.59	8.605
492.79	8.879
492.99	8.907
493.19	8.955
493.38	9.038
493.58	8.879
493.78	9.500
493.98	9.687
494.18	9.837
494.38	9.374
494.58	9.726
494.77	8.155
494.97	9.132
495.17	8.282
495.37	8.924
495.57	7.478
495.77	8.610
495.96	8.286
496.16	8.649
496.36	8.472
496.56	8.332
496.76	7.445
496.96	8.387
497.15	8.072
497.35	9.068
497.55	7.515
497.75	8.551
497.95	8.136
498.15	9.284
498.34	7.777
498.54	8.657
498.74	8.870
498.94	9.234
499.14	8.115
499.34	9.201
499.53	8.952
499.73	9.040
499.93	8.132
500.13	8.786
500.33	7.259
500.52	8.751
500.72	8.032
500.92	8.106
501.12	7.570
501.32	8.499
501.52	7.992
501.71	8.266
501.91	7.301
502.11	8.774
502.31	7.553
502.51	9.009
502.70	7.240
502.90	8.557
503.10	7.595
503.30	9.079
503.50	8.287
503.69	8.700
503.89	8.131
504.09	8.717
504.29	8.010
504.48	8.491
504.68	9.078
504.88	9.104
505.08	7.396
505.28	8.570
505.47	8.282
505.67	9.104
505.87	8.148
506.07	8.692
506.27	8.302
506.46	9.319
506.66	8.252
506.86	8.929
507.06	9.317
507.25	8.624
507.45	8.660
507.65	8.998
507.85	7.519
508.04	9.475
508.24	8.881
508.44	9.428
508.64	7.964
508.83	9.283
509.03	7.730
509.23	8.844
509.43	8.195
509.63	9.104
509.82	8.483
510.02	9.432
510.22	8.850
510.42	9.520
510.61	9.401
510.81	9.579
511.01	8.410
511.21	10.360
511.40	8.383
511.60	9.210
511.80	8.749
511.99	9.773
512.19	8.657
512.39	9.495
512.59	8.762
512.78	9.970
512.98	9.940
513.18	9.523
513.38	9.052
513.57	10.159
513.77	9.283
513.97	9.846
514.17	9.290
514.36	9.352
514.56	9.312
514.76	10.165
514.95	8.247
515.15	9.493
515.35	8.213
515.55	10.066
515.74	9.433
515.94	10.688
516.14	8.605
516.33	9.751
516.53	8.618
516.73	9.349
516.93	9.100
517.12	9.924
517.32	8.419
517.52	10.235
517.71	8.850
517.91	9.543
518.11	9.293
518.30	9.333
518.50	8.446
518.70	9.631
518.90	9.027
519.09	9.847
519.29	9.571
519.49	9.726
519.68	10.290
519.88	9.916
520.08	9.668
520.27	9.986
520.47	9.672
520.67	10.403
520.86	10.013
521.06	10.268
521.26	9.575
521.45	10.709
521.65	9.992
521.85	9.568
522.04	9.675
522.24	9.850
522.44	9.480
522.63	9.926
522.83	9.305
523.03	10.473
523.22	9.237
523.42	10.245
523.62	10.190
523.81	10.242
524.01	10.399
524.21	9.947
524.40	9.305
524.60	9.816
524.80	9.024
524.99	9.554
525.19	9.489
525.39	9.626
525.58	10.051
525.78	9.540
525.98	9.515
526.17	10.055
526.37	9.719
526.57	10.402
526.76	10.014
526.96	9.767
527.15	9.536
527.35	9.818
527.55	9.530
527.74	10.057
527.94	10.118
528.14	9.567
528.33	9.305
528.53	9.536
528.72	9.371
528.92	9.426
529.12	9.511
529.31	9.737
529.51	10.127
529.71	10.172
529.90	10.018
530.10	10.134
530.29	10.297
530.49	10.661
530.69	10.778
530.88	10.838
531.08	10.391
531.28	10.607
531.47	10.442
531.67	10.499
531.86	10.461
532.06	10.503
532.26	10.096
532.45	10.179
532.65	10.206
532.84	10.176
533.04	9.819
533.24	9.805
533.43	9.929
533.63	9.951
533.82	10.086
534.02	10.348
534.22	10.365
534.41	10.182
534.61	10.730
534.80	10.422
535.00	10.588
535.19	11.075
535.39	11.378
535.59	11.057
535.78	10.642
535.98	10.303
536.17	10.298
536.37	10.679
536.57	10.368
536.76	10.272
536.96	10.487
537.15	10.631
537.35	9.809
537.54	10.788
537.74	10.696
537.93	10.855
538.13	10.498
538.33	11.372
538.52	10.494
538.72	11.456
538.91	11.297
539.11	11.213
539.30	10.385
539.50	11.134
539.70	10.683
539.89	10.661
540.09	10.623
540.28	11.297
540.48	10.129
540.67	10.688
540.87	9.977
541.06	9.943
541.26	10.153
541.45	10.416
541.65	10.243
541.85	10.704
542.04	10.706
542.24	10.883
542.43	10.589
542.63	10.870
542.82	11.038
543.02	11.097
543.21	11.155
543.41	11.184
543.60	10.990
543.80	11.498
543.99	11.284
544.19	11.315
544.38	11.158
544.58	11.394
544.77	11.265
544.97	11.648
545.16	10.640
545.36	11.487
545.56	10.910
545.75	12.065
545.95	11.177
546.14	11.513
546.34	11.416
546.53	11.401
546.73	11.508
546.92	11.395
547.12	11.113
547.31	11.854
547.51	11.735
547.70	11.323
547.90	11.303
548.09	12.190
548.29	11.728
548.48	12.241
548.68	11.355
548.87	12.051
549.07	12.298
549.26	11.758
549.46	11.803
549.65	11.791
549.84	11.703
550.04	12.085
550.23	11.259
550.43	11.486
550.62	11.124
550.82	12.299
551.01	10.933
551.21	11.579
551.40	11.056
551.60	12.172
551.79	11.615
551.99	11.910
552.18	11.117
552.38	12.322
552.57	11.447
552.77	12.717
552.96	11.397
553.16	12.583
553.35	12.230
553.54	12.790
553.74	12.240
553.93	13.028
554.13	11.980
554.32	12.894
554.52	12.051
554.71	13.267
554.91	11.753
555.10	12.961
555.29	11.238
555.49	13.592
555.68	12.460
555.88	13.678
556.07	11.536
556.27	13.527
556.46	12.683
556.66	13.406
556.85	12.707
557.04	13.872
557.24	13.184
557.43	13.426
557.63	13.254
557.82	13.463
558.02	13.222
558.21	13.947
558.40	13.333
558.60	14.357
558.79	12.686
558.99	14.524
559.18	12.641
559.38	13.492
559.57	14.105
559.76	14.136
559.96	14.045
560.15	14.351
560.35	13.525
560.54	13.752
560.73	12.965
560.93	14.556
561.12	13.712
561.32	14.399
561.51	14.730
561.70	15.309
561.90	14.136
562.09	15.024
562.29	14.004
562.48	14.648
562.67	13.631
562.87	16.182
563.06	14.238
563.26	14.234
563.45	14.827
563.64	15.190
563.84	14.823
564.03	15.647
564.23	14.141
564.42	15.725
564.61	15.019
564.81	15.836
565.00	16.013
565.20	15.406
565.39	15.861
565.58	15.665
565.78	14.976
565.97	15.751
566.16	15.961
566.36	15.759
566.55	15.282
566.74	15.971
566.94	15.493
567.13	15.836
567.33	15.704
567.52	15.759
567.71	16.116
567.91	16.633
568.10	16.232
568.29	16.678
568.49	15.962
568.68	16.516
568.87	16.316
569.07	17.167
569.26	16.343
569.45	17.219
569.65	16.482
569.84	16.589
570.04	16.016
570.23	17.012
570.42	16.372
570.62	17.308
570.81	16.665
571.00	16.791
571.20	16.747
571.39	16.383
571.58	16.833
571.78	16.585
571.97	16.078
572.16	17.069
572.36	16.346
572.55	17.620
572.74	17.026
572.94	17.339
573.13	16.791
573.32	17.242
573.51	16.715
573.71	17.734
573.90	16.598
574.09	17.008
574.29	18.095
574.48	17.702
574.67	16.979
574.87	17.380
575.06	17.458
575.25	17.113
575.45	16.548
575.64	16.768
575.83	16.600
576.03	18.216
576.22	17.348
576.41	17.654
576.60	16.731
576.80	17.520
576.99	17.635
577.18	17.837
577.38	16.923
577.57	18.142
577.76	17.785
577.95	17.068
578.15	16.393
578.34	17.796
578.53	17.040
578.73	17.724
578.92	17.491
579.11	17.195
579.30	17.976
579.50	16.810
579.69	17.945
579.88	17.702
580.08	17.101
580.27	18.115
580.46	17.900
580.65	17.191
580.85	17.579
581.04	17.227
581.23	16.809
581.42	16.662
581.62	17.019
581.81	17.292
582.00	17.195
582.19	16.804
582.39	17.442
582.58	17.553
582.77	16.795
582.96	17.552
583.16	16.445
583.35	17.273
583.54	16.442
583.73	17.821
583.93	17.493
584.12	17.083
584.31	16.927
584.50	17.417
584.70	16.788
584.89	17.291
585.08	16.092
585.27	17.419
585.47	16.472
585.66	17.199
585.85	15.822
586.04	17.381
586.24	15.406
586.43	16.236
586.62	15.730
586.81	17.153
587.00	15.533
587.20	17.330
587.39	15.333
587.58	16.851
587.77	16.044
587.97	15.612
588.16	16.975
588.35	16.963
588.54	16.248
588.73	16.682
588.93	16.517
589.12	16.685
589.31	16.100
589.50	16.912
589.69	16.929
589.89	15.573
590.08	14.914
590.27	16.513
590.46	16.393
590.65	16.976
590.85	16.090
591.04	16.420
591.23	16.101
591.42	17.075
591.61	15.379
591.81	16.690
592.00	15.314
592.19	17.239
592.38	15.713
592.57	16.825
592.77	16.230
592.96	17.446
593.15	18.325
593.34	16.174
593.53	17.082
593.72	16.886
593.92	16.099
594.11	17.247
594.30	15.359
594.49	17.286
594.68	15.916
594.87	17.079
595.07	15.748
595.26	17.323
595.45	16.611
595.64	17.108
595.83	15.801
596.02	17.669
596.22	15.931
596.41	17.376
596.60	16.306
596.79	16.388
596.98	17.018
597.17	16.814
597.37	16.922
597.56	17.812
597.75	17.181
597.94	17.496
598.13	17.401
598.32	16.797
598.51	16.894
598.71	18.863
598.90	17.236
599.09	16.840
599.28	17.352
599.47	17.860
599.66	16.227
599.85	18.189
600.05	17.238
600.24	17.991
600.43	17.159
600.62	18.376
600.81	17.654
601.00	17.772
601.19	17.579
601.38	18.280
601.58	15.474
601.77	17.196
601.96	17.002
602.15	17.683
602.34	17.495
602.53	18.085
602.72	16.571
602.91	17.991
603.10	17.118
603.30	18.254
603.49	17.125
603.68	18.084
603.87	17.035
604.06	17.894
604.25	16.768
604.44	18.122
604.63	17.051
604.82	18.685
605.01	17.199
605.21	18.270
605.40	17.215
605.59	17.054
605.78	17.641
605.97	17.852
606.16	17.598
606.35	17.380
606.54	18.849
606.73	19.307
606.92	18.088
607.11	19.573
607.30	17.326
607.50	18.371
607.69	17.159
607.88	18.502
608.07	16.061
608.26	18.047
608.45	18.122
608.64	17.729
608.83	15.681
609.02	17.557
609.21	17.699
609.40	19.097
609.59	17.067
609.78	18.278
609.97	16.518
610.16	17.432
610.35	17.275
610.55	17.237
610.74	17.764
610.93	17.941
611.12	17.181
611.31	17.569
611.50	17.328
611.69	17.068
611.88	17.975
612.07	17.833
612.26	16.433
612.45	17.499
612.64	16.184
612.83	18.437
613.02	16.377
613.21	16.320
613.40	16.434
613.59	18.519
613.78	15.219
613.97	17.228
614.16	16.113
614.35	16.031
614.54	14.575
614.73	16.047
614.92	16.124
615.11	15.475
615.30	15.632
615.49	16.241
615.68	15.842
615.87	15.669
616.07	14.664
616.26	15.541
616.45	15.323
616.64	16.053
616.83	15.517
617.02	16.364
617.21	14.306
617.40	14.971
617.59	14.667
617.78	14.888
617.97	14.917
618.16	14.695
618.35	14.198
618.54	15.539
618.73	14.571
618.92	15.061
619.11	13.201
619.30	16.303
619.49	13.007
619.68	15.120
619.86	14.245
620.05	14.472
620.24	13.975
620.43	15.392
620.62	12.815
620.81	14.966
621.00	14.757
621.19	16.611
621.38	14.100
621.57	15.123
621.76	13.709
621.95	15.292
622.14	14.347
622.33	15.124
622.52	13.944
622.71	15.590
622.90	13.425
623.09	15.042
623.28	12.900
623.47	14.301
623.66	13.917
623.85	14.723
624.04	12.915
624.23	14.386
624.42	13.826
624.61	13.414
624.80	11.483
624.99	15.796
625.18	12.075
625.36	15.167
625.55	13.005
625.74	13.949
625.93	12.567
626.12	14.621
626.31	14.913
626.50	14.770
626.69	13.464
626.88	15.490
627.07	15.020
627.26	14.565
627.45	14.410
627.64	14.215
627.83	13.220
628.02	15.451
628.20	14.192
628.39	14.537
628.58	14.293
628.77	14.101
628.96	13.603
629.15	14.392
629.34	12.861
629.53	13.693
629.72	13.962
629.91	14.419
630.10	14.480
630.29	13.453
630.47	14.099
630.66	13.393
630.85	11.723
631.04	14.216
631.23	14.867
631.42	15.009
631.61	13.596
631.80	15.186
631.99	14.253
632.18	14.059
632.36	12.807
632.55	15.701
632.74	12.838
632.93	13.785
633.12	13.482
633.31	13.406
633.50	12.036
633.69	13.284
633.88	12.162
634.06	14.109
634.25	12.492
634.44	12.478
634.63	13.026
634.82	14.381
635.01	12.278
635.20	12.868
635.39	12.006
635.57	13.351
635.76	12.139
635.95	12.100
636.14	11.678
636.33	14.370
636.52	12.950
636.71	13.695
636.89	12.920
637.08	14.135
637.27	11.719
637.46	12.939
637.65	13.005
637.84	12.470
638.03	12.317
638.21	14.659
638.40	13.971
638.59	12.773
638.78	12.228
638.97	13.105
639.16	14.552
639.34	12.381
639.53	10.671
639.72	13.523
639.91	11.288
640.10	10.850
640.29	13.781
640.47	13.712
640.66	12.081
640.85	15.140
641.04	11.394
641.23	11.272
641.42	11.356
641.60	13.549
641.79	12.011
641.98	12.452
642.17	11.442
642.36	12.315
642.54	12.256
642.73	13.635
642.92	10.970
643.11	12.671
643.30	10.157
643.49	12.510
643.67	10.204
643.86	13.652
644.05	11.690
644.24	13.095
644.43	10.993
644.61	12.405
644.80	11.746
644.99	11.782
645.18	13.231
645.37	12.424
645.55	10.511
645.74	12.387
645.93	13.081
646.12	12.923
646.31	11.514
646.49	13.049
646.68	12.149
646.87	12.755
647.06	12.598
647.24	14.271
647.43	10.794
647.62	13.756
647.81	10.083
648.00	13.307
648.18	10.637
648.37	10.684
648.56	12.071
648.75	13.673
648.93	11.302
649.12	12.710
649.31	12.243
649.50	13.187
649.68	11.731
649.87	12.409
650.06	11.534
650.25	11.752
650.43	11.724
650.62	11.179
650.81	11.128
651.00	11.494
651.18	11.436
651.37	13.531
651.56	11.882
651.75	12.775
651.93	9.992
652.12	12.836
652.31	9.768
652.50	11.569
652.68	12.481
652.87	13.958
653.06	12.910
653.25	12.935
653.43	11.383
653.62	12.255
653.81	12.156
654.00	12.711
654.18	11.162
654.37	13.485
654.56	9.706
654.74	10.278
654.93	10.160
655.12	10.059
655.31	10.812
655.49	12.079
655.68	10.343
655.87	8.359
656.05	8.618
656.24	11.205
656.43	9.088
656.62	11.910
656.80	10.606
656.99	10.212
657.18	10.920
657.36	11.869
657.55	10.661
657.74	10.858
657.93	10.713
658.11	12.054
658.30	11.511
658.49	9.562
658.67	10.735
658.86	10.207
659.05	10.065
659.23	11.565
659.42	9.126
659.61	10.604
659.79	9.723
659.98	10.036
660.17	10.386
660.35	10.052
660.54	9.829
660.73	12.753
660.91	10.282
661.10	9.471
661.29	8.505
661.47	9.726
661.66	8.737
661.85	9.844
662.03	9.405
662.22	7.974
662.41	7.279
662.59	9.515
662.78	8.174
662.97	7.632
663.15	7.019
663.34	8.987
663.53	7.841
663.71	9.542
663.90	8.641
664.09	7.433
664.27	9.606
664.46	9.435
664.65	8.050
664.83	8.387
665.02	7.747
665.21	8.750
665.39	5.958
665.58	9.364
665.77	8.945
665.95	8.105
666.14	7.893
666.32	9.580
666.51	7.228
666.70	5.658
666.88	7.910
667.07	6.757
667.26	8.065
667.44	7.745
667.63	8.660
667.81	8.074
668.00	8.283
668.19	9.049
668.37	9.491
668.56	11.700
668.75	6.851
668.93	10.738
669.12	7.925
669.30	9.260
669.49	5.886
669.68	8.278
669.86	9.122
670.05	7.321
670.23	7.659
670.42	8.349
670.61	8.968
670.79	8.352
670.98	8.812
671.16	9.258
671.35	7.336
671.54	8.620
671.72	8.481
671.91	9.549
672.09	8.207
672.28	10.781
672.46	10.313
672.65	9.193
672.84	10.040
673.02	10.142
673.21	6.997
673.39	8.066
673.58	10.516
673.77	9.326
673.95	7.684
674.14	10.327
674.32	9.557
674.51	11.057
674.69	7.216
674.88	9.598
675.07	7.815
675.25	10.952
675.44	8.511
675.62	8.715
675.81	8.514
675.99	13.725
676.18	8.551
676.36	9.366
676.55	9.512
676.74	10.941
676.92	11.054
677.11	6.925
677.29	7.903
677.48	12.509
677.66	11.603
677.85	7.546
678.03	10.554
678.22	11.996
678.40	8.057
678.59	8.131
678.78	8.482
678.96	8.266
679.15	9.398
679.33	10.513
679.52	11.600
679.70	9.354
679.89	9.639
680.07	10.931
680.26	6.987
680.44	11.140
680.63	10.338
680.81	9.401
681.00	8.378
681.18	8.121
681.37	8.820
681.55	11.108
681.74	9.950
681.92	11.099
682.11	9.776
682.29	9.174
682.48	8.615
682.66	9.333
682.85	11.098
683.03	10.068
683.22	11.508
683.40	11.101
683.59	10.069
683.77	10.142
683.96	8.887
684.14	12.167
684.33	8.905
684.51	13.596
684.70	12.204
684.88	13.561
685.07	9.951
685.25	11.426
685.44	9.895
685.62	10.666
685.81	10.712
685.99	12.432
686.18	10.205
686.36	11.685
686.55	9.436
686.73	11.531
686.92	13.641
687.10	10.309
687.29	12.495
687.47	12.169
687.65	14.291
687.84	11.491
688.02	15.869
688.21	15.303
688.39	9.234
688.58	14.260
688.76	12.325
688.95	13.752
689.13	12.522
689.32	15.396
689.50	12.572
689.68	15.867
689.87	12.577
690.05	14.463
690.24	13.455
690.42	15.414
690.61	15.776
690.79	17.457
690.98	14.851
691.16	15.365
691.34	12.152
691.53	15.170
691.71	12.309
691.90	15.753
692.08	13.942
692.27	18.073
692.45	17.860
692.63	17.820
692.82	17.903
693.00	18.102
693.19	14.315
693.37	18.393
693.56	19.535
693.74	19.267
693.92	15.150
694.11	18.999
694.29	19.161
694.48	20.602
694.66	20.180
694.84	21.703
695.03	18.232
695.21	23.989
695.40	24.575
695.58	24.513
695.76	20.690
695.95	24.233
696.13	19.542
696.32	24.562
696.50	29.883
696.68	25.975
696.87	24.125
697.05	25.505
697.24	25.868
697.42	28.815
697.60	25.162
697.79	29.501
697.97	28.566
698.16	29.549
698.34	25.500
698.52	29.444
698.71	26.883
698.89	30.315
699.07	28.035
699.26	30.642
699.44	28.114
699.63	30.933
699.81	29.316
699.99	31.264
700.18	30.528
700.36	31.817
700.54	30.083
700.73	31.550
700.91	32.989
701.09	33.964
701.28	31.956
701.46	32.306
701.64	32.519
701.83	35.648
702.01	31.300
702.20	36.641
702.38	33.870
702.56	36.308
702.75	35.374
702.93	36.344
703.11	37.221
703.30	38.527
703.48	35.860
703.66	38.578
703.85	37.453
704.03	40.818
704.21	38.250
704.40	40.127
704.58	38.086
704.76	40.010
704.95	39.363
705.13	37.512
705.31	40.862
705.50	40.508
705.68	41.296
705.86	41.588
706.04	40.521
706.23	44.109
706.41	39.684
706.59	43.415
706.78	38.754
706.96	44.890
707.14	45.593
707.33	41.759
707.51	42.376
707.69	46.053
707.88	41.837
708.06	42.190
708.24	41.037
708.42	43.543
708.61	40.972
708.79	44.004
708.97	43.588
709.16	44.450
709.34	45.419
709.52	43.669
709.71	41.531
709.89	42.891
710.07	42.078
710.25	41.458
710.44	42.057
710.62	44.510
710.80	46.056
710.98	47.750
711.17	44.174
711.35	42.347
711.53	42.633
711.72	45.225
711.90	48.814
712.08	45.658
712.26	43.862
712.45	44.430
712.63	45.672
712.81	45.842
712.99	45.438
713.18	44.474
713.36	46.897
713.54	44.379
713.72	42.812
713.91	46.697
714.09	43.861
714.27	47.268
714.45	45.958
714.64	43.984
714.82	45.654
715.00	45.646
715.18	48.697
715.37	47.441
715.55	46.367
715.73	45.143
715.91	46.047
716.10	46.327
716.28	42.728
716.46	49.229
716.64	48.169
716.83	45.570
717.01	44.762
717.19	47.027
717.37	44.961
717.55	43.624
717.74	48.911
717.92	45.821
718.10	42.514
718.28	47.174
718.47	50.392
718.65	48.206
718.83	45.722
719.01	46.581
719.19	46.889
719.38	45.474
719.56	47.760
719.74	47.995
719.92	38.250
720.10	44.241
720.29	47.478
720.47	47.816
720.65	48.268
720.83	52.344
721.01	47.285
721.20	50.032
721.38	45.190
721.56	49.507
721.74	49.111
721.92	50.187
722.11	47.959
722.29	45.849
722.47	50.722
722.65	50.249
722.83	49.412
723.01	50.189
723.20	50.942
723.38	52.312
723.56	45.815
723.74	53.526
723.92	50.419
724.10	49.059
724.29	43.434
724.47	53.028
724.65	45.605
724.83	50.392
725.01	47.341
725.19	49.810
725.38	48.090
725.56	54.228
725.74	48.896
725.92	53.198
726.10	44.531
726.28	51.078
726.46	51.151
726.65	53.654
726.83	55.305
727.01	50.061
727.19	51.014
727.37	48.978
727.55	51.104
727.73	48.014
727.92	48.195
728.10	50.731
728.28	45.388
728.46	50.555
728.64	51.575
728.82	51.656
729.00	49.301
729.19	52.515
729.37	52.326
729.55	52.166
729.73	46.875
729.91	50.178
730.09	50.842
730.27	50.000
730.45	51.971
730.63	52.604
730.82	45.264
731.00	54.371
731.18	50.231
731.36	52.693
731.54	49.559
731.72	54.693
731.90	49.172
732.08	53.341
732.26	51.476
732.45	51.368
732.63	48.676
732.81	52.837
732.99	51.221
733.17	54.883
733.35	50.757
733.53	53.067
733.71	51.712
733.89	50.966
734.07	50.402
734.25	53.958
734.44	49.595
734.62	54.260
734.80	51.065
734.98	55.095
735.16	51.728
735.34	52.945
735.52	54.820
735.70	50.313
735.88	50.261
736.06	56.094
736.24	57.710
736.42	56.285
736.60	56.596
736.78	56.892
736.97	52.371
737.15	60.225
737.33	55.306
737.51	59.857
737.69	55.261
737.87	52.756
738.05	57.050
738.23	56.276
738.41	57.736
738.59	54.513
738.77	56.286
738.95	57.270
739.13	52.405
739.31	50.135
739.49	52.674
739.67	59.084
739.85	55.689
740.03	58.260
740.21	57.082
740.39	58.902
740.57	57.225
740.75	58.579
740.93	54.841
741.11	58.234
741.30	54.086
741.48	57.959
741.66	60.739
741.84	57.927
742.02	56.293
742.20	57.815
742.38	57.011
742.56	59.527
742.74	55.280
742.92	60.703
743.10	51.969
743.28	59.866
743.46	62.153
743.64	59.054
743.82	62.066
744.00	57.705
744.18	58.712
744.36	60.070
744.54	57.672
744.72	61.257
744.90	64.399
745.08	61.512
745.26	54.003
745.44	58.829
745.62	61.783
745.80	55.831
745.98	61.634
746.16	60.933
746.34	61.273
746.52	61.106
746.70	54.352
746.87	58.802
747.05	59.095
747.23	64.670
747.41	61.266
747.59	60.069
747.77	62.608
747.95	59.539
748.13	57.650
748.31	59.355
748.49	62.396
748.67	67.241
748.85	63.523
749.03	62.186
749.21	64.086
749.39	63.530
749.57	55.100
749.75	56.797
749.93	61.969
750.11	60.316
750.29	62.100
750.47	59.776
750.65	58.146
750.83	62.960
751.01	58.556
751.18	55.270
751.36	61.588
751.54	59.351
751.72	64.319
751.90	55.575
752.08	56.484
752.26	59.632
752.44	62.963
752.62	59.075
752.80	57.829
752.98	64.538
753.16	61.476
753.34	58.596
753.52	57.881
753.69	56.408
753.87	56.919
754.05	57.851
754.23	64.641
754.41	61.599
754.59	53.410
754.77	60.017
754.95	59.913
755.13	63.828
755.31	59.562
755.49	59.345
755.66	57.471
755.84	57.422
756.02	57.900
756.20	55.594
756.38	59.528
756.56	62.002
756.74	65.444
756.92	60.187
757.10	62.381
757.28	58.797
757.45	60.548
757.63	60.531
757.81	53.309
757.99	64.410
758.17	56.186
758.35	61.946
758.53	64.259
758.71	62.731
758.88	57.770
759.06	57.942
759.24	50.439
759.42	55.238
759.60	52.622
759.78	51.727
759.96	45.858
760.13	46.784
760.31	45.293
760.49	42.951
760.67	38.115
760.85	46.525
761.03	42.756
761.21	40.569
761.38	37.099
761.56	43.527
761.74	40.862
761.92	40.913
762.10	37.695
762.28	45.765
762.46	41.533
762.63	41.962
762.81	41.371
762.99	41.705
763.17	42.500
763.35	43.174
763.53	35.894
763.70	41.900
763.88	42.274
764.06	40.115
764.24	38.147
764.42	44.396
764.60	43.886
764.77	43.431
764.95	40.086
765.13	45.149
765.31	46.090
765.49	47.153
765.66	42.765
765.84	52.145
766.02	46.394
766.20	48.269
766.38	51.173
766.56	50.145
766.73	50.999
766.91	49.280
767.09	51.934
767.27	52.588
767.45	48.434
767.62	54.498
767.80	56.267
767.98	58.530
768.16	54.286
768.33	56.873
768.51	54.510
768.69	59.560
768.87	55.832
769.05	59.698
769.22	56.132
769.40	59.448
769.58	56.046
769.76	55.912
769.94	58.916
770.11	61.447
770.29	61.597
770.47	69.541
770.65	58.824
770.82	66.473
771.00	59.930
771.18	64.648
771.36	59.715
771.53	63.793
771.71	62.636
771.89	67.643
772.07	58.904
772.25	60.070
772.42	56.486
772.60	59.139
772.78	61.916
772.96	64.614
773.13	61.754
773.31	62.604
773.49	65.293
773.67	65.253
773.84	57.213
774.02	69.434
774.20	61.148
774.37	66.354
774.55	66.371
774.73	71.708
774.91	59.046
775.08	68.157
775.26	64.891
775.44	63.469
775.62	67.509
775.79	70.053
775.97	66.892
776.15	60.610
776.32	57.181
776.50	71.171
776.68	76.409
776.86	62.375
777.03	66.309
777.21	64.257
777.39	61.988
777.56	64.543
777.74	65.821
777.92	61.073
778.10	63.598
778.27	65.182
778.45	65.857
778.63	65.694
778.80	61.752
778.98	68.613
779.16	75.146
779.34	65.315
779.51	65.765
779.69	66.713
779.87	67.082
780.04	63.760
780.22	68.331
780.40	71.317
780.57	65.823
780.75	68.801
780.93	77.541
781.10	67.169
781.28	74.044
781.46	56.908
781.63	67.548
781.81	69.041
781.99	70.015
782.16	55.994
782.34	58.959
782.52	60.809
782.69	67.643
782.87	68.012
783.05	65.143
783.22	63.810
783.40	56.811
783.58	67.265
783.75	74.892
783.93	67.662
784.11	63.415
784.28	63.208
784.46	57.903
784.64	61.260
784.81	67.147
784.99	66.509
785.17	63.934
785.34	66.283
785.52	58.049
785.69	70.140
785.87	60.371
786.05	65.812
786.22	62.677
786.40	71.217
786.58	66.401
786.75	62.780
786.93	59.494
787.11	68.218
787.28	58.466
787.46	67.752
787.63	70.256
787.81	65.449
787.99	76.059
788.16	53.471
788.34	57.928
788.51	63.181
788.69	61.504
788.87	56.266
789.04	55.182
789.22	61.631
789.39	56.790
789.57	58.724
789.75	59.921
789.92	60.487
790.10	48.473
790.27	65.106
790.45	63.016
790.63	60.414
790.80	59.031
790.98	65.362
791.15	57.530
791.33	59.809
791.51	60.120
791.68	64.976
791.86	66.556
792.03	61.000
792.21	63.228
792.39	64.038
792.56	62.381
792.74	56.366
792.91	62.389
793.09	61.921
793.26	70.775
793.44	68.954
793.62	65.556
793.79	59.902
793.97	64.648
794.14	66.034
794.32	64.607
794.49	60.701
794.67	61.331
794.84	67.135
795.02	69.676
795.20	69.853
795.37	65.997
795.55	62.423
795.72	62.367
795.90	64.824
796.07	60.862
796.25	59.365
796.42	58.087
796.60	61.699
796.77	49.751
796.95	65.710
797.13	51.294
797.30	60.732
797.48	52.819
797.65	61.076
797.83	54.451
798.00	61.327
798.18	54.361
798.35	54.155
798.53	59.333
798.70	48.397
798.88	55.017
799.05	56.231
799.23	57.143
799.40	61.943
799.58	66.323
799.75	67.647
799.93	59.450
800.10	69.275
800.28	64.729
800.45	65.171
800.63	59.712
800.80	71.124
800.98	55.948
801.15	61.770
801.33	63.139
801.50	58.895
801.68	58.960
801.85	61.063
802.03	58.221
802.20	69.101
802.38	53.887
802.55	64.231
802.73	62.783
802.90	56.215
803.08	56.406
803.25	65.962
803.43	55.556
803.60	60.996
803.78	64.030
803.95	65.244
804.13	58.131
804.30	68.369
804.48	60.107
804.65	63.780
804.83	61.383
805.00	56.034
805.17	66.408
805.35	62.879
805.52	56.979
805.70	58.679
805.87	64.325
806.05	59.337
806.22	55.204
806.40	54.143
806.57	57.865
806.75	67.339
806.92	60.175
807.09	65.275
807.27	55.286
807.44	69.466
807.62	56.431
807.79	54.286
807.97	66.785
808.14	63.000
808.31	66.255
808.49	61.122
808.66	58.574
808.84	61.628
809.01	68.153
809.19	66.872
809.36	74.134
809.53	55.357
809.71	57.915
809.88	69.845
810.06	69.094
810.23	71.800
810.41	55.187
810.58	67.653
810.75	61.373
810.93	62.919
811.10	48.421
811.28	56.600
811.45	54.507
811.62	61.798
811.80	66.596
811.97	60.823
812.15	71.992
812.32	55.819
812.49	64.706
812.67	57.021
812.84	60.220
813.02	76.457
813.19	63.657
813.36	64.425
813.54	73.230
813.71	71.364
813.89	59.251
814.06	72.751
814.23	69.954
814.41	69.504
814.58	63.221
814.75	71.007
814.93	72.619
815.10	75.897
815.28	64.461
815.45	61.823
815.62	58.753
815.80	60.046
815.97	60.041
816.14	52.008
816.32	55.257
816.49	63.684
816.66	55.250
816.84	61.780
817.01	61.605
817.18	55.944
817.36	53.547
817.53	53.980
817.71	44.708
817.88	57.045
818.05	59.284
818.23	59.048
818.40	56.132
818.57	55.556
818.75	53.596
818.92	65.733
819.09	54.921
819.27	50.000
819.44	54.871
819.61	46.494
819.79	56.584
819.96	57.030
820.13	50.950
820.31	47.652
820.48	60.987
820.65	50.590
820.82	48.777
821.00	53.139
821.17	40.629
821.34	39.342
821.52	41.948
821.69	42.519
821.86	39.696
822.04	42.615
822.21	35.278
822.38	44.331
822.56	38.038
822.73	39.983
822.90	38.169
823.07	39.877
823.25	38.711
823.42	37.446
823.59	37.936
823.77	41.342
823.94	36.854
824.11	40.038
824.29	38.325
824.46	42.143
824.63	37.688
824.80	40.402
824.98	37.339
825.15	43.700
825.32	31.598
825.49	45.418
825.67	38.068
825.84	43.459
826.01	39.607
826.19	42.255
826.36	35.754
826.53	42.195
826.70	37.542
826.88	40.064
827.05	36.235
827.22	38.540
827.39	34.996
827.57	41.642
827.74	35.761
827.91	40.803
828.08	34.303
828.26	39.704
828.43	35.640
828.60	42.540
828.77	39.649
828.95	38.889
829.12	39.245
829.29	34.606
829.46	34.372
829.64	47.105
829.81	33.678
829.98	38.706
830.15	42.892
830.32	44.767
830.50	43.792
830.67	46.658
830.84	42.537
831.01	44.201
831.19	49.650
831.36	49.797
831.53	52.579
831.70	61.228
831.87	53.099
832.05	54.851
832.22	64.350
832.39	56.087
832.56	56.743
832.74	54.241
832.91	52.954
833.08	66.802
833.25	38.313
833.42	49.223
833.60	43.954
833.77	39.216
833.94	38.995
834.11	35.758
834.28	36.203
834.45	41.440
834.63	34.888
834.80	37.792
834.97	37.970
835.14	42.812
835.31	37.200
835.49	37.281
835.66	36.317
835.83	39.397
836.00	37.738
836.17	40.101
836.34	37.260
836.52	42.237
836.69	46.906
836.86	46.406
837.03	50.084
837.20	45.673
837.37	46.801
837.55	50.796
837.72	53.179
837.89	46.819
838.06	61.298
838.23	61.483
838.40	60.757
838.58	57.867
838.75	60.684
838.92	72.069
839.09	74.074
839.26	72.727
839.43	69.452
839.60	73.913
839.78	81.790
839.95	81.759
840.12	68.038
840.29	76.752
840.46	75.175
840.63	74.118
840.80	67.467
840.98	77.714
841.15	58.250
841.32	56.674
841.49	57.681
841.66	72.404
841.83	57.333
842.00	63.608
842.17	67.397
842.34	58.166
842.52	79.042
842.69	70.126
842.86	75.087
843.03	86.478
843.20	97.959
843.37	80.420
843.54	85.772
843.71	74.694
843.88	85.430
844.06	88.664
844.23	101.932
844.40	93.182
844.57	102.553
844.74	95.197
844.91	113.426
845.08	85.882
845.25	90.146
845.42	94.472
845.59	123.977
845.76	92.727
845.94	153.165
846.11	110.448
846.28	110.345
846.45	115.337
846.62	116.216
846.79	121.667
846.96	94.118
847.13	126.471
847.30	82.828
847.47	117.033
847.64	106.977
847.81	118.132
847.98	110.811
848.15	120.430
848.32	114.948
848.50	137.888
848.67	154.861
848.84	113.636
849.01	109.524
849.18	111.053
849.35	111.518
849.52	116.763
849.69	106.936
849.86	134.356
850.03	130.137
850.20	145.833
850.37	117.857
850.54	135.849
850.71	162.602
850.88	105.594
851.05	143.836
851.22	142.236
851.39	130.412
851.56	114.583
851.73	122.222
851.90	127.500
852.07	104.118
852.24	137.500
852.41	154.015
852.58	121.970
852.75	128.994
852.92	92.935
853.09	120.112
853.26	156.688
853.43	103.182
853.60	98.969
853.77	147.518
853.94	131.818
854.11	161.538
854.28	117.553
854.45	108.392
854.62	145.638
854.79	143.846
854.96	159.420
855.13	97.778
855.30	103.627
855.47	140.000
855.64	163.964
855.81	119.048
855.98	124.000
856.15	100.690
856.32	112.676
856.49	102.283
856.66	138.953
856.83	124.607
857.00	146.721
857.17	179.167
857.34	133.333
857.51	116.026
857.68	127.857
857.85	106.667
858.02	212.162
858.19	110.714
858.36	115.429
858.53	137.143
858.70	122.517
858.87	143.448
859.04	121.831
859.21	93.043
859.38	120.530
859.55	183.333
859.72	168.595
859.89	212.745
860.05	143.411
860.22	151.974
860.39	173.832
860.56	164.220
860.73	110.843
860.90	121.333
861.07	110.383
861.24	136.752
861.41	134.286
861.58	115.764
861.75	163.889
861.92	155.906
862.09	115.663
862.26	177.660
862.43	142.857
862.59	86.154
862.76	128.571
862.93	169.565
863.10	142.069
863.27	103.784
863.44	142.105
863.61	134.706
863.78	151.408
863.95	178.626
864.12	119.444
864.29	132.558
864.45	175.342
864.62	109.774
864.79	133.108
864.96	155.556
865.13	154.962
865.30	164.545
865.47	165.741
865.64	106.250
865.81	127.778
865.97	102.732
866.14	118.571
866.31	131.707
866.48	139.535
866.65	115.000
866.82	151.678
866.99	173.786
867.16	172.857
867.33	151.282
867.49	138.686
867.66	117.961
867.83	148.000
868.00	109.220
868.17	134.091
868.34	147.260
868.51	130.282
868.67	166.942
868.84	153.061
869.01	146.457
869.18	120.155
869.35	227.778
869.52	101.370
869.69	103.053
869.85	116.043
870.02	119.626
870.19	167.227
870.36	139.456
870.53	118.750
870.70	130.814
870.86	96.226
871.03	144.538
871.20	127.152
871.37	102.871
871.54	85.517
871.71	104.321
871.87	116.438
872.04	119.355
872.21	174.194
872.38	115.951
872.55	140.845
872.72	100.465
872.88	114.201
873.05	86.813
873.22	98.810
873.39	121.341
873.56	119.075
873.72	165.672
873.89	130.435
874.06	138.816
874.23	139.831
874.40	123.776
874.56	200.000
874.73	109.783
874.90	118.079
875.07	138.194
875.24	85.549
875.40	86.452
875.57	133.908
875.74	108.000
875.91	153.719
876.08	134.091
876.24	141.558
876.41	143.023
876.58	127.329
876.75	86.905
876.92	146.018
877.08	126.786
877.25	129.114
877.42	125.926
877.59	127.972
877.75	138.255
877.92	125.600
878.09	115.038
878.26	127.922
878.42	155.797
878.59	127.941
878.76	116.026
878.93	105.263
879.09	110.638
879.26	88.108
879.43	112.941
879.60	87.037
879.76	98.693
879.93	120.886
880.10	109.259
880.27	69.266
880.43	101.463
880.60	75.342
880.77	75.758
880.94	66.545
881.10	72.619
881.27	53.067
881.44	52.656
881.61	45.415
881.77	45.833
881.94	36.717
882.11	27.900
882.28	30.694
882.44	34.203
882.61	35.237
882.78	32.244
882.94	33.116
883.11	34.853
883.28	29.812
883.45	32.516
883.61	30.040
883.78	29.104
883.95	35.588
884.11	33.593
884.28	37.173
>>>>>End Processed Spectral Data<<<<<
