SpectraSuite Data File
++++++++++++++++++++++++++++++++++++
Date: Fri Sep 20 03:56:26 EST 2019
User: sgrac
Dark Spectrum Present: Yes
Reference Spectrum Present: Yes
Number of Sampled Component Spectra: 1
Spectrometers: USB4E01596
Integration Time (usec): 100000 (USB4E01596)
Spectra Averaged: 1 (USB4E01596)
Boxcar Smoothing: 0 (USB4E01596)
Correct for Electrical Dark: No (USB4E01596)
Strobe/Lamp Enabled: Yes (USB4E01596)
Correct for Detector Non-linearity: No (USB4E01596)
Correct for Stray Light: No (USB4E01596)
Number of Pixels in Processed Spectrum: 3648
>>>>>Begin Processed Spectral Data<<<<<
178.44	578.261
178.66	578.261
178.87	578.261
179.09	-560.000
179.30	460.000
179.52	728.571
179.74	3700.000
179.95	-382.857
180.17	-768.750
180.38	-875.000
180.60	-503.226
180.82	691.304
181.03	-3850.000
181.25	-1740.000
181.46	-1636.364
181.68	0.000
181.89	15300.000
182.11	1862.500
182.33	1692.308
182.54	-362.857
182.76	304.000
182.97	670.370
183.19	2055.556
183.40	-862.500
183.62	1242.857
183.84	-315.000
184.05	0.000
184.27	16300.000
184.48	850.000
184.70	8500.000
184.91	1438.462
185.13	459.091
185.34	375.926
185.56	-747.619
185.78	700.000
185.99	-8600.000
186.21	510.714
186.42	1233.333
186.64	258.209
186.85	260.494
187.07	695.833
187.28	-305.405
187.50	-600.000
187.72	276.563
187.93	20300.000
188.15	909.091
188.36	373.077
188.58	847.059
188.79	5950.000
189.01	620.588
189.22	1441.667
189.44	374.468
189.65	-865.000
189.87	714.286
190.09	455.556
190.30	-4040.000
190.52	521.951
190.73	666.667
190.95	-1292.308
191.16	-766.667
191.38	-708.696
191.59	1666.667
191.81	317.500
192.02	395.000
192.24	312.698
192.45	491.429
192.67	831.818
192.88	0.000
193.10	514.706
193.31	-1600.000
193.53	279.545
193.74	513.158
193.96	2090.000
194.18	340.580
194.39	358.000
194.61	570.000
194.82	662.069
195.04	1291.667
195.25	387.234
195.47	1126.316
195.68	-1430.000
195.90	4375.000
196.11	3925.000
196.33	-507.407
196.54	624.138
196.76	295.556
196.97	711.111
197.19	-711.111
197.40	505.556
197.62	-1085.714
197.83	1100.000
198.05	531.579
198.26	686.364
198.48	1358.333
198.69	560.000
198.91	1942.857
199.12	502.500
199.34	280.000
199.55	-1300.000
199.77	885.000
199.98	3020.000
200.20	1436.364
200.41	521.212
200.63	-2900.000
200.84	573.171
201.06	-16700.000
201.27	964.706
201.49	362.295
201.70	1023.529
201.91	1168.750
202.13	1065.000
202.34	4425.000
202.56	2214.286
202.77	-2350.000
202.99	933.333
203.20	761.905
203.42	-571.429
203.63	541.935
203.85	-670.833
204.06	5533.333
204.28	-3025.000
204.49	2085.714
204.71	325.000
204.92	1422.222
205.14	0.000
205.35	1160.000
205.56	567.857
205.78	664.103
205.99	378.378
206.21	641.379
206.42	3100.000
206.64	-336.585
206.85	1053.333
207.07	1069.231
207.28	543.333
207.50	-2225.000
207.71	339.535
207.93	7300.000
208.14	-310.811
208.35	513.793
208.57	-837.500
208.78	675.862
209.00	465.789
209.21	0.000
209.43	695.652
209.64	348.837
209.86	1657.143
210.07	1281.818
210.28	557.143
210.50	3320.000
210.71	407.692
210.93	392.105
211.14	290.164
211.36	457.143
211.57	2100.000
211.78	-718.182
212.00	503.846
212.21	-815.789
212.43	548.387
212.64	442.857
212.86	607.143
213.07	600.000
213.29	269.737
213.50	-426.471
213.71	-11900.000
213.93	-1644.444
214.14	760.000
214.36	-2914.286
214.57	230.233
214.78	540.000
215.00	-4633.333
215.21	-2183.333
215.43	-381.818
215.64	950.000
215.86	-3750.000
216.07	790.476
216.28	253.226
216.50	400.000
216.71	-2620.000
216.93	1385.714
217.14	530.556
217.35	223.684
217.57	-686.667
217.78	1527.273
218.00	336.364
218.21	290.164
218.42	324.490
218.64	411.111
218.85	343.103
219.07	352.000
219.28	776.190
219.49	-1372.727
219.71	469.048
219.92	2933.333
220.14	6700.000
220.35	3466.667
220.56	1033.333
220.78	284.127
220.99	2950.000
221.21	437.838
221.42	581.481
221.63	450.000
221.85	16800.000
222.06	462.069
222.28	635.000
222.49	15100.000
222.70	-4766.667
222.92	262.500
223.13	228.986
223.34	327.273
223.56	378.378
223.77	1075.000
223.99	269.231
224.20	157.658
224.41	413.953
224.63	482.353
224.84	640.000
225.05	414.583
225.27	320.370
225.48	251.899
225.69	309.091
225.91	203.896
226.12	290.323
226.34	236.232
226.55	225.000
226.76	228.358
226.98	189.474
227.19	410.000
227.40	165.714
227.62	141.892
227.83	200.000
228.04	296.296
228.26	137.963
228.47	112.500
228.69	64.286
228.90	82.584
229.11	70.115
229.33	58.607
229.54	64.490
229.75	50.570
229.97	49.662
230.18	51.902
230.39	37.647
230.61	44.410
230.82	61.438
231.03	45.170
231.25	50.872
231.46	52.381
231.67	59.189
231.89	72.426
232.10	70.611
232.31	72.558
232.53	79.151
232.74	66.393
232.95	64.322
233.17	80.952
233.38	78.241
233.59	88.824
233.81	89.381
234.02	63.547
234.23	84.946
234.45	116.556
234.66	65.347
234.87	95.930
235.09	73.333
235.30	63.871
235.51	60.776
235.73	77.083
235.94	61.649
236.15	65.672
236.36	72.996
236.58	81.590
236.79	77.992
237.00	62.249
237.22	75.431
237.43	76.296
237.64	75.909
237.86	86.765
238.07	67.331
238.28	79.630
238.50	72.314
238.71	53.191
238.92	71.324
239.13	68.750
239.35	59.447
239.56	56.621
239.77	74.308
239.99	65.625
240.20	62.230
240.41	56.113
240.63	43.077
240.84	63.522
241.05	37.892
241.26	47.965
241.48	50.630
241.69	37.020
241.90	39.780
242.12	24.950
242.33	33.080
242.54	21.553
242.75	29.129
242.97	26.496
243.18	19.809
243.39	17.442
243.61	20.882
243.82	26.942
244.03	18.072
244.24	18.868
244.46	24.571
244.67	23.333
244.88	26.042
245.09	27.848
245.31	23.675
245.52	21.429
245.73	35.806
245.95	45.318
246.16	23.592
246.37	28.523
246.58	25.038
246.80	21.241
247.01	18.713
247.22	16.544
247.43	11.615
247.65	14.930
247.86	14.350
248.07	12.147
248.28	11.451
248.50	11.436
248.71	12.569
248.92	10.248
249.13	12.446
249.35	12.340
249.56	12.767
249.77	15.897
249.98	16.525
250.20	19.791
250.41	18.404
250.62	21.087
250.83	23.623
251.05	21.316
251.26	21.507
251.47	26.136
251.68	22.205
251.90	31.348
252.11	29.064
252.32	31.117
252.53	27.174
252.75	20.612
252.96	18.401
253.17	19.053
253.38	22.447
253.59	18.654
253.81	22.603
254.02	26.453
254.23	15.452
254.44	26.684
254.66	24.017
254.87	21.406
255.08	30.096
255.29	37.163
255.50	32.051
255.72	35.271
255.93	37.562
256.14	36.596
256.35	35.880
256.57	35.110
256.78	33.183
256.99	29.787
257.20	34.639
257.41	27.238
257.63	20.000
257.84	34.301
258.05	31.219
258.26	26.146
258.47	27.554
258.69	24.411
258.90	19.613
259.11	23.312
259.32	22.845
259.53	18.173
259.75	13.293
259.96	11.488
260.17	13.034
260.38	12.612
260.59	9.381
260.81	8.280
261.02	9.403
261.23	10.146
261.44	8.619
261.65	9.980
261.87	10.341
262.08	9.979
262.29	11.683
262.50	9.981
262.71	13.920
262.92	13.647
263.14	13.932
263.35	18.570
263.56	15.969
263.77	18.499
263.98	20.474
264.20	18.064
264.41	20.321
264.62	17.914
264.83	16.975
265.04	26.353
265.25	21.420
265.47	17.725
265.68	19.472
265.89	26.221
266.10	20.152
266.31	21.259
266.52	16.753
266.74	17.322
266.95	16.739
267.16	17.898
267.37	16.596
267.58	21.268
267.79	18.091
268.01	12.912
268.22	12.297
268.43	14.880
268.64	11.807
268.85	16.795
269.06	14.886
269.27	18.634
269.49	13.345
269.70	16.857
269.91	16.422
270.12	14.088
270.33	16.164
270.54	16.445
270.75	12.615
270.97	12.856
271.18	17.197
271.39	16.777
271.60	15.811
271.81	13.727
272.02	14.653
272.23	13.528
272.45	14.349
272.66	12.385
272.87	14.385
273.08	10.871
273.29	12.370
273.50	7.207
273.71	12.681
273.92	10.288
274.14	11.551
274.35	12.106
274.56	9.879
274.77	14.990
274.98	13.881
275.19	10.607
275.40	14.523
275.61	13.344
275.83	18.430
276.04	11.967
276.25	14.344
276.46	14.476
276.67	17.113
276.88	14.405
277.09	18.957
277.30	15.859
277.51	13.122
277.73	12.753
277.94	14.226
278.15	13.808
278.36	17.662
278.57	13.294
278.78	11.501
278.99	9.331
279.20	14.338
279.41	18.603
279.62	13.509
279.84	15.464
280.05	16.740
280.26	12.903
280.47	13.322
280.68	13.525
280.89	16.561
281.10	17.430
281.31	16.953
281.52	16.204
281.73	12.109
281.94	11.796
282.16	17.343
282.37	13.521
282.58	10.480
282.79	12.025
283.00	13.135
283.21	8.920
283.42	11.179
283.63	14.706
283.84	12.401
284.05	12.718
284.26	10.892
284.47	12.475
284.68	11.313
284.89	10.215
285.11	12.970
285.32	10.117
285.53	10.776
285.74	12.464
285.95	9.780
286.16	11.492
286.37	10.594
286.58	9.313
286.79	8.346
287.00	7.255
287.21	10.364
287.42	7.611
287.63	6.215
287.84	8.382
288.05	9.110
288.26	9.238
288.48	12.395
288.69	9.576
288.90	11.118
289.11	14.048
289.32	10.112
289.53	9.334
289.74	11.890
289.95	10.492
290.16	13.867
290.37	9.723
290.58	10.752
290.79	9.785
291.00	11.678
291.21	10.252
291.42	8.800
291.63	8.329
291.84	11.401
292.05	9.418
292.26	7.325
292.47	10.474
292.68	7.781
292.89	10.471
293.10	10.514
293.31	8.849
293.52	9.126
293.73	12.589
293.94	11.478
294.15	12.968
294.36	13.374
294.57	11.939
294.79	10.212
295.00	10.441
295.21	11.912
295.42	7.692
295.63	12.953
295.84	8.499
296.05	10.048
296.26	7.896
296.47	10.677
296.68	7.907
296.89	8.408
297.10	10.769
297.31	9.897
297.52	6.422
297.73	7.304
297.94	6.774
298.15	8.071
298.36	7.668
298.57	6.132
298.78	10.020
298.99	6.087
299.20	7.582
299.41	7.960
299.62	7.625
299.83	8.622
300.04	6.089
300.25	9.810
300.46	9.212
300.67	10.817
300.88	8.958
301.09	8.073
301.30	11.321
301.50	10.809
301.71	12.815
301.92	13.706
302.13	10.429
302.34	9.709
302.55	9.777
302.76	11.440
302.97	10.355
303.18	12.997
303.39	7.679
303.60	9.390
303.81	14.522
304.02	9.773
304.23	8.891
304.44	10.778
304.65	9.009
304.86	11.751
305.07	10.398
305.28	10.876
305.49	9.785
305.70	12.393
305.91	10.745
306.12	8.553
306.33	7.355
306.54	10.955
306.75	10.701
306.96	11.213
307.17	9.878
307.38	12.890
307.58	7.445
307.79	13.615
308.00	11.040
308.21	9.552
308.42	10.653
308.63	9.147
308.84	12.391
309.05	7.813
309.26	10.089
309.47	10.158
309.68	9.746
309.89	11.392
310.10	8.052
310.31	10.720
310.52	5.008
310.73	9.870
310.94	9.925
311.14	6.379
311.35	10.881
311.56	8.300
311.77	7.431
311.98	8.065
312.19	8.821
312.40	8.406
312.61	9.424
312.82	10.073
313.03	10.133
313.24	11.260
313.45	8.167
313.66	9.217
313.86	8.952
314.07	8.651
314.28	11.553
314.49	11.658
314.70	13.624
314.91	14.116
315.12	11.735
315.33	12.097
315.54	8.926
315.75	11.213
315.96	6.927
316.16	8.527
316.37	11.259
316.58	10.829
316.79	11.508
317.00	10.797
317.21	9.717
317.42	9.540
317.63	10.990
317.84	10.520
318.05	10.088
318.25	10.658
318.46	8.616
318.67	13.731
318.88	12.125
319.09	12.042
319.30	11.092
319.51	10.024
319.72	10.048
319.93	10.087
320.13	9.872
320.34	14.269
320.55	10.604
320.76	13.253
320.97	7.341
321.18	14.561
321.39	9.515
321.60	9.039
321.80	13.024
322.01	12.119
322.22	11.280
322.43	9.553
322.64	12.306
322.85	12.873
323.06	12.401
323.27	11.905
323.47	10.136
323.68	13.864
323.89	9.454
324.10	11.379
324.31	11.338
324.52	10.598
324.73	11.534
324.93	10.122
325.14	9.765
325.35	11.491
325.56	10.269
325.77	12.150
325.98	10.116
326.19	11.372
326.39	10.488
326.60	7.704
326.81	8.787
327.02	9.568
327.23	8.074
327.44	11.527
327.64	8.724
327.85	9.863
328.06	10.259
328.27	14.162
328.48	10.786
328.69	8.522
328.90	8.691
329.10	7.642
329.31	12.102
329.52	11.737
329.73	14.117
329.94	8.937
330.15	10.217
330.35	12.507
330.56	11.506
330.77	11.057
330.98	9.495
331.19	10.626
331.39	12.099
331.60	10.638
331.81	8.623
332.02	12.804
332.23	14.148
332.44	11.438
332.64	10.546
332.85	11.111
333.06	10.870
333.27	8.861
333.48	12.147
333.68	11.279
333.89	10.913
334.10	10.303
334.31	11.358
334.52	11.036
334.72	10.607
334.93	12.771
335.14	9.770
335.35	11.885
335.56	13.825
335.76	7.328
335.97	11.288
336.18	8.663
336.39	12.285
336.60	10.955
336.80	10.079
337.01	8.993
337.22	7.624
337.43	11.270
337.64	13.381
337.84	10.906
338.05	11.749
338.26	12.307
338.47	12.836
338.68	8.858
338.88	9.753
339.09	10.118
339.30	11.754
339.51	11.007
339.71	13.154
339.92	8.870
340.13	12.126
340.34	10.477
340.55	9.540
340.75	10.700
340.96	9.109
341.17	11.665
341.38	9.754
341.58	11.187
341.79	10.038
342.00	9.474
342.21	11.053
342.41	10.186
342.62	11.111
342.83	8.993
343.04	8.583
343.24	12.351
343.45	11.111
343.66	11.784
343.87	10.328
344.07	10.118
344.28	11.891
344.49	12.483
344.70	12.063
344.90	9.298
345.11	9.272
345.32	9.317
345.53	11.928
345.73	9.770
345.94	11.494
346.15	11.913
346.36	9.138
346.56	11.156
346.77	10.726
346.98	8.522
347.19	10.380
347.39	9.199
347.60	10.323
347.81	12.983
348.02	10.511
348.22	8.432
348.43	10.522
348.64	7.911
348.84	11.396
349.05	9.675
349.26	11.906
349.47	8.304
349.67	8.463
349.88	11.716
350.09	10.009
350.30	11.702
350.50	10.383
350.71	11.879
350.92	10.796
351.12	11.619
351.33	9.612
351.54	9.948
351.74	9.044
351.95	6.053
352.16	9.326
352.37	11.845
352.57	9.603
352.78	10.542
352.99	7.709
353.19	10.506
353.40	9.181
353.61	11.934
353.82	13.047
354.02	9.366
354.23	10.678
354.44	12.978
354.64	11.009
354.85	11.786
355.06	10.163
355.26	9.050
355.47	10.036
355.68	12.188
355.88	10.413
356.09	8.898
356.30	9.224
356.51	11.119
356.71	10.114
356.92	8.671
357.13	10.280
357.33	12.056
357.54	10.591
357.75	8.569
357.95	10.822
358.16	9.827
358.37	12.240
358.57	9.441
358.78	12.170
358.99	8.933
359.19	9.404
359.40	11.071
359.61	9.712
359.81	13.012
360.02	11.920
360.23	8.668
360.43	9.366
360.64	9.187
360.85	10.071
361.05	7.266
361.26	9.678
361.47	9.017
361.67	10.157
361.88	7.044
362.09	9.091
362.29	7.010
362.50	7.490
362.70	7.002
362.91	10.889
363.12	8.493
363.32	6.725
363.53	8.819
363.74	8.674
363.94	7.614
364.15	9.447
364.36	10.173
364.56	8.176
364.77	10.202
364.98	11.538
365.18	9.421
365.39	10.706
365.59	9.061
365.80	8.038
366.01	11.571
366.21	7.934
366.42	8.659
366.63	10.660
366.83	7.768
367.04	7.310
367.24	12.248
367.45	10.106
367.66	6.566
367.86	9.072
368.07	8.868
368.28	9.822
368.48	7.216
368.69	6.087
368.89	9.489
369.10	8.836
369.31	8.961
369.51	9.997
369.72	11.738
369.92	11.079
370.13	6.081
370.34	9.854
370.54	5.344
370.75	10.625
370.95	7.085
371.16	9.052
371.37	8.677
371.57	8.199
371.78	7.508
371.98	9.154
372.19	9.904
372.40	8.884
372.60	7.962
372.81	10.279
373.01	5.953
373.22	7.490
373.43	9.088
373.63	7.297
373.84	8.324
374.04	9.465
374.25	7.915
374.46	7.692
374.66	9.252
374.87	10.216
375.07	6.003
375.28	8.552
375.48	8.661
375.69	8.584
375.90	7.100
376.10	5.942
376.31	7.478
376.51	6.581
376.72	6.480
376.92	6.891
377.13	8.942
377.34	8.807
377.54	7.641
377.75	8.680
377.95	7.499
378.16	8.655
378.36	8.605
378.57	7.381
378.77	6.860
378.98	8.736
379.19	7.747
379.39	6.944
379.60	6.958
379.80	6.602
380.01	8.314
380.21	6.384
380.42	7.231
380.62	8.694
380.83	8.183
381.04	6.453
381.24	8.353
381.45	6.340
381.65	5.602
381.86	7.023
382.06	8.782
382.27	6.588
382.47	6.002
382.68	7.386
382.88	6.514
383.09	7.400
383.29	6.493
383.50	6.949
383.71	7.786
383.91	5.745
384.12	6.221
384.32	8.268
384.53	7.238
384.73	6.450
384.94	5.688
385.14	5.706
385.35	5.085
385.55	5.910
385.76	7.460
385.96	7.026
386.17	6.321
386.37	6.819
386.58	6.642
386.78	6.776
386.99	6.189
387.19	6.597
387.40	5.644
387.60	7.228
387.81	4.785
388.01	5.339
388.22	6.841
388.42	8.178
388.63	8.196
388.83	7.411
389.04	5.089
389.24	6.444
389.45	6.237
389.65	6.477
389.86	6.411
390.06	5.847
390.27	5.601
390.47	5.961
390.68	5.344
390.88	7.863
391.09	6.761
391.29	7.605
391.50	6.280
391.70	6.883
391.91	6.073
392.11	5.215
392.32	6.073
392.52	4.963
392.73	5.396
392.93	5.521
393.14	5.895
393.34	6.302
393.55	7.569
393.75	6.632
393.95	5.129
394.16	6.216
394.36	6.838
394.57	6.059
394.77	5.613
394.98	5.519
395.18	6.201
395.39	4.984
395.59	4.737
395.80	6.205
396.00	5.296
396.21	6.730
396.41	4.926
396.61	6.100
396.82	6.283
397.02	8.045
397.23	6.362
397.43	5.949
397.64	4.912
397.84	7.451
398.05	5.373
398.25	6.262
398.45	4.689
398.66	6.102
398.86	5.908
399.07	7.514
399.27	5.252
399.48	6.785
399.68	4.965
399.89	5.052
400.09	6.697
400.29	5.483
400.50	5.974
400.70	7.079
400.91	5.870
401.11	5.677
401.32	6.515
401.52	5.802
401.72	4.684
401.93	7.171
402.13	7.278
402.34	6.274
402.54	5.513
402.75	7.380
402.95	5.480
403.15	6.500
403.36	5.282
403.56	6.575
403.77	4.593
403.97	5.969
404.17	4.943
404.38	6.306
404.58	4.869
404.79	6.314
404.99	6.616
405.19	5.612
405.40	5.131
405.60	6.000
405.81	5.281
406.01	5.360
406.21	5.759
406.42	5.109
406.62	5.577
406.83	6.129
407.03	5.858
407.23	4.751
407.44	4.636
407.64	6.029
407.85	6.064
408.05	5.797
408.25	5.359
408.46	5.558
408.66	6.635
408.87	6.332
409.07	4.944
409.27	5.274
409.48	5.647
409.68	6.208
409.88	4.786
410.09	6.657
410.29	5.801
410.50	7.310
410.70	4.220
410.90	6.471
411.11	5.235
411.31	4.967
411.51	5.170
411.72	5.097
411.92	4.057
412.12	4.662
412.33	4.045
412.53	5.734
412.74	5.625
412.94	5.578
413.14	5.813
413.35	5.279
413.55	6.024
413.75	6.766
413.96	5.079
414.16	6.106
414.36	5.494
414.57	5.537
414.77	4.440
414.97	6.213
415.18	5.979
415.38	5.051
415.58	5.525
415.79	4.255
415.99	4.476
416.19	5.394
416.40	4.997
416.60	4.647
416.80	5.207
417.01	5.390
417.21	4.208
417.41	5.942
417.62	5.063
417.82	5.204
418.02	4.187
418.23	5.572
418.43	4.847
418.63	4.588
418.84	5.221
419.04	4.122
419.24	5.201
419.45	4.699
419.65	5.146
419.85	5.461
420.06	5.344
420.26	4.766
420.46	4.607
420.67	5.093
420.87	5.239
421.07	6.119
421.28	4.450
421.48	5.861
421.68	4.980
421.88	6.089
422.09	5.205
422.29	5.377
422.49	4.584
422.70	4.611
422.90	4.982
423.10	5.366
423.31	5.312
423.51	5.935
423.71	4.312
423.91	5.483
424.12	5.576
424.32	5.840
424.52	4.902
424.73	4.702
424.93	5.183
425.13	4.585
425.33	4.898
425.54	5.872
425.74	4.980
425.94	6.038
426.15	5.000
426.35	4.840
426.55	5.266
426.75	5.439
426.96	4.739
427.16	4.663
427.36	5.206
427.57	5.552
427.77	4.542
427.97	5.340
428.17	5.746
428.38	5.727
428.58	3.127
428.78	5.372
428.98	4.704
429.19	5.154
429.39	4.000
429.59	5.574
429.79	3.750
430.00	4.177
430.20	4.226
430.40	4.931
430.60	4.301
430.81	4.669
431.01	4.416
431.21	4.745
431.41	3.517
431.62	4.865
431.82	4.520
432.02	5.866
432.22	5.033
432.43	3.949
432.63	3.971
432.83	4.241
433.03	4.375
433.24	4.020
433.44	4.386
433.64	4.797
433.84	3.884
434.05	4.354
434.25	4.233
434.45	5.253
434.65	5.289
434.85	5.546
435.06	5.042
435.26	5.185
435.46	4.477
435.66	5.446
435.87	3.788
436.07	5.114
436.27	4.884
436.47	4.215
436.67	3.417
436.88	4.967
437.08	4.463
437.28	4.632
437.48	3.814
437.69	5.588
437.89	4.741
438.09	6.294
438.29	4.445
438.49	5.050
438.70	4.585
438.90	4.037
439.10	4.037
439.30	4.536
439.50	3.219
439.71	4.745
439.91	4.042
440.11	5.340
440.31	4.672
440.51	4.878
440.72	3.597
440.92	4.028
441.12	4.760
441.32	5.485
441.52	4.925
441.72	5.235
441.93	4.855
442.13	5.477
442.33	4.166
442.53	6.509
442.73	3.970
442.94	4.879
443.14	4.562
443.34	5.819
443.54	4.919
443.74	5.895
443.94	4.777
444.15	4.294
444.35	4.543
444.55	4.690
444.75	4.401
444.95	4.482
445.15	4.529
445.36	4.801
445.56	3.249
445.76	5.291
445.96	4.531
446.16	4.316
446.36	3.903
446.57	5.273
446.77	4.161
446.97	4.941
447.17	5.272
447.37	5.090
447.57	5.128
447.77	4.910
447.98	4.470
448.18	4.857
448.38	4.271
448.58	5.230
448.78	5.042
448.98	5.000
449.18	4.325
449.39	4.663
449.59	4.091
449.79	4.309
449.99	4.342
450.19	4.470
450.39	4.594
450.59	5.004
450.79	4.660
451.00	5.466
451.20	6.295
451.40	4.325
451.60	4.005
451.80	5.236
452.00	4.149
452.20	5.040
452.40	4.788
452.61	4.214
452.81	4.054
453.01	4.923
453.21	4.141
453.41	4.531
453.61	3.640
453.81	4.554
454.01	4.838
454.21	4.646
454.42	5.471
454.62	4.577
454.82	4.439
455.02	4.181
455.22	4.166
455.42	4.227
455.62	3.429
455.82	4.364
456.02	4.140
456.23	4.337
456.43	5.053
456.63	3.700
456.83	3.790
457.03	4.060
457.23	4.027
457.43	5.006
457.63	4.157
457.83	4.585
458.03	4.447
458.23	4.731
458.43	3.845
458.64	3.905
458.84	4.004
459.04	3.990
459.24	4.040
459.44	4.034
459.64	4.402
459.84	4.962
460.04	4.319
460.24	4.566
460.44	4.623
460.64	5.620
460.84	4.239
461.04	5.482
461.24	5.233
461.45	6.147
461.65	5.192
461.85	5.014
462.05	5.205
462.25	5.320
462.45	6.102
462.65	4.862
462.85	3.385
463.05	4.917
463.25	3.316
463.45	5.053
463.65	4.047
463.85	4.871
464.05	4.205
464.25	4.122
464.45	4.377
464.65	4.693
464.85	4.225
465.05	3.998
465.26	4.742
465.46	4.700
465.66	5.198
465.86	3.956
466.06	4.052
466.26	4.182
466.46	2.791
466.66	4.592
466.86	4.008
467.06	4.803
467.26	4.416
467.46	5.228
467.66	4.210
467.86	4.626
468.06	4.169
468.26	4.482
468.46	4.487
468.66	4.444
468.86	2.947
469.06	5.753
469.26	2.906
469.46	3.935
469.66	3.700
469.86	4.878
470.06	4.254
470.26	5.070
470.46	4.073
470.66	5.334
470.86	3.850
471.06	4.461
471.26	3.337
471.46	3.762
471.66	4.345
471.86	4.413
472.06	3.678
472.26	5.791
472.46	5.103
472.66	4.691
472.86	3.753
473.06	4.459
473.26	4.490
473.46	4.756
473.66	3.453
473.86	4.874
474.06	3.165
474.26	4.454
474.46	3.403
474.66	4.491
474.86	4.472
475.06	4.449
475.26	2.982
475.46	4.641
475.66	3.296
475.86	4.346
476.06	4.097
476.26	5.479
476.46	3.783
476.66	4.679
476.86	3.681
477.06	4.496
477.26	4.254
477.46	4.301
477.65	4.426
477.85	4.875
478.05	2.359
478.25	5.584
478.45	3.941
478.65	4.902
478.85	3.484
479.05	5.287
479.25	4.715
479.45	4.995
479.65	3.821
479.85	3.928
480.05	4.418
480.25	5.026
480.45	4.748
480.65	5.039
480.85	3.993
481.05	4.941
481.25	4.922
481.44	4.663
481.64	3.340
481.84	5.408
482.04	4.482
482.24	4.961
482.44	3.839
482.64	4.452
482.84	4.714
483.04	4.922
483.24	4.978
483.44	5.183
483.64	5.000
483.84	5.346
484.04	5.589
484.23	5.862
484.43	5.647
484.63	6.544
484.83	6.505
485.03	6.725
485.23	7.033
485.43	6.983
485.63	6.846
485.83	6.669
486.03	6.138
486.23	6.619
486.42	6.343
486.62	6.764
486.82	5.902
487.02	6.144
487.22	5.462
487.42	5.807
487.62	5.601
487.82	5.872
488.02	5.543
488.22	6.037
488.41	5.724
488.61	5.923
488.81	5.910
489.01	6.093
489.21	6.327
489.41	6.308
489.61	6.163
489.81	6.500
490.01	6.352
490.20	6.560
490.40	5.991
490.60	6.195
490.80	5.653
491.00	5.602
491.20	5.594
491.40	5.480
491.60	5.011
491.79	5.621
491.99	5.693
492.19	5.989
492.39	6.014
492.59	6.066
492.79	5.912
492.99	6.105
493.19	6.008
493.38	6.145
493.58	5.856
493.78	6.256
493.98	6.280
494.18	6.347
494.38	5.974
494.58	5.948
494.77	4.452
494.97	5.712
495.17	4.623
495.37	5.042
495.57	4.501
495.77	5.267
495.96	5.040
496.16	4.962
496.36	5.014
496.56	5.670
496.76	4.717
496.96	4.786
497.15	4.358
497.35	5.194
497.55	4.888
497.75	5.076
497.95	4.494
498.15	5.593
498.34	4.926
498.54	4.949
498.74	5.205
498.94	5.496
499.14	4.208
499.34	5.747
499.53	4.664
499.73	5.560
499.93	4.846
500.13	5.278
500.33	4.621
500.52	4.998
500.72	4.656
500.92	4.473
501.12	4.786
501.32	4.575
501.52	4.333
501.71	4.367
501.91	3.900
502.11	5.165
502.31	3.792
502.51	5.771
502.70	4.046
502.90	4.689
503.10	4.595
503.30	5.890
503.50	5.173
503.69	5.169
503.89	4.805
504.09	5.081
504.29	4.228
504.48	4.682
504.68	5.451
504.88	5.251
505.08	4.021
505.28	5.222
505.47	4.853
505.67	5.646
505.87	4.214
506.07	4.975
506.27	4.400
506.46	5.387
506.66	4.209
506.86	5.085
507.06	5.689
507.25	4.757
507.45	5.052
507.65	5.481
507.85	4.491
508.04	5.783
508.24	5.333
508.44	5.503
508.64	4.635
508.83	5.609
509.03	4.406
509.23	5.482
509.43	4.223
509.63	4.910
509.82	4.337
510.02	5.130
510.22	5.024
510.42	6.300
510.61	5.391
510.81	5.628
511.01	5.197
511.21	5.654
511.40	4.738
511.60	5.717
511.80	5.322
511.99	6.027
512.19	5.249
512.39	5.453
512.59	4.794
512.78	6.424
512.98	5.492
513.18	5.731
513.38	5.681
513.57	6.178
513.77	5.342
513.97	5.755
514.17	5.160
514.36	5.219
514.56	4.957
514.76	6.119
514.95	4.737
515.15	5.558
515.35	4.709
515.55	5.800
515.74	6.289
515.94	6.535
516.14	4.379
516.33	5.669
516.53	4.945
516.73	5.212
516.93	4.796
517.12	5.995
517.32	4.626
517.52	5.074
517.71	5.414
517.91	5.499
518.11	5.240
518.30	5.563
518.50	4.756
518.70	5.853
518.90	5.370
519.09	6.451
519.29	5.823
519.49	6.843
519.68	5.522
519.88	6.720
520.08	5.944
520.27	6.769
520.47	6.283
520.67	6.446
520.86	5.814
521.06	7.099
521.26	5.254
521.45	6.424
521.65	5.868
521.85	5.439
522.04	4.875
522.24	5.347
522.44	4.976
522.63	5.983
522.83	5.301
523.03	6.449
523.22	5.128
523.42	6.613
523.62	6.086
523.81	6.136
524.01	6.084
524.21	5.659
524.40	5.146
524.60	5.966
524.80	5.311
524.99	5.439
525.19	5.679
525.39	6.127
525.58	5.833
525.78	6.121
525.98	5.926
526.17	6.352
526.37	5.918
526.57	6.572
526.76	6.714
526.96	6.819
527.15	6.080
527.35	6.340
527.55	5.628
527.74	7.093
527.94	6.387
528.14	6.837
528.33	6.274
528.53	6.606
528.72	6.680
528.92	6.699
529.12	6.973
529.31	6.726
529.51	7.046
529.71	7.184
529.90	6.962
530.10	7.212
530.29	6.912
530.49	7.403
530.69	7.488
530.88	7.362
531.08	7.365
531.28	7.554
531.47	6.775
531.67	7.121
531.86	7.123
532.06	6.769
532.26	6.687
532.45	7.010
532.65	6.522
532.84	6.629
533.04	5.922
533.24	6.820
533.43	6.322
533.63	6.916
533.82	6.767
534.02	7.240
534.22	6.928
534.41	6.970
534.61	7.339
534.80	7.366
535.00	7.398
535.19	7.291
535.39	7.587
535.59	7.451
535.78	6.733
535.98	7.087
536.17	6.364
536.37	6.886
536.57	6.933
536.76	7.432
536.96	6.849
537.15	7.165
537.35	6.519
537.54	7.128
537.74	7.291
537.93	7.322
538.13	6.728
538.33	7.617
538.52	6.912
538.72	7.527
538.91	7.069
539.11	7.342
539.30	6.916
539.50	6.942
539.70	6.356
539.89	7.211
540.09	7.016
540.28	7.019
540.48	6.352
540.67	7.157
540.87	7.181
541.06	7.134
541.26	6.919
541.45	7.409
541.65	7.025
541.85	7.431
542.04	7.108
542.24	7.687
542.43	7.568
542.63	7.555
542.82	8.125
543.02	7.982
543.21	7.867
543.41	8.030
543.60	8.071
543.80	8.210
543.99	8.221
544.19	7.745
544.38	7.751
544.58	8.223
544.77	7.629
544.97	7.978
545.16	6.840
545.36	8.006
545.56	7.421
545.75	8.496
545.95	7.673
546.14	8.192
546.34	7.184
546.53	8.191
546.73	7.538
546.92	8.364
547.12	7.555
547.31	8.216
547.51	6.848
547.70	7.853
547.90	7.462
548.09	8.428
548.29	7.939
548.48	8.905
548.68	7.611
548.87	9.565
549.07	8.383
549.26	8.586
549.46	8.168
549.65	8.980
549.84	7.628
550.04	7.427
550.23	7.401
550.43	7.508
550.62	7.486
550.82	7.674
551.01	7.118
551.21	7.542
551.40	7.477
551.60	7.719
551.79	7.233
551.99	7.991
552.18	7.079
552.38	8.693
552.57	8.290
552.77	8.456
552.96	7.789
553.16	9.171
553.35	7.673
553.54	9.092
553.74	8.711
553.93	9.315
554.13	8.791
554.32	9.098
554.52	8.124
554.71	8.998
554.91	7.747
555.10	8.705
555.29	7.927
555.49	9.475
555.68	8.552
555.88	9.864
556.07	7.772
556.27	9.346
556.46	8.800
556.66	10.120
556.85	9.069
557.04	9.959
557.24	9.257
557.43	10.703
557.63	9.495
557.82	9.400
558.02	8.554
558.21	9.800
558.40	8.708
558.60	10.784
558.79	9.106
558.99	10.427
559.18	8.858
559.38	10.162
559.57	9.692
559.76	10.264
559.96	10.979
560.15	9.598
560.35	9.884
560.54	9.633
560.73	9.737
560.93	10.434
561.12	10.415
561.32	10.718
561.51	10.354
561.70	11.046
561.90	10.784
562.09	11.476
562.29	10.277
562.48	11.353
562.67	10.486
562.87	12.529
563.06	10.446
563.26	11.750
563.45	11.257
563.64	11.961
563.84	11.412
564.03	12.354
564.23	11.059
564.42	13.276
564.61	12.144
564.81	12.167
565.00	12.310
565.20	12.817
565.39	12.155
565.58	12.934
565.78	11.721
565.97	13.196
566.16	12.817
566.36	12.707
566.55	12.950
566.74	12.909
566.94	12.623
567.13	13.885
567.33	13.071
567.52	13.740
567.71	13.142
567.91	13.968
568.10	13.481
568.29	14.224
568.49	13.841
568.68	14.211
568.87	13.239
569.07	14.535
569.26	13.631
569.45	15.122
569.65	13.415
569.84	14.380
570.04	13.930
570.23	14.613
570.42	13.898
570.62	15.072
570.81	14.532
571.00	14.977
571.20	14.326
571.39	14.576
571.58	14.286
571.78	14.530
571.97	13.874
572.16	14.888
572.36	14.483
572.55	14.761
572.74	14.240
572.94	15.643
573.13	14.721
573.32	15.805
573.51	15.328
573.71	16.064
573.90	15.072
574.09	15.742
574.29	15.470
574.48	15.174
574.67	14.831
574.87	16.051
575.06	15.494
575.25	15.429
575.45	15.677
575.64	14.805
575.83	14.954
576.03	16.918
576.22	15.715
576.41	15.676
576.60	14.888
576.80	15.861
576.99	15.809
577.18	16.327
577.38	15.747
577.57	16.234
577.76	16.308
577.95	15.400
578.15	15.307
578.34	15.525
578.53	14.918
578.73	15.986
578.92	14.438
579.11	16.057
579.30	16.128
579.50	15.493
579.69	14.821
579.88	15.793
580.08	14.938
580.27	16.023
580.46	16.172
580.65	15.388
580.85	15.109
581.04	15.043
581.23	14.887
581.42	15.824
581.62	14.770
581.81	15.462
582.00	16.242
582.19	15.079
582.39	15.260
582.58	14.832
582.77	14.889
582.96	15.699
583.16	15.242
583.35	16.524
583.54	15.029
583.73	17.184
583.93	15.541
584.12	15.946
584.31	14.371
584.50	15.436
584.70	15.166
584.89	15.226
585.08	14.578
585.27	16.206
585.47	14.073
585.66	16.396
585.85	14.030
586.04	15.738
586.24	16.132
586.43	13.896
586.62	14.086
586.81	15.230
587.00	13.919
587.20	15.168
587.39	13.225
587.58	15.648
587.77	14.532
587.97	14.573
588.16	15.498
588.35	15.739
588.54	14.105
588.73	14.799
588.93	15.236
589.12	15.765
589.31	14.340
589.50	14.721
589.69	15.508
589.89	14.870
590.08	13.960
590.27	14.640
590.46	14.871
590.65	14.726
590.85	14.264
591.04	15.605
591.23	14.944
591.42	15.378
591.61	14.805
591.81	15.233
592.00	14.192
592.19	16.152
592.38	13.774
592.57	16.261
592.77	14.959
592.96	15.347
593.15	15.925
593.34	15.371
593.53	15.570
593.72	15.032
593.92	14.527
594.11	15.861
594.30	14.882
594.49	16.345
594.68	14.245
594.87	16.418
595.07	15.044
595.26	15.975
595.45	15.611
595.64	16.236
595.83	14.137
596.02	16.449
596.22	15.265
596.41	16.739
596.60	15.667
596.79	15.513
596.98	14.884
597.17	16.119
597.37	16.138
597.56	17.148
597.75	15.484
597.94	16.484
598.13	16.571
598.32	16.687
598.51	16.381
598.71	16.946
598.90	16.076
599.09	16.129
599.28	15.843
599.47	17.020
599.66	14.931
599.85	16.457
600.05	16.021
600.24	17.441
600.43	15.539
600.62	16.523
600.81	15.531
601.00	17.444
601.19	16.681
601.38	17.232
601.58	15.544
601.77	16.755
601.96	16.149
602.15	17.509
602.34	16.360
602.53	18.152
602.72	15.741
602.91	16.847
603.10	16.876
603.30	17.015
603.49	17.229
603.68	17.023
603.87	15.972
604.06	17.003
604.25	16.994
604.44	17.825
604.63	16.975
604.82	17.941
605.01	16.885
605.21	18.222
605.40	17.227
605.59	17.314
605.78	17.214
605.97	18.172
606.16	16.793
606.35	17.606
606.54	17.890
606.73	18.576
606.92	18.016
607.11	18.520
607.30	16.906
607.50	17.936
607.69	16.456
607.88	16.981
608.07	16.492
608.26	17.012
608.45	17.924
608.64	17.875
608.83	16.604
609.02	17.044
609.21	16.620
609.40	17.267
609.59	16.104
609.78	16.835
609.97	16.267
610.16	16.339
610.35	16.765
610.55	17.481
610.74	16.982
610.93	17.167
611.12	16.852
611.31	17.100
611.50	17.071
611.69	17.037
611.88	16.405
612.07	17.152
612.26	15.397
612.45	17.246
612.64	16.064
612.83	16.714
613.02	14.641
613.21	15.144
613.40	14.115
613.59	16.772
613.78	14.715
613.97	15.251
614.16	14.223
614.35	15.240
614.54	14.655
614.73	14.358
614.92	14.193
615.11	14.808
615.30	14.698
615.49	15.809
615.68	14.909
615.87	15.173
616.07	12.956
616.26	13.731
616.45	15.535
616.64	14.932
616.83	14.130
617.02	14.648
617.21	12.008
617.40	13.351
617.59	14.771
617.78	15.136
617.97	13.631
618.16	13.403
618.35	11.736
618.54	13.961
618.73	13.104
618.92	13.955
619.11	11.691
619.30	14.833
619.49	11.082
619.68	14.362
619.86	12.315
620.05	13.108
620.24	12.712
620.43	12.777
620.62	11.670
620.81	14.203
621.00	14.840
621.19	14.678
621.38	14.059
621.57	13.350
621.76	13.331
621.95	13.332
622.14	13.253
622.33	13.678
622.52	11.875
622.71	13.360
622.90	12.025
623.09	14.289
623.28	11.258
623.47	13.758
623.66	12.295
623.85	12.553
624.04	12.560
624.23	12.055
624.42	13.059
624.61	11.890
624.80	10.506
624.99	13.049
625.18	10.768
625.36	13.050
625.55	12.000
625.74	12.810
625.93	12.349
626.12	12.891
626.31	13.175
626.50	13.831
626.69	12.224
626.88	14.575
627.07	13.351
627.26	12.608
627.45	13.107
627.64	12.550
627.83	12.972
628.02	14.108
628.20	13.435
628.39	13.151
628.58	12.612
628.77	13.948
628.96	12.430
629.15	12.672
629.34	12.353
629.53	12.304
629.72	10.907
629.91	13.248
630.10	11.759
630.29	11.052
630.47	10.752
630.66	10.648
630.85	10.622
631.04	12.020
631.23	12.386
631.42	12.774
631.61	11.273
631.80	13.365
631.99	11.432
632.18	11.841
632.36	10.042
632.55	13.240
632.74	12.713
632.93	11.540
633.12	11.844
633.31	12.482
633.50	10.874
633.69	11.392
633.88	10.230
634.06	12.328
634.25	10.238
634.44	11.562
634.63	11.363
634.82	13.655
635.01	11.002
635.20	11.044
635.39	10.116
635.57	11.679
635.76	10.594
635.95	12.261
636.14	10.392
636.33	12.311
636.52	11.076
636.71	12.590
636.89	12.038
637.08	12.322
637.27	9.802
637.46	11.094
637.65	10.408
637.84	11.864
638.03	10.898
638.21	14.061
638.40	12.365
638.59	11.196
638.78	10.775
638.97	11.200
639.16	13.278
639.34	10.708
639.53	9.029
639.72	10.890
639.91	10.655
640.10	10.304
640.29	11.106
640.47	14.866
640.66	11.641
640.85	13.846
641.04	10.405
641.23	11.984
641.42	10.895
641.60	11.233
641.79	9.954
641.98	12.326
642.17	11.929
642.36	12.731
642.54	10.590
642.73	12.066
642.92	9.621
643.11	10.710
643.30	10.664
643.49	12.196
643.67	9.674
643.86	12.707
644.05	10.466
644.24	12.359
644.43	8.751
644.61	12.196
644.80	11.533
644.99	10.107
645.18	11.919
645.37	12.212
645.55	10.697
645.74	11.935
645.93	11.711
646.12	11.803
646.31	12.229
646.49	11.408
646.68	11.565
646.87	11.117
647.06	11.087
647.24	10.902
647.43	9.088
647.62	11.917
647.81	9.044
648.00	12.152
648.18	8.583
648.37	10.176
648.56	11.469
648.75	10.797
648.93	10.932
649.12	12.762
649.31	10.265
649.50	11.303
649.68	10.036
649.87	10.736
650.06	8.704
650.25	10.540
650.43	10.610
650.62	9.752
650.81	9.961
651.00	10.337
651.18	10.638
651.37	11.211
651.56	11.041
651.75	12.620
651.93	9.683
652.12	12.784
652.31	8.804
652.50	10.539
652.68	11.739
652.87	11.666
653.06	12.202
653.25	11.275
653.43	10.226
653.62	11.344
653.81	10.196
654.00	11.078
654.18	10.515
654.37	11.237
654.56	9.321
654.74	10.664
654.93	9.712
655.12	9.635
655.31	10.471
655.49	11.393
655.68	9.733
655.87	9.701
656.05	8.422
656.24	10.215
656.43	7.515
656.62	9.788
656.80	10.256
656.99	10.445
657.18	8.627
657.36	8.953
657.55	10.349
657.74	9.275
657.93	9.538
658.11	10.599
658.30	10.829
658.49	8.048
658.67	9.361
658.86	8.635
659.05	7.387
659.23	10.510
659.42	8.224
659.61	7.728
659.79	8.881
659.98	9.214
660.17	7.794
660.35	9.192
660.54	8.751
660.73	11.742
660.91	7.482
661.10	9.185
661.29	8.019
661.47	7.869
661.66	8.017
661.85	7.767
662.03	8.871
662.22	7.077
662.41	6.697
662.59	8.751
662.78	7.112
662.97	7.912
663.15	6.682
663.34	8.103
663.53	6.415
663.71	8.666
663.90	7.623
664.09	8.252
664.27	8.364
664.46	8.473
664.65	7.040
664.83	6.491
665.02	7.843
665.21	8.222
665.39	5.445
665.58	8.826
665.77	7.079
665.95	7.745
666.14	7.543
666.32	7.038
666.51	6.712
666.70	5.189
666.88	8.328
667.07	6.499
667.26	6.649
667.44	6.541
667.63	8.923
667.81	6.433
668.00	7.384
668.19	9.049
668.37	8.510
668.56	9.849
668.75	7.762
668.93	9.419
669.12	4.937
669.30	7.402
669.49	5.638
669.68	7.912
669.86	8.323
670.05	7.290
670.23	6.890
670.42	6.753
670.61	7.714
670.79	7.105
670.98	8.718
671.16	8.909
671.35	7.304
671.54	8.138
671.72	7.191
671.91	8.948
672.09	6.991
672.28	10.440
672.46	10.044
672.65	9.328
672.84	9.605
673.02	11.258
673.21	7.850
673.39	8.411
673.58	8.955
673.77	7.811
673.95	7.304
674.14	8.430
674.32	7.464
674.51	10.918
674.69	6.804
674.88	7.794
675.07	8.440
675.25	11.929
675.44	8.078
675.62	8.956
675.81	9.411
675.99	13.972
676.18	9.399
676.36	8.028
676.55	10.224
676.74	10.662
676.92	10.577
677.11	6.996
677.29	6.884
677.48	11.953
677.66	9.675
677.85	8.655
678.03	9.516
678.22	11.488
678.40	7.915
678.59	7.119
678.78	7.661
678.96	8.333
679.15	9.967
679.33	11.086
679.52	9.897
679.70	10.286
679.89	8.445
680.07	9.572
680.26	7.853
680.44	9.073
680.63	9.514
680.81	8.686
681.00	7.261
681.18	9.575
681.37	8.681
681.55	10.281
681.74	9.139
681.92	10.697
682.11	8.787
682.29	7.611
682.48	7.769
682.66	9.689
682.85	10.073
683.03	9.696
683.22	9.169
683.40	11.824
683.59	9.848
683.77	10.560
683.96	9.815
684.14	10.819
684.33	8.697
684.51	13.327
684.70	11.241
684.88	13.358
685.07	10.926
685.25	12.840
685.44	10.874
685.62	9.950
685.81	9.913
685.99	13.671
686.18	9.499
686.36	13.118
686.55	9.141
686.73	9.989
686.92	13.461
687.10	12.010
687.29	13.494
687.47	12.062
687.65	13.513
687.84	11.456
688.02	14.960
688.21	14.594
688.39	11.825
688.58	14.651
688.76	14.601
688.95	12.356
689.13	10.912
689.32	15.504
689.50	12.717
689.68	13.574
689.87	11.453
690.05	15.458
690.24	14.509
690.42	15.943
690.61	15.705
690.79	18.681
690.98	16.945
691.16	16.544
691.34	13.681
691.53	17.272
691.71	15.484
691.90	17.018
692.08	13.204
692.27	17.299
692.45	17.821
692.63	20.216
692.82	17.218
693.00	18.381
693.19	15.388
693.37	18.556
693.56	17.378
693.74	21.614
693.92	17.266
694.11	21.830
694.29	22.708
694.48	23.109
694.66	19.407
694.84	23.539
695.03	19.585
695.21	23.294
695.40	22.874
695.58	26.548
695.76	22.246
695.95	27.172
696.13	23.063
696.32	23.879
696.50	28.673
696.68	26.098
696.87	25.452
697.05	27.771
697.24	27.429
697.42	31.291
697.60	27.453
697.79	29.315
697.97	28.496
698.16	29.688
698.34	27.300
698.52	32.637
698.71	29.026
698.89	30.849
699.07	31.403
699.26	29.450
699.44	31.076
699.63	30.574
699.81	29.763
699.99	32.681
700.18	31.854
700.36	33.113
700.54	31.436
700.73	33.627
700.91	32.193
701.09	34.117
701.28	32.958
701.46	33.880
701.64	34.715
701.83	35.365
702.01	34.039
702.20	36.992
702.38	34.931
702.56	35.982
702.75	34.216
702.93	34.796
703.11	35.836
703.30	38.795
703.48	37.449
703.66	39.668
703.85	35.056
704.03	40.493
704.21	38.204
704.40	41.589
704.58	34.717
704.76	41.185
704.95	39.315
705.13	40.319
705.31	36.999
705.50	39.092
705.68	37.735
705.86	41.935
706.04	40.619
706.23	43.914
706.41	43.842
706.59	42.614
706.78	38.944
706.96	42.034
707.14	41.162
707.33	40.696
707.51	42.079
707.69	45.327
707.88	40.739
708.06	41.800
708.24	40.891
708.42	44.647
708.61	42.401
708.79	42.371
708.97	43.887
709.16	43.238
709.34	46.693
709.52	44.386
709.71	45.136
709.89	45.754
710.07	41.651
710.25	43.779
710.44	39.926
710.62	42.786
710.80	43.615
710.98	46.040
711.17	43.945
711.35	44.111
711.53	43.396
711.72	45.402
711.90	47.204
712.08	44.254
712.26	42.988
712.45	46.331
712.63	45.311
712.81	45.183
712.99	42.638
713.18	48.276
713.36	44.694
713.54	42.176
713.72	41.993
713.91	44.954
714.09	42.455
714.27	46.903
714.45	46.231
714.64	44.348
714.82	44.486
715.00	44.749
715.18	45.319
715.37	46.207
715.55	47.911
715.73	44.912
715.91	46.605
716.10	45.895
716.28	44.309
716.46	47.600
716.64	47.361
716.83	45.833
717.01	46.213
717.19	45.991
717.37	44.505
717.55	44.922
717.74	44.089
717.92	44.621
718.10	41.555
718.28	47.273
718.47	45.896
718.65	48.964
718.83	43.360
719.01	46.311
719.19	42.389
719.38	44.329
719.56	42.721
719.74	47.487
719.92	38.643
720.10	45.444
720.29	44.754
720.47	44.038
720.65	46.177
720.83	50.901
721.01	42.323
721.20	53.155
721.38	47.930
721.56	48.520
721.74	47.840
721.92	52.000
722.11	49.362
722.29	49.318
722.47	50.328
722.65	48.881
722.83	45.387
723.01	50.631
723.20	49.058
723.38	50.875
723.56	46.807
723.74	51.474
723.92	49.903
724.10	50.292
724.29	48.295
724.47	54.509
724.65	47.720
724.83	50.979
725.01	49.007
725.19	50.825
725.38	47.902
725.56	54.161
725.74	46.688
725.92	52.153
726.10	49.284
726.28	50.400
726.46	49.178
726.65	49.656
726.83	49.867
727.01	48.778
727.19	49.493
727.37	51.660
727.55	52.492
727.73	44.705
727.92	49.398
728.10	47.320
728.28	43.237
728.46	53.770
728.64	50.030
728.82	48.751
729.00	48.310
729.19	51.520
729.37	50.407
729.55	49.430
729.73	48.762
729.91	46.805
730.09	49.216
730.27	51.460
730.45	48.387
730.63	51.059
730.82	47.414
731.00	54.021
731.18	49.942
731.36	53.396
731.54	46.204
731.72	51.448
731.90	46.602
732.08	51.482
732.26	45.738
732.45	52.166
732.63	45.915
732.81	54.374
732.99	50.116
733.17	49.445
733.35	51.688
733.53	53.560
733.71	51.199
733.89	51.408
734.07	48.218
734.25	52.948
734.44	50.289
734.62	52.074
734.80	52.130
734.98	55.156
735.16	50.146
735.34	49.880
735.52	52.699
735.70	53.191
735.88	54.047
736.06	53.131
736.24	56.162
736.42	57.332
736.60	57.092
736.78	55.345
736.97	51.890
737.15	53.900
737.33	55.456
737.51	59.214
737.69	54.958
737.87	53.114
738.05	55.531
738.23	56.770
738.41	54.799
738.59	57.123
738.77	54.697
738.95	53.292
739.13	57.580
739.31	55.074
739.49	55.789
739.67	60.086
739.85	54.291
740.03	53.582
740.21	52.337
740.39	61.717
740.57	53.934
740.75	59.072
740.93	55.564
741.11	58.308
741.30	59.138
741.48	62.529
741.66	62.818
741.84	56.535
742.02	63.320
742.20	61.077
742.38	58.314
742.56	60.137
742.74	57.764
742.92	57.969
743.10	52.835
743.28	59.950
743.46	63.162
743.64	62.643
743.82	56.901
744.00	56.902
744.18	63.262
744.36	64.292
744.54	60.053
744.72	63.551
744.90	64.865
745.08	57.388
745.26	58.944
745.44	57.881
745.62	60.237
745.80	58.644
745.98	60.480
746.16	58.097
746.34	60.636
746.52	60.653
746.70	58.792
746.87	59.710
747.05	59.280
747.23	59.383
747.41	62.291
747.59	61.446
747.77	61.745
747.95	63.620
748.13	59.381
748.31	66.786
748.49	61.751
748.67	66.284
748.85	56.940
749.03	59.677
749.21	57.426
749.39	61.022
749.57	55.100
749.75	59.827
749.93	57.895
750.11	62.599
750.29	55.799
750.47	65.461
750.65	63.096
750.83	61.857
751.01	55.348
751.18	57.261
751.36	64.142
751.54	57.558
751.72	59.314
751.90	55.139
752.08	57.445
752.26	60.683
752.44	60.185
752.62	61.169
752.80	55.783
752.98	61.950
753.16	58.776
753.34	62.556
753.52	61.264
753.69	58.152
753.87	61.358
754.05	62.133
754.23	63.628
754.41	64.499
754.59	57.573
754.77	63.066
754.95	61.310
755.13	62.599
755.31	65.459
755.49	58.767
755.66	56.941
755.84	61.917
756.02	59.108
756.20	63.811
756.38	57.169
756.56	61.027
756.74	62.355
756.92	62.336
757.10	58.952
757.28	63.824
757.45	63.927
757.63	62.389
757.81	56.392
757.99	63.586
758.17	61.116
758.35	61.946
758.53	60.932
758.71	61.070
758.88	58.297
759.06	57.762
759.24	55.877
759.42	54.372
759.60	56.648
759.78	52.936
759.96	44.854
760.13	48.371
760.31	46.980
760.49	45.837
760.67	39.700
760.85	49.068
761.03	40.989
761.21	41.548
761.38	39.882
761.56	43.354
761.74	40.517
761.92	39.712
762.10	38.302
762.28	47.231
762.46	40.438
762.63	38.252
762.81	39.165
762.99	44.470
763.17	43.047
763.35	44.031
763.53	38.953
763.70	43.788
763.88	42.707
764.06	43.736
764.24	38.772
764.42	42.646
764.60	42.249
764.77	44.507
764.95	42.712
765.13	45.535
765.31	47.137
765.49	45.957
765.66	42.999
765.84	48.570
766.02	47.303
766.20	46.911
766.38	47.507
766.56	51.232
766.73	47.594
766.91	52.480
767.09	56.543
767.27	57.108
767.45	49.398
767.62	55.363
767.80	57.078
767.98	55.263
768.16	52.903
768.33	56.873
768.51	58.039
768.69	57.457
768.87	59.369
769.05	57.588
769.22	55.633
769.40	57.814
769.58	55.626
769.76	59.519
769.94	66.736
770.11	60.043
770.29	63.215
770.47	58.455
770.65	64.706
770.82	65.308
771.00	62.950
771.18	61.674
771.36	60.922
771.53	58.966
771.71	61.669
771.89	69.719
772.07	63.813
772.25	59.368
772.42	56.250
772.60	65.658
772.78	65.356
772.96	72.705
773.13	70.292
773.31	70.651
773.49	64.362
773.67	66.895
773.84	56.724
774.02	70.943
774.20	62.216
774.37	68.097
774.55	68.655
774.73	69.622
774.91	61.736
775.08	71.003
775.26	65.027
775.44	65.046
775.62	62.453
775.79	74.142
775.97	62.027
776.15	67.109
776.32	62.685
776.50	70.270
776.68	74.926
776.86	69.625
777.03	63.893
777.21	58.367
777.39	64.181
777.56	72.161
777.74	70.227
777.92	66.575
778.10	66.431
778.27	65.857
778.45	68.556
778.63	70.694
778.80	67.455
778.98	72.701
779.16	68.713
779.34	70.350
779.51	60.217
779.69	69.790
779.87	66.943
780.04	61.035
780.22	63.053
780.40	74.451
780.57	64.416
780.75	68.256
780.93	73.279
781.10	69.277
781.28	65.710
781.46	57.456
781.63	63.289
781.81	70.785
781.99	59.825
782.16	63.012
782.34	59.571
782.52	62.053
782.69	64.156
782.87	68.012
783.05	63.000
783.22	69.048
783.40	67.183
783.58	66.966
783.75	65.657
783.93	72.968
784.11	60.976
784.28	68.082
784.46	68.232
784.64	62.362
784.81	61.538
784.99	65.719
785.17	62.295
785.34	62.993
785.52	58.049
785.69	68.896
785.87	64.418
786.05	68.034
786.22	63.307
786.40	64.967
786.58	63.854
786.75	64.696
786.93	61.867
787.11	59.872
787.28	64.217
787.46	63.844
787.63	65.812
787.81	72.603
787.99	71.173
788.16	61.743
788.34	62.323
788.51	63.770
788.69	62.684
788.87	56.394
789.04	58.964
789.22	58.422
789.39	57.613
789.57	55.599
789.75	56.505
789.92	57.781
790.10	50.509
790.27	67.518
790.45	63.300
790.63	63.368
790.80	54.038
790.98	65.217
791.15	59.789
791.33	63.317
791.51	57.721
791.68	63.233
791.86	66.225
792.03	63.000
792.21	63.394
792.39	68.139
792.56	63.016
792.74	56.988
792.91	68.984
793.09	62.086
793.26	65.493
793.44	69.640
793.62	59.524
793.79	62.029
793.97	69.231
794.14	66.379
794.32	66.479
794.49	69.004
794.67	63.849
794.84	65.378
795.02	63.373
795.20	76.103
795.37	59.966
795.55	65.031
795.72	68.021
795.90	68.509
796.07	66.207
796.25	64.214
796.42	61.391
796.60	68.703
796.77	57.214
796.95	69.219
797.13	51.942
797.30	62.562
797.48	55.341
797.65	53.956
797.83	67.359
798.00	59.223
798.18	56.386
798.35	60.029
798.53	64.000
798.70	61.832
798.88	59.365
799.05	56.231
799.23	58.230
799.40	59.076
799.58	63.058
799.75	69.281
799.93	55.155
800.10	61.260
800.28	61.240
800.45	65.171
800.63	58.993
800.80	71.512
800.98	55.948
801.15	62.124
801.33	61.023
801.50	52.332
801.68	63.198
801.85	54.545
802.03	54.027
802.20	63.109
802.38	56.714
802.55	60.000
802.73	60.174
802.90	66.976
803.08	48.754
803.25	64.038
803.43	56.452
803.60	70.954
803.78	70.056
803.95	66.870
804.13	62.976
804.30	66.012
804.48	59.571
804.65	57.480
804.83	60.034
805.00	60.000
805.17	53.592
805.35	69.318
805.52	52.008
805.70	56.604
805.87	66.913
806.05	64.747
806.22	48.885
806.40	54.143
806.57	53.933
806.75	62.752
806.92	65.439
807.09	69.639
807.27	63.778
807.44	71.183
807.62	64.148
807.79	60.179
807.97	65.542
808.14	61.400
808.31	60.494
808.49	55.319
808.66	57.611
808.84	56.783
809.01	67.941
809.19	67.901
809.36	72.098
809.53	58.929
809.71	54.054
809.88	63.415
810.06	57.874
810.23	69.400
810.41	60.788
810.58	66.596
810.75	58.798
810.93	59.763
811.10	57.895
811.28	62.640
811.45	58.700
811.62	64.045
811.80	56.170
811.97	64.719
812.15	70.809
812.32	55.172
812.49	62.309
812.67	58.723
812.84	68.352
813.02	71.525
813.19	51.016
813.36	67.896
813.54	69.690
813.71	75.227
813.89	59.031
814.06	66.138
814.23	62.156
814.41	65.485
814.58	56.490
814.75	74.447
814.93	68.095
815.10	74.872
815.28	72.794
815.45	57.389
815.62	52.038
815.80	53.118
815.97	53.830
816.14	62.791
816.32	56.235
816.49	68.947
816.66	57.750
816.84	63.089
817.01	62.256
817.18	51.981
817.36	45.995
817.53	68.408
817.71	51.404
817.88	46.591
818.05	58.837
818.23	54.048
818.40	55.189
818.57	64.957
818.75	58.237
818.92	64.224
819.09	56.299
819.27	51.176
819.44	55.070
819.61	50.923
819.79	58.025
819.96	53.465
820.13	50.950
820.31	51.652
820.48	53.344
820.65	59.359
820.82	50.408
821.00	49.781
821.17	41.488
821.34	45.207
821.52	41.948
821.69	40.258
821.86	40.836
822.04	45.117
822.21	39.845
822.38	42.172
822.56	37.938
822.73	42.509
822.90	36.747
823.07	41.570
823.25	36.838
823.42	36.949
823.59	36.095
823.77	37.278
823.94	36.594
824.11	37.252
824.29	35.624
824.46	39.231
824.63	41.152
824.80	39.615
824.98	36.694
825.15	39.567
825.32	33.491
825.49	42.686
825.67	37.684
825.84	40.252
826.01	37.921
826.19	40.000
826.36	38.674
826.53	41.789
826.70	36.628
826.88	37.909
827.05	37.148
827.22	37.127
827.39	37.023
827.57	39.645
827.74	35.543
827.91	40.240
828.08	35.724
828.26	37.518
828.43	35.017
828.60	44.355
828.77	37.053
828.95	36.550
829.12	32.981
829.29	33.631
829.46	41.140
829.64	40.726
829.81	31.612
829.98	44.008
830.15	37.349
830.32	42.371
830.50	40.053
830.67	48.329
830.84	45.970
831.01	41.223
831.19	47.727
831.36	49.593
831.53	56.349
831.70	62.572
831.87	57.645
832.05	50.099
832.22	63.453
832.39	56.087
832.56	55.725
832.74	49.777
832.91	55.485
833.08	61.134
833.25	44.815
833.42	47.150
833.60	45.915
833.77	41.503
833.94	39.810
834.11	38.788
834.28	37.264
834.45	39.079
834.63	33.976
834.80	38.535
834.97	36.853
835.14	43.438
835.31	40.100
835.49	35.942
835.66	38.786
835.83	38.321
836.00	37.178
836.17	46.028
836.34	32.933
836.52	40.263
836.69	43.022
836.86	42.500
837.03	49.747
837.20	46.314
837.37	44.790
837.55	50.973
837.72	53.950
837.89	47.837
838.06	59.135
838.23	71.053
838.40	63.593
838.58	58.667
838.75	58.974
838.92	72.759
839.09	73.810
839.26	68.717
839.43	75.793
839.60	83.278
839.78	87.346
839.95	75.896
840.12	65.190
840.29	88.217
840.46	78.671
840.63	71.765
840.80	63.200
840.98	88.000
841.15	62.250
841.32	62.061
841.49	65.797
841.66	65.847
841.83	57.333
842.00	69.620
842.17	80.548
842.34	48.711
842.52	73.353
842.69	67.610
842.86	69.896
843.03	93.082
843.20	98.367
843.37	73.776
843.54	85.366
843.71	68.571
843.88	101.987
844.06	88.664
844.23	105.314
844.40	87.879
844.57	92.766
844.74	115.721
844.91	107.407
845.08	101.569
845.25	93.796
845.42	94.472
845.59	145.029
845.76	103.182
845.94	131.646
846.11	124.876
846.28	101.379
846.45	130.675
846.62	101.081
846.79	110.556
846.96	94.118
847.13	110.588
847.30	94.444
847.47	103.297
847.64	118.605
847.81	111.538
847.98	105.946
848.15	114.516
848.32	106.701
848.50	140.994
848.67	133.333
848.84	115.152
849.01	123.129
849.18	122.632
849.35	107.853
849.52	112.139
849.69	112.139
849.86	130.061
850.03	143.836
850.20	131.250
850.37	118.571
850.54	139.623
850.71	144.715
850.88	135.664
851.05	151.370
851.22	129.193
851.39	141.237
851.56	104.861
851.73	122.222
851.90	141.875
852.07	105.882
852.24	131.618
852.41	144.526
852.58	132.576
852.75	133.728
852.92	110.326
853.09	113.966
853.26	139.490
853.43	93.182
853.60	108.247
853.77	132.624
853.94	134.848
854.11	152.991
854.28	116.489
854.45	113.986
854.62	149.664
854.79	123.077
854.96	128.986
855.13	122.222
855.30	126.943
855.47	124.828
855.64	155.856
855.81	164.286
855.98	134.667
856.15	122.069
856.32	99.061
856.49	101.370
856.66	149.419
856.83	110.995
857.00	151.639
857.17	170.833
857.34	128.030
857.51	132.051
857.68	167.857
857.85	130.909
858.02	239.189
858.19	117.143
858.36	116.000
858.53	144.000
858.70	116.556
858.87	146.897
859.04	128.873
859.21	100.870
859.38	104.636
859.55	190.741
859.72	155.372
859.89	166.667
860.05	150.388
860.22	164.474
860.39	185.981
860.56	151.376
860.73	122.892
860.90	128.000
861.07	122.404
861.24	140.171
861.41	152.857
861.58	110.837
861.75	155.556
861.92	119.685
862.09	119.277
862.26	175.532
862.43	136.842
862.59	101.026
862.76	138.776
862.93	155.901
863.10	129.655
863.27	98.919
863.44	110.526
863.61	140.588
863.78	167.606
863.95	149.618
864.12	118.750
864.29	141.085
864.45	227.397
864.62	148.872
864.79	118.919
864.96	128.571
865.13	139.695
865.30	186.364
865.47	187.037
865.64	160.625
865.81	100.000
865.97	95.628
866.14	111.905
866.31	145.528
866.48	137.209
866.65	113.000
866.82	136.242
866.99	212.621
867.16	195.714
867.33	150.427
867.49	170.803
867.66	114.078
867.83	145.600
868.00	123.404
868.17	128.030
868.34	134.932
868.51	105.634
868.67	197.521
868.84	135.374
869.01	147.244
869.18	153.488
869.35	160.000
869.52	133.562
869.69	127.481
869.85	108.021
870.02	156.075
870.19	169.748
870.36	128.571
870.53	83.523
870.70	130.814
870.86	131.447
871.03	156.303
871.20	103.311
871.37	109.569
871.54	121.379
871.71	105.556
871.87	117.808
872.04	113.548
872.21	188.172
872.38	104.908
872.55	139.437
872.72	107.442
872.88	131.953
873.05	106.593
873.22	108.929
873.39	116.463
873.56	134.682
873.72	142.537
873.89	142.754
874.06	127.632
874.23	144.068
874.40	133.566
874.56	219.811
874.73	132.609
874.90	119.209
875.07	142.361
875.24	81.503
875.40	76.774
875.57	114.943
875.74	97.333
875.91	115.702
876.08	117.424
876.24	130.519
876.41	148.837
876.58	103.727
876.75	126.786
876.92	119.469
877.08	155.357
877.25	112.025
877.42	139.259
877.59	117.483
877.75	162.416
877.92	120.000
878.09	141.353
878.26	138.312
878.42	133.333
878.59	118.382
878.76	118.590
878.93	114.620
879.09	100.532
879.26	87.568
879.43	122.941
879.60	109.259
879.76	116.993
879.93	121.519
880.10	84.568
880.27	82.110
880.43	95.610
880.60	87.215
880.77	78.355
880.94	72.727
881.10	70.238
881.27	62.133
881.44	52.194
881.61	47.380
881.77	45.238
881.94	29.949
882.11	23.354
882.28	32.083
882.44	34.753
882.61	34.143
882.78	31.567
882.94	35.722
883.11	32.899
883.28	29.603
883.45	32.942
883.61	29.142
883.78	31.876
883.95	32.674
884.11	32.481
884.28	36.936
>>>>>End Processed Spectral Data<<<<<
