SpectraSuite Data File
++++++++++++++++++++++++++++++++++++
Date: Wed Sep 18 03:22:37 EST 2019
User: sgrac
Dark Spectrum Present: Yes
Reference Spectrum Present: Yes
Number of Sampled Component Spectra: 1
Spectrometers: USB4E01596
Integration Time (usec): 100000 (USB4E01596)
Spectra Averaged: 3 (USB4E01596)
Boxcar Smoothing: 0 (USB4E01596)
Correct for Electrical Dark: No (USB4E01596)
Strobe/Lamp Enabled: Yes (USB4E01596)
Correct for Detector Non-linearity: No (USB4E01596)
Correct for Stray Light: No (USB4E01596)
Number of Pixels in Processed Spectrum: 3648
>>>>>Begin Processed Spectral Data<<<<<
178.44	-98.387
178.66	-98.387
178.87	-98.387
179.09	-160.000
179.30	186.957
179.52	544.737
179.74	-694.444
179.95	-1200.000
180.17	437.209
180.38	-686.667
180.60	262.857
180.82	1362.500
181.03	174.419
181.25	-1128.571
181.46	-402.500
181.68	-283.721
181.89	432.653
182.11	560.000
182.33	392.157
182.54	361.404
182.76	926.087
182.97	1535.714
183.19	154.348
183.40	211.364
183.62	317.308
183.84	266.129
184.05	475.758
184.27	277.049
184.48	1725.000
184.70	558.333
184.91	517.391
185.13	-368.750
185.34	-233.333
185.56	-481.818
185.78	711.111
185.99	301.639
186.21	353.659
186.42	-1340.000
186.64	230.303
186.85	1287.500
187.07	311.905
187.28	392.857
187.50	-558.824
187.72	298.000
187.93	321.687
188.15	363.235
188.36	-1170.588
188.58	211.688
188.79	-8850.000
189.01	110.204
189.22	354.545
189.44	708.333
189.65	234.831
189.87	281.579
190.09	215.957
190.30	840.000
190.52	931.250
190.73	216.867
190.95	740.909
191.16	243.284
191.38	-14700.000
191.59	426.087
191.81	260.000
192.02	-258.974
192.24	264.516
192.45	257.778
192.67	343.939
192.88	354.688
193.10	381.818
193.31	335.714
193.53	222.581
193.74	284.848
193.96	250.847
194.18	-513.043
194.39	339.216
194.61	782.759
194.82	703.846
195.04	311.111
195.25	380.328
195.47	-2675.000
195.68	174.648
195.90	235.165
196.11	372.917
196.33	1517.647
196.54	504.651
196.76	-792.000
196.97	214.000
197.19	950.000
197.40	184.962
197.62	-372.727
197.83	409.615
198.05	184.564
198.26	-616.000
198.48	269.444
198.69	201.835
198.91	227.536
199.12	-1350.000
199.34	636.000
199.55	13300.000
199.77	217.105
199.98	2733.333
200.20	455.882
200.41	269.014
200.63	261.111
200.84	761.905
201.06	416.129
201.27	266.667
201.49	373.437
201.70	283.607
201.91	477.273
202.13	845.000
202.34	-334.286
202.56	270.000
202.77	-104.651
202.99	302.439
203.20	436.170
203.42	314.286
203.63	102.752
203.85	-568.966
204.06	963.636
204.28	766.667
204.49	400.000
204.71	195.798
204.92	638.462
205.14	973.684
205.35	3225.000
205.56	307.042
205.78	292.593
205.99	164.885
206.21	174.747
206.42	360.870
206.64	488.235
206.85	192.222
207.07	254.286
207.28	213.636
207.50	565.217
207.71	441.860
207.93	360.417
208.14	372.093
208.35	191.525
208.57	214.000
208.78	251.064
209.00	246.237
209.21	163.380
209.43	313.889
209.64	700.000
209.86	1172.727
210.07	243.038
210.28	210.843
210.50	276.812
210.71	306.061
210.93	376.364
211.14	457.500
211.36	761.905
211.57	145.000
211.78	830.769
212.00	297.297
212.21	1588.889
212.43	1230.769
212.64	506.250
212.86	158.182
213.07	392.308
213.29	234.694
213.50	348.333
213.71	238.750
213.93	192.135
214.14	434.375
214.36	375.610
214.57	288.095
214.78	3675.000
215.00	139.024
215.21	424.444
215.43	-3000.000
215.64	211.429
215.86	202.941
216.07	294.521
216.28	248.000
216.50	248.000
216.71	740.000
216.93	-16000.000
217.14	657.895
217.35	-179.661
217.57	193.182
217.78	444.828
218.00	123.810
218.21	261.765
218.42	-4525.000
218.64	635.714
218.85	255.882
219.07	309.302
219.28	410.417
219.49	-7150.000
219.71	298.507
219.92	355.263
220.14	-7900.000
220.35	204.110
220.56	239.130
220.78	159.756
220.99	-162.222
221.21	245.783
221.42	133.553
221.63	1253.846
221.85	-423.333
222.06	172.727
222.28	-403.571
222.49	259.649
222.70	231.034
222.92	423.684
223.13	147.260
223.34	2150.000
223.56	153.846
223.77	271.605
223.99	102.020
224.20	100.000
224.41	182.727
224.63	141.477
224.84	137.903
225.05	175.410
225.27	285.455
225.48	240.244
225.69	234.375
225.91	181.538
226.12	233.333
226.34	212.745
226.55	143.396
226.76	120.930
226.98	217.949
227.19	117.857
227.40	147.183
227.62	65.128
227.83	79.048
228.04	84.324
228.26	118.919
228.47	52.885
228.69	15.082
228.90	25.068
229.11	28.652
229.33	39.326
229.54	35.907
229.75	25.135
229.97	25.550
230.18	20.101
230.39	26.525
230.61	13.776
230.82	29.143
231.03	18.373
231.25	29.651
231.46	36.195
231.67	34.429
231.89	22.487
232.10	42.114
232.31	43.019
232.53	33.778
232.74	48.394
232.95	27.525
233.17	44.371
233.38	39.480
233.59	52.318
233.81	50.533
234.02	40.922
234.23	44.792
234.45	48.603
234.66	42.327
234.87	33.708
235.09	37.321
235.30	38.693
235.51	34.586
235.73	29.216
235.94	45.378
236.15	43.923
236.36	30.112
236.58	40.909
236.79	25.746
237.00	34.823
237.22	37.569
237.43	27.673
237.64	17.339
237.86	32.114
238.07	46.771
238.28	41.845
238.50	35.787
238.71	33.077
238.92	34.852
239.13	37.393
239.35	34.137
239.56	43.100
239.77	63.086
239.99	29.536
240.20	61.250
240.41	27.902
240.63	44.669
240.84	35.314
241.05	23.259
241.26	20.368
241.48	23.420
241.69	27.742
241.90	17.946
242.12	24.276
242.33	17.099
242.54	14.692
242.75	9.642
242.97	17.572
243.18	12.760
243.39	14.009
243.61	8.789
243.82	19.119
244.03	15.088
244.24	13.293
244.46	15.416
244.67	16.099
244.88	15.078
245.09	13.703
245.31	9.142
245.52	13.001
245.73	18.124
245.95	27.603
246.16	21.362
246.37	22.290
246.58	20.293
246.80	16.200
247.01	17.126
247.22	14.815
247.43	10.647
247.65	12.002
247.86	10.160
248.07	7.960
248.28	11.716
248.50	11.988
248.71	10.119
248.92	10.203
249.13	11.663
249.35	9.697
249.56	8.785
249.77	9.871
249.98	8.104
250.20	13.232
250.41	17.411
250.62	14.752
250.83	15.380
251.05	18.558
251.26	16.456
251.47	15.380
251.68	17.368
251.90	14.982
252.11	15.350
252.32	19.415
252.53	18.471
252.75	10.230
252.96	13.441
253.17	15.917
253.38	9.597
253.59	8.840
253.81	12.327
254.02	11.860
254.23	13.472
254.44	16.791
254.66	17.944
254.87	10.981
255.08	15.655
255.29	19.877
255.50	14.092
255.72	17.576
255.93	17.990
256.14	19.883
256.35	12.950
256.57	21.801
256.78	19.567
256.99	22.572
257.20	16.425
257.41	15.938
257.63	11.190
257.84	17.785
258.05	15.930
258.26	17.670
258.47	10.103
258.69	19.457
258.90	11.911
259.11	12.832
259.32	9.219
259.53	11.023
259.75	7.852
259.96	11.659
260.17	8.560
260.38	8.450
260.59	8.176
260.81	8.642
261.02	7.863
261.23	8.064
261.44	9.020
261.65	6.280
261.87	8.652
262.08	8.253
262.29	10.106
262.50	6.742
262.71	7.060
262.92	10.112
263.14	8.970
263.35	8.819
263.56	9.777
263.77	7.274
263.98	10.837
264.20	10.195
264.41	10.812
264.62	10.268
264.83	7.787
265.04	16.253
265.25	10.066
265.47	18.479
265.68	13.457
265.89	12.105
266.10	8.672
266.31	12.492
266.52	8.443
266.74	10.284
266.95	10.341
267.16	11.423
267.37	10.638
267.58	10.350
267.79	12.706
268.01	6.145
268.22	6.636
268.43	10.807
268.64	8.960
268.85	10.201
269.06	8.929
269.27	11.399
269.49	9.219
269.70	12.696
269.91	9.963
270.12	12.087
270.33	12.292
270.54	9.600
270.75	9.267
270.97	10.288
271.18	6.715
271.39	8.772
271.60	14.054
271.81	7.357
272.02	10.910
272.23	8.132
272.45	9.013
272.66	6.640
272.87	8.369
273.08	7.158
273.29	10.903
273.50	7.286
273.71	6.903
273.92	7.406
274.14	8.670
274.35	9.456
274.56	11.622
274.77	9.103
274.98	8.508
275.19	8.082
275.40	9.779
275.61	6.892
275.83	7.328
276.04	8.874
276.25	11.688
276.46	10.558
276.67	10.909
276.88	13.556
277.09	8.622
277.30	10.912
277.51	10.663
277.73	8.132
277.94	8.545
278.15	7.316
278.36	11.033
278.57	9.087
278.78	9.323
278.99	7.090
279.20	9.649
279.41	14.056
279.62	8.716
279.84	13.211
280.05	6.218
280.26	9.420
280.47	10.974
280.68	6.968
280.89	7.963
281.10	8.378
281.31	11.623
281.52	11.091
281.73	6.432
281.94	7.023
282.16	7.750
282.37	10.528
282.58	7.282
282.79	7.662
283.00	10.571
283.21	8.294
283.42	6.957
283.63	10.061
283.84	7.840
284.05	6.275
284.26	8.433
284.47	9.189
284.68	7.442
284.89	7.790
285.11	7.302
285.32	7.949
285.53	8.689
285.74	9.755
285.95	8.966
286.16	7.510
286.37	5.000
286.58	6.991
286.79	5.652
287.00	7.511
287.21	6.187
287.42	7.229
287.63	7.966
287.84	8.018
288.05	7.296
288.26	8.439
288.48	7.321
288.69	8.047
288.90	8.227
289.11	9.033
289.32	9.677
289.53	7.532
289.74	7.163
289.95	7.426
290.16	8.803
290.37	10.196
290.58	5.132
290.79	4.185
291.00	7.069
291.21	8.460
291.42	6.940
291.63	6.916
291.84	6.629
292.05	6.222
292.26	7.529
292.47	6.732
292.68	4.688
292.89	7.558
293.10	6.908
293.31	8.612
293.52	6.027
293.73	5.982
293.94	9.007
294.15	4.762
294.36	6.886
294.57	8.478
294.79	6.008
295.00	4.299
295.21	8.484
295.42	7.466
295.63	9.477
295.84	6.201
296.05	6.116
296.26	6.673
296.47	8.525
296.68	6.145
296.89	8.205
297.10	5.789
297.31	5.300
297.52	5.484
297.73	6.980
297.94	5.066
298.15	5.534
298.36	5.142
298.57	5.768
298.78	6.611
298.99	5.486
299.20	6.980
299.41	7.669
299.62	6.249
299.83	6.153
300.04	7.277
300.25	6.658
300.46	7.263
300.67	8.677
300.88	6.009
301.09	5.690
301.30	7.148
301.50	6.631
301.71	9.563
301.92	8.844
302.13	4.831
302.34	5.913
302.55	7.834
302.76	5.143
302.97	6.672
303.18	6.409
303.39	7.542
303.60	7.907
303.81	7.817
304.02	6.716
304.23	7.849
304.44	7.085
304.65	6.726
304.86	7.278
305.07	5.788
305.28	7.070
305.49	10.156
305.70	7.751
305.91	7.198
306.12	5.354
306.33	5.780
306.54	7.845
306.75	9.836
306.96	10.353
307.17	5.059
307.38	5.112
307.58	6.091
307.79	6.268
308.00	8.589
308.21	4.477
308.42	5.768
308.63	6.388
308.84	9.156
309.05	8.676
309.26	5.734
309.47	7.715
309.68	5.911
309.89	6.771
310.10	7.275
310.31	5.020
310.52	6.626
310.73	8.419
310.94	3.984
311.14	6.246
311.35	7.226
311.56	7.686
311.77	5.771
311.98	4.727
312.19	6.595
312.40	5.422
312.61	4.683
312.82	6.407
313.03	6.017
313.24	5.349
313.45	7.573
313.66	6.994
313.86	7.736
314.07	6.086
314.28	8.259
314.49	3.294
314.70	6.626
314.91	7.855
315.12	5.967
315.33	9.124
315.54	4.146
315.75	6.559
315.96	5.330
316.16	6.628
316.37	8.883
316.58	6.258
316.79	8.449
317.00	7.137
317.21	7.906
317.42	7.980
317.63	6.638
317.84	7.186
318.05	7.156
318.25	6.300
318.46	8.132
318.67	6.268
318.88	8.923
319.09	8.149
319.30	8.427
319.51	7.749
319.72	6.351
319.93	5.052
320.13	8.298
320.34	7.495
320.55	4.199
320.76	7.219
320.97	7.363
321.18	10.331
321.39	5.775
321.60	5.751
321.80	10.492
322.01	8.022
322.22	8.609
322.43	5.423
322.64	8.258
322.85	7.905
323.06	6.322
323.27	10.229
323.47	9.270
323.68	7.464
323.89	6.842
324.10	7.593
324.31	7.672
324.52	9.565
324.73	8.035
324.93	6.673
325.14	7.288
325.35	8.277
325.56	8.009
325.77	9.133
325.98	5.098
326.19	6.619
326.39	4.616
326.60	5.833
326.81	7.052
327.02	4.763
327.23	6.362
327.44	10.301
327.64	6.653
327.85	5.153
328.06	7.174
328.27	10.027
328.48	7.146
328.69	4.731
328.90	6.922
329.10	4.223
329.31	6.306
329.52	6.258
329.73	7.710
329.94	7.203
330.15	11.598
330.35	10.156
330.56	7.521
330.77	8.002
330.98	8.434
331.19	6.147
331.39	7.148
331.60	6.481
331.81	7.261
332.02	8.157
332.23	7.915
332.44	8.140
332.64	7.195
332.85	8.759
333.06	9.697
333.27	6.367
333.48	8.518
333.68	8.078
333.89	6.938
334.10	5.833
334.31	7.690
334.52	7.097
334.72	7.382
334.93	6.886
335.14	4.754
335.35	6.860
335.56	9.185
335.76	6.756
335.97	9.162
336.18	6.709
336.39	11.277
336.60	7.687
336.80	6.606
337.01	7.057
337.22	7.773
337.43	10.234
337.64	10.467
337.84	7.860
338.05	8.503
338.26	11.346
338.47	12.103
338.68	7.854
338.88	10.440
339.09	9.774
339.30	11.339
339.51	8.589
339.71	11.889
339.92	7.515
340.13	10.151
340.34	7.659
340.55	8.156
340.75	8.141
340.96	8.184
341.17	9.615
341.38	9.239
341.58	10.726
341.79	11.026
342.00	7.331
342.21	10.476
342.41	7.595
342.62	10.565
342.83	9.987
343.04	7.832
343.24	12.121
343.45	13.495
343.66	11.432
343.87	12.568
344.07	10.044
344.28	13.234
344.49	13.616
344.70	14.465
344.90	11.088
345.11	8.240
345.32	11.471
345.53	12.366
345.73	12.238
345.94	15.409
346.15	14.415
346.36	13.168
346.56	12.528
346.77	15.691
346.98	12.694
347.19	14.828
347.39	14.941
347.60	12.921
347.81	13.850
348.02	14.719
348.22	10.689
348.43	12.676
348.64	11.630
348.84	14.115
349.05	14.513
349.26	16.507
349.47	11.004
349.67	12.590
349.88	15.362
350.09	15.353
350.30	16.591
350.50	16.423
350.71	15.160
350.92	14.851
351.12	14.945
351.33	15.775
351.54	14.118
351.74	16.068
351.95	11.863
352.16	17.866
352.37	16.086
352.57	15.323
352.78	13.339
352.99	15.315
353.19	14.719
353.40	17.278
353.61	17.294
353.82	17.137
354.02	17.101
354.23	17.079
354.44	17.079
354.64	15.585
354.85	17.265
355.06	16.444
355.26	14.947
355.47	17.318
355.68	18.668
355.88	18.487
356.09	15.615
356.30	15.217
356.51	17.391
356.71	16.961
356.92	14.723
357.13	17.099
357.33	20.051
357.54	15.172
357.75	13.705
357.95	17.694
358.16	15.745
358.37	19.431
358.57	14.239
358.78	19.906
358.99	18.334
359.19	15.735
359.40	19.290
359.61	18.078
359.81	19.797
360.02	19.231
360.23	15.901
360.43	16.926
360.64	16.311
360.85	16.874
361.05	16.829
361.26	19.624
361.47	16.533
361.67	19.558
361.88	15.211
362.09	19.047
362.29	16.775
362.50	16.427
362.70	14.981
362.91	18.233
363.12	16.288
363.32	17.419
363.53	17.793
363.74	19.412
363.94	14.692
364.15	18.751
364.36	17.559
364.56	16.897
364.77	17.908
364.98	21.075
365.18	18.709
365.39	19.440
365.59	16.243
365.80	17.479
366.01	16.081
366.21	16.527
366.42	16.269
366.63	17.967
366.83	16.696
367.04	13.191
367.24	17.692
367.45	16.487
367.66	14.691
367.86	15.089
368.07	15.210
368.28	15.476
368.48	15.902
368.69	14.185
368.89	15.241
369.10	17.028
369.31	15.801
369.51	16.877
369.72	16.163
369.92	18.568
370.13	13.625
370.34	17.049
370.54	11.139
370.75	15.615
370.95	12.667
371.16	17.403
371.37	14.011
371.57	14.359
371.78	13.191
371.98	16.136
372.19	15.868
372.40	16.442
372.60	15.510
372.81	17.359
373.01	13.327
373.22	14.925
373.43	15.693
373.63	17.875
373.84	16.805
374.04	15.143
374.25	15.990
374.46	16.458
374.66	15.142
374.87	16.999
375.07	12.202
375.28	14.690
375.48	14.826
375.69	17.641
375.90	11.813
376.10	12.058
376.31	13.290
376.51	13.390
376.72	14.550
376.92	13.099
377.13	15.445
377.34	14.349
377.54	14.061
377.75	17.026
377.95	13.863
378.16	15.223
378.36	14.157
378.57	15.729
378.77	13.404
378.98	16.483
379.19	13.302
379.39	13.828
379.60	14.097
379.80	14.772
380.01	14.262
380.21	14.173
380.42	15.081
380.62	13.496
380.83	15.324
381.04	13.077
381.24	15.398
381.45	14.236
381.65	11.746
381.86	13.550
382.06	15.095
382.27	12.410
382.47	12.416
382.68	15.427
382.88	11.767
383.09	11.678
383.29	13.132
383.50	14.352
383.71	12.830
383.91	14.080
384.12	12.337
384.32	14.212
384.53	13.212
384.73	12.317
384.94	12.670
385.14	11.880
385.35	11.493
385.55	13.409
385.76	11.726
385.96	13.022
386.17	13.234
386.37	13.589
386.58	12.965
386.78	13.990
386.99	12.375
387.19	14.617
387.40	11.271
387.60	14.487
387.81	13.230
388.01	12.903
388.22	14.358
388.42	14.339
388.63	14.098
388.83	15.713
389.04	11.123
389.24	13.536
389.45	12.025
389.65	11.118
389.86	10.872
390.06	11.267
390.27	11.045
390.47	12.978
390.68	11.458
390.88	14.075
391.09	12.265
391.29	13.275
391.50	12.365
391.70	14.040
391.91	11.893
392.11	12.978
392.32	12.639
392.52	13.349
392.73	11.574
392.93	13.951
393.14	12.368
393.34	12.326
393.55	13.661
393.75	12.394
393.95	12.208
394.16	13.639
394.36	13.810
394.57	13.732
394.77	12.155
394.98	12.051
395.18	12.430
395.39	11.966
395.59	12.077
395.80	12.805
396.00	11.898
396.21	14.040
396.41	12.048
396.61	12.762
396.82	13.283
397.02	14.901
397.23	12.297
397.43	12.305
397.64	10.546
397.84	14.950
398.05	10.186
398.25	13.255
398.45	10.958
398.66	12.463
398.86	11.833
399.07	12.928
399.27	11.284
399.48	12.640
399.68	10.051
399.89	11.253
400.09	11.875
400.29	10.723
400.50	12.958
400.70	12.351
400.91	10.528
401.11	10.989
401.32	12.147
401.52	9.951
401.72	11.463
401.93	14.006
402.13	11.647
402.34	11.211
402.54	9.500
402.75	13.925
402.95	9.157
403.15	12.849
403.36	10.867
403.56	12.425
403.77	10.448
403.97	10.949
404.17	9.451
404.38	11.426
404.58	11.352
404.79	11.779
404.99	11.838
405.19	10.451
405.40	10.777
405.60	12.339
405.81	10.778
406.01	12.055
406.21	10.621
406.42	11.713
406.62	11.630
406.83	12.106
407.03	12.357
407.23	10.197
407.44	9.919
407.64	11.216
407.85	11.473
408.05	10.708
408.25	10.948
408.46	12.464
408.66	11.589
408.87	12.020
409.07	10.354
409.27	9.839
409.48	10.974
409.68	11.482
409.88	8.470
410.09	11.404
410.29	11.728
410.50	12.265
410.70	9.506
410.90	10.793
411.11	10.175
411.31	11.444
411.51	11.285
411.72	11.898
411.92	10.429
412.12	10.036
412.33	9.052
412.53	10.602
412.74	8.550
412.94	10.223
413.14	10.113
413.35	10.194
413.55	10.009
413.75	11.194
413.96	10.157
414.16	10.541
414.36	10.122
414.57	10.053
414.77	10.029
414.97	10.883
415.18	9.600
415.38	10.279
415.58	10.646
415.79	10.212
415.99	10.099
416.19	11.768
416.40	10.311
416.60	10.582
416.80	9.602
417.01	10.876
417.21	9.027
417.41	11.302
417.62	10.469
417.82	10.462
418.02	10.351
418.23	10.788
418.43	10.550
418.63	11.438
418.84	11.068
419.04	10.078
419.24	10.999
419.45	11.290
419.65	12.036
419.85	12.022
420.06	11.002
420.26	11.501
420.46	11.458
420.67	11.745
420.87	11.444
421.07	12.402
421.28	11.033
421.48	12.114
421.68	11.684
421.88	12.404
422.09	11.815
422.29	11.782
422.49	11.204
422.70	11.942
422.90	11.298
423.10	11.908
423.31	12.075
423.51	11.896
423.71	11.143
423.91	11.959
424.12	11.550
424.32	11.879
424.52	11.628
424.73	11.402
424.93	11.617
425.13	11.425
425.33	11.334
425.54	11.733
425.74	11.527
425.94	12.163
426.15	11.526
426.35	11.578
426.55	11.511
426.75	11.714
426.96	11.528
427.16	11.469
427.36	11.440
427.57	12.127
427.77	10.739
427.97	11.951
428.17	11.588
428.38	11.188
428.58	9.510
428.78	11.577
428.98	9.523
429.19	10.871
429.39	8.969
429.59	10.769
429.79	9.796
430.00	9.562
430.20	9.609
430.40	10.396
430.60	9.836
430.81	9.856
431.01	9.355
431.21	10.629
431.41	9.204
431.62	9.909
431.82	9.423
432.02	10.365
432.22	9.058
432.43	10.017
432.63	9.077
432.83	10.546
433.03	9.636
433.24	9.857
433.44	9.539
433.64	10.371
433.84	9.641
434.05	10.416
434.25	10.529
434.45	10.906
434.65	10.805
434.85	11.694
435.06	10.706
435.26	10.570
435.46	10.636
435.66	10.928
435.87	10.088
436.07	11.077
436.27	10.820
436.47	10.481
436.67	9.855
436.88	10.566
437.08	10.328
437.28	10.700
437.48	10.339
437.69	10.631
437.89	9.761
438.09	11.434
438.29	9.955
438.49	11.145
438.70	10.434
438.90	10.261
439.10	9.775
439.30	10.857
439.50	9.818
439.71	11.006
439.91	9.755
440.11	11.084
440.31	10.675
440.51	10.375
440.72	10.052
440.92	10.868
441.12	10.661
441.32	11.574
441.52	10.870
441.72	11.012
441.93	10.599
442.13	11.415
442.33	10.557
442.53	11.382
442.73	10.369
442.94	10.701
443.14	10.695
443.34	10.892
443.54	11.152
443.74	11.041
443.94	10.410
444.15	10.794
444.35	9.801
444.55	10.907
444.75	9.867
444.95	10.672
445.15	10.627
445.36	10.807
445.56	9.785
445.76	10.837
445.96	10.695
446.16	10.731
446.36	10.086
446.57	11.256
446.77	10.006
446.97	11.329
447.17	10.943
447.37	10.748
447.57	11.164
447.77	10.972
447.98	10.488
448.18	11.179
448.38	10.710
448.58	11.422
448.78	11.015
448.98	11.167
449.18	10.707
449.39	11.145
449.59	10.558
449.79	11.223
449.99	10.688
450.19	10.928
450.39	10.445
450.59	11.139
450.79	10.457
451.00	10.926
451.20	10.513
451.40	10.347
451.60	10.076
451.80	10.790
452.00	10.072
452.20	10.858
452.40	10.297
452.61	10.602
452.81	9.873
453.01	9.857
453.21	10.187
453.41	10.381
453.61	10.070
453.81	10.787
454.01	10.094
454.21	10.713
454.42	10.761
454.62	10.560
454.82	10.397
455.02	10.259
455.22	9.548
455.42	9.595
455.62	9.237
455.82	9.893
456.02	9.429
456.23	10.146
456.43	9.629
456.63	10.397
456.83	9.234
457.03	10.362
457.23	9.728
457.43	10.245
457.63	9.874
457.83	10.585
458.03	9.827
458.23	10.201
458.43	9.126
458.64	10.210
458.84	10.097
459.04	9.807
459.24	10.180
459.44	10.478
459.64	10.345
459.84	10.683
460.04	10.332
460.24	10.540
460.44	10.382
460.64	11.067
460.84	10.326
461.04	11.037
461.24	10.596
461.45	10.862
461.65	10.602
461.85	10.922
462.05	10.471
462.25	10.792
462.45	10.966
462.65	10.978
462.85	9.593
463.05	11.174
463.25	9.495
463.45	10.688
463.65	10.135
463.85	10.544
464.05	9.485
464.25	9.544
464.45	10.433
464.65	9.765
464.85	9.473
465.05	9.863
465.26	9.976
465.46	10.628
465.66	9.998
465.86	9.820
466.06	9.818
466.26	10.234
466.46	8.473
466.66	9.784
466.86	9.444
467.06	10.221
467.26	9.712
467.46	10.071
467.66	9.775
467.86	9.989
468.06	9.617
468.26	9.796
468.46	10.047
468.66	10.147
468.86	9.136
469.06	10.527
469.26	9.128
469.46	10.882
469.66	9.182
469.86	10.325
470.06	9.192
470.26	10.284
470.46	9.220
470.66	10.196
470.86	9.343
471.06	9.704
471.26	8.791
471.46	9.482
471.66	9.773
471.86	9.671
472.06	9.352
472.26	10.773
472.46	10.479
472.66	9.988
472.86	9.664
473.06	9.881
473.26	9.332
473.46	10.030
473.66	9.116
473.86	10.080
474.06	9.236
474.26	9.930
474.46	8.825
474.66	10.521
474.86	10.151
475.06	9.936
475.26	9.217
475.46	9.873
475.66	8.752
475.86	9.931
476.06	9.985
476.26	10.671
476.46	9.472
476.66	10.150
476.86	9.016
477.06	9.271
477.26	9.113
477.46	10.105
477.65	9.822
477.85	10.477
478.05	9.393
478.25	10.851
478.45	9.161
478.65	9.844
478.85	9.465
479.05	10.760
479.25	10.060
479.45	10.209
479.65	9.578
479.85	10.502
480.05	9.856
480.25	9.811
480.45	9.909
480.65	10.904
480.85	9.944
481.05	10.815
481.25	10.346
481.44	10.466
481.64	9.637
481.84	10.698
482.04	10.367
482.24	10.242
482.44	9.673
482.64	10.423
482.84	10.434
483.04	10.534
483.24	10.254
483.44	10.633
483.64	10.219
483.84	10.553
484.04	10.415
484.23	10.401
484.43	10.332
484.63	10.488
484.83	10.751
485.03	10.748
485.23	10.800
485.43	10.919
485.63	11.024
485.83	11.181
486.03	11.080
486.23	11.226
486.42	11.255
486.62	11.288
486.82	10.934
487.02	10.975
487.22	10.821
487.42	10.576
487.62	10.668
487.82	10.758
488.02	10.713
488.22	10.765
488.41	10.601
488.61	10.749
488.81	10.701
489.01	10.796
489.21	10.803
489.41	10.994
489.61	10.958
489.81	11.138
490.01	11.382
490.20	11.213
490.40	11.174
490.60	10.971
490.80	10.866
491.00	11.047
491.20	10.834
491.40	10.527
491.60	10.360
491.79	10.837
491.99	10.446
492.19	10.558
492.39	10.797
492.59	10.653
492.79	10.623
492.99	10.674
493.19	10.727
493.38	10.975
493.58	10.893
493.78	11.000
493.98	11.214
494.18	11.320
494.38	11.088
494.58	10.870
494.77	10.290
494.97	10.464
495.17	10.254
495.37	10.981
495.57	10.321
495.77	10.694
495.96	10.428
496.16	9.954
496.36	10.142
496.56	10.103
496.76	9.742
496.96	10.270
497.15	10.155
497.35	10.678
497.55	10.113
497.75	11.054
497.95	10.160
498.15	10.605
498.34	10.049
498.54	10.432
498.74	10.676
498.94	10.822
499.14	10.159
499.34	10.226
499.53	10.759
499.73	10.409
499.93	10.043
500.13	10.489
500.33	10.215
500.52	10.848
500.72	10.207
500.92	10.484
501.12	9.882
501.32	10.034
501.52	10.356
501.71	10.804
501.91	10.409
502.11	10.754
502.31	9.740
502.51	10.556
502.70	9.834
502.90	10.106
503.10	10.043
503.30	10.331
503.50	10.179
503.69	10.999
503.89	10.460
504.09	10.724
504.29	9.786
504.48	10.744
504.68	10.636
504.88	11.048
505.08	10.009
505.28	10.837
505.47	10.328
505.67	11.146
505.87	10.454
506.07	10.383
506.27	10.330
506.46	10.931
506.66	9.932
506.86	10.810
507.06	10.632
507.25	10.785
507.45	10.262
507.65	11.051
507.85	10.157
508.04	10.976
508.24	10.443
508.44	10.208
508.64	10.436
508.83	11.215
509.03	10.437
509.23	10.942
509.43	10.441
509.63	10.770
509.82	11.051
510.02	10.779
510.22	10.654
510.42	11.093
510.61	11.281
510.81	10.644
511.01	10.728
511.21	10.838
511.40	10.767
511.60	11.192
511.80	11.032
511.99	11.190
512.19	11.023
512.39	11.041
512.59	10.831
512.78	11.302
512.98	10.930
513.18	11.214
513.38	10.727
513.57	11.334
513.77	10.690
513.97	11.026
514.17	10.730
514.36	11.027
514.56	10.826
514.76	11.172
514.95	11.000
515.15	11.278
515.35	10.332
515.55	11.071
515.74	10.763
515.94	11.669
516.14	10.350
516.33	11.397
516.53	10.798
516.73	10.469
516.93	10.880
517.12	11.291
517.32	10.112
517.52	11.130
517.71	10.813
517.91	10.919
518.11	10.919
518.30	11.129
518.50	10.739
518.70	11.202
518.90	11.129
519.09	11.233
519.29	11.135
519.49	11.688
519.68	10.904
519.88	11.302
520.08	11.215
520.27	11.356
520.47	11.459
520.67	11.556
520.86	11.422
521.06	11.650
521.26	11.272
521.45	11.617
521.65	11.461
521.85	11.627
522.04	10.891
522.24	11.449
522.44	11.205
522.63	11.012
522.83	10.909
523.03	11.184
523.22	10.891
523.42	11.614
523.62	11.611
523.81	11.442
524.01	11.140
524.21	11.284
524.40	10.863
524.60	11.517
524.80	11.166
524.99	11.173
525.19	11.391
525.39	11.065
525.58	10.954
525.78	11.476
525.98	11.291
526.17	11.606
526.37	11.280
526.57	11.522
526.76	11.584
526.96	11.582
527.15	11.674
527.35	11.843
527.55	11.539
527.74	11.798
527.94	11.410
528.14	11.279
528.33	11.369
528.53	11.387
528.72	11.400
528.92	11.584
529.12	11.400
529.31	11.511
529.51	11.605
529.71	11.456
529.90	11.700
530.10	11.725
530.29	11.783
530.49	11.855
530.69	11.999
530.88	12.175
531.08	12.015
531.28	12.154
531.47	11.801
531.67	11.875
531.86	11.942
532.06	11.815
532.26	11.600
532.45	12.010
532.65	11.821
532.84	11.641
533.04	11.596
533.24	11.875
533.43	11.512
533.63	11.702
533.82	11.878
534.02	11.835
534.22	11.685
534.41	11.745
534.61	12.020
534.80	11.968
535.00	12.178
535.19	12.225
535.39	12.202
535.59	12.163
535.78	12.189
535.98	11.750
536.17	12.183
536.37	11.981
536.57	11.897
536.76	11.986
536.96	11.866
537.15	11.955
537.35	11.901
537.54	12.047
537.74	12.208
537.93	12.619
538.13	11.853
538.33	12.498
538.52	12.250
538.72	12.361
538.91	12.599
539.11	12.421
539.30	12.322
539.50	12.317
539.70	12.093
539.89	12.210
540.09	12.229
540.28	12.049
540.48	11.988
540.67	12.494
540.87	12.213
541.06	12.104
541.26	11.957
541.45	12.162
541.65	12.012
541.85	12.378
542.04	12.250
542.24	12.356
542.43	12.402
542.63	12.489
542.82	12.383
543.02	12.591
543.21	12.814
543.41	13.043
543.60	12.841
543.80	12.910
543.99	12.679
544.19	12.872
544.38	12.834
544.58	12.971
544.77	12.750
544.97	12.852
545.16	12.784
545.36	12.929
545.56	12.736
545.75	13.076
545.95	12.841
546.14	13.330
546.34	12.664
546.53	12.949
546.73	12.722
546.92	13.046
547.12	12.871
547.31	13.104
547.51	13.099
547.70	13.258
547.90	13.021
548.09	13.541
548.29	12.926
548.48	13.359
548.68	13.339
548.87	13.934
549.07	13.516
549.26	13.071
549.46	13.248
549.65	13.696
549.84	13.505
550.04	13.367
550.23	13.157
550.43	13.566
550.62	13.242
550.82	13.629
551.01	12.890
551.21	13.978
551.40	12.878
551.60	13.565
551.79	12.773
551.99	13.636
552.18	13.005
552.38	13.986
552.57	13.427
552.77	13.976
552.96	13.715
553.16	14.621
553.35	13.746
553.54	14.212
553.74	13.961
553.93	14.798
554.13	14.420
554.32	13.902
554.52	14.130
554.71	14.354
554.91	14.622
555.10	15.069
555.29	14.195
555.49	14.719
555.68	14.318
555.88	14.938
556.07	13.847
556.27	14.938
556.46	14.488
556.66	14.471
556.85	14.671
557.04	15.164
557.24	14.122
557.43	15.133
557.63	14.823
557.82	15.198
558.02	14.645
558.21	14.682
558.40	14.607
558.60	15.490
558.79	15.368
558.99	15.019
559.18	14.664
559.38	14.898
559.57	14.921
559.76	15.437
559.96	15.590
560.15	15.490
560.35	15.315
560.54	15.345
560.73	15.063
560.93	16.021
561.12	15.941
561.32	16.486
561.51	16.059
561.70	16.762
561.90	16.005
562.09	16.046
562.29	15.708
562.48	16.877
562.67	16.201
562.87	16.726
563.06	15.977
563.26	16.911
563.45	15.923
563.64	17.089
563.84	16.596
564.03	17.305
564.23	16.364
564.42	16.953
564.61	16.472
564.81	17.466
565.00	17.348
565.20	17.333
565.39	17.099
565.58	16.960
565.78	17.327
565.97	17.163
566.16	17.835
566.36	17.864
566.55	18.160
566.74	17.854
566.94	17.872
567.13	17.850
567.33	18.454
567.52	17.985
567.71	18.196
567.91	18.177
568.10	18.008
568.29	18.202
568.49	18.372
568.68	18.832
568.87	18.721
569.07	18.952
569.26	18.159
569.45	18.527
569.65	18.356
569.84	18.976
570.04	18.531
570.23	19.079
570.42	18.630
570.62	18.421
570.81	18.463
571.00	18.886
571.20	18.501
571.39	18.804
571.58	19.206
571.78	19.485
571.97	19.082
572.16	18.850
572.36	19.137
572.55	19.255
572.74	19.563
572.94	18.873
573.13	19.283
573.32	19.679
573.51	19.453
573.71	19.625
573.90	19.279
574.09	19.695
574.29	19.216
574.48	20.112
574.67	18.968
574.87	19.411
575.06	19.231
575.25	19.867
575.45	19.794
575.64	19.843
575.83	19.014
576.03	20.073
576.22	19.472
576.41	19.676
576.60	19.393
576.80	19.658
576.99	20.038
577.18	20.107
577.38	19.739
577.57	20.448
577.76	19.806
577.95	20.650
578.15	19.357
578.34	20.325
578.53	19.724
578.73	19.767
578.92	19.357
579.11	20.110
579.30	19.775
579.50	19.585
579.69	19.735
579.88	19.232
580.08	19.900
580.27	19.790
580.46	19.694
580.65	20.089
580.85	20.068
581.04	19.622
581.23	18.938
581.42	19.885
581.62	19.622
581.81	20.370
582.00	19.831
582.19	19.162
582.39	20.143
582.58	19.500
582.77	19.880
582.96	19.604
583.16	19.549
583.35	19.770
583.54	20.460
583.73	19.740
583.93	18.986
584.12	19.393
584.31	19.358
584.50	19.748
584.70	18.704
584.89	19.711
585.08	18.924
585.27	19.897
585.47	18.755
585.66	19.433
585.85	19.409
586.04	19.590
586.24	20.239
586.43	19.422
586.62	18.085
586.81	19.688
587.00	19.011
587.20	19.377
587.39	18.539
587.58	19.331
587.77	19.476
587.97	19.218
588.16	19.020
588.35	19.853
588.54	19.418
588.73	19.394
588.93	18.418
589.12	19.077
589.31	19.634
589.50	19.362
589.69	19.766
589.89	19.849
590.08	18.951
590.27	19.393
590.46	18.943
590.65	19.060
590.85	18.324
591.04	19.360
591.23	19.773
591.42	19.309
591.61	19.334
591.81	19.787
592.00	18.643
592.19	19.625
592.38	18.551
592.57	19.557
592.77	19.789
592.96	19.474
593.15	19.789
593.34	19.465
593.53	19.071
593.72	19.185
593.92	19.159
594.11	19.618
594.30	19.106
594.49	19.620
594.68	19.481
594.87	20.087
595.07	19.348
595.26	19.621
595.45	19.041
595.64	20.093
595.83	19.590
596.02	19.696
596.22	20.119
596.41	20.175
596.60	19.380
596.79	20.031
596.98	19.568
597.17	19.631
597.37	19.745
597.56	19.820
597.75	19.491
597.94	20.370
598.13	20.683
598.32	20.216
598.51	20.021
598.71	20.998
598.90	20.294
599.09	20.484
599.28	19.604
599.47	20.566
599.66	19.832
599.85	20.514
600.05	19.621
600.24	20.696
600.43	19.907
600.62	20.822
600.81	20.583
601.00	20.774
601.19	20.053
601.38	20.348
601.58	20.189
601.77	20.789
601.96	20.434
602.15	21.365
602.34	20.803
602.53	22.115
602.72	19.830
602.91	20.739
603.10	21.117
603.30	21.543
603.49	20.535
603.68	21.405
603.87	20.006
604.06	21.514
604.25	21.046
604.44	20.981
604.63	20.829
604.82	20.675
605.01	20.722
605.21	20.922
605.40	20.219
605.59	20.868
605.78	20.935
605.97	21.239
606.16	20.856
606.35	21.284
606.54	21.301
606.73	21.404
606.92	20.695
607.11	21.374
607.30	20.143
607.50	21.272
607.69	20.657
607.88	20.748
608.07	20.786
608.26	20.757
608.45	21.272
608.64	21.455
608.83	19.992
609.02	21.686
609.21	21.152
609.40	21.038
609.59	20.558
609.78	20.618
609.97	20.616
610.16	20.227
610.35	20.081
610.55	20.640
610.74	20.471
610.93	20.570
611.12	20.893
611.31	20.764
611.50	19.879
611.69	20.871
611.88	19.749
612.07	20.489
612.26	20.296
612.45	20.504
612.64	20.570
612.83	20.533
613.02	21.094
613.21	19.670
613.40	20.445
613.59	21.191
613.78	19.330
613.97	20.504
614.16	20.393
614.35	19.183
614.54	19.660
614.73	20.903
614.92	19.608
615.11	19.148
615.30	19.067
615.49	19.565
615.68	19.435
615.87	18.990
616.07	18.807
616.26	18.704
616.45	19.589
616.64	17.913
616.83	18.722
617.02	19.340
617.21	17.610
617.40	18.731
617.59	19.100
617.78	18.939
617.97	18.035
618.16	18.146
618.35	16.629
618.54	18.075
618.73	17.970
618.92	18.224
619.11	17.553
619.30	19.061
619.49	16.776
619.68	18.345
619.86	17.989
620.05	17.671
620.24	16.764
620.43	18.081
620.62	15.705
620.81	17.359
621.00	17.866
621.19	18.834
621.38	18.159
621.57	17.620
621.76	17.573
621.95	17.683
622.14	17.804
622.33	18.133
622.52	15.996
622.71	17.530
622.90	16.496
623.09	18.341
623.28	17.025
623.47	18.143
623.66	17.005
623.85	17.196
624.04	17.364
624.23	17.461
624.42	16.176
624.61	17.227
624.80	17.134
624.99	16.362
625.18	16.493
625.36	17.805
625.55	16.663
625.74	17.181
625.93	16.268
626.12	17.570
626.31	17.385
626.50	17.823
626.69	17.168
626.88	18.315
627.07	17.561
627.26	17.127
627.45	17.362
627.64	17.494
627.83	17.476
628.02	17.685
628.20	17.434
628.39	18.135
628.58	17.410
628.77	18.125
628.96	17.568
629.15	17.255
629.34	17.486
629.53	18.464
629.72	16.509
629.91	18.573
630.10	18.655
630.29	17.909
630.47	17.393
630.66	17.836
630.85	17.152
631.04	18.604
631.23	18.117
631.42	18.852
631.61	17.635
631.80	17.688
631.99	17.239
632.18	18.674
632.36	15.869
632.55	18.563
632.74	16.570
632.93	17.105
633.12	17.096
633.31	17.195
633.50	17.530
633.69	17.993
633.88	16.010
634.06	17.344
634.25	16.672
634.44	16.912
634.63	17.340
634.82	17.530
635.01	17.198
635.20	17.547
635.39	17.019
635.57	16.848
635.76	17.049
635.95	17.591
636.14	16.452
636.33	17.215
636.52	17.025
636.71	16.671
636.89	15.806
637.08	17.281
637.27	16.191
637.46	16.730
637.65	16.659
637.84	16.639
638.03	15.361
638.21	16.981
638.40	15.104
638.59	15.709
638.78	14.988
638.97	17.382
639.16	16.268
639.34	15.730
639.53	14.440
639.72	16.194
639.91	15.665
640.10	14.039
640.29	16.079
640.47	16.355
640.66	14.675
640.85	17.331
641.04	14.338
641.23	15.051
641.42	14.720
641.60	15.125
641.79	14.949
641.98	15.363
642.17	14.677
642.36	15.629
642.54	13.534
642.73	15.659
642.92	14.692
643.11	15.671
643.30	14.800
643.49	15.868
643.67	13.625
643.86	15.741
644.05	13.467
644.24	15.479
644.43	15.656
644.61	15.426
644.80	14.713
644.99	14.348
645.18	15.527
645.37	16.202
645.55	13.375
645.74	15.765
645.93	14.979
646.12	14.871
646.31	14.757
646.49	15.243
646.68	15.553
646.87	16.055
647.06	14.346
647.24	16.441
647.43	13.422
647.62	15.874
647.81	14.084
648.00	15.654
648.18	12.608
648.37	15.435
648.56	14.470
648.75	15.672
648.93	14.753
649.12	14.811
649.31	14.660
649.50	15.062
649.68	14.584
649.87	15.479
650.06	13.789
650.25	15.156
650.43	14.270
650.62	14.639
650.81	15.072
651.00	13.740
651.18	13.518
651.37	15.853
651.56	14.268
651.75	16.193
651.93	13.470
652.12	15.617
652.31	13.866
652.50	14.286
652.68	14.249
652.87	15.656
653.06	13.633
653.25	14.795
653.43	13.117
653.62	14.599
653.81	12.042
654.00	15.630
654.18	13.780
654.37	15.439
654.56	11.572
654.74	13.090
654.93	14.021
655.12	14.117
655.31	12.647
655.49	14.185
655.68	13.177
655.87	11.730
656.05	11.349
656.24	13.011
656.43	12.012
656.62	12.329
656.80	12.418
656.99	11.628
657.18	11.755
657.36	12.791
657.55	12.000
657.74	13.294
657.93	11.917
658.11	13.930
658.30	13.405
658.49	11.340
658.67	13.510
658.86	11.606
659.05	11.391
659.23	13.233
659.42	11.510
659.61	12.160
659.79	11.694
659.98	12.534
660.17	13.067
660.35	12.212
660.54	12.423
660.73	14.413
660.91	12.007
661.10	12.347
661.29	10.820
661.47	10.899
661.66	11.154
661.85	12.530
662.03	11.253
662.22	10.655
662.41	9.187
662.59	10.585
662.78	9.071
662.97	10.688
663.15	9.498
663.34	9.701
663.53	9.429
663.71	10.286
663.90	9.626
664.09	11.198
664.27	9.709
664.46	9.805
664.65	8.590
664.83	8.306
665.02	8.324
665.21	8.258
665.39	6.402
665.58	9.644
665.77	7.604
665.95	8.609
666.14	7.617
666.32	8.781
666.51	8.134
666.70	7.889
666.88	7.634
667.07	8.991
667.26	7.058
667.44	8.231
667.63	8.404
667.81	6.466
668.00	8.443
668.19	9.303
668.37	7.997
668.56	9.257
668.75	5.190
668.93	9.586
669.12	7.907
669.30	8.706
669.49	6.789
669.68	9.554
669.86	8.082
670.05	8.865
670.23	7.546
670.42	8.044
670.61	8.993
670.79	8.514
670.98	7.935
671.16	9.421
671.35	8.133
671.54	9.782
671.72	8.194
671.91	8.162
672.09	7.051
672.28	9.769
672.46	10.273
672.65	9.933
672.84	9.270
673.02	10.291
673.21	6.921
673.39	8.364
673.58	9.100
673.77	8.638
673.95	7.414
674.14	10.272
674.32	8.328
674.51	9.691
674.69	8.385
674.88	9.659
675.07	8.154
675.25	11.897
675.44	8.850
675.62	9.908
675.81	9.668
675.99	13.014
676.18	11.189
676.36	8.379
676.55	9.305
676.74	10.197
676.92	10.291
677.11	9.681
677.29	8.064
677.48	11.113
677.66	11.078
677.85	9.810
678.03	9.582
678.22	11.028
678.40	9.809
678.59	9.681
678.78	8.525
678.96	9.099
679.15	7.762
679.33	12.049
679.52	11.901
679.70	12.088
679.89	10.632
680.07	11.238
680.26	8.925
680.44	10.740
680.63	11.353
680.81	10.346
681.00	8.681
681.18	10.905
681.37	10.176
681.55	12.286
681.74	11.803
681.92	12.118
682.11	11.238
682.29	11.065
682.48	10.534
682.66	11.981
682.85	11.810
683.03	12.683
683.22	12.550
683.40	13.781
683.59	13.435
683.77	12.442
683.96	10.864
684.14	12.711
684.33	9.336
684.51	15.186
684.70	12.870
684.88	15.328
685.07	12.736
685.25	13.889
685.44	12.970
685.62	13.872
685.81	12.134
685.99	14.415
686.18	11.705
686.36	14.793
686.55	11.459
686.73	12.962
686.92	15.218
687.10	15.867
687.29	15.461
687.47	16.977
687.65	15.496
687.84	15.739
688.02	16.708
688.21	17.541
688.39	13.259
688.58	17.028
688.76	14.159
688.95	14.455
689.13	15.075
689.32	18.490
689.50	16.676
689.68	18.563
689.87	15.773
690.05	18.716
690.24	18.033
690.42	19.123
690.61	19.314
690.79	18.805
690.98	19.200
691.16	19.304
691.34	17.325
691.53	20.221
691.71	19.309
691.90	20.581
692.08	18.486
692.27	20.589
692.45	21.124
692.63	19.444
692.82	23.434
693.00	22.562
693.19	20.040
693.37	22.861
693.56	21.504
693.74	23.358
693.92	23.230
694.11	23.299
694.29	22.457
694.48	23.693
694.66	23.902
694.84	25.717
695.03	22.232
695.21	27.585
695.40	26.393
695.58	26.611
695.76	24.435
695.95	26.744
696.13	26.153
696.32	27.705
696.50	30.163
696.68	28.274
696.87	25.214
697.05	29.672
697.24	27.405
697.42	31.451
697.60	28.758
697.79	31.662
697.97	31.025
698.16	31.924
698.34	29.173
698.52	31.257
698.71	30.743
698.89	31.086
699.07	30.121
699.26	32.031
699.44	30.376
699.63	32.441
699.81	31.084
699.99	34.155
700.18	32.538
700.36	32.298
700.54	32.593
700.73	33.650
700.91	33.838
701.09	34.412
701.28	34.173
701.46	35.074
701.64	35.836
701.83	33.741
702.01	32.962
702.20	37.046
702.38	35.433
702.56	35.487
702.75	34.392
702.93	35.425
703.11	34.917
703.30	36.645
703.48	36.058
703.66	38.206
703.85	35.082
704.03	38.746
704.21	34.803
704.40	38.307
704.58	35.541
704.76	38.622
704.95	37.348
705.13	37.182
705.31	38.351
705.50	40.112
705.68	35.374
705.86	39.545
706.04	37.725
706.23	39.916
706.41	39.117
706.59	39.070
706.78	36.204
706.96	39.892
707.14	38.926
707.33	39.025
707.51	38.159
707.69	39.595
707.88	39.304
708.06	40.008
708.24	40.816
708.42	40.720
708.61	38.750
708.79	40.893
708.97	40.571
709.16	39.904
709.34	42.669
709.52	38.589
709.71	40.019
709.89	39.394
710.07	37.605
710.25	39.585
710.44	41.576
710.62	41.564
710.80	40.179
710.98	41.437
711.17	41.618
711.35	40.353
711.53	40.756
711.72	40.186
711.90	40.484
712.08	41.300
712.26	41.643
712.45	41.668
712.63	39.881
712.81	42.374
712.99	40.118
713.18	41.706
713.36	40.998
713.54	41.283
713.72	40.362
713.91	42.750
714.09	40.051
714.27	43.578
714.45	41.303
714.64	41.393
714.82	41.957
715.00	44.568
715.18	42.170
715.37	40.344
715.55	41.097
715.73	42.100
715.91	40.986
716.10	42.743
716.28	39.856
716.46	41.613
716.64	40.443
716.83	43.241
717.01	41.308
717.19	44.207
717.37	40.514
717.55	42.602
717.74	42.436
717.92	40.835
718.10	40.965
718.28	42.651
718.47	40.028
718.65	42.978
718.83	40.276
719.01	43.289
719.19	39.248
719.38	40.235
719.56	39.449
719.74	41.641
719.92	38.350
720.10	41.539
720.29	40.955
720.47	41.960
720.65	42.918
720.83	41.688
721.01	38.903
721.20	41.329
721.38	40.658
721.56	42.469
721.74	42.266
721.92	44.146
722.11	41.658
722.29	43.096
722.47	42.821
722.65	45.198
722.83	44.878
723.01	40.296
723.20	44.181
723.38	40.481
723.56	41.244
723.74	45.523
723.92	42.306
724.10	43.122
724.29	40.067
724.47	46.839
724.65	41.900
724.83	44.785
725.01	39.567
725.19	45.434
725.38	42.168
725.56	46.098
725.74	41.054
725.92	45.898
726.10	42.404
726.28	42.423
726.46	44.159
726.65	44.737
726.83	44.503
727.01	42.167
727.19	41.689
727.37	44.363
727.55	42.578
727.73	42.075
727.92	44.420
728.10	41.573
728.28	40.770
728.46	44.377
728.64	41.785
728.82	44.006
729.00	41.588
729.19	45.227
729.37	43.046
729.55	45.478
729.73	40.581
729.91	43.251
730.09	40.825
730.27	45.469
730.45	40.308
730.63	44.320
730.82	42.636
731.00	44.096
731.18	41.370
731.36	44.978
731.54	41.700
731.72	45.557
731.90	41.435
732.08	44.104
732.26	42.837
732.45	44.610
732.63	45.634
732.81	44.968
732.99	43.943
733.17	44.389
733.35	40.750
733.53	47.365
733.71	43.574
733.89	46.085
734.07	42.596
734.25	45.948
734.44	44.637
734.62	44.969
734.80	42.947
734.98	45.916
735.16	44.279
735.34	45.700
735.52	45.251
735.70	47.846
735.88	44.520
736.06	47.497
736.24	45.237
736.42	47.244
736.60	45.006
736.78	47.315
736.97	45.912
737.15	46.641
737.33	45.191
737.51	46.738
737.69	45.823
737.87	47.634
738.05	48.349
738.23	47.232
738.41	46.401
738.59	48.687
738.77	46.147
738.95	48.940
739.13	45.485
739.31	49.054
739.49	48.302
739.67	48.764
739.85	44.546
740.03	47.298
740.21	46.410
740.39	50.469
740.57	46.709
740.75	47.327
740.93	46.154
741.11	46.273
741.30	43.132
741.48	50.438
741.66	48.398
741.84	48.088
742.02	46.556
742.20	48.785
742.38	42.632
742.56	50.932
742.74	46.663
742.92	47.595
743.10	46.164
743.28	49.360
743.46	47.006
743.64	50.973
743.82	46.344
744.00	47.202
744.18	48.385
744.36	48.283
744.54	46.211
744.72	50.490
744.90	48.336
745.08	52.730
745.26	43.284
745.44	48.179
745.62	47.081
745.80	47.518
745.98	44.948
746.16	46.356
746.34	48.013
746.52	47.368
746.70	45.298
746.87	49.610
747.05	52.052
747.23	49.857
747.41	48.315
747.59	51.470
747.77	46.407
747.95	45.926
748.13	46.560
748.31	51.616
748.49	48.030
748.67	50.018
748.85	48.848
749.03	49.350
749.21	46.907
749.39	50.162
749.57	48.040
749.75	47.359
749.93	47.385
750.11	47.731
750.29	46.977
750.47	50.237
750.65	48.909
750.83	48.718
751.01	46.010
751.18	46.502
751.36	44.303
751.54	51.255
751.72	48.914
751.90	48.564
752.08	45.151
752.26	49.229
752.44	47.065
752.62	49.441
752.80	48.257
752.98	50.715
753.16	45.650
753.34	46.846
753.52	45.095
753.69	47.797
753.87	46.217
754.05	48.127
754.23	45.951
754.41	49.770
754.59	46.002
754.77	50.744
754.95	45.931
755.13	48.323
755.31	47.131
755.49	46.781
755.66	45.783
755.84	46.221
756.02	44.839
756.20	49.682
756.38	46.007
756.56	50.175
756.74	46.657
756.92	46.115
757.10	45.913
757.28	52.486
757.45	51.271
757.63	52.887
757.81	45.820
757.99	49.910
758.17	45.699
758.35	47.310
758.53	47.145
758.71	46.664
758.88	46.106
759.06	47.675
759.24	44.970
759.42	44.333
759.60	42.642
759.78	40.240
759.96	38.072
760.13	44.196
760.31	37.625
760.49	41.872
760.67	34.962
760.85	39.075
761.03	32.709
761.21	38.033
761.38	33.984
761.56	39.853
761.74	35.322
761.92	40.020
762.10	31.440
762.28	40.532
762.46	32.721
762.63	35.930
762.81	36.126
762.99	37.748
763.17	38.646
763.35	36.691
763.53	36.407
763.70	38.634
763.88	37.592
764.06	39.058
764.24	39.238
764.42	40.646
764.60	38.606
764.77	39.193
764.95	39.307
765.13	41.277
765.31	37.617
765.49	40.450
765.66	39.674
765.84	41.533
766.02	41.664
766.20	44.217
766.38	40.478
766.56	42.972
766.73	40.730
766.91	43.592
767.09	40.855
767.27	45.000
767.45	44.211
767.62	45.645
767.80	44.634
767.98	44.764
768.16	42.801
768.33	43.707
768.51	44.886
768.69	43.713
768.87	46.998
769.05	47.041
769.22	46.524
769.40	48.438
769.58	44.634
769.76	51.451
769.94	48.507
770.11	47.716
770.29	46.025
770.47	47.969
770.65	47.056
770.82	46.907
771.00	46.367
771.18	49.348
771.36	49.141
771.53	48.575
771.71	44.035
771.89	50.352
772.07	42.476
772.25	47.064
772.42	42.044
772.60	47.381
772.78	45.212
772.96	48.578
773.13	49.439
773.31	47.809
773.49	46.694
773.67	46.545
773.84	43.973
774.02	51.110
774.20	47.087
774.37	49.135
774.55	43.709
774.73	47.912
774.91	45.544
775.08	45.210
775.26	48.392
775.44	49.338
775.62	46.885
775.79	50.593
775.97	44.401
776.15	43.949
776.32	43.351
776.50	49.372
776.68	43.433
776.86	52.033
777.03	45.767
777.21	51.496
777.39	43.550
777.56	50.386
777.74	45.323
777.92	52.500
778.10	45.200
778.27	48.161
778.45	47.629
778.63	46.635
778.80	49.283
778.98	47.700
779.16	50.513
779.34	47.072
779.51	43.103
779.69	44.365
779.87	45.019
780.04	44.567
780.22	46.078
780.40	47.971
780.57	45.179
780.75	44.904
780.93	46.036
781.10	47.284
781.28	54.860
781.46	49.127
781.63	49.853
781.81	51.775
781.99	45.860
782.16	46.815
782.34	46.550
782.52	49.629
782.69	49.381
782.87	46.008
783.05	46.489
783.22	48.206
783.40	41.763
783.58	47.750
783.75	48.074
783.93	55.433
784.11	45.677
784.28	56.696
784.46	40.984
784.64	48.559
784.81	43.904
784.99	51.409
785.17	47.604
785.34	46.492
785.52	42.829
785.69	47.405
785.87	43.478
786.05	48.247
786.22	46.422
786.40	53.702
786.58	46.067
786.75	52.029
786.93	44.144
787.11	46.695
787.28	48.278
787.46	48.801
787.63	40.757
787.81	46.525
787.99	44.392
788.16	40.534
788.34	44.946
788.51	46.835
788.69	44.063
788.87	41.751
789.04	42.126
789.22	43.704
789.39	45.390
789.57	40.021
789.75	38.254
789.92	46.018
790.10	44.078
790.27	44.710
790.45	39.595
790.63	45.424
790.80	40.069
790.98	43.365
791.15	44.052
791.33	40.710
791.51	41.004
791.68	45.327
791.86	40.063
792.03	44.727
792.21	34.935
792.39	40.788
792.56	43.906
792.74	48.426
792.91	48.935
793.09	42.471
793.26	39.279
793.44	43.375
793.62	43.020
793.79	47.200
793.97	42.984
794.14	43.750
794.32	49.087
794.49	44.328
794.67	41.609
794.84	41.340
795.02	39.715
795.20	43.508
795.37	42.088
795.55	42.913
795.72	43.682
795.90	46.726
796.07	42.476
796.25	39.270
796.42	42.848
796.60	41.140
796.77	40.158
796.95	44.785
797.13	39.245
797.30	47.971
797.48	42.491
797.65	40.416
797.83	41.617
798.00	40.655
798.18	38.043
798.35	45.683
798.53	38.892
798.70	44.732
798.88	36.865
799.05	41.847
799.23	38.995
799.40	46.296
799.58	42.438
799.75	42.280
799.93	41.139
800.10	47.401
800.28	40.189
800.45	40.642
800.63	36.127
800.80	51.002
800.98	42.751
801.15	44.065
801.33	39.525
801.50	42.300
801.68	38.345
801.85	38.542
802.03	41.218
802.20	43.183
802.38	39.573
802.55	42.049
802.73	36.486
802.90	40.028
803.08	34.451
803.25	48.586
803.43	48.696
803.60	37.308
803.78	45.415
803.95	41.198
804.13	45.133
804.30	36.097
804.48	39.554
804.65	43.014
804.83	45.618
805.00	40.890
805.17	44.718
805.35	43.991
805.52	36.261
805.70	38.577
805.87	42.433
806.05	48.870
806.22	38.133
806.40	37.580
806.57	38.176
806.75	43.664
806.92	53.580
807.09	41.406
807.27	39.762
807.44	43.224
807.62	39.621
807.79	45.238
807.97	45.269
808.14	42.359
808.31	41.056
808.49	44.183
808.66	32.329
808.84	42.172
809.01	38.817
809.19	37.565
809.36	43.352
809.53	42.229
809.71	40.398
809.88	35.624
810.06	41.397
810.23	47.736
810.41	43.662
810.58	45.563
810.75	41.814
810.93	34.809
811.10	43.983
811.28	40.780
811.45	42.245
811.62	42.442
811.80	36.852
811.97	41.268
812.15	42.990
812.32	35.703
812.49	44.495
812.67	42.281
812.84	44.878
813.02	39.688
813.19	38.268
813.36	40.674
813.54	32.143
813.71	44.822
813.89	36.540
814.06	43.333
814.23	39.516
814.41	38.440
814.58	40.682
814.75	40.318
814.93	31.915
815.10	40.094
815.28	40.546
815.45	33.366
815.62	36.390
815.80	35.714
815.97	34.169
816.14	40.175
816.32	36.871
816.49	34.281
816.66	28.810
816.84	36.431
817.01	42.384
817.18	38.718
817.36	35.133
817.53	39.514
817.71	28.929
817.88	33.120
818.05	34.375
818.23	36.608
818.40	31.210
818.57	36.751
818.75	38.903
818.92	36.546
819.09	36.912
819.27	32.474
819.44	40.457
819.61	34.253
819.79	32.080
819.96	36.087
820.13	35.089
820.31	36.388
820.48	42.244
820.65	30.457
820.82	35.840
821.00	37.558
821.17	27.704
821.34	33.201
821.52	34.058
821.69	30.634
821.86	35.329
822.04	36.532
822.21	35.700
822.38	37.349
822.56	36.876
822.73	38.574
822.90	37.671
823.07	39.918
823.25	38.743
823.42	37.157
823.59	37.893
823.77	38.747
823.94	38.554
824.11	40.730
824.29	37.780
824.46	39.500
824.63	40.311
824.80	41.994
824.98	38.678
825.15	38.755
825.32	39.095
825.49	40.715
825.67	38.224
825.84	40.117
826.01	35.227
826.19	39.045
826.36	35.495
826.53	41.128
826.70	35.617
826.88	38.857
827.05	36.073
827.22	36.205
827.39	35.053
827.57	34.077
827.74	31.538
827.91	38.295
828.08	34.854
828.26	35.453
828.43	31.122
828.60	37.778
828.77	35.618
828.95	39.761
829.12	29.794
829.29	33.575
829.46	32.646
829.64	32.954
829.81	30.279
829.98	37.661
830.15	30.949
830.32	35.560
830.50	30.716
830.67	33.163
830.84	30.902
831.01	23.210
831.19	32.362
831.36	33.957
831.53	32.140
831.70	39.934
831.87	36.776
832.05	42.607
832.22	34.547
832.39	36.187
832.56	30.507
832.74	29.240
832.91	24.320
833.08	36.016
833.25	27.816
833.42	30.571
833.60	27.917
833.77	26.439
833.94	30.575
834.11	30.416
834.28	26.565
834.45	35.572
834.63	32.869
834.80	33.445
834.97	29.376
835.14	32.129
835.31	32.386
835.49	30.545
835.66	30.814
835.83	31.038
836.00	27.409
836.17	35.634
836.34	32.130
836.52	33.435
836.69	36.995
836.86	29.345
837.03	36.654
837.20	36.753
837.37	34.783
837.55	23.258
837.72	29.382
837.89	36.770
838.06	33.934
838.23	42.085
838.40	38.623
838.58	34.047
838.75	41.641
838.92	39.548
839.09	50.300
839.26	39.005
839.43	36.698
839.60	48.855
839.78	44.299
839.95	34.479
840.12	33.134
840.29	44.231
840.46	33.265
840.63	41.317
840.80	36.489
840.98	33.749
841.15	39.479
841.32	32.805
841.49	30.071
841.66	37.025
841.83	34.562
842.00	34.773
842.17	44.851
842.34	45.210
842.52	39.500
842.69	41.864
842.86	42.112
843.03	58.196
843.20	40.108
843.37	37.165
843.54	51.359
843.71	48.261
843.88	40.226
844.06	51.558
844.23	58.214
844.40	44.954
844.57	43.500
844.74	47.417
844.91	53.178
845.08	50.441
845.25	42.412
845.42	44.551
845.59	51.250
845.76	54.739
845.94	50.000
846.11	60.638
846.28	65.489
846.45	65.392
846.62	66.667
846.79	52.569
846.96	50.810
847.13	52.490
847.30	60.470
847.47	43.629
847.64	59.494
847.81	84.314
847.98	71.197
848.15	54.569
848.32	62.471
848.50	65.094
848.67	41.432
848.84	57.421
849.01	65.617
849.18	78.636
849.35	73.850
849.52	63.747
849.69	67.160
849.86	63.438
850.03	61.649
850.20	61.454
850.37	74.828
850.54	51.463
850.71	63.559
850.88	58.407
851.05	72.488
851.22	47.525
851.39	59.395
851.56	53.960
851.73	98.295
851.90	65.347
852.07	67.098
852.24	59.361
852.41	63.034
852.58	69.372
852.75	52.392
852.92	44.665
853.09	71.240
853.26	73.333
853.43	73.479
853.60	69.767
853.77	45.700
853.94	67.081
854.11	69.697
854.28	81.074
854.45	55.794
854.62	73.185
854.79	80.387
854.96	57.143
855.13	76.499
855.30	61.416
855.47	72.866
855.64	62.617
855.81	45.676
855.98	73.889
856.15	62.240
856.32	64.310
856.49	74.103
856.66	65.064
856.83	63.990
857.00	59.836
857.17	75.269
857.34	71.543
857.51	62.634
857.68	52.012
857.85	70.774
858.02	82.488
858.19	91.667
858.36	71.724
858.53	73.653
858.70	68.135
858.87	99.691
859.04	59.167
859.21	51.873
859.38	63.070
859.55	70.361
859.72	81.215
859.89	83.520
860.05	61.916
860.22	76.923
860.39	74.695
860.56	53.799
860.73	74.353
860.90	58.621
861.07	53.521
861.24	61.814
861.41	61.662
861.58	61.520
861.75	40.881
861.92	64.493
862.09	74.352
862.26	61.244
862.43	67.512
862.59	78.136
862.76	61.801
862.93	66.486
863.10	57.101
863.27	60.339
863.44	58.294
863.61	64.110
863.78	75.225
863.95	56.283
864.12	52.874
864.29	68.044
864.45	67.812
864.62	66.578
864.79	59.897
864.96	61.501
865.13	46.154
865.30	73.580
865.47	57.082
865.64	43.158
865.81	49.598
865.97	38.801
866.14	61.053
866.31	49.740
866.48	76.543
866.65	51.706
866.82	81.030
866.99	62.090
867.16	67.036
867.33	71.160
867.49	78.776
867.66	35.325
867.83	55.526
868.00	61.975
868.17	70.455
868.34	49.084
868.51	63.113
868.67	60.117
868.84	76.984
869.01	82.258
869.18	51.827
869.35	65.323
869.52	27.577
869.69	66.476
869.85	58.808
870.02	60.403
870.19	79.872
870.36	73.846
870.53	50.469
870.70	72.452
870.86	66.364
871.03	69.022
871.20	60.383
871.37	73.418
871.54	69.253
871.71	57.002
871.87	62.060
872.04	59.783
872.21	49.425
872.38	66.071
872.55	70.704
872.72	54.223
872.88	71.712
873.05	61.354
873.22	83.830
873.39	65.775
873.56	90.725
873.72	51.309
873.89	43.831
874.06	63.343
874.23	48.479
874.40	60.123
874.56	96.108
874.73	67.758
874.90	49.872
875.07	77.104
875.24	51.392
875.40	45.434
875.57	64.888
875.74	51.549
875.91	59.367
876.08	71.940
876.24	63.415
876.41	73.371
876.58	65.774
876.75	60.845
876.92	72.222
877.08	69.173
877.25	44.670
877.42	64.470
877.59	38.576
877.75	78.613
877.92	49.734
878.09	54.308
878.26	63.185
878.42	45.882
878.59	58.355
878.76	52.369
878.93	68.039
879.09	53.506
879.26	41.576
879.43	80.180
879.60	53.924
879.76	32.803
879.93	53.184
880.10	50.813
880.27	26.386
880.43	38.932
880.60	43.804
880.77	35.271
880.94	41.529
881.10	24.969
881.27	30.134
881.44	23.723
881.61	30.137
881.77	33.509
881.94	30.561
882.11	21.851
882.28	23.105
882.44	25.889
882.61	29.465
882.78	25.801
882.94	34.209
883.11	32.929
883.28	29.892
883.45	30.247
883.61	26.822
883.78	28.835
883.95	32.524
884.11	29.261
884.28	28.633
>>>>>End Processed Spectral Data<<<<<
