SpectraSuite Data File
++++++++++++++++++++++++++++++++++++
Date: Fri Sep 20 04:02:43 EST 2019
User: sgrac
Dark Spectrum Present: Yes
Reference Spectrum Present: Yes
Number of Sampled Component Spectra: 1
Spectrometers: USB4E01596
Integration Time (usec): 100000 (USB4E01596)
Spectra Averaged: 1 (USB4E01596)
Boxcar Smoothing: 0 (USB4E01596)
Correct for Electrical Dark: No (USB4E01596)
Strobe/Lamp Enabled: Yes (USB4E01596)
Correct for Detector Non-linearity: No (USB4E01596)
Correct for Stray Light: No (USB4E01596)
Number of Pixels in Processed Spectrum: 3648
>>>>>Begin Processed Spectral Data<<<<<
178.44	726.087
178.66	726.087
178.87	726.087
179.09	-505.000
179.30	326.667
179.52	703.571
179.74	3280.000
179.95	-397.143
180.17	-831.250
180.38	-812.500
180.60	-487.097
180.82	678.261
181.03	-3475.000
181.25	-1800.000
181.46	-1309.091
181.68	0.000
181.89	15600.000
182.11	1875.000
182.33	1653.846
182.54	-351.429
182.76	400.000
182.97	737.037
183.19	1744.444
183.40	-981.250
183.62	1264.286
183.84	-335.000
184.05	0.000
184.27	16500.000
184.48	825.000
184.70	7700.000
184.91	1315.385
185.13	479.545
185.34	383.333
185.56	-776.190
185.78	831.579
185.99	-8700.000
186.21	575.000
186.42	1208.333
186.64	264.179
186.85	254.321
187.07	866.667
187.28	-270.270
187.50	-727.273
187.72	334.375
187.93	18000.000
188.15	745.455
188.36	326.923
188.58	970.588
188.79	9800.000
189.01	594.118
189.22	1375.000
189.44	436.170
189.65	-655.000
189.87	842.857
190.09	530.556
190.30	-3240.000
190.52	404.878
190.73	640.741
190.95	-1361.538
191.16	-1583.333
191.38	-539.130
191.59	1411.111
191.81	492.500
192.02	395.000
192.24	334.921
192.45	437.143
192.67	722.727
192.88	0.000
193.10	517.647
193.31	-1360.000
193.53	386.364
193.74	402.632
193.96	2120.000
194.18	300.000
194.39	386.000
194.61	603.333
194.82	634.483
195.04	1275.000
195.25	348.936
195.47	1026.316
195.68	-1340.000
195.90	3950.000
196.11	3450.000
196.33	-700.000
196.54	634.483
196.76	344.444
196.97	972.222
197.19	-955.556
197.40	525.000
197.62	-1028.571
197.83	1080.000
198.05	510.526
198.26	804.545
198.48	1533.333
198.69	605.714
198.91	1871.429
199.12	505.000
199.34	287.692
199.55	-936.364
199.77	880.000
199.98	3040.000
200.20	1427.273
200.41	566.667
200.63	-2700.000
200.84	512.195
201.06	-16100.000
201.27	947.059
201.49	360.656
201.70	1176.471
201.91	1118.750
202.13	1020.000
202.34	4475.000
202.56	1971.429
202.77	-2433.333
202.99	1040.000
203.20	828.571
203.42	-464.286
203.63	561.290
203.85	-575.000
204.06	4566.667
204.28	-4350.000
204.49	2171.429
204.71	335.417
204.92	1777.778
205.14	0.000
205.35	973.333
205.56	542.857
205.78	600.000
205.99	397.297
206.21	575.862
206.42	3033.333
206.64	-339.024
206.85	1266.667
207.07	1461.538
207.28	563.333
207.50	-2137.500
207.71	400.000
207.93	7350.000
208.14	-321.622
208.35	562.069
208.57	-831.250
208.78	603.448
209.00	376.316
209.21	0.000
209.43	739.130
209.64	374.419
209.86	1828.571
210.07	1190.909
210.28	650.000
210.50	3580.000
210.71	351.282
210.93	444.737
211.14	365.574
211.36	474.286
211.57	2675.000
211.78	-718.182
212.00	619.231
212.21	-694.737
212.43	583.871
212.64	383.333
212.86	675.000
213.07	610.714
213.29	263.158
213.50	-502.941
213.71	-14100.000
213.93	-2055.556
214.14	1206.667
214.36	-2114.286
214.57	216.279
214.78	394.286
215.00	-5466.667
215.21	-2850.000
215.43	-390.909
215.64	1231.250
215.86	-3250.000
216.07	714.286
216.28	272.581
216.50	327.660
216.71	-3700.000
216.93	1314.286
217.14	497.222
217.35	268.421
217.57	-826.667
217.78	1654.545
218.00	479.545
218.21	326.230
218.42	416.327
218.64	477.778
218.85	296.552
219.07	338.000
219.28	814.286
219.49	-1236.364
219.71	421.429
219.92	2766.667
220.14	5200.000
220.35	4800.000
220.56	980.000
220.78	271.429
220.99	2700.000
221.21	345.946
221.42	503.704
221.63	472.222
221.85	16900.000
222.06	517.241
222.28	875.000
222.49	14200.000
222.70	-5333.333
222.92	300.000
223.13	231.884
223.34	300.000
223.56	445.946
223.77	1068.750
223.99	257.692
224.20	190.090
224.41	479.070
224.63	473.529
224.84	568.000
225.05	325.000
225.27	338.889
225.48	231.646
225.69	315.909
225.91	242.857
226.12	291.935
226.34	247.826
226.55	226.563
226.76	201.493
226.98	191.228
227.19	476.667
227.40	146.667
227.62	150.000
227.83	195.789
228.04	305.556
228.26	126.852
228.47	100.000
228.69	89.011
228.90	97.753
229.11	64.368
229.33	49.590
229.54	71.020
229.75	46.008
229.97	55.743
230.18	50.000
230.39	41.471
230.61	45.031
230.82	65.359
231.03	37.337
231.25	49.709
231.46	56.190
231.67	55.676
231.89	72.059
232.10	60.687
232.31	70.233
232.53	79.537
232.74	73.361
232.95	84.925
233.17	77.976
233.38	64.352
233.59	97.647
233.81	92.920
234.02	65.517
234.23	88.710
234.45	116.556
234.66	77.723
234.87	103.488
235.09	81.778
235.30	86.452
235.51	52.586
235.73	58.854
235.94	67.742
236.15	73.881
236.36	66.667
236.58	80.753
236.79	67.954
237.00	55.020
237.22	85.345
237.43	78.519
237.64	71.364
237.86	81.863
238.07	65.339
238.28	85.648
238.50	64.876
238.71	59.929
238.92	71.324
239.13	66.071
239.35	74.654
239.56	56.164
239.77	84.190
239.99	64.062
240.20	79.496
240.41	64.263
240.63	52.923
240.84	63.522
241.05	33.048
241.26	59.593
241.48	55.416
241.69	37.472
241.90	43.077
242.12	29.376
242.33	33.080
242.54	25.990
242.75	31.982
242.97	29.487
243.18	21.718
243.39	15.762
243.61	19.954
243.82	29.490
244.03	21.687
244.24	17.689
244.46	25.363
244.67	20.800
244.88	23.958
245.09	28.551
245.31	27.483
245.52	27.211
245.73	35.968
245.95	53.745
246.16	32.570
246.37	26.342
246.58	22.581
246.80	26.207
247.01	23.242
247.22	18.757
247.43	15.880
247.65	16.981
247.86	18.161
248.07	11.228
248.28	13.382
248.50	14.295
248.71	15.404
248.92	13.043
249.13	12.757
249.35	14.633
249.56	16.425
249.77	15.821
249.98	19.591
250.20	20.362
250.41	24.058
250.62	22.609
250.83	21.909
251.05	26.053
251.26	20.722
251.47	27.557
251.68	26.737
251.90	30.564
252.11	33.333
252.32	25.601
252.53	23.913
252.75	25.266
252.96	25.381
253.17	20.670
253.38	24.466
253.59	19.717
253.81	19.292
254.02	22.420
254.23	20.603
254.44	25.159
254.66	28.652
254.87	25.879
255.08	27.866
255.29	35.189
255.50	39.560
255.72	31.864
255.93	35.323
256.14	37.447
256.35	36.806
256.57	29.412
256.78	39.278
256.99	22.222
257.20	34.639
257.41	30.095
257.63	28.190
257.84	35.753
258.05	35.058
258.26	21.562
258.47	25.851
258.69	27.739
258.90	16.298
259.11	19.873
259.32	22.326
259.53	16.994
259.75	15.609
259.96	16.731
260.17	11.856
260.38	13.124
260.59	10.283
260.81	10.161
261.02	11.426
261.23	10.728
261.44	10.736
261.65	11.711
261.87	10.851
262.08	12.380
262.29	12.146
262.50	14.331
262.71	11.151
262.92	12.130
263.14	17.436
263.35	16.342
263.56	21.519
263.77	17.865
263.98	19.828
264.20	18.536
264.41	19.288
264.62	21.350
264.83	15.358
265.04	27.412
265.25	22.665
265.47	20.958
265.68	24.874
265.89	19.409
266.10	15.589
266.31	21.818
266.52	19.870
266.74	20.885
266.95	22.391
267.16	17.552
267.37	16.277
267.58	20.552
267.79	17.545
268.01	20.837
268.22	11.844
268.43	16.918
268.64	14.043
268.85	18.338
269.06	14.550
269.27	20.067
269.49	17.583
269.70	15.716
269.91	16.239
270.12	15.746
270.33	16.712
270.54	19.392
270.75	12.707
270.97	16.529
271.18	17.288
271.39	16.860
271.60	18.874
271.81	13.901
272.02	12.705
272.23	13.374
272.45	13.905
272.66	11.819
272.87	16.331
273.08	11.329
273.29	11.887
273.50	8.865
273.71	12.878
273.92	10.288
274.14	14.785
274.35	15.518
274.56	12.298
274.77	16.256
274.98	12.936
275.19	12.802
275.40	15.129
275.61	14.818
275.83	19.917
276.04	12.301
276.25	14.751
276.46	12.522
276.67	19.879
276.88	14.657
277.09	18.709
277.30	21.364
277.51	18.096
277.73	16.047
277.94	15.816
278.15	14.151
278.36	18.686
278.57	14.799
278.78	14.925
278.99	12.060
279.20	16.606
279.41	20.707
279.62	15.293
279.84	16.409
280.05	14.792
280.26	13.565
280.47	14.461
280.68	17.888
280.89	15.372
281.10	17.594
281.31	16.719
281.52	12.003
281.73	13.203
281.94	7.739
282.16	14.244
282.37	16.558
282.58	11.063
282.79	13.502
283.00	16.994
283.21	9.054
283.42	10.163
283.63	13.399
283.84	14.257
284.05	13.170
284.26	13.320
284.47	11.261
284.68	13.329
284.89	10.670
285.11	12.062
285.32	10.636
285.53	12.069
285.74	11.474
285.95	12.606
286.16	12.418
286.37	12.306
286.58	10.354
286.79	9.804
287.00	9.314
287.21	9.909
287.42	9.414
287.63	10.662
287.84	12.202
288.05	10.275
288.26	9.022
288.48	13.177
288.69	10.737
288.90	9.022
289.11	15.238
289.32	11.049
289.53	11.201
289.74	13.598
289.95	10.612
290.16	14.384
290.37	10.741
290.58	10.864
290.79	10.068
291.00	8.936
291.21	13.258
291.42	10.158
291.63	7.652
291.84	9.121
292.05	9.735
292.26	8.213
292.47	10.529
292.68	8.473
292.89	12.059
293.10	11.360
293.31	9.839
293.52	9.126
293.73	11.681
293.94	11.609
294.15	11.631
294.36	10.215
294.57	14.340
294.79	12.017
295.00	9.695
295.21	9.781
295.42	11.685
295.63	13.069
295.84	8.895
296.05	12.079
296.26	10.705
296.47	11.302
296.68	8.363
296.89	11.461
297.10	10.670
297.31	9.944
297.52	7.237
297.73	10.314
297.94	8.086
298.15	7.864
298.36	8.067
298.57	8.016
298.78	10.059
298.99	7.849
299.20	9.180
299.41	8.295
299.62	9.412
299.83	8.669
300.04	8.168
300.25	12.686
300.46	9.906
300.67	10.339
300.88	8.958
301.09	7.158
301.30	10.635
301.50	8.040
301.71	13.095
301.92	13.762
302.13	10.318
302.34	9.709
302.55	12.570
302.76	12.021
302.97	10.355
303.18	10.045
303.39	9.250
303.60	8.792
303.81	13.813
304.02	11.460
304.23	9.988
304.44	9.675
304.65	9.730
304.86	11.227
305.07	10.636
305.28	10.532
305.49	12.405
305.70	12.222
305.91	11.484
306.12	9.569
306.33	9.075
306.54	13.357
306.75	12.031
306.96	12.745
307.17	10.633
307.38	13.909
307.58	9.401
307.79	14.031
308.00	13.784
308.21	11.380
308.42	10.160
308.63	9.272
308.84	12.624
309.05	9.691
309.26	9.733
309.47	14.447
309.68	9.204
309.89	12.466
310.10	9.554
310.31	10.015
310.52	7.205
310.73	12.124
310.94	10.393
311.14	8.194
311.35	7.913
311.56	9.427
311.77	7.202
311.98	8.602
312.19	8.684
312.40	8.268
312.61	9.686
312.82	9.203
313.03	9.956
313.24	11.307
313.45	8.832
313.66	8.785
313.86	9.410
314.07	10.992
314.28	10.227
314.49	12.425
314.70	11.632
314.91	14.060
315.12	11.791
315.33	12.663
315.54	7.117
315.75	11.613
315.96	9.604
316.16	10.325
316.37	11.374
316.58	10.497
316.79	10.503
317.00	13.284
317.21	11.047
317.42	8.493
317.63	10.532
317.84	8.428
318.05	11.563
318.25	12.289
318.46	7.754
318.67	11.224
318.88	12.655
319.09	14.020
319.30	10.349
319.51	10.684
319.72	12.816
319.93	13.644
320.13	11.370
320.34	11.486
320.55	12.657
320.76	13.012
320.97	10.364
321.18	14.753
321.39	11.256
321.60	11.947
321.80	17.344
322.01	14.582
322.22	10.266
322.43	12.965
322.64	12.617
322.85	13.951
323.06	13.195
323.27	11.967
323.47	10.692
323.68	12.743
323.89	10.511
324.10	10.930
324.31	12.058
324.52	10.256
324.73	15.182
324.93	11.765
325.14	10.832
325.35	10.010
325.56	10.967
325.77	12.200
325.98	11.533
326.19	12.188
326.39	8.488
326.60	9.478
326.81	10.555
327.02	8.256
327.23	6.068
327.44	13.990
327.64	7.129
327.85	9.560
328.06	10.010
328.27	13.805
328.48	12.802
328.69	8.522
328.90	10.605
329.10	8.564
329.31	11.163
329.52	11.471
329.73	15.917
329.94	9.988
330.15	11.383
330.35	12.507
330.56	11.840
330.77	11.762
330.98	13.941
331.19	13.038
331.39	11.525
331.60	11.566
331.81	10.391
332.02	15.563
332.23	11.591
332.44	11.064
332.64	11.148
332.85	14.309
333.06	12.653
333.27	9.521
333.48	11.623
333.68	9.927
333.89	9.339
334.10	10.408
334.31	13.165
334.52	12.073
334.72	10.409
334.93	12.065
335.14	9.565
335.35	12.670
335.56	13.159
335.76	8.295
335.97	12.730
336.18	9.564
336.39	15.470
336.60	12.412
336.80	11.519
337.01	10.369
337.22	9.600
337.43	13.297
337.64	13.333
337.84	12.376
338.05	12.253
338.26	13.369
338.47	13.902
338.68	11.322
338.88	11.936
339.09	11.247
339.30	13.352
339.51	12.935
339.71	14.377
339.92	8.774
340.13	13.902
340.34	12.860
340.55	13.063
340.75	11.095
340.96	9.403
341.17	11.266
341.38	9.947
341.58	14.622
341.79	10.133
342.00	9.474
342.21	10.958
342.41	12.000
342.62	10.927
342.83	11.850
343.04	9.264
343.24	11.892
343.45	12.138
343.66	12.246
343.87	11.138
344.07	12.886
344.28	14.524
344.49	12.260
344.70	13.363
344.90	9.079
345.11	12.522
345.32	10.820
345.53	10.475
345.73	10.452
345.94	14.979
346.15	14.757
346.36	12.065
346.56	11.116
346.77	12.954
346.98	10.339
347.19	14.144
347.39	11.910
347.60	11.153
347.81	12.389
348.02	11.574
348.22	10.485
348.43	12.062
348.64	8.479
348.84	11.005
349.05	10.933
349.26	15.220
349.47	9.554
349.67	10.501
349.88	13.197
350.09	11.777
350.30	12.544
350.50	12.190
350.71	14.007
350.92	11.897
351.12	11.284
351.33	11.638
351.54	12.381
351.74	11.787
351.95	9.518
352.16	11.488
352.37	11.760
352.57	10.969
352.78	11.120
352.99	11.163
353.19	12.840
353.40	11.174
353.61	16.463
353.82	12.707
354.02	12.128
354.23	13.408
354.44	17.346
354.64	12.090
354.85	14.540
355.06	10.801
355.26	9.825
355.47	12.505
355.68	13.613
355.88	13.027
356.09	12.041
356.30	11.222
356.51	15.085
356.71	12.019
356.92	11.036
357.13	12.653
357.33	16.233
357.54	12.793
357.75	8.150
357.95	13.923
358.16	11.359
358.37	13.639
358.57	10.896
358.78	15.171
358.99	10.706
359.19	11.788
359.40	14.816
359.61	12.173
359.81	13.728
360.02	14.892
360.23	10.218
360.43	10.460
360.64	11.629
360.85	12.247
361.05	8.707
361.26	12.564
361.47	9.597
361.67	12.963
361.88	8.588
362.09	11.813
362.29	10.176
362.50	9.165
362.70	8.563
362.91	12.821
363.12	9.267
363.32	9.523
363.53	10.377
363.74	11.977
363.94	8.756
364.15	13.333
364.36	10.971
364.56	10.449
364.77	12.023
364.98	15.208
365.18	10.877
365.39	13.523
365.59	8.762
365.80	10.798
366.01	12.530
366.21	10.588
366.42	10.660
366.63	12.750
366.83	9.551
367.04	8.630
367.24	13.301
367.45	11.138
367.66	8.009
367.86	10.599
368.07	8.958
368.28	11.982
368.48	10.622
368.69	9.005
368.89	10.351
369.10	11.761
369.31	11.325
369.51	10.885
369.72	11.738
369.92	13.937
370.13	7.947
370.34	12.341
370.54	6.036
370.75	12.189
370.95	8.027
371.16	12.427
371.37	9.193
371.57	9.778
371.78	9.641
371.98	11.175
372.19	12.472
372.40	10.871
372.60	9.392
372.81	11.301
373.01	7.909
373.22	9.782
373.43	9.904
373.63	10.017
373.84	10.903
374.04	9.723
374.25	9.588
374.46	10.295
374.66	10.046
374.87	12.784
375.07	7.370
375.28	8.582
375.48	10.775
375.69	10.164
375.90	8.725
376.10	7.287
376.31	8.424
376.51	8.868
376.72	8.277
376.92	8.785
377.13	10.231
377.34	10.162
377.54	8.408
377.75	11.149
377.95	8.411
378.16	10.278
378.36	10.664
378.57	9.226
378.77	8.691
378.98	8.736
379.19	9.586
379.39	7.992
379.60	9.002
379.80	8.729
380.01	9.472
380.21	8.839
380.42	8.593
380.62	9.658
380.83	10.569
381.04	7.350
381.24	9.103
381.45	8.613
381.65	8.135
381.86	8.882
382.06	9.508
382.27	6.305
382.47	7.774
382.68	7.774
382.88	8.156
383.09	8.566
383.29	7.610
383.50	9.766
383.71	8.691
383.91	8.618
384.12	8.335
384.32	9.707
384.53	7.880
384.73	8.162
384.94	7.319
385.14	8.253
385.35	7.329
385.55	8.246
385.76	7.553
385.96	8.013
386.17	6.897
386.37	8.244
386.58	6.340
386.78	9.240
386.99	6.600
387.19	8.368
387.40	7.171
387.60	9.384
387.81	6.736
388.01	6.848
388.22	7.828
388.42	9.751
388.63	9.412
388.83	9.581
389.04	6.458
389.24	7.391
389.45	7.373
389.65	7.051
389.86	7.424
390.06	6.825
390.27	5.881
390.47	6.982
390.68	5.823
390.88	9.430
391.09	7.862
391.29	8.763
391.50	7.287
391.70	8.027
391.91	6.073
392.11	6.761
392.32	7.911
392.52	6.725
392.73	6.770
392.93	6.823
393.14	7.062
393.34	7.848
393.55	7.945
393.75	7.547
393.95	7.115
394.16	6.578
394.36	9.164
394.57	7.943
394.77	6.824
394.98	6.291
395.18	7.401
395.39	6.496
395.59	6.701
395.80	6.225
396.00	6.815
396.21	8.267
396.41	5.201
396.61	7.828
396.82	8.531
397.02	10.077
397.23	7.756
397.43	8.609
397.64	6.836
397.84	9.424
398.05	5.373
398.25	7.785
398.45	6.273
398.66	8.315
398.86	7.209
399.07	9.167
399.27	6.203
399.48	8.300
399.68	5.991
399.89	6.822
400.09	7.901
400.29	5.461
400.50	6.788
400.70	8.566
400.91	7.342
401.11	6.821
401.32	7.507
401.52	5.887
401.72	6.173
401.93	9.786
402.13	7.342
402.34	7.197
402.54	6.109
402.75	8.111
402.95	6.065
403.15	8.383
403.36	5.642
403.56	7.062
403.77	6.409
403.97	7.435
404.17	6.361
404.38	7.893
404.58	4.908
404.79	8.264
404.99	6.940
405.19	6.403
405.40	6.332
405.60	7.272
405.81	6.110
406.01	6.646
406.21	7.249
406.42	6.033
406.62	7.075
406.83	7.197
407.03	7.242
407.23	6.087
407.44	6.106
407.64	6.836
407.85	7.437
408.05	6.986
408.25	6.912
408.46	8.466
408.66	8.041
408.87	6.810
409.07	6.917
409.27	6.660
409.48	6.158
409.68	6.571
409.88	5.505
410.09	7.734
410.29	6.925
410.50	9.469
410.70	5.517
410.90	6.489
411.11	6.183
411.31	7.200
411.51	7.068
411.72	7.254
411.92	5.977
412.12	4.903
412.33	5.876
412.53	6.004
412.74	5.905
412.94	7.386
413.14	7.565
413.35	6.493
413.55	6.376
413.75	8.724
413.96	5.645
414.16	6.727
414.36	6.687
414.57	6.960
414.77	4.946
414.97	7.228
415.18	5.840
415.38	6.545
415.58	7.020
415.79	5.903
415.99	5.468
416.19	6.167
416.40	6.073
416.60	6.011
416.80	6.128
417.01	5.898
417.21	5.632
417.41	7.568
417.62	6.143
417.82	6.900
418.02	4.899
418.23	6.844
418.43	5.989
418.63	6.059
418.84	6.837
419.04	5.667
419.24	6.253
419.45	7.043
419.65	7.007
419.85	7.340
420.06	6.790
420.26	6.200
420.46	6.606
420.67	6.979
420.87	7.074
421.07	7.301
421.28	6.153
421.48	7.353
421.68	7.173
421.88	7.704
422.09	7.507
422.29	7.320
422.49	6.702
422.70	7.007
422.90	6.843
423.10	7.618
423.31	7.527
423.51	7.755
423.71	6.225
423.91	7.684
424.12	7.300
424.32	7.573
424.52	7.137
424.73	6.095
424.93	6.674
425.13	6.849
425.33	7.163
425.54	7.734
425.74	6.587
425.94	7.490
426.15	6.503
426.35	7.228
426.55	6.825
426.75	7.691
426.96	6.879
427.16	6.984
427.36	7.073
427.57	7.979
427.77	6.193
427.97	7.907
428.17	7.504
428.38	7.820
428.58	4.977
428.78	6.569
428.98	6.147
429.19	6.881
429.39	4.777
429.59	6.813
429.79	5.419
430.00	5.645
430.20	5.037
430.40	6.008
430.60	5.634
430.81	6.465
431.01	4.987
431.21	6.585
431.41	5.213
431.62	7.046
431.82	5.899
432.02	6.945
432.22	5.378
432.43	5.048
432.63	5.026
432.83	5.616
433.03	5.222
433.24	5.385
433.44	5.606
433.64	6.438
433.84	5.183
434.05	6.466
434.25	6.097
434.45	7.666
434.65	6.290
434.85	7.409
435.06	6.800
435.26	6.701
435.46	5.701
435.66	7.527
435.87	5.927
436.07	7.055
436.27	6.114
436.47	5.703
436.67	4.606
436.88	6.619
437.08	5.642
437.28	6.500
437.48	5.639
437.69	7.117
437.89	5.633
438.09	7.156
438.29	5.852
438.49	6.433
438.70	6.423
438.90	5.226
439.10	4.821
439.30	6.454
439.50	4.920
439.71	6.354
439.91	5.609
440.11	7.351
440.31	6.015
440.51	6.375
440.72	6.078
440.92	6.344
441.12	7.079
441.32	7.284
441.52	6.524
441.72	6.868
441.93	5.862
442.13	7.533
442.33	6.160
442.53	7.798
442.73	5.547
442.94	6.682
443.14	6.117
443.34	7.693
443.54	6.583
443.74	7.131
443.94	5.988
444.15	6.118
444.35	5.917
444.55	6.803
444.75	5.921
444.95	6.378
445.15	6.321
445.36	6.629
445.56	5.098
445.76	7.029
445.96	6.048
446.16	6.038
446.36	4.967
446.57	6.946
446.77	5.207
446.97	6.359
447.17	7.002
447.37	6.987
447.57	6.904
447.77	6.693
447.98	6.304
448.18	7.102
448.38	6.368
448.58	7.369
448.78	6.660
448.98	7.231
449.18	5.951
449.39	6.497
449.59	6.377
449.79	6.163
449.99	5.736
450.19	6.721
450.39	6.661
450.59	6.778
450.79	6.059
451.00	7.853
451.20	7.266
451.40	6.594
451.60	5.647
451.80	6.935
452.00	6.025
452.20	6.712
452.40	5.752
452.61	5.258
452.81	5.611
453.01	6.278
453.21	5.200
453.41	5.891
453.61	5.373
453.81	6.116
454.01	6.340
454.21	6.227
454.42	7.487
454.62	5.962
454.82	6.357
455.02	5.629
455.22	5.041
455.42	5.592
455.62	4.742
455.82	6.874
456.02	5.190
456.23	6.029
456.43	6.105
456.63	5.924
456.83	4.937
457.03	6.071
457.23	5.428
457.43	6.573
457.63	5.667
457.83	6.354
458.03	5.832
458.23	6.151
458.43	4.933
458.64	5.777
458.84	5.378
459.04	6.311
459.24	6.207
459.44	6.244
459.64	6.274
459.84	6.241
460.04	6.021
460.24	6.624
460.44	6.607
460.64	7.713
460.84	6.005
461.04	7.322
461.24	7.048
461.45	7.908
461.65	7.242
461.85	7.146
462.05	7.366
462.25	7.003
462.45	7.754
462.65	7.302
462.85	4.876
463.05	7.231
463.25	4.683
463.45	7.192
463.65	6.103
463.85	6.535
464.05	5.727
464.25	6.003
464.45	7.229
464.65	6.483
464.85	4.418
465.05	5.702
465.26	6.831
465.46	6.539
465.66	6.693
465.86	7.061
466.06	6.530
466.26	6.725
466.46	5.128
466.66	6.934
466.86	6.097
467.06	7.431
467.26	6.575
467.46	7.159
467.66	6.364
467.86	6.700
468.06	6.297
468.26	6.418
468.46	6.487
468.66	7.068
468.86	5.176
469.06	8.142
469.26	5.476
469.46	6.930
469.66	6.039
469.86	7.294
470.06	6.227
470.26	7.970
470.46	5.638
470.66	8.193
470.86	6.744
471.06	7.011
471.26	5.793
471.46	6.640
471.66	7.301
471.86	7.433
472.06	6.360
472.26	8.716
472.46	7.960
472.66	8.159
472.86	6.324
473.06	7.205
473.26	6.897
473.46	7.711
473.66	6.085
473.86	7.355
474.06	6.209
474.26	7.867
474.46	6.000
474.66	8.127
474.86	7.121
475.06	7.881
475.26	5.743
475.46	7.782
475.66	6.672
475.86	7.958
476.06	7.508
476.26	8.439
476.46	6.810
476.66	8.445
476.86	6.116
477.06	7.137
477.26	6.649
477.46	7.694
477.65	7.370
477.85	8.199
478.05	5.411
478.25	8.425
478.45	7.429
478.65	8.389
478.85	6.273
479.05	8.352
479.25	7.667
479.45	8.661
479.65	7.245
479.85	8.041
480.05	7.734
480.25	8.640
480.45	7.803
480.65	8.669
480.85	7.241
481.05	8.916
481.25	8.575
481.44	8.414
481.64	7.183
481.84	8.999
482.04	7.831
482.24	8.838
482.44	7.244
482.64	8.054
482.84	7.761
483.04	7.904
483.24	7.773
483.44	7.585
483.64	7.301
483.84	7.397
484.04	7.403
484.23	7.456
484.43	7.716
484.63	8.355
484.83	8.537
485.03	8.884
485.23	8.953
485.43	8.998
485.63	8.996
485.83	8.666
486.03	8.227
486.23	8.762
486.42	8.567
486.62	8.720
486.82	8.557
487.02	8.290
487.22	8.075
487.42	8.093
487.62	7.844
487.82	8.029
488.02	7.770
488.22	8.013
488.41	7.957
488.61	7.981
488.81	7.851
489.01	8.082
489.21	8.317
489.41	8.459
489.61	8.398
489.81	8.601
490.01	8.978
490.20	8.705
490.40	8.600
490.60	8.801
490.80	8.514
491.00	8.382
491.20	7.961
491.40	8.059
491.60	7.893
491.79	7.989
491.99	7.966
492.19	7.929
492.39	7.980
492.59	7.803
492.79	8.223
492.99	8.474
493.19	8.287
493.38	8.419
493.58	8.439
493.78	8.941
493.98	8.953
494.18	8.870
494.38	8.898
494.58	9.197
494.77	7.766
494.97	9.061
495.17	7.557
495.37	8.144
495.57	8.205
495.77	9.157
495.96	8.189
496.16	8.552
496.36	8.295
496.56	8.544
496.76	7.736
496.96	7.987
497.15	7.043
497.35	8.671
497.55	7.615
497.75	8.473
497.95	7.717
498.15	8.563
498.34	7.807
498.54	8.010
498.74	8.729
498.94	8.280
499.14	7.711
499.34	9.576
499.53	8.143
499.73	9.147
499.93	8.199
500.13	8.229
500.33	7.102
500.52	8.357
500.72	8.222
500.92	8.178
501.12	7.356
501.32	7.830
501.52	7.934
501.71	7.741
501.91	7.164
502.11	8.714
502.31	7.315
502.51	9.128
502.70	7.379
502.90	8.086
503.10	8.073
503.30	8.860
503.50	7.574
503.69	8.204
503.89	8.161
504.09	9.238
504.29	8.387
504.48	8.894
504.68	8.835
504.88	8.839
505.08	7.063
505.28	8.598
505.47	7.703
505.67	8.643
505.87	7.537
506.07	8.330
506.27	7.705
506.46	8.895
506.66	7.611
506.86	7.948
507.06	8.847
507.25	7.919
507.45	7.968
507.65	8.969
507.85	7.575
508.04	8.754
508.24	8.185
508.44	8.698
508.64	7.481
508.83	8.750
509.03	7.409
509.23	8.498
509.43	6.931
509.63	8.239
509.82	7.063
510.02	8.630
510.22	7.346
510.42	8.756
510.61	8.251
510.81	8.721
511.01	7.746
511.21	9.013
511.40	7.509
511.60	8.639
511.80	8.334
511.99	9.062
512.19	8.470
512.39	9.229
512.59	7.760
512.78	9.125
512.98	8.577
513.18	8.237
513.38	8.487
513.57	9.237
513.77	8.186
513.97	9.357
514.17	8.311
514.36	8.892
514.56	8.248
514.76	8.923
514.95	7.156
515.15	8.154
515.35	7.045
515.55	8.672
515.74	8.423
515.94	9.413
516.14	8.034
516.33	9.099
516.53	8.466
516.73	7.982
516.93	7.653
517.12	9.437
517.32	7.378
517.52	8.113
517.71	7.739
517.91	8.501
518.11	8.027
518.30	8.321
518.50	7.255
518.70	8.048
518.90	8.048
519.09	8.617
519.29	8.692
519.49	8.912
519.68	7.695
519.88	8.988
520.08	8.845
520.27	8.961
520.47	8.596
520.67	8.724
520.86	8.577
521.06	9.072
521.26	8.389
521.45	8.947
521.65	8.168
521.85	8.586
522.04	8.537
522.24	8.889
522.44	7.630
522.63	8.311
522.83	7.717
523.03	9.243
523.22	7.983
523.42	9.061
523.62	8.518
523.81	9.002
524.01	8.259
524.21	8.235
524.40	8.248
524.60	8.409
524.80	7.781
524.99	8.011
525.19	8.193
525.39	8.212
525.58	8.442
525.78	8.159
525.98	7.787
526.17	8.210
526.37	8.365
526.57	8.191
526.76	8.464
526.96	8.717
527.15	7.834
527.35	8.541
527.55	8.133
527.74	8.620
527.94	8.567
528.14	8.227
528.33	7.806
528.53	8.046
528.72	7.998
528.92	7.799
529.12	8.167
529.31	8.184
529.51	8.417
529.71	8.092
529.90	8.381
530.10	8.462
530.29	8.637
530.49	9.112
530.69	9.390
530.88	9.196
531.08	8.895
531.28	8.924
531.47	8.609
531.67	9.024
531.86	9.075
532.06	8.608
532.26	8.363
532.45	8.542
532.65	8.521
532.84	8.224
533.04	8.052
533.24	8.471
533.43	8.146
533.63	8.288
533.82	8.434
534.02	8.557
534.22	8.444
534.41	8.810
534.61	8.805
534.80	8.764
535.00	8.940
535.19	9.391
535.39	9.350
535.59	9.294
535.78	8.616
535.98	8.594
536.17	8.341
536.37	9.022
536.57	8.457
536.76	8.738
536.96	8.736
537.15	8.725
537.35	8.235
537.54	8.916
537.74	9.112
537.93	8.876
538.13	8.849
538.33	8.844
538.52	8.583
538.72	9.383
538.91	9.249
539.11	9.432
539.30	8.775
539.50	9.369
539.70	8.701
539.89	9.202
540.09	8.267
540.28	9.277
540.48	7.787
540.67	8.806
540.87	8.573
541.06	8.320
541.26	8.157
541.45	8.643
541.65	8.689
541.85	8.340
542.04	8.912
542.24	8.959
542.43	8.968
542.63	9.003
542.82	9.082
543.02	9.262
543.21	9.409
543.41	9.482
543.60	9.338
543.80	9.676
543.99	9.774
544.19	9.567
544.38	9.755
544.58	9.651
544.77	9.380
544.97	10.334
545.16	9.145
545.36	9.999
545.56	9.169
545.75	9.937
545.95	9.146
546.14	9.697
546.34	8.623
546.53	10.233
546.73	9.350
546.92	9.902
547.12	9.419
547.31	9.718
547.51	9.883
547.70	9.353
547.90	9.477
548.09	9.981
548.29	8.925
548.48	10.248
548.68	9.715
548.87	10.218
549.07	10.450
549.26	10.214
549.46	9.809
549.65	10.092
549.84	9.394
550.04	10.596
550.23	9.368
550.43	9.922
550.62	9.386
550.82	9.883
551.01	8.553
551.21	10.281
551.40	8.793
551.60	9.323
551.79	9.082
551.99	10.221
552.18	9.419
552.38	10.276
552.57	10.075
552.77	10.048
552.96	9.463
553.16	10.351
553.35	9.441
553.54	11.496
553.74	10.392
553.93	11.223
554.13	10.603
554.32	10.602
554.52	10.260
554.71	10.842
554.91	9.805
555.10	11.637
555.29	10.014
555.49	11.534
555.68	10.631
555.88	11.270
556.07	10.568
556.27	11.018
556.46	11.197
556.66	11.475
556.85	11.066
557.04	12.081
557.24	10.905
557.43	11.602
557.63	11.097
557.82	11.585
558.02	10.816
558.21	12.518
558.40	10.904
558.60	11.568
558.79	10.620
558.99	12.726
559.18	11.335
559.38	12.085
559.57	11.659
559.76	12.585
559.96	12.920
560.15	12.842
560.35	11.213
560.54	11.733
560.73	10.782
560.93	12.625
561.12	13.175
561.32	12.702
561.51	12.639
561.70	14.278
561.90	12.696
562.09	13.569
562.29	12.699
562.48	13.533
562.67	13.468
562.87	13.892
563.06	12.961
563.26	13.385
563.45	12.828
563.64	14.350
563.84	13.228
564.03	14.491
564.23	13.630
564.42	14.789
564.61	13.522
564.81	13.982
565.00	14.374
565.20	14.853
565.39	13.838
565.58	15.043
565.78	14.272
565.97	14.444
566.16	14.400
566.36	14.948
566.55	14.948
566.74	15.007
566.94	13.910
567.13	15.488
567.33	15.192
567.52	16.026
567.71	15.431
567.91	16.052
568.10	15.806
568.29	16.888
568.49	15.759
568.68	16.493
568.87	15.582
569.07	16.503
569.26	15.933
569.45	16.516
569.65	15.286
569.84	16.296
570.04	15.797
570.23	16.229
570.42	15.571
570.62	17.003
570.81	15.802
571.00	16.959
571.20	16.253
571.39	16.610
571.58	16.299
571.78	16.796
571.97	16.532
572.16	16.709
572.36	16.756
572.55	16.998
572.74	16.252
572.94	17.533
573.13	17.219
573.32	17.080
573.51	17.088
573.71	17.363
573.90	16.513
574.09	16.901
574.29	17.238
574.48	16.950
574.67	16.869
574.87	17.664
575.06	17.625
575.25	17.452
575.45	16.938
575.64	17.430
575.83	17.374
576.03	18.336
576.22	17.259
576.41	17.190
576.60	16.520
576.80	17.487
576.99	18.358
577.18	17.884
577.38	16.947
577.57	17.261
577.76	17.685
577.95	17.736
578.15	16.949
578.34	18.248
578.53	17.234
578.73	17.816
578.92	16.910
579.11	17.885
579.30	18.074
579.50	16.967
579.69	18.047
579.88	18.371
580.08	17.694
580.27	17.984
580.46	18.461
580.65	17.295
580.85	17.381
581.04	17.822
581.23	16.656
581.42	17.956
581.62	16.669
581.81	17.908
582.00	17.929
582.19	16.728
582.39	16.957
582.58	17.741
582.77	16.887
582.96	16.780
583.16	16.680
583.35	17.320
583.54	17.711
583.73	18.156
583.93	16.486
584.12	16.795
584.31	16.701
584.50	17.385
584.70	17.259
584.89	17.755
585.08	15.867
585.27	17.678
585.47	15.097
585.66	17.231
585.85	16.164
586.04	17.719
586.24	17.487
586.43	15.704
586.62	15.927
586.81	17.218
587.00	14.577
587.20	16.986
587.39	15.250
587.58	17.907
587.77	16.463
587.97	15.692
588.16	16.650
588.35	17.997
588.54	15.928
588.73	15.463
588.93	16.580
589.12	16.856
589.31	16.070
589.50	16.069
589.69	16.991
589.89	16.534
590.08	15.824
590.27	16.810
590.46	15.521
590.65	16.202
590.85	16.524
591.04	17.101
591.23	16.131
591.42	17.577
591.61	16.511
591.81	16.798
592.00	16.373
592.19	17.334
592.38	15.306
592.57	17.646
592.77	15.811
592.96	17.144
593.15	18.027
593.34	18.037
593.53	17.165
593.72	16.949
593.92	15.608
594.11	17.373
594.30	16.233
594.49	17.348
594.68	16.908
594.87	16.756
595.07	17.386
595.26	17.016
595.45	16.581
595.64	17.514
595.83	16.271
596.02	17.713
596.22	16.464
596.41	17.173
596.60	17.166
596.79	16.813
596.98	16.938
597.17	17.136
597.37	18.084
597.56	18.314
597.75	16.995
597.94	18.400
598.13	17.694
598.32	17.639
598.51	17.856
598.71	19.412
598.90	17.692
599.09	18.235
599.28	16.940
599.47	17.875
599.66	17.127
599.85	18.819
600.05	17.478
600.24	19.576
600.43	17.969
600.62	18.056
600.81	17.089
601.00	18.581
601.19	17.009
601.38	18.210
601.58	17.006
601.77	17.954
601.96	17.002
602.15	19.072
602.34	17.254
602.53	19.460
602.72	17.823
602.91	19.135
603.10	17.794
603.30	18.687
603.49	18.185
603.68	19.661
603.87	17.294
604.06	18.034
604.25	18.282
604.44	17.787
604.63	18.726
604.82	19.258
605.01	18.095
605.21	19.057
605.40	18.152
605.59	18.747
605.78	18.751
605.97	19.879
606.16	19.649
606.35	19.086
606.54	19.519
606.73	20.214
606.92	18.812
607.11	19.795
607.30	18.943
607.50	20.656
607.69	19.300
607.88	17.958
608.07	18.367
608.26	18.898
608.45	18.633
608.64	19.032
608.83	17.427
609.02	18.039
609.21	17.360
609.40	18.872
609.59	18.356
609.78	18.451
609.97	17.996
610.16	18.266
610.35	18.238
610.55	17.860
610.74	18.326
610.93	18.362
611.12	17.953
611.31	18.479
611.50	17.735
611.69	18.341
611.88	17.049
612.07	18.578
612.26	17.034
612.45	18.714
612.64	16.921
612.83	18.792
613.02	15.865
613.21	16.664
613.40	17.078
613.59	17.540
613.78	16.227
613.97	17.404
614.16	16.272
614.35	16.703
614.54	15.331
614.73	14.921
614.92	17.019
615.11	17.091
615.30	15.860
615.49	16.406
615.68	15.639
615.87	15.173
616.07	14.705
616.26	15.155
616.45	15.938
616.64	16.963
616.83	16.043
617.02	15.751
617.21	13.416
617.40	14.705
617.59	15.496
617.78	14.185
617.97	14.087
618.16	15.422
618.35	12.762
618.54	16.687
618.73	15.325
618.92	15.266
619.11	13.569
619.30	15.588
619.49	12.905
619.68	14.444
619.86	13.300
620.05	13.495
620.24	13.395
620.43	15.070
620.62	11.005
620.81	14.389
621.00	14.489
621.19	17.297
621.38	14.822
621.57	15.665
621.76	13.877
621.95	14.577
622.14	13.253
622.33	15.785
622.52	13.362
622.71	14.580
622.90	11.495
623.09	14.594
623.28	12.473
623.47	15.971
623.66	13.490
623.85	12.340
624.04	12.706
624.23	14.174
624.42	11.909
624.61	12.467
624.80	12.877
624.99	13.965
625.18	11.245
625.36	14.862
625.55	15.156
625.74	14.229
625.93	12.369
626.12	13.756
626.31	14.016
626.50	13.738
626.69	12.439
626.88	15.719
627.07	14.424
627.26	13.919
627.45	13.558
627.64	14.087
627.83	14.361
628.02	14.599
628.20	13.468
628.39	13.836
628.58	12.712
628.77	14.696
628.96	13.585
629.15	13.941
629.34	12.721
629.53	13.332
629.72	12.069
629.91	14.053
630.10	12.691
630.29	12.367
630.47	12.368
630.66	13.023
630.85	12.589
631.04	14.235
631.23	13.894
631.42	14.297
631.61	12.182
631.80	14.593
631.99	11.745
632.18	12.350
632.36	12.204
632.55	14.386
632.74	12.547
632.93	12.652
633.12	12.789
633.31	13.889
633.50	12.679
633.69	13.078
633.88	10.270
634.06	13.988
634.25	11.680
634.44	11.659
634.63	13.026
634.82	14.538
635.01	11.504
635.20	12.789
635.39	10.274
635.57	12.042
635.76	12.098
635.95	13.187
636.14	11.004
636.33	12.984
636.52	11.326
636.71	13.715
636.89	11.933
637.08	12.861
637.27	10.673
637.46	12.214
637.65	11.673
637.84	11.842
638.03	12.272
638.21	13.375
638.40	12.709
638.59	11.039
638.78	11.384
638.97	13.128
639.16	14.599
639.34	11.847
639.53	10.765
639.72	12.195
639.91	9.599
640.10	10.992
640.29	13.303
640.47	13.375
640.66	11.812
640.85	14.066
641.04	10.603
641.23	11.027
641.42	11.228
641.60	12.827
641.79	11.021
641.98	11.616
642.17	11.108
642.36	13.120
642.54	9.769
642.73	12.606
642.92	11.515
643.11	12.000
643.30	10.309
643.49	11.175
643.67	10.257
643.86	12.733
644.05	10.700
644.24	12.280
644.43	11.073
644.61	12.248
644.80	11.587
644.99	10.986
645.18	11.673
645.37	13.033
645.55	10.112
645.74	12.068
645.93	11.711
646.12	13.418
646.31	11.699
646.49	11.038
646.68	12.016
646.87	11.708
647.06	12.112
647.24	12.732
647.43	10.235
647.62	12.591
647.81	9.511
648.00	14.068
648.18	9.294
648.37	11.084
648.56	10.081
648.75	10.771
648.93	12.094
649.12	11.778
649.31	10.022
649.50	11.117
649.68	11.027
649.87	12.544
650.06	11.693
650.25	12.253
650.43	10.822
650.62	10.412
650.81	10.220
651.00	11.205
651.18	9.787
651.37	12.629
651.56	10.436
651.75	12.775
651.93	9.168
652.12	11.992
652.31	9.117
652.50	11.363
652.68	13.760
652.87	12.328
653.06	12.438
653.25	12.223
653.43	10.831
653.62	11.933
653.81	10.090
654.00	12.412
654.18	11.162
654.37	13.756
654.56	10.283
654.74	9.755
654.93	10.663
655.12	10.059
655.31	10.045
655.49	10.908
655.68	8.542
655.87	8.471
656.05	8.814
656.24	10.074
656.43	7.777
656.62	8.903
656.80	11.480
656.99	9.369
657.18	9.172
657.36	10.061
657.55	10.405
657.74	9.831
657.93	10.629
658.11	12.191
658.30	12.111
658.49	8.712
658.67	9.540
658.86	8.460
659.05	8.678
659.23	9.903
659.42	8.360
659.61	9.418
659.79	9.399
659.98	9.994
660.17	9.690
660.35	9.129
660.54	8.878
660.73	11.978
660.91	9.149
661.10	10.110
661.29	8.227
661.47	8.565
661.66	8.713
661.85	8.385
662.03	8.312
662.22	6.410
662.41	6.829
662.59	9.726
662.78	7.820
662.97	7.520
663.15	7.243
663.34	7.960
663.53	6.742
663.71	9.250
663.90	8.030
664.09	7.494
664.27	10.727
664.46	9.187
664.65	8.356
664.83	7.937
665.02	6.590
665.21	8.781
665.39	7.367
665.58	9.111
665.77	7.883
665.95	6.503
666.14	8.084
666.32	8.016
666.51	7.744
666.70	6.260
666.88	9.035
667.07	6.081
667.26	7.340
667.44	6.866
667.63	10.175
667.81	7.319
668.00	8.347
668.19	9.934
668.37	8.700
668.56	10.947
668.75	8.171
668.93	9.953
669.12	7.673
669.30	9.138
669.49	8.240
669.68	9.860
669.86	9.582
670.05	7.898
670.23	7.905
670.42	9.085
670.61	9.721
670.79	8.383
670.98	7.770
671.16	10.875
671.35	7.876
671.54	9.907
671.72	9.191
671.91	10.150
672.09	9.355
672.28	10.338
672.46	9.639
672.65	10.617
672.84	11.178
673.02	11.460
673.21	7.611
673.39	9.859
673.58	10.312
673.77	10.427
673.95	9.069
674.14	10.713
674.32	8.232
674.51	11.579
674.69	7.354
674.88	10.824
675.07	10.663
675.25	12.975
675.44	9.845
675.62	9.335
675.81	8.549
675.99	16.413
676.18	12.332
676.36	9.261
676.55	11.685
676.74	14.286
676.92	14.102
677.11	10.334
677.29	9.027
677.48	14.038
677.66	14.102
677.85	9.442
678.03	10.623
678.22	13.318
678.40	10.636
678.59	10.324
678.78	9.508
678.96	10.676
679.15	11.672
679.33	12.998
679.52	12.179
679.70	12.523
679.89	11.698
680.07	12.880
680.26	9.406
680.44	11.829
680.63	11.446
680.81	10.995
681.00	7.875
681.18	11.166
681.37	9.989
681.55	12.872
681.74	12.437
681.92	13.861
682.11	12.453
682.29	8.975
682.48	9.885
682.66	13.185
682.85	12.796
683.03	12.423
683.22	12.800
683.40	14.308
683.59	11.963
683.77	13.619
683.96	11.189
684.14	14.206
684.33	10.499
684.51	16.059
684.70	13.579
684.88	16.977
685.07	13.953
685.25	14.362
685.44	11.993
685.62	12.885
685.81	10.094
685.99	14.619
686.18	12.076
686.36	15.125
686.55	11.500
686.73	14.139
686.92	13.750
687.10	15.446
687.29	15.046
687.47	14.996
687.65	17.050
687.84	13.500
688.02	17.756
688.21	19.129
688.39	13.796
688.58	17.843
688.76	16.562
688.95	14.311
689.13	13.631
689.32	19.407
689.50	17.052
689.68	18.195
689.87	16.310
690.05	18.301
690.24	18.255
690.42	20.174
690.61	19.160
690.79	21.609
690.98	20.085
691.16	20.892
691.34	14.700
691.53	20.520
691.71	19.208
691.90	20.353
692.08	17.825
692.27	24.303
692.45	22.541
692.63	23.386
692.82	23.952
693.00	22.329
693.19	19.266
693.37	26.101
693.56	23.932
693.74	28.736
693.92	22.979
694.11	26.057
694.29	26.254
694.48	29.795
694.66	27.694
694.84	30.050
695.03	27.284
695.21	31.957
695.40	32.440
695.58	34.041
695.76	30.530
695.95	35.221
696.13	28.829
696.32	33.832
696.50	37.521
696.68	34.920
696.87	35.344
697.05	36.465
697.24	35.739
697.42	39.042
697.60	35.166
697.79	39.993
697.97	38.842
698.16	40.104
698.34	36.933
698.52	40.559
698.71	38.613
698.89	39.342
699.07	40.173
699.26	40.504
699.44	41.100
699.63	40.748
699.81	42.737
699.99	42.802
700.18	42.355
700.36	43.771
700.54	42.072
700.73	44.552
700.91	44.693
701.09	45.896
701.28	44.977
701.46	46.474
701.64	45.554
701.83	46.846
702.01	43.608
702.20	50.586
702.38	47.073
702.56	47.718
702.75	50.352
702.93	51.699
703.11	51.564
703.30	53.616
703.48	54.789
703.66	55.924
703.85	54.840
704.03	54.440
704.21	55.142
704.40	58.411
704.58	54.883
704.76	56.562
704.95	53.111
705.13	55.663
705.31	56.711
705.50	57.784
705.68	58.902
705.86	58.313
706.04	56.139
706.23	60.370
706.41	64.842
706.59	59.990
706.78	56.253
706.96	61.623
707.14	63.368
707.33	61.286
707.51	62.327
707.69	60.823
707.88	61.907
708.06	60.292
708.24	61.192
708.42	64.426
708.61	59.695
708.79	62.856
708.97	63.370
709.16	63.597
709.34	63.351
709.52	60.822
709.71	62.667
709.89	62.739
710.07	58.491
710.25	62.210
710.44	59.472
710.62	63.158
710.80	63.709
710.98	64.221
711.17	62.890
711.35	63.211
711.53	63.163
711.72	66.136
711.90	64.385
712.08	65.570
712.26	62.516
712.45	66.136
712.63	62.985
712.81	64.232
712.99	62.963
713.18	66.225
713.36	64.973
713.54	62.995
713.72	62.193
713.91	66.422
714.09	64.948
714.27	65.073
714.45	65.804
714.64	65.497
714.82	63.411
715.00	62.971
715.18	64.527
715.37	66.682
715.55	66.213
715.73	64.477
715.91	65.302
716.10	61.755
716.28	61.924
716.46	64.509
716.64	69.520
716.83	65.789
717.01	69.342
717.19	64.324
717.37	64.615
717.55	63.266
717.74	67.687
717.92	64.938
718.10	61.228
718.28	64.717
718.47	70.361
718.65	68.570
718.83	66.824
719.01	68.336
719.19	69.111
719.38	67.176
719.56	65.286
719.74	68.154
719.92	61.638
720.10	68.940
720.29	67.072
720.47	68.595
720.65	68.399
720.83	69.712
721.01	68.184
721.20	74.060
721.38	67.405
721.56	71.578
721.74	71.855
721.92	71.375
722.11	75.510
722.29	72.924
722.47	71.916
722.65	69.030
722.83	69.040
723.01	71.248
723.20	76.447
723.38	70.438
723.56	69.932
723.74	74.423
723.92	73.114
724.10	72.940
724.29	67.424
724.47	79.071
724.65	72.042
724.83	75.392
725.01	68.738
725.19	75.571
725.38	72.010
725.56	76.107
725.74	70.584
725.92	75.215
726.10	70.443
726.28	70.672
726.46	69.954
726.65	69.019
726.83	74.337
727.01	69.866
727.19	66.413
727.37	76.054
727.55	70.915
727.73	70.397
727.92	67.449
728.10	71.437
728.28	66.384
728.46	70.427
728.64	70.410
728.82	72.225
729.00	72.727
729.19	77.544
729.37	70.988
729.55	75.941
729.73	74.882
729.91	74.615
730.09	75.624
730.27	75.000
730.45	71.326
730.63	74.528
730.82	65.950
731.00	74.883
731.18	73.875
731.36	74.707
731.54	73.278
731.72	77.520
731.90	71.673
732.08	73.736
732.26	71.476
732.45	78.050
732.63	73.972
732.81	75.709
732.99	70.174
733.17	70.533
733.35	74.156
733.53	71.139
733.71	71.347
733.89	75.097
734.07	71.379
734.25	75.519
734.44	73.237
734.62	71.132
734.80	76.272
734.98	77.852
735.16	73.989
735.34	76.022
735.52	76.735
735.70	75.845
735.88	78.982
736.06	76.364
736.24	78.384
736.42	81.215
736.60	82.057
736.78	81.646
736.97	78.419
737.15	79.761
737.33	81.091
737.51	80.571
737.69	77.971
737.87	79.384
738.05	79.465
738.23	75.247
738.41	78.582
738.59	80.042
738.77	77.240
738.95	74.074
739.13	80.029
739.31	74.425
739.49	76.913
739.67	83.834
739.85	74.983
740.03	80.994
740.21	80.382
740.39	79.592
740.57	82.117
740.75	75.668
740.93	76.012
741.11	81.886
741.30	84.324
741.48	83.321
741.66	84.834
741.84	77.185
742.02	83.552
742.20	78.680
742.38	82.375
742.56	83.994
742.74	80.124
742.92	81.172
743.10	79.213
743.28	83.039
743.46	80.488
743.64	81.566
743.82	82.280
744.00	80.819
744.18	83.605
744.36	85.224
744.54	81.922
744.72	85.302
744.90	93.569
745.08	83.505
745.26	78.705
745.44	82.601
745.62	80.528
745.80	81.059
745.98	85.879
746.16	89.936
746.34	87.273
746.52	88.214
746.70	78.774
746.87	86.751
747.05	91.505
747.23	83.612
747.41	88.641
747.59	85.972
747.77	86.385
747.95	82.076
748.13	79.508
748.31	89.794
748.49	82.765
748.67	89.272
748.85	84.075
749.03	85.394
749.21	79.928
749.39	86.559
749.57	80.237
749.75	82.511
749.93	80.645
750.11	80.685
750.29	81.735
750.47	86.047
750.65	82.268
750.83	88.235
751.01	83.333
751.18	81.162
751.36	84.398
751.54	85.056
751.72	85.913
751.90	79.007
752.08	81.844
752.26	81.173
752.44	85.833
752.62	78.010
752.80	81.584
752.98	78.602
753.16	83.618
753.34	84.608
753.52	86.198
753.69	79.948
753.87	81.375
754.05	76.406
754.23	85.267
754.41	83.392
754.59	82.994
754.77	83.275
754.95	83.231
755.13	85.075
755.31	83.909
755.49	86.802
755.66	78.691
755.84	77.014
756.02	82.807
756.20	86.014
756.38	83.666
756.56	81.488
756.74	86.100
756.92	80.280
757.10	87.429
757.28	86.086
757.45	87.854
757.63	80.177
757.81	81.324
757.99	88.198
758.17	86.512
758.35	83.044
758.53	85.551
758.71	83.856
758.88	81.212
759.06	84.025
759.24	76.140
759.42	77.922
759.60	79.213
759.78	74.180
759.96	68.201
760.13	71.596
760.31	66.163
760.49	66.364
760.67	62.135
760.85	69.831
761.03	65.283
761.21	62.278
761.38	58.769
761.56	65.682
761.74	62.845
761.92	65.893
762.10	61.265
762.28	66.042
762.46	63.521
762.63	62.077
762.81	62.648
762.99	65.207
763.17	66.328
763.35	65.547
763.53	60.707
763.70	64.982
763.88	62.917
764.06	65.920
764.24	62.479
764.42	62.056
764.60	64.902
764.77	65.685
764.95	61.093
765.13	63.506
765.31	61.619
765.49	69.134
765.66	65.111
765.84	64.422
766.02	64.457
766.20	69.111
766.38	73.607
766.56	71.522
766.73	67.283
766.91	74.400
767.09	80.576
767.27	75.021
767.45	74.137
767.62	73.270
767.80	78.179
767.98	77.586
768.16	71.705
768.33	75.921
768.51	83.039
768.69	81.166
768.87	76.960
769.05	81.608
769.22	76.670
769.40	81.410
769.58	82.755
769.76	79.559
769.94	82.586
770.11	79.158
770.29	79.504
770.47	79.619
770.65	87.313
770.82	86.612
771.00	93.148
771.18	80.947
771.36	77.717
771.53	85.172
771.71	89.480
771.89	88.767
772.07	84.132
772.25	88.642
772.42	78.892
772.60	87.893
772.78	87.961
772.96	94.082
773.13	84.795
773.31	87.574
773.49	90.559
773.67	90.150
773.84	85.575
774.02	89.057
774.20	82.777
774.37	89.276
774.55	87.563
774.73	96.089
774.91	82.518
775.08	89.024
775.26	93.169
775.44	87.254
775.62	81.922
775.79	88.918
775.97	89.324
776.15	93.767
776.32	85.638
776.50	103.453
776.68	95.697
776.86	83.250
777.03	76.376
777.21	82.195
777.39	85.819
777.56	89.612
777.74	84.913
777.92	90.784
778.10	92.068
778.27	83.401
778.45	91.498
778.63	84.306
778.80	82.893
778.98	91.387
779.16	92.982
779.34	89.371
779.51	87.280
779.69	89.930
779.87	87.828
780.04	88.147
780.22	86.020
780.40	91.066
780.57	83.966
780.75	86.104
780.93	93.607
781.10	88.705
781.28	81.557
781.46	83.584
781.63	90.015
781.81	91.134
781.99	92.868
782.16	87.281
782.34	84.380
782.52	87.247
782.69	91.492
782.87	83.558
783.05	76.429
783.22	89.048
783.40	83.901
783.58	82.063
783.75	92.785
783.93	104.643
784.11	82.764
784.28	94.340
784.46	83.881
784.64	91.654
784.81	81.571
784.99	93.049
785.17	95.902
785.34	96.546
785.52	82.276
785.69	87.558
785.87	77.234
786.05	96.923
786.22	84.882
786.40	91.941
786.58	84.554
786.75	84.505
786.93	71.044
787.11	83.467
787.28	84.984
787.46	84.039
787.63	92.821
787.81	89.954
787.99	89.739
788.16	83.752
788.34	78.179
788.51	85.567
788.69	86.578
788.87	82.481
789.04	72.269
789.22	84.626
789.39	76.543
789.57	77.734
789.75	77.530
789.92	82.679
790.10	73.664
790.27	85.816
790.45	75.533
790.63	81.979
790.80	70.338
790.98	83.188
791.15	80.271
791.33	77.671
791.51	80.810
791.68	90.174
791.86	80.464
792.03	84.333
792.21	73.378
792.39	82.965
792.56	76.667
792.74	81.832
792.91	91.979
793.09	82.285
793.26	76.761
793.44	88.336
793.62	77.143
793.79	85.270
793.97	77.087
794.14	88.103
794.32	87.640
794.49	99.446
794.67	80.396
794.84	82.250
795.02	92.504
795.20	91.728
795.37	76.549
795.55	85.736
795.72	85.336
795.90	85.595
796.07	78.621
796.25	76.421
796.42	81.913
796.60	80.179
796.77	80.431
796.95	83.254
797.13	73.139
797.30	85.025
797.48	77.596
797.65	76.108
797.83	72.255
798.00	86.084
798.18	73.053
798.35	80.659
798.53	78.333
798.70	77.710
798.88	80.100
799.05	73.832
799.23	78.261
799.40	77.389
799.58	81.615
799.75	86.765
799.93	81.100
800.10	92.176
800.28	88.760
800.45	87.612
800.63	83.633
800.80	85.271
800.98	80.483
801.15	83.186
801.33	79.189
801.50	78.238
801.68	80.539
801.85	76.672
802.03	67.450
802.20	79.963
802.38	67.845
802.55	84.808
802.73	82.783
802.90	91.837
803.08	71.530
803.25	85.385
803.43	75.986
803.60	86.929
803.78	85.876
803.95	89.024
804.13	80.969
804.30	87.623
804.48	80.501
804.65	77.362
804.83	74.199
805.00	65.862
805.17	82.136
805.35	75.568
805.52	71.319
805.70	82.453
805.87	83.549
806.05	86.387
806.22	70.074
806.40	81.503
806.57	71.536
806.75	80.183
806.92	75.439
807.09	86.528
807.27	81.802
807.44	97.710
807.62	76.527
807.79	75.536
807.97	82.060
808.14	84.800
808.31	80.041
808.49	82.205
808.66	77.649
808.84	81.395
809.01	94.480
809.19	80.453
809.36	84.521
809.53	80.952
809.71	74.903
809.88	93.126
810.06	75.000
810.23	89.800
810.41	74.481
810.58	86.469
810.75	71.674
810.93	82.840
811.10	71.789
811.28	81.879
811.45	70.860
811.62	78.427
811.80	79.574
811.97	82.251
812.15	83.235
812.32	67.026
812.49	79.521
812.67	77.872
812.84	80.440
813.02	86.099
813.19	79.458
813.36	85.683
813.54	76.770
813.71	78.636
813.89	84.802
814.06	89.947
814.23	69.266
814.41	85.343
814.58	80.048
814.75	98.526
814.93	81.667
815.10	86.923
815.28	88.235
815.45	68.473
815.62	72.422
815.80	67.667
815.97	73.499
816.14	82.664
816.32	74.572
816.49	76.316
816.66	71.750
816.84	75.393
817.01	77.007
817.18	61.305
817.36	70.481
817.53	83.333
817.71	60.043
817.88	65.455
818.05	70.470
818.23	80.000
818.40	76.179
818.57	71.368
818.75	67.981
818.92	73.276
819.09	70.276
819.27	66.275
819.44	59.443
819.61	68.450
819.79	74.486
819.96	73.861
820.13	71.330
820.31	65.217
820.48	68.153
820.65	70.995
820.82	62.643
821.00	64.964
821.17	57.225
821.34	64.664
821.52	63.296
821.69	62.325
821.86	58.879
822.04	63.358
822.21	62.755
822.38	65.447
822.56	59.109
822.73	57.578
822.90	58.152
823.07	59.931
823.25	56.392
823.42	55.456
823.59	55.917
823.77	57.594
823.94	54.469
824.11	56.694
824.29	55.966
824.46	59.388
824.63	60.559
824.80	60.341
824.98	60.820
825.15	61.744
825.32	52.944
825.49	60.330
825.67	60.269
825.84	64.654
826.01	61.447
826.19	61.309
826.36	58.406
826.53	66.098
826.70	56.977
826.88	61.532
827.05	57.711
827.22	63.815
827.39	61.964
827.57	62.574
827.74	58.631
827.91	60.536
828.08	55.345
828.26	58.674
828.43	52.526
828.60	61.223
828.77	58.316
828.95	62.354
829.12	56.604
829.29	55.321
829.46	55.120
829.64	61.040
829.81	49.587
829.98	60.339
830.15	58.916
830.32	59.647
830.50	63.017
830.67	60.540
830.84	60.149
831.01	59.248
831.19	63.636
831.36	73.577
831.53	68.651
831.70	81.190
831.87	65.702
832.05	74.851
832.22	69.731
832.39	75.217
832.56	67.430
832.74	71.429
832.91	66.456
833.08	71.862
833.25	58.524
833.42	72.193
833.60	57.190
833.77	62.908
833.94	52.853
834.11	55.152
834.28	48.585
834.45	56.789
834.63	53.144
834.80	53.715
834.97	54.213
835.14	56.354
835.31	57.400
835.49	52.420
835.66	51.235
835.83	56.512
836.00	54.983
836.17	62.799
836.34	51.322
836.52	61.579
836.69	60.719
836.86	65.156
837.03	64.924
837.20	58.013
837.37	64.899
837.55	72.566
837.72	74.759
837.89	76.845
838.06	78.606
838.23	83.732
838.40	78.014
838.58	62.400
838.75	70.655
838.92	90.000
839.09	87.566
839.26	81.283
839.43	86.744
839.60	104.348
839.78	102.160
839.95	93.160
840.12	80.696
840.29	93.631
840.46	93.007
840.63	88.529
840.80	79.733
840.98	98.000
841.15	75.250
841.32	68.150
841.49	73.043
841.66	90.164
841.83	62.667
842.00	90.823
842.17	82.740
842.34	72.493
842.52	88.623
842.69	90.566
842.86	75.087
843.03	114.151
843.20	111.837
843.37	98.252
843.54	84.959
843.71	83.265
843.88	107.616
844.06	106.073
844.23	135.266
844.40	108.333
844.57	114.894
844.74	98.253
844.91	109.722
845.08	111.373
845.25	90.876
845.42	109.548
845.59	147.368
845.76	119.091
845.94	172.785
846.11	121.891
846.28	168.966
846.45	122.699
846.62	128.649
846.79	146.667
846.96	107.692
847.13	121.176
847.30	111.111
847.47	139.011
847.64	109.302
847.81	141.209
847.98	122.162
848.15	108.065
848.32	126.289
848.50	152.795
848.67	143.056
848.84	139.394
849.01	127.891
849.18	124.737
849.35	127.749
849.52	109.249
849.69	102.312
849.86	150.920
850.03	142.466
850.20	163.194
850.37	131.429
850.54	146.541
850.71	175.610
850.88	159.441
851.05	141.096
851.22	162.112
851.39	137.629
851.56	106.944
851.73	116.111
851.90	131.875
852.07	148.824
852.24	150.735
852.41	155.474
852.58	153.788
852.75	134.320
852.92	111.957
853.09	157.542
853.26	139.490
853.43	110.455
853.60	113.918
853.77	117.021
853.94	131.061
854.11	146.154
854.28	123.936
854.45	143.357
854.62	141.611
854.79	146.923
854.96	160.145
855.13	146.667
855.30	120.725
855.47	161.379
855.64	169.369
855.81	153.968
855.98	140.667
856.15	140.690
856.32	112.676
856.49	107.763
856.66	143.605
856.83	113.089
857.00	164.754
857.17	142.500
857.34	152.273
857.51	114.744
857.68	170.714
857.85	146.667
858.02	264.865
858.19	139.286
858.36	136.000
858.53	150.857
858.70	123.179
858.87	175.172
859.04	154.930
859.21	103.478
859.38	143.709
859.55	197.222
859.72	180.165
859.89	216.667
860.05	168.217
860.22	161.184
860.39	172.897
860.56	192.661
860.73	139.759
860.90	151.333
861.07	149.180
861.24	147.009
861.41	174.286
861.58	104.926
861.75	202.778
861.92	124.409
862.09	131.928
862.26	219.149
862.43	157.895
862.59	117.436
862.76	151.701
862.93	160.870
863.10	131.034
863.27	107.027
863.44	114.474
863.61	138.235
863.78	145.775
863.95	170.229
864.12	134.028
864.29	142.636
864.45	220.548
864.62	148.872
864.79	127.703
864.96	142.857
865.13	156.489
865.30	196.364
865.47	182.407
865.64	114.375
865.81	105.556
865.97	107.104
866.14	113.810
866.31	178.862
866.48	148.837
866.65	137.000
866.82	161.074
866.99	176.699
867.16	251.429
867.33	177.778
867.49	148.905
867.66	125.728
867.83	136.800
868.00	126.950
868.17	168.182
868.34	141.781
868.51	130.282
868.67	175.207
868.84	144.218
869.01	203.150
869.18	142.636
869.35	183.333
869.52	128.767
869.69	148.092
869.85	113.369
870.02	157.009
870.19	188.235
870.36	135.374
870.53	105.682
870.70	123.256
870.86	101.887
871.03	185.714
871.20	120.530
871.37	115.311
871.54	128.276
871.71	122.840
871.87	138.356
872.04	122.581
872.21	233.333
872.38	114.110
872.55	154.225
872.72	109.302
872.88	127.219
873.05	119.780
873.22	129.762
873.39	120.122
873.56	135.838
873.72	161.194
873.89	163.043
874.06	155.921
874.23	179.661
874.40	134.266
874.56	200.000
874.73	119.565
874.90	135.028
875.07	144.444
875.24	99.422
875.40	134.194
875.57	120.115
875.74	102.667
875.91	149.587
876.08	118.182
876.24	136.364
876.41	136.628
876.58	137.888
876.75	123.810
876.92	154.867
877.08	144.643
877.25	122.152
877.42	104.444
877.59	132.867
877.75	167.785
877.92	143.200
878.09	147.368
878.26	161.039
878.42	139.855
878.59	175.000
878.76	114.744
878.93	123.392
879.09	111.702
879.26	105.405
879.43	125.294
879.60	95.062
879.76	133.987
879.93	111.392
880.10	101.235
880.27	88.532
880.43	113.659
880.60	82.648
880.77	84.416
880.94	73.455
881.10	82.937
881.27	64.800
881.44	54.503
881.61	66.594
881.77	59.524
881.94	40.948
882.11	40.596
882.28	48.750
882.44	47.665
882.61	46.537
882.78	47.125
882.94	53.637
883.11	45.928
883.28	43.828
883.45	48.188
883.61	47.206
883.78	42.111
883.95	48.699
884.11	48.276
884.28	49.169
>>>>>End Processed Spectral Data<<<<<
