SpectraSuite Data File
++++++++++++++++++++++++++++++++++++
Date: Sat Sep 21 02:49:34 EST 2019
User: sgrac
Dark Spectrum Present: Yes
Reference Spectrum Present: Yes
Number of Sampled Component Spectra: 1
Spectrometers: USB4E01596
Integration Time (usec): 100000 (USB4E01596)
Spectra Averaged: 1 (USB4E01596)
Boxcar Smoothing: 0 (USB4E01596)
Correct for Electrical Dark: No (USB4E01596)
Strobe/Lamp Enabled: Yes (USB4E01596)
Correct for Detector Non-linearity: No (USB4E01596)
Correct for Stray Light: No (USB4E01596)
Number of Pixels in Processed Spectrum: 3648
>>>>>Begin Processed Spectral Data<<<<<
178.44	-21.429
178.66	-21.429
178.87	-21.429
179.09	500.000
179.30	-223.077
179.52	0.000
179.74	-75.000
179.95	0.000
180.17	120.000
180.38	3500.000
180.60	0.000
180.82	91.667
181.03	-142.105
181.25	100.000
181.46	-61.290
181.68	170.833
181.89	1500.000
182.11	97.143
182.33	-37.778
182.54	25.000
182.76	-650.000
182.97	200.000
183.19	200.000
183.40	-110.345
183.62	88.889
183.84	-7.407
184.05	213.043
184.27	-175.000
184.48	142.857
184.70	110.000
184.91	-273.333
185.13	15.556
185.34	103.571
185.56	41.667
185.78	0.000
185.99	93.333
186.21	89.655
186.42	53.333
186.64	70.968
186.85	11.111
187.07	49.091
187.28	40.000
187.50	-66.667
187.72	320.000
187.93	1000.000
188.15	66.000
188.36	176.471
188.58	-1200.000
188.79	13.636
189.01	163.889
189.22	520.000
189.44	1850.000
189.65	26.667
189.87	187.500
190.09	-920.000
190.30	200.000
190.52	-1450.000
190.73	92.857
190.95	82.143
191.16	86.667
191.38	-60.000
191.59	21.429
191.81	77.778
192.02	42.553
192.24	147.059
192.45	-160.000
192.67	71.429
192.88	233.333
193.10	-28.000
193.31	260.000
193.53	-2600.000
193.74	97.561
193.96	191.667
194.18	61.290
194.39	277.778
194.61	178.947
194.82	71.429
195.04	-16.667
195.25	700.000
195.47	112.195
195.68	72.340
195.90	-500.000
196.11	74.545
196.33	42.553
196.54	-866.667
196.76	57.143
196.97	-1133.333
197.19	14.286
197.40	88.235
197.62	109.375
197.83	101.351
198.05	-89.474
198.26	122.857
198.48	125.000
198.69	97.674
198.91	135.294
199.12	88.571
199.34	180.000
199.55	-700.000
199.77	825.000
199.98	36.000
200.20	78.873
200.41	28.571
200.63	133.333
200.84	45.098
201.06	38.462
201.27	89.189
201.49	687.500
201.70	85.185
201.91	30.435
202.13	75.362
202.34	128.302
202.56	-57.143
202.77	-77.778
202.99	139.286
203.20	650.000
203.42	-87.500
203.63	106.977
203.85	68.571
204.06	85.185
204.28	-140.000
204.49	74.286
204.71	28.205
204.92	0.000
205.14	-221.429
205.35	-5.556
205.56	-240.000
205.78	66.667
205.99	440.000
206.21	12.903
206.42	283.871
206.64	-10.714
206.85	0.000
207.07	-30.769
207.28	328.571
207.50	-63.158
207.71	115.385
207.93	100.000
208.14	258.824
208.35	194.737
208.57	500.000
208.78	230.769
209.00	72.222
209.21	-900.000
209.43	34.483
209.64	244.118
209.86	-514.286
210.07	0.000
210.28	-305.882
210.50	46.939
210.71	54.386
210.93	200.000
211.14	33.333
211.36	-29.032
211.57	-47.619
211.78	221.739
212.00	0.000
212.21	39.535
212.43	-50.000
212.64	-18.966
212.86	150.000
213.07	-31.818
213.29	10.526
213.50	800.000
213.71	66.038
213.93	-185.714
214.14	21.212
214.36	-3700.000
214.57	123.077
214.78	-43.750
215.00	-250.000
215.21	119.444
215.43	4.000
215.64	107.692
215.86	-2.857
216.07	-3200.000
216.28	32.000
216.50	485.714
216.71	-840.000
216.93	97.872
217.14	65.625
217.35	96.296
217.57	114.286
217.78	450.000
218.00	120.000
218.21	0.000
218.42	-133.333
218.64	194.118
218.85	-22.222
219.07	171.429
219.28	550.000
219.49	40.789
219.71	633.333
219.92	130.556
220.14	125.000
220.35	-5.000
220.56	25.641
220.78	58.824
220.99	1700.000
221.21	257.143
221.42	-158.333
221.63	100.000
221.85	106.452
222.06	210.714
222.28	145.455
222.49	-1900.000
222.70	0.000
222.92	155.556
223.13	90.000
223.34	300.000
223.56	-10.526
223.77	16.854
223.99	79.487
224.20	-57.143
224.41	32.432
224.63	158.333
224.84	15.517
225.05	-25.000
225.27	61.429
225.48	15.217
225.69	-400.000
225.91	-3.704
226.12	100.000
226.34	41.176
226.55	-38.889
226.76	48.387
226.98	-6.000
227.19	-40.909
227.40	40.496
227.62	-4.878
227.83	-12.000
228.04	-8.791
228.26	22.772
228.47	17.241
228.69	18.421
228.90	12.676
229.11	40.000
229.33	7.246
229.54	-9.868
229.75	-0.435
229.97	3.004
230.18	0.000
230.39	-9.705
230.61	5.346
230.82	1.245
231.03	-25.726
231.25	11.111
231.46	6.934
231.67	13.834
231.89	16.471
232.10	-12.146
232.31	-11.058
232.53	-10.734
232.74	2.604
232.95	19.880
233.17	7.514
233.38	-25.373
233.59	-6.618
233.81	6.311
234.02	38.816
234.23	4.278
234.45	26.316
234.66	3.390
234.87	29.530
235.09	4.444
235.30	-1.724
235.51	18.932
235.73	-3.145
235.94	2.073
236.15	12.755
236.36	11.111
236.58	27.962
236.79	28.796
237.00	12.560
237.22	8.025
237.43	18.627
237.64	5.677
237.86	14.130
238.07	27.136
238.28	-2.732
238.50	9.565
238.71	0.592
238.92	-10.714
239.13	14.857
239.35	-17.483
239.56	14.063
239.77	16.585
239.99	-1.415
240.20	-12.105
240.41	12.931
240.63	3.239
240.84	7.171
241.05	-9.854
241.26	8.678
241.48	12.684
241.69	5.380
241.90	2.535
242.12	-2.806
242.33	4.310
242.54	1.706
242.75	2.657
242.97	3.448
243.18	4.545
243.39	8.631
243.61	-3.148
243.82	0.280
244.03	2.734
244.24	-2.147
244.46	1.333
244.67	-2.545
244.88	4.225
245.09	7.012
245.31	-9.405
245.52	12.500
245.73	1.946
245.95	-5.544
246.16	3.471
246.37	9.884
246.58	2.243
246.80	2.711
247.01	-6.335
247.22	4.026
247.43	0.449
247.65	3.233
247.86	-2.053
248.07	-1.003
248.28	2.133
248.50	1.627
248.71	0.000
248.92	1.164
249.13	2.784
249.35	1.953
249.56	3.414
249.77	1.975
249.98	2.677
250.20	-1.889
250.41	4.804
250.62	2.410
250.83	4.271
251.05	3.692
251.26	-0.181
251.47	0.000
251.68	2.194
251.90	8.152
252.11	3.484
252.32	1.686
252.53	4.376
252.75	-0.960
252.96	4.327
253.17	6.796
253.38	3.784
253.59	0.565
253.81	2.469
254.02	2.715
254.23	10.305
254.44	3.611
254.66	6.612
254.87	3.610
255.08	-3.663
255.29	7.430
255.50	0.430
255.72	10.780
255.93	9.489
256.14	5.909
256.35	-2.342
256.57	0.787
256.78	5.023
256.99	0.000
257.20	-0.728
257.41	5.383
257.63	7.566
257.84	5.394
258.05	0.417
258.26	-1.261
258.47	-0.716
258.69	-1.637
258.90	-0.776
259.11	-5.616
259.32	-1.762
259.53	-2.413
259.75	1.202
259.96	-2.149
260.17	-0.269
260.38	-0.809
260.59	-1.778
260.81	0.192
261.02	2.464
261.23	1.873
261.44	1.872
261.65	-1.151
261.87	-0.970
262.08	0.249
262.29	2.349
262.50	3.085
262.71	3.051
262.92	2.620
263.14	3.538
263.35	-2.207
263.56	-1.294
263.77	-0.695
263.98	6.481
264.20	5.181
264.41	-1.243
264.62	10.916
264.83	6.638
265.04	3.905
265.25	1.744
265.47	8.157
265.68	2.187
265.89	-0.499
266.10	-0.822
266.31	5.405
266.52	1.942
266.74	-5.479
266.95	-2.094
267.16	8.119
267.37	-2.375
267.58	-0.476
267.79	1.669
268.01	1.538
268.22	2.994
268.43	6.082
268.64	-0.524
268.85	0.000
269.06	-1.138
269.27	-1.289
269.49	1.559
269.70	3.143
269.91	1.494
270.12	0.990
270.33	5.163
270.54	1.343
270.75	-0.585
270.97	3.395
271.18	4.718
271.39	3.947
271.60	-0.507
271.81	2.639
272.02	3.309
272.23	3.509
272.45	2.419
272.66	1.247
272.87	-0.085
273.08	-2.461
273.29	1.728
273.50	2.483
273.71	2.280
273.92	1.381
274.14	-2.347
274.35	-0.810
274.56	2.469
274.77	-0.082
274.98	4.914
275.19	2.131
275.40	2.923
275.61	2.017
275.83	0.193
276.04	2.031
276.25	-0.294
276.46	4.213
276.67	-3.901
276.88	-1.551
277.09	-3.568
277.30	2.183
277.51	6.687
277.73	1.000
277.94	-1.677
278.15	-0.578
278.36	0.203
278.57	-3.484
278.78	4.200
278.99	4.098
279.20	-0.964
279.41	5.894
279.62	2.564
279.84	1.490
280.05	2.960
280.26	1.760
280.47	4.637
280.68	-4.367
280.89	5.769
281.10	3.165
281.31	0.570
281.52	6.810
281.73	2.193
281.94	1.909
282.16	2.260
282.37	4.149
282.58	1.904
282.79	2.519
283.00	5.013
283.21	-1.048
283.42	-0.616
283.63	0.389
283.84	2.366
284.05	1.767
284.26	1.943
284.47	2.656
284.68	1.527
284.89	0.000
285.11	2.151
285.32	2.110
285.53	-2.033
285.74	3.892
285.95	1.781
286.16	2.116
286.37	0.651
286.58	1.571
286.79	4.262
287.00	3.285
287.21	-3.025
287.42	1.598
287.63	0.177
287.84	0.943
288.05	-0.568
288.26	1.396
288.48	1.402
288.69	1.142
288.90	-0.803
289.11	0.852
289.32	-1.367
289.53	3.152
289.74	0.071
289.95	-0.812
290.16	2.422
290.37	0.704
290.58	0.722
290.79	1.954
291.00	1.424
291.21	-0.330
291.42	0.132
291.63	1.389
291.84	2.208
292.05	0.398
292.26	1.281
292.47	2.128
292.68	0.205
292.89	1.583
293.10	2.263
293.31	1.154
293.52	1.059
293.73	-2.972
293.94	4.415
294.15	1.456
294.36	-0.623
294.57	3.805
294.79	2.250
295.00	2.872
295.21	-0.934
295.42	3.271
295.63	1.642
295.84	-0.345
296.05	-0.210
296.26	1.035
296.47	1.252
296.68	2.467
296.89	0.182
297.10	1.967
297.31	-1.484
297.52	5.817
297.73	0.262
297.94	0.403
298.15	-1.080
298.36	1.527
298.57	2.212
298.78	1.812
298.99	-0.340
299.20	0.525
299.41	-0.311
299.62	3.719
299.83	0.209
300.04	2.645
300.25	1.149
300.46	2.398
300.67	0.661
300.88	-0.261
301.09	-0.954
301.30	2.106
301.50	3.629
301.71	3.424
301.92	0.000
302.13	1.855
302.34	1.330
302.55	0.886
302.76	1.994
302.97	3.094
303.18	-1.656
303.39	0.211
303.60	1.393
303.81	-0.143
304.02	3.749
304.23	0.489
304.44	0.000
304.65	-1.186
304.86	0.684
305.07	-0.720
305.28	3.003
305.49	-0.688
305.70	0.069
305.91	4.083
306.12	-2.158
306.33	0.208
306.54	1.247
306.75	3.589
306.96	4.022
307.17	1.221
307.38	-1.450
307.58	3.218
307.79	1.595
308.00	3.771
308.21	5.710
308.42	1.567
308.63	5.878
308.84	2.177
309.05	1.486
309.26	2.837
309.47	0.279
309.68	-0.986
309.89	3.401
310.10	2.120
310.31	2.430
310.52	-0.182
310.73	2.688
310.94	2.753
311.14	2.082
311.35	0.291
311.56	-0.616
311.77	-0.570
311.98	2.024
312.19	0.598
312.40	0.979
312.61	0.919
312.82	0.430
313.03	0.384
313.24	2.266
313.45	1.188
313.66	2.500
313.86	2.874
314.07	1.304
314.28	-1.634
314.49	2.341
314.70	2.039
314.91	3.622
315.12	2.249
315.33	-0.354
315.54	1.099
315.75	1.341
315.96	0.212
316.16	1.655
316.37	2.877
316.58	0.602
316.79	1.249
317.00	1.724
317.21	1.642
317.42	-0.696
317.63	3.564
317.84	5.252
318.05	0.840
318.25	3.343
318.46	2.134
318.67	-0.516
318.88	1.950
319.09	1.618
319.30	2.151
319.51	0.223
319.72	6.071
319.93	2.592
320.13	4.385
320.34	2.837
320.55	2.145
320.76	1.742
320.97	2.931
321.18	1.162
321.39	2.363
321.60	3.254
321.80	3.962
322.01	-1.033
322.22	0.857
322.43	-1.027
322.64	0.612
322.85	2.763
323.06	0.788
323.27	4.591
323.47	0.313
323.68	2.253
323.89	2.547
324.10	2.780
324.31	5.540
324.52	2.238
324.73	2.273
324.93	1.667
325.14	1.663
325.35	2.995
325.56	2.142
325.77	1.596
325.98	1.611
326.19	3.160
326.39	0.810
326.60	0.566
326.81	0.750
327.02	2.494
327.23	0.121
327.44	4.894
327.64	2.959
327.85	0.254
328.06	3.314
328.27	2.760
328.48	1.041
328.69	-0.940
328.90	3.510
329.10	5.309
329.31	-0.695
329.52	4.223
329.73	6.283
329.94	-0.485
330.15	2.603
330.35	3.693
330.56	3.221
330.77	1.572
330.98	4.835
331.19	4.090
331.39	4.980
331.60	0.416
331.81	5.149
332.02	6.693
332.23	2.140
332.44	0.792
332.64	0.214
332.85	5.344
333.06	4.635
333.27	0.980
333.48	3.046
333.68	3.704
333.89	-1.188
334.10	1.121
334.31	4.175
334.52	4.800
334.72	2.424
334.93	0.426
335.14	1.582
335.35	2.038
335.56	1.862
335.76	1.449
335.97	4.268
336.18	3.090
336.39	1.971
336.60	3.480
336.80	2.861
337.01	2.224
337.22	1.773
337.43	2.914
337.64	1.850
337.84	0.672
338.05	0.823
338.26	4.460
338.47	4.100
338.68	1.270
338.88	1.845
339.09	4.611
339.30	2.053
339.51	1.237
339.71	3.828
339.92	1.384
340.13	4.300
340.34	2.651
340.55	4.062
340.75	1.864
340.96	1.752
341.17	2.377
341.38	2.117
341.58	-0.291
341.79	2.477
342.00	1.465
342.21	3.920
342.41	1.320
342.62	1.938
342.83	4.353
343.04	0.685
343.24	4.315
343.45	2.011
343.66	2.018
343.87	6.778
344.07	3.271
344.28	3.402
344.49	5.762
344.70	6.347
344.90	0.162
345.11	3.267
345.32	4.548
345.53	1.066
345.73	4.669
345.94	4.713
346.15	5.396
346.36	3.951
346.56	5.580
346.77	7.171
346.98	5.173
347.19	5.671
347.39	5.153
347.60	4.205
347.81	7.175
348.02	4.288
348.22	3.815
348.43	5.136
348.64	3.943
348.84	4.727
349.05	3.450
349.26	8.444
349.47	4.767
349.67	2.387
349.88	6.845
350.09	5.042
350.30	7.735
350.50	6.192
350.71	6.663
350.92	5.973
351.12	6.843
351.33	7.009
351.54	7.838
351.74	8.105
351.95	5.994
352.16	8.808
352.37	6.997
352.57	4.651
352.78	4.044
352.99	8.987
353.19	5.065
353.40	9.963
353.61	11.320
353.82	8.399
354.02	8.320
354.23	8.245
354.44	9.521
354.64	8.903
354.85	8.142
355.06	8.853
355.26	5.837
355.47	7.761
355.68	9.481
355.88	14.479
356.09	9.780
356.30	9.356
356.51	10.285
356.71	10.375
356.92	7.163
357.13	10.359
357.33	13.655
357.54	8.311
357.75	8.570
357.95	12.685
358.16	7.995
358.37	13.961
358.57	9.035
358.78	16.351
358.99	8.906
359.19	9.792
359.40	11.826
359.61	11.671
359.81	13.194
360.02	15.328
360.23	8.239
360.43	10.652
360.64	10.175
360.85	11.197
361.05	8.533
361.26	14.776
361.47	10.069
361.67	16.774
361.88	6.965
362.09	16.432
362.29	9.815
362.50	9.183
362.70	8.100
362.91	13.717
363.12	10.525
363.32	12.372
363.53	12.026
363.74	14.886
363.94	8.408
364.15	15.674
364.36	10.823
364.56	10.288
364.77	12.930
364.98	14.642
365.18	12.077
365.39	12.458
365.59	10.292
365.80	11.883
366.01	11.619
366.21	9.256
366.42	7.010
366.63	11.680
366.83	8.814
367.04	5.706
367.24	14.590
367.45	9.478
367.66	6.130
367.86	11.754
368.07	7.934
368.28	9.784
368.48	9.537
368.69	7.612
368.89	9.323
369.10	9.428
369.31	8.346
369.51	8.826
369.72	10.719
369.92	13.561
370.13	7.404
370.34	10.205
370.54	3.617
370.75	13.051
370.95	9.033
371.16	11.494
371.37	8.699
371.57	9.303
371.78	8.398
371.98	10.417
372.19	9.276
372.40	11.627
372.60	10.365
372.81	10.302
373.01	5.836
373.22	7.247
373.43	9.458
373.63	13.079
373.84	9.417
374.04	8.979
374.25	7.771
374.46	8.490
374.66	8.385
374.87	10.011
375.07	5.514
375.28	9.327
375.48	7.523
375.69	12.000
375.90	5.464
376.10	6.289
376.31	7.604
376.51	6.821
376.72	6.901
376.92	5.105
377.13	10.463
377.34	11.856
377.54	8.611
377.75	11.178
377.95	9.194
378.16	12.121
378.36	9.357
378.57	11.025
378.77	8.080
378.98	10.351
379.19	9.320
379.39	7.278
379.60	8.068
379.80	9.328
380.01	9.761
380.21	6.947
380.42	8.035
380.62	9.567
380.83	8.749
381.04	7.285
381.24	7.258
381.45	7.441
381.65	5.738
381.86	8.488
382.06	8.222
382.27	4.680
382.47	6.030
382.68	10.723
382.88	3.854
383.09	5.543
383.29	6.807
383.50	10.436
383.71	7.178
383.91	8.524
384.12	4.067
384.32	7.515
384.53	4.802
384.73	4.380
384.94	5.409
385.14	7.603
385.35	7.203
385.55	7.647
385.76	6.617
385.96	7.759
386.17	6.988
386.37	9.271
386.58	6.188
386.78	9.377
386.99	4.485
387.19	7.815
387.40	5.469
387.60	10.529
387.81	6.479
388.01	8.362
388.22	7.741
388.42	9.909
388.63	7.624
388.83	9.401
389.04	4.244
389.24	6.998
389.45	5.196
389.65	6.534
389.86	6.166
390.06	6.688
390.27	6.270
390.47	5.812
390.68	6.323
390.88	8.866
391.09	6.813
391.29	7.234
391.50	7.028
391.70	8.481
391.91	5.689
392.11	6.578
392.32	7.689
392.52	9.535
392.73	6.871
392.93	6.908
393.14	5.784
393.34	7.354
393.55	6.845
393.75	6.719
393.95	6.221
394.16	8.481
394.36	9.425
394.57	10.231
394.77	7.467
394.98	6.678
395.18	6.904
395.39	8.618
395.59	7.308
395.80	6.159
396.00	7.278
396.21	7.313
396.41	5.811
396.61	8.220
396.82	6.976
397.02	9.796
397.23	7.490
397.43	6.325
397.64	3.937
397.84	7.578
398.05	3.441
398.25	8.145
398.45	6.169
398.66	9.727
398.86	6.392
399.07	9.726
399.27	6.633
399.48	8.141
399.68	4.288
399.89	6.942
400.09	7.145
400.29	6.219
400.50	6.736
400.70	7.176
400.91	4.741
401.11	5.661
401.32	6.490
401.52	4.380
401.72	5.708
401.93	8.161
402.13	5.647
402.34	5.835
402.54	4.773
402.75	8.956
402.95	4.032
403.15	8.727
403.36	4.960
403.56	6.861
403.77	5.694
403.97	5.659
404.17	4.576
404.38	7.058
404.58	5.034
404.79	6.283
404.99	6.640
405.19	6.286
405.40	5.827
405.60	7.137
405.81	6.293
406.01	5.222
406.21	4.762
406.42	5.416
406.62	6.063
406.83	6.912
407.03	7.445
407.23	5.607
407.44	4.819
407.64	7.060
407.85	7.335
408.05	5.979
408.25	4.776
408.46	7.291
408.66	6.873
408.87	4.492
409.07	4.825
409.27	4.159
409.48	6.014
409.68	6.371
409.88	3.782
410.09	6.796
410.29	5.941
410.50	7.869
410.70	2.563
410.90	5.319
411.11	3.890
411.31	5.452
411.51	7.551
411.72	7.954
411.92	4.058
412.12	5.476
412.33	4.525
412.53	4.753
412.74	2.521
412.94	4.339
413.14	4.066
413.35	5.758
413.55	4.344
413.75	6.866
413.96	4.598
414.16	4.738
414.36	5.937
414.57	5.820
414.77	4.987
414.97	5.443
415.18	4.758
415.38	5.885
415.58	5.242
415.79	4.486
415.99	4.760
416.19	6.326
416.40	4.449
416.60	5.294
416.80	4.637
417.01	5.719
417.21	3.932
417.41	7.244
417.62	6.084
417.82	6.917
418.02	4.582
418.23	6.675
418.43	6.305
418.63	6.962
418.84	7.760
419.04	6.268
419.24	7.762
419.45	8.110
419.65	7.945
419.85	8.121
420.06	7.609
420.26	8.296
420.46	7.876
420.67	9.230
420.87	8.762
421.07	9.472
421.28	8.235
421.48	10.002
421.68	8.660
421.88	9.711
422.09	9.016
422.29	9.138
422.49	7.539
422.70	9.684
422.90	7.988
423.10	8.964
423.31	8.575
423.51	9.488
423.71	7.683
423.91	9.662
424.12	8.955
424.32	9.145
424.52	8.202
424.73	9.568
424.93	8.913
425.13	8.745
425.33	7.472
425.54	10.024
425.74	8.878
425.94	9.571
426.15	8.801
426.35	8.467
426.55	8.534
426.75	9.337
426.96	7.927
427.16	8.078
427.36	6.985
427.57	8.864
427.77	6.805
427.97	7.325
428.17	8.576
428.38	8.244
428.58	4.406
428.78	6.488
428.98	5.312
429.19	6.350
429.39	4.191
429.59	7.293
429.79	4.319
430.00	4.145
430.20	4.004
430.40	5.967
430.60	5.700
430.81	6.085
431.01	4.538
431.21	5.755
431.41	4.808
431.62	6.554
431.82	5.746
432.02	7.096
432.22	4.942
432.43	4.763
432.63	4.530
432.83	7.459
433.03	6.541
433.24	6.704
433.44	5.193
433.64	7.603
433.84	5.693
434.05	7.849
434.25	7.001
434.45	7.534
434.65	8.297
434.85	8.509
435.06	7.680
435.26	7.598
435.46	6.744
435.66	7.177
435.87	6.831
436.07	7.705
436.27	6.512
436.47	6.036
436.67	5.517
436.88	7.196
437.08	6.548
437.28	6.423
437.48	6.561
437.69	7.930
437.89	6.564
438.09	8.322
438.29	5.815
438.49	7.794
438.70	6.835
438.90	6.933
439.10	5.721
439.30	8.450
439.50	6.316
439.71	8.561
439.91	6.911
440.11	8.874
440.31	8.956
440.51	7.555
440.72	7.489
440.92	9.148
441.12	8.648
441.32	9.915
441.52	8.406
441.72	9.208
441.93	8.224
442.13	10.089
442.33	7.845
442.53	8.886
442.73	7.667
442.94	8.916
443.14	7.320
443.34	10.163
443.54	8.183
443.74	8.871
443.94	7.348
444.15	7.738
444.35	6.377
444.55	9.441
444.75	7.556
444.95	8.606
445.15	7.683
445.36	8.227
445.56	6.872
445.76	9.478
445.96	7.715
446.16	8.347
446.36	7.348
446.57	9.844
446.77	7.977
446.97	9.436
447.17	9.655
447.37	9.929
447.57	9.056
447.77	9.697
447.98	8.996
448.18	10.135
448.38	8.746
448.58	10.095
448.78	8.359
448.98	9.097
449.18	8.488
449.39	8.106
449.59	7.583
449.79	8.004
449.99	7.280
450.19	8.853
450.39	7.999
450.59	8.541
450.79	7.266
451.00	8.208
451.20	7.796
451.40	7.907
451.60	5.524
451.80	7.657
452.00	6.176
452.20	7.810
452.40	6.517
452.61	7.010
452.81	6.938
453.01	8.886
453.21	6.148
453.41	7.502
453.61	7.423
453.81	7.329
454.01	7.154
454.21	8.008
454.42	7.758
454.62	7.997
454.82	6.369
455.02	6.142
455.22	5.512
455.42	6.136
455.62	5.629
455.82	7.100
456.02	6.197
456.23	7.179
456.43	7.070
456.63	7.284
456.83	5.127
457.03	7.922
457.23	6.670
457.43	7.541
457.63	5.944
457.83	7.208
458.03	5.790
458.23	7.445
458.43	5.387
458.64	7.792
458.84	6.985
459.04	7.645
459.24	6.532
459.44	8.327
459.64	8.087
459.84	9.060
460.04	8.754
460.24	8.827
460.44	8.349
460.64	9.665
460.84	8.029
461.04	9.803
461.24	9.522
461.45	10.134
461.65	9.304
461.85	9.607
462.05	8.824
462.25	9.926
462.45	8.945
462.65	8.814
462.85	6.442
463.05	8.366
463.25	6.013
463.45	8.601
463.65	6.473
463.85	7.845
464.05	5.600
464.25	6.784
464.45	7.612
464.65	7.176
464.85	5.418
465.05	7.808
465.26	6.733
465.46	7.740
465.66	6.824
465.86	7.001
466.06	7.477
466.26	8.810
466.46	5.210
466.66	7.250
466.86	7.087
467.06	7.783
467.26	7.231
467.46	8.078
467.66	7.205
467.86	8.315
468.06	7.404
468.26	7.632
468.46	7.679
468.66	7.205
468.86	5.481
469.06	8.042
469.26	5.881
469.46	7.484
469.66	5.306
469.86	8.598
470.06	6.315
470.26	7.771
470.46	5.695
470.66	8.027
470.86	5.654
471.06	7.415
471.26	5.295
471.46	5.944
471.66	7.196
471.86	7.095
472.06	6.823
472.26	8.520
472.46	8.314
472.66	7.921
472.86	6.207
473.06	8.023
473.26	6.197
473.46	7.509
473.66	6.157
473.86	7.683
474.06	7.084
474.26	7.589
474.46	6.213
474.66	7.595
474.86	7.266
475.06	7.941
475.26	5.085
475.46	7.672
475.66	6.017
475.86	6.670
476.06	7.854
476.26	8.976
476.46	6.088
476.66	8.045
476.86	5.630
477.06	7.804
477.26	5.939
477.46	7.625
477.65	7.069
477.85	8.493
478.05	6.299
478.25	9.846
478.45	6.827
478.65	8.182
478.85	7.195
479.05	9.139
479.25	7.822
479.45	9.277
479.65	6.726
479.85	8.032
480.05	7.563
480.25	8.934
480.45	7.087
480.65	9.172
480.85	7.061
481.05	9.254
481.25	8.870
481.44	8.971
481.64	7.411
481.84	9.566
482.04	8.637
482.24	10.028
482.44	8.565
482.64	9.631
482.84	9.922
483.04	10.396
483.24	9.788
483.44	10.600
483.64	9.862
483.84	10.704
484.04	10.656
484.23	10.532
484.43	10.725
484.63	10.785
484.83	11.054
485.03	10.719
485.23	10.848
485.43	10.665
485.63	10.934
485.83	10.798
486.03	10.654
486.23	10.923
486.42	10.710
486.62	10.513
486.82	10.691
487.02	10.560
487.22	10.839
487.42	10.860
487.62	10.507
487.82	10.804
488.02	10.292
488.22	10.660
488.41	10.978
488.61	10.716
488.81	10.736
489.01	11.004
489.21	10.606
489.41	10.472
489.61	10.685
489.81	10.780
490.01	10.500
490.20	10.866
490.40	10.625
490.60	10.479
490.80	10.340
491.00	10.407
491.20	10.743
491.40	10.715
491.60	10.155
491.79	10.514
491.99	10.444
492.19	10.560
492.39	10.610
492.59	10.419
492.79	10.514
492.99	10.330
493.19	10.462
493.38	10.488
493.58	10.609
493.78	11.106
493.98	10.532
494.18	11.002
494.38	10.372
494.58	10.755
494.77	8.639
494.97	9.901
495.17	8.972
495.37	10.574
495.57	9.309
495.77	9.356
495.96	9.018
496.16	9.685
496.36	9.264
496.56	10.385
496.76	8.730
496.96	9.763
497.15	9.426
497.35	10.475
497.55	8.800
497.75	10.375
497.95	8.986
498.15	10.038
498.34	9.807
498.54	10.126
498.74	10.132
498.94	10.014
499.14	9.459
499.34	10.325
499.53	9.401
499.73	10.552
499.93	9.482
500.13	10.291
500.33	8.673
500.52	9.208
500.72	8.471
500.92	9.753
501.12	8.341
501.32	9.005
501.52	9.820
501.71	9.615
501.91	7.783
502.11	9.385
502.31	8.195
502.51	9.814
502.70	7.447
502.90	9.007
503.10	8.198
503.30	9.329
503.50	9.086
503.69	8.877
503.89	8.917
504.09	9.502
504.29	8.971
504.48	10.214
504.68	9.402
504.88	10.393
505.08	7.942
505.28	10.117
505.47	8.793
505.67	10.415
505.87	8.898
506.07	9.803
506.27	7.910
506.46	10.214
506.66	8.972
506.86	9.570
507.06	9.218
507.25	9.706
507.45	8.918
507.65	10.468
507.85	8.671
508.04	10.340
508.24	9.789
508.44	9.320
508.64	9.271
508.83	10.174
509.03	9.511
509.23	10.566
509.43	9.683
509.63	9.949
509.82	9.072
510.02	10.716
510.22	9.006
510.42	10.782
510.61	9.689
510.81	10.422
511.01	10.043
511.21	10.049
511.40	10.012
511.60	9.934
511.80	9.891
511.99	10.980
512.19	9.928
512.39	10.511
512.59	9.213
512.78	11.243
512.98	11.311
513.18	10.124
513.38	9.219
513.57	10.877
513.77	9.970
513.97	10.460
514.17	9.702
514.36	10.565
514.56	10.558
514.76	10.601
514.95	9.254
515.15	10.742
515.35	8.261
515.55	10.460
515.74	9.843
515.94	11.346
516.14	9.054
516.33	10.075
516.53	9.771
516.73	10.885
516.93	9.503
517.12	10.870
517.32	8.654
517.52	10.798
517.71	9.600
517.91	10.432
518.11	10.490
518.30	11.243
518.50	9.583
518.70	11.033
518.90	10.843
519.09	10.899
519.29	11.273
519.49	11.474
519.68	10.875
519.88	11.372
520.08	11.039
520.27	10.770
520.47	11.146
520.67	11.188
520.86	12.082
521.06	11.695
521.26	9.897
521.45	11.107
521.65	10.773
521.85	10.510
522.04	9.879
522.24	11.461
522.44	9.601
522.63	11.251
522.83	9.425
523.03	11.479
523.22	9.986
523.42	10.636
523.62	10.100
523.81	11.136
524.01	10.534
524.21	10.732
524.40	9.940
524.60	10.938
524.80	9.766
524.99	10.509
525.19	10.446
525.39	11.592
525.58	10.783
525.78	10.866
525.98	10.904
526.17	11.654
526.37	12.047
526.57	11.193
526.76	11.810
526.96	11.547
527.15	10.819
527.35	11.258
527.55	11.469
527.74	11.855
527.94	11.507
528.14	12.093
528.33	11.485
528.53	11.449
528.72	11.315
528.92	12.007
529.12	11.814
529.31	11.786
529.51	12.075
529.71	11.856
529.90	11.884
530.10	11.907
530.29	12.294
530.49	11.799
530.69	11.838
530.88	12.258
531.08	12.050
531.28	11.988
531.47	12.188
531.67	12.050
531.86	12.099
532.06	12.014
532.26	11.723
532.45	11.886
532.65	11.690
532.84	11.807
533.04	11.810
533.24	11.492
533.43	11.648
533.63	11.977
533.82	11.751
534.02	11.847
534.22	12.022
534.41	11.633
534.61	12.006
534.80	11.804
535.00	11.956
535.19	12.358
535.39	11.884
535.59	12.045
535.78	11.812
535.98	12.278
536.17	11.759
536.37	12.167
536.57	11.600
536.76	11.984
536.96	11.429
537.15	11.967
537.35	12.041
537.54	12.291
537.74	11.658
537.93	12.132
538.13	12.041
538.33	12.481
538.52	11.881
538.72	11.953
538.91	11.240
539.11	12.013
539.30	10.750
539.50	12.500
539.70	10.957
539.89	12.398
540.09	11.386
540.28	11.852
540.48	10.942
540.67	11.832
540.87	11.858
541.06	12.822
541.26	12.273
541.45	12.318
541.65	12.336
541.85	12.526
542.04	12.182
542.24	12.192
542.43	12.650
542.63	12.754
542.82	12.335
543.02	12.672
543.21	12.929
543.41	12.562
543.60	12.820
543.80	12.663
543.99	12.262
544.19	12.548
544.38	12.547
544.58	12.663
544.77	12.787
544.97	12.881
545.16	12.276
545.36	12.423
545.56	12.456
545.75	12.417
545.95	11.806
546.14	12.728
546.34	12.610
546.53	12.619
546.73	12.680
546.92	12.602
547.12	12.258
547.31	12.171
547.51	11.981
547.70	13.194
547.90	11.868
548.09	12.481
548.29	12.115
548.48	13.006
548.68	12.259
548.87	12.640
549.07	12.261
549.26	11.898
549.46	11.658
549.65	12.774
549.84	10.864
550.04	11.932
550.23	10.376
550.43	11.377
550.62	11.366
550.82	10.911
551.01	10.511
551.21	12.195
551.40	10.734
551.60	11.836
551.79	11.643
551.99	12.225
552.18	10.473
552.38	11.779
552.57	10.962
552.77	12.135
552.96	11.328
553.16	12.891
553.35	11.021
553.54	12.798
553.74	12.048
553.93	12.997
554.13	12.298
554.32	13.081
554.52	11.709
554.71	13.189
554.91	11.253
555.10	12.798
555.29	11.239
555.49	13.035
555.68	11.656
555.88	12.911
556.07	10.421
556.27	12.951
556.46	12.233
556.66	11.557
556.85	13.574
557.04	13.180
557.24	11.034
557.43	12.489
557.63	11.602
557.82	13.512
558.02	11.890
558.21	14.508
558.40	10.613
558.60	12.680
558.79	11.032
558.99	13.354
559.18	11.518
559.38	13.625
559.57	11.367
559.76	13.349
559.96	12.838
560.15	13.449
560.35	12.002
560.54	12.603
560.73	11.426
560.93	12.634
561.12	12.028
561.32	13.768
561.51	11.996
561.70	13.745
561.90	11.802
562.09	14.712
562.29	12.640
562.48	14.418
562.67	12.615
562.87	13.777
563.06	12.772
563.26	13.797
563.45	12.380
563.64	14.084
563.84	12.171
564.03	14.824
564.23	13.813
564.42	14.435
564.61	12.682
564.81	14.211
565.00	13.905
565.20	15.943
565.39	13.378
565.58	15.105
565.78	13.705
565.97	15.097
566.16	15.228
566.36	16.364
566.55	14.519
566.74	15.599
566.94	13.870
567.13	15.650
567.33	15.007
567.52	15.677
567.71	15.801
567.91	15.530
568.10	15.736
568.29	15.778
568.49	15.208
568.68	15.125
568.87	13.990
569.07	15.436
569.26	15.295
569.45	15.947
569.65	14.918
569.84	15.915
570.04	15.243
570.23	15.529
570.42	14.394
570.62	16.062
570.81	15.024
571.00	16.474
571.20	15.480
571.39	16.834
571.58	15.011
571.78	17.418
571.97	15.769
572.16	16.921
572.36	15.478
572.55	16.665
572.74	16.556
572.94	16.392
573.13	16.997
573.32	16.990
573.51	15.862
573.71	17.213
573.90	16.091
574.09	16.935
574.29	16.270
574.48	16.938
574.67	16.328
574.87	16.236
575.06	16.344
575.25	16.824
575.45	16.130
575.64	16.526
575.83	15.988
576.03	17.416
576.22	15.542
576.41	17.199
576.60	15.711
576.80	16.986
576.99	16.336
577.18	17.886
577.38	15.894
577.57	16.870
577.76	16.474
577.95	16.084
578.15	14.946
578.34	17.190
578.53	15.825
578.73	16.977
578.92	15.372
579.11	16.007
579.30	15.811
579.50	16.239
579.69	16.575
579.88	15.653
580.08	13.254
580.27	15.875
580.46	15.237
580.65	15.701
580.85	15.241
581.04	15.284
581.23	14.661
581.42	14.581
581.62	14.438
581.81	16.583
582.00	14.894
582.19	15.020
582.39	15.394
582.58	14.873
582.77	14.385
582.96	15.544
583.16	14.010
583.35	16.538
583.54	14.223
583.73	14.584
583.93	14.879
584.12	15.686
584.31	13.743
584.50	15.073
584.70	14.446
584.89	15.517
585.08	13.244
585.27	16.145
585.47	12.887
585.66	15.016
585.85	13.370
586.04	14.246
586.24	13.765
586.43	14.716
586.62	13.112
586.81	15.765
587.00	11.645
587.20	14.964
587.39	12.751
587.58	15.968
587.77	13.886
587.97	14.338
588.16	13.904
588.35	15.119
588.54	14.204
588.73	15.279
588.93	15.455
589.12	15.516
589.31	14.523
589.50	14.875
589.69	14.629
589.89	15.449
590.08	14.978
590.27	15.448
590.46	14.418
590.65	14.799
590.85	13.560
591.04	15.858
591.23	14.676
591.42	15.656
591.61	14.494
591.81	15.479
592.00	13.682
592.19	15.959
592.38	13.067
592.57	15.899
592.77	15.014
592.96	14.562
593.15	15.632
593.34	15.470
593.53	13.786
593.72	15.018
593.92	14.124
594.11	17.217
594.30	14.642
594.49	15.347
594.68	15.124
594.87	15.814
595.07	13.829
595.26	15.671
595.45	13.944
595.64	16.555
595.83	13.930
596.02	15.419
596.22	13.970
596.41	16.775
596.60	15.307
596.79	16.350
596.98	15.576
597.17	16.757
597.37	15.729
597.56	17.503
597.75	15.169
597.94	16.651
598.13	16.590
598.32	17.030
598.51	15.280
598.71	17.844
598.90	15.980
599.09	17.441
599.28	15.303
599.47	17.547
599.66	15.147
599.85	16.771
600.05	14.174
600.24	16.516
600.43	13.106
600.62	15.988
600.81	14.684
601.00	16.376
601.19	13.179
601.38	15.747
601.58	14.630
601.77	15.019
601.96	13.728
602.15	15.711
602.34	14.667
602.53	16.400
602.72	13.560
602.91	16.701
603.10	15.152
603.30	16.393
603.49	14.462
603.68	17.383
603.87	15.289
604.06	17.103
604.25	16.977
604.44	17.472
604.63	15.923
604.82	17.311
605.01	17.504
605.21	17.266
605.40	17.300
605.59	17.771
605.78	16.281
605.97	18.308
606.16	17.393
606.35	17.200
606.54	16.474
606.73	17.989
606.92	15.294
607.11	16.969
607.30	15.264
607.50	17.270
607.69	15.004
607.88	17.322
608.07	13.621
608.26	15.424
608.45	15.701
608.64	17.419
608.83	14.412
609.02	15.970
609.21	16.121
609.40	16.928
609.59	16.196
609.78	16.585
609.97	15.640
610.16	17.959
610.35	16.260
610.55	17.230
610.74	16.567
610.93	17.697
611.12	17.048
611.31	16.772
611.50	15.616
611.69	15.858
611.88	15.022
612.07	16.503
612.26	13.509
612.45	14.426
612.64	13.818
612.83	16.047
613.02	14.142
613.21	15.099
613.40	12.608
613.59	14.738
613.78	10.491
613.97	15.349
614.16	14.652
614.35	14.120
614.54	11.136
614.73	13.728
614.92	12.382
615.11	12.892
615.30	12.375
615.49	12.390
615.68	11.713
615.87	12.943
616.07	11.103
616.26	13.884
616.45	10.865
616.64	12.529
616.83	12.362
617.02	14.910
617.21	10.962
617.40	13.812
617.59	12.257
617.78	13.875
617.97	12.179
618.16	13.287
618.35	9.953
618.54	12.206
618.73	10.889
618.92	11.526
619.11	11.185
619.30	13.709
619.49	10.631
619.68	12.449
619.86	11.070
620.05	12.418
620.24	11.058
620.43	11.481
620.62	8.091
620.81	11.580
621.00	11.227
621.19	13.877
621.38	11.194
621.57	13.989
621.76	10.960
621.95	14.068
622.14	12.183
622.33	14.178
622.52	11.282
622.71	13.158
622.90	11.256
623.09	13.338
623.28	10.883
623.47	13.338
623.66	11.114
623.85	11.536
624.04	11.346
624.23	12.011
624.42	11.533
624.61	10.284
624.80	9.112
624.99	12.312
625.18	10.363
625.36	11.440
625.55	13.408
625.74	12.110
625.93	10.517
626.12	12.791
626.31	12.176
626.50	13.134
626.69	12.462
626.88	15.943
627.07	12.762
627.26	12.909
627.45	12.439
627.64	14.887
627.83	12.847
628.02	13.718
628.20	11.760
628.39	14.775
628.58	13.832
628.77	13.751
628.96	11.779
629.15	13.476
629.34	13.441
629.53	12.429
629.72	10.275
629.91	15.410
630.10	12.034
630.29	12.004
630.47	9.759
630.66	11.672
630.85	11.398
631.04	13.459
631.23	11.188
631.42	13.731
631.61	9.925
631.80	14.374
631.99	10.509
632.18	11.189
632.36	10.549
632.55	13.203
632.74	10.137
632.93	11.281
633.12	11.898
633.31	12.241
633.50	10.706
633.69	11.903
633.88	9.577
634.06	13.547
634.25	11.283
634.44	12.413
634.63	11.272
634.82	13.848
635.01	10.392
635.20	13.101
635.39	9.787
635.57	12.881
635.76	11.205
635.95	11.680
636.14	9.606
636.33	13.922
636.52	9.332
636.71	11.085
636.89	9.668
637.08	12.861
637.27	8.549
637.46	10.843
637.65	9.828
637.84	11.457
638.03	9.391
638.21	12.096
638.40	11.262
638.59	9.937
638.78	8.864
638.97	11.694
639.16	11.788
639.34	10.738
639.53	7.296
639.72	11.686
639.91	10.158
640.10	8.504
640.29	9.751
640.47	13.017
640.66	10.596
640.85	12.739
641.04	8.993
641.23	10.830
641.42	8.688
641.60	9.264
641.79	9.348
641.98	8.847
642.17	8.929
642.36	13.401
642.54	7.099
642.73	8.598
642.92	7.279
643.11	8.326
643.30	8.297
643.49	9.689
643.67	5.576
643.86	9.397
644.05	6.729
644.24	10.038
644.43	9.064
644.61	11.265
644.80	6.190
644.99	7.277
645.18	11.465
645.37	9.871
645.55	7.389
645.74	8.481
645.93	9.189
646.12	9.080
646.31	8.491
646.49	9.971
646.68	8.605
646.87	8.808
647.06	6.961
647.24	9.783
647.43	5.891
647.62	11.475
647.81	7.182
648.00	10.887
648.18	5.715
648.37	10.070
648.56	7.741
648.75	9.167
648.93	8.667
649.12	9.394
649.31	8.102
649.50	8.668
649.68	7.776
649.87	8.306
650.06	5.292
650.25	8.994
650.43	5.726
650.62	9.885
650.81	8.103
651.00	8.307
651.18	7.498
651.37	10.195
651.56	8.114
651.75	10.664
651.93	7.866
652.12	9.094
652.31	7.218
652.50	8.717
652.68	8.420
652.87	9.584
653.06	10.108
653.25	11.482
653.43	9.217
653.62	9.234
653.81	7.239
654.00	10.320
654.18	7.036
654.37	10.098
654.56	8.232
654.74	8.338
654.93	7.450
655.12	8.569
655.31	8.088
655.49	8.344
655.68	7.432
655.87	8.430
656.05	6.367
656.24	8.891
656.43	4.362
656.62	8.320
656.80	6.126
656.99	5.981
657.18	3.477
657.36	8.277
657.55	7.833
657.74	6.496
657.93	9.417
658.11	10.862
658.30	7.804
658.49	5.496
658.67	8.594
658.86	6.385
659.05	6.659
659.23	9.592
659.42	7.276
659.61	10.306
659.79	7.117
659.98	10.038
660.17	8.331
660.35	9.960
660.54	7.649
660.73	11.883
660.91	9.723
661.10	10.174
661.29	6.517
661.47	8.927
661.66	7.839
661.85	8.719
662.03	7.850
662.22	4.189
662.41	4.515
662.59	8.041
662.78	5.019
662.97	6.606
663.15	5.609
663.34	5.007
663.53	2.915
663.71	6.826
663.90	5.648
664.09	7.530
664.27	4.036
664.46	5.544
664.65	3.407
664.83	3.424
665.02	4.577
665.21	2.746
665.39	3.225
665.58	5.256
665.77	3.400
665.95	3.335
666.14	0.939
666.32	4.103
666.51	3.373
666.70	3.323
666.88	4.281
667.07	3.997
667.26	3.362
667.44	2.251
667.63	3.112
667.81	2.122
668.00	5.176
668.19	5.993
668.37	5.421
668.56	5.713
668.75	3.282
668.93	6.210
669.12	3.947
669.30	4.871
669.49	3.666
669.68	5.342
669.86	5.523
670.05	2.150
670.23	2.966
670.42	2.691
670.61	3.872
670.79	4.137
670.98	5.057
671.16	4.496
671.35	3.481
671.54	4.223
671.72	1.873
671.91	4.233
672.09	2.986
672.28	4.664
672.46	6.915
672.65	4.167
672.84	5.221
673.02	4.255
673.21	1.501
673.39	2.902
673.58	5.419
673.77	4.679
673.95	2.274
674.14	4.413
674.32	3.660
674.51	5.083
674.69	4.064
674.88	4.866
675.07	2.439
675.25	5.964
675.44	2.861
675.62	4.213
675.81	2.812
675.99	8.370
676.18	5.045
676.36	2.983
676.55	0.686
676.74	3.826
676.92	5.759
677.11	5.779
677.29	4.180
677.48	4.856
677.66	5.300
677.85	3.625
678.03	5.043
678.22	5.452
678.40	5.004
678.59	3.116
678.78	3.471
678.96	5.408
679.15	2.764
679.33	5.654
679.52	7.720
679.70	4.157
679.89	3.813
680.07	5.138
680.26	4.532
680.44	5.445
680.63	5.561
680.81	5.664
681.00	4.245
681.18	5.630
681.37	5.023
681.55	6.534
681.74	8.530
681.92	7.419
682.11	5.175
682.29	6.602
682.48	4.588
682.66	5.100
682.85	5.675
683.03	5.467
683.22	6.157
683.40	7.666
683.59	4.853
683.77	4.895
683.96	4.471
684.14	6.390
684.33	2.137
684.51	7.909
684.70	6.391
684.88	8.281
685.07	7.940
685.25	6.765
685.44	6.184
685.62	7.490
685.81	5.899
685.99	7.907
686.18	3.933
686.36	6.177
686.55	5.081
686.73	6.653
686.92	8.443
687.10	8.350
687.29	7.211
687.47	6.970
687.65	6.621
687.84	7.743
688.02	9.710
688.21	10.859
688.39	6.917
688.58	11.164
688.76	7.822
688.95	5.906
689.13	6.164
689.32	9.824
689.50	7.881
689.68	6.487
689.87	7.378
690.05	6.961
690.24	11.134
690.42	8.845
690.61	9.159
690.79	9.193
690.98	8.914
691.16	6.952
691.34	6.615
691.53	7.858
691.71	7.189
691.90	7.796
692.08	5.052
692.27	9.336
692.45	10.747
692.63	7.727
692.82	9.735
693.00	9.959
693.19	5.723
693.37	11.281
693.56	10.103
693.74	10.431
693.92	8.718
694.11	10.988
694.29	8.974
694.48	12.163
694.66	7.042
694.84	12.794
695.03	7.759
695.21	13.330
695.40	13.291
695.58	12.626
695.76	7.416
695.95	10.467
696.13	7.615
696.32	11.300
696.50	18.913
696.68	15.289
696.87	8.497
697.05	12.443
697.24	11.044
697.42	13.382
697.60	12.723
697.79	15.137
697.97	12.911
698.16	17.437
698.34	13.196
698.52	18.651
698.71	14.925
698.89	16.246
699.07	15.658
699.26	20.000
699.44	18.111
699.63	21.468
699.81	15.456
699.99	20.617
700.18	19.688
700.36	20.532
700.54	19.883
700.73	20.272
700.91	16.204
701.09	20.192
701.28	16.773
701.46	18.905
701.64	15.116
701.83	20.663
702.01	11.247
702.20	20.362
702.38	15.474
702.56	15.532
702.75	13.510
702.93	14.286
703.11	11.931
703.30	16.525
703.48	14.605
703.66	17.275
703.85	12.238
704.03	19.019
704.21	14.425
704.40	17.058
704.58	12.975
704.76	15.761
704.95	12.669
705.13	15.632
705.31	12.741
705.50	15.265
705.68	14.474
705.86	19.868
706.04	13.903
706.23	17.058
706.41	16.089
706.59	14.581
706.78	10.679
706.96	14.025
707.14	15.372
707.33	15.367
707.51	14.541
707.69	19.501
707.88	13.639
708.06	15.933
708.24	15.411
708.42	18.457
708.61	13.797
708.79	16.984
708.97	17.336
709.16	19.017
709.34	12.487
709.52	15.919
709.71	18.207
709.89	19.510
710.07	11.805
710.25	18.324
710.44	13.627
710.62	15.252
710.80	18.472
710.98	20.674
711.17	14.451
711.35	16.854
711.53	14.126
711.72	16.950
711.90	17.564
712.08	17.742
712.26	15.087
712.45	18.700
712.63	19.444
712.81	20.000
712.99	16.144
713.18	20.721
713.36	17.041
713.54	18.111
713.72	15.497
713.91	16.814
714.09	12.351
714.27	16.260
714.45	18.835
714.64	22.025
714.82	14.345
715.00	20.886
715.18	14.079
715.37	19.108
715.55	13.889
715.73	21.899
715.91	18.781
716.10	22.211
716.28	12.156
716.46	19.426
716.64	16.108
716.83	21.364
717.01	14.640
717.19	20.110
717.37	14.315
717.55	19.561
717.74	16.304
717.92	18.638
718.10	11.889
718.28	17.372
718.47	11.429
718.65	20.068
718.83	15.796
719.01	19.771
719.19	14.304
719.38	13.530
719.56	10.183
719.74	17.155
719.92	8.840
720.10	12.611
720.29	11.744
720.47	14.781
720.65	11.531
720.83	15.104
721.01	10.315
721.20	11.622
721.38	12.795
721.56	13.156
721.74	10.995
721.92	13.370
722.11	10.927
722.29	14.335
722.47	9.979
722.65	12.552
722.83	14.606
723.01	9.302
723.20	10.319
723.38	12.500
723.56	12.664
723.74	16.775
723.92	11.159
724.10	14.681
724.29	5.811
724.47	18.296
724.65	11.339
724.83	16.631
725.01	12.268
725.19	18.089
725.38	13.522
725.56	12.119
725.74	12.847
725.92	18.265
726.10	8.321
726.28	12.602
726.46	19.601
726.65	14.155
726.83	9.138
727.01	17.029
727.19	16.365
727.37	14.653
727.55	11.380
727.73	14.848
727.92	11.181
728.10	15.863
728.28	11.248
728.46	20.355
728.64	11.404
728.82	15.872
729.00	14.075
729.19	15.274
729.37	14.125
729.55	14.777
729.73	8.820
729.91	17.502
730.09	15.746
730.27	15.799
730.45	14.906
730.63	16.514
730.82	15.155
731.00	11.936
731.18	11.633
731.36	18.413
731.54	11.811
731.72	17.490
731.90	13.364
732.08	13.718
732.26	10.333
732.45	17.762
732.63	15.957
732.81	17.372
732.99	14.054
733.17	19.057
733.35	10.499
733.53	18.089
733.71	13.817
733.89	19.425
734.07	15.013
734.25	19.351
734.44	16.142
734.62	14.958
734.80	11.816
734.98	21.799
735.16	17.120
735.34	17.058
735.52	18.407
735.70	14.670
735.88	12.186
736.06	17.026
736.24	20.278
736.42	11.737
736.60	14.028
736.78	22.876
736.97	11.821
737.15	15.087
737.33	9.547
737.51	16.558
737.69	12.633
737.87	15.438
738.05	15.516
738.23	16.152
738.41	14.524
738.59	14.050
738.77	14.141
738.95	21.778
739.13	15.385
739.31	16.457
739.49	12.281
739.67	19.485
739.85	16.194
740.03	19.204
740.21	12.335
740.39	15.231
740.57	17.720
740.75	13.685
740.93	16.050
741.11	19.352
741.30	13.522
741.48	24.203
741.66	10.452
741.84	15.116
742.02	15.983
742.20	15.808
742.38	14.708
742.56	19.561
742.74	17.042
742.92	16.594
743.10	9.355
743.28	19.807
743.46	17.603
743.64	10.946
743.82	11.632
744.00	12.488
744.18	18.248
744.36	13.778
744.54	13.636
744.72	19.775
744.90	12.262
745.08	18.147
745.26	15.610
745.44	18.490
745.62	9.970
745.80	12.900
745.98	17.412
746.16	10.365
746.34	12.746
746.52	15.676
746.70	14.033
746.87	16.205
747.05	12.021
747.23	13.599
747.41	13.298
747.59	17.515
747.77	14.357
747.95	10.608
748.13	11.789
748.31	17.176
748.49	13.253
748.67	14.469
748.85	13.299
749.03	15.500
749.21	12.720
749.39	19.057
749.57	12.476
749.75	15.543
749.93	16.466
750.11	13.641
750.29	14.177
750.47	10.030
750.65	15.317
750.83	19.916
751.01	9.347
751.18	15.722
751.36	10.391
751.54	17.462
751.72	20.679
751.90	12.984
752.08	6.554
752.26	11.917
752.44	16.221
752.62	16.436
752.80	11.191
752.98	20.041
753.16	17.100
753.34	13.443
753.52	12.775
753.69	12.977
753.87	15.981
754.05	14.781
754.23	9.240
754.41	15.588
754.59	13.793
754.77	12.613
754.95	14.589
755.13	16.075
755.31	14.777
755.49	17.720
755.66	12.790
755.84	15.988
756.02	12.016
756.20	20.377
756.38	9.081
756.56	14.258
756.74	6.972
756.92	16.395
757.10	14.667
757.28	17.889
757.45	18.095
757.63	12.857
757.81	15.385
757.99	16.096
758.17	13.006
758.35	13.910
758.53	21.701
758.71	16.516
758.88	15.739
759.06	17.272
759.24	10.976
759.42	12.647
759.60	14.785
759.78	14.529
759.96	5.784
760.13	11.198
760.31	10.577
760.49	13.048
760.67	7.627
760.85	9.656
761.03	8.350
761.21	10.636
761.38	6.099
761.56	8.209
761.74	4.008
761.92	11.748
762.10	2.889
762.28	15.321
762.46	5.556
762.63	8.509
762.81	3.022
762.99	13.283
763.17	6.386
763.35	10.640
763.53	8.495
763.70	10.658
763.88	13.100
764.06	12.484
764.24	7.124
764.42	14.979
764.60	13.405
764.77	9.486
764.95	11.810
765.13	12.853
765.31	10.510
765.49	13.828
765.66	10.468
765.84	13.617
766.02	10.690
766.20	14.085
766.38	11.536
766.56	10.969
766.73	11.399
766.91	12.930
767.09	7.258
767.27	16.118
767.45	11.192
767.62	16.176
767.80	6.439
767.98	13.108
768.16	8.827
768.33	11.783
768.51	12.842
768.69	15.578
768.87	9.513
769.05	14.486
769.22	7.387
769.40	17.081
769.58	9.938
769.76	15.629
769.94	11.098
770.11	8.623
770.29	15.547
770.47	12.915
770.65	12.591
770.82	13.271
771.00	9.819
771.18	15.610
771.36	13.542
771.53	13.253
771.71	12.237
771.89	12.925
772.07	10.656
772.25	11.464
772.42	7.349
772.60	13.510
772.78	6.821
772.96	14.943
773.13	14.698
773.31	8.602
773.49	9.289
773.67	11.945
773.84	9.654
774.02	7.704
774.20	7.153
774.37	11.127
774.55	12.662
774.73	9.502
774.91	6.070
775.08	8.973
775.26	16.520
775.44	16.480
775.62	12.370
775.79	9.900
775.97	11.077
776.15	9.517
776.32	5.701
776.50	15.969
776.68	11.577
776.86	11.335
777.03	12.975
777.21	11.303
777.39	11.611
777.56	11.268
777.74	5.873
777.92	16.690
778.10	5.145
778.27	21.705
778.45	5.936
778.63	11.690
778.80	13.694
778.98	13.837
779.16	14.070
779.34	4.064
779.51	13.037
779.69	15.397
779.87	14.900
780.04	16.056
780.22	9.706
780.40	8.782
780.57	11.962
780.75	13.547
780.93	16.327
781.10	12.654
781.28	7.908
781.46	4.626
781.63	10.413
781.81	16.258
781.99	8.717
782.16	4.801
782.34	5.387
782.52	12.721
782.69	15.569
782.87	11.486
783.05	8.122
783.22	13.214
783.40	7.729
783.58	8.146
783.75	7.388
783.93	12.724
784.11	10.721
784.28	12.630
784.46	7.584
784.64	7.679
784.81	8.602
784.99	17.713
785.17	12.039
785.34	16.726
785.52	13.714
785.69	-0.361
785.87	5.959
786.05	14.107
786.22	12.830
786.40	18.248
786.58	16.107
786.75	7.948
786.93	15.493
787.11	14.161
787.28	13.918
787.46	14.079
787.63	-1.961
787.81	10.200
787.99	7.206
788.16	12.951
788.34	7.235
788.51	12.289
788.69	3.317
788.87	3.892
789.04	15.478
789.22	10.305
789.39	5.931
789.57	8.408
789.75	0.496
789.92	7.817
790.10	7.461
790.27	13.000
790.45	9.795
790.63	10.526
790.80	10.680
790.98	7.394
791.15	19.099
791.33	5.710
791.51	7.294
791.68	2.873
791.86	16.000
792.03	11.755
792.21	7.904
792.39	13.121
792.56	10.995
792.74	12.665
792.91	10.000
793.09	8.436
793.26	1.258
793.44	6.831
793.62	11.417
793.79	8.549
793.97	12.865
794.14	5.996
794.32	6.827
794.49	13.854
794.67	9.756
794.84	-0.839
795.02	5.482
795.20	8.129
795.37	12.400
795.55	7.233
795.72	13.806
795.90	7.407
796.07	8.135
796.25	14.105
796.42	6.294
796.60	11.018
796.77	14.413
796.95	10.307
797.13	12.000
797.30	15.233
797.48	1.153
797.65	4.013
797.83	2.131
798.00	4.478
798.18	9.007
798.35	10.862
798.53	8.155
798.70	1.593
798.88	11.310
799.05	9.091
799.23	5.100
799.40	6.940
799.58	9.913
799.75	17.103
799.93	5.736
800.10	9.586
800.28	8.489
800.45	16.097
800.63	2.091
800.80	11.151
800.98	11.342
801.15	14.621
801.33	12.209
801.50	7.706
801.68	9.783
801.85	4.247
802.03	5.812
802.20	16.768
802.38	18.352
802.55	10.581
802.73	23.507
802.90	7.273
803.08	16.634
803.25	17.435
803.43	11.475
803.60	1.325
803.78	12.967
803.95	1.515
804.13	8.397
804.30	-0.224
804.48	3.712
804.65	8.989
804.83	8.853
805.00	8.168
805.17	14.925
805.35	15.654
805.52	4.073
805.70	5.187
805.87	14.885
806.05	11.044
806.22	9.375
806.40	16.635
806.57	21.512
806.75	15.779
806.92	19.959
807.09	10.737
807.27	13.673
807.44	12.377
807.62	15.209
807.79	11.776
807.97	10.800
808.14	8.524
808.31	7.895
808.49	8.747
808.66	10.370
808.84	5.433
809.01	8.506
809.19	5.399
809.36	15.866
809.53	4.348
809.71	14.103
809.88	9.977
810.06	12.691
810.23	12.918
810.41	14.046
810.58	12.136
810.75	6.316
810.93	1.598
811.10	12.227
811.28	7.191
811.45	12.281
811.62	3.836
811.80	-1.005
811.97	12.060
812.15	13.895
812.32	2.880
812.49	15.971
812.67	1.909
812.84	12.740
813.02	2.646
813.19	7.748
813.36	6.354
813.54	0.756
813.71	5.670
813.89	1.554
814.06	4.511
814.23	10.882
814.41	3.788
814.58	11.846
814.75	10.627
814.93	23.267
815.10	5.040
815.28	9.701
815.45	11.007
815.62	13.793
815.80	-4.386
815.97	3.750
816.14	8.488
816.32	5.685
816.49	-3.430
816.66	4.800
816.84	8.200
817.01	9.071
817.18	0.261
817.36	8.997
817.53	11.408
817.71	7.198
817.88	8.102
818.05	17.156
818.23	6.569
818.40	-2.667
818.57	14.123
818.75	15.368
818.92	8.521
819.09	-3.275
819.27	0.000
819.44	6.651
819.61	6.928
819.79	4.027
819.96	-10.502
820.13	14.859
820.31	13.135
820.48	17.923
820.65	6.606
820.82	8.286
821.00	9.949
821.17	3.423
821.34	8.929
821.52	9.650
821.69	11.358
821.86	5.072
822.04	8.764
822.21	11.646
822.38	10.306
822.56	9.003
822.73	14.503
822.90	11.575
823.07	17.595
823.25	16.146
823.42	15.414
823.59	16.056
823.77	17.890
823.94	17.279
824.11	19.307
824.29	13.928
824.46	18.602
824.63	16.559
824.80	12.747
824.98	11.780
825.15	16.118
825.32	11.153
825.49	13.145
825.67	8.435
825.84	10.503
826.01	11.750
826.19	12.750
826.36	8.241
826.53	12.690
826.70	9.091
826.88	13.649
827.05	6.848
827.22	2.269
827.39	10.738
827.57	8.224
827.74	8.785
827.91	13.567
828.08	6.786
828.26	13.106
828.43	6.174
828.60	12.924
828.77	9.593
828.95	9.910
829.12	11.365
829.29	10.047
829.46	7.143
829.64	6.688
829.81	4.427
829.98	9.950
830.15	11.582
830.32	6.168
830.50	0.000
830.67	9.437
830.84	6.703
831.01	11.150
831.19	12.963
831.36	0.000
831.53	5.830
831.70	0.000
831.87	4.449
832.05	7.009
832.22	17.111
832.39	11.348
832.56	4.485
832.74	1.843
832.91	9.975
833.08	12.821
833.25	3.695
833.42	5.846
833.60	7.091
833.77	4.340
833.94	8.307
834.11	4.960
834.28	6.807
834.45	8.151
834.63	10.962
834.80	10.820
834.97	13.964
835.14	6.563
835.31	5.802
835.49	5.146
835.66	5.250
835.83	7.554
836.00	10.189
836.17	11.847
836.34	9.810
836.52	7.669
836.69	14.286
836.86	3.237
837.03	1.695
837.20	4.259
837.37	2.756
837.55	14.792
837.72	-2.278
837.89	11.616
838.06	4.571
838.23	10.784
838.40	-3.313
838.58	4.611
838.75	4.620
838.92	15.170
839.09	7.560
839.26	8.911
839.43	9.215
839.60	5.405
839.78	26.299
839.95	15.259
840.12	24.573
840.29	16.610
840.46	5.215
840.63	16.301
840.80	9.709
840.98	10.897
841.15	6.563
841.32	24.242
841.49	0.654
841.66	21.266
841.83	12.422
842.00	4.319
842.17	21.591
842.34	4.054
842.52	25.000
842.69	3.390
842.86	5.426
843.03	16.974
843.20	-4.598
843.37	24.354
843.54	14.981
843.71	15.625
843.88	24.889
844.06	33.600
844.23	3.333
844.40	10.667
844.57	-1.105
844.74	17.073
844.91	17.391
845.08	38.636
845.25	9.179
845.42	2.151
845.59	8.421
845.76	21.026
845.94	32.673
846.11	3.425
846.28	8.333
846.45	30.337
846.62	3.896
846.79	6.849
846.96	14.198
847.13	37.209
847.30	4.138
847.47	-32.374
847.64	6.977
847.81	-16.102
847.98	9.045
848.15	37.956
848.32	30.818
848.50	44.910
848.67	4.598
848.84	0.685
849.01	32.961
849.18	12.371
849.35	0.000
849.52	-24.138
849.69	8.609
849.86	27.891
850.03	32.836
850.20	25.731
850.37	11.765
850.54	26.257
850.71	8.609
850.88	26.257
851.05	-13.559
851.22	8.427
851.39	21.622
851.56	6.250
851.73	15.723
851.90	3.106
852.07	25.564
852.24	9.211
852.41	-41.905
852.58	28.873
852.75	-55.172
852.92	30.244
853.09	-1.562
853.26	22.222
853.43	7.547
853.60	6.180
853.77	29.114
853.94	37.226
854.11	0.699
854.28	-0.800
854.45	-10.156
854.62	25.888
854.79	50.980
854.96	43.200
855.13	11.696
855.30	24.490
855.47	-3.448
855.64	46.617
855.81	26.882
855.98	33.333
856.15	30.631
856.32	25.786
856.49	11.628
856.66	3.497
856.83	-6.818
857.00	-2.614
857.17	-0.769
857.34	-33.684
857.51	29.496
857.68	34.054
857.85	-5.682
858.02	8.889
858.19	27.027
858.36	-7.273
858.53	3.871
858.70	8.383
858.87	21.519
859.04	16.129
859.21	-4.730
859.38	-13.158
859.55	22.388
859.72	27.586
859.89	7.194
860.05	9.910
860.22	36.649
860.39	17.857
860.56	10.687
860.73	10.569
860.90	16.514
861.07	-2.632
861.24	25.658
861.41	11.111
861.58	-12.500
861.75	21.481
861.92	23.684
862.09	37.778
862.26	15.385
862.43	39.604
862.59	33.088
862.76	27.273
862.93	-8.989
863.10	-8.571
863.27	5.983
863.44	-11.494
863.61	-10.219
863.78	35.429
863.95	38.562
864.12	38.506
864.29	8.547
864.45	10.345
864.62	2.825
864.79	-15.504
864.96	5.691
865.13	-12.613
865.30	48.447
865.47	35.976
865.64	-2.878
865.81	28.244
865.97	37.333
866.14	2.041
866.31	15.833
866.48	3.311
866.65	29.487
866.82	14.557
866.99	-0.855
867.16	34.586
867.33	25.806
867.49	31.481
867.66	-29.897
867.83	-4.724
868.00	32.192
868.17	20.661
868.34	0.000
868.51	-12.381
868.67	18.987
868.84	-18.333
869.01	-6.400
869.18	48.936
869.35	19.380
869.52	16.667
869.69	23.288
869.85	16.822
870.02	2.885
870.19	35.593
870.36	46.897
870.53	-1.429
870.70	35.849
870.86	2.000
871.03	19.753
871.20	14.679
871.37	15.517
871.54	20.946
871.71	16.429
871.87	4.403
872.04	22.857
872.21	27.826
872.38	30.894
872.55	29.012
872.72	-4.688
872.88	24.022
873.05	-2.299
873.22	34.014
873.39	21.429
873.56	34.320
873.72	5.882
873.89	21.739
874.06	-73.134
874.23	27.966
874.40	-2.000
874.56	33.684
874.73	-8.537
874.90	5.932
875.07	13.571
875.24	29.814
875.40	13.445
875.57	-16.514
875.74	4.800
875.91	-22.018
876.08	24.348
876.24	-15.116
876.41	36.800
876.58	40.957
876.75	25.532
876.92	14.706
877.08	34.559
877.25	24.348
877.42	42.187
877.59	13.265
877.75	25.333
877.92	-0.595
878.09	-11.458
878.26	3.593
878.42	11.250
878.59	18.261
878.76	17.763
878.93	17.164
879.09	-11.111
879.26	21.951
879.43	39.459
879.60	-9.790
879.76	7.386
879.93	13.333
880.10	4.000
880.27	3.106
880.43	-2.235
880.60	4.566
880.77	-3.977
880.94	-16.915
881.10	20.059
881.27	6.557
881.44	-3.399
881.61	9.417
881.77	14.723
881.94	6.903
882.11	8.451
882.28	4.207
882.44	6.061
882.61	4.923
882.78	13.534
882.94	9.317
883.11	8.948
883.28	3.027
883.45	4.218
883.61	7.006
883.78	9.894
883.95	9.977
884.11	10.600
884.28	7.732
>>>>>End Processed Spectral Data<<<<<
