SpectraSuite Data File
++++++++++++++++++++++++++++++++++++
Date: Sat Sep 21 02:56:39 EST 2019
User: sgrac
Dark Spectrum Present: Yes
Reference Spectrum Present: Yes
Number of Sampled Component Spectra: 1
Spectrometers: USB4E01596
Integration Time (usec): 100000 (USB4E01596)
Spectra Averaged: 1 (USB4E01596)
Boxcar Smoothing: 0 (USB4E01596)
Correct for Electrical Dark: No (USB4E01596)
Strobe/Lamp Enabled: Yes (USB4E01596)
Correct for Detector Non-linearity: No (USB4E01596)
Correct for Stray Light: No (USB4E01596)
Number of Pixels in Processed Spectrum: 3648
>>>>>Begin Processed Spectral Data<<<<<
178.44	-364.286
178.66	-364.286
178.87	-364.286
179.09	-371.429
179.30	-253.846
179.52	0.000
179.74	-1050.000
179.95	233.333
180.17	140.000
180.38	4100.000
180.60	0.000
180.82	33.333
181.03	-63.158
181.25	260.870
181.46	41.935
181.68	241.667
181.89	5600.000
182.11	125.714
182.33	-122.222
182.54	-100.000
182.76	-1000.000
182.97	200.000
183.19	750.000
183.40	65.517
183.62	3.704
183.84	-59.259
184.05	282.609
184.27	108.333
184.48	700.000
184.70	142.000
184.91	-226.667
185.13	115.556
185.34	-14.286
185.56	68.333
185.78	0.000
185.99	433.333
186.21	148.276
186.42	113.333
186.64	117.742
186.85	166.667
187.07	72.727
187.28	220.000
187.50	-233.333
187.72	1160.000
187.93	-3600.000
188.15	134.000
188.36	-47.059
188.58	-2200.000
188.79	163.636
189.01	194.444
189.22	660.000
189.44	1900.000
189.65	66.667
189.87	262.500
190.09	-200.000
190.30	168.750
190.52	-2650.000
190.73	83.929
190.95	164.286
191.16	151.111
191.38	170.000
191.59	28.571
191.81	127.778
192.02	136.170
192.24	294.118
192.45	-380.000
192.67	285.714
192.88	283.333
193.10	-24.000
193.31	150.000
193.53	-6500.000
193.74	82.927
193.96	162.500
194.18	167.742
194.39	-0.000
194.61	215.789
194.82	257.143
195.04	133.333
195.25	2800.000
195.47	117.073
195.68	104.255
195.90	-20.000
196.11	90.909
196.33	70.213
196.54	-1500.000
196.76	153.571
196.97	-1066.667
197.19	39.286
197.40	85.294
197.62	179.688
197.83	93.243
198.05	-210.526
198.26	128.571
198.48	-41.667
198.69	79.070
198.91	170.588
199.12	-145.714
199.34	-700.000
199.55	300.000
199.77	1275.000
199.98	68.000
200.20	42.254
200.41	271.429
200.63	-111.111
200.84	47.059
201.06	-92.308
201.27	202.703
201.49	700.000
201.70	166.667
201.91	8.696
202.13	91.304
202.34	75.472
202.56	-342.857
202.77	266.667
202.99	239.286
203.20	1000.000
203.42	437.500
203.63	165.116
203.85	71.429
204.06	153.704
204.28	-20.000
204.49	85.714
204.71	69.231
204.92	0.000
205.14	-200.000
205.35	233.333
205.56	-880.000
205.78	166.667
205.99	410.000
206.21	-112.903
206.42	264.516
206.64	60.714
206.85	550.000
207.07	-269.231
207.28	114.286
207.50	-100.000
207.71	56.410
207.93	93.182
208.14	482.353
208.35	121.053
208.57	-1000.000
208.78	507.692
209.00	138.889
209.21	-2700.000
209.43	100.000
209.64	205.882
209.86	100.000
210.07	0.000
210.28	-252.941
210.50	104.082
210.71	108.772
210.93	261.905
211.14	-61.111
211.36	25.806
211.57	-33.333
211.78	100.000
212.00	0.000
212.21	118.605
212.43	22.727
212.64	108.621
212.86	-162.500
213.07	-131.818
213.29	36.842
213.50	1200.000
213.71	96.226
213.93	742.857
214.14	134.848
214.36	-500.000
214.57	80.769
214.78	231.250
215.00	2150.000
215.21	88.889
215.43	252.000
215.64	166.667
215.86	148.571
216.07	700.000
216.28	108.000
216.50	-85.714
216.71	-1180.000
216.93	140.426
217.14	112.500
217.35	107.407
217.57	146.429
217.78	462.500
218.00	50.000
218.21	0.000
218.42	-533.333
218.64	458.824
218.85	133.333
219.07	50.000
219.28	300.000
219.49	43.421
219.71	266.667
219.92	141.667
220.14	170.833
220.35	-45.000
220.56	97.436
220.78	300.000
220.99	-600.000
221.21	-14.286
221.42	141.667
221.63	200.000
221.85	69.355
222.06	100.000
222.28	140.909
222.49	-1050.000
222.70	0.000
222.92	77.778
223.13	96.667
223.34	-500.000
223.56	2.632
223.77	55.056
223.99	82.051
224.20	23.810
224.41	102.703
224.63	213.889
224.84	146.552
225.05	57.143
225.27	58.571
225.48	86.957
225.69	-285.714
225.91	151.852
226.12	102.778
226.34	79.412
226.55	-31.481
226.76	35.484
226.98	92.000
227.19	-4.545
227.40	20.661
227.62	60.976
227.83	37.000
228.04	-14.286
228.26	37.624
228.47	31.034
228.69	43.421
228.90	-28.169
229.11	23.704
229.33	14.976
229.54	-12.500
229.75	10.435
229.97	18.884
230.18	17.921
230.39	1.266
230.61	19.811
230.82	10.788
231.03	6.224
231.25	14.478
231.46	12.409
231.67	22.925
231.89	21.961
232.10	11.336
232.31	28.846
232.53	23.164
232.74	17.708
232.95	36.747
233.17	18.497
233.38	43.284
233.59	36.765
233.81	29.126
234.02	13.158
234.23	18.182
234.45	27.632
234.66	37.288
234.87	2.685
235.09	0.741
235.30	8.046
235.51	7.767
235.73	18.868
235.94	38.342
236.15	17.857
236.36	16.931
236.58	27.962
236.79	32.984
237.00	3.865
237.22	30.247
237.43	20.588
237.64	6.987
237.86	16.304
238.07	49.246
238.28	8.743
238.50	17.391
238.71	4.734
238.92	22.024
239.13	23.429
239.35	0.699
239.56	14.063
239.77	26.829
239.99	8.491
240.20	8.421
240.41	21.121
240.63	-5.668
240.84	9.163
241.05	21.898
241.26	11.983
241.48	17.404
241.69	5.696
241.90	3.099
242.12	7.398
242.33	3.879
242.54	4.264
242.75	13.283
242.97	12.414
243.18	4.882
243.39	9.375
243.61	2.849
243.82	4.476
244.03	4.892
244.24	2.454
244.46	5.778
244.67	8.832
244.88	7.825
245.09	9.683
245.31	-2.879
245.52	12.684
245.73	12.451
245.95	8.316
246.16	5.640
246.37	12.984
246.58	10.654
246.80	8.453
247.01	2.413
247.22	7.143
247.43	1.461
247.65	5.711
247.86	5.963
248.07	0.669
248.28	4.502
248.50	1.331
248.71	2.937
248.92	1.747
249.13	4.103
249.35	6.172
249.56	7.244
249.77	2.334
249.98	2.677
250.20	2.333
250.41	3.464
250.62	2.651
250.83	7.953
251.05	6.581
251.26	5.989
251.47	9.550
251.68	4.388
251.90	12.319
252.11	7.317
252.32	8.938
252.53	5.835
252.75	3.200
252.96	10.577
253.17	2.913
253.38	2.973
253.59	10.311
253.81	8.779
254.02	9.351
254.23	10.305
254.44	8.948
254.66	10.579
254.87	3.610
255.08	4.579
255.29	13.855
255.50	13.118
255.72	15.826
255.93	6.326
256.14	11.818
256.35	12.412
256.57	15.486
256.78	13.014
256.99	9.948
257.20	11.165
257.41	12.215
257.63	-0.818
257.84	14.315
258.05	10.625
258.26	9.189
258.47	1.431
258.69	7.365
258.90	7.764
259.11	0.624
259.32	3.388
259.53	3.083
259.75	3.169
259.96	-0.409
260.17	5.027
260.38	3.479
260.59	2.370
260.81	4.598
261.02	3.474
261.23	5.051
261.44	2.048
261.65	3.339
261.87	-2.000
262.08	2.369
262.29	3.154
262.50	6.385
262.71	1.356
262.92	1.352
263.14	5.307
263.35	3.711
263.56	-0.235
263.77	7.764
263.98	5.291
264.20	11.528
264.41	0.967
264.62	13.477
264.83	3.814
265.04	10.181
265.25	-0.291
265.47	4.834
265.68	2.624
265.89	1.830
266.10	5.099
266.31	11.664
266.52	4.161
266.74	-4.566
266.95	0.524
267.16	5.928
267.37	4.875
267.58	-0.119
267.79	5.451
268.01	1.758
268.22	10.379
268.43	9.485
268.64	4.188
268.85	3.629
269.06	2.689
269.27	5.478
269.49	4.990
269.70	4.489
269.91	2.775
270.12	1.210
270.33	4.215
270.54	4.236
270.75	-1.871
270.97	5.350
271.18	3.897
271.39	7.692
271.60	6.079
271.81	7.634
272.02	6.351
272.23	5.171
272.45	0.465
272.66	0.831
272.87	1.365
273.08	1.477
273.29	4.792
273.50	4.138
273.71	3.040
273.92	4.682
274.14	-1.257
274.35	-0.324
274.56	5.093
274.77	0.824
274.98	7.944
275.19	5.773
275.40	3.611
275.61	2.978
275.83	6.763
276.04	3.482
276.25	4.804
276.46	4.112
276.67	2.053
276.88	3.309
277.09	0.396
277.30	3.950
277.51	4.218
277.73	0.500
277.94	5.031
278.15	1.060
278.36	2.026
278.57	2.561
278.78	9.200
278.99	8.585
279.20	4.390
279.41	5.793
279.62	2.350
279.84	4.965
280.05	5.285
280.26	3.934
280.47	1.109
280.68	-3.930
280.89	8.462
281.10	4.748
281.31	-0.570
281.52	6.623
281.73	5.815
281.94	4.000
282.16	6.600
282.37	6.435
282.58	5.795
282.79	7.473
283.00	0.251
283.21	3.468
283.42	1.849
283.63	0.778
283.84	5.442
284.05	3.213
284.26	4.507
284.47	5.234
284.68	3.296
284.89	3.157
285.11	2.995
285.32	4.220
285.53	1.883
285.74	3.753
285.95	3.151
286.16	1.455
286.37	2.604
286.58	1.320
286.79	4.502
287.00	4.745
287.21	2.669
287.42	2.367
287.63	2.241
287.84	3.962
288.05	1.451
288.26	3.580
288.48	3.204
288.69	2.419
288.90	2.044
289.11	1.065
289.32	2.302
289.53	3.372
289.74	1.571
289.95	0.812
290.16	4.274
290.37	1.337
290.58	4.116
290.79	1.819
291.00	6.214
291.21	0.198
291.42	2.579
291.63	1.578
291.84	4.795
292.05	1.923
292.26	4.420
292.47	1.870
292.68	1.507
292.89	4.129
293.10	4.453
293.31	4.906
293.52	-0.076
293.73	1.285
293.94	5.445
294.15	2.299
294.36	-1.790
294.57	5.175
294.79	6.362
295.00	5.743
295.21	1.724
295.42	6.472
295.63	4.925
295.84	0.966
296.05	3.566
296.26	2.264
296.47	2.439
296.68	3.605
296.89	0.791
297.10	3.319
297.31	1.769
297.52	4.125
297.73	2.670
297.94	3.125
298.15	1.718
298.36	4.819
298.57	2.163
298.78	4.995
298.99	0.000
299.20	3.437
299.41	1.141
299.62	4.687
299.83	2.450
300.04	5.003
300.25	2.068
300.46	2.758
300.67	1.058
300.88	2.350
301.09	0.613
301.30	4.212
301.50	4.148
301.71	2.166
301.92	5.281
302.13	1.791
302.34	0.731
302.55	2.214
302.76	5.640
302.97	5.485
303.18	3.312
303.39	2.321
303.60	2.577
303.81	4.161
304.02	3.317
304.23	3.843
304.44	1.596
304.65	1.779
304.86	2.734
305.07	1.296
305.28	4.308
305.49	1.514
305.70	1.037
305.91	8.300
306.12	-0.072
306.33	1.246
306.54	0.587
306.75	3.308
306.96	5.414
307.17	3.664
307.38	2.137
307.58	1.992
307.79	5.391
308.00	4.374
308.21	3.164
308.42	3.881
308.63	6.452
308.84	3.581
309.05	3.120
309.26	4.043
309.47	3.838
309.68	2.042
309.89	5.566
310.10	3.117
310.31	2.056
310.52	2.786
310.73	4.361
310.94	2.274
311.14	4.164
311.35	2.327
311.56	1.513
311.77	2.678
311.98	1.313
312.19	2.228
312.40	3.591
312.61	2.378
312.82	3.011
313.03	-0.384
313.24	3.661
313.45	4.471
313.66	3.663
313.86	3.593
314.07	2.608
314.28	3.791
314.49	3.381
314.70	6.526
314.91	5.395
315.12	5.794
315.33	1.768
315.54	4.533
315.75	3.823
315.96	3.683
316.16	3.655
316.37	2.808
316.58	3.275
316.79	2.893
317.00	5.655
317.21	0.068
317.42	2.159
317.63	5.773
317.84	5.108
318.05	4.902
318.25	4.054
318.46	3.458
318.67	2.212
318.88	2.925
319.09	7.500
319.30	2.867
319.51	1.411
319.72	7.071
319.93	3.312
320.13	6.011
320.34	6.596
320.55	2.145
320.76	2.612
320.97	3.002
321.18	3.408
321.39	4.284
321.60	6.146
321.80	7.052
322.01	3.975
322.22	0.779
322.43	2.607
322.64	2.601
322.85	2.072
323.06	4.886
323.27	6.528
323.47	2.504
323.68	5.378
323.89	5.543
324.10	3.051
324.31	1.231
324.52	2.937
324.73	4.026
324.93	2.885
325.14	1.530
325.35	3.545
325.56	6.059
325.77	1.842
325.98	3.759
326.19	4.089
326.39	4.299
326.60	4.969
326.81	2.627
327.02	5.353
327.23	4.658
327.44	6.958
327.64	1.751
327.85	1.590
328.06	5.740
328.27	6.400
328.48	3.491
328.69	2.381
328.90	3.127
329.10	4.977
329.31	2.990
329.52	2.793
329.73	5.556
329.94	2.701
330.15	1.802
330.35	3.833
330.56	4.027
330.77	3.219
330.98	5.373
331.19	6.067
331.39	5.048
331.60	2.913
331.81	7.317
332.02	6.091
332.23	3.780
332.44	4.485
332.64	5.053
332.85	3.006
333.06	5.905
333.27	1.961
333.48	5.140
333.68	5.309
333.89	4.620
334.10	0.623
334.31	4.681
334.52	7.606
334.72	4.727
334.93	3.465
335.14	5.633
335.35	4.496
335.56	3.973
335.76	2.710
335.97	6.890
336.18	5.686
336.39	3.751
336.60	8.303
336.80	5.539
337.01	4.928
337.22	1.950
337.43	7.043
337.64	5.364
337.84	3.114
338.05	4.879
338.26	8.119
338.47	6.298
338.68	2.418
338.88	5.000
339.09	5.150
339.30	3.578
339.51	3.710
339.71	5.510
339.92	5.017
340.13	7.110
340.34	3.946
340.55	4.958
340.75	3.728
340.96	3.323
341.17	4.875
341.38	4.295
341.58	2.970
341.79	3.867
342.00	4.335
342.21	3.452
342.41	4.559
342.62	3.307
342.83	3.237
343.04	2.054
343.24	2.186
343.45	3.506
343.66	2.354
343.87	6.000
344.07	4.601
344.28	5.076
344.49	4.523
344.70	6.126
344.90	4.587
345.11	4.017
345.32	5.130
345.53	2.025
345.73	3.765
345.94	5.386
346.15	4.882
346.36	3.951
346.56	5.923
346.77	6.723
346.98	3.466
347.19	5.819
347.39	4.796
347.60	3.901
347.81	6.774
348.02	5.003
348.22	4.245
348.43	4.066
348.64	5.641
348.84	3.433
349.05	4.864
349.26	6.556
349.47	3.684
349.67	6.294
349.88	6.622
350.09	5.817
350.30	5.509
350.50	2.390
350.71	4.260
350.92	5.013
351.12	5.391
351.33	5.504
351.54	5.260
351.74	7.053
351.95	3.628
352.16	6.698
352.37	6.512
352.57	4.867
352.78	5.882
352.99	7.353
353.19	2.941
353.40	4.422
353.61	7.251
353.82	6.299
354.02	6.175
354.23	4.734
354.44	6.823
354.64	6.439
354.85	3.715
355.06	3.808
355.26	3.564
355.47	5.373
355.68	6.487
355.88	7.942
356.09	4.841
356.30	4.477
356.51	4.086
356.71	5.234
356.92	3.511
357.13	4.861
357.33	6.281
357.54	4.951
357.75	3.445
357.95	6.034
358.16	4.484
358.37	5.328
358.57	4.805
358.78	8.135
358.99	3.538
359.19	4.406
359.40	5.270
359.61	4.595
359.81	5.846
360.02	3.008
360.23	2.690
360.43	4.820
360.64	3.855
360.85	5.153
361.05	5.466
361.26	7.552
361.47	4.816
361.67	5.698
361.88	2.240
362.09	5.904
362.29	3.920
362.50	3.171
362.70	3.928
362.91	5.879
363.12	3.704
363.32	2.047
363.53	4.573
363.74	6.323
363.94	3.217
364.15	7.003
364.36	4.248
364.56	3.909
364.77	5.951
364.98	6.275
365.18	4.422
365.39	5.625
365.59	4.903
365.80	4.314
366.01	5.201
366.21	2.833
366.42	3.335
366.63	3.789
366.83	4.407
367.04	1.369
367.24	5.341
367.45	4.142
367.66	3.894
367.86	4.732
368.07	4.154
368.28	0.809
368.48	4.165
368.69	1.384
368.89	5.226
369.10	4.096
369.31	4.288
369.51	2.246
369.72	4.255
369.92	4.835
370.13	3.179
370.34	3.865
370.54	2.583
370.75	5.270
370.95	2.308
371.16	3.567
371.37	4.085
371.57	3.254
371.78	3.753
371.98	5.300
372.19	4.138
372.40	5.778
372.60	3.722
372.81	3.126
373.01	2.266
373.22	3.198
373.43	4.140
373.63	6.793
373.84	3.545
374.04	2.969
374.25	2.150
374.46	4.594
374.66	3.339
374.87	2.191
375.07	2.870
375.28	5.077
375.48	1.688
375.69	4.667
375.90	3.000
376.10	3.075
376.31	3.213
376.51	2.623
376.72	2.484
376.92	1.643
377.13	3.465
377.34	4.704
377.54	3.464
377.75	2.994
377.95	2.496
378.16	3.249
378.36	3.909
378.57	2.298
378.77	3.888
378.98	3.733
379.19	4.129
379.39	2.930
379.60	2.597
379.80	3.774
380.01	4.019
380.21	3.091
380.42	3.301
380.62	1.875
380.83	2.722
381.04	2.959
381.24	3.276
381.45	3.073
381.65	2.327
381.86	2.612
382.06	3.850
382.27	0.231
382.47	2.483
382.68	5.892
382.88	1.120
383.09	1.676
383.29	2.658
383.50	4.362
383.71	3.190
383.91	3.442
384.12	1.211
384.32	2.710
384.53	2.169
384.73	1.802
384.94	1.880
385.14	2.406
385.35	1.771
385.55	1.600
385.76	0.834
385.96	2.390
386.17	2.902
386.37	2.539
386.58	1.526
386.78	2.830
386.99	1.926
387.19	2.763
387.40	3.315
387.60	3.664
387.81	2.208
388.01	3.136
388.22	2.551
388.42	3.074
388.63	3.073
388.83	3.197
389.04	2.868
389.24	2.530
389.45	1.949
389.65	3.297
389.86	1.698
390.06	2.611
390.27	2.178
390.47	2.536
390.68	1.631
390.88	2.878
391.09	2.908
391.29	2.079
391.50	1.951
391.70	2.740
391.91	2.686
392.11	1.715
392.32	2.401
392.52	3.074
392.73	2.595
392.93	1.739
393.14	2.856
393.34	2.670
393.55	1.840
393.75	2.340
393.95	1.580
394.16	2.402
394.36	3.398
394.57	4.329
394.77	2.579
394.98	2.140
395.18	2.383
395.39	1.920
395.59	2.098
395.80	2.061
396.00	1.598
396.21	2.429
396.41	2.567
396.61	3.160
396.82	2.982
397.02	4.420
397.23	2.762
397.43	2.388
397.64	1.093
397.84	3.696
398.05	1.490
398.25	2.810
398.45	2.110
398.66	3.927
398.86	3.347
399.07	3.163
399.27	3.410
399.48	3.509
399.68	2.323
399.89	1.166
400.09	3.397
400.29	0.356
400.50	2.047
400.70	2.166
400.91	1.343
401.11	1.013
401.32	2.548
401.52	0.970
401.72	2.443
401.93	3.210
402.13	2.625
402.34	2.204
402.54	2.843
402.75	3.598
402.95	1.055
403.15	3.443
403.36	1.764
403.56	2.205
403.77	2.352
403.97	1.713
404.17	1.188
404.38	2.215
404.58	2.280
404.79	2.394
404.99	2.595
405.19	2.625
405.40	1.468
405.60	3.092
405.81	3.392
406.01	1.130
406.21	1.783
406.42	2.516
406.62	1.499
406.83	2.113
407.03	2.358
407.23	1.696
407.44	1.614
407.64	2.928
407.85	2.429
408.05	1.854
408.25	0.634
408.46	3.107
408.66	1.939
408.87	1.537
409.07	1.371
409.27	2.739
409.48	3.304
409.68	2.240
409.88	1.617
410.09	3.071
410.29	1.690
410.50	4.019
410.70	0.266
410.90	1.630
411.11	2.161
411.31	2.507
411.51	2.539
411.72	2.810
411.92	2.470
412.12	1.318
412.33	1.959
412.53	2.081
412.74	0.824
412.94	1.446
413.14	2.081
413.35	2.796
413.55	1.074
413.75	2.656
413.96	1.956
414.16	2.092
414.36	2.134
414.57	0.894
414.77	2.256
414.97	2.152
415.18	2.039
415.38	2.373
415.58	2.064
415.79	1.829
415.99	2.413
416.19	1.762
416.40	2.425
416.60	1.649
416.80	1.463
417.01	1.886
417.21	1.094
417.41	2.313
417.62	1.998
417.82	1.264
418.02	1.365
418.23	1.900
418.43	2.313
418.63	1.884
418.84	3.278
419.04	1.915
419.24	2.607
419.45	2.214
419.65	2.398
419.85	2.030
420.06	2.346
420.26	2.969
420.46	2.087
420.67	3.027
420.87	3.338
421.07	2.187
421.28	1.918
421.48	3.108
421.68	3.032
421.88	3.304
422.09	2.876
422.29	2.409
422.49	2.130
422.70	2.973
422.90	2.095
423.10	2.759
423.31	1.398
423.51	3.054
423.71	2.721
423.91	2.939
424.12	3.010
424.32	2.662
424.52	2.929
424.73	2.472
424.93	2.647
425.13	2.061
425.33	2.170
425.54	3.210
425.74	2.839
425.94	3.044
426.15	2.556
426.35	1.933
426.55	2.841
426.75	2.878
426.96	2.864
427.16	2.146
427.36	2.623
427.57	3.386
427.77	2.245
427.97	2.747
428.17	2.491
428.38	3.135
428.58	1.619
428.78	2.101
428.98	1.793
429.19	1.684
429.39	1.259
429.59	2.745
429.79	1.871
430.00	1.019
430.20	0.627
430.40	1.366
430.60	1.703
430.81	2.180
431.01	1.382
431.21	2.143
431.41	0.849
431.62	1.993
431.82	2.653
432.02	2.582
432.22	1.659
432.43	1.550
432.63	0.932
432.83	2.047
433.03	1.977
433.24	1.392
433.44	2.648
433.64	1.484
433.84	1.763
434.05	2.405
434.25	2.100
434.45	1.386
434.65	2.458
434.85	2.433
435.06	2.522
435.26	1.856
435.46	1.346
435.66	1.517
435.87	1.472
436.07	1.937
436.27	2.348
436.47	1.464
436.67	1.327
436.88	1.774
437.08	1.423
437.28	1.266
437.48	2.252
437.69	2.497
437.89	2.025
438.09	2.103
438.29	1.637
438.49	2.287
438.70	1.770
438.90	1.740
439.10	1.571
439.30	2.369
439.50	1.430
439.71	2.072
439.91	1.871
440.11	2.440
440.31	2.171
440.51	1.672
440.72	1.530
440.92	1.994
441.12	1.831
441.32	2.952
441.52	2.988
441.72	2.924
441.93	1.831
442.13	3.039
442.33	1.472
442.53	2.828
442.73	2.012
442.94	1.400
443.14	1.236
443.34	2.659
443.54	2.394
443.74	2.415
443.94	2.462
444.15	2.113
444.35	1.591
444.55	2.078
444.75	2.360
444.95	2.402
445.15	2.083
445.36	2.327
445.56	1.415
445.76	2.347
445.96	2.355
446.16	1.941
446.36	0.968
446.57	2.651
446.77	1.479
446.97	2.623
447.17	2.659
447.37	1.942
447.57	2.728
447.77	2.465
447.98	1.917
448.18	3.218
448.38	1.708
448.58	2.919
448.78	2.224
448.98	2.349
449.18	1.911
449.39	1.834
449.59	1.484
449.79	1.889
449.99	1.667
450.19	2.182
450.39	1.658
450.59	2.238
450.79	1.791
451.00	2.709
451.20	2.540
451.40	1.983
451.60	0.395
451.80	2.156
452.00	1.472
452.20	2.028
452.40	1.718
452.61	1.424
452.81	2.363
453.01	2.327
453.21	1.239
453.41	1.849
453.61	1.724
453.81	1.378
454.01	2.129
454.21	1.680
454.42	2.590
454.62	1.715
454.82	1.700
455.02	1.413
455.22	1.289
455.42	2.064
455.62	1.211
455.82	1.629
456.02	1.567
456.23	1.336
456.43	1.470
456.63	1.578
456.83	1.584
457.03	2.733
457.23	1.980
457.43	1.069
457.63	1.006
457.83	1.474
458.03	1.129
458.23	1.836
458.43	1.647
458.64	1.405
458.84	1.746
459.04	1.724
459.24	1.463
459.44	1.860
459.64	2.241
459.84	1.852
460.04	2.044
460.24	2.023
460.44	2.149
460.64	1.885
460.84	1.536
461.04	2.790
461.24	2.437
461.45	3.287
461.65	2.352
461.85	2.710
462.05	2.414
462.25	3.038
462.45	2.632
462.65	2.272
462.85	1.992
463.05	1.889
463.25	1.600
463.45	2.051
463.65	1.099
463.85	1.763
464.05	1.362
464.25	1.376
464.45	2.088
464.65	1.102
464.85	1.379
465.05	1.785
465.26	1.810
465.46	1.637
465.66	1.581
465.86	2.234
466.06	2.210
466.26	1.499
466.46	0.954
466.66	1.792
466.86	1.849
467.06	1.668
467.26	1.058
467.46	1.382
467.66	1.462
467.86	2.212
468.06	1.794
468.26	1.682
468.46	1.217
468.66	1.064
468.86	1.258
469.06	1.815
469.26	1.076
469.46	1.678
469.66	1.104
469.86	2.102
470.06	1.689
470.26	2.483
470.46	1.518
470.66	2.375
470.86	1.109
471.06	2.444
471.26	1.181
471.46	1.316
471.66	1.739
471.86	2.101
472.06	1.224
472.26	2.394
472.46	2.620
472.66	2.039
472.86	1.433
473.06	1.733
473.26	1.912
473.46	1.015
473.66	1.816
473.86	2.154
474.06	1.846
474.26	1.499
474.46	0.931
474.66	1.839
474.86	1.889
475.06	1.838
475.26	1.264
475.46	1.815
475.66	1.352
475.86	1.933
476.06	1.759
476.26	2.761
476.46	1.306
476.66	1.829
476.86	1.295
477.06	1.374
477.26	1.405
477.46	1.897
477.65	1.065
477.85	2.633
478.05	1.760
478.25	2.482
478.45	1.223
478.65	1.620
478.85	1.495
479.05	2.498
479.25	2.036
479.45	2.564
479.65	1.352
479.85	2.228
480.05	1.863
480.25	2.537
480.45	1.433
480.65	3.098
480.85	1.331
481.05	1.880
481.25	2.568
481.44	2.133
481.64	1.246
481.84	2.846
482.04	2.080
482.24	2.277
482.44	1.363
482.64	2.458
482.84	2.333
483.04	3.327
483.24	2.877
483.44	3.550
483.64	3.581
483.84	4.016
484.04	4.235
484.23	4.508
484.43	4.377
484.63	4.777
484.83	4.260
485.03	4.977
485.23	4.626
485.43	5.181
485.63	4.502
485.83	4.683
486.03	4.396
486.23	4.764
486.42	3.993
486.62	4.705
486.82	3.538
487.02	4.177
487.22	3.502
487.42	4.479
487.62	3.878
487.82	4.518
488.02	3.812
488.22	4.819
488.41	3.956
488.61	4.660
488.81	4.240
489.01	4.590
489.21	4.090
489.41	4.642
489.61	3.996
489.81	4.622
490.01	4.312
490.20	4.500
490.40	3.538
490.60	3.871
490.80	3.652
491.00	3.944
491.20	3.546
491.40	3.414
491.60	3.258
491.79	3.790
491.99	3.991
492.19	4.136
492.39	4.246
492.59	4.596
492.79	4.313
492.99	4.504
493.19	4.173
493.38	4.408
493.58	3.542
493.78	3.818
493.98	4.276
494.18	4.325
494.38	3.885
494.58	3.464
494.77	1.889
494.97	3.245
495.17	3.068
495.37	3.604
495.57	2.935
495.77	2.433
495.96	2.729
496.16	1.893
496.36	2.877
496.56	3.315
496.76	2.052
496.96	2.804
497.15	2.491
497.35	2.519
497.55	2.525
497.75	2.823
497.95	2.036
498.15	3.358
498.34	2.661
498.54	3.012
498.74	3.386
498.94	3.332
499.14	1.885
499.34	3.584
499.53	2.728
499.73	3.408
499.93	2.879
500.13	2.865
500.33	1.974
500.52	2.807
500.72	2.521
500.92	2.142
501.12	1.926
501.32	2.395
501.52	2.658
501.71	2.354
501.91	2.189
502.11	2.083
502.31	1.958
502.51	2.977
502.70	1.522
502.90	2.263
503.10	2.369
503.30	3.121
503.50	3.025
503.69	2.697
503.89	2.612
504.09	2.700
504.29	2.031
504.48	3.061
504.68	3.130
504.88	3.453
505.08	1.818
505.28	2.679
505.47	2.050
505.67	3.689
505.87	2.745
506.07	2.283
506.27	1.843
506.46	3.309
506.66	1.591
506.86	2.424
507.06	3.111
507.25	2.773
507.45	3.018
507.65	2.696
507.85	2.033
508.04	2.835
508.24	2.853
508.44	2.243
508.64	2.377
508.83	2.967
509.03	2.287
509.23	3.170
509.43	2.103
509.63	3.488
509.82	2.184
510.02	3.235
510.22	2.173
510.42	3.279
510.61	2.702
510.81	2.768
511.01	2.662
511.21	3.153
511.40	2.801
511.60	2.818
511.80	2.816
511.99	3.253
512.19	3.446
512.39	3.770
512.59	2.340
512.78	3.787
512.98	3.222
513.18	2.411
513.38	2.939
513.57	3.781
513.77	3.025
513.97	2.878
514.17	2.698
514.36	2.800
514.56	2.501
514.76	3.398
514.95	2.607
515.15	2.963
515.35	2.151
515.55	3.261
515.74	3.638
515.94	3.896
516.14	2.307
516.33	2.944
516.53	2.865
516.73	3.000
516.93	3.095
517.12	3.980
517.32	1.503
517.52	3.132
517.71	2.549
517.91	3.142
518.11	3.234
518.30	3.413
518.50	2.494
518.70	3.194
518.90	3.266
519.09	4.606
519.29	3.839
519.49	4.182
519.68	3.396
519.88	4.527
520.08	3.947
520.27	4.563
520.47	3.654
520.67	3.932
520.86	4.389
521.06	4.823
521.26	2.507
521.45	4.028
521.65	3.250
521.85	3.374
522.04	2.333
522.24	3.385
522.44	2.413
522.63	3.984
522.83	2.422
523.03	4.160
523.22	2.911
523.42	3.722
523.62	3.707
523.81	3.756
524.01	3.132
524.21	3.116
524.40	2.047
524.60	3.414
524.80	2.629
524.99	2.960
525.19	3.088
525.39	4.190
525.58	3.093
525.78	4.204
525.98	3.599
526.17	4.730
526.37	4.085
526.57	4.579
526.76	4.417
526.96	5.035
527.15	4.130
527.35	4.123
527.55	3.485
527.74	5.545
527.94	4.835
528.14	4.850
528.33	4.817
528.53	5.340
528.72	5.310
528.92	5.916
529.12	5.468
529.31	5.859
529.51	5.705
529.71	5.939
529.90	5.723
530.10	5.724
530.29	5.875
530.49	6.050
530.69	5.707
530.88	6.098
531.08	5.703
531.28	5.739
531.47	5.495
531.67	5.685
531.86	4.857
532.06	5.464
532.26	4.503
532.45	5.458
532.65	4.664
532.84	5.355
533.04	4.206
533.24	5.054
533.43	4.362
533.63	5.754
533.82	5.115
534.02	5.560
534.22	5.320
534.41	5.484
534.61	5.336
534.80	5.634
535.00	5.451
535.19	5.661
535.39	5.382
535.59	5.591
535.78	4.450
535.98	5.555
536.17	4.126
536.37	4.845
536.57	4.674
536.76	5.211
536.96	4.188
537.15	5.400
537.35	4.002
537.54	5.150
537.74	4.375
537.93	5.429
538.13	4.052
538.33	5.410
538.52	4.446
538.72	4.669
538.91	3.506
539.11	4.626
539.30	3.094
539.50	4.628
539.70	3.732
539.89	5.742
540.09	4.094
540.28	4.931
540.48	3.056
540.67	4.950
540.87	4.456
541.06	5.371
541.26	4.680
541.45	6.019
541.65	5.455
541.85	5.992
542.04	5.154
542.24	6.081
542.43	6.047
542.63	6.214
542.82	6.204
543.02	6.610
543.21	5.684
543.41	6.305
543.60	5.895
543.80	6.411
543.99	5.071
544.19	5.839
544.38	5.001
544.58	6.132
544.77	5.184
544.97	6.251
545.16	4.168
545.36	5.488
545.56	4.762
545.75	5.553
545.95	4.721
546.14	5.789
546.34	3.761
546.53	6.046
546.73	4.827
546.92	5.437
547.12	4.380
547.31	5.600
547.51	3.504
547.70	5.880
547.90	4.065
548.09	4.457
548.29	4.661
548.48	5.032
548.68	4.847
548.87	5.898
549.07	4.730
549.26	4.683
549.46	4.279
549.65	4.958
549.84	3.693
550.04	3.913
550.23	3.145
550.43	3.538
550.62	3.984
550.82	3.872
551.01	2.984
551.21	4.650
551.40	3.190
551.60	4.097
551.79	4.027
551.99	3.677
552.18	3.204
552.38	4.463
552.57	3.986
552.77	5.232
552.96	3.196
553.16	5.632
553.35	3.905
553.54	5.839
553.74	4.169
553.93	5.822
554.13	4.817
554.32	5.071
554.52	3.686
554.71	5.315
554.91	3.691
555.10	4.964
555.29	3.772
555.49	4.912
555.68	3.320
555.88	5.117
556.07	3.428
556.27	5.141
556.46	4.241
556.66	4.173
556.85	5.127
557.04	5.105
557.24	3.688
557.43	5.465
557.63	4.686
557.82	4.187
558.02	4.477
558.21	5.765
558.40	3.748
558.60	4.822
558.79	4.607
558.99	5.269
559.18	4.751
559.38	4.401
559.57	4.924
559.76	5.328
559.96	5.218
560.15	4.972
560.35	4.611
560.54	5.096
560.73	3.844
560.93	6.183
561.12	4.681
561.32	6.273
561.51	4.368
561.70	5.524
561.90	4.459
562.09	6.563
562.29	5.015
562.48	6.188
562.67	5.768
562.87	6.032
563.06	5.610
563.26	6.341
563.45	5.372
563.64	6.871
563.84	5.932
564.03	6.447
564.23	6.042
564.42	7.172
564.61	5.591
564.81	6.918
565.00	5.860
565.20	7.365
565.39	7.021
565.58	7.750
565.78	6.578
565.97	8.122
566.16	7.685
566.36	10.093
566.55	7.254
566.74	8.014
566.94	7.056
567.13	8.802
567.33	7.480
567.52	8.351
567.71	7.273
567.91	8.347
568.10	7.942
568.29	8.368
568.49	7.011
568.68	8.349
568.87	7.042
569.07	8.862
569.26	8.219
569.45	8.908
569.65	7.411
569.84	9.060
570.04	7.920
570.23	8.676
570.42	6.422
570.62	7.989
570.81	7.655
571.00	9.637
571.20	7.977
571.39	9.648
571.58	8.817
571.78	10.084
571.97	8.349
572.16	9.719
572.36	8.566
572.55	9.408
572.74	9.302
572.94	9.398
573.13	9.466
573.32	10.911
573.51	9.215
573.71	10.379
573.90	8.219
574.09	10.614
574.29	8.796
574.48	10.193
574.67	9.489
574.87	9.909
575.06	8.625
575.25	9.801
575.45	8.599
575.64	9.495
575.83	8.433
576.03	10.091
576.22	9.402
576.41	10.393
576.60	8.399
576.80	9.225
576.99	8.834
577.18	10.256
577.38	8.235
577.57	9.578
577.76	10.203
577.95	9.544
578.15	7.238
578.34	10.247
578.53	7.927
578.73	10.504
578.92	7.709
579.11	8.619
579.30	7.945
579.50	8.716
579.69	8.571
579.88	8.458
580.08	6.401
580.27	8.962
580.46	8.308
580.65	9.249
580.85	6.738
581.04	7.951
581.23	7.453
581.42	8.910
581.62	6.477
581.81	9.205
582.00	6.913
582.19	7.956
582.39	7.567
582.58	7.349
582.77	7.652
582.96	8.520
583.16	6.898
583.35	8.108
583.54	7.686
583.73	7.266
583.93	7.269
584.12	7.172
584.31	7.191
584.50	6.965
584.70	6.362
584.89	8.417
585.08	6.138
585.27	8.909
585.47	6.453
585.66	7.718
585.85	7.016
586.04	7.373
586.24	6.388
586.43	5.971
586.62	6.685
586.81	9.341
587.00	5.629
587.20	7.613
587.39	6.717
587.58	9.419
587.77	7.943
587.97	7.040
588.16	6.740
588.35	7.721
588.54	5.641
588.73	7.097
588.93	8.693
589.12	8.096
589.31	6.249
589.50	7.596
589.69	7.957
589.89	7.742
590.08	6.175
590.27	7.412
590.46	6.788
590.65	6.982
590.85	5.277
591.04	8.347
591.23	7.688
591.42	8.207
591.61	6.527
591.81	7.477
592.00	6.205
592.19	8.497
592.38	5.717
592.57	7.487
592.77	7.656
592.96	6.507
593.15	7.255
593.34	7.788
593.53	6.733
593.72	7.278
593.92	5.605
594.11	9.398
594.30	6.477
594.49	7.955
594.68	7.624
594.87	7.466
595.07	6.446
595.26	8.890
595.45	5.786
595.64	9.386
595.83	6.544
596.02	8.538
596.22	6.819
596.41	9.079
596.60	7.527
596.79	8.928
596.98	7.208
597.17	10.289
597.37	7.363
597.56	9.409
597.75	7.942
597.94	10.523
598.13	9.069
598.32	9.246
598.51	8.290
598.71	10.104
598.90	7.039
599.09	9.257
599.28	6.807
599.47	9.662
599.66	7.144
599.85	8.993
600.05	6.321
600.24	9.969
600.43	7.656
600.62	8.004
600.81	7.816
601.00	9.335
601.19	5.765
601.38	8.587
601.58	7.106
601.77	7.331
601.96	7.627
602.15	9.224
602.34	7.721
602.53	9.859
602.72	5.856
602.91	8.798
603.10	7.549
603.30	8.921
603.49	6.815
603.68	9.766
603.87	7.234
604.06	8.277
604.25	8.949
604.44	9.638
604.63	7.954
604.82	10.818
605.01	9.097
605.21	10.330
605.40	9.051
605.59	10.403
605.78	9.519
605.97	10.845
606.16	9.005
606.35	10.940
606.54	7.805
606.73	10.299
606.92	7.725
607.11	9.711
607.30	7.506
607.50	10.463
607.69	7.822
607.88	9.170
608.07	6.820
608.26	9.089
608.45	8.860
608.64	9.847
608.83	7.478
609.02	8.573
609.21	9.150
609.40	10.561
609.59	7.602
609.78	9.405
609.97	7.978
610.16	9.177
610.35	8.365
610.55	9.800
610.74	9.071
610.93	8.826
611.12	8.352
611.31	8.807
611.50	6.371
611.69	8.058
611.88	6.905
612.07	9.168
612.26	6.024
612.45	7.242
612.64	6.880
612.83	8.104
613.02	6.201
613.21	6.764
613.40	6.146
613.59	7.152
613.78	4.759
613.97	6.206
614.16	5.730
614.35	7.037
614.54	5.545
614.73	6.081
614.92	5.008
615.11	6.613
615.30	5.447
615.49	4.623
615.68	4.358
615.87	4.925
616.07	4.238
616.26	5.358
616.45	5.774
616.64	6.668
616.83	6.322
617.02	5.588
617.21	5.134
617.40	4.620
617.59	5.240
617.78	5.466
617.97	5.117
618.16	4.219
618.35	4.047
618.54	5.257
618.73	5.735
618.92	5.086
619.11	5.627
619.30	5.050
619.49	3.521
619.68	6.645
619.86	4.704
620.05	6.050
620.24	4.689
620.43	4.495
620.62	2.291
620.81	5.523
621.00	5.023
621.19	6.071
621.38	4.534
621.57	6.388
621.76	4.929
621.95	5.533
622.14	5.235
622.33	6.414
622.52	4.017
622.71	6.064
622.90	4.106
623.09	4.681
623.28	4.927
623.47	6.158
623.66	4.243
623.85	5.541
624.04	4.629
624.23	4.766
624.42	4.685
624.61	3.499
624.80	3.296
624.99	5.700
625.18	4.197
625.36	5.031
625.55	4.767
625.74	4.089
625.93	3.421
626.12	5.273
626.31	5.737
626.50	4.849
626.69	4.968
626.88	6.461
627.07	4.932
627.26	4.855
627.45	3.827
627.64	6.009
627.83	5.407
628.02	5.623
628.20	4.870
628.39	5.693
628.58	5.317
628.77	6.847
628.96	5.068
629.15	4.119
629.34	4.665
629.53	4.224
629.72	4.161
629.91	7.168
630.10	4.515
630.29	3.879
630.47	3.180
630.66	3.463
630.85	4.854
631.04	5.246
631.23	4.310
631.42	4.391
631.61	3.572
631.80	6.854
631.99	5.046
632.18	4.026
632.36	2.482
632.55	4.829
632.74	3.810
632.93	4.551
633.12	4.022
633.31	3.863
633.50	4.012
633.69	4.481
633.88	1.892
634.06	4.311
634.25	4.209
634.44	4.458
634.63	3.913
634.82	6.268
635.01	4.200
635.20	4.434
635.39	3.057
635.57	4.248
635.76	3.575
635.95	4.160
636.14	2.242
636.33	5.946
636.52	3.374
636.71	3.798
636.89	3.366
637.08	4.052
637.27	4.045
637.46	2.860
637.65	4.177
637.84	5.165
638.03	2.716
638.21	5.052
638.40	4.720
638.59	2.973
638.78	2.885
638.97	4.632
639.16	4.710
639.34	3.387
639.53	2.733
639.72	4.889
639.91	2.185
640.10	2.734
640.29	3.360
640.47	5.365
640.66	5.160
640.85	6.001
641.04	2.566
641.23	4.093
641.42	3.307
641.60	3.236
641.79	3.966
641.98	3.510
642.17	4.223
642.36	4.805
642.54	2.968
642.73	2.550
642.92	2.700
643.11	2.169
643.30	2.571
643.49	3.562
643.67	3.828
643.86	4.236
644.05	2.836
644.24	3.581
644.43	3.949
644.61	4.294
644.80	2.661
644.99	2.668
645.18	5.420
645.37	3.984
645.55	2.855
645.74	4.179
645.93	4.194
646.12	3.386
646.31	4.186
646.49	2.507
646.68	3.234
646.87	2.482
647.06	3.270
647.24	4.482
647.43	2.691
647.62	4.303
647.81	2.501
648.00	3.759
648.18	1.845
648.37	4.382
648.56	3.886
648.75	3.155
648.93	4.453
649.12	3.270
649.31	3.455
649.50	3.239
649.68	3.755
649.87	2.572
650.06	0.872
650.25	3.905
650.43	3.281
650.62	4.262
650.81	4.952
651.00	4.357
651.18	2.975
651.37	4.825
651.56	3.985
651.75	3.731
651.93	3.146
652.12	3.109
652.31	2.805
652.50	2.478
652.68	5.081
652.87	4.042
653.06	3.798
653.25	5.185
653.43	3.309
653.62	4.008
653.81	3.390
654.00	4.637
654.18	2.132
654.37	4.545
654.56	3.586
654.74	4.673
654.93	2.326
655.12	2.698
655.31	4.206
655.49	3.319
655.68	2.302
655.87	3.153
656.05	3.948
656.24	2.900
656.43	0.958
656.62	4.225
656.80	1.238
656.99	1.972
657.18	1.148
657.36	3.579
657.55	4.173
657.74	2.460
657.93	4.459
658.11	4.077
658.30	2.117
658.49	3.040
658.67	2.431
658.86	2.464
659.05	3.370
659.23	2.404
659.42	2.848
659.61	3.609
659.79	2.969
659.98	4.135
660.17	3.376
660.35	2.924
660.54	3.291
660.73	5.917
660.91	4.027
661.10	2.871
661.29	2.327
661.47	3.272
661.66	3.260
661.85	4.058
662.03	2.560
662.22	0.861
662.41	0.879
662.59	3.711
662.78	1.862
662.97	1.597
663.15	2.998
663.34	1.890
663.53	2.365
663.71	1.399
663.90	0.913
664.09	2.936
664.27	1.720
664.46	1.965
664.65	2.200
664.83	2.354
665.02	3.027
665.21	1.549
665.39	3.540
665.58	1.656
665.77	1.828
665.95	1.667
666.14	1.372
666.32	2.201
666.51	1.292
666.70	1.624
666.88	2.842
667.07	1.532
667.26	2.386
667.44	1.951
667.63	1.927
667.81	1.862
668.00	3.692
668.19	4.224
668.37	3.245
668.56	4.367
668.75	3.211
668.93	2.320
669.12	3.556
669.30	3.410
669.49	2.295
669.68	2.339
669.86	1.990
670.05	1.699
670.23	1.535
670.42	1.771
670.61	2.797
670.79	1.788
670.98	3.501
671.16	2.584
671.35	3.690
671.54	1.810
671.72	0.674
671.91	1.560
672.09	2.116
672.28	3.048
672.46	3.457
672.65	1.591
672.84	1.996
673.02	2.415
673.21	2.963
673.39	1.373
673.58	4.454
673.77	3.558
673.95	2.464
674.14	3.722
674.32	2.051
674.51	4.363
674.69	2.814
674.88	1.868
675.07	3.639
675.25	5.169
675.44	1.430
675.62	2.480
675.81	0.924
675.99	6.672
676.18	2.848
676.36	3.341
676.55	0.645
676.74	3.116
676.92	5.004
677.11	3.507
677.29	4.258
677.48	1.966
677.66	3.235
677.85	3.783
678.03	2.150
678.22	4.188
678.40	3.452
678.59	2.026
678.78	2.584
678.96	3.618
679.15	2.615
679.33	4.249
679.52	4.942
679.70	2.078
679.89	2.439
680.07	2.386
680.26	1.799
680.44	3.254
680.63	3.718
680.81	3.399
681.00	2.293
681.18	4.017
681.37	3.900
681.55	5.153
681.74	5.918
681.92	4.661
682.11	3.996
682.29	3.929
682.48	3.509
682.66	3.264
682.85	2.998
683.03	3.701
683.22	5.704
683.40	6.411
683.59	4.711
683.77	3.553
683.96	3.817
684.14	5.307
684.33	1.679
684.51	6.198
684.70	4.379
684.88	6.191
685.07	6.390
685.25	4.510
685.44	3.505
685.62	5.219
685.81	3.273
685.99	4.912
686.18	3.277
686.36	5.289
686.55	2.137
686.73	5.806
686.92	7.925
687.10	5.107
687.29	6.044
687.47	4.911
687.65	6.296
687.84	4.436
688.02	7.720
688.21	8.398
688.39	4.490
688.58	8.643
688.76	4.849
688.95	4.043
689.13	3.690
689.32	6.140
689.50	4.492
689.68	4.875
689.87	5.854
690.05	5.625
690.24	5.711
690.42	7.330
690.61	6.009
690.79	3.051
690.98	7.587
691.16	5.680
691.34	2.835
691.53	7.605
691.71	6.280
691.90	6.272
692.08	5.781
692.27	7.832
692.45	9.244
692.63	5.016
692.82	8.638
693.00	8.231
693.19	5.586
693.37	6.010
693.56	6.915
693.74	9.330
693.92	7.909
694.11	7.895
694.29	6.838
694.48	11.027
694.66	5.721
694.84	10.113
695.03	6.795
695.21	10.863
695.40	10.721
695.58	11.618
695.76	6.986
695.95	8.817
696.13	6.663
696.32	8.085
696.50	17.704
696.68	11.363
696.87	9.617
697.05	10.522
697.24	9.884
697.42	15.248
697.60	9.857
697.79	10.402
697.97	10.979
698.16	16.388
698.34	9.770
698.52	15.118
698.71	14.315
698.89	14.353
699.07	12.851
699.26	14.025
699.44	16.095
699.63	17.000
699.81	13.256
699.99	17.676
700.18	17.981
700.36	17.185
700.54	15.536
700.73	16.735
700.91	14.286
701.09	18.960
701.28	15.106
701.46	18.350
701.64	14.370
701.83	16.776
702.01	12.990
702.20	18.463
702.38	17.352
702.56	16.422
702.75	14.293
702.93	14.570
703.11	13.752
703.30	17.576
703.48	17.516
703.66	16.930
703.85	14.332
704.03	19.782
704.21	16.703
704.40	20.736
704.58	14.549
704.76	17.554
704.95	16.385
705.13	17.842
705.31	14.213
705.50	18.747
705.68	13.596
705.86	22.351
706.04	16.025
706.23	19.183
706.41	15.531
706.59	16.594
706.78	15.717
706.96	19.840
707.14	20.131
707.33	18.732
707.51	17.311
707.69	20.886
707.88	17.049
708.06	21.098
708.24	17.998
708.42	22.450
708.61	19.305
708.79	19.488
708.97	19.813
709.16	23.611
709.34	14.233
709.52	20.780
709.71	20.870
709.89	23.188
710.07	16.728
710.25	24.270
710.44	18.187
710.62	20.838
710.80	20.670
710.98	24.547
711.17	20.321
711.35	22.734
711.53	18.293
711.72	21.800
711.90	21.842
712.08	21.421
712.26	22.233
712.45	24.405
712.63	23.016
712.81	24.377
712.99	20.617
713.18	25.952
713.36	25.765
713.54	19.143
713.72	18.010
713.91	17.491
714.09	18.941
714.27	22.338
714.45	21.228
714.64	24.739
714.82	19.823
715.00	23.077
715.18	16.863
715.37	24.363
715.55	21.708
715.73	25.013
715.91	21.329
716.10	25.363
716.28	19.193
716.46	26.945
716.64	20.630
716.83	20.707
717.01	20.900
717.19	21.407
717.37	19.172
717.55	23.797
717.74	21.033
717.92	20.145
718.10	16.553
718.28	21.111
718.47	17.609
718.65	22.499
718.83	19.931
719.01	21.459
719.19	18.153
719.38	20.664
719.56	18.722
719.74	20.524
719.92	13.480
720.10	15.669
720.29	20.987
720.47	20.437
720.65	16.318
720.83	21.484
721.01	16.886
721.20	18.243
721.38	18.114
721.56	17.355
721.74	16.980
721.92	21.487
722.11	16.943
722.29	21.260
722.47	19.408
722.65	19.944
722.83	18.366
723.01	21.067
723.20	16.920
723.38	17.569
723.56	16.739
723.74	24.766
723.92	18.986
724.10	20.780
724.29	13.182
724.47	20.000
724.65	16.159
724.83	20.101
725.01	18.117
725.19	22.903
725.38	14.668
725.56	19.703
725.74	19.343
725.92	24.753
726.10	17.710
726.28	19.792
726.46	18.565
726.65	18.873
726.83	20.192
727.01	17.246
727.19	21.663
727.37	24.306
727.55	20.270
727.73	21.133
727.92	21.458
728.10	23.829
728.28	15.295
728.46	22.456
728.64	19.501
728.82	20.828
729.00	17.761
729.19	23.219
729.37	20.623
729.55	22.866
729.73	16.732
729.91	23.006
730.09	24.165
730.27	23.350
730.45	19.702
730.63	21.494
730.82	16.904
731.00	19.894
731.18	19.388
731.36	24.317
731.54	16.010
731.72	22.687
731.90	17.927
732.08	22.308
732.26	19.200
732.45	24.399
732.63	24.003
732.81	23.552
732.99	19.800
733.17	25.430
733.35	20.743
733.53	23.797
733.71	20.820
733.89	24.672
734.07	22.137
734.25	28.901
734.44	21.031
734.62	24.694
734.80	22.215
734.98	23.900
735.16	20.917
735.34	22.743
735.52	20.549
735.70	23.094
735.88	22.452
736.06	24.610
736.24	26.281
736.42	22.926
736.60	24.138
736.78	26.577
736.97	23.962
737.15	26.463
737.33	18.519
737.51	22.159
737.69	20.427
737.87	22.808
738.05	22.015
738.23	25.732
738.41	19.762
738.59	24.545
738.77	20.034
738.95	28.467
739.13	20.032
739.31	24.173
739.49	20.494
739.67	28.502
739.85	23.725
740.03	22.717
740.21	22.265
740.39	23.923
740.57	25.963
740.75	23.242
740.93	22.659
741.11	27.492
741.30	23.887
741.48	25.511
741.66	19.816
741.84	27.159
742.02	20.427
742.20	25.400
742.38	27.691
742.56	28.684
742.74	19.387
742.92	24.671
743.10	21.072
743.28	25.894
743.46	22.004
743.64	23.377
743.82	19.746
744.00	21.518
744.18	30.931
744.36	21.511
744.54	20.949
744.72	27.179
744.90	22.624
745.08	26.448
745.26	29.171
745.44	27.590
745.62	22.860
745.80	26.006
745.98	25.214
746.16	21.816
746.34	25.907
746.52	30.225
746.70	25.025
746.87	25.641
747.05	20.638
747.23	23.824
747.41	22.660
747.59	25.255
747.77	20.482
747.95	23.378
748.13	19.855
748.31	23.378
748.49	23.394
748.67	22.539
748.85	24.845
749.03	24.400
749.21	22.994
749.39	31.194
749.57	19.981
749.75	24.242
749.93	26.004
750.11	26.981
750.29	24.358
750.47	29.087
750.65	22.537
750.83	26.520
751.01	16.985
751.18	26.417
751.36	19.239
751.54	22.944
751.72	22.478
751.90	22.578
752.08	16.683
752.26	24.032
752.44	25.438
752.62	24.059
752.80	24.127
752.98	26.824
753.16	28.000
753.34	19.536
753.52	20.628
753.69	25.668
753.87	21.531
754.05	24.567
754.23	20.945
754.41	25.980
754.59	20.197
754.77	25.826
754.95	24.444
755.13	29.123
755.31	24.696
755.49	25.000
755.66	22.155
755.84	22.578
756.02	24.230
756.20	29.434
756.38	21.712
756.56	25.509
756.74	20.120
756.92	25.764
757.10	22.051
757.28	26.834
757.45	24.762
757.63	22.088
757.81	19.231
757.99	28.349
758.17	18.977
758.35	22.453
758.53	25.709
758.71	24.874
758.88	22.937
759.06	18.842
759.24	19.606
759.42	17.157
759.60	19.281
759.78	16.633
759.96	11.471
760.13	17.235
760.31	15.171
760.49	17.916
760.67	15.254
760.85	14.149
761.03	8.350
761.21	16.714
761.38	7.260
761.56	16.325
761.74	9.542
761.92	16.796
762.10	9.133
762.28	18.440
762.46	7.593
762.63	11.253
762.81	8.687
762.99	15.144
763.17	10.833
763.35	15.551
763.53	13.562
763.70	16.166
763.88	12.620
764.06	13.394
764.24	12.435
764.42	18.334
764.60	14.423
764.77	15.347
764.95	15.668
765.13	18.318
765.31	15.859
765.49	18.886
765.66	13.499
765.84	20.461
766.02	17.223
766.20	18.236
766.38	18.335
766.56	16.071
766.73	17.358
766.91	20.151
767.09	15.412
767.27	19.490
767.45	19.927
767.62	20.490
767.80	17.171
767.98	25.323
768.16	18.484
768.33	22.211
768.51	18.632
768.69	18.328
768.87	19.469
769.05	21.379
769.22	16.759
769.40	25.452
769.58	21.491
769.76	22.711
769.94	20.976
770.11	23.952
770.29	21.393
770.47	21.894
770.65	22.518
770.82	27.590
771.00	21.189
771.18	24.756
771.36	20.312
771.53	15.301
771.71	18.553
771.89	20.816
772.07	20.765
772.25	28.315
772.42	25.197
772.60	29.222
772.78	15.675
772.96	28.608
773.13	24.176
773.31	28.495
773.49	22.787
773.67	11.792
773.84	22.478
774.02	23.259
774.20	13.285
774.37	21.280
774.55	16.835
774.73	21.340
774.91	21.700
775.08	23.155
775.26	23.246
775.44	28.073
775.62	23.547
775.79	16.212
775.97	19.231
776.15	19.318
776.32	21.726
776.50	20.775
776.68	24.313
776.86	21.894
777.03	20.570
777.21	18.210
777.39	22.496
777.56	25.665
777.74	21.235
777.92	26.843
778.10	18.006
778.27	29.767
778.45	18.569
778.63	28.120
778.80	21.019
778.98	24.822
779.16	28.141
779.34	18.287
779.51	20.399
779.69	16.887
779.87	17.819
780.04	21.972
780.22	19.559
780.40	22.946
780.57	22.169
780.75	18.296
780.93	24.490
781.10	27.592
781.28	24.053
781.46	10.854
781.63	20.992
781.81	22.239
781.99	14.638
782.16	22.682
782.34	22.222
782.52	24.316
782.69	26.497
782.87	16.385
783.05	25.212
783.22	23.214
783.40	20.820
783.58	22.357
783.75	19.244
783.93	23.980
784.11	25.132
784.28	27.682
784.46	16.226
784.64	25.536
784.81	17.742
784.99	24.477
785.17	22.718
785.34	18.861
785.52	20.952
785.69	12.996
785.87	13.594
786.05	22.143
786.22	20.189
786.40	22.628
786.58	21.477
786.75	23.290
786.93	22.711
787.11	15.734
787.28	23.883
787.46	18.592
787.63	21.569
787.81	16.211
787.99	18.453
788.16	18.361
788.34	14.309
788.51	22.427
788.69	20.896
788.87	14.970
789.04	18.816
789.22	19.303
789.39	12.685
789.57	12.162
789.75	5.950
789.92	21.239
790.10	18.077
790.27	21.000
790.45	15.798
790.63	19.936
790.80	21.197
790.98	19.014
791.15	24.068
791.33	17.129
791.51	17.658
791.68	15.440
791.86	22.957
792.03	20.954
792.21	11.949
792.39	24.291
792.56	17.627
792.74	19.282
792.91	21.296
793.09	19.508
793.26	20.755
793.44	19.355
793.62	21.260
793.79	13.320
793.97	24.561
794.14	17.215
794.32	23.293
794.49	22.025
794.67	22.358
794.84	17.191
795.02	24.575
795.20	6.994
795.37	28.600
795.55	24.412
795.72	15.299
795.90	14.815
796.07	21.627
796.25	21.338
796.42	15.909
796.60	12.187
796.77	10.498
796.95	17.902
797.13	14.783
797.30	28.315
797.48	13.839
797.65	17.657
797.83	13.677
798.00	17.537
798.18	18.566
798.35	16.552
798.53	23.689
798.70	16.991
798.88	24.405
799.05	27.807
799.23	12.204
799.40	8.185
799.58	24.000
799.75	22.164
799.93	16.444
800.10	20.865
800.28	13.043
800.45	23.742
800.63	16.350
800.80	25.360
800.98	25.331
801.15	18.412
801.33	10.271
801.50	19.355
801.68	16.304
801.85	19.884
802.03	12.425
802.20	23.030
802.38	25.843
802.55	19.710
802.73	21.387
802.90	18.182
803.08	16.436
803.25	17.836
803.43	17.623
803.60	14.570
803.78	17.289
803.95	16.883
804.13	17.748
804.30	10.962
804.48	21.179
804.65	11.685
804.83	20.322
805.00	16.336
805.17	16.844
805.35	9.208
805.52	15.479
805.70	17.220
805.87	23.473
806.05	22.490
806.22	18.958
806.40	14.745
806.57	27.132
806.75	16.803
806.92	25.309
807.09	24.211
807.27	29.796
807.44	18.075
807.62	15.779
807.79	18.879
807.97	14.400
808.14	10.603
808.31	13.596
808.49	16.785
808.66	8.642
808.84	11.469
809.01	5.287
809.19	8.920
809.36	16.701
809.53	20.366
809.71	22.222
809.88	30.612
810.06	15.755
810.23	23.163
810.41	24.109
810.58	23.301
810.75	5.263
810.93	17.352
811.10	7.642
811.28	9.888
811.45	18.045
811.62	11.509
811.80	12.060
811.97	27.889
812.15	15.718
812.32	16.492
812.49	26.781
812.67	21.718
812.84	16.587
813.02	18.254
813.19	18.644
813.36	14.641
813.54	7.809
813.71	13.660
813.89	18.394
814.06	7.769
814.23	24.118
814.41	8.333
814.58	17.631
814.75	21.253
814.93	23.762
815.10	21.485
815.28	14.925
815.45	22.014
815.62	17.529
815.80	2.924
815.97	6.250
816.14	10.875
816.32	22.997
816.49	6.069
816.66	6.933
816.84	13.895
817.01	22.030
817.18	18.538
817.36	15.167
817.53	23.058
817.71	23.136
817.88	18.519
818.05	22.573
818.23	10.949
818.40	8.533
818.57	17.312
818.75	19.579
818.92	19.298
819.09	3.778
819.27	10.750
819.44	6.651
819.61	2.540
819.79	11.857
819.96	0.457
820.13	8.835
820.31	18.214
820.48	24.440
820.65	6.789
820.82	7.721
821.00	14.408
821.17	8.185
821.34	13.393
821.52	12.168
821.69	11.481
821.86	8.159
822.04	16.328
822.21	12.811
822.38	15.426
822.56	11.325
822.73	15.314
822.90	16.682
823.07	17.892
823.25	17.688
823.42	17.665
823.59	18.889
823.77	20.445
823.94	17.024
824.11	20.474
824.29	16.158
824.46	19.725
824.63	16.743
824.80	14.625
824.98	16.205
825.15	16.856
825.32	11.402
825.49	14.025
825.67	12.009
825.84	14.201
826.01	13.500
826.19	15.667
826.36	10.000
826.53	15.460
826.70	12.919
826.88	14.028
827.05	9.006
827.22	8.893
827.39	16.803
827.57	12.336
827.74	11.084
827.91	14.101
828.08	12.012
828.26	12.311
828.43	10.723
828.60	14.263
828.77	14.553
828.95	13.432
829.12	10.957
829.29	12.582
829.46	14.476
829.64	10.191
829.81	8.627
829.98	13.433
830.15	11.083
830.32	11.549
830.50	6.977
830.67	8.278
830.84	11.594
831.01	7.965
831.19	17.593
831.36	10.956
831.53	9.865
831.70	14.253
831.87	14.195
832.05	20.327
832.22	22.444
832.39	10.875
832.56	18.206
832.74	2.304
832.91	4.489
833.08	21.154
833.25	7.635
833.42	16.910
833.60	14.727
833.77	6.597
833.94	10.064
834.11	9.115
834.28	12.624
834.45	9.611
834.63	11.937
834.80	16.173
834.97	16.329
835.14	11.902
835.31	7.850
835.49	11.579
835.66	8.625
835.83	4.225
836.00	14.465
836.17	15.414
836.34	14.495
836.52	8.742
836.69	18.681
836.86	5.755
837.03	9.416
837.20	12.593
837.37	12.205
837.55	15.625
837.72	6.150
837.89	20.707
838.06	26.000
838.23	18.137
838.40	15.663
838.58	10.951
838.75	4.290
838.92	26.006
839.09	19.931
839.26	15.182
839.43	32.082
839.60	23.423
839.78	29.221
839.95	19.619
840.12	22.526
840.29	22.712
840.46	25.460
840.63	26.959
840.80	17.799
840.98	30.449
841.15	21.562
841.32	29.697
841.49	11.438
841.66	21.519
841.83	24.845
842.00	14.618
842.17	26.705
842.34	14.189
842.52	25.333
842.69	24.746
842.86	22.868
843.03	29.889
843.20	14.943
843.37	37.638
843.54	7.491
843.71	16.518
843.88	31.111
844.06	34.000
844.23	8.095
844.40	31.111
844.57	37.569
844.74	34.146
844.91	29.952
845.08	25.000
845.25	20.290
845.42	18.280
845.59	13.158
845.76	22.564
845.94	27.228
846.11	35.616
846.28	25.595
846.45	53.933
846.62	35.714
846.79	34.247
846.96	15.432
847.13	34.884
847.30	7.586
847.47	-8.633
847.64	44.186
847.81	28.814
847.98	20.101
848.15	61.314
848.32	27.044
848.50	57.485
848.67	23.563
848.84	-3.425
849.01	33.520
849.18	25.258
849.35	42.187
849.52	7.759
849.69	11.921
849.86	38.095
850.03	26.119
850.20	40.936
850.37	31.092
850.54	32.402
850.71	52.318
850.88	32.402
851.05	44.068
851.22	18.539
851.39	50.450
851.56	48.214
851.73	43.396
851.90	27.329
852.07	62.406
852.24	32.895
852.41	-0.952
852.58	30.986
852.75	17.241
852.92	46.341
853.09	29.688
853.26	32.804
853.43	20.755
853.60	23.596
853.77	22.785
853.94	37.956
854.11	19.580
854.28	28.800
854.45	22.656
854.62	40.102
854.79	50.327
854.96	45.600
855.13	16.374
855.30	44.898
855.47	17.241
855.64	21.053
855.81	38.172
855.98	26.190
856.15	18.018
856.32	-1.887
856.49	43.411
856.66	4.196
856.83	66.667
857.00	35.948
857.17	26.154
857.34	11.579
857.51	40.288
857.68	38.919
857.85	26.136
858.02	21.481
858.19	20.721
858.36	49.091
858.53	17.419
858.70	42.515
858.87	20.253
859.04	42.742
859.21	29.730
859.38	11.404
859.55	50.746
859.72	3.448
859.89	33.813
860.05	55.856
860.22	36.126
860.39	51.786
860.56	29.771
860.73	67.480
860.90	3.670
861.07	23.026
861.24	55.263
861.41	35.185
861.58	16.667
861.75	49.630
861.92	38.158
862.09	16.296
862.26	9.402
862.43	25.743
862.59	33.824
862.76	48.951
862.93	11.236
863.10	23.810
863.27	17.094
863.44	-18.391
863.61	30.657
863.78	52.000
863.95	40.523
864.12	34.483
864.29	17.094
864.45	17.241
864.62	36.723
864.79	-28.682
864.96	29.268
865.13	12.613
865.30	59.627
865.47	34.146
865.64	24.460
865.81	25.954
865.97	56.667
866.14	36.054
866.31	11.667
866.48	30.464
866.65	17.949
866.82	8.228
866.99	43.590
867.16	64.662
867.33	20.430
867.49	12.963
867.66	5.155
867.83	38.583
868.00	58.219
868.17	57.851
868.34	1.754
868.51	29.524
868.67	34.177
868.84	11.667
869.01	32.800
869.18	25.532
869.35	28.682
869.52	26.190
869.69	17.808
869.85	29.907
870.02	27.885
870.19	50.847
870.36	52.414
870.53	2.857
870.70	46.541
870.86	50.000
871.03	12.346
871.20	29.358
871.37	22.414
871.54	45.270
871.71	22.143
871.87	27.044
872.04	44.571
872.21	59.130
872.38	43.089
872.55	38.272
872.72	9.375
872.88	35.754
873.05	8.046
873.22	45.578
873.39	52.041
873.56	24.852
873.72	41.176
873.89	13.043
874.06	1.493
874.23	37.288
874.40	-20.000
874.56	74.737
874.73	1.220
874.90	48.305
875.07	17.143
875.24	40.373
875.40	72.269
875.57	39.450
875.74	44.800
875.91	-13.761
876.08	34.783
876.24	-12.791
876.41	108.000
876.58	44.149
876.75	31.206
876.92	21.324
877.08	44.853
877.25	32.174
877.42	48.438
877.59	46.939
877.75	30.667
877.92	16.071
878.09	33.333
878.26	19.162
878.42	25.625
878.59	63.478
878.76	35.526
878.93	41.791
879.09	4.040
879.26	20.732
879.43	29.730
879.60	17.483
879.76	17.614
879.93	24.444
880.10	16.667
880.27	0.000
880.43	34.637
880.60	7.763
880.77	-5.682
880.94	-9.950
881.10	18.289
881.27	19.672
881.44	12.465
881.61	19.955
881.77	10.134
881.94	5.128
882.11	4.930
882.28	6.796
882.44	7.851
882.61	13.643
882.78	13.910
882.94	13.043
883.11	13.664
883.28	9.927
883.45	12.320
883.61	12.845
883.78	7.774
883.95	13.380
884.11	15.709
884.28	11.598
>>>>>End Processed Spectral Data<<<<<
