SpectraSuite Data File
++++++++++++++++++++++++++++++++++++
Date: Sat Sep 21 03:08:27 EST 2019
User: sgrac
Dark Spectrum Present: Yes
Reference Spectrum Present: Yes
Number of Sampled Component Spectra: 1
Spectrometers: USB4E01596
Integration Time (usec): 100000 (USB4E01596)
Spectra Averaged: 1 (USB4E01596)
Boxcar Smoothing: 0 (USB4E01596)
Correct for Electrical Dark: No (USB4E01596)
Strobe/Lamp Enabled: Yes (USB4E01596)
Correct for Detector Non-linearity: No (USB4E01596)
Correct for Stray Light: No (USB4E01596)
Number of Pixels in Processed Spectrum: 3648
>>>>>Begin Processed Spectral Data<<<<<
178.44	-128.571
178.66	-128.571
178.87	-128.571
179.09	-342.857
179.30	-376.923
179.52	0.000
179.74	-850.000
179.95	983.333
180.17	373.333
180.38	5300.000
180.60	0.000
180.82	575.000
181.03	-342.105
181.25	230.435
181.46	-19.355
181.68	204.167
181.89	4700.000
182.11	180.000
182.33	-168.889
182.54	-206.250
182.76	-2450.000
182.97	70.000
183.19	1225.000
183.40	148.276
183.62	-40.741
183.84	-200.000
184.05	86.957
184.27	275.000
184.48	1214.286
184.70	208.000
184.91	-406.667
185.13	151.111
185.34	14.286
185.56	151.667
185.78	0.000
185.99	526.667
186.21	289.655
186.42	206.667
186.64	143.548
186.85	196.296
187.07	105.455
187.28	433.333
187.50	-146.667
187.72	1220.000
187.93	-3800.000
188.15	212.000
188.36	-123.529
188.58	-2250.000
188.79	209.091
189.01	238.889
189.22	1120.000
189.44	2100.000
189.65	186.667
189.87	725.000
190.09	-1800.000
190.30	368.750
190.52	-3750.000
190.73	142.857
190.95	171.429
191.16	237.778
191.38	340.000
191.59	69.048
191.81	97.222
192.02	131.915
192.24	541.176
192.45	-780.000
192.67	274.286
192.88	341.667
193.10	120.000
193.31	455.000
193.53	-7800.000
193.74	80.488
193.96	416.667
194.18	154.839
194.39	-166.667
194.61	236.842
194.82	409.524
195.04	209.524
195.25	3050.000
195.47	112.195
195.68	195.745
195.90	260.000
196.11	138.182
196.33	104.255
196.54	-2633.333
196.76	275.000
196.97	-2133.333
197.19	196.429
197.40	191.176
197.62	126.563
197.83	177.027
198.05	-252.632
198.26	291.429
198.48	161.111
198.69	109.302
198.91	186.275
199.12	-68.571
199.34	-300.000
199.55	3500.000
199.77	675.000
199.98	224.000
200.20	108.451
200.41	257.143
200.63	-566.667
200.84	141.176
201.06	523.077
201.27	243.243
201.49	75.000
201.70	259.259
201.91	167.391
202.13	56.522
202.34	215.094
202.56	-928.571
202.77	344.444
202.99	335.714
203.20	2400.000
203.42	925.000
203.63	172.093
203.85	88.571
204.06	246.296
204.28	-520.000
204.49	214.286
204.71	100.000
204.92	0.000
205.14	-228.571
205.35	411.111
205.56	-1940.000
205.78	233.333
205.99	380.000
206.21	-61.290
206.42	251.613
206.64	85.714
206.85	675.000
207.07	-292.308
207.28	328.571
207.50	-300.000
207.71	120.513
207.93	88.636
208.14	247.059
208.35	310.526
208.57	-6300.000
208.78	461.538
209.00	283.333
209.21	-3800.000
209.43	196.552
209.64	170.588
209.86	342.857
210.07	0.000
210.28	-388.235
210.50	122.449
210.71	105.263
210.93	276.190
211.14	-183.333
211.36	-132.258
211.57	-123.810
211.78	-34.783
212.00	0.000
212.21	244.186
212.43	-113.636
212.64	84.483
212.86	-625.000
213.07	-163.636
213.29	155.263
213.50	4100.000
213.71	143.396
213.93	642.857
214.14	68.182
214.36	2900.000
214.57	292.308
214.78	362.500
215.00	3300.000
215.21	180.556
215.43	292.000
215.64	87.179
215.86	228.571
216.07	7400.000
216.28	232.000
216.50	-471.429
216.71	-740.000
216.93	185.106
217.14	115.625
217.35	181.481
217.57	178.571
217.78	712.500
218.00	-60.000
218.21	57.895
218.42	-3100.000
218.64	547.059
218.85	-455.556
219.07	385.714
219.28	875.000
219.49	73.684
219.71	1000.000
219.92	119.444
220.14	183.333
220.35	315.000
220.56	179.487
220.78	229.412
220.99	-2500.000
221.21	142.857
221.42	216.667
221.63	175.000
221.85	103.226
222.06	225.000
222.28	229.545
222.49	-1900.000
222.70	0.000
222.92	261.111
223.13	143.333
223.34	-1400.000
223.56	139.474
223.77	65.169
223.99	56.410
224.20	123.810
224.41	205.405
224.63	208.333
224.84	94.828
225.05	46.429
225.27	85.714
225.48	95.652
225.69	400.000
225.91	103.704
226.12	138.889
226.34	95.098
226.55	101.852
226.76	162.903
226.98	84.000
227.19	20.455
227.40	59.504
227.62	93.902
227.83	37.000
228.04	50.549
228.26	19.802
228.47	62.069
228.69	20.395
228.90	15.493
229.11	47.407
229.33	14.493
229.54	28.289
229.75	20.000
229.97	16.309
230.18	12.545
230.39	7.173
230.61	17.610
230.82	17.012
231.03	5.394
231.25	24.916
231.46	31.387
231.67	31.621
231.89	36.863
232.10	12.146
232.31	32.692
232.53	20.904
232.74	39.583
232.95	28.313
233.17	36.416
233.38	14.925
233.59	52.941
233.81	45.631
234.02	36.184
234.23	34.759
234.45	35.526
234.66	18.079
234.87	27.517
235.09	51.111
235.30	17.816
235.51	43.204
235.73	18.239
235.94	33.161
236.15	36.735
236.36	35.979
236.58	20.379
236.79	44.503
237.00	22.222
237.22	58.642
237.43	31.863
237.64	6.987
237.86	35.326
238.07	54.271
238.28	21.311
238.50	12.609
238.71	15.385
238.92	6.548
239.13	20.571
239.35	37.063
239.56	36.979
239.77	40.976
239.99	25.943
240.20	-1.579
240.41	23.276
240.63	25.911
240.84	23.506
241.05	15.693
241.26	30.579
241.48	20.059
241.69	10.443
241.90	11.831
242.12	11.735
242.33	9.052
242.54	7.676
242.75	15.180
242.97	15.000
243.18	7.407
243.39	11.310
243.61	13.193
243.82	8.392
244.03	8.633
244.24	3.374
244.46	8.444
244.67	6.737
244.88	9.859
245.09	13.523
245.31	5.566
245.52	26.838
245.73	17.510
245.95	10.661
246.16	2.169
246.37	15.310
246.58	13.458
246.80	11.005
247.01	6.033
247.22	8.831
247.43	6.292
247.65	8.405
247.86	3.617
248.07	3.595
248.28	7.346
248.50	5.917
248.71	7.269
248.92	5.022
249.13	6.007
249.35	7.031
249.56	7.744
249.77	4.488
249.98	2.581
250.20	4.444
250.41	9.274
250.62	7.952
250.83	6.038
251.05	4.494
251.26	8.530
251.47	11.351
251.68	14.442
251.90	4.891
252.11	13.415
252.32	7.757
252.53	10.859
252.75	1.280
252.96	13.462
253.17	9.709
253.38	8.514
253.59	7.062
253.81	14.266
254.02	9.201
254.23	10.015
254.44	6.750
254.66	9.256
254.87	11.552
255.08	3.663
255.29	15.462
255.50	10.323
255.72	20.872
255.93	14.112
256.14	19.545
256.35	11.475
256.57	18.635
256.78	21.005
256.99	14.921
257.20	11.165
257.41	26.915
257.63	5.930
257.84	20.954
258.05	9.167
258.26	2.162
258.47	13.596
258.69	6.383
258.90	3.727
259.11	3.120
259.32	2.033
259.53	5.094
259.75	1.749
259.96	0.409
260.17	4.758
260.38	4.207
260.59	3.259
260.81	5.300
261.02	2.274
261.23	5.732
261.44	5.032
261.65	4.606
261.87	2.606
262.08	3.180
262.29	5.570
262.50	6.528
262.71	3.559
262.92	5.833
263.14	8.752
263.35	5.517
263.56	3.765
263.77	5.794
263.98	9.524
264.20	10.104
264.41	2.901
264.62	11.860
264.83	7.627
265.04	12.971
265.25	6.105
265.47	8.912
265.68	10.204
265.89	6.156
266.10	10.691
266.31	17.354
266.52	9.847
266.74	0.457
266.95	4.450
267.16	4.510
267.37	5.250
267.58	1.905
267.79	6.452
268.01	6.264
268.22	10.379
268.43	8.351
268.64	6.702
268.85	6.297
269.06	6.308
269.27	7.626
269.49	6.133
269.70	7.969
269.91	7.471
270.12	5.501
270.33	8.430
270.54	9.917
270.75	7.953
270.97	9.465
271.18	5.436
271.39	7.591
271.60	8.713
271.81	3.016
272.02	8.587
272.23	5.725
272.45	6.884
272.66	3.741
272.87	3.072
273.08	6.809
273.29	5.970
273.50	6.321
273.71	5.015
273.92	7.368
274.14	0.671
274.35	-1.215
274.56	5.401
274.77	2.803
274.98	5.815
275.19	6.927
275.40	7.051
275.61	8.165
275.83	8.599
276.04	5.126
276.25	4.412
276.46	7.322
276.67	4.517
276.88	5.274
277.09	4.460
277.30	2.703
277.51	11.626
277.73	2.900
277.94	2.621
278.15	6.069
278.36	7.700
278.57	3.074
278.78	5.400
278.99	8.293
279.20	6.424
279.41	7.215
279.62	6.090
279.84	7.746
280.05	5.180
280.26	3.106
280.47	8.770
280.68	0.109
280.89	10.000
281.10	6.034
281.31	4.373
281.52	11.474
281.73	7.912
281.94	3.545
282.16	4.159
282.37	8.467
282.58	10.844
282.79	9.572
283.00	5.597
283.21	4.194
283.42	4.391
283.63	3.035
283.84	2.681
284.05	4.739
284.26	8.780
284.47	3.984
284.68	4.904
284.89	4.815
285.11	5.223
285.32	5.124
285.53	2.636
285.74	8.687
285.95	4.041
286.16	5.688
286.37	3.906
286.58	1.823
286.79	6.843
287.00	6.326
287.21	3.321
287.42	2.604
287.63	4.481
287.84	2.075
288.05	4.353
288.26	3.580
288.48	5.274
288.69	2.957
288.90	2.044
289.11	5.891
289.32	3.741
289.53	5.645
289.74	-0.500
289.95	5.240
290.16	4.843
290.37	3.730
290.58	4.332
290.79	3.437
291.00	4.984
291.21	2.900
291.42	4.497
291.63	4.482
291.84	5.741
292.05	3.714
292.26	3.908
292.47	4.126
292.68	4.178
292.89	5.850
293.10	2.555
293.31	3.824
293.52	3.782
293.73	2.892
293.94	3.679
294.15	3.908
294.36	3.502
294.57	7.002
294.79	6.905
295.00	4.738
295.21	3.807
295.42	7.237
295.63	4.782
295.84	3.727
296.05	3.147
296.26	3.752
296.47	5.933
296.68	6.578
296.89	4.258
297.10	4.179
297.31	3.539
297.52	5.500
297.73	2.827
297.94	3.327
298.15	1.718
298.36	5.487
298.57	2.163
298.78	4.065
298.99	1.994
299.20	2.959
299.41	1.089
299.62	3.413
299.83	2.920
300.04	3.968
300.25	2.642
300.46	3.657
300.67	2.579
300.88	6.397
301.09	2.045
301.30	5.367
301.50	6.416
301.71	4.682
301.92	3.209
302.13	3.327
302.34	5.452
302.55	1.328
302.76	2.270
302.97	4.149
303.18	2.664
303.39	2.461
303.60	4.178
303.81	3.300
304.02	3.389
304.23	3.983
304.44	7.078
304.65	1.038
304.86	1.299
305.07	2.016
305.28	6.854
305.49	5.437
305.70	4.077
305.91	5.288
306.12	0.072
306.33	3.945
306.54	4.769
306.75	6.193
306.96	6.110
307.17	5.172
307.38	1.374
307.58	6.973
307.79	3.569
308.00	3.394
308.21	8.025
308.42	1.567
308.63	9.032
308.84	4.003
309.05	2.675
309.26	5.248
309.47	2.582
309.68	1.408
309.89	3.649
310.10	4.988
310.31	3.240
310.52	2.180
310.73	2.569
310.94	2.873
311.14	2.371
311.35	4.421
311.56	3.641
311.77	1.538
311.98	2.571
312.19	2.826
312.40	4.461
312.61	3.027
312.82	2.742
313.03	2.688
313.24	3.544
313.45	2.547
313.66	2.791
313.86	5.509
314.07	3.912
314.28	3.072
314.49	4.226
314.70	2.787
314.91	2.513
315.12	4.840
315.33	2.900
315.54	2.885
315.75	4.762
315.96	4.958
316.16	4.966
316.37	4.658
316.58	1.872
316.79	3.156
317.00	3.793
317.21	2.462
317.42	2.507
317.63	5.773
317.84	6.475
318.05	4.902
318.25	6.472
318.46	2.723
318.67	3.319
318.88	6.407
319.09	2.941
319.30	6.308
319.51	3.563
319.72	7.939
319.93	4.680
320.13	4.738
320.34	4.681
320.55	3.920
320.76	3.483
320.97	6.719
321.18	3.873
321.39	7.755
321.60	6.146
321.80	5.864
322.01	2.862
322.22	3.427
322.43	1.738
322.64	1.913
322.85	2.686
323.06	4.728
323.27	4.878
323.47	4.695
323.68	7.631
323.89	2.397
324.10	5.153
324.31	4.309
324.52	4.545
324.73	2.273
324.93	4.936
325.14	2.728
325.35	1.650
325.56	4.223
325.77	2.333
325.98	2.148
326.19	6.815
326.39	4.673
326.60	4.088
326.81	3.127
327.02	5.109
327.23	2.541
327.44	7.075
327.64	5.254
327.85	3.181
328.06	4.734
328.27	5.696
328.48	1.531
328.69	2.130
328.90	-0.319
329.10	4.778
329.31	0.278
329.52	5.926
329.73	4.960
329.94	2.078
330.15	2.804
330.35	5.296
330.56	4.094
330.77	2.320
330.98	5.776
331.19	4.567
331.39	6.139
331.60	-0.416
331.81	4.539
332.02	6.760
332.23	3.709
332.44	5.673
332.64	5.623
332.85	3.407
333.06	5.016
333.27	2.288
333.48	3.871
333.68	5.185
333.89	1.782
334.10	-0.748
334.31	5.756
334.52	4.115
334.72	3.576
334.93	2.857
335.14	3.797
335.35	2.698
335.56	1.366
335.76	2.394
335.97	5.366
336.18	3.152
336.39	4.387
336.60	6.654
336.80	2.861
337.01	4.748
337.22	0.946
337.43	3.764
337.64	0.370
337.84	5.250
338.05	4.292
338.26	4.174
338.47	1.723
338.68	3.023
338.88	0.476
339.09	1.737
339.30	1.994
339.51	1.649
339.71	3.596
339.92	4.268
340.13	4.415
340.34	3.576
340.55	1.374
340.75	4.991
340.96	2.779
341.17	4.997
341.38	1.936
341.58	2.388
341.79	1.813
342.00	2.285
342.21	0.527
342.41	0.600
342.62	5.245
342.83	3.571
343.04	0.627
343.24	1.784
343.45	2.241
343.66	1.457
343.87	4.278
344.07	2.217
344.28	2.430
344.49	4.039
344.70	4.139
344.90	3.616
345.11	4.339
345.32	3.173
345.53	2.184
345.73	1.355
345.94	1.191
346.15	2.518
346.36	2.077
346.56	2.496
346.77	3.386
346.98	2.863
347.19	3.797
347.39	3.724
347.60	2.026
347.81	5.319
348.02	5.360
348.22	1.128
348.43	4.066
348.64	4.929
348.84	4.502
349.05	2.376
349.26	5.500
349.47	3.900
349.67	3.690
349.88	3.561
350.09	4.377
350.30	1.669
350.50	1.032
350.71	3.168
350.92	3.147
351.12	1.711
351.33	4.258
351.54	6.470
351.74	2.895
351.95	3.470
352.16	3.797
352.37	4.952
352.57	3.245
352.78	2.889
352.99	5.392
353.19	2.669
353.40	2.184
353.61	5.373
353.82	5.144
354.02	3.663
354.23	2.766
354.44	2.037
354.64	5.835
354.85	3.715
355.06	4.847
355.26	2.118
355.47	3.731
355.68	5.190
355.88	4.988
356.09	3.227
356.30	3.270
356.51	5.510
356.71	5.651
356.92	1.732
357.13	2.226
357.33	4.734
357.54	3.360
357.75	4.393
357.95	5.624
358.16	4.442
358.37	6.361
358.57	4.066
358.78	8.216
358.99	6.100
359.19	6.610
359.40	6.473
359.61	5.693
359.81	6.681
360.02	9.023
360.23	5.885
360.43	9.316
360.64	6.717
360.85	7.788
361.05	5.741
361.26	10.908
361.47	7.698
361.67	12.642
361.88	5.530
362.09	12.266
362.29	8.611
362.50	8.794
362.70	8.404
362.91	12.292
363.12	9.383
363.32	10.566
363.53	12.277
363.74	14.211
363.94	8.153
364.15	14.791
364.36	13.419
364.56	11.283
364.77	14.346
364.98	16.624
365.18	12.746
365.39	15.666
365.59	10.741
365.80	14.406
366.01	14.828
366.21	14.318
366.42	10.231
366.63	15.664
366.83	13.782
367.04	9.928
367.24	16.950
367.45	12.463
367.66	11.488
367.86	16.523
368.07	13.436
368.28	13.598
368.48	15.103
368.69	11.649
368.89	13.421
369.10	16.654
369.31	12.021
369.51	15.918
369.72	16.459
369.92	18.553
370.13	11.509
370.34	18.129
370.54	9.102
370.75	18.361
370.95	12.893
371.16	17.122
371.37	12.973
371.57	13.591
371.78	15.087
371.98	18.494
372.19	16.625
372.40	19.461
372.60	17.357
372.81	18.508
373.01	11.912
373.22	15.107
373.43	16.845
373.63	18.824
373.84	14.439
374.04	15.677
374.25	14.259
374.46	17.494
374.66	15.489
374.87	16.283
375.07	10.083
375.28	15.088
375.48	13.982
375.69	17.852
375.90	12.214
376.10	12.229
376.31	13.210
376.51	14.236
376.72	14.320
376.92	14.231
377.13	15.129
377.34	19.040
377.54	14.967
377.75	17.389
377.95	15.513
378.16	20.275
378.36	16.436
378.57	18.571
378.77	15.036
378.98	17.597
379.19	15.908
379.39	15.312
379.60	14.961
379.80	18.257
380.01	18.054
380.21	14.659
380.42	17.097
380.62	15.417
380.83	17.045
381.04	15.382
381.24	16.699
381.45	16.273
381.65	12.177
381.86	15.508
382.06	16.411
382.27	10.712
382.47	12.383
382.68	17.737
382.88	11.331
383.09	12.633
383.29	13.549
383.50	18.837
383.71	12.429
383.91	15.214
384.12	10.928
384.32	16.107
384.53	13.941
384.73	12.892
384.94	13.220
385.14	14.256
385.35	12.725
385.55	15.323
385.76	11.133
385.96	16.699
386.17	14.398
386.37	16.209
386.58	12.913
386.78	15.523
386.99	11.070
387.19	17.025
387.40	12.638
387.60	17.151
387.81	12.260
388.01	15.311
388.22	15.831
388.42	18.144
388.63	16.615
388.83	17.502
389.04	9.865
389.24	14.025
389.45	12.873
389.65	15.741
389.86	14.150
390.06	13.200
390.27	13.394
390.47	13.219
390.68	12.332
390.88	18.488
391.09	14.994
391.29	15.771
391.50	12.801
391.70	14.301
391.91	12.721
392.11	14.640
392.32	14.480
392.52	17.546
392.73	13.371
392.93	15.821
393.14	12.827
393.34	14.515
393.55	14.426
393.75	15.222
393.95	12.831
394.16	16.287
394.36	15.352
394.57	18.273
394.77	13.191
394.98	15.095
395.18	13.956
395.39	15.199
395.59	13.917
395.80	15.624
396.00	15.122
396.21	16.417
396.41	12.252
396.61	16.539
396.82	14.444
397.02	17.472
397.23	13.679
397.43	12.126
397.64	10.935
397.84	18.266
398.05	10.187
398.25	15.951
398.45	12.419
398.66	16.125
398.86	13.800
399.07	16.342
399.27	13.239
399.48	15.351
399.68	12.047
399.89	13.620
400.09	14.451
400.29	12.877
400.50	14.093
400.70	14.509
400.91	11.702
401.11	12.828
401.32	11.960
401.52	11.094
401.72	10.928
401.93	15.887
402.13	12.010
402.34	13.122
402.54	11.799
402.75	16.044
402.95	8.742
403.15	14.598
403.36	10.609
403.56	12.170
403.77	10.621
403.97	12.954
404.17	10.013
404.38	15.186
404.58	10.829
404.79	14.059
404.99	13.187
405.19	13.355
405.40	11.766
405.60	15.227
405.81	12.854
406.01	14.127
406.21	12.864
406.42	14.563
406.62	13.087
406.83	14.154
407.03	14.382
407.23	13.837
407.44	11.462
407.64	14.191
407.85	13.612
408.05	14.322
408.25	10.916
408.46	14.093
408.66	13.167
408.87	12.659
409.07	11.681
409.27	11.108
409.48	11.616
409.68	13.937
409.88	8.584
410.09	14.002
410.29	12.497
410.50	14.431
410.70	9.770
410.90	12.721
411.11	9.604
411.31	12.491
411.51	14.247
411.72	14.797
411.92	10.807
412.12	11.906
412.33	10.823
412.53	13.431
412.74	10.424
412.94	11.475
413.14	10.189
413.35	12.701
413.55	11.289
413.75	13.971
413.96	11.103
414.16	12.147
414.36	13.518
414.57	13.499
414.77	11.921
414.97	12.543
415.18	11.313
415.38	12.364
415.58	12.073
415.79	12.674
415.99	11.711
416.19	12.715
416.40	12.503
416.60	14.146
416.80	11.500
417.01	14.981
417.21	10.863
417.41	15.329
417.62	13.258
417.82	14.291
418.02	11.321
418.23	15.652
418.43	13.148
418.63	15.250
418.84	15.344
419.04	15.123
419.24	15.346
419.45	16.660
419.65	16.772
419.85	16.927
420.06	16.622
420.26	16.391
420.46	16.080
420.67	17.339
420.87	16.142
421.07	15.606
421.28	16.503
421.48	17.185
421.68	16.658
421.88	17.701
422.09	16.610
422.29	17.367
422.49	16.443
422.70	17.725
422.90	16.247
423.10	16.533
423.31	16.204
423.51	16.961
423.71	16.202
423.91	17.404
424.12	16.787
424.32	17.280
424.52	16.048
424.73	17.455
424.93	16.875
425.13	15.951
425.33	16.210
425.54	17.485
425.74	16.473
425.94	16.755
426.15	17.155
426.35	17.457
426.55	16.805
426.75	17.609
426.96	17.079
427.16	16.626
427.36	17.451
427.57	18.114
427.77	16.228
427.97	16.015
428.17	16.077
428.38	17.347
428.58	14.355
428.78	16.344
428.98	14.442
429.19	15.513
429.39	14.315
429.59	16.658
429.79	13.919
430.00	14.041
430.20	13.127
430.40	15.825
430.60	14.616
430.81	15.379
431.01	13.920
431.21	15.477
431.41	14.458
431.62	15.608
431.82	14.862
432.02	17.002
432.22	14.515
432.43	15.577
432.63	12.996
432.83	15.712
433.03	16.025
433.24	15.801
433.44	15.534
433.64	16.496
433.84	15.287
434.05	17.574
434.25	16.595
434.45	16.575
434.65	17.260
434.85	17.043
435.06	16.846
435.26	17.212
435.46	16.273
435.66	16.842
435.87	15.890
436.07	17.530
436.27	16.015
436.47	16.302
436.67	15.419
436.88	17.052
437.08	15.999
437.28	16.064
437.48	17.280
437.69	17.833
437.89	15.337
438.09	17.854
438.29	16.217
438.49	17.526
438.70	16.504
438.90	16.455
439.10	15.888
439.30	17.352
439.50	17.095
439.71	17.946
439.91	16.253
440.11	17.868
440.31	16.768
440.51	17.226
440.72	17.014
440.92	17.463
441.12	17.138
441.32	18.074
441.52	17.814
441.72	17.928
441.93	17.852
442.13	18.517
442.33	17.447
442.53	17.761
442.73	17.598
442.94	17.709
443.14	16.525
443.34	18.030
443.54	18.576
443.74	17.841
443.94	17.729
444.15	17.457
444.35	16.193
444.55	18.266
444.75	17.539
444.95	17.588
445.15	16.665
445.36	17.801
445.56	16.562
445.76	17.972
445.96	16.954
446.16	17.717
446.36	17.350
446.57	18.148
446.77	17.422
446.97	17.725
447.17	17.639
447.37	17.474
447.57	17.702
447.77	17.972
447.98	18.146
448.18	18.332
448.38	17.935
448.58	18.825
448.78	18.038
448.98	17.538
449.18	17.614
449.39	18.047
449.59	17.704
449.79	17.608
449.99	16.931
450.19	17.855
450.39	17.278
450.59	18.685
450.79	16.929
451.00	18.094
451.20	17.079
451.40	17.374
451.60	16.037
451.80	17.651
452.00	16.494
452.20	17.201
452.40	17.294
452.61	16.785
452.81	17.523
453.01	18.451
453.21	16.423
453.41	17.430
453.61	17.239
453.81	17.866
454.01	16.892
454.21	17.973
454.42	17.335
454.62	18.446
454.82	16.084
455.02	17.278
455.22	16.619
455.42	17.668
455.62	15.833
455.82	17.200
456.02	16.601
456.23	16.861
456.43	15.996
456.63	17.724
456.83	16.722
457.03	17.612
457.23	16.600
457.43	17.417
457.63	16.016
457.83	17.379
458.03	15.316
458.23	17.759
458.43	16.106
458.64	16.224
458.84	15.815
459.04	17.776
459.24	16.578
459.44	17.496
459.64	16.749
459.84	17.513
460.04	16.776
460.24	16.940
460.44	17.085
460.64	17.295
460.84	17.670
461.04	17.481
461.24	17.469
461.45	17.441
461.65	17.265
461.85	17.815
462.05	18.097
462.25	18.117
462.45	17.587
462.65	17.787
462.85	16.343
463.05	17.444
463.25	16.115
463.45	17.254
463.65	16.664
463.85	17.930
464.05	16.259
464.25	17.767
464.45	17.093
464.65	17.178
464.85	16.592
465.05	17.429
465.26	16.096
465.46	17.916
465.66	16.928
465.86	17.270
466.06	16.592
466.26	17.129
466.46	15.616
466.66	16.772
466.86	16.671
467.06	16.548
467.26	17.057
467.46	16.447
467.66	17.397
467.86	17.139
468.06	16.766
468.26	17.320
468.46	16.851
468.66	17.374
468.86	15.315
469.06	17.055
469.26	16.632
469.46	17.195
469.66	15.997
469.86	17.331
470.06	16.477
470.26	17.300
470.46	16.179
470.66	17.606
470.86	16.046
471.06	16.805
471.26	14.757
471.46	17.141
471.66	17.015
471.86	17.219
472.06	16.687
472.26	17.453
472.46	16.202
472.66	17.672
472.86	16.393
473.06	17.246
473.26	16.878
473.46	16.742
473.66	17.550
473.86	18.440
474.06	16.341
474.26	17.347
474.46	16.150
474.66	16.949
474.86	17.530
475.06	17.719
475.26	15.762
475.46	17.737
475.66	16.782
475.86	17.479
476.06	17.080
476.26	17.271
476.46	16.720
476.66	16.779
476.86	15.808
477.06	17.371
477.26	16.464
477.46	18.059
477.65	16.935
477.85	18.030
478.05	17.257
478.25	18.026
478.45	17.096
478.65	17.110
478.85	16.982
479.05	17.438
479.25	17.314
479.45	17.922
479.65	16.948
479.85	18.670
480.05	17.564
480.25	18.469
480.45	17.199
480.65	18.356
480.85	17.573
481.05	17.284
481.25	17.334
481.44	17.600
481.64	17.898
481.84	17.485
482.04	17.572
482.24	17.797
482.44	17.291
482.64	17.238
482.84	17.743
483.04	17.207
483.24	17.533
483.44	17.216
483.64	17.207
483.84	17.516
484.04	18.004
484.23	17.483
484.43	17.618
484.63	17.837
484.83	18.089
485.03	18.286
485.23	18.175
485.43	18.425
485.63	18.429
485.83	18.376
486.03	18.409
486.23	18.204
486.42	18.415
486.62	18.175
486.82	18.164
487.02	17.475
487.22	18.007
487.42	17.549
487.62	17.492
487.82	17.669
488.02	17.376
488.22	17.479
488.41	17.807
488.61	17.553
488.81	17.895
489.01	17.543
489.21	17.996
489.41	17.729
489.61	18.252
489.81	17.731
490.01	18.001
490.20	18.124
490.40	18.376
490.60	17.980
490.80	18.445
491.00	17.544
491.20	17.635
491.40	17.627
491.60	17.229
491.79	17.313
491.99	17.656
492.19	17.805
492.39	17.496
492.59	17.514
492.79	17.955
492.99	17.707
493.19	17.849
493.38	18.019
493.58	18.261
493.78	17.942
493.98	18.106
494.18	18.450
494.38	18.051
494.58	18.382
494.77	18.031
494.97	17.987
495.17	18.310
495.37	17.980
495.57	18.457
495.77	18.027
495.96	17.819
496.16	17.934
496.36	17.915
496.56	17.665
496.76	17.538
496.96	17.716
497.15	17.938
497.35	17.279
497.55	17.782
497.75	17.618
497.95	17.769
498.15	17.893
498.34	16.803
498.54	17.942
498.74	17.791
498.94	17.587
499.14	17.803
499.34	18.555
499.53	17.387
499.73	18.103
499.93	18.483
500.13	17.610
500.33	17.488
500.52	17.750
500.72	17.639
500.92	18.376
501.12	17.757
501.32	18.304
501.52	17.794
501.71	17.253
501.91	17.503
502.11	18.313
502.31	17.664
502.51	18.345
502.70	16.897
502.90	17.968
503.10	17.379
503.30	17.355
503.50	18.206
503.69	17.813
503.89	18.182
504.09	18.378
504.29	17.806
504.48	18.444
504.68	17.716
504.88	17.818
505.08	16.420
505.28	18.327
505.47	18.116
505.67	18.677
505.87	18.614
506.07	17.587
506.27	17.205
506.46	18.354
506.66	18.734
506.86	18.751
507.06	18.391
507.25	18.228
507.45	18.511
507.65	18.511
507.85	18.511
508.04	18.446
508.24	18.660
508.44	18.597
508.64	18.895
508.83	19.023
509.03	17.566
509.23	18.485
509.43	18.522
509.63	18.689
509.82	18.174
510.02	18.282
510.22	17.850
510.42	19.399
510.61	18.572
510.81	19.007
511.01	18.848
511.21	19.364
511.40	18.560
511.60	19.172
511.80	19.007
511.99	19.345
512.19	18.532
512.39	18.821
512.59	18.660
512.78	19.462
512.98	18.742
513.18	18.999
513.38	18.496
513.57	18.653
513.77	19.684
513.97	18.909
514.17	19.226
514.36	19.311
514.56	18.913
514.76	19.248
514.95	19.397
515.15	19.526
515.35	19.243
515.55	19.976
515.74	19.596
515.94	19.214
516.14	18.819
516.33	19.736
516.53	19.357
516.73	20.149
516.93	18.506
517.12	19.247
517.32	18.555
517.52	19.685
517.71	19.432
517.91	19.137
518.11	19.173
518.30	19.316
518.50	19.174
518.70	18.724
518.90	20.205
519.09	19.721
519.29	19.800
519.49	19.846
519.68	19.146
519.88	19.609
520.08	19.744
520.27	19.643
520.47	20.053
520.67	19.883
520.86	20.087
521.06	20.008
521.26	19.915
521.45	19.937
521.65	19.790
521.85	20.513
522.04	19.220
522.24	20.178
522.44	19.619
522.63	19.397
522.83	20.010
523.03	20.447
523.22	20.103
523.42	19.937
523.62	19.826
523.81	20.164
524.01	19.461
524.21	20.494
524.40	19.152
524.60	19.668
524.80	19.721
524.99	19.111
525.19	19.547
525.39	19.832
525.58	19.468
525.78	19.242
525.98	19.452
526.17	19.655
526.37	20.576
526.57	20.246
526.76	19.702
526.96	19.933
527.15	19.676
527.35	20.083
527.55	20.046
527.74	20.208
527.94	19.588
528.14	19.467
528.33	19.711
528.53	19.095
528.72	19.161
528.92	19.749
529.12	19.974
529.31	19.933
529.51	19.978
529.71	20.214
529.90	19.988
530.10	20.178
530.29	20.380
530.49	20.279
530.69	20.305
530.88	20.282
531.08	20.412
531.28	20.062
531.47	20.505
531.67	20.023
531.86	19.728
532.06	20.302
532.26	20.120
532.45	20.485
532.65	19.628
532.84	19.932
533.04	19.799
533.24	19.519
533.43	19.645
533.63	20.058
533.82	20.237
534.02	19.653
534.22	20.563
534.41	19.728
534.61	19.974
534.80	20.113
535.00	20.586
535.19	20.330
535.39	20.601
535.59	20.460
535.78	20.521
535.98	20.224
536.17	20.293
536.37	20.177
536.57	20.707
536.76	19.845
536.96	20.288
537.15	20.544
537.35	20.640
537.54	20.612
537.74	20.459
537.93	20.328
538.13	19.666
538.33	20.783
538.52	20.855
538.72	21.133
538.91	20.449
539.11	21.007
539.30	19.828
539.50	20.818
539.70	20.370
539.89	21.072
540.09	19.610
540.28	20.321
540.48	20.091
540.67	19.962
540.87	19.906
541.06	20.369
541.26	20.413
541.45	20.364
541.65	20.505
541.85	20.432
542.04	20.183
542.24	20.507
542.43	20.498
542.63	20.706
542.82	20.581
543.02	20.541
543.21	20.972
543.41	20.837
543.60	21.492
543.80	20.522
543.99	20.793
544.19	20.697
544.38	21.364
544.58	21.161
544.77	20.427
544.97	21.308
545.16	21.130
545.36	20.913
545.56	21.796
545.75	20.967
545.95	20.948
546.14	20.539
546.34	20.735
546.53	20.732
546.73	21.352
546.92	20.824
547.12	21.118
547.31	20.916
547.51	21.133
547.70	21.339
547.90	20.952
548.09	21.378
548.29	21.612
548.48	20.953
548.68	21.205
548.87	21.737
549.07	21.813
549.26	21.054
549.46	21.941
549.65	22.208
549.84	21.429
550.04	21.859
550.23	20.802
550.43	21.252
550.62	21.612
550.82	21.014
551.01	21.573
551.21	21.898
551.40	20.934
551.60	21.315
551.79	20.939
551.99	21.859
552.18	22.110
552.38	22.263
552.57	21.393
552.77	20.867
552.96	21.127
553.16	22.122
553.35	21.107
553.54	21.220
553.74	21.164
553.93	22.459
554.13	21.752
554.32	22.754
554.52	22.017
554.71	21.957
554.91	22.187
555.10	22.994
555.29	21.623
555.49	22.871
555.68	22.899
555.88	22.630
556.07	21.347
556.27	22.307
556.46	22.778
556.66	22.068
556.85	22.735
557.04	21.889
557.24	22.378
557.43	22.472
557.63	20.988
557.82	22.821
558.02	21.883
558.21	23.148
558.40	23.167
558.60	22.310
558.79	22.352
558.99	22.659
559.18	22.259
559.38	23.602
559.57	23.777
559.76	22.643
559.96	23.137
560.15	23.133
560.35	22.874
560.54	23.589
560.73	22.397
560.93	23.138
561.12	23.300
561.32	22.986
561.51	22.768
561.70	23.111
561.90	22.512
562.09	23.749
562.29	23.409
562.48	23.402
562.67	22.468
562.87	23.163
563.06	22.818
563.26	23.088
563.45	22.689
563.64	22.576
563.84	23.286
564.03	23.982
564.23	23.974
564.42	23.142
564.61	23.606
564.81	23.649
565.00	23.004
565.20	24.536
565.39	22.588
565.58	24.024
565.78	23.675
565.97	24.660
566.16	23.589
566.36	24.083
566.55	24.478
566.74	23.306
566.94	23.604
567.13	24.938
567.33	24.043
567.52	24.582
567.71	24.701
567.91	24.309
568.10	24.121
568.29	24.209
568.49	23.366
568.68	24.690
568.87	24.666
569.07	24.449
569.26	24.262
569.45	24.394
569.65	24.101
569.84	25.031
570.04	24.300
570.23	24.572
570.42	24.097
570.62	25.710
570.81	23.860
571.00	24.331
571.20	25.105
571.39	24.629
571.58	25.516
571.78	25.057
571.97	24.390
572.16	24.716
572.36	24.442
572.55	25.348
572.74	25.053
572.94	25.069
573.13	25.012
573.32	25.548
573.51	25.284
573.71	25.537
573.90	24.979
574.09	25.018
574.29	25.176
574.48	25.551
574.67	25.089
574.87	25.084
575.06	24.622
575.25	25.355
575.45	25.094
575.64	25.340
575.83	25.335
576.03	25.452
576.22	25.278
576.41	24.400
576.60	25.208
576.80	24.886
576.99	25.118
577.18	25.332
577.38	25.388
577.57	24.932
577.76	26.635
577.95	26.034
578.15	24.554
578.34	27.231
578.53	26.345
578.73	26.291
578.92	24.795
579.11	26.730
579.30	24.704
579.50	26.590
579.69	25.406
579.88	26.537
580.08	24.285
580.27	25.021
580.46	25.502
580.65	25.825
580.85	24.361
581.04	25.382
581.23	26.417
581.42	27.096
581.62	24.895
581.81	25.422
582.00	25.185
582.19	25.949
582.39	25.998
582.58	26.072
582.77	24.987
582.96	26.702
583.16	24.969
583.35	25.489
583.54	25.866
583.73	25.022
583.93	25.336
584.12	25.899
584.31	25.607
584.50	25.268
584.70	24.615
584.89	25.727
585.08	24.753
585.27	27.556
585.47	25.221
585.66	26.101
585.85	26.667
586.04	26.718
586.24	25.023
586.43	25.556
586.62	24.247
586.81	26.195
587.00	24.963
587.20	26.693
587.39	25.281
587.58	26.637
587.77	25.662
587.97	25.809
588.16	25.267
588.35	25.162
588.54	24.931
588.73	24.849
588.93	26.317
589.12	25.694
589.31	24.908
589.50	26.789
589.69	25.965
589.89	26.065
590.08	25.350
590.27	27.283
590.46	25.812
590.65	26.290
590.85	24.950
591.04	26.648
591.23	25.218
591.42	26.694
591.61	25.573
591.81	27.053
592.00	25.720
592.19	26.229
592.38	25.372
592.57	26.269
592.77	25.920
592.96	24.627
593.15	27.582
593.34	26.581
593.53	24.111
593.72	26.294
593.92	26.039
594.11	27.286
594.30	25.908
594.49	25.748
594.68	25.626
594.87	27.180
595.07	26.016
595.26	26.265
595.45	26.347
595.64	26.285
595.83	25.421
596.02	26.235
596.22	26.742
596.41	27.036
596.60	26.322
596.79	27.103
596.98	26.637
597.17	26.488
597.37	25.904
597.56	27.457
597.75	26.937
597.94	27.147
598.13	26.734
598.32	27.574
598.51	26.333
598.71	28.120
598.90	26.344
599.09	27.096
599.28	27.620
599.47	27.694
599.66	26.807
599.85	27.552
600.05	25.694
600.24	28.019
600.43	25.929
600.62	28.814
600.81	26.678
601.00	29.163
601.19	24.534
601.38	27.904
601.58	27.448
601.77	27.125
601.96	27.635
602.15	27.891
602.34	27.483
602.53	26.722
602.72	27.354
602.91	28.406
603.10	27.102
603.30	27.504
603.49	27.744
603.68	29.350
603.87	26.905
604.06	27.481
604.25	27.166
604.44	27.269
604.63	26.323
604.82	27.881
605.01	28.161
605.21	27.542
605.40	26.487
605.59	27.270
605.78	27.897
605.97	28.810
606.16	27.782
606.35	27.970
606.54	28.320
606.73	28.317
606.92	26.647
607.11	28.674
607.30	27.456
607.50	27.942
607.69	26.827
607.88	27.766
608.07	26.046
608.26	27.653
608.45	27.589
608.64	27.508
608.83	28.261
609.02	26.967
609.21	25.166
609.40	27.386
609.59	26.606
609.78	27.891
609.97	27.323
610.16	29.237
610.35	25.688
610.55	27.137
610.74	27.367
610.93	27.082
611.12	27.374
611.31	27.780
611.50	26.677
611.69	28.339
611.88	27.672
612.07	27.160
612.26	26.780
612.45	27.964
612.64	26.822
612.83	27.167
613.02	26.668
613.21	27.288
613.40	26.184
613.59	25.921
613.78	24.746
613.97	27.451
614.16	26.180
614.35	26.674
614.54	24.464
614.73	26.004
614.92	25.339
615.11	26.297
615.30	24.544
615.49	26.815
615.68	24.879
615.87	24.768
616.07	25.213
616.26	25.601
616.45	24.582
616.64	26.742
616.83	25.240
617.02	26.344
617.21	23.520
617.40	25.800
617.59	25.006
617.78	27.634
617.97	23.362
618.16	25.268
618.35	22.581
618.54	25.280
618.73	23.659
618.92	24.872
619.11	23.633
619.30	26.404
619.49	23.480
619.68	24.260
619.86	22.490
620.05	24.065
620.24	24.509
620.43	24.546
620.62	22.578
620.81	25.667
621.00	23.148
621.19	25.152
621.38	24.141
621.57	25.134
621.76	23.905
621.95	25.322
622.14	23.122
622.33	24.805
622.52	23.358
622.71	24.416
622.90	24.589
623.09	24.135
623.28	22.985
623.47	25.487
623.66	23.385
623.85	24.576
624.04	22.379
624.23	23.475
624.42	23.402
624.61	23.641
624.80	21.851
624.99	24.396
625.18	22.157
625.36	24.397
625.55	24.181
625.74	23.837
625.93	23.192
626.12	24.079
626.31	23.629
626.50	24.775
626.69	24.639
626.88	25.225
627.07	24.858
627.26	23.654
627.45	24.165
627.64	24.782
627.83	23.353
628.02	24.249
628.20	24.329
628.39	25.363
628.58	23.990
628.77	24.570
628.96	23.244
629.15	24.500
629.34	23.127
629.53	23.909
629.72	22.883
629.91	25.408
630.10	23.174
630.29	24.246
630.47	23.465
630.66	23.454
630.85	23.229
631.04	23.823
631.23	22.979
631.42	24.257
631.61	23.559
631.80	24.954
631.99	23.333
632.18	22.940
632.36	21.217
632.55	24.399
632.74	22.430
632.93	23.880
633.12	22.863
633.31	23.156
633.50	22.375
633.69	22.932
633.88	20.643
634.06	24.529
634.25	20.551
634.44	22.837
634.63	21.699
634.82	25.450
635.01	23.452
635.20	23.964
635.39	22.102
635.57	24.830
635.76	22.956
635.95	24.114
636.14	21.218
636.33	25.342
636.52	20.875
636.71	22.026
636.89	21.795
637.08	24.678
637.27	21.555
637.46	24.372
637.65	21.081
637.84	21.714
638.03	20.863
638.21	23.444
638.40	20.395
638.59	23.239
638.78	19.782
638.97	22.416
639.16	22.938
639.34	21.790
639.53	19.528
639.72	20.967
639.91	21.027
640.10	20.536
640.29	20.650
640.47	23.012
640.66	20.916
640.85	23.541
641.04	18.676
641.23	22.030
641.42	19.591
641.60	21.460
641.79	19.207
641.98	21.404
642.17	19.246
642.36	23.184
642.54	17.894
642.73	20.160
642.92	16.877
643.11	20.874
643.30	17.733
643.49	20.690
643.67	16.968
643.86	20.644
644.05	18.014
644.24	21.544
644.43	17.978
644.61	23.059
644.80	18.660
644.99	19.588
645.18	20.548
645.37	20.387
645.55	17.398
645.74	21.324
645.93	20.105
646.12	21.666
646.31	18.544
646.49	21.180
646.68	18.071
646.87	20.551
647.06	18.002
647.24	20.943
647.43	16.956
647.62	20.082
647.81	16.836
648.00	21.023
648.18	17.448
648.37	20.662
648.56	19.759
648.75	20.774
648.93	19.486
649.12	19.738
649.31	18.945
649.50	18.806
649.68	17.268
649.87	19.155
650.06	17.389
650.25	21.124
650.43	16.701
650.62	21.545
650.81	20.528
651.00	19.663
651.18	17.644
651.37	21.626
651.56	19.352
651.75	21.357
651.93	18.993
652.12	20.329
652.31	17.972
652.50	20.671
652.68	19.919
652.87	22.373
653.06	20.684
653.25	23.140
653.43	18.552
653.62	20.606
653.81	17.410
654.00	22.405
654.18	16.448
654.37	20.988
654.56	17.431
654.74	18.448
654.93	18.736
655.12	19.359
655.31	17.923
655.49	19.027
655.68	16.902
655.87	16.795
656.05	14.963
656.24	19.184
656.43	14.541
656.62	17.127
656.80	16.618
656.99	16.267
657.18	13.268
657.36	17.450
657.55	19.005
657.74	17.471
657.93	17.462
658.11	20.853
658.30	17.630
658.49	17.562
658.67	17.998
658.86	17.810
659.05	16.393
659.23	19.286
659.42	17.038
659.61	20.193
659.79	16.613
659.98	18.905
660.17	18.386
660.35	19.182
660.54	18.754
660.73	21.115
660.91	18.586
661.10	19.567
661.29	14.740
661.47	18.246
661.66	16.110
661.85	18.015
662.03	16.951
662.22	14.806
662.41	14.333
662.59	15.641
662.78	12.090
662.97	15.905
663.15	13.250
663.34	13.859
663.53	11.694
663.71	15.256
663.90	11.701
664.09	16.649
664.27	11.611
664.46	15.404
664.65	11.285
664.83	11.912
665.02	9.694
665.21	11.756
665.39	8.307
665.58	11.411
665.77	12.066
665.95	12.449
666.14	11.661
666.32	11.078
666.51	10.764
666.70	12.576
666.88	10.971
667.07	10.572
667.26	10.087
667.44	10.957
667.63	10.078
667.81	11.169
668.00	10.098
668.19	13.502
668.37	11.270
668.56	12.445
668.75	8.963
668.93	13.312
669.12	11.309
669.30	13.083
669.49	10.072
669.68	12.081
669.86	10.738
670.05	10.818
670.23	10.433
670.42	10.320
670.61	10.936
670.79	11.080
670.98	10.113
671.16	12.673
671.35	9.259
671.54	11.463
671.72	8.505
671.91	11.363
672.09	8.088
672.28	11.458
672.46	12.702
672.65	12.386
672.84	12.207
673.02	12.074
673.21	6.810
673.39	9.176
673.58	10.913
673.77	10.557
673.95	10.462
674.14	13.277
674.32	9.936
674.51	14.074
674.69	9.848
674.88	9.848
675.07	9.076
675.25	14.036
675.44	9.058
675.62	10.551
675.81	9.241
675.99	17.410
676.18	12.734
676.36	11.018
676.55	7.624
676.74	12.505
676.92	11.358
677.11	12.794
677.29	10.508
677.48	11.116
677.66	10.834
677.85	10.087
678.03	10.008
678.22	14.698
678.40	11.133
678.59	12.193
678.78	8.909
678.96	11.973
679.15	7.695
679.33	12.351
679.52	13.059
679.70	13.301
679.89	10.649
680.07	12.695
680.26	10.263
680.44	13.918
680.63	12.997
680.81	13.380
681.00	9.885
681.18	15.338
681.37	12.262
681.55	15.644
681.74	15.549
681.92	15.219
682.11	14.248
682.29	14.138
682.48	14.609
682.66	16.525
682.85	12.241
683.03	14.669
683.22	14.365
683.40	16.725
683.59	12.363
683.77	15.083
683.96	12.359
684.14	16.029
684.33	9.771
684.51	17.909
684.70	13.964
684.88	18.770
685.07	15.221
685.25	14.774
685.44	13.194
685.62	16.614
685.81	14.303
685.99	17.572
686.18	11.225
686.36	16.875
686.55	12.097
686.73	14.960
686.92	16.527
687.10	18.687
687.29	17.049
687.47	16.317
687.65	19.050
687.84	16.537
688.02	18.583
688.21	20.234
688.39	15.089
688.58	22.529
688.76	16.660
688.95	19.778
689.13	15.247
689.32	21.572
689.50	16.537
689.68	18.010
689.87	15.998
690.05	18.656
690.24	19.310
690.42	20.680
690.61	20.141
690.79	20.267
690.98	18.035
691.16	20.644
691.34	16.753
691.53	20.406
691.71	18.103
691.90	20.732
692.08	16.340
692.27	20.619
692.45	20.080
692.63	20.741
692.82	21.618
693.00	22.419
693.19	19.368
693.37	23.440
693.56	19.174
693.74	24.976
693.92	19.724
694.11	24.654
694.29	21.462
694.48	24.894
694.66	19.951
694.84	26.294
695.03	18.916
695.21	26.423
695.40	27.026
695.58	26.932
695.76	22.297
695.95	23.244
696.13	22.751
696.32	27.518
696.50	31.273
696.68	27.714
696.87	23.063
697.05	27.447
697.24	26.961
697.42	30.223
697.60	27.399
697.79	30.444
697.97	27.590
698.16	31.689
698.34	28.688
698.52	29.777
698.71	31.208
698.89	32.334
699.07	30.069
699.26	33.003
699.44	32.551
699.63	34.262
699.81	30.275
699.99	32.209
700.18	33.402
700.36	32.965
700.54	33.816
700.73	33.533
700.91	32.785
701.09	33.470
701.28	31.667
701.46	33.962
701.64	28.308
701.83	33.142
702.01	30.035
702.20	35.601
702.38	33.050
702.56	32.977
702.75	30.690
702.93	33.065
703.11	28.318
703.30	31.097
703.48	31.133
703.66	32.577
703.85	30.005
704.03	37.602
704.21	30.369
704.40	32.196
704.58	27.687
704.76	31.957
704.95	27.252
705.13	31.632
705.31	30.747
705.50	34.922
705.68	28.015
705.86	36.589
706.04	31.826
706.23	31.376
706.41	32.570
706.59	32.916
706.78	28.861
706.96	33.865
707.14	29.814
707.33	32.193
707.51	31.218
707.69	36.288
707.88	33.035
708.06	35.237
708.24	31.496
708.42	33.945
708.61	33.102
708.79	32.499
708.97	34.177
709.16	34.669
709.34	32.487
709.52	33.494
709.71	33.261
709.89	36.567
710.07	31.657
710.25	34.216
710.44	32.874
710.62	36.950
710.80	36.473
710.98	35.513
711.17	32.664
711.35	34.983
711.53	31.758
711.72	36.750
711.90	34.071
712.08	37.046
712.26	35.037
712.45	35.020
712.63	33.879
712.81	37.048
712.99	34.602
713.18	37.836
713.36	37.908
713.54	36.481
713.72	32.932
713.91	37.376
714.09	32.019
714.27	35.325
714.45	34.183
714.64	38.205
714.82	32.290
715.00	35.762
715.18	30.407
715.37	36.465
715.55	32.407
715.73	36.498
715.91	34.565
716.10	36.718
716.28	31.644
716.46	38.642
716.64	32.774
716.83	35.505
717.01	34.402
717.19	36.677
717.37	32.771
717.55	36.192
717.74	34.185
717.92	35.156
718.10	28.783
718.28	34.634
718.47	30.671
718.65	34.822
718.83	29.696
719.01	37.492
719.19	31.238
719.38	31.980
719.56	27.198
719.74	33.313
719.92	26.207
720.10	28.471
720.29	27.728
720.47	32.391
720.65	27.782
720.83	32.096
721.01	26.675
721.20	28.649
721.38	29.630
721.56	32.960
721.74	28.323
721.92	32.060
722.11	26.210
722.29	31.994
722.47	28.837
722.65	32.915
722.83	32.176
723.01	30.369
723.20	29.514
723.38	32.639
723.56	29.476
723.74	36.069
723.92	31.594
724.10	32.695
724.29	24.238
724.47	31.704
724.65	27.853
724.83	31.815
725.01	29.815
725.19	36.324
725.38	32.009
725.56	31.673
725.74	31.387
725.92	33.357
726.10	25.249
726.28	34.025
726.46	31.435
726.65	28.732
726.83	28.740
727.01	32.319
727.19	32.327
727.37	35.972
727.55	27.169
727.73	31.008
727.92	33.056
728.10	35.141
728.28	28.464
728.46	30.991
728.64	27.328
728.82	35.822
729.00	30.161
729.19	35.959
729.37	33.289
729.55	35.096
729.73	29.377
729.91	32.604
730.09	34.062
730.27	34.898
730.45	30.849
730.63	36.042
730.82	32.254
731.00	34.549
731.18	32.381
731.36	35.937
731.54	29.724
731.72	35.361
731.90	29.400
732.08	33.654
732.26	32.000
732.45	35.714
732.63	36.170
732.81	38.777
732.99	32.917
733.17	36.520
733.35	30.602
733.53	39.833
733.71	34.511
733.89	37.539
734.07	33.969
734.25	37.453
734.44	32.954
734.62	35.977
734.80	32.208
734.98	39.002
735.16	38.324
735.34	38.735
735.52	36.345
735.70	34.931
735.88	33.752
736.06	37.175
736.24	39.531
736.42	33.412
736.60	36.364
736.78	37.342
736.97	31.550
737.15	40.313
737.33	34.486
737.51	37.256
737.69	35.849
737.87	37.161
738.05	36.068
738.23	39.272
738.41	36.032
738.59	37.438
738.77	35.690
738.95	42.333
739.13	34.936
739.31	39.685
739.49	33.971
739.67	39.291
739.85	36.842
740.03	37.705
740.21	35.764
740.39	36.204
740.57	36.287
740.75	39.832
740.93	34.068
741.11	40.282
741.30	32.308
741.48	38.430
741.66	33.779
741.84	39.203
742.02	34.274
742.20	40.142
742.38	34.511
742.56	38.158
742.74	33.814
742.92	40.386
743.10	32.698
743.28	42.609
743.46	34.176
743.64	33.302
743.82	34.800
744.00	40.730
744.18	37.500
744.36	36.444
744.54	29.348
744.72	41.518
744.90	34.411
745.08	34.749
745.26	37.756
745.44	37.948
745.62	30.715
745.80	42.208
745.98	37.678
746.16	35.439
746.34	34.404
746.52	40.471
746.70	31.109
746.87	37.641
747.05	32.872
747.23	40.798
747.41	31.702
747.59	38.595
747.77	30.221
747.95	36.148
748.13	33.506
748.31	37.309
748.49	37.048
748.67	35.630
748.85	33.505
749.03	37.200
749.21	34.834
749.39	47.041
749.57	30.312
749.75	35.973
749.93	36.145
750.11	39.218
750.29	34.824
750.47	38.114
750.65	37.171
750.83	44.549
751.01	31.457
751.18	42.032
751.36	35.494
751.54	34.721
751.72	33.267
751.90	37.112
752.08	33.863
752.26	37.239
752.44	34.747
752.62	35.248
752.80	33.368
752.98	41.418
753.16	32.700
753.34	33.366
753.52	38.848
753.69	36.641
753.87	35.694
754.05	39.755
754.23	33.470
754.41	43.431
754.59	41.478
754.77	35.035
754.95	35.362
755.13	45.511
755.31	40.081
755.49	36.303
755.66	35.650
755.84	34.302
756.02	33.962
756.20	39.340
756.38	33.194
756.56	39.282
756.74	37.649
756.92	37.373
757.10	36.000
757.28	39.899
757.45	38.836
757.63	42.967
757.81	34.418
757.99	42.575
758.17	36.034
758.35	38.226
758.53	32.845
758.71	34.038
758.88	33.973
759.06	36.703
759.24	33.583
759.42	33.137
759.60	31.469
759.78	38.377
759.96	23.039
760.13	29.698
760.31	22.863
760.49	27.945
760.67	20.904
760.85	20.459
761.03	21.026
761.21	23.742
761.38	16.263
761.56	23.694
761.74	18.989
761.92	31.748
762.10	13.327
762.28	23.394
762.46	19.167
762.63	22.141
762.81	19.924
762.99	22.081
763.17	20.857
763.35	24.628
763.53	22.280
763.70	28.326
763.88	26.886
764.06	29.259
764.24	23.964
764.42	30.857
764.60	27.409
764.77	31.360
764.95	27.596
765.13	31.892
765.31	25.677
765.49	30.794
765.66	26.102
765.84	33.031
766.02	30.067
766.20	27.947
766.38	23.224
766.56	33.333
766.73	30.225
766.91	32.326
767.09	29.749
767.27	34.622
767.45	29.299
767.62	30.686
767.80	28.878
767.98	35.750
768.16	30.322
768.33	37.018
768.51	30.842
768.69	35.739
768.87	35.288
769.05	35.748
769.22	28.556
769.40	38.914
769.58	37.764
769.76	38.706
769.94	31.341
770.11	29.461
770.29	32.463
770.47	34.194
770.65	30.751
770.82	37.136
771.00	34.109
771.18	41.585
771.36	37.891
771.53	27.831
771.71	33.816
771.89	36.054
772.07	32.240
772.25	41.022
772.42	31.627
772.60	37.739
772.78	32.656
772.96	37.420
773.13	35.302
773.31	28.495
773.49	39.187
773.67	26.799
773.84	30.548
774.02	34.370
774.20	28.613
774.37	34.214
774.55	32.518
774.73	31.153
774.91	34.750
775.08	33.575
775.26	31.140
775.44	40.084
775.62	30.999
775.79	36.011
775.97	37.231
776.15	26.705
776.32	28.659
776.50	41.705
776.68	32.706
776.86	38.199
777.03	42.405
777.21	38.619
777.39	40.348
777.56	39.124
777.74	29.367
777.92	30.181
778.10	34.727
778.27	41.240
778.45	26.180
778.63	35.229
778.80	34.076
778.98	35.378
779.16	37.353
779.34	26.851
779.51	37.577
779.69	39.735
779.87	38.095
780.04	35.352
780.22	29.118
780.40	36.261
780.57	29.984
780.75	37.570
780.93	38.305
781.10	36.555
781.28	34.267
781.46	28.826
781.63	30.579
781.81	40.337
781.99	32.401
782.16	32.285
782.34	26.936
782.52	31.562
782.69	41.916
782.87	34.291
783.05	30.964
783.22	35.000
783.40	28.864
783.58	42.114
783.75	26.804
783.93	39.967
784.11	30.404
784.28	33.218
784.46	28.748
784.64	31.429
784.81	31.900
784.99	38.325
785.17	33.786
785.34	36.299
785.52	31.619
785.69	20.036
785.87	33.892
786.05	36.786
786.22	38.113
786.40	39.416
786.58	39.430
786.75	23.290
786.93	31.338
787.11	30.594
787.28	31.100
787.46	38.267
787.63	29.020
787.81	36.612
787.99	31.107
788.16	29.180
788.34	27.653
788.51	33.026
788.69	27.197
788.87	25.599
789.04	28.225
789.22	30.479
789.39	21.417
789.57	31.982
789.75	31.901
789.92	32.743
790.10	27.116
790.27	34.429
790.45	31.596
790.63	29.984
790.80	29.450
790.98	31.690
791.15	35.248
791.33	29.201
791.51	29.942
791.68	30.162
791.86	34.087
792.03	31.346
792.21	30.882
792.39	32.979
792.56	26.178
792.74	31.191
792.91	29.259
793.09	26.186
793.26	29.979
793.44	28.273
793.62	28.543
793.79	27.634
793.97	34.308
794.14	25.725
794.32	25.100
794.49	36.767
794.67	27.033
794.84	29.140
795.02	32.514
795.20	25.142
795.37	25.400
795.55	28.571
795.72	22.201
795.90	32.749
796.07	30.357
796.25	32.188
796.42	31.294
796.60	32.387
796.77	29.359
796.95	37.251
797.13	25.565
797.30	34.409
797.48	19.275
797.65	26.806
797.83	26.643
798.00	28.918
798.18	27.757
798.35	28.621
798.53	33.592
798.70	24.425
798.88	36.508
799.05	30.125
799.23	21.311
799.40	27.936
799.58	33.043
799.75	35.951
799.93	25.621
800.10	28.571
800.28	35.611
800.45	33.199
800.63	18.251
800.80	35.072
800.98	27.599
801.15	33.032
801.33	25.581
801.50	29.211
801.68	21.522
801.85	31.274
802.03	29.058
802.20	29.697
802.38	29.775
802.55	26.763
802.73	37.958
802.90	24.444
803.08	30.297
803.25	37.074
803.43	24.590
803.60	29.139
803.78	24.558
803.95	21.429
804.13	27.672
804.30	25.951
804.48	19.869
804.65	27.865
804.83	34.004
805.00	32.450
805.17	36.461
805.35	22.284
805.52	30.143
805.70	30.913
805.87	31.679
806.05	29.317
806.22	31.458
806.40	22.495
806.57	32.752
806.75	30.533
806.92	34.979
807.09	28.842
807.27	31.429
807.44	30.648
807.62	23.574
807.79	27.664
807.97	25.600
808.14	29.730
808.31	20.614
808.49	25.059
808.66	29.630
808.84	20.926
809.01	27.126
809.19	15.728
809.36	34.864
809.53	27.002
809.71	26.923
809.88	42.177
810.06	26.696
810.23	26.503
810.41	34.172
810.58	26.942
810.75	16.316
810.93	22.603
811.10	25.764
811.28	18.876
811.45	40.100
811.62	27.366
811.80	22.613
811.97	32.663
812.15	30.752
812.32	27.487
812.49	32.187
812.67	26.014
812.84	23.317
813.02	31.481
813.19	34.383
813.36	26.796
813.54	14.358
813.71	26.804
813.89	27.461
814.06	27.068
814.23	12.941
814.41	35.606
814.58	26.997
814.75	25.886
814.93	24.257
815.10	26.260
815.28	38.557
815.45	18.970
815.62	24.713
815.80	16.959
815.97	22.000
816.14	29.178
816.32	28.941
816.49	11.873
816.66	17.600
816.84	25.057
817.01	32.181
817.18	20.627
817.36	31.362
817.53	24.757
817.71	22.879
817.88	22.685
818.05	30.248
818.23	23.358
818.40	21.333
818.57	20.046
818.75	31.579
818.92	27.318
819.09	6.297
819.27	21.250
819.44	22.565
819.61	22.864
819.79	17.002
819.96	16.895
820.13	23.092
820.31	25.219
820.48	29.328
820.65	24.404
820.82	19.397
821.00	23.156
821.17	17.411
821.34	22.832
821.52	21.818
821.69	21.605
821.86	19.846
822.04	25.738
822.21	25.854
822.38	26.795
822.56	20.951
822.73	30.223
822.90	27.273
823.07	32.129
823.25	32.211
823.42	33.079
823.59	32.263
823.77	32.275
823.94	32.230
824.11	33.978
824.29	28.052
824.46	36.122
824.63	29.301
824.80	30.385
824.98	26.333
825.15	28.888
825.32	26.168
825.49	28.868
825.67	22.445
825.84	28.698
826.01	24.333
826.19	29.250
826.36	18.889
826.53	28.329
826.70	20.957
826.88	28.057
827.05	16.229
827.22	21.506
827.39	26.557
827.57	20.559
827.74	16.995
827.91	22.104
828.08	24.025
828.26	22.399
828.43	20.065
828.60	27.660
828.77	21.301
828.95	23.178
829.12	20.850
829.29	18.592
829.46	22.667
829.64	17.304
829.81	16.005
829.98	21.766
830.15	19.054
830.32	22.572
830.50	15.116
830.67	20.364
830.84	21.558
831.01	15.752
831.19	21.481
831.36	20.120
831.53	27.354
831.70	23.908
831.87	16.949
832.05	28.037
832.22	36.000
832.39	20.095
832.56	19.261
832.74	17.972
832.91	23.441
833.08	37.179
833.25	15.517
833.42	18.789
833.60	20.909
833.77	13.021
833.94	12.460
834.11	15.818
834.28	19.926
834.45	13.017
834.63	18.514
834.80	23.804
834.97	28.941
835.14	18.020
835.31	19.113
835.49	20.702
835.66	15.625
835.83	16.133
836.00	18.616
836.17	19.490
836.34	20.351
836.52	14.264
836.69	29.984
836.86	23.201
837.03	19.397
837.20	20.741
837.37	20.472
837.55	22.292
837.72	12.073
837.89	31.313
838.06	32.571
838.23	26.961
838.40	26.506
838.58	26.513
838.75	11.551
838.92	33.127
839.09	24.742
839.26	36.304
839.43	42.321
839.60	32.733
839.78	48.701
839.95	30.518
840.12	32.082
840.29	30.169
840.46	26.380
840.63	35.737
840.80	18.447
840.98	25.321
841.15	32.813
841.32	31.818
841.49	28.105
841.66	34.684
841.83	27.329
842.00	38.206
842.17	32.670
842.34	11.486
842.52	39.333
842.69	13.559
842.86	30.233
843.03	39.114
843.20	21.839
843.37	30.996
843.54	14.232
843.71	22.768
843.88	46.222
844.06	58.400
844.23	27.619
844.40	40.889
844.57	60.221
844.74	56.098
844.91	27.053
845.08	51.136
845.25	46.377
845.42	40.323
845.59	22.105
845.76	45.128
845.94	42.079
846.11	40.411
846.28	53.571
846.45	67.978
846.62	58.442
846.79	52.055
846.96	29.630
847.13	58.140
847.30	60.000
847.47	48.921
847.64	48.062
847.81	37.288
847.98	33.166
848.15	97.810
848.32	66.667
848.50	94.012
848.67	39.080
848.84	46.575
849.01	39.665
849.18	45.876
849.35	46.875
849.52	37.931
849.69	46.358
849.86	16.327
850.03	49.254
850.20	48.538
850.37	25.210
850.54	36.313
850.71	52.980
850.88	39.106
851.05	44.068
851.22	42.135
851.39	46.847
851.56	49.107
851.73	44.654
851.90	33.540
852.07	73.684
852.24	43.421
852.41	46.667
852.58	59.859
852.75	32.184
852.92	33.659
853.09	39.844
853.26	40.741
853.43	50.943
853.60	41.573
853.77	75.949
853.94	54.745
854.11	48.951
854.28	44.000
854.45	26.563
854.62	64.467
854.79	32.026
854.96	57.600
855.13	32.749
855.30	77.551
855.47	50.000
855.64	81.203
855.81	75.806
855.98	55.556
856.15	45.946
856.32	35.220
856.49	55.039
856.66	41.259
856.83	69.697
857.00	47.059
857.17	52.308
857.34	34.737
857.51	82.734
857.68	57.838
857.85	57.386
858.02	40.000
858.19	50.450
858.36	36.364
858.53	22.581
858.70	39.521
858.87	55.696
859.04	51.613
859.21	37.162
859.38	24.561
859.55	102.239
859.72	37.931
859.89	54.676
860.05	55.856
860.22	51.832
860.39	76.786
860.56	35.878
860.73	76.423
860.90	33.028
861.07	39.474
861.24	41.447
861.41	67.593
861.58	56.250
861.75	47.407
861.92	44.079
862.09	71.852
862.26	47.009
862.43	55.446
862.59	49.265
862.76	51.748
862.93	21.348
863.10	48.571
863.27	60.684
863.44	68.966
863.61	18.248
863.78	58.286
863.95	56.863
864.12	45.402
864.29	36.752
864.45	51.724
864.62	45.763
864.79	21.705
864.96	30.081
865.13	63.063
865.30	56.522
865.47	44.512
865.64	60.432
865.81	38.931
865.97	64.000
866.14	42.857
866.31	41.667
866.48	56.954
866.65	16.026
866.82	66.456
866.99	47.863
867.16	55.639
867.33	87.097
867.49	38.272
867.66	39.175
867.83	32.283
868.00	62.329
868.17	38.843
868.34	50.877
868.51	45.714
868.67	63.291
868.84	70.833
869.01	54.400
869.18	46.809
869.35	38.760
869.52	56.349
869.69	60.959
869.85	48.598
870.02	36.538
870.19	96.610
870.36	44.138
870.53	30.000
870.70	98.113
870.86	18.000
871.03	43.210
871.20	63.303
871.37	50.862
871.54	60.811
871.71	37.143
871.87	44.654
872.04	50.857
872.21	86.957
872.38	64.228
872.55	72.840
872.72	21.875
872.88	87.151
873.05	51.724
873.22	83.673
873.39	66.327
873.56	73.373
873.72	47.647
873.89	41.615
874.06	25.373
874.23	72.034
874.40	33.000
874.56	78.947
874.73	60.976
874.90	55.085
875.07	47.857
875.24	49.689
875.40	91.597
875.57	74.312
875.74	64.000
875.91	27.523
876.08	66.957
876.24	51.163
876.41	88.800
876.58	62.766
876.75	46.099
876.92	32.353
877.08	33.824
877.25	40.870
877.42	71.875
877.59	101.020
877.75	18.667
877.92	43.452
878.09	43.750
878.26	32.934
878.42	46.250
878.59	69.565
878.76	65.132
878.93	63.433
879.09	17.172
879.26	30.488
879.43	49.189
879.60	28.671
879.76	26.705
879.93	43.333
880.10	31.333
880.27	18.012
880.43	34.078
880.60	25.571
880.77	16.477
880.94	7.960
881.10	31.858
881.27	32.787
881.44	7.082
881.61	25.336
881.77	28.489
881.94	18.343
882.11	15.669
882.28	19.903
882.44	11.157
882.61	13.080
882.78	20.677
882.94	22.236
883.11	17.654
883.28	17.676
883.45	22.531
883.61	19.108
883.78	17.550
883.95	17.371
884.11	23.372
884.28	15.464
>>>>>End Processed Spectral Data<<<<<
