SpectraSuite Data File
++++++++++++++++++++++++++++++++++++
Date: Sat Sep 21 03:18:45 EST 2019
User: sgrac
Dark Spectrum Present: Yes
Reference Spectrum Present: Yes
Number of Sampled Component Spectra: 1
Spectrometers: USB4E01596
Integration Time (usec): 100000 (USB4E01596)
Spectra Averaged: 1 (USB4E01596)
Boxcar Smoothing: 0 (USB4E01596)
Correct for Electrical Dark: No (USB4E01596)
Strobe/Lamp Enabled: Yes (USB4E01596)
Correct for Detector Non-linearity: No (USB4E01596)
Correct for Stray Light: No (USB4E01596)
Number of Pixels in Processed Spectrum: 3648
>>>>>Begin Processed Spectral Data<<<<<
178.44	-521.429
178.66	-521.429
178.87	-521.429
179.09	-357.143
179.30	-484.615
179.52	0.000
179.74	-1625.000
179.95	1500.000
180.17	520.000
180.38	6500.000
180.60	0.000
180.82	308.333
181.03	-357.895
181.25	308.696
181.46	-70.968
181.68	120.833
181.89	4800.000
182.11	265.714
182.33	-97.778
182.54	-262.500
182.76	-2550.000
182.97	780.000
183.19	1950.000
183.40	144.828
183.62	-44.444
183.84	-281.481
184.05	465.217
184.27	416.667
184.48	1028.571
184.70	214.000
184.91	-486.667
185.13	60.000
185.34	-132.143
185.56	161.667
185.78	0.000
185.99	380.000
186.21	275.862
186.42	353.333
186.64	103.226
186.85	255.556
187.07	152.727
187.28	220.000
187.50	-300.000
187.72	940.000
187.93	-5900.000
188.15	206.000
188.36	-305.882
188.58	-4800.000
188.79	268.182
189.01	263.889
189.22	1480.000
189.44	1750.000
189.65	183.333
189.87	425.000
190.09	-840.000
190.30	543.750
190.52	-4750.000
190.73	139.286
190.95	207.143
191.16	231.111
191.38	540.000
191.59	157.143
191.81	205.556
192.02	206.383
192.24	535.294
192.45	-940.000
192.67	334.286
192.88	283.333
193.10	340.000
193.31	450.000
193.53	-8700.000
193.74	106.098
193.96	429.167
194.18	151.613
194.39	-88.889
194.61	426.316
194.82	471.429
195.04	245.238
195.25	3150.000
195.47	180.488
195.68	153.191
195.90	1100.000
196.11	110.909
196.33	161.702
196.54	-3866.667
196.76	250.000
196.97	-900.000
197.19	403.571
197.40	155.882
197.62	164.063
197.83	113.514
198.05	-257.895
198.26	302.857
198.48	100.000
198.69	253.488
198.91	219.608
199.12	-137.143
199.34	-1560.000
199.55	4900.000
199.77	1200.000
199.98	192.000
200.20	118.310
200.41	571.429
200.63	-500.000
200.84	145.098
201.06	484.615
201.27	189.189
201.49	687.500
201.70	270.370
201.91	73.913
202.13	104.348
202.34	169.811
202.56	-700.000
202.77	711.111
202.99	282.143
203.20	1600.000
203.42	900.000
203.63	183.721
203.85	202.857
204.06	172.222
204.28	-620.000
204.49	117.143
204.71	187.179
204.92	0.000
205.14	-250.000
205.35	272.222
205.56	-1540.000
205.78	209.524
205.99	500.000
206.21	-74.194
206.42	335.484
206.64	321.429
206.85	1650.000
207.07	-461.538
207.28	600.000
207.50	-331.579
207.71	153.846
207.93	200.000
208.14	552.941
208.35	189.474
208.57	-9900.000
208.78	546.154
209.00	233.333
209.21	-3550.000
209.43	172.414
209.64	211.765
209.86	0.000
210.07	0.000
210.28	-470.588
210.50	146.939
210.71	157.895
210.93	209.524
211.14	-166.667
211.36	-183.871
211.57	-233.333
211.78	-143.478
212.00	0.000
212.21	197.674
212.43	-259.091
212.64	110.345
212.86	-162.500
213.07	-263.636
213.29	234.211
213.50	7000.000
213.71	107.547
213.93	828.571
214.14	95.455
214.36	2700.000
214.57	384.615
214.78	356.250
215.00	1800.000
215.21	105.556
215.43	324.000
215.64	287.179
215.86	102.857
216.07	5300.000
216.28	256.000
216.50	-471.429
216.71	-1100.000
216.93	163.830
217.14	187.500
217.35	203.704
217.57	157.143
217.78	937.500
218.00	-440.000
218.21	473.684
218.42	-1066.667
218.64	711.765
218.85	-788.889
219.07	321.429
219.28	375.000
219.49	84.211
219.71	1400.000
219.92	130.556
220.14	162.500
220.35	365.000
220.56	266.667
220.78	247.059
220.99	-7200.000
221.21	319.048
221.42	183.333
221.63	285.000
221.85	119.355
222.06	378.571
222.28	197.727
222.49	-4200.000
222.70	0.000
222.92	211.111
223.13	140.000
223.34	-2350.000
223.56	34.211
223.77	49.438
223.99	194.872
224.20	-16.667
224.41	121.622
224.63	263.889
224.84	113.793
225.05	110.714
225.27	151.429
225.48	193.478
225.69	385.714
225.91	114.815
226.12	113.889
226.34	101.961
226.55	25.926
226.76	133.871
226.98	56.000
227.19	79.545
227.40	51.240
227.62	58.537
227.83	85.000
228.04	73.626
228.26	71.287
228.47	93.103
228.69	32.895
228.90	69.014
229.11	29.630
229.33	25.121
229.54	-1.974
229.75	20.000
229.97	18.455
230.18	27.957
230.39	1.688
230.61	14.151
230.82	27.386
231.03	9.129
231.25	21.886
231.46	23.723
231.67	40.711
231.89	33.725
232.10	25.101
232.31	31.250
232.53	25.424
232.74	28.125
232.95	53.012
233.17	37.572
233.38	22.388
233.59	48.529
233.81	36.408
234.02	65.132
234.23	17.647
234.45	50.658
234.66	38.418
234.87	20.134
235.09	70.370
235.30	36.782
235.51	44.660
235.73	24.528
235.94	36.269
236.15	26.531
236.36	36.508
236.58	43.128
236.79	41.361
237.00	22.222
237.22	42.593
237.43	38.235
237.64	17.467
237.86	28.804
238.07	47.236
238.28	43.716
238.50	39.130
238.71	28.402
238.92	22.024
239.13	49.143
239.35	11.888
239.56	20.833
239.77	42.439
239.99	16.038
240.20	10.000
240.41	45.690
240.63	16.599
240.84	35.458
241.05	12.774
241.26	18.595
241.48	19.174
241.69	17.089
241.90	13.803
242.12	14.031
242.33	20.043
242.54	12.793
242.75	12.903
242.97	12.586
243.18	13.468
243.39	11.012
243.61	7.796
243.82	8.531
244.03	6.619
244.24	4.908
244.46	10.519
244.67	8.832
244.88	11.894
245.09	18.364
245.31	4.798
245.52	20.037
245.73	14.786
245.95	25.586
246.16	13.449
246.37	13.178
246.58	12.336
246.80	11.164
247.01	3.017
247.22	9.870
247.43	9.438
247.65	8.944
247.86	3.324
248.07	7.692
248.28	5.055
248.50	7.396
248.71	6.314
248.92	4.148
249.13	5.568
249.35	6.875
249.56	7.244
249.77	6.104
249.98	3.633
250.20	7.556
250.41	13.073
250.62	4.578
250.83	6.775
251.05	8.668
251.26	7.078
251.47	12.793
251.68	15.356
251.90	15.942
252.11	12.195
252.32	10.624
252.53	14.263
252.75	6.720
252.96	11.218
253.17	13.731
253.38	8.919
253.59	5.085
253.81	10.425
254.02	13.273
254.23	10.595
254.44	10.832
254.66	8.430
254.87	12.455
255.08	11.905
255.29	13.454
255.50	12.043
255.72	27.752
255.93	20.195
256.14	19.545
256.35	16.862
256.57	12.073
256.78	12.785
256.99	14.398
257.20	11.893
257.41	22.360
257.63	11.043
257.84	14.730
258.05	20.417
258.26	11.532
258.47	10.912
258.69	12.766
258.90	8.230
259.11	0.312
259.32	6.640
259.53	2.815
259.75	4.153
259.96	3.582
260.17	7.810
260.38	1.294
260.59	4.296
260.81	4.406
261.02	3.664
261.23	6.470
261.44	3.101
261.65	4.318
261.87	3.091
262.08	5.299
262.29	5.906
262.50	5.165
262.71	5.339
262.92	6.340
263.14	4.469
263.35	5.015
263.56	2.118
263.77	7.879
263.98	6.349
264.20	14.896
264.41	6.354
264.62	14.151
264.83	8.192
265.04	8.787
265.25	9.593
265.47	12.236
265.68	10.204
265.89	6.323
266.10	2.796
266.31	16.358
266.52	9.709
266.74	1.674
266.95	1.832
267.16	10.696
267.37	6.500
267.58	4.286
267.79	8.454
268.01	5.604
268.22	10.080
268.43	7.423
268.64	5.445
268.85	3.629
269.06	3.309
269.27	4.511
269.49	5.094
269.70	7.071
269.91	5.123
270.12	5.501
270.33	10.432
270.54	8.471
270.75	5.614
270.97	10.082
271.18	7.795
271.39	9.211
271.60	5.775
271.81	7.069
272.02	8.229
272.23	6.925
272.45	3.814
272.66	2.909
272.87	3.072
273.08	4.348
273.29	3.849
273.50	5.719
273.71	7.447
273.92	3.607
274.14	1.174
274.35	3.239
274.56	7.099
274.77	3.050
274.98	8.681
275.19	7.105
275.40	4.987
275.61	6.244
275.83	5.604
276.04	4.159
276.25	5.588
276.46	3.511
276.67	5.544
276.88	5.584
277.09	3.072
277.30	8.108
277.51	9.259
277.73	4.100
277.94	6.394
278.15	5.588
278.36	4.154
278.57	7.787
278.78	7.800
278.99	12.195
279.20	6.852
279.41	9.451
279.62	3.953
279.84	2.582
280.05	7.400
280.26	11.387
280.47	5.948
280.68	1.965
280.89	7.596
281.10	9.100
281.31	1.521
281.52	8.862
281.73	10.200
281.94	6.182
282.16	7.233
282.37	8.891
282.58	8.030
282.79	4.870
283.00	8.521
283.21	3.952
283.42	4.391
283.63	2.412
283.84	5.678
284.05	7.390
284.26	4.196
284.47	6.875
284.68	6.913
284.89	5.446
285.11	7.296
285.32	6.330
285.53	4.518
285.74	9.173
285.95	7.534
286.16	5.952
286.37	4.102
286.58	3.394
286.79	6.543
287.00	5.231
287.21	4.982
287.42	3.669
287.63	4.363
287.84	2.642
288.05	1.830
288.26	3.398
288.48	5.941
288.69	3.629
288.90	2.847
289.11	3.123
289.32	3.813
289.53	3.006
289.74	4.714
289.95	7.306
290.16	9.188
290.37	2.674
290.58	4.332
290.79	3.976
291.00	8.220
291.21	4.878
291.42	4.167
291.63	2.083
291.84	6.814
292.05	4.509
292.26	4.356
292.47	4.707
292.68	2.808
292.89	5.712
293.10	5.036
293.31	6.133
293.52	5.522
293.73	3.534
293.94	6.475
294.15	1.686
294.36	2.412
294.57	6.317
294.79	8.456
295.00	6.461
295.21	4.023
295.42	6.889
295.63	6.567
295.84	3.037
296.05	2.867
296.26	5.563
296.47	4.680
296.68	7.400
296.89	3.954
297.10	4.548
297.31	3.653
297.52	4.865
297.73	4.555
297.94	3.931
298.15	2.896
298.36	5.391
298.57	3.510
298.78	6.415
298.99	2.335
299.20	4.010
299.41	2.801
299.62	6.826
299.83	6.413
300.04	5.865
300.25	4.308
300.46	6.595
300.67	6.614
300.88	5.875
301.09	2.795
301.30	6.861
301.50	7.323
301.71	7.477
301.92	8.088
302.13	5.310
302.34	4.920
302.55	4.576
302.76	6.465
302.97	9.001
303.18	5.328
303.39	3.446
303.60	3.134
303.81	7.461
304.02	6.489
304.23	6.778
304.44	4.927
304.65	2.076
304.86	6.288
305.07	6.551
305.28	7.441
305.49	9.016
305.70	7.533
305.91	8.233
306.12	7.770
306.33	4.083
306.54	9.024
306.75	7.178
306.96	7.579
307.17	6.034
307.38	3.664
307.58	7.203
307.79	8.428
308.00	5.354
308.21	8.488
308.42	7.463
308.63	9.176
308.84	6.671
309.05	5.646
309.26	3.688
309.47	5.722
309.68	8.662
309.89	8.225
310.10	7.232
310.31	5.919
310.52	4.664
310.73	9.498
310.94	3.411
311.14	6.304
311.35	5.585
311.56	4.874
311.77	5.983
311.98	4.431
312.19	5.000
312.40	4.897
312.61	6.054
312.82	5.591
313.03	4.443
313.24	5.346
313.45	6.565
313.66	5.930
313.86	7.126
314.07	6.046
314.28	6.601
314.49	6.957
314.70	6.662
314.91	9.460
315.12	9.202
315.33	5.941
315.54	7.143
315.75	7.914
315.96	6.091
316.16	6.069
316.37	6.575
316.58	5.481
316.79	8.481
317.00	10.966
317.21	5.130
317.42	4.109
317.63	7.270
317.84	7.410
318.05	9.034
318.25	7.041
318.46	5.960
318.67	5.531
318.88	7.869
319.09	9.338
319.30	7.814
319.51	6.459
319.72	9.606
319.93	6.479
320.13	8.204
320.34	8.298
320.55	4.364
320.76	6.967
320.97	9.364
321.18	7.126
321.39	8.050
321.60	11.208
321.80	10.935
322.01	9.141
322.22	7.087
322.43	6.714
322.64	4.055
322.85	3.454
323.06	10.402
323.27	9.110
323.47	8.059
323.68	8.503
323.89	7.640
324.10	7.797
324.31	6.224
324.52	10.559
324.73	8.247
324.93	6.154
325.14	7.119
325.35	6.724
325.56	9.731
325.77	5.709
325.98	8.294
326.19	8.240
326.39	5.607
326.60	7.610
326.81	6.629
327.02	8.029
327.23	5.263
327.44	10.672
327.64	6.763
327.85	5.344
328.06	10.000
328.27	12.155
328.48	9.308
328.69	6.015
328.90	4.850
329.10	7.233
329.31	4.242
329.52	10.354
329.73	11.508
329.94	5.125
330.15	9.079
330.35	8.362
330.56	8.121
330.77	8.009
330.98	6.783
331.19	8.180
331.39	9.413
331.60	9.085
331.81	8.943
332.02	10.107
332.23	9.843
332.44	5.541
332.64	5.623
332.85	9.419
333.06	13.714
333.27	6.013
333.48	9.201
333.68	8.395
333.89	7.327
334.10	2.991
334.31	9.804
334.52	8.853
334.72	8.970
334.93	7.356
335.14	8.608
335.35	5.755
335.56	7.759
335.76	4.789
335.97	10.000
336.18	6.799
336.39	8.773
336.60	12.088
336.80	8.704
337.01	7.332
337.22	6.974
337.43	9.593
337.64	11.406
337.84	7.692
338.05	6.232
338.26	10.234
338.47	9.150
338.68	4.474
338.88	7.917
339.09	12.036
339.30	7.742
339.51	9.541
339.71	12.471
339.92	6.805
340.13	9.805
340.34	9.309
340.55	9.916
340.75	9.922
340.96	8.036
341.17	9.080
341.38	8.651
341.58	8.328
341.79	8.580
342.00	8.436
342.21	9.245
342.41	5.639
342.62	8.723
342.83	10.937
343.04	4.849
343.24	8.458
343.45	10.862
343.66	4.877
343.87	8.778
344.07	4.656
344.28	10.583
344.49	9.155
344.70	13.962
344.90	7.501
345.11	7.874
345.32	8.778
345.53	6.233
345.73	7.932
345.94	10.772
346.15	9.918
346.36	8.967
346.56	9.104
346.77	11.006
346.98	8.790
347.19	11.834
347.39	10.204
347.60	6.839
347.81	9.182
348.02	8.678
348.22	5.212
348.43	8.989
348.64	9.693
348.84	8.948
349.05	10.860
349.26	12.944
349.47	6.934
349.67	9.767
349.88	11.519
350.09	8.255
350.30	12.632
350.50	9.614
350.71	11.851
350.92	9.120
351.12	9.176
351.33	10.332
351.54	10.679
351.74	10.105
351.95	9.201
352.16	11.392
352.37	13.186
352.57	8.545
352.78	8.666
352.99	12.146
353.19	8.388
353.40	10.229
353.61	12.624
353.82	10.499
354.02	10.675
354.23	11.915
354.44	13.035
354.64	11.066
354.85	9.109
355.06	10.435
355.26	6.560
355.47	11.144
355.68	10.729
355.88	12.203
356.09	9.487
356.30	8.099
356.51	11.524
356.71	12.089
356.92	8.661
357.13	10.904
357.33	12.016
357.54	9.637
357.75	7.063
357.95	11.248
358.16	9.518
358.37	12.805
358.57	9.363
358.78	14.740
358.99	10.980
359.19	8.486
359.40	13.402
359.61	10.858
359.81	13.612
360.02	14.545
360.23	8.113
360.43	12.191
360.64	9.817
360.85	11.778
361.05	9.359
361.26	14.703
361.47	9.486
361.67	13.925
361.88	8.260
362.09	14.825
362.29	8.889
362.50	10.171
362.70	7.917
362.91	13.213
363.12	8.426
363.32	10.415
363.53	11.494
363.74	11.295
363.94	7.643
364.15	13.613
364.36	11.564
364.56	9.739
364.77	11.158
364.98	12.550
365.18	9.996
365.39	13.137
365.59	8.458
365.80	11.664
366.01	11.988
366.21	10.502
366.42	7.579
366.63	11.016
366.83	8.574
367.04	6.657
367.24	13.197
367.45	8.470
367.66	7.286
367.86	10.439
368.07	9.581
368.28	9.784
368.48	9.459
368.69	6.728
368.89	7.932
369.10	10.742
369.31	8.691
369.51	8.392
369.72	10.438
369.92	12.343
370.13	6.237
370.34	10.901
370.54	6.280
370.75	10.375
370.95	6.327
371.16	9.830
371.37	9.455
371.57	10.413
371.78	7.915
371.98	10.088
372.19	10.631
372.40	11.379
372.60	10.852
372.81	11.332
373.01	7.003
373.22	8.302
373.43	10.350
373.63	11.524
373.84	8.678
374.04	11.007
374.25	7.167
374.46	9.555
374.66	7.803
374.87	8.085
375.07	5.249
375.28	7.814
375.48	7.450
375.69	10.852
375.90	5.857
376.10	6.150
376.31	7.355
376.51	6.191
376.72	8.040
376.92	5.979
377.13	9.983
377.34	9.472
377.54	9.183
377.75	9.554
377.95	9.226
378.16	10.216
378.36	8.710
378.57	10.870
378.77	8.657
378.98	7.371
379.19	10.625
379.39	7.152
379.60	8.006
379.80	9.267
380.01	11.164
380.21	6.979
380.42	8.502
380.62	7.854
380.83	11.990
381.04	7.252
381.24	8.831
381.45	6.891
381.65	5.770
381.86	8.227
382.06	8.222
382.27	4.746
382.47	4.676
382.68	10.754
382.88	4.117
383.09	6.768
383.29	5.511
383.50	11.212
383.71	6.780
383.91	7.559
384.12	6.644
384.32	9.301
384.53	6.599
384.73	6.027
384.94	6.075
385.14	6.683
385.35	6.513
385.55	6.876
385.76	5.178
385.96	8.265
386.17	7.241
386.37	7.145
386.58	6.442
386.78	6.489
386.99	5.290
387.19	6.922
387.40	5.356
387.60	10.176
387.81	6.421
388.01	7.147
388.22	8.611
388.42	9.964
388.63	8.393
388.83	10.377
389.04	5.105
389.24	8.769
389.45	5.255
389.65	5.910
389.86	7.328
390.06	5.691
390.27	4.946
390.47	6.154
390.68	5.293
390.88	9.622
391.09	8.067
391.29	8.287
391.50	7.189
391.70	7.698
391.91	6.242
392.11	6.296
392.32	7.883
392.52	8.761
392.73	6.303
392.93	7.198
393.14	6.026
393.34	7.184
393.55	6.477
393.75	6.395
393.95	5.395
394.16	7.656
394.36	8.631
394.57	8.805
394.77	6.559
394.98	6.913
395.18	5.971
395.39	7.400
395.59	7.019
395.80	6.254
396.00	6.565
396.21	8.515
396.41	5.278
396.61	7.554
396.82	6.852
397.02	9.641
397.23	8.340
397.43	7.297
397.64	3.745
397.84	8.588
398.05	5.419
398.25	6.661
398.45	5.249
398.66	8.192
398.86	7.435
399.07	9.120
399.27	6.606
399.48	7.374
399.68	5.564
399.89	6.757
400.09	8.196
400.29	5.945
400.50	5.907
400.70	6.889
400.91	3.837
401.11	6.726
401.32	7.616
401.52	5.009
401.72	5.837
401.93	8.487
402.13	6.363
402.34	6.769
402.54	5.202
402.75	8.360
402.95	4.411
403.15	9.341
403.36	5.897
403.56	5.990
403.77	4.877
403.97	5.997
404.17	5.032
404.38	7.739
404.58	5.391
404.79	7.587
404.99	6.827
405.19	6.263
405.40	5.027
405.60	7.222
405.81	6.316
406.01	5.719
406.21	6.139
406.42	6.759
406.62	6.577
406.83	6.383
407.03	8.324
407.23	5.381
407.44	5.029
407.64	7.698
407.85	7.456
408.05	6.651
408.25	4.532
408.46	8.123
408.66	7.528
408.87	5.044
409.07	6.196
409.27	5.351
409.48	5.963
409.68	6.570
409.88	4.354
410.09	7.183
410.29	4.994
410.50	8.450
410.70	3.096
410.90	6.655
411.11	3.553
411.31	5.682
411.51	6.449
411.72	7.365
411.92	4.720
412.12	5.158
412.33	4.105
412.53	6.810
412.74	4.267
412.94	4.581
413.14	5.736
413.35	5.687
413.55	4.320
413.75	6.866
413.96	4.720
414.16	5.771
414.36	5.864
414.57	5.916
414.77	4.987
414.97	6.136
415.18	5.924
415.38	6.811
415.58	5.479
415.79	5.161
415.99	5.203
416.19	6.283
416.40	5.629
416.60	5.641
416.80	5.668
417.01	6.817
417.21	4.236
417.41	8.047
417.62	6.829
417.82	6.706
418.02	4.515
418.23	7.700
418.43	6.566
418.63	6.863
418.84	8.049
419.04	5.827
419.24	7.926
419.45	8.910
419.65	8.037
419.85	8.189
420.06	7.529
420.26	8.189
420.46	7.585
420.67	9.330
420.87	9.078
421.07	8.896
421.28	7.163
421.48	9.536
421.68	9.008
421.88	10.049
422.09	9.100
422.29	8.684
422.49	7.808
422.70	8.978
422.90	8.205
423.10	9.884
423.31	8.407
423.51	9.782
423.71	7.783
423.91	9.239
424.12	8.566
424.32	9.295
424.52	8.474
424.73	9.168
424.93	8.717
425.13	8.453
425.33	8.080
425.54	9.572
425.74	8.778
425.94	9.571
426.15	8.541
426.35	8.424
426.55	8.829
426.75	9.133
426.96	7.927
427.16	8.288
427.36	7.880
427.57	8.975
427.77	7.756
427.97	8.894
428.17	8.534
428.38	8.244
428.58	5.605
428.78	6.788
428.98	5.777
429.19	6.485
429.39	4.984
429.59	7.984
429.79	5.228
430.00	4.819
430.20	4.526
430.40	6.192
430.60	5.996
430.81	7.533
431.01	4.947
431.21	6.623
431.41	4.162
431.62	7.905
431.82	7.065
432.02	8.331
432.22	5.633
432.43	5.236
432.63	3.855
432.83	7.538
433.03	6.600
433.24	6.075
433.44	6.325
433.64	7.062
433.84	6.372
434.05	8.328
434.25	6.444
434.45	8.341
434.65	7.913
434.85	9.605
435.06	7.335
435.26	7.892
435.46	7.180
435.66	7.423
435.87	6.858
436.07	7.158
436.27	6.596
436.47	6.346
436.67	5.160
436.88	7.777
437.08	6.823
437.28	7.094
437.48	6.455
437.69	8.807
437.89	6.702
438.09	8.625
438.29	6.253
438.49	9.161
438.70	7.496
438.90	7.216
439.10	6.801
439.30	8.237
439.50	6.303
439.71	8.199
439.91	6.987
440.11	9.347
440.31	8.122
440.51	8.128
440.72	7.167
440.92	8.927
441.12	8.341
441.32	9.407
441.52	9.295
441.72	9.726
441.93	7.946
442.13	9.232
442.33	8.385
442.53	9.569
442.73	7.645
442.94	9.368
443.14	7.632
443.34	9.100
443.54	8.677
443.74	9.167
443.94	8.087
444.15	7.408
444.35	6.323
444.55	9.210
444.75	7.474
444.95	8.256
445.15	7.548
445.36	8.290
445.56	6.480
445.76	8.837
445.96	7.367
446.16	8.389
446.36	6.963
446.57	9.581
446.77	7.257
446.97	9.500
447.17	9.296
447.37	8.931
447.57	8.985
447.77	9.489
447.98	8.662
448.18	10.295
448.38	8.222
448.58	9.571
448.78	8.756
448.98	8.868
449.18	7.913
449.39	8.432
449.59	8.081
449.79	8.016
449.99	7.221
450.19	8.841
450.39	7.877
450.59	8.665
450.79	6.596
451.00	8.635
451.20	8.080
451.40	7.166
451.60	6.201
451.80	8.231
452.00	6.825
452.20	7.651
452.40	6.744
452.61	6.914
452.81	7.279
453.01	9.062
453.21	6.458
453.41	7.764
453.61	6.587
453.81	7.674
454.01	7.725
454.21	8.665
454.42	8.170
454.62	8.118
454.82	6.922
455.02	7.289
455.22	5.951
455.42	6.478
455.62	5.102
455.82	8.357
456.02	6.564
456.23	7.596
456.43	6.238
456.63	8.022
456.83	6.064
457.03	8.755
457.23	6.640
457.43	8.045
457.63	6.154
457.83	7.621
458.03	6.268
458.23	8.188
458.43	6.113
458.64	7.249
458.84	6.267
459.04	8.105
459.24	7.316
459.44	9.014
459.64	8.144
459.84	8.741
460.04	8.241
460.24	8.790
460.44	8.845
460.64	9.128
460.84	8.338
461.04	9.567
461.24	9.195
461.45	10.134
461.65	9.800
461.85	9.850
462.05	9.465
462.25	9.615
462.45	9.454
462.65	8.860
462.85	7.157
463.05	8.599
463.25	6.263
463.45	8.268
463.65	6.605
463.85	8.017
464.05	6.351
464.25	7.368
464.45	8.491
464.65	7.077
464.85	5.559
465.05	7.613
465.26	7.581
465.46	8.633
465.66	7.541
465.86	8.281
466.06	6.618
466.26	7.921
466.46	5.445
466.66	7.551
466.86	6.965
467.06	7.175
467.26	7.105
467.46	8.277
467.66	6.654
467.86	7.271
468.06	7.111
468.26	7.218
468.46	7.353
468.66	7.155
468.86	5.250
469.06	8.458
469.26	5.841
469.46	7.995
469.66	5.944
469.86	7.716
470.06	6.744
470.26	8.455
470.46	5.820
470.66	8.929
470.86	6.202
471.06	7.125
471.26	4.982
471.46	6.676
471.66	7.280
471.86	7.259
472.06	6.204
472.26	8.705
472.46	8.870
472.66	7.865
472.86	6.624
473.06	7.330
473.26	6.896
473.46	7.149
473.66	6.473
473.86	8.589
474.06	6.888
474.26	7.710
474.46	5.361
474.66	7.928
474.86	6.605
475.06	8.728
475.26	4.878
475.46	8.057
475.66	5.244
475.86	7.215
476.06	7.979
476.26	8.648
476.46	6.461
476.66	7.555
476.86	6.027
477.06	7.493
477.26	6.501
477.46	7.761
477.65	6.561
477.85	8.129
478.05	6.072
478.25	8.914
478.45	6.506
478.65	8.065
478.85	7.078
479.05	8.598
479.25	7.311
479.45	9.495
479.65	6.749
479.85	8.649
480.05	7.123
480.25	8.799
480.45	7.336
480.65	8.870
480.85	7.399
481.05	9.254
481.25	8.528
481.44	8.352
481.64	6.346
481.84	9.251
482.04	8.511
482.24	9.221
482.44	7.677
482.64	9.388
482.84	9.075
483.04	9.775
483.24	9.342
483.44	9.668
483.64	9.288
483.84	9.966
484.04	10.019
484.23	10.248
484.43	9.999
484.63	10.250
484.83	10.442
485.03	10.854
485.23	10.583
485.43	10.655
485.63	10.559
485.83	10.819
486.03	10.708
486.23	10.482
486.42	10.651
486.62	10.799
486.82	9.994
487.02	10.185
487.22	10.139
487.42	10.418
487.62	10.224
487.82	10.385
488.02	10.118
488.22	10.460
488.41	10.289
488.61	10.181
488.81	10.040
489.01	10.244
489.21	10.176
489.41	10.643
489.61	10.006
489.81	10.310
490.01	10.159
490.20	10.878
490.40	10.589
490.60	10.219
490.80	9.921
491.00	10.469
491.20	10.133
491.40	9.740
491.60	9.818
491.79	10.221
491.99	10.018
492.19	9.959
492.39	10.063
492.59	10.220
492.79	10.195
492.99	10.355
493.19	10.407
493.38	10.285
493.58	10.698
493.78	10.601
493.98	10.453
494.18	10.265
494.38	10.205
494.58	9.915
494.77	8.370
494.97	9.727
495.17	9.232
495.37	9.950
495.57	8.643
495.77	9.294
495.96	9.008
496.16	8.062
496.36	8.339
496.56	9.664
496.76	7.763
496.96	9.150
497.15	8.358
497.35	9.322
497.55	8.510
497.75	9.567
497.95	8.792
498.15	9.525
498.34	8.996
498.54	9.309
498.74	9.352
498.94	9.887
499.14	8.160
499.34	10.120
499.53	8.820
499.73	9.613
499.93	8.755
500.13	9.065
500.33	7.711
500.52	8.805
500.72	7.502
500.92	9.135
501.12	6.979
501.32	8.482
501.52	8.641
501.71	8.349
501.91	7.141
502.11	8.653
502.31	7.227
502.51	9.108
502.70	6.932
502.90	7.724
503.10	6.397
503.30	9.247
503.50	8.674
503.69	8.380
503.89	7.686
504.09	9.046
504.29	8.023
504.48	9.272
504.68	8.736
504.88	9.168
505.08	7.350
505.28	9.169
505.47	8.264
505.67	10.294
505.87	8.256
506.07	8.354
506.27	7.049
506.46	9.166
506.66	7.885
506.86	8.724
507.06	8.839
507.25	8.894
507.45	7.983
507.65	9.413
507.85	7.806
508.04	9.751
508.24	8.925
508.44	8.294
508.64	8.015
508.83	8.982
509.03	8.449
509.23	9.598
509.43	8.214
509.63	9.654
509.82	8.010
510.02	10.051
510.22	8.189
510.42	9.962
510.61	8.732
510.81	9.955
511.01	9.146
511.21	10.185
511.40	9.055
511.60	9.844
511.80	8.763
511.99	9.924
512.19	9.373
512.39	9.839
512.59	8.735
512.78	9.814
512.98	9.502
513.18	9.250
513.38	8.854
513.57	10.167
513.77	9.655
513.97	9.416
514.17	9.067
514.36	9.727
514.56	8.592
514.76	9.686
514.95	7.893
515.15	9.430
515.35	7.282
515.55	9.087
515.74	8.995
515.94	10.084
516.14	8.059
516.33	9.225
516.53	8.377
516.73	8.771
516.93	8.862
517.12	9.693
517.32	7.055
517.52	9.659
517.71	8.401
517.91	9.583
518.11	8.998
518.30	10.150
518.50	8.648
518.70	9.649
518.90	9.464
519.09	10.531
519.29	10.234
519.49	10.208
519.68	9.159
519.88	10.614
520.08	10.082
520.27	10.167
520.47	10.217
520.67	10.729
520.86	10.044
521.06	10.767
521.26	8.462
521.45	10.272
521.65	9.144
521.85	9.828
522.04	9.063
522.24	10.041
522.44	8.370
522.63	9.451
522.83	8.142
523.03	9.880
523.22	8.753
523.42	9.770
523.62	9.171
523.81	9.816
524.01	9.832
524.21	9.438
524.40	8.533
524.60	9.712
524.80	8.143
524.99	9.800
525.19	9.317
525.39	10.091
525.58	8.894
525.78	10.379
525.98	10.252
526.17	10.957
526.37	10.360
526.57	10.936
526.76	10.409
526.96	11.044
527.15	10.308
527.35	10.952
527.55	10.270
527.74	11.175
527.94	10.797
528.14	11.052
528.33	10.640
528.53	10.744
528.72	10.769
528.92	10.905
529.12	11.130
529.31	11.035
529.51	11.314
529.71	11.535
529.90	11.405
530.10	11.210
530.29	11.270
530.49	11.514
530.69	11.106
530.88	11.449
531.08	10.864
531.28	11.482
531.47	10.983
531.67	11.381
531.86	11.323
532.06	11.438
532.26	10.752
532.45	11.197
532.65	10.992
532.84	10.954
533.04	10.274
533.24	10.855
533.43	10.274
533.63	11.419
533.82	11.006
534.02	11.172
534.22	11.068
534.41	11.072
534.61	11.171
534.80	10.899
535.00	11.339
535.19	11.754
535.39	10.884
535.59	11.367
535.78	11.115
535.98	10.943
536.17	10.540
536.37	11.320
536.57	10.745
536.76	11.121
536.96	10.868
537.15	11.495
537.35	10.944
537.54	11.643
537.74	10.924
537.93	11.386
538.13	10.757
538.33	11.388
538.52	11.021
538.72	11.234
538.91	10.437
539.11	10.970
539.30	9.656
539.50	11.589
539.70	9.881
539.89	11.409
540.09	10.229
540.28	11.027
540.48	9.123
540.67	10.994
540.87	10.526
541.06	11.694
541.26	10.873
541.45	11.509
541.65	11.314
541.85	11.425
542.04	11.380
542.24	11.467
542.43	11.753
542.63	11.668
542.82	11.718
543.02	11.290
543.21	11.977
543.41	11.936
543.60	12.277
543.80	11.626
543.99	11.819
544.19	12.072
544.38	11.701
544.58	11.515
544.77	11.654
544.97	11.797
545.16	10.887
545.36	12.121
545.56	11.270
545.75	11.863
545.95	10.632
546.14	12.039
546.34	10.228
546.53	11.745
546.73	11.352
546.92	11.863
547.12	10.638
547.31	11.897
547.51	10.638
547.70	11.862
547.90	10.201
548.09	11.286
548.29	10.996
548.48	12.163
548.68	11.782
548.87	12.071
549.07	11.013
549.26	11.110
549.46	10.785
549.65	11.374
549.84	9.911
550.04	10.826
550.23	9.624
550.43	10.486
550.62	9.569
550.82	10.377
551.01	8.978
551.21	9.863
551.40	9.926
551.60	10.416
551.79	9.337
551.99	9.919
552.18	8.420
552.38	9.864
552.57	9.939
552.77	11.385
552.96	10.644
553.16	12.029
553.35	10.757
553.54	11.359
553.74	10.788
553.93	12.166
554.13	11.127
554.32	11.910
554.52	10.063
554.71	11.649
554.91	9.929
555.10	11.605
555.29	9.074
555.49	11.240
555.68	9.231
555.88	11.336
556.07	9.014
556.27	10.985
556.46	11.194
556.66	10.410
556.85	11.346
557.04	10.844
557.24	10.370
557.43	10.988
557.63	10.928
557.82	10.586
558.02	8.866
558.21	11.559
558.40	9.062
558.60	11.341
558.79	10.683
558.99	11.337
559.18	9.919
559.38	10.882
559.57	11.060
559.76	11.639
559.96	10.374
560.15	11.659
560.35	10.017
560.54	10.375
560.73	9.307
560.93	11.964
561.12	10.544
561.32	12.031
561.51	10.329
561.70	11.788
561.90	11.263
562.09	13.198
562.29	11.422
562.48	12.549
562.67	10.846
562.87	12.621
563.06	10.960
563.26	11.625
563.45	11.270
563.64	12.299
563.84	11.746
564.03	12.711
564.23	10.116
564.42	12.521
564.61	11.212
564.81	12.335
565.00	12.594
565.20	14.058
565.39	12.897
565.58	13.048
565.78	12.332
565.97	13.510
566.16	13.355
566.36	15.082
566.55	13.142
566.74	14.116
566.94	12.881
567.13	14.986
567.33	12.674
567.52	14.441
567.71	13.493
567.91	14.893
568.10	13.923
568.29	14.745
568.49	12.785
568.68	14.518
568.87	13.322
569.07	14.080
569.26	13.662
569.45	15.243
569.65	13.161
569.84	13.877
570.04	13.467
570.23	13.911
570.42	12.415
570.62	15.021
570.81	14.414
571.00	15.115
571.20	14.821
571.39	15.484
571.58	14.531
571.78	15.839
571.97	14.084
572.16	15.444
572.36	13.946
572.55	15.531
572.74	15.077
572.94	15.808
573.13	14.947
573.32	16.332
573.51	14.579
573.71	15.955
573.90	14.347
574.09	15.939
574.29	14.899
574.48	15.557
574.67	15.280
574.87	15.824
575.06	14.808
575.25	15.679
575.45	14.156
575.64	15.375
575.83	14.935
576.03	16.307
576.22	14.393
576.41	15.763
576.60	14.814
576.80	16.280
576.99	15.645
577.18	16.980
577.38	14.247
577.57	15.706
577.76	15.431
577.95	14.589
578.15	14.147
578.34	16.060
578.53	14.624
578.73	16.010
578.92	13.178
579.11	14.729
579.30	14.626
579.50	15.536
579.69	14.659
579.88	14.260
580.08	13.054
580.27	15.042
580.46	13.824
580.65	15.465
580.85	12.292
581.04	15.130
581.23	13.366
581.42	15.036
581.62	12.081
581.81	15.051
582.00	13.463
582.19	14.478
582.39	13.676
582.58	14.261
582.77	14.281
582.96	14.171
583.16	13.212
583.35	15.516
583.54	13.922
583.73	13.893
583.93	15.112
584.12	14.166
584.31	12.867
584.50	14.602
584.70	13.576
584.89	14.657
585.08	12.733
585.27	15.227
585.47	12.039
585.66	14.889
585.85	12.746
586.04	13.636
586.24	14.040
586.43	13.375
586.62	12.447
586.81	15.599
587.00	12.767
587.20	14.871
587.39	12.106
587.58	15.489
587.77	14.220
587.97	13.676
588.16	13.849
588.35	14.543
588.54	13.261
588.73	14.248
588.93	15.837
589.12	15.427
589.31	13.894
589.50	15.069
589.69	15.040
589.89	16.193
590.08	13.613
590.27	15.296
590.46	14.384
590.65	15.049
590.85	13.343
591.04	15.975
591.23	15.018
591.42	15.201
591.61	14.393
591.81	15.636
592.00	13.841
592.19	16.696
592.38	13.630
592.57	16.135
592.77	16.060
592.96	14.452
593.15	15.467
593.34	15.291
593.53	14.106
593.72	15.957
593.92	13.623
594.11	16.582
594.30	14.771
594.49	16.297
594.68	15.141
594.87	16.678
595.07	13.635
595.26	17.112
595.45	14.239
595.64	16.882
595.83	14.317
596.02	17.462
596.22	15.566
596.41	17.508
596.60	16.396
596.79	17.004
596.98	15.726
597.17	17.387
597.37	15.828
597.56	18.789
597.75	16.366
597.94	18.711
598.13	18.083
598.32	17.196
598.51	16.634
598.71	18.752
598.90	16.250
599.09	18.314
599.28	16.500
599.47	17.709
599.66	16.091
599.85	17.413
600.05	14.245
600.24	17.644
600.43	15.916
600.62	17.030
600.81	16.522
601.00	17.023
601.19	13.548
601.38	17.175
601.58	16.262
601.77	16.010
601.96	14.877
602.15	18.131
602.34	15.184
602.53	17.461
602.72	15.175
602.91	18.006
603.10	15.886
603.30	17.046
603.49	16.300
603.68	18.196
603.87	15.773
604.06	18.091
604.25	17.400
604.44	18.121
604.63	17.868
604.82	19.273
605.01	19.133
605.21	18.876
605.40	18.729
605.59	18.904
605.78	18.728
605.97	19.745
606.16	17.749
606.35	19.405
606.54	17.206
606.73	19.104
606.92	16.820
607.11	18.653
607.30	17.683
607.50	19.446
607.69	17.280
607.88	17.758
608.07	15.209
608.26	17.885
608.45	17.346
608.64	18.930
608.83	16.923
609.02	18.213
609.21	17.271
609.40	20.052
609.59	17.205
609.78	19.298
609.97	17.809
610.16	19.602
610.35	17.917
610.55	19.447
610.74	18.525
610.93	19.284
611.12	18.725
611.31	18.342
611.50	17.230
611.69	18.430
611.88	17.609
612.07	20.425
612.26	16.612
612.45	18.830
612.64	16.860
612.83	18.017
613.02	17.028
613.21	17.717
613.40	16.375
613.59	16.905
613.78	14.687
613.97	17.072
614.16	16.764
614.35	17.843
614.54	14.605
614.73	17.359
614.92	15.346
615.11	17.279
615.30	13.788
615.49	15.719
615.68	16.302
615.87	15.965
616.07	13.897
616.26	16.575
616.45	15.861
616.64	16.797
616.83	16.226
617.02	17.821
617.21	15.356
617.40	16.536
617.59	16.842
617.78	17.776
617.97	15.837
618.16	14.848
618.35	13.442
618.54	16.320
618.73	15.138
618.92	15.586
619.11	15.411
619.30	18.004
619.49	13.672
619.68	18.002
619.86	14.720
620.05	15.953
620.24	14.279
620.43	15.650
620.62	12.267
620.81	15.827
621.00	16.782
621.19	18.073
621.38	15.190
621.57	17.393
621.76	14.453
621.95	18.054
622.14	16.432
622.33	18.130
622.52	13.880
622.71	17.437
622.90	14.758
623.09	16.914
623.28	15.881
623.47	18.188
623.66	16.538
623.85	16.981
624.04	14.944
624.23	16.516
624.42	14.777
624.61	16.738
624.80	14.387
624.99	16.644
625.18	14.725
625.36	16.701
625.55	16.938
625.74	15.659
625.93	14.007
626.12	17.564
626.31	18.147
626.50	17.369
626.69	16.392
626.88	20.724
627.07	18.242
627.26	18.272
627.45	16.961
627.64	19.735
627.83	16.186
628.02	19.762
628.20	17.218
628.39	18.836
628.58	18.235
628.77	19.028
628.96	18.040
629.15	18.654
629.34	17.731
629.53	18.795
629.72	16.327
629.91	19.913
630.10	17.423
630.29	16.681
630.47	15.965
630.66	17.726
630.85	16.815
631.04	18.254
631.23	17.084
631.42	17.704
631.61	16.301
631.80	20.101
631.99	15.880
632.18	16.737
632.36	15.036
632.55	18.894
632.74	15.648
632.93	17.054
633.12	15.561
633.31	17.175
633.50	16.873
633.69	19.118
633.88	14.377
634.06	18.743
634.25	15.581
634.44	18.488
634.63	17.185
634.82	19.071
635.01	16.058
635.20	19.087
635.39	16.252
635.57	19.309
635.76	16.716
635.95	18.171
636.14	15.506
636.33	18.429
636.52	15.220
636.71	17.941
636.89	17.498
637.08	18.782
637.27	14.192
637.46	17.583
637.65	15.725
637.84	17.405
638.03	14.416
638.21	18.168
638.40	15.983
638.59	16.927
638.78	14.791
638.97	17.093
639.16	17.163
639.34	16.225
639.53	11.940
639.72	17.595
639.91	15.128
640.10	15.286
640.29	17.482
640.47	17.456
640.66	16.391
640.85	19.340
641.04	12.414
641.23	18.647
641.42	14.798
641.60	16.621
641.79	15.326
641.98	15.325
642.17	15.079
642.36	17.974
642.54	14.489
642.73	15.417
642.92	11.770
643.11	15.391
643.30	13.439
643.49	14.990
643.67	12.809
643.86	15.931
644.05	13.881
644.24	16.114
644.43	15.286
644.61	17.000
644.80	13.457
644.99	15.797
645.18	17.630
645.37	16.403
645.55	14.748
645.74	16.077
645.93	16.065
646.12	16.542
646.31	15.684
646.49	15.664
646.68	15.668
646.87	16.435
647.06	13.891
647.24	16.637
647.43	12.739
647.62	17.564
647.81	13.580
648.00	16.692
648.18	12.428
648.37	17.092
648.56	14.518
648.75	16.310
648.93	14.555
649.12	17.331
649.31	13.464
649.50	14.727
649.68	14.873
649.87	15.607
650.06	12.213
650.25	16.864
650.43	13.809
650.62	14.768
650.81	15.006
651.00	16.672
651.18	14.936
651.37	17.921
651.56	14.134
651.75	17.039
651.93	14.188
652.12	17.248
652.31	14.173
652.50	16.501
652.68	16.231
652.87	17.667
653.06	16.944
653.25	19.303
653.43	14.742
653.62	15.944
653.81	13.439
654.00	18.456
654.18	13.311
654.37	18.517
654.56	14.188
654.74	14.630
654.93	13.644
655.12	15.328
655.31	13.103
655.49	16.435
655.68	12.167
655.87	13.771
656.05	11.429
656.24	13.958
656.43	10.178
656.62	15.632
656.80	13.848
656.99	12.488
657.18	11.040
657.36	14.989
657.55	16.116
657.74	13.024
657.93	15.466
658.11	17.523
658.30	13.776
658.49	14.062
658.67	14.670
658.86	14.842
659.05	13.049
659.23	17.011
659.42	14.241
659.61	17.375
659.79	14.380
659.98	16.659
660.17	16.208
660.35	16.473
660.54	16.481
660.73	19.936
660.91	16.695
661.10	17.930
661.29	13.240
661.47	15.602
661.66	15.948
661.85	16.095
662.03	13.652
662.22	11.736
662.41	9.000
662.59	15.258
662.78	10.069
662.97	12.179
663.15	12.121
663.34	12.997
663.53	9.427
663.71	12.355
663.90	12.513
664.09	13.437
664.27	11.148
664.46	13.053
664.65	9.652
664.83	11.377
665.02	9.622
665.21	8.307
665.39	9.499
665.58	12.419
665.77	11.152
665.95	11.671
666.14	8.231
666.32	10.369
666.51	9.831
666.70	9.517
666.88	8.561
667.07	9.862
667.26	9.002
667.44	9.644
667.63	9.077
667.81	8.637
668.00	9.844
668.19	12.310
668.37	11.662
668.56	14.665
668.75	8.963
668.93	13.383
669.12	9.459
669.30	10.926
669.49	9.935
669.68	11.348
669.86	10.772
670.05	9.882
670.23	8.234
670.42	10.490
670.61	11.115
670.79	11.010
670.98	11.421
671.16	12.071
671.35	9.816
671.54	11.652
671.72	9.179
671.91	11.289
672.09	7.937
672.28	12.009
672.46	12.664
672.65	12.348
672.84	11.248
673.02	12.457
673.21	6.887
673.39	9.176
673.58	10.393
673.77	10.596
673.95	9.174
674.14	12.663
674.32	8.890
674.51	12.747
674.69	9.613
674.88	9.848
675.07	8.117
675.25	15.189
675.44	10.290
675.62	9.961
675.81	10.125
675.99	17.647
676.18	11.635
676.36	9.745
676.55	6.817
676.74	13.294
676.92	11.994
677.11	12.475
677.29	10.195
677.48	12.239
677.66	11.341
677.85	10.284
678.03	10.321
678.22	11.537
678.40	10.124
678.59	10.129
678.78	9.101
678.96	11.600
679.15	9.488
679.33	14.476
679.52	13.131
679.70	11.742
679.89	10.134
680.07	12.927
680.26	9.630
680.44	13.628
680.63	14.905
680.81	13.074
681.00	9.482
681.18	13.421
681.37	12.044
681.55	14.847
681.74	14.731
681.92	15.187
682.11	13.364
682.29	13.011
682.48	12.078
682.66	14.315
682.85	12.741
683.03	14.126
683.22	15.130
683.40	16.376
683.59	13.461
683.77	14.467
683.96	10.614
684.14	15.343
684.33	9.924
684.51	17.186
684.70	14.083
684.88	17.823
685.07	15.298
685.25	16.407
685.44	11.304
685.62	15.538
685.81	13.495
685.99	16.374
686.18	11.798
686.36	13.928
686.55	11.573
686.73	12.298
686.92	14.695
687.10	15.484
687.29	14.923
687.47	16.356
687.65	16.166
687.84	15.136
688.02	19.618
688.21	18.984
688.39	12.257
688.58	18.848
688.76	14.353
688.95	16.726
689.13	14.923
689.32	18.584
689.50	14.414
689.68	17.566
689.87	14.274
690.05	18.292
690.24	19.063
690.42	20.352
690.61	17.571
690.79	17.509
690.98	15.672
691.16	18.228
691.34	12.715
691.53	18.335
691.71	16.024
691.90	17.901
692.08	16.204
692.27	21.770
692.45	20.831
692.63	18.437
692.82	18.190
693.00	19.236
693.19	17.079
693.37	20.897
693.56	17.243
693.74	24.545
693.92	18.294
694.11	20.914
694.29	16.144
694.48	21.912
694.66	17.897
694.84	21.919
695.03	16.896
695.21	23.292
695.40	23.172
695.58	24.100
695.76	20.144
695.95	24.328
696.13	18.372
696.32	23.593
696.50	28.253
696.68	23.187
696.87	19.001
697.05	25.252
697.24	22.738
697.42	29.176
697.60	23.621
697.79	26.850
697.97	26.069
698.16	29.670
698.34	24.796
698.52	29.318
698.71	27.001
698.89	30.662
699.07	27.573
699.26	30.031
699.44	28.670
699.63	32.115
699.81	27.004
699.99	32.065
700.18	31.313
700.36	31.889
700.54	29.932
700.73	31.512
700.91	29.017
701.09	30.151
701.28	26.915
701.46	31.669
701.64	26.855
701.83	31.588
702.01	26.199
702.20	32.906
702.38	27.549
702.56	29.684
702.75	23.593
702.93	26.490
703.11	24.916
703.30	27.591
703.48	25.000
703.66	31.244
703.85	25.443
704.03	31.989
704.21	27.223
704.40	28.198
704.58	24.864
704.76	27.174
704.95	28.266
705.13	29.053
705.31	26.897
705.50	27.906
705.68	27.522
705.86	34.603
706.04	27.471
706.23	31.823
706.41	28.156
706.59	28.727
706.78	25.356
706.96	28.962
707.14	30.033
707.33	27.762
707.51	27.525
707.69	31.468
707.88	27.893
708.06	29.418
708.24	28.571
708.42	34.161
708.61	24.920
708.79	31.083
708.97	30.985
709.16	30.395
709.34	29.312
709.52	28.365
709.71	28.967
709.89	32.409
710.07	25.569
710.25	31.243
710.44	27.731
710.62	32.975
710.80	28.624
710.98	33.702
711.17	31.962
711.35	32.974
711.53	30.386
711.72	33.400
711.90	33.266
712.08	34.476
712.26	32.655
712.45	33.532
712.63	34.474
712.81	35.471
712.99	32.237
713.18	32.656
713.36	31.786
713.54	32.095
713.72	27.906
713.91	28.839
714.09	29.528
714.27	32.052
714.45	33.403
714.64	35.804
714.82	29.630
715.00	31.788
715.18	31.478
715.37	34.660
715.55	30.658
715.73	36.243
715.91	34.565
716.10	32.566
716.28	29.970
716.46	35.822
716.64	29.929
716.83	34.242
717.01	30.212
717.19	31.687
717.37	28.170
717.55	36.036
717.74	30.000
717.92	30.971
718.10	27.588
718.28	31.116
718.47	29.504
718.65	32.504
718.83	29.810
719.01	34.237
719.19	26.684
719.38	27.122
719.56	26.945
719.74	32.751
719.92	23.574
720.10	27.452
720.29	25.782
720.47	30.913
720.65	27.512
720.83	30.469
721.01	22.930
721.20	28.108
721.38	27.677
721.56	27.992
721.74	27.279
721.92	32.265
722.11	23.306
722.29	29.017
722.47	24.019
722.65	30.056
722.83	30.441
723.01	29.549
723.20	27.845
723.38	30.000
723.56	30.131
723.74	33.333
723.92	27.899
724.10	27.376
724.29	25.726
724.47	32.296
724.65	23.742
724.83	28.272
725.01	26.177
725.19	32.823
725.38	28.495
725.56	29.145
725.74	29.270
725.92	31.523
726.10	24.395
726.28	27.798
726.46	28.772
726.65	30.211
726.83	27.266
727.01	29.710
727.19	31.925
727.37	32.361
727.55	27.738
727.73	29.420
727.92	29.514
728.10	35.408
728.28	25.377
728.46	33.815
728.64	28.138
728.82	30.740
729.00	29.088
729.19	36.986
729.37	28.117
729.55	33.885
729.73	29.896
729.91	39.026
730.09	34.576
730.27	36.168
730.45	27.997
730.63	30.799
730.82	29.339
731.00	31.565
731.18	28.844
731.36	33.778
731.54	25.853
731.72	34.411
731.90	26.141
732.08	33.077
732.26	29.733
732.45	36.283
732.63	33.710
732.81	34.092
732.99	30.668
733.17	36.393
733.35	29.193
733.53	33.932
733.71	32.240
733.89	35.103
734.07	33.397
734.25	38.764
734.44	32.686
734.62	34.881
734.80	30.655
734.98	36.441
735.16	31.232
735.34	32.552
735.52	33.199
735.70	32.244
735.88	32.053
736.06	32.788
736.24	34.480
736.42	35.915
736.60	32.288
736.78	42.052
736.97	27.236
737.15	36.851
737.33	27.901
737.51	33.685
737.69	32.896
737.87	33.282
738.05	33.387
738.23	38.876
738.41	33.571
738.59	34.959
738.77	31.818
738.95	39.641
739.13	33.654
739.31	37.874
739.49	33.174
739.67	39.372
739.85	33.684
740.03	37.549
740.21	34.445
740.39	37.400
740.57	38.059
740.75	37.156
740.93	31.393
741.11	34.635
741.30	35.385
741.48	35.650
741.66	32.274
741.84	36.296
742.02	32.821
742.20	35.968
742.38	34.593
742.56	35.351
742.74	32.913
742.92	34.592
743.10	33.243
743.28	36.135
743.46	30.524
743.64	34.972
743.82	29.326
744.00	38.136
744.18	34.945
744.36	32.889
744.54	31.028
744.72	34.396
744.90	29.753
745.08	34.653
745.26	31.902
745.44	35.237
745.62	27.593
745.80	38.493
745.98	35.966
746.16	37.019
746.34	34.819
746.52	37.398
746.70	28.754
746.87	32.513
747.05	31.277
747.23	36.605
747.41	33.404
747.59	32.790
747.77	30.422
747.95	35.118
748.13	29.162
748.31	34.924
748.49	34.337
748.67	34.449
748.85	31.856
749.03	34.800
749.21	31.605
749.39	41.123
749.57	27.388
749.75	35.777
749.93	36.345
750.11	37.212
750.29	34.063
750.47	37.011
750.65	33.659
750.83	42.243
751.01	30.754
751.18	37.968
751.36	32.613
751.54	35.838
751.72	34.965
751.90	35.756
752.08	25.521
752.26	37.736
752.44	35.300
752.62	31.584
752.80	34.292
752.98	42.960
753.16	36.600
753.34	37.427
753.52	29.319
753.69	35.782
753.87	29.569
754.05	39.042
754.23	33.984
754.41	35.000
754.59	35.271
754.77	37.337
754.95	31.691
755.13	39.457
755.31	33.401
755.49	36.207
755.66	30.916
755.84	36.434
756.02	27.408
756.20	43.774
756.38	29.749
756.56	31.911
756.74	30.478
756.92	37.678
757.10	37.641
757.28	34.271
757.45	33.439
757.63	37.473
757.81	31.164
757.99	38.318
758.17	36.887
758.35	35.378
758.53	33.822
758.71	36.757
758.88	32.917
759.06	32.679
759.24	29.644
759.42	33.333
759.60	32.068
759.78	32.465
759.96	22.451
760.13	25.998
760.31	20.192
760.49	24.343
760.67	20.527
760.85	23.231
761.03	21.026
761.21	23.172
761.38	15.005
761.56	23.321
761.74	18.893
761.92	29.515
762.10	16.309
762.28	28.440
762.46	20.093
762.63	22.232
762.81	20.680
762.99	25.550
763.17	20.695
763.35	22.173
763.53	21.982
763.70	28.755
763.88	27.435
764.06	26.918
764.24	23.316
764.42	31.576
764.60	28.546
764.77	26.767
764.95	23.917
765.13	29.610
765.31	27.627
765.49	27.849
765.66	26.791
765.84	32.053
766.02	30.215
766.20	28.317
766.38	26.203
766.56	34.014
766.73	26.684
766.91	30.647
767.09	27.061
767.27	29.770
767.45	31.574
767.62	36.961
767.80	26.244
767.98	31.678
768.16	27.934
768.33	32.951
768.51	32.211
768.69	36.197
768.87	35.398
769.05	35.047
769.22	29.548
769.40	33.937
769.58	33.913
769.76	37.973
769.94	37.561
770.11	34.012
770.29	31.468
770.47	35.670
770.65	34.867
770.82	34.692
771.00	30.103
771.18	38.049
771.36	35.937
771.53	33.494
771.71	31.842
771.89	38.776
772.07	30.874
772.25	42.956
772.42	33.202
772.60	36.564
772.78	26.560
772.96	32.312
773.13	28.571
773.31	30.645
773.49	30.334
773.67	31.087
773.84	33.429
774.02	38.963
774.20	26.277
774.37	36.579
774.55	29.065
774.73	33.645
774.91	34.598
775.08	36.035
775.26	38.743
775.44	35.196
775.62	28.316
775.79	26.686
775.97	31.231
776.15	27.273
776.32	26.965
776.50	40.465
776.68	30.101
776.86	40.062
777.03	33.703
777.21	37.363
777.39	29.753
777.56	39.593
777.74	26.054
777.92	38.387
778.10	28.296
778.27	41.860
778.45	27.245
778.63	39.336
778.80	38.217
778.98	37.090
779.16	31.993
779.34	31.060
779.51	34.816
779.69	40.728
779.87	35.023
780.04	28.732
780.22	26.471
780.40	34.561
780.57	26.475
780.75	30.587
780.93	30.612
781.10	36.028
781.28	35.750
781.46	26.690
781.63	31.240
781.81	38.190
781.99	33.882
782.16	33.113
782.34	28.114
782.52	35.910
782.69	30.389
782.87	30.236
783.05	32.318
783.22	36.786
783.40	32.177
783.58	45.927
783.75	31.615
783.93	38.499
784.11	30.756
784.28	39.100
784.46	36.332
784.64	36.250
784.81	31.541
784.99	34.783
785.17	33.592
785.34	35.943
785.52	34.095
785.69	34.838
785.87	26.257
786.05	37.143
786.22	36.038
786.40	37.956
786.58	40.268
786.75	34.196
786.93	35.035
787.11	32.692
787.28	34.364
787.46	34.296
787.63	27.647
787.81	28.233
787.99	33.040
788.16	29.180
788.34	22.508
788.51	30.876
788.69	23.383
788.87	31.287
789.04	32.018
789.22	30.624
789.39	22.570
789.57	30.480
789.75	23.306
789.92	31.268
790.10	32.425
790.27	33.286
790.45	32.859
790.63	31.100
790.80	28.479
790.98	29.930
791.15	29.503
791.33	29.527
791.51	29.175
791.68	27.469
791.86	32.696
792.03	31.005
792.21	35.110
792.39	34.043
792.56	27.923
792.74	35.917
792.91	28.704
793.09	28.647
793.26	31.656
793.44	29.032
793.62	30.709
793.79	19.682
793.97	37.427
794.14	30.368
794.32	32.731
794.49	30.728
794.67	27.439
794.84	27.673
795.02	31.758
795.20	23.629
795.37	41.400
795.55	27.667
795.72	26.493
795.90	25.146
796.07	31.944
796.25	32.007
796.42	28.497
796.60	29.716
796.77	31.317
796.95	31.465
797.13	28.000
797.30	37.455
797.48	24.547
797.65	32.263
797.83	30.551
798.00	27.612
798.18	21.140
798.35	34.138
798.53	35.534
798.70	24.248
798.88	38.294
799.05	30.660
799.23	17.122
799.40	25.979
799.58	33.043
799.75	32.810
799.93	29.446
800.10	36.842
800.28	36.232
800.45	40.845
800.63	22.624
800.80	37.050
800.98	26.087
801.15	28.520
801.33	32.752
801.50	27.957
801.68	25.652
801.85	31.660
802.03	28.257
802.20	28.889
802.38	32.959
802.55	32.573
802.73	32.177
802.90	28.081
803.08	26.733
803.25	34.669
803.43	28.484
803.60	30.905
803.78	22.200
803.95	21.212
804.13	34.924
804.30	25.727
804.48	28.384
804.65	32.360
804.83	30.382
805.00	33.554
805.17	34.115
805.35	22.099
805.52	28.310
805.70	31.120
805.87	33.969
806.05	29.116
806.22	17.917
806.40	26.276
806.57	39.147
806.75	34.836
806.92	39.712
807.09	33.263
807.27	33.469
807.44	37.917
807.62	26.236
807.79	36.262
807.97	27.400
808.14	35.967
808.31	28.947
808.49	32.388
808.66	34.815
808.84	22.535
809.01	28.506
809.19	20.892
809.36	40.292
809.53	21.510
809.71	27.778
809.88	34.240
810.06	28.009
810.23	33.185
810.41	30.818
810.58	24.029
810.75	18.421
810.93	34.247
811.10	27.511
811.28	21.798
811.45	27.318
811.62	29.156
811.80	27.136
811.97	23.618
812.15	36.219
812.32	31.152
812.49	25.307
812.67	32.458
812.84	21.394
813.02	27.778
813.19	34.383
813.36	30.387
813.54	27.960
813.71	16.237
813.89	32.124
814.06	26.817
814.23	23.529
814.41	35.606
814.58	29.752
814.75	29.700
814.93	36.634
815.10	24.138
815.28	36.318
815.45	25.293
815.62	31.609
815.80	13.450
815.97	25.750
816.14	31.565
816.32	29.199
816.49	18.206
816.66	21.333
816.84	20.501
817.01	32.613
817.18	34.204
817.36	21.594
817.53	40.777
817.71	27.249
817.88	25.000
818.05	28.442
818.23	19.465
818.40	23.733
818.57	20.729
818.75	25.053
818.92	27.068
819.09	19.647
819.27	20.250
819.44	14.727
819.61	28.637
819.79	20.805
819.96	16.667
820.13	25.703
820.31	29.772
820.48	38.900
820.65	31.009
820.82	21.281
821.00	28.988
821.17	16.369
821.34	21.939
821.52	18.322
821.69	27.407
821.86	15.877
822.04	24.262
822.21	20.497
822.38	23.670
822.56	20.159
822.73	31.237
822.90	27.366
823.07	28.899
823.25	27.302
823.42	30.332
823.59	29.316
823.77	31.690
823.94	30.411
824.11	31.277
824.29	29.108
824.46	32.418
824.63	30.865
824.80	27.866
824.98	25.586
825.15	30.306
825.32	19.377
825.49	24.654
825.67	19.442
825.84	23.521
826.01	22.583
826.19	28.583
826.36	19.167
826.53	22.073
826.70	19.617
826.88	24.834
827.05	18.011
827.22	16.969
827.39	22.787
827.57	20.312
827.74	18.966
827.91	24.543
828.08	21.529
828.26	24.464
828.43	17.790
828.60	24.744
828.77	22.439
828.95	22.850
829.12	19.542
829.29	18.498
829.46	22.286
829.64	21.444
829.81	16.913
829.98	24.627
830.15	21.295
830.32	26.378
830.50	9.157
830.67	20.033
830.84	27.899
831.01	18.761
831.19	19.074
831.36	14.741
831.53	25.561
831.70	29.195
831.87	19.068
832.05	27.570
832.22	32.000
832.39	17.730
832.56	23.483
832.74	20.507
832.91	20.200
833.08	27.564
833.25	3.202
833.42	18.998
833.60	21.818
833.77	17.187
833.94	18.371
834.11	16.622
834.28	18.193
834.45	17.397
834.63	16.078
834.80	23.235
834.97	22.973
835.14	19.800
835.31	18.999
835.49	17.778
835.66	17.625
835.83	16.261
836.00	23.019
836.17	24.713
836.34	22.694
836.52	15.184
836.69	30.298
836.86	17.806
837.03	23.352
837.20	16.852
837.37	21.260
837.55	24.375
837.72	16.856
837.89	43.182
838.06	27.429
838.23	26.716
838.40	34.036
838.58	29.971
838.75	22.112
838.92	36.533
839.09	21.993
839.26	35.644
839.43	45.392
839.60	39.940
839.78	44.805
839.95	35.422
840.12	36.519
840.29	42.034
840.46	32.209
840.63	44.828
840.80	33.010
840.98	42.308
841.15	32.500
841.32	23.030
841.49	30.065
841.66	39.494
841.83	21.118
842.00	29.236
842.17	36.648
842.34	14.865
842.52	54.667
842.69	11.864
842.86	24.031
843.03	58.303
843.20	36.398
843.37	34.686
843.54	19.850
843.71	33.036
843.88	45.333
844.06	52.400
844.23	32.857
844.40	59.556
844.57	44.199
844.74	47.561
844.91	31.884
845.08	67.614
845.25	29.469
845.42	36.022
845.59	46.842
845.76	34.872
845.94	51.980
846.11	50.000
846.28	41.667
846.45	71.348
846.62	64.935
846.79	45.205
846.96	46.914
847.13	61.628
847.30	37.241
847.47	30.216
847.64	57.364
847.81	77.966
847.98	36.683
848.15	62.774
848.32	61.006
848.50	59.880
848.67	36.207
848.84	48.630
849.01	54.749
849.18	43.814
849.35	64.063
849.52	55.172
849.69	49.007
849.86	61.905
850.03	64.179
850.20	52.047
850.37	43.697
850.54	53.073
850.71	54.305
850.88	50.279
851.05	77.966
851.22	46.629
851.39	45.946
851.56	24.107
851.73	57.233
851.90	49.689
852.07	87.218
852.24	82.895
852.41	49.524
852.58	58.451
852.75	44.828
852.92	56.585
853.09	75.781
853.26	51.852
853.43	47.170
853.60	47.191
853.77	102.532
853.94	72.993
854.11	68.531
854.28	44.000
854.45	46.094
854.62	53.299
854.79	60.131
854.96	70.400
855.13	47.953
855.30	77.551
855.47	48.276
855.64	34.586
855.81	46.774
855.98	27.778
856.15	78.378
856.32	50.943
856.49	45.736
856.66	51.748
856.83	24.242
857.00	57.516
857.17	60.000
857.34	9.474
857.51	51.079
857.68	51.351
857.85	74.432
858.02	57.778
858.19	55.856
858.36	40.909
858.53	37.419
858.70	48.503
858.87	60.759
859.04	41.129
859.21	33.784
859.38	62.281
859.55	85.821
859.72	81.609
859.89	33.094
860.05	43.243
860.22	61.780
860.39	82.143
860.56	48.092
860.73	87.805
860.90	15.596
861.07	60.526
861.24	57.895
861.41	64.815
861.58	79.167
861.75	69.630
861.92	60.526
862.09	66.667
862.26	46.154
862.43	66.337
862.59	88.971
862.76	75.524
862.93	85.393
863.10	33.333
863.27	45.299
863.44	36.782
863.61	42.336
863.78	55.429
863.95	58.170
864.12	38.506
864.29	65.812
864.45	54.310
864.62	33.898
864.79	53.488
864.96	60.976
865.13	49.550
865.30	72.671
865.47	70.732
865.64	51.799
865.81	74.809
865.97	80.000
866.14	66.667
866.31	74.167
866.48	45.033
866.65	43.590
866.82	40.506
866.99	62.393
867.16	76.692
867.33	44.086
867.49	74.691
867.66	75.258
867.83	60.630
868.00	74.658
868.17	61.157
868.34	77.193
868.51	34.286
868.67	64.557
868.84	37.500
869.01	54.400
869.18	60.284
869.35	42.636
869.52	37.302
869.69	40.411
869.85	56.075
870.02	52.885
870.19	96.610
870.36	73.793
870.53	51.429
870.70	71.698
870.86	46.000
871.03	50.617
871.20	65.138
871.37	68.966
871.54	53.378
871.71	42.857
871.87	49.686
872.04	51.429
872.21	73.043
872.38	83.740
872.55	51.852
872.72	28.125
872.88	61.453
873.05	41.379
873.22	58.503
873.39	56.122
873.56	59.763
873.72	61.176
873.89	59.006
874.06	47.761
874.23	80.508
874.40	44.000
874.56	68.421
874.73	53.659
874.90	75.424
875.07	47.857
875.24	42.236
875.40	65.546
875.57	75.229
875.74	41.600
875.91	25.688
876.08	34.783
876.24	25.581
876.41	93.600
876.58	59.574
876.75	34.043
876.92	77.206
877.08	66.912
877.25	44.348
877.42	92.969
877.59	76.531
877.75	64.000
877.92	47.619
878.09	13.542
878.26	43.114
878.42	43.750
878.59	78.261
878.76	61.842
878.93	46.269
879.09	21.212
879.26	43.902
879.43	49.189
879.60	38.462
879.76	39.205
879.93	50.000
880.10	46.667
880.27	27.950
880.43	36.313
880.60	25.114
880.77	27.841
880.94	21.393
881.10	31.858
881.27	22.623
881.44	17.564
881.61	28.027
881.77	26.195
881.94	20.907
882.11	15.141
882.28	18.608
882.44	12.259
882.61	13.783
882.78	18.546
882.94	18.012
883.11	22.612
883.28	15.617
883.45	15.427
883.61	16.667
883.78	18.021
883.95	21.479
884.11	19.285
884.28	18.428
>>>>>End Processed Spectral Data<<<<<
