SpectraSuite Data File
++++++++++++++++++++++++++++++++++++
Date: Sat Sep 21 03:20:36 EST 2019
User: sgrac
Dark Spectrum Present: Yes
Reference Spectrum Present: Yes
Number of Sampled Component Spectra: 1
Spectrometers: USB4E01596
Integration Time (usec): 100000 (USB4E01596)
Spectra Averaged: 1 (USB4E01596)
Boxcar Smoothing: 0 (USB4E01596)
Correct for Electrical Dark: No (USB4E01596)
Strobe/Lamp Enabled: Yes (USB4E01596)
Correct for Detector Non-linearity: No (USB4E01596)
Correct for Stray Light: No (USB4E01596)
Number of Pixels in Processed Spectrum: 3648
>>>>>Begin Processed Spectral Data<<<<<
178.44	-321.429
178.66	-321.429
178.87	-321.429
179.09	-242.857
179.30	-469.231
179.52	0.000
179.74	-1350.000
179.95	1050.000
180.17	400.000
180.38	2900.000
180.60	0.000
180.82	133.333
181.03	-357.895
181.25	330.435
181.46	-141.935
181.68	237.500
181.89	9600.000
182.11	162.857
182.33	-173.333
182.54	-200.000
182.76	-2300.000
182.97	470.000
183.19	1900.000
183.40	106.897
183.62	-25.926
183.84	-125.926
184.05	560.870
184.27	308.333
184.48	1171.429
184.70	150.000
184.91	-473.333
185.13	133.333
185.34	-228.571
185.56	95.000
185.78	0.000
185.99	406.667
186.21	186.207
186.42	366.667
186.64	187.097
186.85	229.630
187.07	136.364
187.28	426.667
187.50	-293.333
187.72	1780.000
187.93	-5600.000
188.15	148.000
188.36	-382.353
188.58	-1600.000
188.79	204.545
189.01	272.222
189.22	1280.000
189.44	1350.000
189.65	100.000
189.87	412.500
190.09	-1680.000
190.30	681.250
190.52	-3950.000
190.73	164.286
190.95	171.429
191.16	144.444
191.38	360.000
191.59	100.000
191.81	155.556
192.02	227.660
192.24	547.059
192.45	-1500.000
192.67	217.143
192.88	329.167
193.10	356.000
193.31	340.000
193.53	-6700.000
193.74	85.366
193.96	333.333
194.18	203.226
194.39	-244.444
194.61	436.842
194.82	447.619
195.04	214.286
195.25	2300.000
195.47	82.927
195.68	204.255
195.90	520.000
196.11	109.091
196.33	146.809
196.54	-2500.000
196.76	242.857
196.97	-2166.667
197.19	260.714
197.40	252.941
197.62	85.938
197.83	141.892
198.05	-342.105
198.26	240.000
198.48	191.667
198.69	158.140
198.91	225.490
199.12	-140.000
199.34	-1700.000
199.55	2200.000
199.77	1725.000
199.98	248.000
200.20	105.634
200.41	685.714
200.63	-422.222
200.84	149.020
201.06	500.000
201.27	372.973
201.49	900.000
201.70	270.370
201.91	119.565
202.13	124.638
202.34	196.226
202.56	-785.714
202.77	566.667
202.99	303.571
203.20	3500.000
203.42	887.500
203.63	197.674
203.85	248.571
204.06	214.815
204.28	-500.000
204.49	148.571
204.71	133.333
204.92	0.000
205.14	-257.143
205.35	344.444
205.56	-940.000
205.78	247.619
205.99	530.000
206.21	9.677
206.42	264.516
206.64	192.857
206.85	1625.000
207.07	-515.385
207.28	578.571
207.50	-463.158
207.71	133.333
207.93	143.182
208.14	470.588
208.35	131.579
208.57	-4700.000
208.78	561.538
209.00	411.111
209.21	-4200.000
209.43	155.172
209.64	200.000
209.86	700.000
210.07	0.000
210.28	-535.294
210.50	165.306
210.71	142.105
210.93	200.000
211.14	-222.222
211.36	-106.452
211.57	-242.857
211.78	-169.565
212.00	0.000
212.21	148.837
212.43	-240.909
212.64	122.414
212.86	-637.500
213.07	-268.182
213.29	68.421
213.50	2600.000
213.71	160.377
213.93	1142.857
214.14	151.515
214.36	2900.000
214.57	276.923
214.78	243.750
215.00	2200.000
215.21	155.556
215.43	316.000
215.64	215.385
215.86	160.000
216.07	5000.000
216.28	116.000
216.50	-871.429
216.71	-1220.000
216.93	185.106
217.14	175.000
217.35	211.111
217.57	250.000
217.78	975.000
218.00	-70.000
218.21	236.842
218.42	-2433.333
218.64	658.824
218.85	-588.889
219.07	364.286
219.28	875.000
219.49	82.895
219.71	666.667
219.92	130.556
220.14	162.500
220.35	295.000
220.56	207.692
220.78	288.235
220.99	-5800.000
221.21	228.571
221.42	275.000
221.63	277.500
221.85	208.065
222.06	310.714
222.28	218.182
222.49	-2100.000
222.70	0.000
222.92	366.667
223.13	193.333
223.34	-1425.000
223.56	115.789
223.77	77.528
223.99	200.000
224.20	128.571
224.41	159.459
224.63	344.444
224.84	129.310
225.05	160.714
225.27	145.714
225.48	86.957
225.69	342.857
225.91	122.222
226.12	200.000
226.34	90.196
226.55	24.074
226.76	143.548
226.98	168.000
227.19	115.909
227.40	51.240
227.62	46.341
227.83	99.000
228.04	85.714
228.26	67.327
228.47	103.448
228.69	38.158
228.90	60.563
229.11	33.333
229.33	35.266
229.54	15.132
229.75	26.087
229.97	27.897
230.18	13.978
230.39	10.549
230.61	26.415
230.82	21.577
231.03	17.427
231.25	29.966
231.46	20.803
231.67	46.245
231.89	47.843
232.10	6.478
232.31	20.673
232.53	30.508
232.74	29.687
232.95	51.205
233.17	31.792
233.38	20.896
233.59	36.029
233.81	33.495
234.02	32.895
234.23	37.968
234.45	46.053
234.66	49.718
234.87	40.940
235.09	57.037
235.30	27.586
235.51	39.320
235.73	27.673
235.94	47.150
236.15	29.592
236.36	33.862
236.58	40.284
236.79	50.785
237.00	23.188
237.22	25.309
237.43	33.333
237.64	24.017
237.86	28.261
238.07	56.281
238.28	29.508
238.50	19.565
238.71	40.237
238.92	41.071
239.13	46.857
239.35	30.070
239.56	42.188
239.77	60.000
239.99	20.755
240.20	6.316
240.41	18.966
240.63	6.883
240.84	13.944
241.05	16.788
241.26	17.355
241.48	24.484
241.69	16.456
241.90	16.620
242.12	18.367
242.33	17.888
242.54	6.823
242.75	18.216
242.97	10.345
243.18	13.300
243.39	16.071
243.61	14.093
243.82	8.811
244.03	8.201
244.24	4.908
244.46	10.519
244.67	8.383
244.88	12.833
245.09	11.352
245.31	-3.071
245.52	20.221
245.73	17.704
245.95	17.910
246.16	1.952
246.37	13.566
246.58	14.206
246.80	16.746
247.01	9.502
247.22	7.013
247.43	6.404
247.65	10.453
247.86	4.985
248.07	4.766
248.28	4.344
248.50	5.178
248.71	7.856
248.92	4.731
249.13	5.934
249.35	8.672
249.56	4.413
249.77	6.643
249.98	7.744
250.20	9.222
250.41	8.380
250.62	7.229
250.83	11.340
251.05	12.199
251.26	8.530
251.47	12.973
251.68	7.861
251.90	13.768
252.11	11.498
252.32	9.949
252.53	9.724
252.75	7.840
252.96	13.462
253.17	11.650
253.38	12.297
253.59	5.367
253.81	7.956
254.02	9.201
254.23	16.691
254.44	9.890
254.66	10.744
254.87	12.274
255.08	8.608
255.29	15.060
255.50	21.075
255.72	13.532
255.93	14.112
256.14	19.545
256.35	18.033
256.57	12.598
256.78	25.799
256.99	7.853
257.20	10.922
257.41	17.598
257.63	13.088
257.84	16.805
258.05	4.375
258.26	9.910
258.47	9.660
258.69	10.311
258.90	9.783
259.11	2.496
259.32	4.336
259.53	6.032
259.75	6.667
259.96	6.244
260.17	4.578
260.38	2.670
260.59	3.111
260.81	5.300
261.02	3.664
261.23	6.981
261.44	3.745
261.65	3.800
261.87	2.667
262.08	4.863
262.29	3.423
262.50	6.385
262.71	2.373
262.92	1.775
263.14	8.752
263.35	6.820
263.56	3.765
263.77	9.270
263.98	7.937
264.20	11.399
264.41	4.558
264.62	16.038
264.83	7.486
265.04	13.110
265.25	9.157
265.47	12.689
265.68	5.394
265.89	5.491
266.10	6.086
266.31	16.074
266.52	11.234
266.74	4.566
266.95	6.283
267.16	8.505
267.37	10.125
267.58	3.095
267.79	3.003
268.01	3.846
268.22	10.878
268.43	6.907
268.64	5.654
268.85	1.814
269.06	8.480
269.27	9.345
269.49	6.341
269.70	8.530
269.91	5.763
270.12	3.300
270.33	8.851
270.54	10.331
270.75	0.702
270.97	11.728
271.18	8.821
271.39	7.389
271.60	7.092
271.81	5.372
272.02	7.424
272.23	6.279
272.45	7.721
272.66	3.658
272.87	4.010
273.08	4.430
273.29	6.520
273.50	3.687
273.71	5.015
273.92	8.979
274.14	0.671
274.35	2.105
274.56	7.330
274.77	1.484
274.98	7.207
275.19	6.750
275.40	9.372
275.61	5.379
275.83	12.367
276.04	6.190
276.25	8.725
276.46	6.921
276.67	2.875
276.88	6.618
277.09	2.676
277.30	6.965
277.51	9.568
277.73	0.100
277.94	5.241
278.15	7.514
278.36	5.167
278.57	3.074
278.78	13.600
278.99	9.268
279.20	6.531
279.41	7.012
279.62	6.838
279.84	2.085
280.05	7.928
280.26	8.696
280.47	6.452
280.68	3.166
280.89	8.077
281.10	7.221
281.31	4.278
281.52	7.556
281.73	7.912
281.94	4.818
282.16	3.617
282.37	8.721
282.58	7.947
282.79	5.793
283.00	9.023
283.21	2.339
283.42	2.619
283.63	3.658
283.84	4.022
284.05	5.783
284.26	6.915
284.47	3.984
284.68	6.029
284.89	7.419
285.11	6.221
285.32	5.501
285.53	2.334
285.74	6.602
285.95	4.795
286.16	2.381
286.37	2.604
286.58	3.143
286.79	5.942
287.00	3.954
287.21	4.567
287.42	1.361
287.63	3.892
287.84	3.396
288.05	3.028
288.26	4.976
288.48	5.674
288.69	5.712
288.90	1.460
289.11	3.194
289.32	4.676
289.53	4.839
289.74	2.857
289.95	4.723
290.16	6.268
290.37	4.996
290.58	2.166
290.79	5.391
291.00	5.437
291.21	2.769
291.42	4.497
291.63	4.987
291.84	6.057
292.05	5.438
292.26	5.189
292.47	5.093
292.68	2.397
292.89	3.785
293.10	3.212
293.31	5.411
293.52	4.917
293.73	2.892
293.94	2.649
294.15	4.215
294.36	-1.556
294.57	8.752
294.79	4.888
295.00	6.389
295.21	6.322
295.42	6.402
295.63	2.784
295.84	4.279
296.05	2.448
296.26	1.811
296.47	3.098
296.68	5.503
296.89	6.022
297.10	3.565
297.31	2.511
297.52	5.553
297.73	1.414
297.94	4.335
298.15	3.633
298.36	5.725
298.57	4.856
298.78	5.044
298.99	1.313
299.20	2.578
299.41	2.905
299.62	3.311
299.83	4.901
300.04	4.888
300.25	4.538
300.46	4.916
300.67	3.307
300.88	5.222
301.09	4.158
301.30	3.329
301.50	7.712
301.71	6.289
301.92	5.013
302.13	5.438
302.34	3.191
302.55	5.092
302.76	5.777
302.97	5.485
303.18	-0.072
303.39	2.743
303.60	3.760
303.81	4.448
304.02	3.244
304.23	5.241
304.44	4.511
304.65	2.817
304.86	4.443
305.07	4.896
305.28	6.070
305.49	5.299
305.70	2.972
305.91	4.953
306.12	2.950
306.33	5.536
306.54	4.255
306.75	4.011
306.96	6.574
307.17	7.759
307.38	3.359
307.58	4.521
307.79	6.986
308.00	4.902
308.21	8.179
308.42	7.537
308.63	5.161
308.84	5.688
309.05	3.418
309.26	5.390
309.47	4.327
309.68	3.380
309.89	6.926
310.10	7.357
310.31	2.928
310.52	0.242
310.73	4.182
310.94	3.950
311.14	2.892
311.35	1.862
311.56	3.866
311.77	4.615
311.98	4.212
312.19	3.804
312.40	1.959
312.61	2.703
312.82	5.161
313.03	4.224
313.24	3.254
313.45	3.509
313.66	4.186
313.86	3.772
314.07	4.386
314.28	2.549
314.49	5.007
314.70	5.506
314.91	3.252
315.12	6.476
315.33	5.163
315.54	5.563
315.75	3.890
315.96	5.737
316.16	3.448
316.37	6.027
316.58	4.345
316.79	3.550
317.00	6.414
317.21	5.062
317.42	1.671
317.63	4.918
317.84	7.266
318.05	7.003
318.25	5.903
318.46	4.709
318.67	2.876
318.88	6.964
319.09	4.559
319.30	2.724
319.51	4.751
319.72	6.271
319.93	4.680
320.13	3.960
320.34	6.383
320.55	3.328
320.76	4.064
320.97	4.003
321.18	4.028
321.39	4.431
321.60	8.026
321.80	6.815
322.01	7.790
322.22	5.607
322.43	4.502
322.64	4.055
322.85	3.223
323.06	4.728
323.27	4.806
323.47	4.851
323.68	7.122
323.89	2.996
324.10	6.508
324.31	4.925
324.52	5.455
324.73	3.831
324.93	6.346
325.14	1.530
325.35	4.584
325.56	7.650
325.77	4.113
325.98	4.773
326.19	5.948
326.39	3.738
326.60	5.283
326.81	5.066
327.02	6.204
327.23	2.299
327.44	5.307
327.64	3.865
327.85	3.817
328.06	6.509
328.27	6.988
328.48	3.001
328.69	3.008
328.90	5.680
329.10	6.901
329.31	2.364
329.52	6.880
329.73	6.283
329.94	3.809
330.15	3.538
330.35	6.969
330.56	3.221
330.77	6.287
330.98	4.164
331.19	7.430
331.39	4.229
331.60	3.467
331.81	7.791
332.02	8.434
332.23	4.137
332.44	3.430
332.64	4.270
332.85	5.812
333.06	7.048
333.27	2.157
333.48	4.886
333.68	4.938
333.89	3.960
334.10	2.804
334.31	6.072
334.52	6.047
334.72	3.515
334.93	3.830
335.14	5.380
335.35	5.695
335.56	3.849
335.76	2.899
335.97	7.195
336.18	4.821
336.39	3.942
336.60	5.495
336.80	3.469
337.01	5.649
337.22	0.532
337.43	5.768
337.64	5.055
337.84	3.724
338.05	3.821
338.26	6.804
338.47	6.120
338.68	4.776
338.88	5.833
339.09	5.090
339.30	3.636
339.51	4.358
339.71	5.858
339.92	6.286
340.13	5.677
340.34	6.597
340.55	4.958
340.75	6.615
340.96	3.988
341.17	5.911
341.38	7.623
341.58	4.543
341.79	3.263
342.00	3.574
342.21	4.272
342.41	3.119
342.62	5.473
342.83	6.696
343.04	5.248
343.24	5.811
343.45	3.736
343.66	2.635
343.87	5.000
344.07	2.494
344.28	6.263
344.49	5.870
344.70	5.684
344.90	3.346
345.11	4.178
345.32	3.596
345.53	3.037
345.73	5.522
345.94	6.577
346.15	5.807
346.36	3.090
346.56	4.993
346.77	6.474
346.98	4.068
347.19	6.262
347.39	6.531
347.60	5.420
347.81	6.523
348.02	8.218
348.22	5.320
348.43	5.618
348.64	6.134
348.84	5.402
349.05	3.846
349.26	6.944
349.47	5.038
349.67	6.186
349.88	6.733
350.09	5.983
350.30	6.956
350.50	3.694
350.71	8.793
350.92	8.160
351.12	5.443
351.33	5.659
351.54	8.785
351.74	8.316
351.95	5.152
352.16	6.804
352.37	6.674
352.57	4.273
352.78	5.830
352.99	6.318
353.19	6.318
353.40	5.807
353.61	9.650
353.82	6.194
354.02	7.221
354.23	5.904
354.44	6.823
354.64	8.954
354.85	7.786
355.06	5.836
355.26	3.874
355.47	7.264
355.68	6.487
355.88	8.426
356.09	7.628
356.30	5.986
356.51	6.795
356.71	8.754
356.92	4.963
357.13	5.906
357.33	6.919
357.54	5.393
357.75	6.417
357.95	7.102
358.16	5.076
358.37	7.022
358.57	6.242
358.78	8.377
358.99	6.222
359.19	4.814
359.40	8.091
359.61	5.734
359.81	5.846
360.02	7.046
360.23	5.380
360.43	7.938
360.64	5.366
360.85	6.742
361.05	7.471
361.26	7.552
361.47	5.327
361.67	8.048
361.88	6.090
362.09	7.412
362.29	5.802
362.50	5.295
362.70	5.664
362.91	6.888
363.12	4.691
363.32	5.599
363.53	5.919
363.74	8.932
363.94	2.930
364.15	7.624
364.36	7.957
364.56	4.595
364.77	8.041
364.98	7.523
365.18	7.209
365.39	6.418
365.59	5.876
365.80	6.545
366.01	6.861
366.21	5.138
366.42	4.888
366.63	7.617
366.83	7.853
367.04	4.679
367.24	8.978
367.45	5.970
367.66	5.127
367.86	6.872
368.07	5.726
368.28	6.433
368.48	4.944
368.69	5.306
368.89	6.090
369.10	5.178
369.31	6.279
369.51	6.541
369.72	6.584
369.92	9.002
370.13	5.674
370.34	6.687
370.54	4.610
370.75	8.316
370.95	5.292
371.16	7.055
371.37	5.976
371.57	5.436
371.78	7.172
371.98	6.250
372.19	6.422
372.40	6.274
372.60	7.270
372.81	6.679
373.01	4.085
373.22	5.376
373.43	6.709
373.63	9.429
373.84	4.284
374.04	5.974
374.25	5.621
374.46	6.027
374.66	5.862
374.87	5.969
375.07	4.758
375.28	6.014
375.48	4.844
375.69	7.444
375.90	5.321
376.10	4.787
376.31	6.141
376.51	5.701
376.72	4.934
376.92	3.811
377.13	5.592
377.34	7.249
377.54	6.196
377.75	5.669
377.95	7.046
378.16	5.030
378.36	7.418
378.57	7.391
378.77	5.650
378.98	4.642
379.19	6.011
379.39	4.442
379.60	5.688
379.80	7.088
380.01	6.890
380.21	4.716
380.42	6.883
380.62	5.333
380.83	7.194
381.04	6.049
381.24	6.294
381.45	4.788
381.65	5.515
381.86	6.464
382.06	6.395
382.27	3.032
382.47	3.805
382.68	5.299
382.88	3.755
383.09	3.932
383.29	5.284
383.50	6.624
383.71	5.351
383.91	5.500
384.12	4.005
384.32	4.466
384.53	3.903
384.73	4.007
384.94	3.818
385.14	4.514
385.35	4.202
385.55	4.564
385.76	4.517
385.96	5.820
386.17	4.677
386.37	5.226
386.58	4.238
386.78	5.060
386.99	4.284
387.19	5.052
387.40	3.967
387.60	6.459
387.81	4.707
388.01	4.379
388.22	6.408
388.42	5.792
388.63	5.861
388.83	7.315
389.04	3.958
389.24	6.661
389.45	4.517
389.65	4.544
389.86	5.004
390.06	5.309
390.27	4.504
390.47	4.957
390.68	4.464
390.88	6.890
391.09	4.989
391.29	5.294
391.50	5.585
391.70	3.680
391.91	4.767
392.11	4.658
392.32	5.894
392.52	5.978
392.73	4.276
392.93	5.676
393.14	4.066
393.34	5.534
393.55	4.195
393.75	4.286
393.95	3.888
394.16	5.679
394.36	6.176
394.57	5.804
394.77	5.183
394.98	4.068
395.18	4.619
395.39	5.059
395.59	5.089
395.80	5.536
396.00	5.311
396.21	6.307
396.41	4.649
396.61	5.776
396.82	5.226
397.02	6.746
397.23	5.206
397.43	4.751
397.64	3.280
397.84	5.584
398.05	3.928
398.25	5.438
398.45	4.762
398.66	6.268
398.86	4.801
399.07	5.640
399.27	5.434
399.48	6.223
399.68	3.292
399.89	5.087
400.09	6.228
400.29	4.082
400.50	5.570
400.70	4.749
400.91	4.248
401.11	5.245
401.32	5.310
401.52	4.616
401.72	5.297
401.93	7.971
402.13	5.938
402.34	4.123
402.54	4.881
402.75	5.682
402.95	5.061
403.15	6.192
403.36	3.444
403.56	4.492
403.77	4.283
403.97	4.621
404.17	4.728
404.38	4.940
404.58	4.512
404.79	6.022
404.99	5.892
405.19	4.927
405.40	4.738
405.60	5.316
405.81	4.977
406.01	4.928
406.21	4.153
406.42	4.606
406.62	4.519
406.83	5.151
407.03	5.803
407.23	4.612
407.44	4.772
407.64	5.974
407.85	5.844
408.05	5.655
408.25	3.704
408.46	5.872
408.66	5.866
408.87	3.699
409.07	5.130
409.27	5.174
409.48	5.240
409.68	6.098
409.88	4.105
410.09	4.498
410.29	4.712
410.50	6.271
410.70	2.926
410.90	4.912
411.11	3.505
411.31	5.360
411.51	5.169
411.72	6.254
411.92	4.896
412.12	4.090
412.33	3.919
412.53	5.722
412.74	4.145
412.94	4.291
413.14	3.800
413.35	6.185
413.55	4.893
413.75	6.244
413.96	4.378
414.16	5.066
414.36	5.079
414.57	5.313
414.77	5.011
414.97	4.379
415.18	5.390
415.38	5.814
415.58	4.768
415.79	4.377
415.99	4.206
416.19	3.927
416.40	4.069
416.60	4.838
416.80	4.060
417.01	5.118
417.21	3.709
417.41	5.849
417.62	5.648
417.82	5.513
418.02	4.768
418.23	4.590
418.43	5.197
418.63	4.898
418.84	6.218
419.04	3.928
419.24	4.663
419.45	5.389
419.65	5.375
419.85	5.610
420.06	5.302
420.26	6.099
420.46	5.085
420.67	6.141
420.87	5.669
421.07	5.916
421.28	4.817
421.48	6.572
421.68	5.944
421.88	6.301
422.09	5.751
422.29	6.148
422.49	5.119
422.70	6.540
422.90	5.285
423.10	5.951
423.31	5.065
423.51	6.381
423.71	4.996
423.91	6.712
424.12	5.718
424.32	6.182
424.52	5.701
424.73	6.594
424.93	5.780
425.13	5.478
425.33	4.917
425.54	6.421
425.74	5.989
425.94	5.940
426.15	5.964
426.35	5.541
426.55	5.857
426.75	5.994
426.96	5.776
427.16	5.772
427.36	5.687
427.57	6.414
427.77	5.634
427.97	6.249
428.17	5.449
428.38	6.240
428.58	4.141
428.78	5.437
428.98	4.432
429.19	4.194
429.39	3.846
429.59	4.952
429.79	3.707
430.00	3.074
430.20	3.203
430.40	4.773
430.60	4.466
430.81	4.760
431.01	3.924
431.21	5.029
431.41	3.976
431.62	5.000
431.82	4.981
432.02	5.635
432.22	4.700
432.43	3.963
432.63	3.149
432.83	4.999
433.03	4.772
433.24	4.579
433.44	4.737
433.64	4.370
433.84	4.320
434.05	5.897
434.25	4.512
434.45	4.736
434.65	5.352
434.85	5.962
435.06	5.287
435.26	5.194
435.46	4.883
435.66	5.427
435.87	4.725
436.07	5.263
436.27	5.478
436.47	5.118
436.67	4.175
436.88	5.597
437.08	5.125
437.28	4.531
437.48	4.684
437.69	5.579
437.89	5.859
438.09	6.158
438.29	4.728
438.49	5.410
438.70	4.489
438.90	4.775
439.10	4.347
439.30	5.256
439.50	4.542
439.71	6.078
439.91	5.333
440.11	5.645
440.31	5.510
440.51	4.783
440.72	4.498
440.92	6.141
441.12	5.261
441.32	6.582
441.52	5.976
441.72	6.387
441.93	5.397
442.13	6.830
442.33	5.653
442.53	6.903
442.73	5.512
442.94	6.242
443.14	4.908
443.34	6.598
443.54	6.393
443.74	6.345
443.94	5.340
444.15	4.925
444.35	4.557
444.55	6.542
444.75	5.005
444.95	6.042
445.15	5.257
445.36	6.554
445.56	4.173
445.76	5.746
445.96	4.586
446.16	5.603
446.36	4.777
446.57	6.676
446.77	4.718
446.97	5.993
447.17	6.305
447.37	6.319
447.57	5.919
447.77	6.389
447.98	5.533
448.18	7.032
448.38	5.819
448.58	6.980
448.78	5.837
448.98	6.430
449.18	5.529
449.39	5.469
449.59	5.287
449.79	5.713
449.99	4.896
450.19	5.956
450.39	5.353
450.59	5.942
450.79	4.741
451.00	6.723
451.20	6.378
451.40	5.593
451.60	4.721
451.80	5.725
452.00	4.589
452.20	5.667
452.40	5.154
452.61	4.915
452.81	5.258
453.01	6.069
453.21	4.896
453.41	5.915
453.61	4.734
453.81	5.129
454.01	5.440
454.21	5.409
454.42	5.513
454.62	6.430
454.82	4.763
455.02	5.190
455.22	4.470
455.42	5.624
455.62	4.404
455.82	4.971
456.02	4.814
456.23	4.814
456.43	4.634
456.63	5.966
456.83	3.889
457.03	5.890
457.23	4.466
457.43	5.236
457.63	4.758
457.83	5.395
458.03	4.560
458.23	5.638
458.43	4.592
458.64	5.413
458.84	4.999
459.04	5.579
459.24	5.403
459.44	5.864
459.64	5.677
459.84	5.728
460.04	5.503
460.24	5.891
460.44	5.704
460.64	5.568
460.84	5.609
461.04	6.608
461.24	5.941
461.45	7.095
461.65	6.225
461.85	6.714
462.05	6.026
462.25	6.587
462.45	6.768
462.65	5.963
462.85	5.153
463.05	5.827
463.25	5.201
463.45	5.551
463.65	4.964
463.85	6.533
464.05	4.391
464.25	5.436
464.45	5.331
464.65	4.422
464.85	4.813
465.05	5.605
465.26	5.134
465.46	5.602
465.66	4.378
465.86	6.047
466.06	5.021
466.26	6.369
466.46	4.339
466.66	5.390
466.86	6.169
467.06	5.133
467.26	5.354
467.46	5.593
467.66	5.205
467.86	5.891
468.06	5.648
468.26	5.510
468.46	5.445
468.66	5.116
468.86	4.917
469.06	6.177
469.26	4.673
469.46	5.793
469.66	4.681
469.86	5.899
470.06	5.564
470.26	6.442
470.46	4.734
470.66	6.156
470.86	4.751
471.06	6.393
471.26	4.263
471.46	5.718
471.66	5.877
471.86	5.703
472.06	5.076
472.26	5.856
472.46	6.364
472.66	5.410
472.86	5.372
473.06	5.358
473.26	4.694
473.46	4.971
473.66	5.776
473.86	5.542
474.06	5.526
474.26	4.899
474.46	4.683
474.66	5.676
474.86	5.482
475.06	5.696
475.26	4.411
475.46	5.624
475.66	5.437
475.86	6.344
476.06	4.918
476.26	6.267
476.46	4.969
476.66	5.302
476.86	4.639
477.06	5.004
477.26	5.224
477.46	6.122
477.65	5.125
477.85	6.151
478.05	5.425
478.25	6.514
478.45	5.521
478.65	6.282
478.85	5.256
479.05	6.008
479.25	5.586
479.45	6.277
479.65	5.327
479.85	6.136
480.05	5.667
480.25	6.602
480.45	5.304
480.65	7.081
480.85	5.256
481.05	6.206
481.25	6.131
481.44	6.283
481.64	4.898
481.84	6.445
482.04	5.989
482.24	6.176
482.44	4.888
482.64	6.696
482.84	5.937
483.04	6.684
483.24	5.955
483.44	6.737
483.64	6.571
483.84	6.934
484.04	7.149
484.23	6.984
484.43	7.175
484.63	7.123
484.83	7.008
485.03	7.340
485.23	7.081
485.43	7.437
485.63	7.227
485.83	7.392
486.03	7.598
486.23	7.323
486.42	7.256
486.62	7.585
486.82	6.740
487.02	7.170
487.22	7.357
487.42	7.188
487.62	7.192
487.82	7.095
488.02	6.846
488.22	7.015
488.41	7.061
488.61	7.325
488.81	7.035
489.01	7.372
489.21	7.078
489.41	7.379
489.61	6.836
489.81	7.223
490.01	7.018
490.20	7.482
490.40	7.009
490.60	7.007
490.80	7.127
491.00	6.938
491.20	6.800
491.40	6.977
491.60	6.878
491.79	6.983
491.99	6.994
492.19	6.708
492.39	6.757
492.59	7.015
492.79	7.033
492.99	6.920
493.19	7.005
493.38	7.167
493.58	7.162
493.78	7.155
493.98	6.656
494.18	7.670
494.38	7.129
494.58	7.159
494.77	6.308
494.97	6.885
495.17	6.724
495.37	6.733
495.57	6.536
495.77	6.414
495.96	6.258
496.16	6.418
496.36	6.262
496.56	6.649
496.76	6.559
496.96	6.575
497.15	5.973
497.35	6.804
497.55	6.203
497.75	6.490
497.95	5.905
498.15	7.002
498.34	6.582
498.54	6.718
498.74	6.489
498.94	6.736
499.14	5.782
499.34	6.545
499.53	6.233
499.73	6.418
499.93	6.299
500.13	7.054
500.33	5.114
500.52	6.563
500.72	5.918
500.92	6.353
501.12	5.469
501.32	6.402
501.52	5.939
501.71	6.539
501.91	5.628
502.11	6.616
502.31	5.293
502.51	6.637
502.70	5.504
502.90	6.394
503.10	5.687
503.30	6.442
503.50	6.543
503.69	6.111
503.89	5.852
504.09	6.369
504.29	5.676
504.48	6.481
504.68	5.961
504.88	6.829
505.08	6.145
505.28	6.621
505.47	5.994
505.67	7.157
505.87	5.965
506.07	6.708
506.27	5.888
506.46	6.717
506.66	6.146
506.86	6.815
507.06	6.452
507.25	6.279
507.45	6.170
507.65	6.986
507.85	6.032
508.04	6.527
508.24	6.137
508.44	6.675
508.64	6.240
508.83	6.861
509.03	6.233
509.23	6.833
509.43	6.101
509.63	6.976
509.82	5.662
510.02	6.882
510.22	5.608
510.42	7.007
510.61	6.418
510.81	6.770
511.01	6.728
511.21	6.983
511.40	6.499
511.60	6.708
511.80	6.290
511.99	7.194
512.19	6.580
512.39	7.316
512.59	6.708
512.78	7.123
512.98	6.957
513.18	6.724
513.38	7.107
513.57	6.862
513.77	7.426
513.97	7.259
514.17	6.478
514.36	6.652
514.56	6.493
514.76	7.431
514.95	6.846
515.15	7.641
515.35	5.980
515.55	6.995
515.74	7.075
515.94	7.648
516.14	6.594
516.33	6.848
516.53	6.460
516.73	6.548
516.93	6.407
517.12	7.061
517.32	5.926
517.52	7.239
517.71	6.457
517.91	7.163
518.11	6.904
518.30	7.242
518.50	6.300
518.70	7.036
518.90	7.039
519.09	7.580
519.29	7.412
519.49	7.425
519.68	6.503
519.88	7.742
520.08	7.364
520.27	7.213
520.47	7.491
520.67	7.683
520.86	7.816
521.06	7.875
521.26	6.595
521.45	7.352
521.65	7.270
521.85	7.468
522.04	6.308
522.24	7.807
522.44	6.781
522.63	7.365
522.83	6.392
523.03	7.187
523.22	6.610
523.42	7.128
523.62	6.939
523.81	7.165
524.01	6.955
524.21	8.001
524.40	6.712
524.60	6.994
524.80	6.520
524.99	6.696
525.19	6.907
525.39	7.769
525.58	6.921
525.78	7.347
525.98	7.290
526.17	8.031
526.37	7.330
526.57	7.545
526.76	7.843
526.96	7.586
527.15	7.629
527.35	7.629
527.55	7.464
527.74	7.979
527.94	7.401
528.14	7.326
528.33	7.336
528.53	7.734
528.72	7.583
528.92	7.784
529.12	7.476
529.31	7.704
529.51	7.799
529.71	7.870
529.90	7.679
530.10	7.812
530.29	8.049
530.49	8.023
530.69	8.068
530.88	8.162
531.08	7.804
531.28	8.255
531.47	7.876
531.67	7.939
531.86	7.742
532.06	7.815
532.26	7.356
532.45	8.029
532.65	7.892
532.84	7.410
533.04	7.701
533.24	7.299
533.43	7.729
533.63	8.037
533.82	7.748
534.02	7.901
534.22	7.900
534.41	7.822
534.61	7.848
534.80	7.729
535.00	7.900
535.19	8.001
535.39	8.151
535.59	8.364
535.78	7.834
535.98	8.092
536.17	8.000
536.37	8.338
536.57	7.994
536.76	8.141
536.96	7.610
537.15	8.015
537.35	8.233
537.54	8.183
537.74	7.685
537.93	8.175
538.13	8.089
538.33	8.035
538.52	7.726
538.72	8.034
538.91	8.029
539.11	8.063
539.30	6.935
539.50	8.318
539.70	7.418
539.89	8.038
540.09	7.768
540.28	7.727
540.48	7.017
540.67	7.754
540.87	7.556
541.06	7.635
541.26	7.840
541.45	8.113
541.65	7.839
541.85	7.743
542.04	7.819
542.24	8.170
542.43	8.090
542.63	8.274
542.82	8.172
543.02	8.190
543.21	8.340
543.41	8.350
543.60	8.611
543.80	8.485
543.99	7.978
544.19	8.371
544.38	8.222
544.58	8.484
544.77	7.896
544.97	8.664
545.16	7.661
545.36	8.793
545.56	8.480
545.75	8.678
545.95	8.122
546.14	8.500
546.34	7.985
546.53	8.640
546.73	7.870
546.92	8.180
547.12	7.979
547.31	8.554
547.51	8.012
547.70	8.782
547.90	7.864
548.09	7.807
548.29	8.141
548.48	8.664
548.68	8.039
548.87	8.508
549.07	8.343
549.26	8.317
549.46	7.717
549.65	9.124
549.84	7.481
550.04	8.748
550.23	7.318
550.43	8.323
550.62	7.551
550.82	8.578
551.01	7.110
551.21	7.746
551.40	8.447
551.60	8.355
551.79	7.917
551.99	8.602
552.18	7.785
552.38	8.900
552.57	7.791
552.77	8.352
552.96	8.083
553.16	8.331
553.35	7.798
553.54	9.306
553.74	7.620
553.93	8.894
554.13	7.804
554.32	8.455
554.52	8.355
554.71	9.190
554.91	8.058
555.10	9.700
555.29	7.519
555.49	8.933
555.68	7.743
555.88	8.547
556.07	8.085
556.27	8.498
556.46	8.814
556.66	8.202
556.85	8.608
557.04	8.363
557.24	7.715
557.43	9.108
557.63	8.817
557.82	8.701
558.02	8.006
558.21	9.292
558.40	9.002
558.60	8.885
558.79	8.501
558.99	9.154
559.18	8.515
559.38	9.164
559.57	9.495
559.76	8.945
559.96	9.507
560.15	9.226
560.35	8.994
560.54	9.399
560.73	9.019
560.93	9.297
561.12	8.817
561.32	10.028
561.51	8.942
561.70	8.931
561.90	8.116
562.09	9.881
562.29	8.523
562.48	9.477
562.67	8.746
562.87	9.473
563.06	8.872
563.26	10.172
563.45	9.004
563.64	9.816
563.84	9.661
564.03	9.770
564.23	9.364
564.42	9.983
564.61	9.182
564.81	10.864
565.00	9.476
565.20	10.653
565.39	10.157
565.58	10.596
565.78	10.437
565.97	10.816
566.16	10.221
566.36	11.134
566.55	10.044
566.74	10.709
566.94	9.721
567.13	10.485
567.33	10.017
567.52	11.060
567.71	9.617
567.91	10.870
568.10	10.433
568.29	11.670
568.49	10.401
568.68	10.898
568.87	10.302
569.07	11.656
569.26	10.859
569.45	11.046
569.65	10.177
569.84	11.364
570.04	10.929
570.23	10.946
570.42	11.100
570.62	10.745
570.81	11.564
571.00	11.091
571.20	10.549
571.39	11.170
571.58	10.843
571.78	11.523
571.97	11.123
572.16	12.346
572.36	10.785
572.55	11.651
572.74	11.550
572.94	11.184
573.13	10.997
573.32	11.707
573.51	11.393
573.71	12.284
573.90	11.683
574.09	11.382
574.29	11.138
574.48	12.346
574.67	11.189
574.87	11.956
575.06	10.768
575.25	12.179
575.45	10.435
575.64	11.686
575.83	10.838
576.03	12.769
576.22	10.996
576.41	12.212
576.60	10.268
576.80	12.128
576.99	11.138
577.18	11.937
577.38	11.101
577.57	12.202
577.76	12.162
577.95	12.032
578.15	11.206
578.34	11.964
578.53	11.394
578.73	12.870
578.92	11.556
579.11	11.814
579.30	10.836
579.50	12.200
579.69	11.218
579.88	11.572
580.08	10.664
580.27	11.444
580.46	11.951
580.65	11.338
580.85	10.081
581.04	11.334
581.23	11.547
581.42	12.638
581.62	10.615
581.81	12.319
582.00	11.257
582.19	11.296
582.39	11.177
582.58	11.671
582.77	10.272
582.96	11.515
583.16	10.374
583.35	12.179
583.54	11.873
583.73	10.207
583.93	11.137
584.12	11.268
584.31	11.389
584.50	12.244
584.70	11.020
584.89	12.479
585.08	10.979
585.27	11.987
585.47	10.269
585.66	11.485
585.85	10.670
586.04	11.899
586.24	10.855
586.43	9.462
586.62	10.083
586.81	11.519
587.00	10.191
587.20	11.616
587.39	10.519
587.58	12.141
587.77	10.554
587.97	10.882
588.16	10.737
588.35	11.825
588.54	10.172
588.73	11.064
588.93	11.427
589.12	10.641
589.31	10.229
589.50	11.421
589.69	10.204
589.89	10.911
590.08	10.338
590.27	11.447
590.46	10.930
590.65	11.492
590.85	9.536
591.04	11.408
591.23	10.439
591.42	11.594
591.61	10.812
591.81	11.417
592.00	10.005
592.19	12.026
592.38	10.309
592.57	10.696
592.77	10.495
592.96	10.415
593.15	11.508
593.34	11.629
593.53	10.363
593.72	10.687
593.92	9.354
594.11	12.264
594.30	10.917
594.49	11.404
594.68	10.325
594.87	12.001
595.07	10.756
595.26	11.244
595.45	9.787
595.64	11.123
595.83	10.094
596.02	10.832
596.22	10.743
596.41	12.460
596.60	10.589
596.79	12.000
596.98	10.910
597.17	12.307
597.37	10.910
597.56	12.652
597.75	10.709
597.94	12.433
598.13	12.655
598.32	12.034
598.51	11.329
598.71	12.511
598.90	11.068
599.09	12.337
599.28	10.333
599.47	11.634
599.66	10.974
599.85	12.847
600.05	10.541
600.24	13.113
600.43	10.126
600.62	12.729
600.81	11.801
601.00	12.061
601.19	10.268
601.38	12.852
601.58	10.808
601.77	12.047
601.96	10.638
602.15	12.220
602.34	10.925
602.53	12.483
602.72	11.751
602.91	12.749
603.10	10.894
603.30	12.153
603.49	11.202
603.68	12.542
603.87	10.601
604.06	12.714
604.25	13.258
604.44	13.144
604.63	11.173
604.82	13.857
605.01	12.783
605.21	12.584
605.40	11.882
605.59	13.035
605.78	12.490
605.97	13.200
606.16	12.363
606.35	12.761
606.54	11.861
606.73	13.254
606.92	10.933
607.11	13.324
607.30	11.234
607.50	13.075
607.69	11.058
607.88	12.045
608.07	10.837
608.26	12.192
608.45	12.224
608.64	13.223
608.83	9.933
609.02	10.671
609.21	11.711
609.40	12.183
609.59	10.124
609.78	11.988
609.97	10.970
610.16	13.458
610.35	11.757
610.55	12.674
610.74	11.611
610.93	12.317
611.12	11.642
611.31	11.769
611.50	11.296
611.69	12.018
611.88	10.437
612.07	11.892
612.26	9.931
612.45	11.781
612.64	10.891
612.83	12.005
613.02	10.049
613.21	9.969
613.40	9.514
613.59	11.140
613.78	9.950
613.97	10.314
614.16	9.551
614.35	10.511
614.54	11.091
614.73	10.143
614.92	10.016
615.11	10.866
615.30	9.936
615.49	10.633
615.68	9.269
615.87	8.660
616.07	9.162
616.26	10.121
616.45	9.027
616.64	11.191
616.83	9.810
617.02	10.167
617.21	7.817
617.40	8.695
617.59	9.450
617.78	10.465
617.97	8.659
618.16	9.231
618.35	8.256
618.54	9.257
618.73	8.846
618.92	8.119
619.11	8.865
619.30	10.547
619.49	8.208
619.68	9.263
619.86	8.729
620.05	10.469
620.24	8.927
620.43	8.663
620.62	7.255
620.81	8.935
621.00	7.685
621.19	10.291
621.38	8.624
621.57	9.140
621.76	9.380
621.95	10.199
622.14	8.333
622.33	10.604
622.52	8.059
622.71	10.137
622.90	8.527
623.09	8.539
623.28	7.989
623.47	9.605
623.66	9.571
623.85	9.386
624.04	8.203
624.23	7.960
624.42	7.737
624.61	7.896
624.80	6.569
624.99	7.820
625.18	7.409
625.36	8.523
625.55	9.512
625.74	8.335
625.93	8.106
626.12	8.063
626.31	8.457
626.50	8.429
626.69	7.575
626.88	9.502
627.07	9.845
627.26	9.014
627.45	8.330
627.64	10.004
627.83	7.839
628.02	9.212
628.20	9.041
628.39	9.935
628.58	8.935
628.77	8.909
628.96	9.000
629.15	8.690
629.34	8.559
629.53	8.003
629.72	8.132
629.91	10.019
630.10	8.647
630.29	7.241
630.47	8.575
630.66	8.341
630.85	7.476
631.04	7.762
631.23	8.307
631.42	8.759
631.61	7.755
631.80	9.890
631.99	8.032
632.18	7.584
632.36	6.563
632.55	8.677
632.74	7.836
632.93	8.743
633.12	7.972
633.31	8.145
633.50	8.459
633.69	9.237
633.88	7.236
634.06	8.532
634.25	8.014
634.44	8.195
634.63	8.115
634.82	8.958
635.01	7.329
635.20	8.690
635.39	8.357
635.57	8.564
635.76	7.925
635.95	8.480
636.14	6.113
636.33	8.778
636.52	6.772
636.71	8.528
636.89	7.544
637.08	8.833
637.27	9.034
637.46	8.182
637.65	7.322
637.84	8.348
638.03	7.995
638.21	8.835
638.40	7.491
638.59	6.703
638.78	6.005
638.97	8.188
639.16	7.743
639.34	7.062
639.53	6.155
639.72	8.863
639.91	6.663
640.10	7.957
640.29	8.031
640.47	8.197
640.66	8.968
640.85	9.602
641.04	5.628
641.23	7.362
641.42	8.548
641.60	6.582
641.79	6.346
641.98	6.963
642.17	7.568
642.36	9.465
642.54	7.128
642.73	6.908
642.92	6.692
643.11	7.036
643.30	8.823
643.49	7.068
643.67	7.203
643.86	8.025
644.05	5.914
644.24	7.074
644.43	7.239
644.61	8.412
644.80	7.028
644.99	5.700
645.18	7.207
645.37	7.704
645.55	6.918
645.74	6.528
645.93	7.616
646.12	7.731
646.31	7.311
646.49	6.696
646.68	6.825
646.87	7.022
647.06	5.311
647.24	7.733
647.43	6.818
647.62	7.641
647.81	6.194
648.00	6.586
648.18	5.897
648.37	8.299
648.56	6.024
648.75	7.262
648.93	7.322
649.12	7.521
649.31	6.375
649.50	5.849
649.68	6.357
649.87	6.030
650.06	5.031
650.25	7.811
650.43	6.800
650.62	6.866
650.81	7.443
651.00	7.203
651.18	6.159
651.37	6.950
651.56	6.938
651.75	7.726
651.93	6.121
652.12	6.747
652.31	6.078
652.50	6.268
652.68	6.446
652.87	7.188
653.06	7.304
653.25	9.490
653.43	7.179
653.62	6.710
653.81	5.437
654.00	8.196
654.18	5.452
654.37	7.291
654.56	7.546
654.74	6.414
654.93	5.470
655.12	6.474
655.31	6.373
655.49	7.143
655.68	7.333
655.87	5.566
656.05	7.450
656.24	6.597
656.43	4.098
656.62	7.767
656.80	6.061
656.99	5.652
657.18	4.895
657.36	5.561
657.55	6.677
657.74	6.023
657.93	6.673
658.11	7.065
658.30	6.224
658.49	5.250
658.67	6.453
658.86	4.144
659.05	5.150
659.23	6.593
659.42	6.137
659.61	7.044
659.79	5.767
659.98	6.955
660.17	5.004
660.35	6.394
660.54	5.541
660.73	8.495
660.91	6.113
661.10	6.573
661.29	5.482
661.47	5.288
661.66	6.439
661.85	5.648
662.03	5.973
662.22	5.108
662.41	4.061
662.59	5.449
662.78	4.167
662.97	5.479
663.15	4.320
663.34	5.471
663.53	4.956
663.71	6.007
663.90	5.309
664.09	5.734
664.27	4.929
664.46	4.877
664.65	4.010
664.83	5.563
665.02	4.216
665.21	5.033
665.39	5.433
665.58	3.636
665.77	5.558
665.95	4.594
666.14	3.610
666.32	4.774
666.51	2.655
666.70	2.153
666.88	5.360
667.07	2.951
667.26	4.664
667.44	4.991
667.63	6.854
667.81	2.532
668.00	3.547
668.19	7.184
668.37	4.315
668.56	6.477
668.75	4.305
668.93	5.139
669.12	4.196
669.30	4.732
669.49	4.522
669.68	3.596
669.86	4.837
670.05	3.363
670.23	3.978
670.42	2.861
670.61	3.621
670.79	2.875
670.98	5.552
671.16	5.487
671.35	5.778
671.54	4.864
671.72	5.096
671.91	6.164
672.09	3.628
672.28	6.133
672.46	4.171
672.65	5.568
672.84	6.871
673.02	5.404
673.21	3.963
673.39	4.510
673.58	7.387
673.77	5.568
673.95	4.663
674.14	5.986
674.32	3.660
674.51	6.146
674.69	4.885
674.88	4.632
675.07	3.559
675.25	8.231
675.44	4.728
675.62	3.583
675.81	4.339
675.99	8.212
676.18	5.533
676.36	4.455
676.55	3.267
676.74	6.430
676.92	6.672
677.11	5.261
677.29	4.609
677.48	4.735
677.66	6.742
677.85	6.619
678.03	5.512
678.22	3.398
678.40	5.857
678.59	4.090
678.78	4.242
678.96	6.751
679.15	5.155
679.33	6.050
679.52	7.648
679.70	5.196
679.89	4.363
680.07	5.800
680.26	3.865
680.44	6.508
680.63	6.078
680.81	4.225
681.00	4.338
681.18	6.786
681.37	3.963
681.55	7.423
681.74	8.058
681.92	5.929
682.11	5.503
682.29	6.795
682.48	5.533
682.66	6.664
682.85	4.782
683.03	5.229
683.22	7.583
683.40	6.063
683.59	4.499
683.77	5.257
683.96	5.780
684.14	7.906
684.33	3.511
684.51	7.795
684.70	6.430
684.88	7.571
685.07	6.933
685.25	8.048
685.44	6.223
685.62	7.729
685.81	6.061
685.99	6.550
686.18	3.974
686.36	7.146
686.55	6.331
686.73	6.331
686.92	7.845
687.10	6.769
687.29	8.212
687.47	5.584
687.65	5.646
687.84	6.342
688.02	6.765
688.21	9.883
688.39	5.947
688.58	10.484
688.76	7.587
688.95	5.985
689.13	5.758
689.32	8.801
689.50	8.248
689.68	5.761
689.87	7.298
690.05	7.487
690.24	8.710
690.42	9.050
690.61	7.335
690.79	6.979
690.98	7.090
691.16	8.521
691.34	6.959
691.53	7.140
691.71	7.579
691.90	6.446
692.08	6.782
692.27	9.779
692.45	9.155
692.63	7.682
692.82	10.832
693.00	11.187
693.19	7.692
693.37	10.356
693.56	9.430
693.74	11.053
693.92	11.720
694.11	9.649
694.29	8.310
694.48	13.441
694.66	10.611
694.84	14.628
695.03	9.826
695.21	12.144
695.40	14.476
695.58	13.010
695.76	9.282
695.95	12.871
696.13	11.756
696.32	13.570
696.50	20.446
696.68	12.794
696.87	11.438
697.05	14.547
697.24	14.710
697.42	16.113
697.60	15.067
697.79	13.742
697.97	13.816
698.16	17.087
698.34	12.573
698.52	16.107
698.71	16.282
698.89	16.814
699.07	17.218
699.26	17.059
699.44	17.659
699.63	20.162
699.81	15.137
699.99	19.810
700.18	19.305
700.36	20.084
700.54	19.205
700.73	19.829
700.91	17.609
701.09	21.629
701.28	16.702
701.46	20.792
701.64	16.922
701.83	21.154
702.01	16.216
702.20	20.362
702.38	20.304
702.56	18.692
702.75	18.111
702.93	20.246
703.11	19.645
703.30	18.978
703.48	19.699
703.66	22.606
703.85	20.236
704.03	23.597
704.21	21.963
704.40	25.107
704.58	18.567
704.76	20.217
704.95	20.495
705.13	20.684
705.31	21.008
705.50	22.817
705.68	19.079
705.86	25.883
706.04	21.329
706.23	25.168
706.41	23.687
706.59	23.776
706.78	19.277
706.96	22.235
707.14	23.632
707.33	25.575
707.51	23.774
707.69	25.762
707.88	21.073
708.06	23.926
708.24	22.778
708.42	24.609
708.61	21.658
708.79	23.190
708.97	26.032
709.16	23.718
709.34	21.429
709.52	21.314
709.71	24.076
709.89	26.652
710.07	20.963
710.25	25.243
710.44	21.580
710.62	24.812
710.80	23.914
710.98	25.855
711.17	25.138
711.35	27.340
711.53	22.561
711.72	24.750
711.90	24.962
712.08	26.915
712.26	24.169
712.45	28.224
712.63	27.083
712.81	28.651
712.99	23.805
713.18	27.730
713.36	28.520
713.54	26.264
713.72	24.712
713.91	26.340
714.09	22.833
714.27	26.961
714.45	24.402
714.64	28.392
714.82	25.769
715.00	28.935
715.18	24.786
715.37	27.229
715.55	25.154
715.73	28.688
715.91	25.724
716.10	27.714
716.28	23.573
716.46	26.475
716.64	25.559
716.83	26.919
717.01	24.159
717.19	26.248
717.37	23.875
717.55	25.732
717.74	25.326
717.92	23.382
718.10	21.900
718.28	25.289
718.47	24.431
718.65	26.569
718.83	24.871
719.01	25.316
719.19	23.028
719.38	25.646
719.56	20.873
719.74	25.328
719.92	20.752
720.10	23.567
720.29	20.917
720.47	22.751
720.65	22.252
720.83	23.372
721.01	23.784
721.20	24.392
721.38	25.657
721.56	25.052
721.74	24.356
721.92	28.513
722.11	24.274
722.29	29.363
722.47	26.222
722.65	29.358
722.83	24.512
723.01	24.008
723.20	26.935
723.38	29.167
723.56	29.330
723.74	30.598
723.92	27.246
724.10	28.298
724.29	21.332
724.47	25.333
724.65	22.679
724.83	28.633
725.01	26.534
725.19	30.926
725.38	26.967
725.56	28.625
725.74	26.423
725.92	27.151
726.10	26.316
726.28	24.833
726.46	29.660
726.65	28.451
726.83	23.729
727.01	26.594
727.19	26.090
727.37	30.347
727.55	23.826
727.73	30.870
727.92	28.403
728.10	26.975
728.28	22.154
728.46	30.138
728.64	24.831
728.82	28.294
729.00	28.887
729.19	26.986
729.37	27.056
729.55	28.408
729.73	24.578
729.91	32.181
730.09	27.635
730.27	30.520
730.45	27.868
730.63	30.799
730.82	28.303
731.00	31.167
731.18	25.578
731.36	28.635
731.54	24.934
731.72	31.432
731.90	27.771
732.08	30.385
732.26	27.133
732.45	31.606
732.63	33.644
732.81	33.312
732.99	27.670
733.17	33.843
733.35	29.706
733.53	32.906
733.71	31.104
733.89	31.543
734.07	29.962
734.25	33.770
734.44	31.614
734.62	32.366
734.80	29.507
734.98	31.845
735.16	34.670
735.34	31.841
735.52	31.325
735.70	34.060
735.88	31.462
736.06	35.836
736.24	38.214
736.42	34.194
736.60	33.464
736.78	40.454
736.97	33.387
737.15	36.521
737.33	28.230
737.51	36.282
737.69	38.064
737.87	34.523
738.05	35.500
738.23	37.767
738.41	32.778
738.59	33.636
738.77	34.343
738.95	38.744
739.13	33.654
739.31	33.465
739.49	32.376
739.67	35.588
739.85	35.709
740.03	34.270
740.21	34.057
740.39	33.892
740.57	39.060
740.75	38.838
740.93	35.405
741.11	40.864
741.30	38.623
741.48	38.021
741.66	34.281
741.84	35.050
742.02	39.060
742.20	38.366
742.38	36.730
742.56	37.632
742.74	36.519
742.92	37.928
743.10	36.149
743.28	39.517
743.46	35.768
743.64	39.425
743.82	36.070
744.00	39.001
744.18	42.245
744.36	36.000
744.54	36.957
744.72	39.925
744.90	45.342
745.08	39.575
745.26	38.829
745.44	41.433
745.62	36.153
745.80	40.454
745.98	43.007
746.16	39.783
746.34	40.415
746.52	42.725
746.70	37.193
746.87	39.692
747.05	41.702
747.23	38.753
747.41	40.319
747.59	42.770
747.77	44.277
747.95	39.444
748.13	37.435
748.31	41.985
748.49	41.767
748.67	43.209
748.85	40.309
749.03	39.000
749.21	42.564
749.39	48.144
749.57	36.355
749.75	42.229
749.93	41.566
750.11	41.123
750.29	38.249
750.47	41.424
750.65	33.463
750.83	40.566
751.01	33.568
751.18	40.321
751.36	40.844
751.54	42.132
751.72	39.960
751.90	36.725
752.08	33.366
752.26	38.928
752.44	39.539
752.62	39.010
752.80	41.581
752.98	43.782
753.16	41.600
753.34	41.489
753.52	40.838
753.69	39.695
753.87	39.426
754.05	43.935
754.23	39.630
754.41	42.843
754.59	43.744
754.77	41.942
754.95	42.512
755.13	44.676
755.31	41.093
755.49	46.935
755.66	36.757
755.84	37.403
756.02	37.637
756.20	41.792
756.38	38.622
756.56	44.132
756.74	45.418
756.92	39.817
757.10	41.231
757.28	46.834
757.45	41.587
757.63	44.835
757.81	38.363
757.99	41.848
758.17	41.684
758.35	39.540
758.53	44.282
758.71	40.685
758.88	37.428
759.06	38.077
759.24	32.458
759.42	32.059
759.60	32.368
759.78	30.461
759.96	25.392
760.13	28.432
760.31	26.816
760.49	23.272
760.67	19.586
760.85	26.195
761.03	19.416
761.21	23.932
761.38	15.392
761.56	22.388
761.74	18.321
761.92	21.262
762.10	15.191
762.28	23.578
762.46	20.741
762.63	19.854
762.81	16.431
762.99	23.266
763.17	19.321
763.35	20.312
763.53	16.841
763.70	21.459
763.88	20.370
764.06	21.651
764.24	20.013
764.42	23.008
764.60	22.920
764.77	23.082
764.95	23.739
765.13	27.928
765.31	22.845
765.49	27.657
765.66	25.964
765.84	28.701
766.02	25.835
766.20	29.948
766.38	30.099
766.56	31.122
766.73	28.756
766.91	31.402
767.09	32.258
767.27	33.059
767.45	34.850
767.62	35.980
767.80	34.341
767.98	37.835
768.16	35.929
768.33	42.231
768.51	39.474
768.69	42.383
768.87	35.398
769.05	41.121
769.22	40.463
769.40	42.986
769.58	38.634
769.76	43.590
769.94	40.244
770.11	41.677
770.29	40.796
770.47	41.328
770.65	43.826
770.82	38.650
771.00	46.899
771.18	43.293
771.36	41.667
771.53	40.964
771.71	40.395
771.89	45.850
772.07	40.437
772.25	49.309
772.42	43.438
772.60	45.962
772.78	42.090
772.96	48.914
773.13	40.385
773.31	40.323
773.49	39.332
773.67	46.248
773.84	43.516
774.02	41.185
774.20	34.307
774.37	38.248
774.55	37.698
774.73	44.548
774.91	38.543
775.08	48.915
775.26	35.088
775.44	46.229
775.62	44.113
775.79	43.759
775.97	37.077
776.15	45.170
776.32	42.989
776.50	52.248
776.68	41.534
776.86	44.255
777.03	45.253
777.21	48.666
777.39	50.218
777.56	48.357
777.74	37.048
777.92	43.394
778.10	43.087
778.27	55.659
778.45	38.661
778.63	52.765
778.80	46.815
778.98	39.658
779.16	53.601
779.34	41.800
779.51	43.405
779.69	50.497
779.87	45.161
780.04	40.282
780.22	37.794
780.40	38.527
780.57	43.541
780.75	40.782
780.93	44.270
781.10	48.330
781.28	49.753
781.46	37.011
781.63	44.959
781.81	42.485
781.99	36.678
782.16	40.728
782.34	35.354
782.52	41.707
782.69	46.108
782.87	40.203
783.05	41.963
783.22	45.893
783.40	48.423
783.58	44.887
783.75	36.770
783.93	50.082
784.11	44.815
784.28	39.965
784.46	45.679
784.64	38.929
784.81	39.964
784.99	46.538
785.17	49.709
785.34	43.950
785.52	43.810
785.69	35.018
785.87	42.086
786.05	43.571
786.22	45.472
786.40	52.372
786.58	53.188
786.75	48.799
786.93	44.894
787.11	43.182
787.28	40.206
787.46	41.877
787.63	42.157
787.81	39.891
787.99	47.276
788.16	40.984
788.34	29.260
788.51	39.631
788.69	37.148
788.87	41.467
789.04	37.481
789.22	40.493
789.39	32.949
789.57	32.883
789.75	29.587
789.92	36.283
790.10	38.451
790.27	37.429
790.45	33.807
790.63	35.885
790.80	40.777
790.98	37.148
791.15	31.988
791.33	38.989
791.51	42.994
791.68	32.675
791.86	39.826
792.03	41.056
792.21	38.235
792.39	32.270
792.56	36.300
792.74	44.612
792.91	41.296
793.09	42.004
793.26	42.138
793.44	34.535
793.62	40.157
793.79	34.394
793.97	44.639
794.14	38.878
794.32	40.361
794.49	35.169
794.67	43.089
794.84	36.478
795.02	44.045
795.20	38.563
795.37	39.400
795.55	38.336
795.72	30.224
795.90	45.029
796.07	48.214
796.25	41.772
796.42	36.014
796.60	36.895
796.77	35.765
796.95	41.049
797.13	35.478
797.30	49.104
797.48	37.562
797.65	34.831
797.83	39.432
798.00	36.194
798.18	40.993
798.35	38.793
798.53	34.757
798.70	30.088
798.88	45.040
799.05	41.711
799.23	28.597
799.40	30.249
799.58	41.391
799.75	45.724
799.93	34.226
800.10	40.789
800.28	34.576
800.45	35.815
800.63	33.840
800.80	41.007
800.98	48.015
801.15	35.740
801.33	39.729
801.50	36.201
801.68	37.391
801.85	31.660
802.03	36.072
802.20	45.253
802.38	42.509
802.55	41.909
802.73	33.526
802.90	30.707
803.08	40.000
803.25	37.275
803.43	38.730
803.60	32.671
803.78	32.417
803.95	39.177
804.13	38.740
804.30	33.557
804.48	34.934
804.65	37.303
804.83	34.406
805.00	43.709
805.17	37.527
805.35	36.832
805.52	31.772
805.70	45.436
805.87	44.084
806.05	39.558
806.22	40.208
806.40	28.922
806.57	36.240
806.75	36.680
806.92	41.358
807.09	42.947
807.27	35.102
807.44	34.185
807.62	36.122
807.79	33.832
807.97	33.800
808.14	37.838
808.31	28.509
808.49	33.097
808.66	36.543
808.84	35.815
809.01	31.724
809.19	31.925
809.36	44.259
809.53	34.096
809.71	39.316
809.88	46.485
810.06	37.418
810.23	44.766
810.41	33.962
810.58	44.417
810.75	30.789
810.93	40.868
811.10	20.742
811.28	40.000
811.45	41.353
811.62	31.714
811.80	34.673
811.97	40.704
812.15	35.763
812.32	40.052
812.49	32.924
812.67	32.458
812.84	28.846
813.02	41.005
813.19	48.184
813.36	29.282
813.54	43.073
813.71	34.536
813.89	25.648
814.06	31.830
814.23	33.529
814.41	34.091
814.58	44.353
814.75	39.237
814.93	41.832
815.10	27.851
815.28	24.876
815.45	34.895
815.62	33.908
815.80	24.561
815.97	19.500
816.14	31.565
816.32	31.266
816.49	20.317
816.66	31.733
816.84	32.118
817.01	31.102
817.18	23.499
817.36	40.103
817.53	35.680
817.71	29.563
817.88	31.481
818.05	38.826
818.23	22.871
818.40	21.067
818.57	35.080
818.75	28.000
818.92	38.095
819.09	13.350
819.27	17.500
819.44	24.228
819.61	25.866
819.79	22.819
819.96	26.941
820.13	24.096
820.31	36.077
820.48	26.884
820.65	20.000
820.82	31.450
821.00	27.787
821.17	22.619
821.34	21.429
821.52	20.839
821.69	28.395
821.86	19.405
822.04	24.446
822.21	20.264
822.38	18.949
822.56	16.082
822.73	22.515
822.90	19.869
823.07	22.822
823.25	18.783
823.42	20.488
823.59	20.060
823.77	23.220
823.94	21.972
824.11	24.599
824.29	20.423
824.46	24.844
824.63	24.011
824.80	23.518
824.98	20.682
825.15	21.964
825.32	21.558
825.49	22.956
825.67	20.872
825.84	23.669
826.01	22.917
826.19	23.250
826.36	20.926
826.53	22.431
826.70	18.852
826.88	22.844
827.05	17.355
827.22	21.506
827.39	20.902
827.57	19.408
827.74	17.323
827.91	21.189
828.08	21.295
828.26	19.857
828.43	16.653
828.60	20.883
828.77	21.463
828.95	19.328
829.12	19.133
829.29	21.878
829.46	21.714
829.64	17.941
829.81	16.232
829.98	23.881
830.15	19.552
830.32	21.785
830.50	12.500
830.67	17.384
830.84	16.123
831.01	32.389
831.19	22.407
831.36	26.494
831.53	20.179
831.70	26.437
831.87	14.831
832.05	29.673
832.22	39.556
832.39	28.605
832.56	19.789
832.74	31.336
832.91	28.678
833.08	36.752
833.25	26.355
833.42	22.129
833.60	16.364
833.77	22.222
833.94	22.364
834.11	18.231
834.28	18.812
834.45	17.640
834.63	18.270
834.80	22.551
834.97	21.959
835.14	19.132
835.31	22.184
835.49	20.234
835.66	15.875
835.83	18.182
836.00	17.736
836.17	21.656
836.34	22.108
836.52	25.460
836.69	29.827
836.86	25.719
837.03	24.482
837.20	26.296
837.37	32.087
837.55	24.375
837.72	28.474
837.89	32.828
838.06	26.571
838.23	34.314
838.40	25.904
838.58	30.259
838.75	22.772
838.92	49.536
839.09	29.553
839.26	43.234
839.43	44.369
839.60	36.637
839.78	47.078
839.95	31.880
840.12	43.686
840.29	36.949
840.46	33.742
840.63	46.082
840.80	38.188
840.98	44.231
841.15	49.375
841.32	37.879
841.49	29.412
841.66	37.975
841.83	37.888
842.00	45.515
842.17	40.625
842.34	22.635
842.52	49.333
842.69	24.068
842.86	32.558
843.03	50.185
843.20	27.203
843.37	39.114
843.54	49.064
843.71	27.232
843.88	51.556
844.06	60.400
844.23	47.143
844.40	60.889
844.57	69.613
844.74	54.878
844.91	53.140
845.08	68.750
845.25	45.894
845.42	34.946
845.59	76.316
845.76	63.077
845.94	70.297
846.11	80.137
846.28	51.190
846.45	75.843
846.62	54.545
846.79	63.014
846.96	40.741
847.13	67.442
847.30	46.897
847.47	40.288
847.64	64.341
847.81	71.186
847.98	57.286
848.15	72.993
848.32	77.358
848.50	93.413
848.67	56.897
848.84	70.548
849.01	60.335
849.18	49.485
849.35	67.188
849.52	50.000
849.69	56.291
849.86	79.592
850.03	70.896
850.20	72.515
850.37	73.950
850.54	67.039
850.71	74.172
850.88	52.514
851.05	62.712
851.22	71.348
851.39	93.694
851.56	88.393
851.73	47.170
851.90	52.174
852.07	91.729
852.24	71.711
852.41	64.762
852.58	55.634
852.75	64.368
852.92	46.341
853.09	107.031
853.26	69.841
853.43	129.245
853.60	74.157
853.77	91.139
853.94	77.372
854.11	60.140
854.28	68.000
854.45	52.344
854.62	63.959
854.79	82.353
854.96	116.800
855.13	59.649
855.30	91.837
855.47	77.586
855.64	76.692
855.81	50.000
855.98	56.349
856.15	90.991
856.32	62.893
856.49	76.744
856.66	61.538
856.83	106.818
857.00	60.131
857.17	69.231
857.34	37.895
857.51	83.453
857.68	57.838
857.85	50.000
858.02	83.704
858.19	54.955
858.36	80.909
858.53	45.161
858.70	50.898
858.87	82.278
859.04	74.194
859.21	41.892
859.38	67.544
859.55	94.776
859.72	111.494
859.89	58.273
860.05	47.748
860.22	71.204
860.39	66.964
860.56	56.489
860.73	104.878
860.90	87.156
861.07	51.316
861.24	63.816
861.41	112.963
861.58	71.875
861.75	83.704
861.92	82.895
862.09	73.333
862.26	85.470
862.43	99.010
862.59	68.382
862.76	58.741
862.93	74.157
863.10	60.000
863.27	47.863
863.44	106.897
863.61	40.146
863.78	61.714
863.95	86.928
864.12	62.069
864.29	44.444
864.45	74.138
864.62	50.282
864.79	61.240
864.96	57.724
865.13	35.135
865.30	81.988
865.47	59.146
865.64	71.223
865.81	61.069
865.97	54.000
866.14	60.544
866.31	50.000
866.48	66.225
866.65	56.410
866.82	68.987
866.99	92.308
867.16	84.211
867.33	46.237
867.49	77.778
867.66	79.381
867.83	40.157
868.00	77.397
868.17	78.512
868.34	63.158
868.51	75.238
868.67	72.152
868.84	50.000
869.01	61.600
869.18	68.085
869.35	56.589
869.52	49.206
869.69	81.507
869.85	81.308
870.02	48.077
870.19	94.915
870.36	79.310
870.53	31.429
870.70	83.648
870.86	60.000
871.03	76.543
871.20	55.046
871.37	48.276
871.54	69.595
871.71	55.000
871.87	47.799
872.04	48.571
872.21	74.783
872.38	95.122
872.55	60.494
872.72	65.625
872.88	63.128
873.05	65.517
873.22	68.027
873.39	72.449
873.56	67.456
873.72	56.471
873.89	56.522
874.06	77.612
874.23	64.407
874.40	38.000
874.56	113.684
874.73	56.098
874.90	66.102
875.07	62.857
875.24	73.292
875.40	77.311
875.57	69.725
875.74	94.400
875.91	34.862
876.08	74.783
876.24	61.628
876.41	111.200
876.58	68.617
876.75	56.738
876.92	64.706
877.08	69.118
877.25	63.478
877.42	72.656
877.59	51.020
877.75	50.667
877.92	44.048
878.09	48.958
878.26	50.898
878.42	51.250
878.59	49.565
878.76	17.105
878.93	47.015
879.09	-9.091
879.26	46.341
879.43	54.054
879.60	49.650
879.76	47.727
879.93	46.111
880.10	25.333
880.27	32.298
880.43	53.073
880.60	24.658
880.77	26.705
880.94	12.935
881.10	29.499
881.27	21.967
881.44	25.496
881.61	30.493
881.77	24.665
881.94	21.499
882.11	20.246
882.28	12.783
882.44	15.152
882.61	15.612
882.78	19.173
882.94	19.130
883.11	18.622
883.28	17.797
883.45	18.646
883.61	16.242
883.78	20.141
883.95	15.610
884.11	14.943
884.28	16.108
>>>>>End Processed Spectral Data<<<<<
