SpectraSuite Data File
++++++++++++++++++++++++++++++++++++
Date: Sat Sep 21 03:27:29 EST 2019
User: sgrac
Dark Spectrum Present: Yes
Reference Spectrum Present: Yes
Number of Sampled Component Spectra: 1
Spectrometers: USB4E01596
Integration Time (usec): 100000 (USB4E01596)
Spectra Averaged: 1 (USB4E01596)
Boxcar Smoothing: 0 (USB4E01596)
Correct for Electrical Dark: No (USB4E01596)
Strobe/Lamp Enabled: Yes (USB4E01596)
Correct for Detector Non-linearity: No (USB4E01596)
Correct for Stray Light: No (USB4E01596)
Number of Pixels in Processed Spectrum: 3648
>>>>>Begin Processed Spectral Data<<<<<
178.44	-207.143
178.66	-207.143
178.87	-207.143
179.09	-414.286
179.30	-223.077
179.52	0.000
179.74	-1000.000
179.95	1266.667
180.17	573.333
180.38	4700.000
180.60	0.000
180.82	416.667
181.03	-247.368
181.25	321.739
181.46	-38.710
181.68	454.167
181.89	6300.000
182.11	271.429
182.33	-200.000
182.54	-256.250
182.76	-4000.000
182.97	520.000
183.19	2875.000
183.40	162.069
183.62	-188.889
183.84	-207.407
184.05	339.130
184.27	316.667
184.48	1171.429
184.70	204.000
184.91	-433.333
185.13	164.444
185.34	-153.571
185.56	171.667
185.78	0.000
185.99	406.667
186.21	389.655
186.42	580.000
186.64	164.516
186.85	207.407
187.07	185.455
187.28	520.000
187.50	-180.000
187.72	1700.000
187.93	-4900.000
188.15	146.000
188.36	-135.294
188.58	-3400.000
188.79	154.545
189.01	302.778
189.22	1580.000
189.44	3050.000
189.65	286.667
189.87	837.500
190.09	-2060.000
190.30	387.500
190.52	-3850.000
190.73	167.857
190.95	328.571
191.16	237.778
191.38	600.000
191.59	152.381
191.81	222.222
192.02	159.574
192.24	494.118
192.45	-1080.000
192.67	291.429
192.88	395.833
193.10	208.000
193.31	520.000
193.53	-8700.000
193.74	165.854
193.96	337.500
194.18	274.194
194.39	-261.111
194.61	447.368
194.82	485.714
195.04	266.667
195.25	4050.000
195.47	182.927
195.68	229.787
195.90	920.000
196.11	178.182
196.33	185.106
196.54	-2233.333
196.76	271.429
196.97	-866.667
197.19	389.286
197.40	229.412
197.62	157.813
197.83	152.703
198.05	-394.737
198.26	268.571
198.48	158.333
198.69	211.628
198.91	192.157
199.12	-217.143
199.34	-940.000
199.55	4300.000
199.77	1825.000
199.98	352.000
200.20	150.704
200.41	585.714
200.63	-600.000
200.84	172.549
201.06	338.462
201.27	286.486
201.49	1200.000
201.70	314.815
201.91	139.130
202.13	82.609
202.34	207.547
202.56	-800.000
202.77	544.444
202.99	350.000
203.20	1750.000
203.42	1062.500
203.63	253.488
203.85	174.286
204.06	181.481
204.28	-430.000
204.49	208.571
204.71	176.923
204.92	0.000
205.14	-307.143
205.35	311.111
205.56	-1800.000
205.78	400.000
205.99	470.000
206.21	-100.000
206.42	329.032
206.64	267.857
206.85	1200.000
207.07	-800.000
207.28	385.714
207.50	-352.632
207.71	153.846
207.93	193.182
208.14	376.471
208.35	168.421
208.57	-6400.000
208.78	669.231
209.00	322.222
209.21	-3900.000
209.43	241.379
209.64	244.118
209.86	414.286
210.07	0.000
210.28	-458.824
210.50	116.327
210.71	133.333
210.93	300.000
211.14	-122.222
211.36	-161.290
211.57	-314.286
211.78	-56.522
212.00	0.000
212.21	234.884
212.43	-277.273
212.64	124.138
212.86	-700.000
213.07	-281.818
213.29	144.737
213.50	5400.000
213.71	177.358
213.93	942.857
214.14	127.273
214.36	6500.000
214.57	238.462
214.78	493.750
215.00	500.000
215.21	216.667
215.43	252.000
215.64	279.487
215.86	91.429
216.07	6700.000
216.28	272.000
216.50	-1000.000
216.71	-1420.000
216.93	231.915
217.14	215.625
217.35	262.963
217.57	203.571
217.78	600.000
218.00	-480.000
218.21	178.947
218.42	-2866.667
218.64	505.882
218.85	-300.000
219.07	100.000
219.28	1575.000
219.49	114.474
219.71	1200.000
219.92	172.222
220.14	170.833
220.35	295.000
220.56	141.026
220.78	447.059
220.99	-7900.000
221.21	338.095
221.42	108.333
221.63	192.500
221.85	200.000
222.06	267.857
222.28	175.000
222.49	-2650.000
222.70	0.000
222.92	422.222
223.13	203.333
223.34	-675.000
223.56	102.632
223.77	91.011
223.99	161.538
224.20	138.095
224.41	232.432
224.63	258.333
224.84	122.414
225.05	275.000
225.27	85.714
225.48	91.304
225.69	-28.571
225.91	285.185
226.12	250.000
226.34	147.059
226.55	35.185
226.76	203.226
226.98	60.000
227.19	90.909
227.40	94.215
227.62	82.927
227.83	88.000
228.04	34.066
228.26	74.257
228.47	131.034
228.69	43.421
228.90	47.887
229.11	32.593
229.33	39.130
229.54	29.605
229.75	30.435
229.97	31.330
230.18	11.111
230.39	10.549
230.61	19.497
230.82	24.481
231.03	-3.734
231.25	22.222
231.46	39.051
231.67	31.225
231.89	37.647
232.10	29.960
232.31	56.250
232.53	12.994
232.74	51.042
232.95	53.012
233.17	39.884
233.38	30.597
233.59	53.676
233.81	25.728
234.02	38.158
234.23	25.134
234.45	53.947
234.66	38.418
234.87	24.832
235.09	27.407
235.30	23.563
235.51	45.146
235.73	24.528
235.94	44.560
236.15	30.612
236.36	32.804
236.58	45.972
236.79	37.173
237.00	36.715
237.22	33.951
237.43	29.902
237.64	10.044
237.86	36.957
238.07	50.754
238.28	22.951
238.50	25.217
238.71	15.385
238.92	15.476
239.13	26.857
239.35	25.175
239.56	36.458
239.77	42.439
239.99	24.528
240.20	33.684
240.41	31.034
240.63	27.530
240.84	30.279
241.05	21.168
241.26	20.248
241.48	23.894
241.69	26.582
241.90	15.493
242.12	19.388
242.33	19.397
242.54	9.808
242.75	18.216
242.97	12.759
243.18	8.418
243.39	13.244
243.61	8.396
243.82	12.587
244.03	12.662
244.24	9.663
244.46	7.704
244.67	9.431
244.88	13.928
245.09	9.850
245.31	9.405
245.52	20.772
245.73	21.206
245.95	16.205
246.16	10.412
246.37	18.411
246.58	16.075
246.80	13.397
247.01	8.145
247.22	12.857
247.43	7.416
247.65	8.728
247.86	2.248
248.07	2.592
248.28	8.215
248.50	7.249
248.71	9.838
248.92	7.278
249.13	5.641
249.35	5.781
249.56	8.077
249.77	5.655
249.98	3.155
250.20	9.889
250.41	10.950
250.62	10.361
250.83	13.697
251.05	11.396
251.26	8.711
251.47	14.595
251.68	14.808
251.90	10.688
252.11	13.589
252.32	14.334
252.53	12.480
252.75	12.160
252.96	17.308
253.17	8.460
253.38	13.919
253.59	9.463
253.81	14.266
254.02	12.519
254.23	15.530
254.44	9.576
254.66	18.017
254.87	10.289
255.08	8.425
255.29	16.667
255.50	18.065
255.72	15.596
255.93	21.168
256.14	20.227
256.35	13.817
256.57	21.260
256.78	15.982
256.99	21.466
257.20	10.680
257.41	17.805
257.63	7.362
257.84	17.635
258.05	10.417
258.26	8.288
258.47	7.692
258.69	14.075
258.90	5.745
259.11	1.872
259.32	5.420
259.53	8.445
259.75	8.743
259.96	2.252
260.17	4.399
260.38	4.288
260.59	4.593
260.81	4.981
261.02	6.254
261.23	7.548
261.44	4.389
261.65	6.045
261.87	3.030
262.08	5.611
262.29	6.779
262.50	8.321
262.71	5.085
262.92	6.086
263.14	9.683
263.35	6.419
263.56	3.882
263.77	12.399
263.98	10.053
264.20	11.788
264.41	5.110
264.62	12.129
264.83	6.780
265.04	8.508
265.25	6.541
265.47	10.121
265.68	11.370
265.89	2.496
266.10	10.526
266.31	16.074
266.52	12.205
266.74	0.913
266.95	3.665
267.16	7.732
267.37	6.375
267.58	3.929
267.79	5.451
268.01	6.813
268.22	9.880
268.43	8.144
268.64	7.539
268.85	3.842
269.06	4.964
269.27	9.989
269.49	8.836
269.70	6.061
269.91	6.083
270.12	5.281
270.33	10.748
270.54	8.471
270.75	3.509
270.97	7.922
271.18	9.538
271.39	8.401
271.60	10.334
271.81	6.598
272.02	9.213
272.23	5.540
272.45	7.535
272.66	5.819
272.87	6.826
273.08	5.660
273.29	5.420
273.50	6.622
273.71	8.055
273.92	6.140
274.14	1.509
274.35	3.887
274.56	8.179
274.77	3.957
274.98	9.009
275.19	7.549
275.40	11.264
275.61	5.379
275.83	8.406
276.04	3.288
276.25	7.549
276.46	7.924
276.67	4.107
276.88	8.790
277.09	2.775
277.30	8.940
277.51	11.008
277.73	5.100
277.94	7.862
278.15	6.551
278.36	3.749
278.57	6.352
278.78	11.400
278.99	9.366
279.20	4.283
279.41	7.012
279.62	9.081
279.84	3.774
280.05	7.400
280.26	10.352
280.47	5.544
280.68	-2.511
280.89	10.192
281.10	11.276
281.31	1.616
281.52	8.769
281.73	7.722
281.94	5.364
282.16	6.691
282.37	8.467
282.58	6.788
282.79	8.396
283.00	11.195
283.21	7.823
283.42	4.777
283.63	4.125
283.84	6.467
284.05	2.972
284.26	5.517
284.47	6.641
284.68	7.074
284.89	4.815
285.11	3.840
285.32	4.672
285.53	0.527
285.74	7.019
285.95	5.205
286.16	4.696
286.37	3.776
286.58	2.388
286.79	4.982
287.00	6.083
287.21	2.906
287.42	4.201
287.63	6.250
287.84	5.472
288.05	3.722
288.26	5.340
288.48	6.542
288.69	5.914
288.90	2.263
289.11	8.020
289.32	3.381
289.53	5.132
289.74	5.000
289.95	4.133
290.16	8.048
290.37	5.067
290.58	4.982
290.79	5.728
291.00	8.285
291.21	4.351
291.42	3.836
291.63	1.831
291.84	7.950
292.05	3.846
292.26	4.676
292.47	5.609
292.68	3.699
292.89	5.781
293.10	1.460
293.31	4.473
293.52	5.068
293.73	3.373
293.94	5.445
294.15	5.287
294.36	3.424
294.57	8.219
294.79	4.577
295.00	5.456
295.21	6.609
295.42	5.706
295.63	3.069
295.84	4.279
296.05	4.196
296.26	5.369
296.47	4.021
296.68	5.440
296.89	4.075
297.10	2.336
297.31	4.852
297.52	5.500
297.73	4.136
297.94	4.234
298.15	1.227
298.36	3.578
298.57	2.933
298.78	5.142
298.99	2.335
299.20	3.628
299.41	3.527
299.62	5.145
299.83	4.953
300.04	3.853
300.25	4.193
300.46	5.635
300.67	6.217
300.88	5.744
301.09	3.681
301.30	6.114
301.50	8.166
301.71	4.612
301.92	5.214
302.13	5.118
302.34	4.521
302.55	4.133
302.76	5.227
302.97	8.158
303.18	0.720
303.39	3.586
303.60	4.805
303.81	4.806
304.02	5.479
304.23	5.381
304.44	4.580
304.65	6.301
304.86	4.170
305.07	3.888
305.28	5.091
305.49	3.097
305.70	4.077
305.91	6.359
306.12	1.295
306.33	2.422
306.54	5.209
306.75	6.052
306.96	6.651
307.17	3.951
307.38	0.916
307.58	3.831
307.79	5.543
308.00	5.354
308.21	9.645
308.42	4.328
308.63	8.315
308.84	5.829
309.05	4.458
309.26	7.163
309.47	4.047
309.68	3.732
309.89	6.865
310.10	4.988
310.31	4.798
310.52	1.938
310.73	5.257
310.94	2.454
311.14	1.504
311.35	5.236
311.56	1.232
311.77	4.103
311.98	2.626
312.19	4.022
312.40	2.503
312.61	3.676
312.82	4.409
313.03	3.950
313.24	5.055
313.45	3.396
313.66	4.535
313.86	4.491
314.07	4.861
314.28	4.118
314.49	4.356
314.70	2.719
314.91	1.922
315.12	7.566
315.33	3.960
315.54	4.670
315.75	4.158
315.96	2.975
316.16	5.655
316.37	5.342
316.58	5.816
316.79	5.194
317.00	5.793
317.21	4.104
317.42	4.178
317.63	4.989
317.84	8.777
318.05	7.423
318.25	6.543
318.46	5.960
318.67	3.245
318.88	7.242
319.09	4.191
319.30	5.735
319.51	4.306
319.72	8.005
319.93	6.911
320.13	7.850
320.34	8.085
320.55	4.364
320.76	6.676
320.97	8.077
321.18	2.866
321.39	4.727
321.60	7.592
321.80	5.230
322.01	3.816
322.22	4.128
322.43	2.923
322.64	4.438
322.85	3.300
323.06	6.777
323.27	8.250
323.47	5.712
323.68	7.122
323.89	4.345
324.10	6.508
324.31	2.941
324.52	6.993
324.73	5.519
324.93	6.987
325.14	3.061
325.35	4.340
325.56	5.814
325.77	3.683
325.98	4.893
326.19	6.382
326.39	5.421
326.60	6.981
326.81	3.690
327.02	8.151
327.23	2.904
327.44	6.368
327.64	6.522
327.85	3.562
328.06	5.562
328.27	5.813
328.48	5.328
328.69	2.005
328.90	3.893
329.10	6.768
329.31	2.156
329.52	4.360
329.73	8.796
329.94	5.679
330.15	6.342
330.35	4.808
330.56	6.577
330.77	4.416
330.98	5.037
331.19	2.658
331.39	6.958
331.60	7.490
331.81	6.978
332.02	9.438
332.23	4.351
332.44	4.617
332.64	2.135
332.85	6.947
333.06	9.079
333.27	4.118
333.48	3.997
333.68	7.593
333.89	3.696
334.10	3.115
334.31	6.894
334.52	4.988
334.72	4.727
334.93	6.869
335.14	8.481
335.35	4.317
335.56	5.773
335.76	2.457
335.97	6.890
336.18	6.242
336.39	5.086
336.60	7.937
336.80	4.808
337.01	7.151
337.22	2.837
337.43	5.707
337.64	5.795
337.84	3.846
338.05	4.056
338.26	7.261
338.47	4.397
338.68	2.842
338.88	5.060
339.09	6.587
339.30	3.050
339.51	3.534
339.71	4.872
339.92	5.075
340.13	6.995
340.34	6.042
340.55	6.511
340.75	7.697
340.96	5.136
341.17	7.374
341.38	6.776
341.58	6.232
341.79	6.284
342.00	4.511
342.21	2.984
342.41	5.759
342.62	5.359
342.83	6.083
343.04	1.711
343.24	4.085
343.45	5.575
343.66	5.045
343.87	7.056
344.07	4.823
344.28	5.022
344.49	6.193
344.70	7.561
344.90	5.505
345.11	7.124
345.32	5.235
345.53	5.647
345.73	5.773
345.94	6.111
346.15	5.447
346.36	2.938
346.56	6.363
346.77	7.869
346.98	4.872
347.19	6.361
347.39	6.429
347.60	4.610
347.81	6.372
348.02	6.993
348.22	4.890
348.43	4.815
348.64	7.119
348.84	7.372
349.05	5.656
349.26	7.889
349.47	6.284
349.67	5.751
349.88	8.347
350.09	6.759
350.30	7.513
350.50	4.400
350.71	6.390
350.92	7.733
351.12	5.443
351.33	5.296
351.54	7.680
351.74	5.789
351.95	5.521
352.16	4.852
352.37	10.334
352.57	6.382
352.78	5.935
352.99	7.353
353.19	6.318
353.40	7.512
353.61	10.537
353.82	6.404
354.02	7.274
354.23	6.223
354.44	8.096
354.64	8.602
354.85	7.481
355.06	7.122
355.26	4.339
355.47	4.975
355.68	7.385
355.88	9.588
356.09	7.579
356.30	4.980
356.51	7.759
356.71	7.226
356.92	6.039
357.13	3.998
357.33	7.192
357.54	4.730
357.75	4.264
357.95	5.952
358.16	6.261
358.37	8.757
358.57	6.037
358.78	7.008
358.99	5.490
359.19	6.079
359.40	7.137
359.61	4.189
359.81	7.432
360.02	7.128
360.23	5.128
360.43	6.723
360.64	6.797
360.85	5.889
361.05	5.545
361.26	7.844
361.47	4.597
361.67	7.087
361.88	3.675
362.09	6.855
362.29	5.556
362.50	5.414
362.70	4.385
362.91	6.265
363.12	5.278
363.32	4.937
363.53	6.044
363.74	7.121
363.94	5.350
364.15	7.395
364.36	5.394
364.56	4.595
364.77	8.254
364.98	6.679
365.18	4.534
365.39	6.531
365.59	6.025
365.80	5.850
366.01	8.410
366.21	6.838
366.42	2.880
366.63	7.109
366.83	4.647
367.04	4.336
367.24	8.050
367.45	5.149
367.66	3.161
367.86	5.933
368.07	4.416
368.28	5.508
368.48	4.438
368.69	3.268
368.89	5.113
369.10	5.216
369.31	4.786
369.51	5.280
369.72	6.423
369.92	6.368
370.13	4.748
370.34	5.914
370.54	3.617
370.75	9.304
370.95	4.656
371.16	5.747
371.37	4.879
371.57	4.288
371.78	5.574
371.98	5.702
372.19	5.922
372.40	6.487
372.60	6.400
372.81	4.938
373.01	3.467
373.22	4.083
373.43	4.747
373.63	8.449
373.84	4.099
374.04	5.793
374.25	4.149
374.46	5.917
374.66	4.542
374.87	5.591
375.07	3.361
375.28	5.077
375.48	4.477
375.69	5.926
375.90	4.571
376.10	3.843
376.31	3.070
376.51	4.862
376.72	3.520
376.92	2.448
377.13	4.803
377.34	5.316
377.54	4.925
377.75	4.140
377.95	4.803
378.16	4.655
378.36	4.925
378.57	5.652
378.77	4.678
378.98	3.482
379.19	5.586
379.39	4.474
379.60	2.720
379.80	4.817
380.01	4.944
380.21	4.015
380.42	5.388
380.62	4.428
380.83	6.092
381.04	5.268
381.24	5.331
381.45	2.847
381.65	3.475
381.86	4.767
382.06	5.416
382.27	2.373
382.47	3.547
382.68	6.951
382.88	3.096
383.09	3.062
383.29	3.371
383.50	4.685
383.71	4.055
383.91	3.988
384.12	3.136
384.32	5.544
384.53	4.616
384.73	2.920
384.94	4.223
385.14	3.980
385.35	4.202
385.55	3.557
385.76	3.711
385.96	5.145
386.17	3.719
386.37	3.720
386.58	3.984
386.78	5.232
386.99	2.990
387.19	3.991
387.40	2.494
387.60	5.292
387.81	3.544
388.01	3.955
388.22	4.436
388.42	5.463
388.63	5.974
388.83	5.093
389.04	4.072
389.24	5.115
389.45	2.569
389.65	4.604
389.86	3.694
390.06	3.491
390.27	4.033
390.47	4.501
390.68	3.634
390.88	4.448
391.09	3.962
391.29	4.185
391.50	4.997
391.70	3.810
391.91	4.029
392.11	3.123
392.32	4.948
392.52	4.550
392.73	4.103
392.93	3.116
393.14	3.679
393.34	3.738
393.55	3.827
393.75	3.383
393.95	3.111
394.16	4.128
394.36	4.687
394.57	5.558
394.77	4.397
394.98	3.621
395.18	2.752
395.39	3.021
395.59	3.449
395.80	3.786
396.00	3.983
396.21	3.117
396.41	3.826
396.61	2.863
396.82	4.289
397.02	6.384
397.23	4.728
397.43	3.255
397.64	3.280
397.84	5.025
398.05	2.872
398.25	3.409
398.45	4.329
398.66	4.863
398.86	4.033
399.07	4.481
399.27	3.250
399.48	4.468
399.68	3.165
399.89	3.975
400.09	4.610
400.29	2.521
400.50	4.301
400.70	3.758
400.91	2.494
401.11	3.895
401.32	4.639
401.52	2.937
401.72	3.137
401.93	4.897
402.13	4.692
402.34	3.579
402.54	2.843
402.75	4.681
402.95	2.463
403.15	5.017
403.36	4.244
403.56	4.002
403.77	3.739
403.97	3.037
404.17	3.085
404.38	4.600
404.58	4.275
404.79	5.026
404.99	3.671
405.19	2.671
405.40	2.091
405.60	3.727
405.81	3.638
406.01	2.961
406.21	2.911
406.42	3.497
406.62	3.177
406.83	4.050
407.03	4.578
407.23	2.713
407.44	3.345
407.64	4.935
407.85	4.185
408.05	3.152
408.25	2.144
408.46	4.404
408.66	3.374
408.87	3.603
409.07	3.555
409.27	3.398
409.48	3.949
409.68	3.883
409.88	3.384
410.09	4.087
410.29	3.892
410.50	4.334
410.70	1.112
410.90	2.716
411.11	2.449
411.31	2.001
411.51	4.315
411.72	4.441
411.92	2.603
412.12	3.817
412.33	2.613
412.53	3.594
412.74	2.715
412.94	2.097
413.14	3.485
413.35	4.147
413.55	3.031
413.75	5.144
413.96	3.717
414.16	2.571
414.36	3.263
414.57	2.729
414.77	3.087
414.97	2.474
415.18	3.035
415.38	2.776
415.58	2.396
415.79	2.352
415.99	3.919
416.19	3.078
416.40	3.120
416.60	3.775
416.80	3.215
417.01	2.756
417.21	2.817
417.41	4.243
417.62	3.160
417.82	3.090
418.02	2.375
418.23	2.774
418.43	3.242
418.63	2.703
418.84	3.888
419.04	2.586
419.24	3.293
419.45	3.922
419.65	3.557
419.85	3.320
420.06	3.314
420.26	3.209
420.46	3.726
420.67	4.023
420.87	4.053
421.07	4.511
421.28	2.978
421.48	3.941
421.68	3.662
421.88	4.370
422.09	3.613
422.29	3.888
422.49	3.092
422.70	4.162
422.90	2.822
423.10	3.911
423.31	3.069
423.51	4.408
423.71	3.524
423.91	4.262
424.12	3.614
424.32	3.703
424.52	3.557
424.73	4.225
424.93	3.981
425.13	3.116
425.33	2.828
425.54	4.192
425.74	4.123
425.94	4.109
426.15	3.948
426.35	3.780
426.55	3.934
426.75	3.966
426.96	4.623
427.16	3.478
427.36	4.237
427.57	4.529
427.77	3.155
427.97	3.837
428.17	3.906
428.38	3.738
428.58	2.008
428.78	2.668
428.98	3.519
429.19	3.251
429.39	3.122
429.59	3.857
429.79	2.448
430.00	2.245
430.20	2.298
430.40	3.442
430.60	3.632
430.81	3.086
431.01	2.098
431.21	2.904
431.41	2.820
431.62	3.041
431.82	3.288
432.02	3.556
432.22	2.523
432.43	2.414
432.63	1.317
432.83	3.079
433.03	4.014
433.24	1.930
433.44	2.927
433.64	2.900
433.84	2.861
434.05	3.789
434.25	2.126
434.45	2.771
434.65	3.227
434.85	4.072
435.06	3.443
435.26	3.218
435.46	3.101
435.66	2.953
435.87	3.159
436.07	2.709
436.27	2.907
436.47	2.751
436.67	2.654
436.88	3.663
437.08	2.846
437.28	2.471
437.48	3.633
437.69	3.607
437.89	3.175
438.09	3.480
438.29	2.682
438.49	3.765
438.70	3.165
438.90	2.374
439.10	2.889
439.30	3.446
439.50	2.436
439.71	3.082
439.91	2.953
440.11	3.836
440.31	4.019
440.51	2.795
440.72	2.692
440.92	3.514
441.12	3.567
441.32	3.915
441.52	3.422
441.72	4.065
441.93	3.534
442.13	4.407
442.33	3.091
442.53	4.064
442.73	2.986
442.94	2.980
443.14	2.832
443.34	4.314
443.54	3.740
443.74	3.820
443.94	3.033
444.15	2.760
444.35	2.629
444.55	3.720
444.75	3.432
444.95	2.827
445.15	2.904
445.36	3.623
445.56	2.271
445.76	3.686
445.96	3.117
446.16	3.276
446.36	2.154
446.57	4.298
446.77	2.597
446.97	3.507
447.17	4.014
447.37	3.910
447.57	4.029
447.77	3.770
447.98	3.725
448.18	4.312
448.38	3.099
448.58	4.585
448.78	3.951
448.98	3.842
449.18	3.330
449.39	2.496
449.59	2.725
449.79	2.907
449.99	2.454
450.19	3.810
450.39	3.000
450.59	3.531
450.79	3.053
451.00	3.987
451.20	4.270
451.40	3.173
451.60	2.424
451.80	3.555
452.00	2.886
452.20	3.193
452.40	3.109
452.61	2.451
452.81	3.414
453.01	3.443
453.21	1.921
453.41	2.767
453.61	3.165
453.81	3.088
454.01	3.090
454.21	3.203
454.42	3.733
454.62	3.617
454.82	2.915
455.02	2.602
455.22	2.112
455.42	2.150
455.62	2.195
455.82	3.043
456.02	2.428
456.23	2.949
456.43	3.030
456.63	3.388
456.83	2.765
457.03	3.683
457.23	2.933
457.43	2.687
457.63	2.086
457.83	3.096
458.03	2.012
458.23	3.132
458.43	2.582
458.64	2.811
458.84	2.859
459.04	2.947
459.24	2.362
459.44	3.258
459.64	3.751
459.84	3.215
460.04	3.251
460.24	3.501
460.44	3.224
460.64	3.824
460.84	2.938
461.04	4.695
461.24	3.582
461.45	4.639
461.65	3.934
461.85	3.943
462.05	3.803
462.25	4.321
462.45	4.083
462.65	3.703
462.85	2.672
463.05	2.944
463.25	2.400
463.45	3.166
463.65	2.793
463.85	3.313
464.05	2.182
464.25	2.530
464.45	3.462
464.65	2.373
464.85	2.899
465.05	3.402
465.26	2.829
465.46	3.518
465.66	3.046
465.86	3.269
466.06	2.838
466.26	3.224
466.46	2.045
466.66	3.215
466.86	2.821
467.06	3.025
467.26	2.419
467.46	3.189
467.66	3.385
467.86	3.281
468.06	3.117
468.26	2.859
468.46	2.798
468.66	3.204
468.86	2.593
469.06	3.252
469.26	2.442
469.46	3.263
469.66	2.048
469.86	3.078
470.06	2.775
470.26	3.825
470.46	2.673
470.66	3.994
470.86	2.382
471.06	3.314
471.26	2.471
471.46	2.394
471.66	3.212
471.86	2.974
472.06	3.095
472.26	3.419
472.46	3.972
472.66	3.454
472.86	2.936
473.06	3.425
473.26	2.874
473.46	2.953
473.66	2.842
473.86	3.257
474.06	2.933
474.26	2.490
474.46	2.248
474.66	2.798
474.86	2.972
475.06	2.979
475.26	1.415
475.46	2.956
475.66	2.319
475.86	2.940
476.06	3.117
476.26	3.520
476.46	2.505
476.66	2.717
476.86	2.564
477.06	2.904
477.26	2.299
477.46	3.449
477.65	2.575
477.85	3.967
478.05	2.719
478.25	3.414
478.45	2.766
478.65	3.310
478.85	2.803
479.05	3.580
479.25	3.060
479.45	3.748
479.65	2.611
479.85	3.256
480.05	3.104
480.25	3.578
480.45	3.058
480.65	3.792
480.85	2.775
481.05	3.815
481.25	3.895
481.44	3.723
481.64	2.449
481.84	4.209
482.04	3.524
482.24	3.624
482.44	2.852
482.64	3.691
482.84	3.612
483.04	4.671
483.24	3.481
483.44	4.617
483.64	4.178
483.84	5.202
484.04	4.962
484.23	5.420
484.43	5.318
484.63	5.653
484.83	5.272
485.03	5.775
485.23	5.786
485.43	5.810
485.63	5.494
485.83	5.755
486.03	5.432
486.23	5.462
486.42	5.183
486.62	5.220
486.82	4.808
487.02	5.408
487.22	4.786
487.42	5.193
487.62	5.195
487.82	5.294
488.02	4.782
488.22	5.600
488.41	5.211
488.61	5.500
488.81	5.155
489.01	5.461
489.21	4.946
489.41	5.455
489.61	4.996
489.81	5.405
490.01	5.085
490.20	5.285
490.40	4.709
490.60	5.043
490.80	4.177
491.00	5.203
491.20	4.354
491.40	4.408
491.60	4.275
491.79	4.970
491.99	4.963
492.19	5.238
492.39	5.279
492.59	5.560
492.79	5.175
492.99	5.279
493.19	5.147
493.38	5.793
493.58	5.027
493.78	5.400
493.98	5.292
494.18	5.411
494.38	4.465
494.58	5.143
494.77	2.677
494.97	4.400
495.17	3.560
495.37	4.079
495.57	3.802
495.77	4.221
495.96	4.047
496.16	3.599
496.36	3.479
496.56	4.747
496.76	3.216
496.96	4.001
497.15	3.665
497.35	3.690
497.55	3.251
497.75	4.620
497.95	3.285
498.15	4.636
498.34	4.203
498.54	4.259
498.74	4.920
498.94	4.638
499.14	3.275
499.34	4.692
499.53	3.918
499.73	4.840
499.93	3.734
500.13	4.150
500.33	2.864
500.52	4.160
500.72	3.990
500.92	3.816
501.12	3.660
501.32	4.029
501.52	4.137
501.71	3.941
501.91	3.668
502.11	4.132
502.31	3.710
502.51	4.378
502.70	3.642
502.90	3.839
503.10	3.412
503.30	4.576
503.50	4.555
503.69	4.213
503.89	4.447
504.09	4.489
504.29	4.051
504.48	5.158
504.68	4.784
504.88	4.788
505.08	3.998
505.28	4.487
505.47	4.187
505.67	6.174
505.87	4.028
506.07	5.478
506.27	3.642
506.46	5.405
506.66	3.971
506.86	5.122
507.06	5.108
507.25	5.873
507.45	5.236
507.65	5.594
507.85	4.785
508.04	5.737
508.24	5.521
508.44	5.332
508.64	4.869
508.83	6.015
509.03	5.343
509.23	6.833
509.43	5.466
509.63	6.223
509.82	5.198
510.02	5.953
510.22	5.561
510.42	7.045
510.61	6.077
510.81	6.284
511.01	6.074
511.21	7.273
511.40	6.313
511.60	7.224
511.80	6.280
511.99	7.523
512.19	7.991
512.39	7.511
512.59	5.762
512.78	7.544
512.98	7.160
513.18	7.252
513.38	6.838
513.57	7.397
513.77	6.630
513.97	7.689
514.17	7.143
514.36	7.827
514.56	6.946
514.76	8.117
514.95	6.804
515.15	8.181
515.35	6.572
515.55	7.928
515.74	8.570
515.94	8.921
516.14	7.403
516.33	8.320
516.53	7.255
516.73	8.016
516.93	7.005
517.12	8.655
517.32	6.800
517.52	8.287
517.71	6.810
517.91	8.646
518.11	7.905
518.30	8.940
518.50	6.754
518.70	8.125
518.90	8.077
519.09	8.331
519.29	8.269
519.49	8.343
519.68	6.925
519.88	8.288
520.08	8.226
520.27	8.277
520.47	8.344
520.67	8.331
520.86	8.646
521.06	8.710
521.26	7.079
521.45	8.768
521.65	7.849
521.85	8.389
522.04	7.210
522.24	8.507
522.44	6.523
522.63	8.423
522.83	7.511
523.03	8.462
523.22	7.439
523.42	8.281
523.62	8.100
523.81	8.434
524.01	8.277
524.21	8.669
524.40	7.558
524.60	7.828
524.80	7.127
524.99	7.434
525.19	7.313
525.39	8.127
525.58	7.013
525.78	8.153
525.98	7.236
526.17	8.111
526.37	7.746
526.57	7.879
526.76	7.580
526.96	8.070
527.15	7.347
527.35	7.752
527.55	7.609
527.74	8.419
527.94	7.925
528.14	7.814
528.33	7.646
528.53	7.803
528.72	7.437
528.92	7.881
529.12	7.643
529.31	7.602
529.51	8.052
529.71	7.910
529.90	7.711
530.10	7.898
530.29	7.964
530.49	7.951
530.69	7.967
530.88	8.224
531.08	8.013
531.28	8.394
531.47	7.999
531.67	8.014
531.86	7.749
532.06	7.969
532.26	7.822
532.45	8.190
532.65	7.261
532.84	7.803
533.04	6.965
533.24	7.912
533.43	7.414
533.63	8.126
533.82	7.839
534.02	7.944
534.22	7.978
534.41	7.858
534.61	7.791
534.80	7.603
535.00	8.063
535.19	8.474
535.39	8.115
535.59	8.364
535.78	7.793
535.98	7.779
536.17	7.567
536.37	8.302
536.57	7.965
536.76	7.795
536.96	7.198
537.15	8.240
537.35	7.996
537.54	8.128
537.74	8.123
537.93	8.309
538.13	7.597
538.33	8.100
538.52	7.495
538.72	8.153
538.91	7.283
539.11	8.131
539.30	6.419
539.50	8.947
539.70	7.436
539.89	9.037
540.09	7.469
540.28	8.478
540.48	6.918
540.67	8.506
540.87	7.814
541.06	8.939
541.26	7.880
541.45	8.600
541.65	7.920
541.85	8.535
542.04	7.944
542.24	8.633
542.43	8.533
542.63	8.454
542.82	8.434
543.02	8.669
543.21	8.688
543.41	8.668
543.60	9.063
543.80	8.655
543.99	8.168
544.19	8.866
544.38	8.615
544.58	8.862
544.77	8.159
544.97	8.984
545.16	8.038
545.36	9.134
545.56	8.095
545.75	8.636
545.95	7.934
546.14	9.092
546.34	7.435
546.53	8.986
546.73	7.904
546.92	8.591
547.12	8.591
547.31	9.301
547.51	8.266
547.70	9.214
547.90	8.087
548.09	8.984
548.29	7.938
548.48	9.104
548.68	8.432
548.87	9.568
549.07	8.364
549.26	9.251
549.46	8.405
549.65	9.572
549.84	8.314
550.04	9.162
550.23	7.644
550.43	8.781
550.62	8.215
550.82	8.500
551.01	7.460
551.21	9.086
551.40	8.064
551.60	8.957
551.79	8.504
551.99	8.657
552.18	8.288
552.38	8.847
552.57	8.567
552.77	9.175
552.96	8.120
553.16	10.106
553.35	8.529
553.54	9.778
553.74	9.292
553.93	10.518
554.13	9.239
554.32	9.966
554.52	9.239
554.71	10.233
554.91	8.987
555.10	9.497
555.29	8.815
555.49	10.822
555.68	8.570
555.88	10.081
556.07	8.618
556.27	9.425
556.46	9.824
556.66	9.578
556.85	9.904
557.04	9.805
557.24	9.043
557.43	9.851
557.63	9.431
557.82	10.052
558.02	9.459
558.21	11.189
558.40	9.032
558.60	10.627
558.79	10.289
558.99	10.584
559.18	9.277
559.38	10.671
559.57	9.971
559.76	10.867
559.96	10.374
560.15	10.863
560.35	10.124
560.54	9.979
560.73	9.715
560.93	11.263
561.12	10.150
561.32	11.412
561.51	10.152
561.70	11.251
561.90	10.651
562.09	11.991
562.29	10.726
562.48	11.810
562.67	10.601
562.87	12.474
563.06	10.641
563.26	12.109
563.45	11.255
563.64	12.522
563.84	11.452
564.03	12.466
564.23	11.634
564.42	12.840
564.61	11.636
564.81	12.635
565.00	11.705
565.20	13.196
565.39	12.078
565.58	12.907
565.78	12.263
565.97	13.364
566.16	13.212
566.36	13.939
566.55	13.130
566.74	13.221
566.94	12.761
567.13	13.292
567.33	13.224
567.52	13.899
567.71	12.931
567.91	14.617
568.10	13.701
568.29	13.900
568.49	13.185
568.68	14.016
568.87	14.244
569.07	15.066
569.26	13.376
569.45	14.620
569.65	14.360
569.84	15.119
570.04	14.313
570.23	14.659
570.42	14.381
570.62	14.599
570.81	14.957
571.00	15.305
571.20	14.069
571.39	15.127
571.58	14.998
571.78	15.966
571.97	15.075
572.16	14.924
572.36	14.839
572.55	15.508
572.74	15.018
572.94	15.018
573.13	15.108
573.32	15.859
573.51	15.198
573.71	15.932
573.90	14.992
574.09	15.999
574.29	15.288
574.48	15.532
574.67	15.453
574.87	15.437
575.06	14.857
575.25	14.956
575.45	14.785
575.64	15.709
575.83	14.885
576.03	16.606
576.22	16.037
576.41	16.667
576.60	15.181
576.80	15.699
576.99	15.081
577.18	16.113
577.38	14.890
577.57	16.139
577.76	15.798
577.95	15.553
578.15	14.418
578.34	16.809
578.53	15.158
578.73	15.459
578.92	13.997
579.11	16.942
579.30	15.227
579.50	16.582
579.69	14.886
579.88	15.686
580.08	13.522
580.27	15.192
580.46	14.845
580.65	15.128
580.85	14.521
581.04	15.370
581.23	16.078
581.42	15.631
581.62	14.211
581.81	16.235
582.00	14.394
582.19	14.793
582.39	14.561
582.58	15.521
582.77	14.957
582.96	14.153
583.16	14.045
583.35	14.619
583.54	14.240
583.73	14.053
583.93	13.930
584.12	14.631
584.31	14.090
584.50	15.418
584.70	13.703
584.89	15.059
585.08	14.194
585.27	15.839
585.47	13.662
585.66	14.580
585.85	13.480
586.04	14.117
586.24	13.820
586.43	13.357
586.62	13.943
586.81	16.393
587.00	12.638
587.20	15.264
587.39	13.711
587.58	15.802
587.77	13.442
587.97	13.419
588.16	14.033
588.35	14.759
588.54	12.798
588.73	14.319
588.93	15.309
589.12	14.609
589.31	12.498
589.50	14.681
589.69	14.303
589.89	15.120
590.08	13.238
590.27	13.051
590.46	13.662
590.65	15.266
590.85	12.776
591.04	14.721
591.23	13.771
591.42	14.543
591.61	13.121
591.81	14.796
592.00	13.629
592.19	14.589
592.38	12.759
592.57	14.594
592.77	14.192
592.96	13.309
593.15	13.846
593.34	14.416
593.53	13.485
593.72	14.096
593.92	13.382
594.11	15.203
594.30	13.064
594.49	15.206
594.68	14.164
594.87	14.825
595.07	14.165
595.26	14.845
595.45	13.598
595.64	15.455
595.83	13.711
596.02	15.202
596.22	14.053
596.41	15.209
596.60	14.187
596.79	15.209
596.98	14.342
597.17	16.800
597.37	14.994
597.56	16.245
597.75	14.962
597.94	16.403
598.13	15.976
598.32	15.153
598.51	15.184
598.71	15.840
598.90	14.857
599.09	16.352
599.28	14.630
599.47	16.707
599.66	15.404
599.85	16.163
600.05	14.601
600.24	16.146
600.43	13.785
600.62	16.837
600.81	14.529
601.00	16.376
601.19	14.053
601.38	15.901
601.58	15.585
601.77	16.227
601.96	14.283
602.15	16.247
602.34	13.572
602.53	16.207
602.72	14.475
602.91	15.582
603.10	15.313
603.30	16.163
603.49	14.097
603.68	16.334
603.87	14.339
604.06	16.680
604.25	16.463
604.44	17.256
604.63	15.207
604.82	16.759
605.01	16.786
605.21	17.668
605.40	16.428
605.59	17.218
605.78	16.685
605.97	17.842
606.16	16.214
606.35	16.759
606.54	15.859
606.73	16.933
606.92	16.103
607.11	17.165
607.30	15.466
607.50	16.835
607.69	15.182
607.88	15.520
608.07	14.032
608.26	15.700
608.45	16.056
608.64	17.065
608.83	14.711
609.02	15.880
609.21	15.354
609.40	16.739
609.59	14.901
609.78	15.188
609.97	14.564
610.16	16.506
610.35	15.885
610.55	15.762
610.74	15.833
610.93	16.715
611.12	16.264
611.31	15.007
611.50	14.944
611.69	15.978
611.88	15.129
612.07	15.850
612.26	12.267
612.45	14.986
612.64	13.295
612.83	15.906
613.02	13.733
613.21	13.927
613.40	12.250
613.59	14.911
613.78	11.832
613.97	13.891
614.16	12.404
614.35	14.847
614.54	11.228
614.73	13.660
614.92	11.348
615.11	12.269
615.30	10.939
615.49	10.772
615.68	12.197
615.87	10.897
616.07	11.435
616.26	11.717
616.45	11.336
616.64	13.936
616.83	11.871
617.02	13.618
617.21	10.523
617.40	12.296
617.59	11.556
617.78	12.847
617.97	10.697
618.16	10.629
618.35	8.907
618.54	11.749
618.73	11.075
618.92	12.203
619.11	10.381
619.30	13.025
619.49	9.099
619.68	12.631
619.86	9.572
620.05	11.217
620.24	9.377
620.43	11.248
620.62	8.019
620.81	11.325
621.00	10.833
621.19	13.197
621.38	9.699
621.57	11.891
621.76	9.859
621.95	12.263
622.14	9.930
622.33	12.331
622.52	9.694
622.71	11.487
622.90	9.058
623.09	11.174
623.28	10.859
623.47	11.531
623.66	9.740
623.85	11.679
624.04	10.674
624.23	10.987
624.42	10.524
624.61	9.385
624.80	7.888
624.99	10.625
625.18	8.652
625.36	10.728
625.55	10.795
625.74	11.233
625.93	8.106
626.12	11.244
626.31	10.837
626.50	11.620
626.69	11.138
626.88	12.342
627.07	10.550
627.26	10.802
627.45	10.356
627.64	11.964
627.83	9.744
628.02	11.099
628.20	9.519
628.39	11.983
628.58	10.269
628.77	11.292
628.96	9.274
629.15	10.612
629.34	10.575
629.53	10.105
629.72	8.300
629.91	12.890
630.10	10.607
630.29	9.461
630.47	8.750
630.66	10.017
630.85	9.686
631.04	10.514
631.23	9.312
631.42	9.433
631.61	7.732
631.80	12.190
631.99	9.699
632.18	9.668
632.36	8.067
632.55	10.777
632.74	8.435
632.93	9.246
633.12	9.480
633.31	9.402
633.50	9.445
633.69	10.800
633.88	7.803
634.06	9.939
634.25	8.664
634.44	9.156
634.63	8.448
634.82	10.602
635.01	8.095
635.20	9.421
635.39	8.995
635.57	8.837
635.76	9.907
635.95	9.463
636.14	7.151
636.33	10.642
636.52	7.866
636.71	9.747
636.89	8.451
637.08	10.774
637.27	8.477
637.46	8.157
637.65	8.256
637.84	9.082
638.03	7.360
638.21	10.129
638.40	9.595
638.59	8.972
638.78	7.070
638.97	8.649
639.16	9.713
639.34	7.850
639.53	7.217
639.72	9.516
639.91	7.318
640.10	8.067
640.29	8.167
640.47	9.232
640.66	9.547
640.85	10.175
641.04	7.834
641.23	8.272
641.42	7.483
641.60	8.103
641.79	8.669
641.98	7.135
642.17	7.965
642.36	9.146
642.54	8.932
642.73	6.730
642.92	5.694
643.11	8.033
643.30	6.369
643.49	7.125
643.67	5.274
643.86	8.144
644.05	5.914
644.24	7.103
644.43	7.269
644.61	8.088
644.80	7.117
644.99	6.731
645.18	9.083
645.37	7.879
645.55	6.211
645.74	8.572
645.93	7.246
646.12	8.660
646.31	5.926
646.49	7.050
646.68	6.677
646.87	7.476
647.06	5.431
647.24	7.001
647.43	5.323
647.62	8.782
647.81	6.339
648.00	6.226
648.18	5.201
648.37	8.677
648.56	6.627
648.75	7.262
648.93	5.918
649.12	7.075
649.31	6.971
649.50	6.449
649.68	5.884
649.87	6.474
650.06	5.641
650.25	6.746
650.43	5.368
650.62	6.481
650.81	6.573
651.00	7.000
651.18	5.623
651.37	8.616
651.56	6.193
651.75	8.960
651.93	6.350
652.12	6.835
652.31	5.874
652.50	6.676
652.68	6.417
652.87	8.401
653.06	8.531
653.25	8.348
653.43	7.208
653.62	6.859
653.81	6.292
654.00	9.004
654.18	5.270
654.37	7.901
654.56	7.390
654.74	6.261
654.93	6.162
655.12	5.649
655.31	5.888
655.49	7.838
655.68	5.590
655.87	5.534
656.05	6.781
656.24	5.481
656.43	3.139
656.62	7.897
656.80	5.865
656.99	5.127
657.18	3.275
657.36	5.625
657.55	7.063
657.74	5.487
657.93	8.544
658.11	7.252
658.30	6.414
658.49	4.298
658.67	5.903
658.86	5.713
659.05	5.905
659.23	7.187
659.42	5.179
659.61	5.264
659.79	5.669
659.98	5.449
660.17	5.602
660.35	6.156
660.54	5.446
660.73	7.955
660.91	6.899
661.10	6.270
661.29	5.534
661.47	5.524
661.66	6.466
661.85	6.416
662.03	6.143
662.22	3.472
662.41	3.030
662.59	5.331
662.78	3.220
662.97	3.601
663.15	4.352
663.34	3.448
663.53	2.948
663.71	5.085
663.90	3.821
664.09	4.870
664.27	4.069
664.46	4.281
664.65	4.258
664.83	4.173
665.02	2.450
665.21	3.872
665.39	3.680
665.58	4.104
665.77	4.607
665.95	4.854
666.14	4.007
666.32	5.073
666.51	3.516
666.70	3.285
666.88	5.791
667.07	3.474
667.26	3.507
667.44	4.053
667.63	3.483
667.81	3.351
668.00	5.465
668.19	5.740
668.37	4.315
668.56	3.712
668.75	4.481
668.93	4.961
669.12	4.267
669.30	4.802
669.49	3.152
669.68	2.968
669.86	3.979
670.05	2.739
670.23	2.687
670.42	2.452
670.61	4.374
670.79	3.015
670.98	6.047
671.16	5.062
671.35	5.012
671.54	2.526
671.72	3.147
671.91	4.864
672.09	3.401
672.28	5.398
672.46	5.261
672.65	5.303
672.84	6.449
673.02	3.948
673.21	3.194
673.39	4.353
673.58	4.826
673.77	5.027
673.95	4.549
674.14	5.180
674.32	3.097
674.51	6.677
674.69	5.940
674.88	4.788
675.07	4.118
675.25	6.441
675.44	5.761
675.62	4.921
675.81	4.580
675.99	7.304
676.18	5.614
676.36	4.177
676.55	4.518
676.74	4.852
676.92	6.672
677.11	6.257
677.29	4.922
677.48	5.016
677.66	7.443
677.85	3.428
678.03	4.300
678.22	6.559
678.40	4.849
678.59	4.986
678.78	3.934
678.96	5.035
679.15	4.781
679.33	4.501
679.52	5.267
679.70	4.815
679.89	4.054
680.07	5.734
680.26	3.399
680.44	3.705
680.63	4.817
680.81	4.042
681.00	4.617
681.18	6.604
681.37	4.680
681.55	6.687
681.74	6.610
681.92	6.183
682.11	5.077
682.29	4.734
682.48	5.094
682.66	6.970
682.85	4.211
683.03	5.433
683.22	6.296
683.40	6.899
683.59	6.057
683.77	5.185
683.96	5.780
684.14	7.834
684.33	4.198
684.51	7.490
684.70	5.759
684.88	7.650
685.07	7.591
685.25	7.621
685.44	5.514
685.62	8.446
685.81	6.263
685.99	6.629
686.18	5.449
686.36	7.065
686.55	4.960
686.73	6.815
686.92	8.562
687.10	9.364
687.29	7.920
687.47	6.772
687.65	8.327
687.84	7.899
688.02	10.107
688.21	8.867
688.39	6.432
688.58	10.404
688.76	8.017
688.95	6.738
689.13	7.583
689.32	9.660
689.50	8.248
689.68	7.816
689.87	7.939
690.05	8.741
690.24	11.257
690.42	9.787
690.61	11.562
690.79	9.444
690.98	8.997
691.16	11.064
691.34	8.763
691.53	11.365
691.71	10.221
691.90	11.019
692.08	8.694
692.27	11.814
692.45	14.374
692.63	12.472
692.82	12.797
693.00	14.143
693.19	10.440
693.37	12.945
693.56	13.875
693.74	15.263
693.92	12.816
694.11	14.312
694.29	12.821
694.48	17.321
694.66	14.083
694.84	16.698
695.03	12.075
695.21	19.545
695.40	21.393
695.58	17.955
695.76	15.550
695.95	18.953
696.13	16.659
696.32	18.960
696.50	25.093
696.68	21.109
696.87	16.293
697.05	20.403
697.24	20.696
697.42	24.852
697.60	22.232
697.79	24.440
697.97	20.641
698.16	27.689
698.34	22.888
698.52	28.400
698.71	26.459
698.89	28.423
699.07	26.326
699.26	26.873
699.44	26.986
699.63	31.187
699.81	26.570
699.99	30.507
700.18	28.458
700.36	30.395
700.54	29.007
700.73	30.060
700.91	28.948
701.09	31.211
701.28	30.142
701.46	33.370
701.64	29.839
701.83	31.669
702.01	27.942
702.20	33.304
702.38	29.606
702.56	30.218
702.75	28.145
702.93	31.079
703.11	28.558
703.30	32.599
703.48	31.757
703.66	31.688
703.85	31.669
704.03	35.368
704.21	35.033
704.40	34.861
704.58	33.333
704.76	35.326
704.95	32.432
705.13	36.158
705.31	31.087
705.50	32.941
705.68	31.031
705.86	39.238
706.04	29.034
706.23	36.130
706.41	33.966
706.59	36.398
706.78	32.530
706.96	37.628
707.14	36.160
707.33	39.260
707.51	33.699
707.69	41.496
707.88	36.165
708.06	37.412
708.24	36.445
708.42	41.230
708.61	36.471
708.79	39.085
708.97	35.443
709.16	38.248
709.34	36.720
709.52	38.889
709.71	40.054
709.89	39.232
710.07	35.680
710.25	39.514
710.44	36.585
710.62	40.440
710.80	42.334
710.98	42.757
711.17	39.288
711.35	42.822
711.53	41.108
711.72	41.000
711.90	38.299
712.08	41.633
712.26	42.134
712.45	42.560
712.63	39.484
712.81	44.071
712.99	40.668
713.18	43.525
713.36	37.041
713.54	40.815
713.72	39.005
713.91	41.697
714.09	38.557
714.27	43.481
714.45	40.219
714.64	41.649
714.82	38.550
715.00	41.314
715.18	39.400
715.37	42.728
715.55	41.255
715.73	43.338
715.91	43.057
716.10	43.972
716.28	39.616
716.46	41.305
716.64	38.770
716.83	42.273
717.01	40.559
717.19	41.467
717.37	41.769
717.55	41.318
717.74	41.739
717.92	40.402
718.10	40.159
718.28	40.902
718.47	37.434
718.65	43.188
718.83	39.460
719.01	41.591
719.19	40.090
719.38	39.545
719.56	37.824
719.74	42.732
719.92	36.803
720.10	41.911
720.29	33.704
720.47	40.231
720.65	38.773
720.83	39.779
721.01	39.290
721.20	38.784
721.38	39.596
721.56	43.317
721.74	39.736
721.92	48.499
722.11	39.350
722.29	46.260
722.47	42.189
722.65	44.909
722.83	40.998
723.01	46.101
723.20	41.578
723.38	44.653
723.56	42.140
723.74	43.916
723.92	41.594
724.10	41.773
724.29	38.838
724.47	43.111
724.65	39.405
724.83	46.276
725.01	38.017
725.19	45.222
725.38	44.156
725.56	46.171
725.74	43.212
725.92	49.436
726.10	39.545
726.28	44.848
726.46	45.784
726.65	42.606
726.83	40.973
727.01	43.188
727.19	42.656
727.37	49.028
727.55	43.172
727.73	42.403
727.92	45.347
728.10	46.252
728.28	38.889
728.46	46.159
728.64	44.332
728.82	45.295
729.00	41.890
729.19	50.000
729.37	46.552
729.55	46.879
729.73	43.061
729.91	49.894
730.09	46.144
730.27	48.033
730.45	41.218
730.63	43.906
730.82	41.321
731.00	47.082
731.18	43.946
731.36	45.079
731.54	42.126
731.72	47.022
731.90	43.742
732.08	44.872
732.26	47.933
732.45	47.661
732.63	49.468
732.81	51.594
732.99	45.284
733.17	51.243
733.35	45.134
733.53	47.787
733.71	46.877
733.89	46.658
734.07	47.901
734.25	53.620
734.44	51.775
734.62	47.389
734.80	48.143
734.98	53.775
735.16	51.934
735.34	50.178
735.52	50.736
735.70	50.472
735.88	52.142
736.06	49.814
736.24	55.637
736.42	54.695
736.60	51.489
736.78	54.752
736.97	45.288
737.15	52.762
737.33	48.560
737.51	52.192
737.69	52.584
737.87	51.823
738.05	52.884
738.23	57.007
738.41	52.698
738.59	58.512
738.77	52.946
738.95	58.809
739.13	50.962
739.31	51.102
739.49	54.785
739.67	57.327
739.85	53.360
740.03	56.128
740.21	52.366
740.39	54.625
740.57	53.698
740.75	54.128
740.93	47.050
741.11	54.983
741.30	53.522
741.48	53.802
741.66	50.836
741.84	56.395
742.02	52.735
742.20	57.460
742.38	55.136
742.56	58.070
742.74	62.218
742.92	59.789
743.10	51.862
743.28	61.063
743.46	61.142
743.64	53.432
743.82	57.380
744.00	58.598
744.18	55.566
744.36	52.800
744.54	57.312
744.72	56.607
744.90	60.361
745.08	54.151
745.26	57.659
745.44	58.567
745.62	56.294
745.80	61.507
745.98	53.473
746.16	60.118
746.34	55.130
746.52	57.787
746.70	53.288
746.87	60.923
747.05	60.000
747.23	62.372
747.41	58.936
747.59	60.081
747.77	52.309
747.95	56.231
748.13	57.497
748.31	57.156
748.49	56.024
748.67	60.630
748.85	56.804
749.03	60.400
749.21	60.763
749.39	63.190
749.57	57.115
749.75	55.230
749.93	62.048
750.11	59.378
750.29	58.991
750.47	59.779
750.65	56.293
750.83	63.208
751.01	55.678
751.18	63.636
751.36	54.012
751.54	60.305
751.72	56.743
751.90	56.686
752.08	57.498
752.26	62.165
752.44	55.207
752.62	57.822
752.80	55.441
752.98	65.057
753.16	57.600
753.34	51.354
753.52	53.613
753.69	60.210
753.87	53.206
754.05	61.570
754.23	57.290
754.41	57.353
754.59	57.833
754.77	56.957
754.95	59.710
755.13	63.466
755.31	56.478
755.49	59.387
755.66	56.999
755.84	58.721
756.02	55.909
756.20	64.623
756.38	58.873
756.56	56.159
756.74	60.259
756.92	60.591
757.10	60.718
757.28	62.010
757.45	62.434
757.63	61.758
757.81	56.706
757.99	57.840
758.17	60.981
758.35	60.570
758.53	57.869
758.71	53.172
758.88	57.390
759.06	58.881
759.24	48.030
759.42	51.961
759.60	52.148
759.78	49.499
759.96	40.000
760.13	43.038
760.31	39.316
760.49	40.506
760.67	32.392
760.85	37.285
761.03	35.412
761.21	36.277
761.38	31.752
761.56	39.179
761.74	37.214
761.92	38.252
762.10	29.730
762.28	41.193
762.46	31.296
762.63	33.577
762.81	34.183
762.99	36.971
763.17	33.468
763.35	37.202
763.53	31.744
763.70	40.773
763.88	37.654
764.06	39.272
764.24	36.528
764.42	38.047
764.60	37.582
764.77	42.236
764.95	38.398
765.13	43.303
765.31	39.081
765.49	40.141
765.66	43.526
765.84	41.969
766.02	43.801
766.20	44.848
766.38	44.614
766.56	46.599
766.73	48.446
766.91	48.279
767.09	45.878
767.27	48.849
767.45	46.861
767.62	54.314
767.80	48.976
767.98	53.327
768.16	49.013
768.33	55.892
768.51	56.316
768.69	62.314
768.87	54.093
769.05	56.192
769.22	54.024
769.40	58.597
769.58	56.398
769.76	57.875
769.94	59.512
770.11	53.892
770.29	59.328
770.47	54.367
770.65	55.206
770.82	57.974
771.00	60.078
771.18	62.073
771.36	57.812
771.53	56.265
771.71	51.842
771.89	61.088
772.07	63.115
772.25	65.884
772.42	56.693
772.60	68.135
772.78	63.280
772.96	57.727
773.13	61.538
773.31	56.586
773.49	59.071
773.67	62.481
773.84	60.807
774.02	58.815
774.20	53.723
774.37	56.467
774.55	58.273
774.73	58.255
774.91	59.484
775.08	58.466
775.26	60.673
775.44	59.218
775.62	61.848
775.79	47.633
775.97	59.692
776.15	57.670
776.32	61.171
776.50	69.922
776.68	64.399
776.86	59.783
777.03	62.184
777.21	63.265
777.39	65.893
777.56	62.754
777.74	55.120
777.92	56.328
778.10	50.482
778.27	63.566
778.45	54.033
778.63	68.246
778.80	54.299
778.98	55.207
779.16	64.992
779.34	58.345
779.51	52.301
779.69	58.444
779.87	58.833
780.04	59.014
780.22	55.294
780.40	55.949
780.57	56.300
780.75	53.911
780.93	56.829
781.10	68.366
781.28	63.262
781.46	60.498
781.63	55.372
781.81	57.669
781.99	51.316
782.16	50.993
782.34	57.239
782.52	57.327
782.69	50.299
782.87	61.993
783.05	58.206
783.22	59.464
783.40	58.044
783.58	59.445
783.75	49.141
783.93	60.033
784.11	55.888
784.28	65.571
784.46	60.494
784.64	61.071
784.81	58.423
784.99	58.615
785.17	67.961
785.34	59.431
785.52	51.810
785.69	43.502
785.87	55.866
786.05	61.250
786.22	61.509
786.40	68.066
786.58	57.718
786.75	62.107
786.93	58.803
787.11	52.972
787.28	62.887
787.46	59.567
787.63	53.529
787.81	54.463
787.99	55.360
788.16	61.803
788.34	40.514
788.51	53.149
788.69	40.630
788.87	51.497
789.04	52.352
789.22	45.573
789.39	44.646
789.57	51.652
789.75	46.116
789.92	49.558
790.10	47.920
790.27	52.143
790.45	45.182
790.63	49.920
790.80	45.307
790.98	49.120
791.15	54.193
791.33	55.465
791.51	48.369
791.68	49.192
791.86	54.087
792.03	49.744
792.21	51.287
792.39	52.305
792.56	49.215
792.74	56.711
792.91	48.519
793.09	53.427
793.26	51.572
793.44	51.613
793.62	52.362
793.79	46.521
793.97	57.700
794.14	47.776
794.32	53.012
794.49	55.595
794.67	45.325
794.84	44.444
795.02	56.900
795.20	45.936
795.37	49.400
795.55	49.367
795.72	42.537
795.90	54.581
796.07	55.357
796.25	57.685
796.42	55.594
796.60	45.075
796.77	52.135
796.95	54.973
797.13	41.565
797.30	52.688
797.48	43.493
797.65	44.944
797.83	45.115
798.00	53.545
798.18	40.625
798.35	50.690
798.53	52.621
798.70	47.965
798.88	47.619
799.05	51.515
799.23	42.987
799.40	45.018
799.58	55.304
799.75	48.342
799.93	46.272
800.10	56.203
800.28	45.756
800.45	45.674
800.63	32.510
800.80	50.719
800.98	52.552
801.15	46.390
801.33	53.295
801.50	44.444
801.68	41.304
801.85	50.386
802.03	48.898
802.20	52.525
802.38	51.498
802.55	48.133
802.73	47.592
802.90	44.242
803.08	46.139
803.25	53.908
803.43	45.287
803.60	54.305
803.78	44.204
803.95	42.424
804.13	50.573
804.30	49.441
804.48	41.048
804.65	53.708
804.83	46.680
805.00	47.461
805.17	53.092
805.35	44.199
805.52	41.752
805.70	50.622
805.87	46.947
806.05	52.008
806.22	46.042
806.40	44.612
806.57	50.000
806.75	50.820
806.92	53.292
807.09	54.947
807.27	50.204
807.44	44.597
807.62	47.338
807.79	45.047
807.97	39.400
808.14	46.154
808.31	51.316
808.49	53.428
808.66	51.358
808.84	40.040
809.01	44.138
809.19	36.150
809.36	49.269
809.53	48.055
809.71	43.803
809.88	42.404
810.06	42.451
810.23	48.330
810.41	48.008
810.58	58.252
810.75	45.000
810.93	37.443
811.10	50.873
811.28	37.753
811.45	44.110
811.62	35.550
811.80	39.950
811.97	53.769
812.15	50.569
812.32	42.932
812.49	57.740
812.67	38.902
812.84	47.356
813.02	46.825
813.19	42.857
813.36	42.818
813.54	36.776
813.71	33.505
813.89	34.974
814.06	42.857
814.23	43.529
814.41	37.626
814.58	42.975
814.75	43.052
814.93	43.069
815.10	46.419
815.28	44.279
815.45	38.173
815.62	31.609
815.80	33.333
815.97	30.750
816.14	30.239
816.32	39.535
816.49	34.037
816.66	25.067
816.84	25.968
817.01	35.421
817.18	30.809
817.36	36.247
817.53	44.660
817.71	38.560
817.88	36.111
818.05	42.889
818.23	34.307
818.40	29.067
818.57	40.319
818.75	33.474
818.92	38.847
819.09	28.967
819.27	30.000
819.44	16.865
819.61	28.637
819.79	34.228
819.96	25.114
820.13	39.357
820.31	38.179
820.48	39.715
820.65	34.679
820.82	39.548
821.00	38.937
821.17	26.339
821.34	37.500
821.52	32.587
821.69	34.074
821.86	27.343
822.04	33.764
822.21	35.714
822.38	35.638
822.56	29.841
822.73	38.590
822.90	37.067
823.07	38.929
823.25	34.686
823.42	39.184
823.59	36.343
823.77	40.343
823.94	37.032
824.11	40.365
824.29	33.881
824.46	37.495
824.63	38.040
824.80	35.474
824.98	34.648
825.15	38.876
825.32	32.835
825.49	36.352
825.67	33.452
825.84	35.281
826.01	30.667
826.19	38.917
826.36	32.130
826.53	32.887
826.70	28.230
826.88	36.493
827.05	30.488
827.22	29.492
827.39	32.049
827.57	34.211
827.74	31.117
827.91	37.043
828.08	32.449
828.26	39.873
828.43	32.413
828.60	38.455
828.77	30.894
828.95	32.842
829.12	30.662
829.29	29.108
829.46	31.810
829.64	29.618
829.81	28.717
829.98	32.836
830.15	29.514
830.32	31.234
830.50	21.512
830.67	37.748
830.84	29.710
831.01	29.204
831.19	33.519
831.36	30.279
831.53	36.099
831.70	45.287
831.87	36.017
832.05	41.121
832.22	51.778
832.39	37.589
832.56	36.148
832.74	33.180
832.91	35.411
833.08	37.607
833.25	35.468
833.42	34.238
833.60	33.091
833.77	29.861
833.94	27.636
834.11	30.429
834.28	27.228
834.45	32.117
834.63	28.989
834.80	28.246
834.97	33.221
835.14	30.145
835.31	28.783
835.49	33.333
835.66	25.000
835.83	30.986
836.00	30.314
836.17	35.796
836.34	35.286
836.52	30.521
836.69	32.810
836.86	32.914
837.03	35.028
837.20	31.852
837.37	34.843
837.55	36.875
837.72	27.790
837.89	34.848
838.06	51.143
838.23	44.118
838.40	35.542
838.58	38.329
838.75	37.954
838.92	54.799
839.09	33.677
839.26	61.056
839.43	54.266
839.60	45.045
839.78	55.844
839.95	47.956
840.12	43.686
840.29	48.475
840.46	47.853
840.63	61.129
840.80	40.453
840.98	48.077
841.15	47.500
841.32	38.485
841.49	43.137
841.66	51.646
841.83	51.553
842.00	43.189
842.17	53.409
842.34	28.716
842.52	50.000
842.69	28.814
842.86	53.101
843.03	52.399
843.20	47.126
843.37	61.255
843.54	39.326
843.71	64.286
843.88	62.222
844.06	53.200
844.23	41.429
844.40	76.889
844.57	70.166
844.74	65.854
844.91	45.411
845.08	84.091
845.25	57.488
845.42	63.441
845.59	53.684
845.76	68.718
845.94	87.624
846.11	76.027
846.28	55.952
846.45	89.326
846.62	81.818
846.79	80.822
846.96	50.617
847.13	69.767
847.30	82.069
847.47	51.799
847.64	102.326
847.81	98.305
847.98	69.849
848.15	78.832
848.32	108.805
848.50	97.006
848.67	61.494
848.84	69.178
849.01	75.978
849.18	63.402
849.35	76.562
849.52	39.655
849.69	76.159
849.86	70.068
850.03	73.134
850.20	98.246
850.37	64.706
850.54	66.480
850.71	56.291
850.88	64.804
851.05	88.136
851.22	73.596
851.39	92.793
851.56	68.750
851.73	67.925
851.90	70.186
852.07	114.286
852.24	80.921
852.41	50.476
852.58	100.704
852.75	50.575
852.92	54.634
853.09	90.625
853.26	62.963
853.43	67.925
853.60	40.449
853.77	110.127
853.94	92.701
854.11	74.126
854.28	94.400
854.45	39.062
854.62	65.482
854.79	98.039
854.96	105.600
855.13	72.515
855.30	135.714
855.47	78.448
855.64	61.654
855.81	60.753
855.98	40.476
856.15	81.982
856.32	50.314
856.49	79.845
856.66	60.140
856.83	82.576
857.00	48.366
857.17	83.846
857.34	9.474
857.51	79.137
857.68	82.162
857.85	60.227
858.02	67.407
858.19	72.072
858.36	80.000
858.53	50.968
858.70	65.269
858.87	87.342
859.04	63.710
859.21	60.135
859.38	58.772
859.55	110.448
859.72	116.092
859.89	81.295
860.05	71.171
860.22	66.492
860.39	110.714
860.56	87.786
860.73	103.252
860.90	89.908
861.07	73.026
861.24	49.342
861.41	92.593
861.58	76.042
861.75	57.778
861.92	76.974
862.09	66.667
862.26	68.376
862.43	140.594
862.59	97.059
862.76	59.441
862.93	60.674
863.10	88.571
863.27	70.940
863.44	133.333
863.61	51.825
863.78	79.429
863.95	90.196
864.12	65.517
864.29	59.829
864.45	100.000
864.62	55.367
864.79	62.016
864.96	65.854
865.13	26.126
865.30	92.547
865.47	76.829
865.64	74.820
865.81	80.153
865.97	104.000
866.14	57.823
866.31	66.667
866.48	67.550
866.65	51.282
866.82	72.152
866.99	95.726
867.16	87.218
867.33	86.022
867.49	76.543
867.66	96.907
867.83	118.898
868.00	82.877
868.17	80.992
868.34	87.719
868.51	95.238
868.67	79.747
868.84	35.833
869.01	106.400
869.18	70.922
869.35	70.543
869.52	68.254
869.69	73.288
869.85	69.159
870.02	70.192
870.19	61.017
870.36	74.483
870.53	40.714
870.70	90.566
870.86	67.000
871.03	74.074
871.20	87.156
871.37	93.103
871.54	87.838
871.71	56.429
871.87	79.874
872.04	49.143
872.21	75.652
872.38	76.423
872.55	64.198
872.72	87.500
872.88	70.391
873.05	103.448
873.22	81.633
873.39	66.327
873.56	86.391
873.72	62.941
873.89	57.764
874.06	68.657
874.23	86.441
874.40	32.000
874.56	77.895
874.73	95.122
874.90	90.678
875.07	49.286
875.24	78.882
875.40	100.000
875.57	92.661
875.74	100.000
875.91	66.972
876.08	91.304
876.24	40.698
876.41	108.000
876.58	81.915
876.75	67.376
876.92	52.941
877.08	75.000
877.25	48.696
877.42	81.250
877.59	69.388
877.75	54.000
877.92	34.524
878.09	48.958
878.26	49.102
878.42	60.625
878.59	80.000
878.76	76.316
878.93	43.284
879.09	11.111
879.26	75.000
879.43	55.676
879.60	48.252
879.76	49.432
879.93	56.667
880.10	42.000
880.27	53.416
880.43	57.542
880.60	28.767
880.77	36.932
880.94	18.905
881.10	29.499
881.27	35.082
881.44	21.813
881.61	34.305
881.77	29.446
881.94	20.710
882.11	14.965
882.28	22.492
882.44	19.972
882.61	28.833
882.78	22.682
882.94	27.453
883.11	28.900
883.28	21.671
883.45	24.528
883.61	23.992
883.78	20.141
883.95	25.939
884.11	25.543
884.28	25.258
>>>>>End Processed Spectral Data<<<<<
