SpectraSuite Data File
++++++++++++++++++++++++++++++++++++
Date: Sat Sep 21 03:35:04 EST 2019
User: sgrac
Dark Spectrum Present: Yes
Reference Spectrum Present: Yes
Number of Sampled Component Spectra: 1
Spectrometers: USB4E01596
Integration Time (usec): 100000 (USB4E01596)
Spectra Averaged: 1 (USB4E01596)
Boxcar Smoothing: 0 (USB4E01596)
Correct for Electrical Dark: No (USB4E01596)
Strobe/Lamp Enabled: Yes (USB4E01596)
Correct for Detector Non-linearity: No (USB4E01596)
Correct for Stray Light: No (USB4E01596)
Number of Pixels in Processed Spectrum: 3648
>>>>>Begin Processed Spectral Data<<<<<
178.44	-428.571
178.66	-428.571
178.87	-428.571
179.09	-285.714
179.30	-369.231
179.52	0.000
179.74	-1825.000
179.95	1233.333
180.17	373.333
180.38	8500.000
180.60	0.000
180.82	616.667
181.03	-436.842
181.25	326.087
181.46	-116.129
181.68	345.833
181.89	6600.000
182.11	325.714
182.33	-217.778
182.54	-256.250
182.76	-4600.000
182.97	560.000
183.19	2750.000
183.40	179.310
183.62	-37.037
183.84	-251.852
184.05	282.609
184.27	525.000
184.48	1257.143
184.70	210.000
184.91	-486.667
185.13	166.667
185.34	-153.571
185.56	128.333
185.78	0.000
185.99	660.000
186.21	237.931
186.42	413.333
186.64	116.129
186.85	251.852
187.07	143.636
187.28	40.000
187.50	-240.000
187.72	1620.000
187.93	-9600.000
188.15	186.000
188.36	-200.000
188.58	-3150.000
188.79	181.818
189.01	325.000
189.22	2160.000
189.44	1650.000
189.65	226.667
189.87	1050.000
190.09	-1380.000
190.30	618.750
190.52	-2250.000
190.73	205.357
190.95	235.714
191.16	242.222
191.38	700.000
191.59	133.333
191.81	230.556
192.02	191.489
192.24	511.765
192.45	-1340.000
192.67	360.000
192.88	341.667
193.10	280.000
193.31	385.000
193.53	-10500.000
193.74	95.122
193.96	487.500
194.18	235.484
194.39	-400.000
194.61	563.158
194.82	566.667
195.04	145.238
195.25	2600.000
195.47	282.927
195.68	229.787
195.90	680.000
196.11	192.727
196.33	134.043
196.54	-2566.667
196.76	253.571
196.97	-2800.000
197.19	314.286
197.40	247.059
197.62	146.875
197.83	164.865
198.05	-421.053
198.26	302.857
198.48	213.889
198.69	206.977
198.91	135.294
199.12	-182.857
199.34	-1700.000
199.55	5900.000
199.77	1250.000
199.98	344.000
200.20	92.958
200.41	542.857
200.63	-688.889
200.84	115.686
201.06	430.769
201.27	162.162
201.49	700.000
201.70	344.444
201.91	171.739
202.13	124.638
202.34	237.736
202.56	-457.143
202.77	500.000
202.99	410.714
203.20	2100.000
203.42	475.000
203.63	193.023
203.85	122.857
204.06	305.556
204.28	-490.000
204.49	305.714
204.71	207.692
204.92	0.000
205.14	-392.857
205.35	316.667
205.56	-1740.000
205.78	390.476
205.99	630.000
206.21	-87.097
206.42	245.161
206.64	353.571
206.85	2450.000
207.07	-423.077
207.28	514.286
207.50	-452.632
207.71	205.128
207.93	120.455
208.14	482.353
208.35	278.947
208.57	-8800.000
208.78	761.538
209.00	483.333
209.21	-3350.000
209.43	275.862
209.64	147.059
209.86	900.000
210.07	0.000
210.28	-735.294
210.50	120.408
210.71	152.632
210.93	361.905
211.14	-100.000
211.36	-212.903
211.57	-95.238
211.78	-265.217
212.00	0.000
212.21	265.116
212.43	-363.636
212.64	113.793
212.86	-725.000
213.07	-95.455
213.29	178.947
213.50	5900.000
213.71	216.981
213.93	942.857
214.14	153.030
214.36	3900.000
214.57	261.538
214.78	400.000
215.00	2350.000
215.21	177.778
215.43	348.000
215.64	292.308
215.86	177.143
216.07	6300.000
216.28	152.000
216.50	-685.714
216.71	-1920.000
216.93	217.021
217.14	156.250
217.35	144.444
217.57	232.143
217.78	600.000
218.00	-190.000
218.21	342.105
218.42	-2933.333
218.64	441.176
218.85	-655.556
219.07	342.857
219.28	1300.000
219.49	90.789
219.71	566.667
219.92	230.556
220.14	287.500
220.35	470.000
220.56	138.462
220.78	311.765
220.99	-9100.000
221.21	333.333
221.42	375.000
221.63	282.500
221.85	180.645
222.06	253.571
222.28	231.818
222.49	-2750.000
222.70	0.000
222.92	283.333
223.13	230.000
223.34	-1650.000
223.56	71.053
223.77	83.146
223.99	302.564
224.20	59.524
224.41	221.622
224.63	269.444
224.84	148.276
225.05	214.286
225.27	178.571
225.48	95.652
225.69	714.286
225.91	48.148
226.12	233.333
226.34	104.902
226.55	140.741
226.76	154.839
226.98	140.000
227.19	36.364
227.40	98.347
227.62	100.000
227.83	79.000
228.04	85.714
228.26	70.297
228.47	101.724
228.69	36.842
228.90	60.563
229.11	62.222
229.33	35.266
229.54	28.289
229.75	32.609
229.97	25.322
230.18	31.900
230.39	29.536
230.61	28.931
230.82	54.772
231.03	-1.660
231.25	38.384
231.46	45.985
231.67	45.850
231.89	66.275
232.10	36.437
232.31	52.885
232.53	44.633
232.74	35.938
232.95	65.060
233.17	61.272
233.38	49.254
233.59	81.618
233.81	50.485
234.02	82.237
234.23	48.663
234.45	69.079
234.66	52.542
234.87	54.362
235.09	51.111
235.30	52.874
235.51	41.262
235.73	38.365
235.94	47.150
236.15	55.102
236.36	53.439
236.58	45.972
236.79	47.644
237.00	29.952
237.22	45.062
237.43	55.392
237.64	24.017
237.86	42.935
238.07	61.307
238.28	40.437
238.50	40.000
238.71	36.686
238.92	23.810
239.13	53.143
239.35	31.469
239.56	41.667
239.77	43.902
239.99	35.849
240.20	30.000
240.41	43.966
240.63	33.198
240.84	41.036
241.05	33.212
241.26	31.405
241.48	28.024
241.69	20.570
241.90	23.662
242.12	21.939
242.33	24.784
242.54	18.977
242.75	18.975
242.97	28.276
243.18	20.370
243.39	14.881
243.61	24.438
243.82	26.154
244.03	20.144
244.24	17.178
244.46	18.519
244.67	24.551
244.88	23.631
245.09	21.703
245.31	18.618
245.52	23.713
245.73	30.545
245.95	34.115
246.16	19.089
246.37	18.411
246.58	22.430
246.80	23.604
247.01	23.228
247.22	17.013
247.43	21.798
247.65	25.862
247.86	18.671
248.07	18.227
248.28	23.776
248.50	26.553
248.71	23.128
248.92	27.438
249.13	23.810
249.35	27.891
249.56	23.897
249.77	21.724
249.98	18.164
250.20	20.111
250.41	28.045
250.62	24.578
250.83	19.735
251.05	23.596
251.26	13.067
251.47	25.946
251.68	32.176
251.90	18.478
252.11	20.906
252.32	21.754
252.53	29.984
252.75	16.000
252.96	26.442
253.17	19.140
253.38	20.000
253.59	13.983
253.81	19.204
254.02	15.837
254.23	27.431
254.44	18.995
254.66	17.355
254.87	24.007
255.08	20.147
255.29	26.707
255.50	19.355
255.72	26.835
255.93	22.384
256.14	33.636
256.35	20.375
256.57	32.283
256.78	23.744
256.99	21.466
257.20	15.049
257.41	32.505
257.63	19.632
257.84	32.158
258.05	17.292
258.26	24.505
258.47	21.467
258.69	24.877
258.90	11.025
259.11	18.097
259.32	14.770
259.53	16.488
259.75	8.087
259.96	11.259
260.17	12.478
260.38	16.748
260.59	19.630
260.81	19.732
261.02	21.415
261.23	24.404
261.44	19.836
261.65	20.610
261.87	19.636
262.08	22.943
262.29	24.094
262.50	21.234
262.71	15.763
262.92	21.555
263.14	18.250
263.35	13.842
263.56	16.235
263.77	18.656
263.98	16.799
264.20	22.798
264.41	12.431
264.62	19.003
264.83	14.689
265.04	24.268
265.25	15.262
265.47	21.601
265.68	18.076
265.89	14.476
266.10	14.309
266.31	21.337
266.52	18.585
266.74	10.654
266.95	7.199
267.16	18.943
267.37	17.500
267.58	8.095
267.79	11.457
268.01	14.396
268.22	18.563
268.43	13.505
268.64	21.361
268.85	12.380
269.06	10.858
269.27	21.053
269.49	17.672
269.70	15.600
269.91	20.918
270.12	16.062
270.33	18.757
270.54	16.942
270.75	10.760
270.97	19.342
271.18	14.154
271.39	15.182
271.60	14.387
271.81	11.027
272.02	17.442
272.23	19.021
272.45	18.884
272.66	12.801
272.87	12.201
273.08	17.884
273.29	19.717
273.50	18.435
273.71	17.097
273.92	14.351
274.14	15.088
274.35	18.381
274.56	17.901
274.77	17.972
274.98	15.561
275.19	14.032
275.40	14.015
275.61	10.663
275.83	19.324
276.04	15.667
276.25	16.765
276.46	17.753
276.67	21.561
276.88	21.923
277.09	13.380
277.30	22.973
277.51	17.593
277.73	15.000
277.94	10.797
278.15	10.983
278.36	16.413
278.57	16.906
278.78	21.800
278.99	16.780
279.20	14.347
279.41	20.833
279.62	14.850
279.84	14.002
280.05	15.751
280.26	10.870
280.47	19.859
280.68	10.044
280.89	16.635
281.10	15.331
281.31	12.738
281.52	22.015
281.73	15.634
281.94	13.000
282.16	12.387
282.37	16.681
282.58	13.411
282.79	21.243
283.00	22.556
283.21	13.387
283.42	14.099
283.63	12.218
283.84	13.801
284.05	15.422
284.26	16.239
284.47	16.016
284.68	17.444
284.89	14.996
285.11	13.825
285.32	14.167
285.53	11.898
285.74	23.628
285.95	15.822
286.16	17.593
286.37	13.672
286.58	15.839
286.79	17.947
287.00	19.039
287.21	12.100
287.42	18.639
287.63	13.974
287.84	18.931
288.05	16.404
288.26	15.352
288.48	19.025
288.69	12.903
288.90	10.438
289.11	19.446
289.32	17.914
289.53	15.396
289.74	7.000
289.95	11.513
290.16	21.724
290.37	13.652
290.58	11.769
290.79	12.332
291.00	13.269
291.21	10.086
291.42	14.616
291.63	14.457
291.84	17.350
292.05	14.987
292.26	13.004
292.47	13.346
292.68	12.466
292.89	13.421
293.10	16.277
293.31	19.336
293.52	9.153
293.73	12.530
293.94	12.436
294.15	11.648
294.36	8.638
294.57	14.155
294.79	15.749
295.00	10.122
295.21	14.511
295.42	15.518
295.63	15.774
295.84	12.422
296.05	9.510
296.26	11.902
296.47	13.777
296.68	14.991
296.89	16.058
297.10	18.746
297.31	14.098
297.52	14.067
297.73	14.712
297.94	18.347
298.15	14.777
298.36	16.746
298.57	14.183
298.78	19.638
298.99	12.597
299.20	15.465
299.41	16.701
299.62	17.728
299.83	11.470
300.04	16.791
300.25	15.508
300.46	17.266
300.67	15.608
300.88	15.796
301.09	8.521
301.30	18.682
301.50	12.703
301.71	19.497
301.92	15.976
302.13	12.284
302.34	12.965
302.55	10.554
302.76	13.136
302.97	19.972
303.18	13.679
303.39	11.041
303.60	9.540
303.81	15.352
304.02	6.777
304.23	10.692
304.44	9.230
304.65	9.637
304.86	14.149
305.07	13.607
305.28	10.052
305.49	15.003
305.70	11.403
305.91	13.588
306.12	11.942
306.33	12.111
306.54	12.839
306.75	12.526
306.96	17.324
307.17	12.716
307.38	10.229
307.58	8.659
307.79	14.882
308.00	12.066
308.21	12.500
308.42	13.657
308.63	11.900
308.84	12.079
309.05	11.293
309.26	9.291
309.47	14.515
309.68	11.761
309.89	15.461
310.10	12.781
310.31	11.277
310.52	8.904
310.73	15.352
310.94	8.917
311.14	8.329
311.35	10.646
311.56	9.468
311.77	10.370
311.98	8.862
312.19	13.913
312.40	8.814
312.61	12.865
312.82	10.430
313.03	11.684
313.24	10.866
313.45	14.261
313.66	11.395
313.86	15.150
314.07	11.618
314.28	12.353
314.49	10.728
314.70	11.285
314.91	14.856
315.12	14.519
315.33	12.659
315.54	9.753
315.75	9.926
315.96	9.490
316.16	8.690
316.37	13.973
316.58	11.297
316.79	9.730
317.00	13.379
317.21	10.807
317.42	9.331
317.63	14.255
317.84	10.360
318.05	12.885
318.25	12.518
318.46	10.817
318.67	7.375
318.88	12.953
319.09	11.103
319.30	10.251
319.51	9.503
319.72	12.675
319.93	9.647
320.13	11.810
320.34	11.915
320.55	10.059
320.76	13.788
320.97	13.653
321.18	13.943
321.39	11.595
321.60	11.135
321.80	15.135
322.01	11.685
322.22	8.567
322.43	6.556
322.64	8.263
322.85	8.212
323.06	14.184
323.27	9.900
323.47	13.850
323.68	9.520
323.89	11.236
324.10	12.000
324.31	11.081
324.52	11.818
324.73	13.052
324.93	9.872
325.14	10.579
325.35	12.225
325.56	12.974
325.77	12.584
325.98	12.351
326.19	13.135
326.39	7.601
326.60	10.629
326.81	10.757
327.02	8.881
327.23	9.800
327.44	17.217
327.64	8.514
327.85	8.333
328.06	14.260
328.27	18.614
328.48	15.860
328.69	10.150
328.90	12.253
329.10	10.352
329.31	10.292
329.52	10.695
329.73	17.130
329.94	8.518
330.15	9.813
330.35	14.564
330.56	10.067
330.77	9.057
330.98	13.432
331.19	12.747
331.39	10.641
331.60	11.026
331.81	12.466
332.02	20.080
332.23	12.197
332.44	7.784
332.64	15.231
332.85	10.087
333.06	14.794
333.27	7.908
333.48	12.627
333.68	10.432
333.89	11.419
334.10	5.981
334.31	13.536
334.52	15.212
334.72	13.515
334.93	11.368
335.14	12.785
335.35	11.930
335.56	15.642
335.76	9.704
335.97	18.171
336.18	11.496
336.39	16.720
336.60	15.873
336.80	12.477
337.01	12.139
337.22	10.106
337.43	14.451
337.64	19.605
337.84	14.774
338.05	13.580
338.26	18.525
338.47	20.083
338.68	9.311
338.88	16.726
339.09	14.132
339.30	15.718
339.51	15.665
339.71	19.200
339.92	12.399
340.13	16.514
340.34	16.954
340.55	20.669
340.75	15.394
340.96	11.118
341.17	20.171
341.38	15.910
341.58	13.920
341.79	17.160
342.00	14.353
342.21	17.613
342.41	11.158
342.62	18.586
342.83	19.866
343.04	12.664
343.24	20.598
343.45	20.517
343.66	16.256
343.87	24.778
344.07	14.856
344.28	23.596
344.49	21.917
344.70	24.669
344.90	17.863
345.11	20.943
345.32	18.562
345.53	21.097
345.73	20.131
345.94	26.929
346.15	25.077
346.36	24.772
346.56	24.914
346.77	29.183
346.98	25.615
347.19	27.170
347.39	22.908
347.60	24.367
347.81	24.034
348.02	26.136
348.22	16.765
348.43	26.699
348.64	18.949
348.84	28.194
349.05	24.887
349.26	29.500
349.47	16.901
349.67	22.192
349.88	29.549
350.09	24.155
350.30	26.600
350.50	27.431
350.71	26.488
350.92	29.227
351.12	22.862
351.33	26.168
351.54	24.093
351.74	28.000
351.95	21.083
352.16	29.589
352.37	29.279
352.57	26.284
352.78	20.956
352.99	30.065
353.19	21.514
353.40	25.413
353.61	29.369
353.82	27.612
354.02	26.635
354.23	28.245
354.44	28.717
354.64	28.571
354.85	27.277
355.06	30.465
355.26	22.521
355.47	30.050
355.68	30.389
355.88	32.688
356.09	30.122
356.30	27.716
356.51	28.007
356.71	31.913
356.92	23.642
357.13	30.214
357.33	30.360
357.54	28.691
357.75	25.194
357.95	31.158
358.16	25.846
358.37	36.720
358.57	28.172
358.78	36.810
358.99	27.369
359.19	30.845
359.40	32.780
359.61	32.859
359.81	33.653
360.02	32.097
360.23	26.566
360.43	28.352
360.64	27.504
360.85	30.957
361.05	26.150
361.26	33.783
361.47	29.040
361.67	34.473
361.88	26.881
362.09	34.897
362.29	27.377
362.50	31.858
362.70	28.380
362.91	35.065
363.12	31.296
363.32	34.557
363.53	32.790
363.74	35.881
363.94	29.841
364.15	33.737
364.36	31.086
364.56	29.973
364.77	30.818
364.98	33.761
365.18	28.019
365.39	34.051
365.59	27.657
365.80	29.835
366.01	28.919
366.21	28.598
366.42	24.555
366.63	32.148
366.83	28.205
367.04	24.572
367.24	31.424
367.45	27.873
367.66	26.022
367.86	30.867
368.07	26.796
368.28	26.117
368.48	25.924
368.69	24.952
368.89	23.797
369.10	30.719
369.31	24.234
369.51	28.999
369.72	27.941
369.92	28.695
370.13	20.523
370.34	27.484
370.54	18.362
370.75	30.342
370.95	22.881
371.16	26.595
371.37	24.660
371.57	28.025
371.78	26.496
371.98	28.911
372.19	27.542
372.40	29.103
372.60	27.513
372.81	31.687
373.01	21.730
373.22	27.560
373.43	27.980
373.63	30.923
373.84	24.778
374.04	28.349
374.25	26.782
374.46	27.380
374.66	25.815
374.87	25.387
375.07	19.335
375.28	25.099
375.48	24.844
375.69	28.926
375.90	20.143
376.10	24.249
376.31	24.884
376.51	25.778
376.72	24.500
376.92	22.902
377.13	26.381
377.34	30.026
377.54	25.993
377.75	29.140
377.95	24.487
378.16	28.616
378.36	28.101
378.57	30.776
378.77	25.820
378.98	29.046
379.19	26.897
379.39	25.205
379.60	25.842
379.80	28.690
380.01	25.774
380.21	25.494
380.42	22.641
380.62	23.465
380.83	27.349
381.04	24.748
381.24	24.855
381.45	24.458
381.65	23.239
381.86	26.771
382.06	26.134
382.27	21.786
382.47	21.445
382.68	27.993
382.88	21.014
383.09	24.009
383.29	22.042
383.50	28.110
383.71	22.399
383.91	25.314
384.12	20.428
384.32	26.394
384.53	24.040
384.73	21.777
384.94	21.522
385.14	25.869
385.35	22.209
385.55	25.785
385.76	21.490
385.96	25.330
386.17	24.486
386.37	26.631
386.58	23.312
386.78	26.301
386.99	21.650
387.19	26.458
387.40	21.593
387.60	27.218
387.81	23.475
388.01	25.169
388.22	24.906
388.42	26.544
388.63	24.182
388.83	28.393
389.04	21.021
389.24	26.194
389.45	22.350
389.65	26.641
389.86	22.818
390.06	23.995
390.27	22.108
390.47	25.442
390.68	21.946
390.88	27.064
391.09	24.316
391.29	26.330
391.50	23.250
391.70	25.339
391.91	22.755
392.11	23.983
392.32	23.551
392.52	27.154
392.73	23.974
392.93	25.193
393.14	24.516
393.34	26.068
393.55	24.706
393.75	26.158
393.95	22.989
394.16	25.944
394.36	24.975
394.57	26.734
394.77	23.557
394.98	24.806
395.18	24.914
395.39	25.012
395.59	23.444
395.80	25.545
396.00	23.457
396.21	27.436
396.41	23.075
396.61	26.166
396.82	24.156
397.02	27.346
397.23	23.426
397.43	23.360
397.64	20.257
397.84	25.259
398.05	20.753
398.25	23.549
398.45	21.483
398.66	26.606
398.86	24.060
399.07	25.409
399.27	20.884
399.48	25.877
399.68	22.486
399.89	23.609
400.09	22.863
400.29	23.233
400.50	22.409
400.70	25.026
400.91	20.554
401.11	23.760
401.32	23.089
401.52	21.558
401.72	21.214
401.93	25.299
402.13	21.341
402.34	22.873
402.54	20.166
402.75	25.920
402.95	18.809
403.15	26.021
403.36	18.021
403.56	23.006
403.77	20.253
403.97	23.494
404.17	19.595
404.38	24.459
404.58	21.040
404.79	23.945
404.99	22.633
405.19	23.486
405.40	22.264
405.60	23.634
405.81	23.053
406.01	23.689
406.21	21.959
406.42	22.878
406.62	23.020
406.83	24.785
407.03	23.145
407.23	22.451
407.44	22.596
407.64	24.723
407.85	22.463
408.05	24.403
408.25	20.346
408.46	23.195
408.66	22.155
408.87	21.547
409.07	20.569
409.27	21.659
409.48	21.296
409.68	22.797
409.88	17.641
410.09	22.080
410.29	21.460
410.50	23.535
410.70	17.146
410.90	21.910
411.11	18.655
411.31	22.452
411.51	21.685
411.72	23.136
411.92	20.865
412.12	19.995
412.33	19.641
412.53	23.292
412.74	19.782
412.94	20.492
413.14	19.966
413.35	22.630
413.55	19.594
413.75	22.656
413.96	19.296
414.16	20.489
414.36	21.614
414.57	22.289
414.77	19.283
414.97	21.376
415.18	19.422
415.38	21.998
415.58	19.663
415.79	20.623
415.99	19.150
416.19	22.140
416.40	20.240
416.60	22.565
416.80	19.909
417.01	23.063
417.21	21.119
417.41	23.203
417.62	22.594
417.82	23.034
418.02	21.075
418.23	23.352
418.43	21.945
418.63	23.374
418.84	23.345
419.04	22.717
419.24	23.451
419.45	22.876
419.65	23.320
419.85	22.922
420.06	22.216
420.26	23.688
420.46	23.240
420.67	23.269
420.87	22.795
421.07	22.638
421.28	22.854
421.48	24.067
421.68	23.547
421.88	23.359
422.09	22.751
422.29	23.854
422.49	23.495
422.70	23.489
422.90	22.498
423.10	24.323
423.31	23.045
423.51	24.318
423.71	23.127
423.91	24.246
424.12	23.023
424.32	23.398
424.52	22.251
424.73	23.054
424.93	22.697
425.13	22.746
425.33	22.881
425.54	23.650
425.74	22.843
425.94	22.933
426.15	22.558
426.35	22.827
426.55	22.902
426.75	24.011
426.96	23.211
427.16	22.916
427.36	22.847
427.57	23.125
427.77	23.199
427.97	22.991
428.17	22.474
428.38	22.969
428.58	20.473
428.78	21.998
428.98	20.203
429.19	22.149
429.39	20.248
429.59	22.250
429.79	20.073
430.00	21.174
430.20	19.220
430.40	22.068
430.60	20.647
430.81	22.197
431.01	18.867
431.21	21.587
431.41	19.555
431.62	21.757
431.82	21.260
432.02	22.426
432.22	20.943
432.43	20.405
432.63	19.149
432.83	22.250
433.03	21.570
433.24	21.308
433.44	21.477
433.64	21.393
433.84	21.182
434.05	21.441
434.25	21.639
434.45	22.656
434.65	22.228
434.85	22.917
435.06	21.749
435.26	22.072
435.46	21.407
435.66	21.504
435.87	22.006
436.07	22.302
436.27	21.003
436.47	22.515
436.67	21.727
436.88	22.053
437.08	20.761
437.28	21.144
437.48	20.913
437.69	22.126
437.89	21.058
438.09	22.515
438.29	19.746
438.49	23.048
438.70	21.266
438.90	21.648
439.10	20.278
439.30	21.956
439.50	20.392
439.71	21.977
439.91	21.280
440.11	20.757
440.31	21.562
440.51	21.740
440.72	21.109
440.92	22.022
441.12	21.351
441.32	21.545
441.52	21.898
441.72	21.817
441.93	22.467
442.13	22.809
442.33	21.713
442.53	21.792
442.73	22.268
442.94	22.336
443.14	21.001
443.34	21.946
443.54	22.303
443.74	22.043
443.94	21.967
444.15	21.088
444.35	21.100
444.55	21.806
444.75	21.541
444.95	20.603
445.15	20.782
445.36	21.701
445.56	21.068
445.76	21.451
445.96	20.206
446.16	21.233
446.36	21.815
446.57	21.530
446.77	21.002
446.97	21.222
447.17	21.592
447.37	21.728
447.57	21.134
447.77	21.470
447.98	21.483
448.18	21.337
448.38	21.865
448.58	21.772
448.78	21.622
448.98	21.539
449.18	21.437
449.39	21.085
449.59	21.391
449.79	21.878
449.99	21.698
450.19	21.566
450.39	20.888
450.59	21.333
450.79	20.794
451.00	22.109
451.20	21.146
451.40	21.830
451.60	19.758
451.80	20.829
452.00	19.971
452.20	20.538
452.40	19.949
452.61	21.153
452.81	20.473
453.01	21.282
453.21	19.869
453.41	21.364
453.61	21.356
453.81	21.339
454.01	20.553
454.21	21.084
454.42	20.789
454.62	21.795
454.82	19.660
455.02	20.397
455.22	20.143
455.42	20.316
455.62	19.724
455.82	20.943
456.02	20.003
456.23	20.451
456.43	20.585
456.63	20.518
456.83	19.919
457.03	20.579
457.23	19.711
457.43	21.386
457.63	20.039
457.83	20.209
458.03	18.631
458.23	21.227
458.43	20.154
458.64	19.716
458.84	21.053
459.04	20.500
459.24	19.505
459.44	20.694
459.64	19.858
459.84	20.036
460.04	19.741
460.24	20.685
460.44	20.529
460.64	20.590
460.84	21.017
461.04	20.743
461.24	21.059
461.45	20.914
461.65	20.985
461.85	21.107
462.05	21.738
462.25	21.626
462.45	20.500
462.65	21.717
462.85	20.721
463.05	20.768
463.25	20.440
463.45	19.831
463.65	19.179
463.85	20.726
464.05	18.997
464.25	20.437
464.45	19.758
464.65	20.045
464.85	19.068
465.05	20.747
465.26	20.028
465.46	20.582
465.66	20.442
465.86	21.534
466.06	20.344
466.26	20.154
466.46	18.353
466.66	19.644
466.86	19.695
467.06	19.690
467.26	18.922
467.46	20.114
467.66	19.128
467.86	20.731
468.06	20.532
468.26	20.256
468.46	19.373
468.66	19.868
468.86	18.190
469.06	20.446
469.26	18.994
469.46	19.358
469.66	19.043
469.86	20.220
470.06	19.547
470.26	21.071
470.46	19.284
470.66	20.260
470.86	18.812
471.06	20.547
471.26	17.920
471.46	19.761
471.66	19.400
471.86	20.317
472.06	19.948
472.26	20.900
472.46	20.387
472.66	20.669
472.86	19.816
473.06	20.525
473.26	20.688
473.46	20.283
473.66	19.905
473.86	21.566
474.06	20.270
474.26	20.064
474.46	19.290
474.66	20.213
474.86	20.079
475.06	20.725
475.26	18.991
475.46	20.528
475.66	20.066
475.86	20.515
476.06	19.781
476.26	20.633
476.46	19.291
476.66	20.901
476.86	18.464
477.06	20.754
477.26	20.066
477.46	20.744
477.65	20.822
477.85	20.844
478.05	20.347
478.25	20.753
478.45	19.874
478.65	20.699
478.85	20.159
479.05	21.179
479.25	20.296
479.45	21.635
479.65	19.489
479.85	21.778
480.05	20.284
480.25	20.790
480.45	20.472
480.65	20.011
480.85	20.483
481.05	21.366
481.25	20.223
481.44	20.341
481.64	20.241
481.84	21.226
482.04	20.489
482.24	20.956
482.44	20.278
482.64	20.208
482.84	21.064
483.04	20.549
483.24	20.547
483.44	20.351
483.64	19.782
483.84	20.144
484.04	20.472
484.23	20.935
484.43	20.872
484.63	20.954
484.83	21.153
485.03	21.354
485.23	21.241
485.43	21.543
485.63	21.686
485.83	21.761
486.03	21.112
486.23	21.385
486.42	21.398
486.62	21.419
486.82	20.995
487.02	20.932
487.22	21.278
487.42	21.195
487.62	20.929
487.82	21.426
488.02	20.625
488.22	21.316
488.41	20.969
488.61	20.817
488.81	21.233
489.01	21.119
489.21	20.884
489.41	21.025
489.61	21.044
489.81	21.080
490.01	21.620
490.20	21.318
490.40	21.147
490.60	21.281
490.80	20.845
491.00	21.825
491.20	20.346
491.40	20.577
491.60	20.138
491.79	20.839
491.99	20.418
492.19	20.972
492.39	20.828
492.59	20.957
492.79	20.376
492.99	20.944
493.19	20.600
493.38	21.053
493.58	21.641
493.78	21.298
493.98	21.293
494.18	21.696
494.38	21.325
494.58	21.270
494.77	20.544
494.97	21.360
495.17	21.320
495.37	21.248
495.57	21.351
495.77	21.697
495.96	21.046
496.16	20.878
496.36	20.231
496.56	21.170
496.76	21.227
496.96	20.837
497.15	20.621
497.35	20.392
497.55	20.543
497.75	21.313
497.95	21.204
498.15	20.703
498.34	20.222
498.54	21.305
498.74	21.044
498.94	20.928
499.14	21.169
499.34	21.497
499.53	20.714
499.73	21.026
499.93	21.843
500.13	21.299
500.33	20.618
500.52	20.971
500.72	20.608
500.92	21.126
501.12	20.821
501.32	21.570
501.52	20.563
501.71	22.005
501.91	20.965
502.11	21.506
502.31	19.679
502.51	21.076
502.70	21.230
502.90	21.701
503.10	21.715
503.30	21.744
503.50	21.478
503.69	21.563
503.89	21.166
504.09	21.237
504.29	21.440
504.48	21.673
504.68	21.212
504.88	21.558
505.08	20.079
505.28	21.997
505.47	21.201
505.67	21.836
505.87	22.078
506.07	21.100
506.27	20.824
506.46	21.972
506.66	22.076
506.86	22.067
507.06	22.592
507.25	21.813
507.45	21.383
507.65	21.420
507.85	22.071
508.04	22.282
508.24	22.183
508.44	22.056
508.64	22.373
508.83	22.744
509.03	22.058
509.23	22.860
509.43	21.806
509.63	22.386
509.82	22.696
510.02	22.783
510.22	21.902
510.42	22.583
510.61	21.511
510.81	23.193
511.01	22.328
511.21	22.613
511.40	23.097
511.60	23.440
511.80	23.001
511.99	23.315
512.19	23.983
512.39	23.283
512.59	23.223
512.78	23.170
512.98	24.248
513.18	22.985
513.38	23.010
513.57	23.581
513.77	23.593
513.97	24.139
514.17	22.907
514.36	24.063
514.56	24.254
514.76	23.893
514.95	23.982
515.15	24.024
515.35	23.771
515.55	23.957
515.74	24.908
515.94	24.108
516.14	23.794
516.33	23.814
516.53	24.161
516.73	24.343
516.93	24.175
517.12	24.543
517.32	24.118
517.52	24.067
517.71	24.106
517.91	23.831
518.11	23.418
518.30	23.813
518.50	23.734
518.70	22.786
518.90	23.803
519.09	23.530
519.29	22.986
519.49	23.732
519.68	22.934
519.88	23.808
520.08	23.676
520.27	23.416
520.47	24.126
520.67	23.847
520.86	24.114
521.06	24.106
521.26	23.433
521.45	23.894
521.65	23.882
521.85	24.117
522.04	23.733
522.24	23.928
522.44	23.838
522.63	23.460
522.83	23.898
523.03	24.253
523.22	23.934
523.42	23.690
523.62	24.694
523.81	24.207
524.01	24.250
524.21	24.105
524.40	23.698
524.60	23.563
524.80	22.853
524.99	24.131
525.19	24.025
525.39	23.935
525.58	23.247
525.78	23.327
525.98	23.389
526.17	22.956
526.37	23.182
526.57	23.706
526.76	23.301
526.96	23.545
527.15	22.786
527.35	22.847
527.55	23.340
527.74	23.224
527.94	22.858
528.14	23.365
528.33	22.688
528.53	22.307
528.72	22.497
528.92	22.670
529.12	23.211
529.31	23.298
529.51	22.692
529.71	23.482
529.90	23.413
530.10	23.171
530.29	23.564
530.49	23.682
530.69	23.684
530.88	24.165
531.08	23.457
531.28	23.769
531.47	23.769
531.67	23.090
531.86	23.427
532.06	23.458
532.26	23.070
532.45	23.264
532.65	23.057
532.84	23.128
533.04	22.577
533.24	22.584
533.43	23.192
533.63	23.563
533.82	23.394
534.02	23.333
534.22	23.585
534.41	23.353
534.61	23.338
534.80	23.672
535.00	23.452
535.19	24.049
535.39	23.551
535.59	23.789
535.78	23.447
535.98	23.262
536.17	23.712
536.37	23.517
536.57	24.583
536.76	23.076
536.96	23.873
537.15	23.961
537.35	23.766
537.54	24.107
537.74	23.804
537.93	24.004
538.13	23.939
538.33	24.293
538.52	23.933
538.72	23.993
538.91	23.398
539.11	24.504
539.30	23.882
539.50	24.308
539.70	23.835
539.89	24.769
540.09	23.527
540.28	24.015
540.48	24.088
540.67	24.040
540.87	23.684
541.06	23.593
541.26	23.553
541.45	23.590
541.65	23.772
541.85	24.016
542.04	23.525
542.24	23.588
542.43	23.507
542.63	24.125
542.82	24.053
543.02	24.658
543.21	24.728
543.41	24.646
543.60	24.932
543.80	24.682
543.99	24.345
544.19	24.975
544.38	24.613
544.58	24.892
544.77	24.565
544.97	25.399
545.16	24.615
545.36	25.060
545.56	24.653
545.75	25.209
545.95	24.272
546.14	24.427
546.34	24.644
546.53	24.356
546.73	24.800
546.92	24.792
547.12	24.373
547.31	24.865
547.51	24.645
547.70	25.267
547.90	25.464
548.09	25.610
548.29	25.339
548.48	25.868
548.68	26.034
548.87	25.849
549.07	25.771
549.26	25.717
549.46	25.434
549.65	26.099
549.84	25.849
550.04	26.209
550.23	26.065
550.43	26.190
550.62	26.507
550.82	25.355
551.01	26.022
551.21	26.454
551.40	26.068
551.60	25.787
551.79	25.976
551.99	26.594
552.18	25.301
552.38	26.185
552.57	26.129
552.77	27.082
552.96	25.964
553.16	26.806
553.35	26.162
553.54	27.129
553.74	25.498
553.93	27.641
554.13	26.712
554.32	27.369
554.52	27.854
554.71	27.335
554.91	27.113
555.10	28.009
555.29	26.303
555.49	28.026
555.68	28.493
555.88	27.175
556.07	27.192
556.27	27.209
556.46	27.481
556.66	27.990
556.85	27.745
557.04	27.974
557.24	28.220
557.43	28.199
557.63	29.042
557.82	28.196
558.02	28.154
558.21	28.557
558.40	28.677
558.60	28.933
558.79	28.504
558.99	28.365
559.18	27.816
559.38	29.962
559.57	28.655
559.76	29.408
559.96	29.389
560.15	29.024
560.35	28.447
560.54	30.256
560.73	29.177
560.93	29.008
561.12	29.738
561.32	29.186
561.51	28.862
561.70	29.665
561.90	29.754
562.09	30.544
562.29	30.439
562.48	30.590
562.67	29.747
562.87	30.117
563.06	29.893
563.26	32.130
563.45	31.303
563.64	30.458
563.84	30.304
564.03	31.424
564.23	30.888
564.42	31.241
564.61	31.227
564.81	31.678
565.00	31.832
565.20	31.258
565.39	30.668
565.58	32.070
565.78	30.788
565.97	31.555
566.16	32.081
566.36	31.840
566.55	32.075
566.74	31.565
566.94	31.986
567.13	32.555
567.33	32.097
567.52	33.251
567.71	33.014
567.91	32.128
568.10	33.827
568.29	33.170
568.49	32.362
568.68	33.686
568.87	32.456
569.07	33.064
569.26	32.889
569.45	33.383
569.65	33.474
569.84	33.394
570.04	32.580
570.23	32.363
570.42	33.370
570.62	33.643
570.81	32.519
571.00	33.111
571.20	33.399
571.39	34.092
571.58	33.632
571.78	33.855
571.97	33.779
572.16	33.709
572.36	33.345
572.55	33.481
572.74	33.976
572.94	33.448
573.13	33.971
573.32	34.625
573.51	34.453
573.71	34.265
573.90	33.126
574.09	34.685
574.29	34.506
574.48	34.375
574.67	34.331
574.87	33.895
575.06	34.857
575.25	34.558
575.45	34.410
575.64	34.278
575.83	34.582
576.03	35.293
576.22	34.470
576.41	34.175
576.60	33.582
576.80	35.209
576.99	34.720
577.18	34.682
577.38	36.275
577.57	35.119
577.76	35.428
577.95	35.830
578.15	36.403
578.34	35.320
578.53	35.694
578.73	36.512
578.92	35.192
579.11	36.456
579.30	34.892
579.50	35.356
579.69	35.308
579.88	35.420
580.08	35.651
580.27	34.599
580.46	35.921
580.65	34.906
580.85	35.059
581.04	34.415
581.23	35.759
581.42	35.586
581.62	34.811
581.81	35.445
582.00	33.736
582.19	35.356
582.39	34.814
582.58	35.101
582.77	34.097
582.96	35.918
583.16	33.747
583.35	36.592
583.54	33.216
583.73	34.556
583.93	34.987
584.12	36.308
584.31	35.353
584.50	35.897
584.70	34.475
584.89	34.456
585.08	34.545
585.27	35.007
585.47	33.757
585.66	34.438
585.85	34.674
586.04	35.033
586.24	33.846
586.43	35.109
586.62	33.352
586.81	35.167
587.00	33.113
587.20	35.821
587.39	33.641
587.58	35.798
587.77	34.438
587.97	34.154
588.16	34.512
588.35	33.279
588.54	33.827
588.73	33.280
588.93	35.338
589.12	35.018
589.31	33.234
589.50	34.914
589.69	33.596
589.89	35.071
590.08	34.937
590.27	34.256
590.46	33.734
590.65	33.489
590.85	33.233
591.04	35.480
591.23	35.110
591.42	33.974
591.61	34.377
591.81	34.512
592.00	33.870
592.19	34.270
592.38	35.572
592.57	33.847
592.77	34.641
592.96	34.599
593.15	35.242
593.34	33.869
593.53	34.155
593.72	34.900
593.92	34.651
594.11	35.232
594.30	35.339
594.49	35.234
594.68	34.263
594.87	34.486
595.07	34.211
595.26	35.119
595.45	34.419
595.64	36.290
595.83	34.152
596.02	35.242
596.22	35.057
596.41	36.465
596.60	34.007
596.79	35.133
596.98	35.305
597.17	35.604
597.37	34.935
597.56	35.803
597.75	35.306
597.94	36.282
598.13	36.152
598.32	36.682
598.51	35.825
598.71	36.134
598.90	35.929
599.09	36.153
599.28	36.149
599.47	36.694
599.66	35.772
599.85	36.094
600.05	34.366
600.24	35.306
600.43	34.603
600.62	35.622
600.81	36.293
601.00	36.948
601.19	34.899
601.38	37.418
601.58	36.505
601.77	37.488
601.96	37.242
602.15	36.282
602.34	35.662
602.53	37.044
602.72	37.121
602.91	36.421
603.10	36.422
603.30	36.107
603.49	36.882
603.68	36.442
603.87	36.201
604.06	37.137
604.25	36.447
604.44	36.387
604.63	37.225
604.82	36.529
605.01	36.706
605.21	37.014
605.40	36.287
605.59	37.053
605.78	36.327
605.97	36.506
606.16	36.390
606.35	36.904
606.54	37.092
606.73	37.093
606.92	36.163
607.11	37.110
607.30	35.852
607.50	37.831
607.69	35.236
607.88	35.753
608.07	35.314
608.26	37.036
608.45	36.822
608.64	36.106
608.83	36.451
609.02	35.395
609.21	36.616
609.40	36.445
609.59	36.176
609.78	35.737
609.97	35.222
610.16	35.761
610.35	36.038
610.55	36.432
610.74	36.454
610.93	35.031
611.12	36.650
611.31	35.357
611.50	36.275
611.69	37.185
611.88	34.665
612.07	36.801
612.26	34.410
612.45	37.003
612.64	35.775
612.83	36.879
613.02	35.551
613.21	35.916
613.40	34.519
613.59	35.501
613.78	33.744
613.97	36.462
614.16	34.090
614.35	34.756
614.54	35.144
614.73	33.265
614.92	33.173
615.11	34.113
615.30	32.726
615.49	34.582
615.68	33.410
615.87	33.809
616.07	32.008
616.26	35.461
616.45	31.464
616.64	34.126
616.83	34.699
617.02	34.820
617.21	32.932
617.40	34.565
617.59	31.345
617.78	33.871
617.97	31.952
618.16	33.380
618.35	32.116
618.54	32.983
618.73	34.130
618.92	34.718
619.11	31.213
619.30	34.379
619.49	30.864
619.68	33.250
619.86	32.857
620.05	34.965
620.24	31.636
620.43	31.975
620.62	31.074
620.81	32.629
621.00	32.500
621.19	33.732
621.38	31.246
621.57	33.598
621.76	31.419
621.95	33.623
622.14	33.169
622.33	32.710
622.52	30.743
622.71	31.167
622.90	31.184
623.09	32.134
623.28	30.830
623.47	32.668
623.66	31.509
623.85	33.222
624.04	31.494
624.23	33.127
624.42	31.523
624.61	31.939
624.80	29.998
624.99	32.034
625.18	29.988
625.36	30.577
625.55	31.400
625.74	31.027
625.93	31.228
626.12	30.965
626.31	32.044
626.50	31.526
626.69	31.114
626.88	31.926
627.07	31.944
627.26	31.878
627.45	32.045
627.64	32.190
627.83	31.174
628.02	33.022
628.20	31.459
628.39	31.563
628.58	31.116
628.77	32.041
628.96	32.049
629.15	32.758
629.34	30.836
629.53	31.063
629.72	31.036
629.91	33.299
630.10	32.503
630.29	31.164
630.47	30.285
630.66	30.814
630.85	30.358
631.04	31.950
631.23	29.946
631.42	31.808
631.61	30.002
631.80	31.969
631.99	30.463
632.18	30.337
632.36	29.332
632.55	30.744
632.74	29.523
632.93	31.042
633.12	29.423
633.31	31.557
633.50	29.390
633.69	30.653
633.88	29.511
634.06	32.017
634.25	29.684
634.44	31.337
634.63	29.635
634.82	31.429
635.01	29.468
635.20	31.545
635.39	30.020
635.57	31.690
635.76	31.018
635.95	31.337
636.14	28.818
636.33	31.100
636.52	29.323
636.71	29.670
636.89	29.005
637.08	31.934
637.27	26.859
637.46	29.470
637.65	28.305
637.84	29.841
638.03	28.832
638.21	32.504
638.40	29.041
638.59	31.481
638.78	27.268
638.97	30.041
639.16	28.606
639.34	29.457
639.53	26.161
639.72	30.248
639.91	28.236
640.10	30.052
640.29	30.866
640.47	32.734
640.66	28.780
640.85	31.997
641.04	26.234
641.23	29.420
641.42	27.887
641.60	27.378
641.79	28.584
641.98	28.881
642.17	27.466
642.36	30.622
642.54	26.215
642.73	29.232
642.92	25.506
643.11	26.473
643.30	25.533
643.49	29.724
643.67	23.237
643.86	31.086
644.05	26.524
644.24	28.207
644.43	27.909
644.61	29.794
644.80	26.376
644.99	27.411
645.18	29.184
645.37	28.910
645.55	25.169
645.74	27.913
645.93	26.950
646.12	29.158
646.31	26.710
646.49	27.050
646.68	26.261
646.87	27.452
647.06	24.632
647.24	28.237
647.43	25.837
647.62	27.693
647.81	23.728
648.00	28.842
648.18	23.586
648.37	27.974
648.56	27.108
648.75	27.530
648.93	25.792
649.12	28.537
649.31	28.091
649.50	28.614
649.68	26.168
649.87	26.219
650.06	23.553
650.25	28.580
650.43	24.366
650.62	29.299
650.81	26.591
651.00	27.737
651.18	25.469
651.37	27.915
651.56	24.398
651.75	30.787
651.93	24.800
652.12	28.953
652.31	24.985
652.50	28.746
652.68	27.207
652.87	28.493
653.06	27.140
653.25	29.906
653.43	27.297
653.62	27.910
653.81	24.954
654.00	29.225
654.18	25.221
654.37	28.646
654.56	25.476
654.74	24.740
654.93	23.640
655.12	26.373
655.31	24.458
655.49	25.790
655.68	25.321
655.87	24.968
656.05	21.203
656.24	26.068
656.43	20.026
656.62	27.527
656.80	22.157
656.99	21.788
657.18	18.872
657.36	22.787
657.55	25.265
657.74	23.431
657.93	25.819
658.11	25.988
658.30	23.191
658.49	25.668
658.67	22.743
658.86	23.775
659.05	23.969
659.23	24.716
659.42	24.055
659.61	26.322
659.79	24.564
659.98	27.749
660.17	24.587
660.35	24.649
660.54	23.348
660.73	27.547
660.91	24.994
661.10	24.855
661.29	21.102
661.47	24.424
661.66	22.091
661.85	25.007
662.03	22.213
662.22	19.397
662.41	18.545
662.59	20.530
662.78	18.245
662.97	20.445
663.15	17.666
663.34	18.833
663.53	15.711
663.71	20.580
663.90	15.962
664.09	20.242
664.27	16.606
664.46	17.930
664.65	15.117
664.83	16.904
665.02	15.459
665.21	14.009
665.39	12.794
665.58	16.487
665.77	16.527
665.95	16.191
666.14	11.336
666.32	16.561
666.51	15.501
666.70	14.162
666.88	13.345
667.07	15.801
667.26	12.437
667.44	14.146
667.63	14.413
667.81	12.063
668.00	15.020
668.19	16.931
668.37	14.586
668.56	18.559
668.75	12.950
668.93	18.451
669.12	11.238
669.30	16.493
669.49	14.457
669.68	15.328
669.86	16.775
670.05	14.320
670.23	12.491
670.42	14.680
670.61	15.310
670.79	16.129
670.98	16.620
671.16	16.389
671.35	13.087
671.54	15.385
671.72	13.226
671.91	15.336
672.09	10.431
672.28	19.133
672.46	16.798
672.65	17.652
672.84	14.395
673.02	18.781
673.21	9.619
673.39	15.333
673.58	14.402
673.77	14.617
673.95	12.964
674.14	17.038
674.32	12.591
674.51	19.423
674.69	14.185
674.88	15.648
675.07	13.475
675.25	21.272
675.44	14.899
675.62	14.488
675.81	13.660
675.99	22.385
676.18	17.901
676.36	15.871
676.55	11.335
676.74	18.935
676.92	16.918
677.11	18.095
677.29	13.516
677.48	18.459
677.66	17.537
677.85	14.263
678.03	12.901
678.22	19.360
678.40	14.585
678.59	14.686
678.78	13.344
678.96	17.829
679.15	14.083
679.33	19.662
679.52	19.769
679.70	19.467
679.89	15.321
680.07	20.053
680.26	17.028
680.44	20.135
680.63	19.528
680.81	20.759
681.00	16.083
681.18	21.668
681.37	18.190
681.55	23.926
681.74	22.600
681.92	23.050
682.11	20.046
682.29	20.902
682.48	19.771
682.66	22.305
682.85	20.735
683.03	22.479
683.22	22.296
683.40	24.460
683.59	21.219
683.77	21.501
683.96	18.248
684.14	24.874
684.33	15.458
684.51	25.513
684.70	22.604
684.88	24.606
685.07	20.333
685.25	23.250
685.44	20.402
685.62	26.494
685.81	21.737
685.99	22.524
686.18	18.066
686.36	25.313
686.55	20.444
686.73	23.347
686.92	24.970
687.10	25.942
687.29	26.011
687.47	27.010
687.65	24.492
687.84	23.969
688.02	26.104
688.21	30.156
688.39	24.676
688.58	30.532
688.76	22.800
688.95	26.992
689.13	23.479
689.32	31.682
689.50	27.154
689.68	32.071
689.87	28.348
690.05	31.000
690.24	31.348
690.42	32.228
690.61	32.035
690.79	32.804
690.98	29.229
691.16	31.412
691.34	27.663
691.53	33.207
691.71	30.489
691.90	33.972
692.08	28.903
692.27	34.071
692.45	35.294
692.63	36.240
692.82	34.415
693.00	37.335
693.19	32.830
693.37	38.095
693.56	33.184
693.74	42.057
693.92	34.588
694.11	41.320
694.29	38.414
694.48	41.694
694.66	37.262
694.84	41.580
695.03	34.573
695.21	44.070
695.40	43.182
695.58	45.271
695.76	39.426
695.95	43.140
696.13	40.409
696.32	47.187
696.50	50.651
696.68	47.298
696.87	42.017
697.05	46.706
697.24	46.125
697.42	51.479
697.60	47.807
697.79	48.795
697.97	49.424
698.16	52.932
698.34	51.032
698.52	52.985
698.71	49.796
698.89	49.811
699.07	51.248
699.26	53.158
699.44	51.745
699.63	54.250
699.81	50.333
699.99	52.249
700.18	51.265
700.36	53.497
700.54	53.607
700.73	53.300
700.91	52.929
701.09	53.662
701.28	52.801
701.46	57.196
701.64	52.611
701.83	54.378
702.01	54.098
702.20	57.818
702.38	56.261
702.56	56.431
702.75	52.961
702.93	55.156
703.11	51.318
703.30	56.535
703.48	54.678
703.66	54.886
703.85	56.146
704.03	61.253
704.21	56.833
704.40	57.996
704.58	52.823
704.76	54.837
704.95	55.068
705.13	57.684
705.31	56.172
705.50	58.275
705.68	54.989
705.86	57.340
706.04	55.556
706.23	61.801
706.41	60.726
706.59	55.713
706.78	55.367
706.96	60.604
707.14	55.963
707.33	62.535
707.51	60.589
707.69	58.947
707.88	60.145
708.06	59.380
708.24	57.480
708.42	61.198
708.61	59.412
708.79	59.173
708.97	62.961
709.16	62.607
709.34	59.312
709.52	61.538
709.71	61.033
709.89	64.392
710.07	55.956
710.25	57.297
710.44	58.908
710.62	62.567
710.80	59.602
710.98	61.016
711.17	58.956
711.35	61.342
711.53	58.740
711.72	59.750
711.90	61.298
712.08	60.988
712.26	61.439
712.45	64.732
712.63	63.244
712.81	64.478
712.99	61.542
713.18	66.379
713.36	63.520
713.54	62.797
713.72	60.157
713.91	65.226
714.09	62.117
714.27	65.247
714.45	63.163
714.64	65.188
714.82	61.450
715.00	62.252
715.18	62.901
715.37	62.898
715.55	64.558
715.73	63.093
715.91	62.937
716.10	65.433
716.28	56.594
716.46	63.969
716.64	60.010
716.83	64.394
717.01	60.993
717.19	66.417
717.37	57.106
717.55	65.324
717.74	63.261
717.92	64.676
718.10	58.020
718.28	60.693
718.47	58.659
718.65	61.956
718.83	60.195
719.01	67.691
719.19	59.461
719.38	63.161
719.56	54.775
719.74	67.187
719.92	54.984
720.10	62.484
720.29	58.860
720.47	63.111
720.65	58.395
720.83	62.565
721.01	58.476
721.20	62.095
721.38	57.643
721.56	64.101
721.74	58.316
721.92	62.483
722.11	54.772
722.29	64.543
722.47	58.913
722.65	61.576
722.83	59.870
723.01	60.328
723.20	64.492
723.38	63.681
723.56	60.917
723.74	63.859
723.92	57.681
724.10	62.057
724.29	56.060
724.47	66.593
724.65	57.123
724.83	62.256
725.01	59.415
725.19	64.624
725.38	56.532
725.56	63.643
725.74	61.022
725.92	66.643
726.10	54.908
726.28	66.197
726.46	67.086
726.65	59.507
726.83	62.859
727.01	65.797
727.19	58.753
727.37	66.944
727.55	60.882
727.73	64.503
727.92	60.833
728.10	65.261
728.28	57.476
728.46	63.756
728.64	60.796
728.82	64.680
729.00	67.627
729.19	65.479
729.37	64.324
729.55	62.866
729.73	57.198
729.91	67.325
730.09	59.961
730.27	67.576
730.45	60.726
730.63	64.613
730.82	59.326
731.00	64.456
731.18	59.728
731.36	65.968
731.54	59.449
731.72	62.738
731.90	61.473
732.08	64.744
732.26	62.533
732.45	66.119
732.63	69.947
732.81	66.558
732.99	61.274
733.17	67.814
733.35	66.069
733.53	64.272
733.71	62.082
733.89	66.833
734.07	63.486
734.25	66.979
734.44	64.032
734.62	63.701
734.80	62.323
734.98	63.493
735.16	62.822
735.34	64.321
735.52	62.584
735.70	64.924
735.88	62.629
736.06	65.130
736.24	67.496
736.42	67.527
736.60	66.066
736.78	72.414
736.97	62.061
737.15	70.322
737.33	59.095
737.51	62.744
737.69	63.741
737.87	63.460
738.05	62.470
738.23	65.637
738.41	65.794
738.59	68.099
738.77	65.152
738.95	70.555
739.13	65.385
739.31	66.693
739.49	62.998
739.67	66.828
739.85	66.883
740.03	67.447
740.21	63.072
740.39	68.820
740.57	66.487
740.75	67.813
740.93	60.031
741.11	71.844
741.30	62.672
741.48	66.149
741.66	66.973
741.84	64.618
742.02	63.419
742.20	71.670
742.38	63.846
742.56	68.947
742.74	66.817
742.92	65.847
743.10	63.760
743.28	68.599
743.46	64.513
743.64	67.347
743.82	63.148
744.00	70.509
744.18	67.062
744.36	65.867
744.54	62.154
744.72	66.073
744.90	65.875
745.08	66.313
745.26	66.537
745.44	71.926
745.62	65.962
745.80	68.318
745.98	64.700
746.16	66.930
746.34	61.762
746.52	69.672
746.70	61.138
746.87	66.462
747.05	63.085
747.23	69.427
747.41	67.021
747.59	67.312
747.77	57.731
747.95	60.453
748.13	63.702
748.31	68.321
748.49	66.968
748.67	69.193
748.85	62.062
749.03	71.600
749.21	62.916
749.39	72.718
749.57	55.848
749.75	66.667
749.93	65.361
750.11	64.694
750.29	60.419
750.47	64.092
750.65	61.659
750.83	75.262
751.01	61.106
751.18	68.770
751.36	62.757
751.54	68.122
751.72	62.038
751.90	66.570
752.08	57.200
752.26	65.641
752.44	61.751
752.62	66.436
752.80	64.579
752.98	69.784
753.16	62.800
753.34	61.992
753.52	67.330
753.69	66.317
753.87	61.818
754.05	70.846
754.23	61.910
754.41	65.392
754.59	66.700
754.77	71.672
754.95	68.019
755.13	74.530
755.31	64.069
755.49	72.222
755.66	62.941
755.84	68.798
756.02	57.299
756.20	66.509
756.38	60.960
756.56	68.768
756.74	63.546
756.92	63.340
757.10	64.718
757.28	67.136
757.45	68.042
757.63	69.011
757.81	59.566
757.99	70.197
758.17	68.657
758.35	65.827
758.53	66.276
758.71	63.646
758.88	69.194
759.06	66.340
759.24	56.848
759.42	61.863
759.60	54.446
759.78	63.126
759.96	50.000
760.13	57.352
760.31	53.312
760.49	53.457
760.67	42.561
760.85	54.971
761.03	46.579
761.21	52.802
761.38	39.690
761.56	49.627
761.74	43.989
761.92	54.854
762.10	43.616
762.28	55.872
762.46	41.667
762.63	49.314
762.81	46.742
762.99	53.215
763.17	44.705
763.35	49.479
763.53	51.192
763.70	54.292
763.88	56.516
764.06	56.112
764.24	53.951
764.42	61.714
764.60	60.383
764.77	61.450
764.95	53.650
765.13	58.438
765.31	55.192
765.49	57.362
765.66	57.025
765.84	58.589
766.02	58.055
766.20	56.931
766.38	54.087
766.56	63.861
766.73	58.636
766.91	60.537
767.09	57.348
767.27	58.964
767.45	55.232
767.62	65.392
767.80	57.951
767.98	65.641
768.16	57.736
768.33	62.774
768.51	60.105
768.69	69.874
768.87	63.274
769.05	64.603
769.22	57.442
769.40	69.231
769.58	67.578
769.76	71.429
769.94	65.854
770.11	64.671
770.29	62.189
770.47	61.501
770.65	61.985
770.82	60.419
771.00	62.661
771.18	63.902
771.36	54.688
771.53	54.699
771.71	56.711
771.89	60.680
772.07	59.016
772.25	64.227
772.42	55.774
772.60	66.226
772.78	54.427
772.96	66.284
773.13	58.242
773.31	59.946
773.49	65.167
773.67	62.787
773.84	63.833
774.02	65.481
774.20	52.555
774.37	60.362
774.55	51.511
774.73	69.938
774.91	51.745
775.08	59.190
775.26	58.333
775.44	61.173
775.62	60.805
775.79	56.671
775.97	58.000
776.15	59.801
776.32	59.784
776.50	64.186
776.68	54.124
776.86	67.391
777.03	55.222
777.21	69.074
777.39	58.200
777.56	61.502
777.74	53.163
777.92	59.249
778.10	56.592
778.27	72.403
778.45	54.186
778.63	66.825
778.80	55.255
778.98	61.912
779.16	71.022
779.34	54.862
779.51	59.969
779.69	69.536
779.87	56.375
780.04	57.183
780.22	46.765
780.40	59.065
780.57	55.981
780.75	60.475
780.93	60.911
781.10	66.608
781.28	68.040
781.46	56.406
781.63	61.653
781.81	60.276
781.99	51.151
782.16	56.954
782.34	56.061
782.52	56.683
782.69	53.892
782.87	66.047
783.05	63.959
783.22	58.929
783.40	52.524
783.58	56.499
783.75	53.436
783.93	60.848
784.11	59.051
784.28	56.401
784.46	50.617
784.64	59.464
784.81	53.763
784.99	67.955
785.17	62.718
785.34	62.633
785.52	55.238
785.69	54.152
785.87	56.052
786.05	59.464
786.22	62.642
786.40	65.146
786.58	53.691
786.75	62.477
786.93	59.155
787.11	52.622
787.28	53.265
787.46	67.148
787.63	51.961
787.81	61.384
787.99	56.942
788.16	52.623
788.34	52.090
788.51	52.995
788.69	47.098
788.87	55.689
789.04	55.387
789.22	53.556
789.39	54.036
789.57	51.802
789.75	43.802
789.92	57.522
790.10	49.641
790.27	59.571
790.45	51.185
790.63	58.533
790.80	52.751
790.98	54.577
791.15	47.360
791.33	52.855
791.51	41.075
791.68	53.501
791.86	55.304
792.03	51.618
792.21	43.750
792.39	56.738
792.56	54.799
792.74	54.253
792.91	54.444
793.09	53.603
793.26	50.524
793.44	47.438
793.62	52.362
793.79	48.509
793.97	52.632
794.14	56.673
794.32	49.197
794.49	59.680
794.67	42.276
794.84	43.606
795.02	44.991
795.20	45.936
795.37	51.800
795.55	49.367
795.72	40.299
795.90	48.538
796.07	57.738
796.25	53.526
796.42	49.476
796.60	46.578
796.77	52.847
796.95	45.931
797.13	44.522
797.30	61.111
797.48	41.680
797.65	51.364
797.83	46.892
798.00	52.985
798.18	38.419
798.35	54.828
798.53	57.476
798.70	43.009
798.88	46.429
799.05	40.642
799.23	43.534
799.40	48.043
799.58	57.391
799.75	53.752
799.93	39.197
800.10	58.647
800.28	44.513
800.45	58.149
800.63	30.798
800.80	54.496
800.98	55.009
801.15	51.083
801.33	43.992
801.50	42.294
801.68	31.957
801.85	50.579
802.03	49.299
802.20	59.192
802.38	47.378
802.55	51.245
802.73	42.197
802.90	39.192
803.08	45.743
803.25	55.110
803.43	44.672
803.60	44.150
803.78	44.990
803.95	41.991
804.13	44.847
804.30	50.783
804.48	43.668
804.65	51.461
804.83	42.052
805.00	57.395
805.17	53.518
805.35	42.910
805.52	35.234
805.70	57.469
805.87	54.580
806.05	40.964
806.22	51.458
806.40	42.911
806.57	50.388
806.75	57.377
806.92	47.531
807.09	54.526
807.27	53.061
807.44	54.420
807.62	37.643
807.79	51.776
807.97	41.200
808.14	50.520
808.31	43.860
808.49	49.882
808.66	39.012
808.84	48.692
809.01	37.471
809.19	51.643
809.36	50.313
809.53	48.055
809.71	46.581
809.88	55.556
810.06	41.575
810.23	49.889
810.41	53.459
810.58	59.466
810.75	32.368
810.93	42.237
811.10	31.441
811.28	43.146
811.45	48.371
811.62	46.036
811.80	33.166
811.97	43.719
812.15	45.786
812.32	45.812
812.49	39.558
812.67	52.267
812.84	41.827
813.02	49.471
813.19	43.584
813.36	51.105
813.54	33.753
813.71	49.742
813.89	45.078
814.06	37.845
814.23	43.235
814.41	37.879
814.58	57.576
814.75	52.316
814.93	42.079
815.10	40.318
815.28	48.010
815.45	31.850
815.62	38.506
815.80	45.029
815.97	34.000
816.14	33.422
816.32	39.018
816.49	37.467
816.66	22.133
816.84	39.863
817.01	39.093
817.18	39.687
817.36	35.990
817.53	50.728
817.71	29.820
817.88	46.759
818.05	40.181
818.23	37.956
818.40	33.867
818.57	42.141
818.75	40.632
818.92	30.827
819.09	29.975
819.27	39.000
819.44	31.591
819.61	33.025
819.79	30.425
819.96	30.365
820.13	42.771
820.31	39.405
820.48	47.862
820.65	41.651
820.82	39.360
821.00	52.144
821.17	34.673
821.34	33.546
821.52	38.462
821.69	41.728
821.86	36.384
822.04	51.845
822.21	47.593
822.38	56.782
822.56	49.717
822.73	56.694
822.90	55.717
823.07	55.249
823.25	53.671
823.42	57.764
823.59	56.101
823.77	57.977
823.94	55.256
824.11	58.577
824.29	55.477
824.46	60.050
824.63	56.118
824.80	58.053
824.98	52.239
825.15	56.697
825.32	49.408
825.49	53.962
825.67	50.107
825.84	54.142
826.01	48.833
826.19	53.000
826.36	40.093
826.53	48.168
826.70	45.455
826.88	47.583
827.05	36.585
827.22	44.555
827.39	45.410
827.57	49.507
827.74	39.984
827.91	51.677
828.08	47.036
828.26	51.311
828.43	44.273
828.60	55.004
828.77	44.146
828.95	47.584
829.12	40.147
829.29	45.352
829.46	36.476
829.64	42.357
829.81	33.258
829.98	44.652
830.15	39.228
830.32	35.696
830.50	25.581
830.67	37.417
830.84	35.326
831.01	34.690
831.19	29.259
831.36	28.884
831.53	33.408
831.70	41.609
831.87	32.627
832.05	44.393
832.22	48.667
832.39	39.480
832.56	33.509
832.74	35.023
832.91	34.414
833.08	51.496
833.25	22.660
833.42	37.787
833.60	35.455
833.77	30.556
833.94	33.546
834.11	34.048
834.28	35.025
834.45	34.915
834.63	34.592
834.80	39.408
834.97	42.455
835.14	41.491
835.31	36.860
835.49	38.129
835.66	38.750
835.83	35.083
836.00	37.610
836.17	43.567
836.34	35.871
836.52	37.883
836.69	41.130
836.86	39.209
837.03	30.132
837.20	35.556
837.37	30.709
837.55	39.167
837.72	27.790
837.89	39.394
838.06	37.143
838.23	38.480
838.40	39.157
838.58	39.481
838.75	35.314
838.92	56.966
839.09	43.643
839.26	53.135
839.43	53.584
839.60	42.342
839.78	62.013
839.95	41.962
840.12	43.003
840.29	49.831
840.46	45.092
840.63	58.934
840.80	50.162
840.98	50.641
841.15	48.750
841.32	49.394
841.49	39.216
841.66	44.810
841.83	45.963
842.00	35.548
842.17	42.614
842.34	39.189
842.52	55.333
842.69	33.220
842.86	38.760
843.03	64.945
843.20	45.211
843.37	53.506
843.54	26.592
843.71	39.286
843.88	71.111
844.06	63.600
844.23	40.476
844.40	34.222
844.57	51.934
844.74	42.073
844.91	41.063
845.08	73.295
845.25	59.420
845.42	52.151
845.59	64.737
845.76	53.333
845.94	59.901
846.11	73.288
846.28	78.571
846.45	58.427
846.62	48.052
846.79	67.808
846.96	35.802
847.13	76.163
847.30	60.000
847.47	49.640
847.64	81.395
847.81	96.610
847.98	51.759
848.15	76.642
848.32	74.843
848.50	87.425
848.67	58.046
848.84	30.137
849.01	55.866
849.18	72.165
849.35	69.531
849.52	68.966
849.69	60.927
849.86	70.068
850.03	56.716
850.20	62.573
850.37	54.622
850.54	62.011
850.71	80.132
850.88	70.950
851.05	86.441
851.22	73.596
851.39	74.775
851.56	67.857
851.73	81.132
851.90	57.764
852.07	103.759
852.24	98.684
852.41	40.000
852.58	88.732
852.75	108.046
852.92	65.366
853.09	107.031
853.26	62.434
853.43	98.113
853.60	71.348
853.77	91.139
853.94	83.212
854.11	71.329
854.28	72.800
854.45	37.500
854.62	62.437
854.79	68.627
854.96	80.000
855.13	71.930
855.30	87.755
855.47	75.862
855.64	70.677
855.81	74.731
855.98	38.889
856.15	24.324
856.32	30.818
856.49	75.194
856.66	57.343
856.83	75.000
857.00	64.052
857.17	64.615
857.34	26.316
857.51	73.381
857.68	57.838
857.85	57.386
858.02	87.407
858.19	68.468
858.36	52.727
858.53	55.484
858.70	61.078
858.87	53.165
859.04	80.645
859.21	62.162
859.38	60.526
859.55	122.388
859.72	78.161
859.89	44.604
860.05	68.468
860.22	70.681
860.39	86.607
860.56	54.962
860.73	107.317
860.90	61.468
861.07	46.711
861.24	67.763
861.41	88.889
861.58	94.792
861.75	49.630
861.92	63.816
862.09	91.852
862.26	78.632
862.43	109.901
862.59	77.941
862.76	73.427
862.93	80.899
863.10	80.952
863.27	21.368
863.44	80.460
863.61	35.766
863.78	76.571
863.95	85.621
864.12	61.494
864.29	94.017
864.45	92.241
864.62	63.842
864.79	55.039
864.96	64.228
865.13	70.270
865.30	94.410
865.47	62.195
865.64	62.590
865.81	62.595
865.97	92.667
866.14	93.197
866.31	76.667
866.48	58.940
866.65	52.564
866.82	59.494
866.99	80.342
867.16	91.729
867.33	123.656
867.49	69.753
867.66	84.536
867.83	39.370
868.00	60.959
868.17	69.421
868.34	83.333
868.51	54.286
868.67	105.063
868.84	67.500
869.01	44.800
869.18	70.213
869.35	56.589
869.52	62.698
869.69	48.630
869.85	85.981
870.02	46.154
870.19	89.831
870.36	93.103
870.53	44.286
870.70	84.277
870.86	33.000
871.03	75.309
871.20	64.220
871.37	88.793
871.54	71.622
871.71	55.000
871.87	33.333
872.04	56.571
872.21	50.435
872.38	89.431
872.55	75.309
872.72	78.125
872.88	66.480
873.05	70.115
873.22	78.912
873.39	56.122
873.56	64.497
873.72	38.235
873.89	61.491
874.06	37.313
874.23	88.983
874.40	58.000
874.56	124.211
874.73	56.098
874.90	103.390
875.07	60.714
875.24	62.112
875.40	103.361
875.57	92.661
875.74	57.600
875.91	61.468
876.08	67.826
876.24	89.535
876.41	104.800
876.58	68.085
876.75	48.936
876.92	75.000
877.08	79.412
877.25	61.739
877.42	86.719
877.59	105.102
877.75	54.667
877.92	29.762
878.09	87.500
878.26	53.892
878.42	64.375
878.59	72.174
878.76	81.579
878.93	84.328
879.09	42.424
879.26	64.634
879.43	65.946
879.60	53.846
879.76	48.864
879.93	71.667
880.10	66.000
880.27	34.783
880.43	56.425
880.60	35.160
880.77	16.477
880.94	47.761
881.10	28.024
881.27	44.918
881.44	27.195
881.61	33.408
881.77	38.241
881.94	27.219
882.11	23.415
882.28	20.874
882.44	26.309
882.61	37.412
882.78	36.717
882.94	44.348
883.11	37.848
883.28	31.961
883.45	33.407
883.61	30.679
883.78	29.800
883.95	38.498
884.11	30.268
884.28	30.026
>>>>>End Processed Spectral Data<<<<<
