SpectraSuite Data File
++++++++++++++++++++++++++++++++++++
Date: Sat Sep 21 03:41:55 EST 2019
User: sgrac
Dark Spectrum Present: Yes
Reference Spectrum Present: Yes
Number of Sampled Component Spectra: 1
Spectrometers: USB4E01596
Integration Time (usec): 100000 (USB4E01596)
Spectra Averaged: 1 (USB4E01596)
Boxcar Smoothing: 0 (USB4E01596)
Correct for Electrical Dark: No (USB4E01596)
Strobe/Lamp Enabled: Yes (USB4E01596)
Correct for Detector Non-linearity: No (USB4E01596)
Correct for Stray Light: No (USB4E01596)
Number of Pixels in Processed Spectrum: 3648
>>>>>Begin Processed Spectral Data<<<<<
178.44	-250.000
178.66	-250.000
178.87	-250.000
179.09	-242.857
179.30	-715.385
179.52	0.000
179.74	-2150.000
179.95	933.333
180.17	546.667
180.38	8400.000
180.60	0.000
180.82	866.667
181.03	-173.684
181.25	273.913
181.46	-316.129
181.68	366.667
181.89	9700.000
182.11	257.143
182.33	-95.556
182.54	-259.375
182.76	-4650.000
182.97	530.000
183.19	2300.000
183.40	196.552
183.62	-155.556
183.84	-237.037
184.05	417.391
184.27	558.333
184.48	800.000
184.70	248.000
184.91	-566.667
185.13	195.556
185.34	-139.286
185.56	168.333
185.78	0.000
185.99	520.000
186.21	341.379
186.42	566.667
186.64	183.871
186.85	203.704
187.07	145.455
187.28	273.333
187.50	-366.667
187.72	1060.000
187.93	-8300.000
188.15	250.000
188.36	-364.706
188.58	-4300.000
188.79	400.000
189.01	208.333
189.22	1760.000
189.44	3600.000
189.65	273.333
189.87	912.500
190.09	-1800.000
190.30	656.250
190.52	-2750.000
190.73	189.286
190.95	185.714
191.16	224.444
191.38	-150.000
191.59	92.857
191.81	238.889
192.02	234.043
192.24	476.471
192.45	-2220.000
192.67	240.000
192.88	541.667
193.10	296.000
193.31	330.000
193.53	-8600.000
193.74	126.829
193.96	245.833
194.18	264.516
194.39	-405.556
194.61	594.737
194.82	361.905
195.04	247.619
195.25	4000.000
195.47	217.073
195.68	227.660
195.90	940.000
196.11	180.000
196.33	176.596
196.54	-2733.333
196.76	350.000
196.97	-2266.667
197.19	360.714
197.40	255.882
197.62	142.188
197.83	152.703
198.05	-405.263
198.26	245.714
198.48	188.889
198.69	176.744
198.91	170.588
199.12	-211.429
199.34	-2080.000
199.55	7700.000
199.77	2475.000
199.98	172.000
200.20	119.718
200.41	657.143
200.63	-477.778
200.84	172.549
201.06	723.077
201.27	235.135
201.49	1100.000
201.70	333.333
201.91	234.783
202.13	128.986
202.34	237.736
202.56	-1442.857
202.77	488.889
202.99	425.000
203.20	2950.000
203.42	1012.500
203.63	209.302
203.85	257.143
204.06	205.556
204.28	-920.000
204.49	265.714
204.71	146.154
204.92	0.000
205.14	-450.000
205.35	527.778
205.56	-1660.000
205.78	438.095
205.99	570.000
206.21	-61.290
206.42	354.839
206.64	289.286
206.85	1800.000
207.07	-315.385
207.28	471.429
207.50	-342.105
207.71	169.231
207.93	179.545
208.14	400.000
208.35	310.526
208.57	-6300.000
208.78	823.077
209.00	388.889
209.21	-2700.000
209.43	165.517
209.64	214.706
209.86	757.143
210.07	0.000
210.28	-476.471
210.50	67.347
210.71	198.246
210.93	347.619
211.14	-322.222
211.36	-229.032
211.57	-71.429
211.78	-82.609
212.00	0.000
212.21	132.558
212.43	-186.364
212.64	134.483
212.86	-475.000
213.07	-359.091
213.29	250.000
213.50	5800.000
213.71	179.245
213.93	1300.000
214.14	146.970
214.36	9700.000
214.57	346.154
214.78	418.750
215.00	3750.000
215.21	216.667
215.43	340.000
215.64	235.897
215.86	188.571
216.07	2500.000
216.28	144.000
216.50	-1114.286
216.71	-1000.000
216.93	197.872
217.14	346.875
217.35	303.704
217.57	267.857
217.78	862.500
218.00	-360.000
218.21	342.105
218.42	-1600.000
218.64	400.000
218.85	-822.222
219.07	564.286
219.28	1725.000
219.49	93.421
219.71	1100.000
219.92	277.778
220.14	279.167
220.35	445.000
220.56	176.923
220.78	370.588
220.99	-4900.000
221.21	490.476
221.42	133.333
221.63	222.500
221.85	145.161
222.06	267.857
222.28	222.727
222.49	-3550.000
222.70	0.000
222.92	288.889
223.13	256.667
223.34	-1000.000
223.56	134.211
223.77	104.494
223.99	230.769
224.20	73.810
224.41	205.405
224.63	269.444
224.84	187.931
225.05	160.714
225.27	80.000
225.48	158.696
225.69	871.429
225.91	288.889
226.12	255.556
226.34	90.196
226.55	105.556
226.76	135.484
226.98	90.000
227.19	95.455
227.40	41.322
227.62	106.098
227.83	53.000
228.04	59.341
228.26	67.327
228.47	58.621
228.69	33.553
228.90	83.099
229.11	44.444
229.33	39.130
229.54	29.605
229.75	39.565
229.97	29.614
230.18	32.258
230.39	18.143
230.61	23.270
230.82	40.249
231.03	5.394
231.25	24.579
231.46	23.723
231.67	45.059
231.89	49.412
232.10	28.745
232.31	38.942
232.53	25.424
232.74	39.062
232.95	57.229
233.17	46.821
233.38	23.881
233.59	48.529
233.81	47.573
234.02	28.947
234.23	37.968
234.45	65.132
234.66	58.192
234.87	59.732
235.09	34.074
235.30	43.678
235.51	43.204
235.73	30.818
235.94	39.378
236.15	52.041
236.36	26.984
236.58	36.019
236.79	42.408
237.00	26.087
237.22	27.160
237.43	52.941
237.64	11.790
237.86	34.239
238.07	44.221
238.28	30.601
238.50	29.565
238.71	44.970
238.92	35.119
239.13	25.714
239.35	37.063
239.56	51.563
239.77	49.268
239.99	14.151
240.20	15.789
240.41	19.397
240.63	21.862
240.84	21.514
241.05	28.832
241.26	23.140
241.48	30.678
241.69	15.190
241.90	20.000
242.12	19.643
242.33	20.905
242.54	18.337
242.75	20.493
242.97	18.966
243.18	14.983
243.39	15.774
243.61	10.945
243.82	16.783
244.03	11.942
244.24	7.515
244.46	17.185
244.67	8.982
244.88	14.085
245.09	19.533
245.31	5.566
245.52	26.103
245.73	20.623
245.95	25.160
246.16	13.666
246.37	18.992
246.58	19.065
246.80	12.600
247.01	8.748
247.22	12.597
247.43	9.775
247.65	12.392
247.86	4.985
248.07	9.532
248.28	4.423
248.50	6.953
248.71	7.636
248.92	7.060
249.13	8.498
249.35	8.828
249.56	11.574
249.77	8.797
249.98	8.795
250.20	7.444
250.41	11.508
250.62	11.687
250.83	12.224
251.05	7.384
251.26	9.982
251.47	15.315
251.68	16.636
251.90	22.283
252.11	13.937
252.32	14.503
252.53	17.342
252.75	6.720
252.96	16.667
253.17	13.870
253.38	18.108
253.59	11.158
253.81	16.187
254.02	14.630
254.23	14.949
254.44	16.797
254.66	8.760
254.87	17.329
255.08	9.341
255.29	13.855
255.50	14.194
255.72	15.826
255.93	26.277
256.14	24.773
256.35	16.159
256.57	17.848
256.78	24.658
256.99	22.513
257.20	24.272
257.41	22.153
257.63	12.474
257.84	22.407
258.05	11.250
258.26	7.748
258.47	17.710
258.69	15.385
258.90	6.832
259.11	3.120
259.32	7.724
259.53	6.568
259.75	3.716
259.96	4.708
260.17	6.643
260.38	2.589
260.59	7.111
260.81	7.471
261.02	7.328
261.23	8.854
261.44	6.729
261.65	3.972
261.87	4.970
262.08	4.489
262.29	5.436
262.50	8.465
262.71	9.492
262.92	9.552
263.14	8.939
263.35	6.820
263.56	3.294
263.77	14.253
263.98	11.376
264.20	15.026
264.41	4.420
264.62	12.534
264.83	8.475
265.04	15.202
265.25	13.227
265.47	11.027
265.68	14.431
265.89	7.488
266.10	10.033
266.31	17.212
266.52	13.592
266.74	1.826
266.95	7.199
267.16	8.634
267.37	6.875
267.58	4.881
267.79	9.900
268.01	8.022
268.22	10.579
268.43	6.701
268.64	9.424
268.85	9.605
269.06	6.515
269.27	14.178
269.49	3.638
269.70	7.071
269.91	12.166
270.12	5.061
270.33	10.011
270.54	10.744
270.75	0.234
270.97	12.860
271.18	9.436
271.39	8.603
271.60	10.537
271.81	8.388
272.02	10.465
272.23	10.896
272.45	10.512
272.66	4.655
272.87	5.973
273.08	3.527
273.29	8.641
273.50	5.192
273.71	6.079
273.92	8.212
274.14	-1.174
274.35	4.858
274.56	11.420
274.77	2.308
274.98	8.681
275.19	5.773
275.40	8.512
275.61	5.476
275.83	12.464
276.04	6.576
276.25	10.588
276.46	7.823
276.67	9.138
276.88	7.446
277.09	5.253
277.30	6.029
277.51	10.185
277.73	5.100
277.94	10.063
278.15	6.551
278.36	8.105
278.57	6.865
278.78	10.600
278.99	8.780
279.20	6.852
279.41	10.874
279.62	6.303
279.84	8.441
280.05	9.408
280.26	9.006
280.47	6.754
280.68	6.114
280.89	10.769
281.10	8.803
281.31	4.943
281.52	11.101
281.73	5.434
281.94	8.273
282.16	7.866
282.37	7.959
282.58	10.513
282.79	10.663
283.00	10.025
283.21	4.274
283.42	3.159
283.63	4.125
283.84	5.678
284.05	5.301
284.26	7.382
284.47	7.891
284.68	7.797
284.89	4.104
285.11	2.458
285.32	4.974
285.53	5.196
285.74	7.366
285.95	5.342
286.16	5.820
286.37	5.729
286.58	5.720
286.79	5.702
287.00	5.900
287.21	4.923
287.42	4.911
287.63	2.948
287.84	5.597
288.05	4.227
288.26	6.553
288.48	6.208
288.69	6.720
288.90	2.117
289.11	8.872
289.32	5.899
289.53	3.812
289.74	2.286
289.95	5.166
290.16	8.974
290.37	6.334
290.58	6.354
290.79	6.199
291.00	7.249
291.21	2.769
291.42	2.447
291.63	4.609
291.84	8.328
292.05	4.775
292.26	4.805
292.47	6.641
292.68	5.753
292.89	6.951
293.10	5.255
293.31	6.926
293.52	3.328
293.73	7.309
293.94	6.770
294.15	6.360
294.36	1.946
294.57	5.023
294.79	8.611
295.00	6.461
295.21	7.471
295.42	5.498
295.63	6.495
295.84	5.245
296.05	6.294
296.26	5.304
296.47	5.801
296.68	7.843
296.89	2.981
297.10	5.593
297.31	5.308
297.52	7.774
297.73	4.555
297.94	5.192
298.15	3.633
298.36	5.821
298.57	3.125
298.78	6.709
298.99	2.724
299.20	3.580
299.41	5.654
299.62	8.049
299.83	4.432
300.04	4.198
300.25	5.572
300.46	5.516
300.67	5.688
300.88	3.916
301.09	5.930
301.30	5.299
301.50	6.935
301.71	6.080
301.92	5.414
302.13	6.206
302.34	4.122
302.55	5.018
302.76	5.708
302.97	8.861
303.18	3.816
303.39	4.079
303.60	4.805
303.81	6.098
304.02	5.696
304.23	7.897
304.44	5.274
304.65	5.041
304.86	4.853
305.07	6.192
305.28	5.809
305.49	7.089
305.70	5.321
305.91	8.768
306.12	3.885
306.33	3.599
306.54	4.989
306.75	8.797
306.96	6.961
307.17	7.040
307.38	4.122
307.58	4.138
307.79	6.454
308.00	6.486
308.21	6.559
308.42	7.313
308.63	8.315
308.84	8.357
309.05	4.012
309.26	6.596
309.47	4.955
309.68	3.451
309.89	6.308
310.10	5.611
310.31	4.798
310.52	2.604
310.73	6.750
310.94	4.488
311.14	3.528
311.35	3.956
311.56	4.146
311.77	3.818
311.98	4.705
312.19	4.022
312.40	3.917
312.61	3.027
312.82	3.978
313.03	4.827
313.24	4.590
313.45	5.207
313.66	4.826
313.86	5.629
314.07	3.734
314.28	4.118
314.49	3.966
314.70	3.331
314.91	7.834
315.12	8.384
315.33	4.031
315.54	3.777
315.75	5.231
315.96	5.099
316.16	5.310
316.37	7.192
316.58	4.144
316.79	5.523
317.00	7.379
317.21	3.830
317.42	2.716
317.63	5.845
317.84	10.144
318.05	8.263
318.25	8.535
318.46	6.255
318.67	1.622
318.88	4.039
319.09	5.882
319.30	6.022
319.51	6.236
319.72	8.005
319.93	4.896
320.13	8.062
320.34	9.220
320.55	3.994
320.76	8.128
320.97	5.718
321.18	8.056
321.39	7.976
321.60	7.881
321.80	12.599
322.01	7.393
322.22	4.673
322.43	4.186
322.64	5.509
322.85	1.919
323.06	8.668
323.27	8.680
323.47	6.808
323.68	8.067
323.89	4.120
324.10	7.593
324.31	5.198
324.52	7.762
324.73	6.299
324.93	5.641
325.14	3.127
325.35	4.890
325.56	6.426
325.77	6.568
325.98	5.489
326.19	7.869
326.39	4.112
326.60	4.780
326.81	4.690
327.02	7.421
327.23	4.053
327.44	8.432
327.64	5.012
327.85	4.071
328.06	7.515
328.27	8.397
328.48	5.756
328.69	4.762
328.90	5.616
329.10	6.768
329.31	1.808
329.52	6.063
329.73	6.415
329.94	4.432
330.15	7.076
330.35	6.969
330.56	7.584
330.77	4.117
330.98	5.776
331.19	6.680
331.39	8.458
331.60	5.825
331.81	7.859
332.02	7.497
332.23	7.275
332.44	6.069
332.64	3.274
332.85	7.148
333.06	8.571
333.27	3.072
333.48	5.647
333.68	7.531
333.89	8.251
334.10	3.925
334.31	10.436
334.52	5.860
334.72	7.636
334.93	6.018
335.14	5.696
335.35	6.355
335.56	6.704
335.76	4.663
335.97	11.463
336.18	8.035
336.39	4.641
336.60	7.998
336.80	6.634
337.01	5.769
337.22	6.087
337.43	7.104
337.64	7.522
337.84	7.692
338.05	6.996
338.26	9.205
338.47	7.724
338.68	3.023
338.88	6.012
339.09	7.545
339.30	5.865
339.51	4.711
339.71	9.397
339.92	7.785
340.13	9.404
340.34	5.425
340.55	6.272
340.75	8.419
340.96	5.982
341.17	8.166
341.38	6.836
341.58	6.232
341.79	5.559
342.00	6.268
342.21	6.378
342.41	5.699
342.62	6.670
342.83	8.371
343.04	3.195
343.24	7.307
343.45	8.218
343.66	7.007
343.87	9.556
344.07	8.149
344.28	6.317
344.49	10.070
344.70	10.044
344.90	5.559
345.11	6.374
345.32	7.298
345.53	6.287
345.73	8.032
345.94	9.373
346.15	9.712
346.36	6.839
346.56	6.951
346.77	8.815
346.98	7.835
347.19	9.813
347.39	8.980
347.60	6.231
347.81	9.433
348.02	8.321
348.22	5.642
348.43	7.598
348.64	7.777
348.84	8.948
349.05	9.559
349.26	11.556
349.47	6.067
349.67	7.054
349.88	11.018
350.09	8.476
350.30	11.686
350.50	6.410
350.71	11.305
350.92	9.707
351.12	10.161
351.33	8.463
351.54	10.416
351.74	11.053
351.95	7.571
352.16	11.498
352.37	11.410
352.57	5.733
352.78	7.353
352.99	10.675
353.19	8.551
353.40	9.110
353.61	12.311
353.82	8.819
354.02	11.146
354.23	10.798
354.44	9.521
354.64	11.972
354.85	10.076
355.06	9.298
355.26	6.302
355.47	9.204
355.68	11.028
355.88	11.961
356.09	8.802
356.30	9.256
356.51	12.580
356.71	10.514
356.92	7.537
357.13	10.450
357.33	11.925
357.54	7.383
357.75	8.786
357.95	10.961
358.16	9.349
358.37	14.044
358.57	8.994
358.78	14.781
358.99	9.475
359.19	9.506
359.40	11.245
359.61	9.191
359.81	10.689
360.02	11.496
360.23	7.692
360.43	10.409
360.64	9.221
360.85	9.454
361.05	6.842
361.26	12.514
361.47	8.829
361.67	13.283
361.88	7.280
362.09	11.610
362.29	8.302
362.50	8.495
362.70	7.369
362.91	11.312
363.12	7.716
363.32	8.429
363.53	8.738
363.74	12.339
363.94	6.401
364.15	12.140
364.36	9.575
364.56	7.785
364.77	9.883
364.98	13.284
365.18	10.071
365.39	11.136
365.59	8.720
365.80	9.470
366.01	11.103
366.21	8.500
366.42	6.631
366.63	10.781
366.83	8.253
367.04	5.630
367.24	10.642
367.45	8.918
367.66	5.821
367.86	8.862
368.07	7.448
368.28	7.704
368.48	8.058
368.69	6.421
368.89	8.383
369.10	9.003
369.31	9.303
369.51	7.565
369.72	11.000
369.92	11.517
370.13	6.559
370.34	10.012
370.54	6.439
370.75	10.292
370.95	7.521
371.16	8.918
371.37	7.413
371.57	8.193
371.78	8.956
371.98	9.174
372.19	10.346
372.40	8.685
372.60	10.365
372.81	8.242
373.01	4.909
373.22	7.724
373.43	8.137
373.63	11.017
373.84	7.201
374.04	9.124
374.25	6.564
374.46	9.298
374.66	6.871
374.87	7.253
375.07	5.363
375.28	7.886
375.48	8.257
375.69	9.333
375.90	6.000
376.10	6.254
376.31	5.784
376.51	7.485
376.72	6.246
376.92	6.049
377.13	9.640
377.34	8.795
377.54	6.705
377.75	8.599
377.95	8.468
378.16	9.153
378.36	6.987
378.57	9.565
378.77	7.199
378.98	9.253
379.19	7.954
379.39	6.112
379.60	6.430
379.80	8.162
380.01	8.293
380.21	6.565
380.42	7.319
380.62	7.111
380.83	9.300
381.04	7.089
381.24	7.450
381.45	6.373
381.65	5.706
381.86	7.346
382.06	9.396
382.27	3.263
382.47	5.482
382.68	9.975
382.88	5.204
383.09	5.930
383.29	6.256
383.50	8.142
383.71	6.713
383.91	6.883
384.12	4.626
384.32	6.560
384.53	6.072
384.73	3.728
384.94	5.149
385.14	5.376
385.35	4.622
385.55	6.017
385.76	4.689
385.96	7.338
386.17	6.171
386.37	7.558
386.58	6.923
386.78	5.460
386.99	3.910
387.19	6.949
387.40	4.817
387.60	9.308
387.81	6.363
388.01	5.876
388.22	7.393
388.42	7.768
388.63	6.486
388.83	8.588
389.04	4.646
389.24	7.139
389.45	5.580
389.65	4.039
389.86	6.196
390.06	4.165
390.27	5.240
390.47	5.214
390.68	4.778
390.88	7.238
391.09	7.098
391.29	5.876
391.50	6.387
391.70	5.767
391.91	5.478
392.11	5.273
392.32	4.827
392.52	7.115
392.73	6.574
392.93	5.942
393.14	6.147
393.34	5.388
393.55	6.232
393.75	6.117
393.95	4.714
394.16	6.430
394.36	6.820
394.57	8.165
394.77	5.502
394.98	5.478
395.18	7.445
395.39	5.785
395.59	5.427
395.80	5.847
396.00	5.778
396.21	6.896
396.41	5.521
396.61	8.047
396.82	6.483
397.02	8.348
397.23	6.587
397.43	6.115
397.64	4.511
397.84	7.578
398.05	4.226
398.25	6.063
398.45	5.411
398.66	7.802
398.86	6.091
399.07	6.642
399.27	4.955
399.48	6.579
399.68	5.105
399.89	5.273
400.09	7.657
400.29	4.685
400.50	4.741
400.70	5.793
400.91	4.960
401.11	5.765
401.32	6.516
401.52	4.065
401.72	5.348
401.93	7.998
402.13	5.859
402.34	6.276
402.54	4.505
402.75	8.009
402.95	4.682
403.15	6.886
403.36	4.629
403.56	5.527
403.77	5.373
403.97	5.322
404.17	4.223
404.38	6.474
404.58	5.106
404.79	6.354
404.99	5.261
405.19	5.802
405.40	4.159
405.60	5.972
405.81	6.405
406.01	4.521
406.21	4.784
406.42	5.800
406.62	4.586
406.83	5.613
407.03	5.618
407.23	3.482
407.44	4.725
407.64	7.013
407.85	6.253
408.05	3.778
408.25	4.946
408.46	6.729
408.66	5.237
408.87	5.117
409.07	5.028
409.27	4.514
409.48	5.731
409.68	5.749
409.88	4.130
410.09	5.441
410.29	5.224
410.50	6.295
410.70	2.273
410.90	5.500
411.11	2.929
411.31	4.854
411.51	6.247
411.72	6.186
411.92	3.992
412.12	4.817
412.33	4.455
412.53	5.013
412.74	3.248
412.94	3.833
413.14	4.550
413.35	5.450
413.55	4.224
413.75	6.866
413.96	4.744
414.16	4.309
414.36	5.545
414.57	4.154
414.77	4.797
414.97	4.527
415.18	5.341
415.38	5.434
415.58	4.483
415.79	3.484
415.99	5.070
416.19	5.965
416.40	5.060
416.60	5.489
416.80	5.008
417.01	4.766
417.21	4.094
417.41	6.460
417.62	4.722
417.82	5.583
418.02	3.942
418.23	5.061
418.43	5.262
418.63	5.438
418.84	5.880
419.04	4.550
419.24	5.647
419.45	7.470
419.65	6.825
419.85	6.612
420.06	5.687
420.26	6.711
420.46	6.092
420.67	6.863
420.87	6.595
421.07	7.596
421.28	5.719
421.48	7.471
421.68	6.563
421.88	7.716
422.09	6.594
422.29	6.645
422.49	5.936
422.70	6.872
422.90	5.871
423.10	7.294
423.31	6.999
423.51	7.830
423.71	5.888
423.91	8.122
424.12	7.013
424.32	6.665
424.52	6.423
424.73	7.425
424.93	6.783
425.13	6.202
425.33	5.910
425.54	7.589
425.74	5.708
425.94	7.482
426.15	7.034
426.35	6.331
426.55	6.611
426.75	7.581
426.96	7.190
427.16	6.611
427.36	6.367
427.57	8.011
427.77	6.172
427.97	6.685
428.17	6.807
428.38	6.827
428.58	3.441
428.78	6.471
428.98	5.046
429.19	5.474
429.39	4.019
429.59	5.760
429.79	4.004
430.00	3.558
430.20	3.586
430.40	5.206
430.60	4.936
430.81	5.650
431.01	4.231
431.21	6.198
431.41	3.908
431.62	5.709
431.82	4.949
432.02	5.814
432.22	4.406
432.43	4.061
432.63	3.695
432.83	4.904
433.03	5.485
433.24	3.711
433.44	5.340
433.64	5.452
433.84	4.956
434.05	6.091
434.25	4.693
434.45	6.283
434.65	5.685
434.85	6.946
435.06	6.004
435.26	5.194
435.46	4.857
435.66	5.906
435.87	5.252
436.07	5.572
436.27	5.436
436.47	4.911
436.67	4.354
436.88	5.640
437.08	5.415
437.28	5.248
437.48	4.744
437.69	6.645
437.89	5.153
438.09	7.293
438.29	5.180
438.49	6.288
438.70	5.367
438.90	4.653
439.10	4.852
439.30	6.228
439.50	4.012
439.71	6.190
439.91	5.002
440.11	7.016
440.31	6.023
440.51	5.450
440.72	5.326
440.92	6.204
441.12	6.415
441.32	7.397
441.52	6.565
441.72	7.424
441.93	5.783
442.13	7.760
442.33	5.632
442.53	7.488
442.73	4.955
442.94	6.321
443.14	5.040
443.34	7.492
443.54	6.801
443.74	7.072
443.94	5.754
444.15	5.322
444.35	5.056
444.55	7.106
444.75	5.304
444.95	6.743
445.15	5.906
445.36	6.290
445.56	4.744
445.76	6.284
445.96	5.831
446.16	5.572
446.36	4.861
446.57	7.203
446.77	4.728
446.97	7.141
447.17	6.917
447.37	6.690
447.57	6.641
447.77	7.259
447.98	6.474
448.18	7.984
448.38	6.162
448.58	7.943
448.78	6.721
448.98	6.599
449.18	5.816
449.39	5.990
449.59	5.612
449.79	5.534
449.99	5.671
450.19	6.732
450.39	5.853
450.59	6.079
450.79	5.566
451.00	6.765
451.20	5.972
451.40	5.553
451.60	4.425
451.80	6.103
452.00	4.848
452.20	5.897
452.40	4.686
452.61	5.079
452.81	5.012
453.01	6.164
453.21	4.388
453.41	5.705
453.61	5.532
453.81	5.434
454.01	5.206
454.21	5.199
454.42	6.257
454.62	6.283
454.82	4.858
455.02	5.050
455.22	4.497
455.42	4.997
455.62	3.648
455.82	5.314
456.02	4.701
456.23	5.273
456.43	4.664
456.63	6.024
456.83	4.177
457.03	6.095
457.23	5.121
457.43	5.633
457.63	3.948
457.83	5.130
458.03	3.778
458.23	5.522
458.43	4.536
458.64	4.856
458.84	4.999
459.04	4.842
459.24	4.666
459.44	6.349
459.64	6.071
459.84	5.823
460.04	5.855
460.24	6.296
460.44	5.980
460.64	6.767
460.84	5.893
461.04	7.561
461.24	6.776
461.45	8.164
461.65	6.679
461.85	7.001
462.05	6.706
462.25	7.209
462.45	7.039
462.65	6.656
462.85	5.475
463.05	6.943
463.25	4.113
463.45	5.974
463.65	5.281
463.85	6.056
464.05	4.503
464.25	5.227
464.45	5.936
464.65	4.888
464.85	4.588
465.05	5.661
465.26	5.163
465.46	5.670
465.66	5.462
465.86	4.931
466.06	5.499
466.26	5.480
466.46	4.422
466.66	5.048
466.86	5.170
467.06	5.818
467.26	5.543
467.46	6.058
467.66	5.051
467.86	5.754
468.06	5.903
468.26	4.695
468.46	6.098
468.66	5.787
468.86	4.211
469.06	6.605
469.26	4.306
469.46	5.819
469.66	4.309
469.86	6.021
470.06	4.786
470.26	6.818
470.46	5.040
470.66	6.329
470.86	4.340
471.06	6.048
471.26	4.141
471.46	4.588
471.66	5.934
471.86	5.922
472.06	5.159
472.26	6.269
472.46	6.577
472.66	6.020
472.86	4.258
473.06	4.891
473.26	5.380
473.46	5.665
473.66	4.802
473.86	6.475
474.06	5.290
474.26	5.635
474.46	4.151
474.66	5.756
474.86	5.667
475.06	6.536
475.26	3.587
475.46	5.926
475.66	4.527
475.86	6.534
476.06	6.344
476.26	6.555
476.46	4.663
476.66	5.871
476.86	5.128
477.06	5.548
477.26	5.096
477.46	5.864
477.65	5.001
477.85	6.697
478.05	4.419
478.25	6.793
478.45	5.129
478.65	5.921
478.85	5.232
479.05	6.987
479.25	6.532
479.45	7.645
479.65	4.931
479.85	6.638
480.05	5.520
480.25	6.772
480.45	6.410
480.65	7.282
480.85	5.324
481.05	7.018
481.25	6.933
481.44	6.645
481.64	5.036
481.84	7.309
482.04	6.682
482.24	7.210
482.44	5.534
482.64	7.008
482.84	7.099
483.04	8.116
483.24	7.069
483.44	7.797
483.64	7.225
483.84	7.860
484.04	7.937
484.23	8.312
484.43	8.209
484.63	8.171
484.83	8.302
485.03	8.395
485.23	8.475
485.43	8.888
485.63	8.636
485.83	8.866
486.03	8.838
486.23	9.096
486.42	8.687
486.62	8.867
486.82	8.207
487.02	8.917
487.22	8.157
487.42	8.731
487.62	8.318
487.82	8.391
488.02	7.725
488.22	8.246
488.41	8.140
488.61	8.356
488.81	8.394
489.01	8.441
489.21	8.184
489.41	8.806
489.61	8.340
489.81	8.586
490.01	8.220
490.20	9.067
490.40	8.234
490.60	8.743
490.80	8.393
491.00	8.383
491.20	7.621
491.40	8.159
491.60	7.926
491.79	8.121
491.99	8.315
492.19	8.457
492.39	8.151
492.59	8.402
492.79	8.298
492.99	8.540
493.19	8.589
493.38	8.833
493.58	8.118
493.78	8.947
493.98	8.807
494.18	9.100
494.38	8.251
494.58	8.953
494.77	5.727
494.97	7.572
495.17	7.062
495.37	8.129
495.57	7.090
495.77	7.215
495.96	6.849
496.16	6.834
496.36	6.522
496.56	8.051
496.76	6.056
496.96	7.312
497.15	6.569
497.35	7.110
497.55	6.466
497.75	7.761
497.95	6.348
498.15	8.107
498.34	7.040
498.54	7.605
498.74	7.783
498.94	8.402
499.14	6.642
499.34	8.454
499.53	7.198
499.73	7.996
499.93	6.986
500.13	7.849
500.33	5.881
500.52	7.310
500.72	6.564
500.92	6.971
501.12	6.011
501.32	7.176
501.52	6.595
501.71	6.317
501.91	5.983
502.11	6.810
502.31	6.135
502.51	7.743
502.70	5.340
502.90	7.280
503.10	5.923
503.30	7.029
503.50	7.073
503.69	7.014
503.89	6.165
504.09	7.542
504.29	6.680
504.48	7.478
504.68	7.626
504.88	7.613
505.08	6.266
505.28	6.850
505.47	6.601
505.67	8.560
505.87	6.850
506.07	7.421
506.27	6.390
506.46	7.280
506.66	6.271
506.86	7.855
507.06	7.611
507.25	7.057
507.45	7.116
507.65	8.031
507.85	5.728
508.04	7.427
508.24	7.337
508.44	7.945
508.64	6.966
508.83	7.595
509.03	7.093
509.23	8.285
509.43	6.558
509.63	7.986
509.82	7.111
510.02	8.166
510.22	7.316
510.42	8.418
510.61	7.888
510.81	7.955
511.01	7.927
511.21	8.337
511.40	7.728
511.60	8.723
511.80	7.359
511.99	8.375
512.19	8.059
512.39	9.469
512.59	7.371
512.78	8.337
512.98	8.128
513.18	8.078
513.38	7.087
513.57	8.719
513.77	8.064
513.97	8.098
514.17	7.520
514.36	8.317
514.56	7.851
514.76	8.772
514.95	6.710
515.15	8.276
515.35	5.980
515.55	8.325
515.74	7.834
515.94	8.669
516.14	7.250
516.33	7.873
516.53	7.462
516.73	7.501
516.93	7.048
517.12	8.869
517.32	6.416
517.52	8.297
517.71	7.555
517.91	8.246
518.11	7.960
518.30	8.741
518.50	6.608
518.70	9.059
518.90	9.139
519.09	9.198
519.29	8.496
519.49	9.423
519.68	8.138
519.88	8.923
520.08	8.940
520.27	9.311
520.47	9.105
520.67	9.202
520.86	9.213
521.06	9.924
521.26	7.684
521.45	9.630
521.65	7.885
521.85	9.007
522.04	7.508
522.24	9.351
522.44	7.446
522.63	8.908
522.83	7.471
523.03	8.908
523.22	7.985
523.42	9.025
523.62	8.302
523.81	8.199
524.01	8.805
524.21	8.335
524.40	7.932
524.60	8.946
524.80	7.194
524.99	8.286
525.19	8.225
525.39	9.183
525.58	7.950
525.78	9.110
525.98	8.471
526.17	9.564
526.37	9.484
526.57	9.803
526.76	9.279
526.96	9.580
527.15	8.992
527.35	9.645
527.55	8.926
527.74	10.114
527.94	9.295
528.14	9.659
528.33	9.159
528.53	9.567
528.72	9.705
528.92	9.598
529.12	9.567
529.31	9.686
529.51	9.622
529.71	10.209
529.90	9.983
530.10	9.879
530.29	10.231
530.49	10.362
530.69	10.447
530.88	10.475
531.08	10.157
531.28	10.369
531.47	10.320
531.67	10.210
531.86	9.877
532.06	10.045
532.26	9.627
532.45	10.025
532.65	9.328
532.84	9.543
533.04	9.173
533.24	9.550
533.43	9.884
533.63	10.157
533.82	10.046
534.02	10.110
534.22	10.078
534.41	9.856
534.61	10.195
534.80	10.025
535.00	10.290
535.19	10.211
535.39	10.090
535.59	10.173
535.78	9.967
535.98	10.581
536.17	9.753
536.37	9.712
536.57	9.940
536.76	10.264
536.96	9.917
537.15	10.272
537.35	9.438
537.54	10.499
537.74	10.219
537.93	10.583
538.13	9.894
538.33	10.474
538.52	9.572
538.72	10.847
538.91	10.388
539.11	9.961
539.30	9.016
539.50	10.559
539.70	9.532
539.89	10.923
540.09	9.530
540.28	10.027
540.48	8.854
540.67	10.396
540.87	9.808
541.06	10.463
541.26	9.453
541.45	10.827
541.65	10.541
541.85	10.763
542.04	10.256
542.24	11.009
542.43	10.596
542.63	10.957
542.82	10.870
543.02	10.944
543.21	11.282
543.41	10.861
543.60	11.598
543.80	11.327
543.99	11.125
544.19	11.342
544.38	11.105
544.58	11.256
544.77	10.864
544.97	11.434
545.16	11.083
545.36	11.493
545.56	10.986
545.75	11.352
545.95	10.324
546.14	11.717
546.34	10.420
546.53	11.348
546.73	11.163
546.92	11.108
547.12	10.622
547.31	11.308
547.51	10.284
547.70	11.649
547.90	10.837
548.09	11.572
548.29	11.066
548.48	11.535
548.68	10.911
548.87	11.698
549.07	10.526
549.26	11.582
549.46	10.970
549.65	11.695
549.84	9.887
550.04	11.567
550.23	9.461
550.43	11.097
550.62	10.519
550.82	9.894
551.01	9.234
551.21	10.721
551.40	10.131
551.60	11.086
551.79	9.296
551.99	11.180
552.18	10.526
552.38	11.739
552.57	10.638
552.77	11.447
552.96	11.266
553.16	12.127
553.35	10.637
553.54	12.987
553.74	11.294
553.93	11.716
554.13	11.988
554.32	12.870
554.52	11.353
554.71	12.630
554.91	11.762
555.10	12.875
555.29	10.954
555.49	12.198
555.68	10.829
555.88	13.107
556.07	10.735
556.27	12.389
556.46	12.435
556.66	12.174
556.85	12.569
557.04	13.093
557.24	11.713
557.43	13.349
557.63	12.500
557.82	12.175
558.02	11.060
558.21	13.500
558.40	11.516
558.60	13.529
558.79	12.335
558.99	12.391
559.18	12.489
559.38	13.625
559.57	12.548
559.76	14.031
559.96	13.416
560.15	14.336
560.35	12.887
560.54	13.976
560.73	11.713
560.93	13.960
561.12	12.241
561.32	14.328
561.51	12.675
561.70	13.977
561.90	13.828
562.09	15.832
562.29	12.437
562.48	15.157
562.67	13.881
562.87	15.051
563.06	14.642
563.26	15.779
563.45	14.346
563.64	16.270
563.84	14.800
564.03	16.340
564.23	14.535
564.42	15.651
564.61	14.985
564.81	16.116
565.00	15.502
565.20	17.156
565.39	15.624
565.58	16.401
565.78	15.477
565.97	16.991
566.16	16.580
566.36	17.735
566.55	16.179
566.74	17.020
566.94	16.271
567.13	17.853
567.33	17.006
567.52	17.786
567.71	16.782
567.91	18.220
568.10	18.066
568.29	17.517
568.49	17.309
568.68	18.520
568.87	17.344
569.07	18.135
569.26	18.506
569.45	18.573
569.65	16.335
569.84	18.707
570.04	17.448
570.23	17.881
570.42	16.997
570.62	18.594
570.81	18.078
571.00	18.948
571.20	16.944
571.39	19.164
571.58	19.387
571.78	18.831
571.97	18.791
572.16	19.717
572.36	17.903
572.55	19.493
572.74	18.911
572.94	18.384
573.13	19.254
573.32	20.311
573.51	19.393
573.71	20.296
573.90	19.245
574.09	19.441
574.29	19.049
574.48	20.012
574.67	19.002
574.87	19.306
575.06	19.591
575.25	19.738
575.45	18.808
575.64	20.017
575.83	20.010
576.03	21.478
576.22	19.595
576.41	21.158
576.60	19.323
576.80	19.422
576.99	19.293
577.18	20.184
577.38	19.885
577.57	20.333
577.76	19.744
577.95	20.333
578.15	19.315
578.34	20.890
578.53	19.855
578.73	21.619
578.92	19.249
579.11	20.776
579.30	18.812
579.50	21.276
579.69	19.286
579.88	20.275
580.08	18.904
580.27	19.990
580.46	19.476
580.65	19.997
580.85	18.841
581.04	19.509
581.23	18.527
581.42	19.552
581.62	19.082
581.81	20.097
582.00	19.307
582.19	20.021
582.39	18.900
582.58	19.143
582.77	20.510
582.96	20.250
583.16	18.496
583.35	19.928
583.54	19.435
583.73	19.387
583.93	19.534
584.12	18.673
584.31	19.109
584.50	20.497
584.70	18.923
584.89	19.671
585.08	18.688
585.27	19.978
585.47	18.197
585.66	20.095
585.85	17.649
586.04	19.568
586.24	18.781
586.43	17.582
586.62	18.393
586.81	19.863
587.00	16.832
587.20	20.352
587.39	16.940
587.58	21.523
587.77	18.460
587.97	18.842
588.16	18.729
588.35	19.384
588.54	19.123
588.73	19.228
588.93	20.357
589.12	19.698
589.31	18.677
589.50	18.664
589.69	18.642
589.89	20.142
590.08	18.048
590.27	18.926
590.46	18.233
590.65	18.791
590.85	17.852
591.04	20.007
591.23	18.520
591.42	20.812
591.61	18.561
591.81	19.384
592.00	18.349
592.19	20.330
592.38	18.784
592.57	19.869
592.77	17.983
592.96	18.783
593.15	19.444
593.34	20.114
593.53	18.394
593.72	20.085
593.92	18.894
594.11	20.102
594.30	19.303
594.49	19.324
594.68	19.229
594.87	19.114
595.07	18.951
595.26	21.030
595.45	18.292
595.64	20.337
595.83	18.052
596.02	19.906
596.22	19.292
596.41	20.073
596.60	18.684
596.79	20.350
596.98	20.166
597.17	20.363
597.37	19.517
597.56	21.292
597.75	19.917
597.94	20.909
598.13	20.539
598.32	20.522
598.51	20.434
598.71	22.211
598.90	20.803
599.09	21.027
599.28	20.994
599.47	22.443
599.66	19.457
599.85	21.962
600.05	20.121
600.24	21.065
600.43	20.554
600.62	21.196
600.81	20.371
601.00	21.024
601.19	18.905
601.38	21.073
601.58	21.397
601.77	20.012
601.96	21.296
602.15	21.603
602.34	18.388
602.53	22.207
602.72	20.603
602.91	21.062
603.10	20.519
603.30	21.533
603.49	21.051
603.68	22.461
603.87	20.574
604.06	22.245
604.25	21.028
604.44	21.613
604.63	21.330
604.82	21.815
605.01	22.142
605.21	22.377
605.40	21.288
605.59	22.521
605.78	20.772
605.97	22.402
606.16	21.697
606.35	22.194
606.54	21.409
606.73	21.306
606.92	21.118
607.11	21.448
607.30	21.276
607.50	21.971
607.69	20.658
607.88	21.634
608.07	19.114
608.26	21.833
608.45	20.935
608.64	22.342
608.83	20.521
609.02	21.631
609.21	19.676
609.40	21.967
609.59	20.636
609.78	21.637
609.97	20.231
610.16	21.008
610.35	20.810
610.55	21.174
610.74	21.309
610.93	21.022
611.12	21.200
611.31	21.661
611.50	19.869
611.69	21.070
611.88	20.107
612.07	21.423
612.26	18.291
612.45	20.548
612.64	18.721
612.83	19.827
613.02	17.376
613.21	19.581
613.40	18.817
613.59	19.614
613.78	17.283
613.97	19.302
614.16	19.236
614.35	18.638
614.54	16.659
614.73	18.834
614.92	17.069
615.11	17.813
615.30	15.747
615.49	18.724
615.68	16.279
615.87	17.654
616.07	16.596
616.26	17.980
616.45	16.215
616.64	17.720
616.83	17.162
617.02	18.244
617.21	15.749
617.40	16.205
617.59	16.304
617.78	17.426
617.97	17.689
618.16	16.294
618.35	13.953
618.54	16.640
618.73	15.858
618.92	16.776
619.11	15.641
619.30	18.429
619.49	14.198
619.68	16.591
619.86	15.422
620.05	17.312
620.24	15.013
620.43	15.789
620.62	14.272
620.81	17.173
621.00	16.574
621.19	18.167
621.38	15.237
621.57	17.417
621.76	15.554
621.95	16.647
622.14	15.986
622.33	18.462
622.52	13.784
622.71	16.156
622.90	14.010
623.09	16.067
623.28	15.810
623.47	16.072
623.66	15.839
623.85	16.217
624.04	15.495
624.23	16.540
624.42	14.128
624.61	13.357
624.80	13.139
624.99	16.917
625.18	13.388
625.36	16.081
625.55	15.884
625.74	15.367
625.93	12.997
626.12	16.017
626.31	15.682
626.50	15.732
626.69	15.394
626.88	18.064
627.07	15.874
627.26	15.525
627.45	16.285
627.64	17.012
627.83	14.371
628.02	17.949
628.20	15.840
628.39	18.347
628.58	15.312
628.77	16.872
628.96	16.142
629.15	16.516
629.34	14.884
629.53	15.158
629.72	13.995
629.91	17.331
630.10	14.420
630.29	15.108
630.47	13.684
630.66	15.745
630.85	15.580
631.04	15.610
631.23	14.716
631.42	15.637
631.61	13.113
631.80	18.123
631.99	14.329
632.18	13.483
632.36	12.792
632.55	16.025
632.74	12.964
632.93	13.629
633.12	13.814
633.31	14.964
633.50	13.916
633.69	14.108
633.88	12.769
634.06	14.636
634.25	12.671
634.44	14.510
634.63	13.851
634.82	16.092
635.01	11.945
635.20	15.806
635.39	12.646
635.57	15.743
635.76	13.596
635.95	14.514
636.14	12.202
636.33	14.866
636.52	11.706
636.71	14.047
636.89	13.726
637.08	15.021
637.27	11.601
637.46	13.280
637.65	12.875
637.84	14.272
638.03	11.777
638.21	14.858
638.40	13.186
638.59	12.859
638.78	10.242
638.97	14.739
639.16	13.598
639.34	12.759
639.53	9.843
639.72	12.784
639.91	11.770
640.10	12.497
640.29	12.101
640.47	14.188
640.66	12.031
640.85	14.484
641.04	8.772
641.23	13.417
641.42	13.761
641.60	12.389
641.79	11.841
641.98	11.901
642.17	12.046
642.36	15.224
642.54	9.805
642.73	12.155
642.92	9.891
643.11	12.724
643.30	11.423
643.49	12.739
643.67	8.348
643.86	12.500
644.05	9.384
644.24	12.533
644.43	12.384
644.61	12.971
644.80	11.304
644.99	9.127
645.18	13.401
645.37	12.244
645.55	9.979
645.74	12.477
645.93	12.334
646.12	12.316
646.31	11.498
646.49	10.177
646.68	11.780
646.87	10.502
647.06	10.921
647.24	11.219
647.43	10.078
647.62	11.534
647.81	9.596
648.00	11.579
648.18	8.134
648.37	12.507
648.56	10.994
648.75	9.732
648.93	11.835
649.12	10.048
649.31	11.141
649.50	9.718
649.68	10.822
649.87	11.558
650.06	7.851
650.25	11.598
650.43	7.933
650.62	10.328
650.81	12.665
651.00	11.008
651.18	8.866
651.37	13.929
651.56	10.407
651.75	12.985
651.93	8.610
652.12	11.499
652.31	10.608
652.50	10.641
652.68	11.208
652.87	11.547
653.06	11.744
653.25	14.118
653.43	11.669
653.62	11.609
653.81	9.713
654.00	12.534
654.18	8.681
654.37	12.325
654.56	9.885
654.74	9.835
654.93	7.796
655.12	9.299
655.31	10.094
655.49	11.283
655.68	7.629
655.87	7.625
656.05	8.023
656.24	8.254
656.43	6.147
656.62	10.302
656.80	8.895
656.99	7.394
657.18	6.043
657.36	8.150
657.55	10.048
657.74	7.348
657.93	11.257
658.11	11.734
658.30	9.447
658.49	8.750
658.67	7.668
658.86	8.401
659.05	8.951
659.23	10.419
659.42	7.923
659.61	10.554
659.79	8.761
659.98	9.369
660.17	9.600
660.35	9.746
660.54	9.661
660.73	12.890
660.91	10.091
661.10	9.645
661.29	7.784
661.47	8.429
661.66	8.809
661.85	9.076
662.03	8.589
662.22	5.796
662.41	4.788
662.59	7.865
662.78	6.723
662.97	7.107
663.15	5.803
663.34	6.167
663.53	6.090
663.71	8.362
663.90	5.614
664.09	8.843
664.27	6.715
664.46	7.123
664.65	4.897
664.83	6.384
665.02	6.054
665.21	6.054
665.39	5.573
665.58	5.472
665.77	5.594
665.95	6.150
666.14	3.574
666.32	5.520
666.51	5.167
666.70	5.778
666.88	7.374
667.07	6.612
667.26	3.977
667.44	5.704
667.63	4.705
667.81	3.127
668.00	6.044
668.19	7.906
668.37	7.240
668.56	6.405
668.75	3.811
668.93	7.959
669.12	7.255
669.30	7.098
669.49	5.824
669.68	6.041
669.86	5.969
670.05	5.132
670.23	4.396
670.42	5.143
670.61	5.414
670.79	5.084
670.98	7.885
671.16	6.230
671.35	7.588
671.54	6.297
671.72	3.709
671.91	5.904
672.09	3.099
672.28	7.382
672.46	7.591
672.65	5.492
672.84	7.102
673.02	6.554
673.21	4.002
673.39	4.980
673.58	8.166
673.77	6.883
673.95	6.444
674.14	7.406
674.32	3.982
674.51	8.194
674.69	6.995
674.88	6.033
675.07	4.878
675.25	9.026
675.44	5.959
675.62	5.630
675.81	4.741
675.99	11.449
676.18	9.357
676.36	6.842
676.55	4.155
676.74	6.627
676.92	7.824
677.11	8.171
677.29	7.773
677.48	7.103
677.66	8.846
677.85	6.541
678.03	5.668
678.22	7.863
678.40	7.836
678.59	6.233
678.78	5.476
678.96	7.646
679.15	5.155
679.33	7.742
679.52	9.343
679.70	9.352
679.89	6.390
680.07	7.193
680.26	6.664
680.44	8.119
680.63	10.669
680.81	7.563
681.00	5.516
681.18	9.099
681.37	6.895
681.55	10.613
681.74	12.024
681.92	9.290
682.11	9.597
682.29	9.082
682.48	9.784
682.66	10.643
682.85	8.708
683.03	9.270
683.22	11.304
683.40	12.822
683.59	9.529
683.77	8.992
683.96	6.434
684.14	10.289
684.33	3.740
684.51	12.586
684.70	11.400
684.88	13.013
685.07	9.489
685.25	11.625
685.44	9.098
685.62	13.227
685.81	10.343
685.99	12.260
686.18	9.996
686.36	11.062
686.55	10.726
686.73	11.774
686.92	12.983
687.10	13.296
687.29	12.755
687.47	11.881
687.65	15.069
687.84	11.401
688.02	13.967
688.21	15.547
688.39	11.650
688.58	18.928
688.76	13.140
688.95	13.793
689.13	12.206
689.32	15.718
689.50	15.149
689.68	15.351
689.87	13.913
690.05	16.309
690.24	16.763
690.42	18.141
690.61	17.820
690.79	16.130
690.98	12.687
691.16	17.931
691.34	12.586
691.53	16.603
691.71	16.544
691.90	18.554
692.08	14.247
692.27	21.150
692.45	20.433
692.63	19.295
692.82	19.927
693.00	21.510
693.19	17.308
693.37	21.822
693.56	18.904
693.74	23.828
693.92	20.295
694.11	21.283
694.29	19.088
694.48	27.260
694.66	18.973
694.84	24.600
695.03	20.983
695.21	27.277
695.40	28.854
695.58	26.356
695.76	20.526
695.95	27.016
696.13	24.465
696.32	28.227
696.50	32.807
696.68	28.176
696.87	25.864
697.05	30.695
697.24	26.682
697.42	32.954
697.60	29.396
697.79	29.260
697.97	30.304
698.16	34.718
698.34	32.269
698.52	35.747
698.71	33.243
698.89	35.174
699.07	33.313
699.26	36.935
699.44	35.710
699.63	36.728
699.81	34.385
699.99	35.640
700.18	36.463
700.36	36.671
700.54	36.097
700.73	37.796
700.91	36.519
701.09	38.193
701.28	36.986
701.46	38.957
701.64	35.022
701.83	40.548
702.01	36.181
702.20	41.873
702.38	35.018
702.56	38.051
702.75	36.662
702.93	36.471
703.11	35.697
703.30	39.810
703.48	38.410
703.66	41.510
703.85	37.574
704.03	41.362
704.21	39.154
704.40	42.431
704.58	36.102
704.76	40.326
704.95	40.541
705.13	40.053
705.31	41.506
705.50	42.314
705.68	39.145
705.86	44.868
706.04	39.587
706.23	42.394
706.41	38.883
706.59	41.676
706.78	38.719
706.96	41.904
707.14	40.427
707.33	44.195
707.51	40.508
707.69	44.654
707.88	39.519
708.06	43.883
708.24	42.520
708.42	45.278
708.61	41.176
708.79	41.045
708.97	43.038
709.16	44.338
709.34	42.540
709.52	44.498
709.71	45.815
709.89	47.868
710.07	42.139
710.25	45.351
710.44	39.608
710.62	46.455
710.80	45.683
710.98	46.076
711.17	44.706
711.35	47.673
711.53	42.988
711.72	44.700
711.90	47.006
712.08	47.681
712.26	44.665
712.45	48.562
712.63	45.089
712.81	46.768
712.99	47.866
713.18	48.705
713.36	45.255
713.54	48.607
713.72	44.084
713.91	43.831
714.09	43.695
714.27	47.636
714.45	44.277
714.64	45.772
714.82	45.696
715.00	48.192
715.18	48.394
715.37	47.505
715.55	44.753
715.73	49.362
715.91	45.005
716.10	49.625
716.28	44.094
716.46	45.901
716.64	43.699
716.83	47.374
717.01	47.750
717.19	48.503
717.37	42.791
717.55	46.444
717.74	46.413
717.92	49.330
718.10	44.255
718.28	45.520
718.47	38.776
718.65	43.640
718.83	44.227
719.01	49.910
719.19	44.708
719.38	47.601
719.56	45.794
719.74	47.224
719.92	39.060
720.10	43.248
720.29	43.572
720.47	44.344
720.65	42.279
720.83	49.349
721.01	40.079
721.20	43.986
721.38	41.549
721.56	47.026
721.74	43.145
721.92	50.750
722.11	38.382
722.29	48.061
722.47	42.808
722.65	48.605
722.83	45.409
723.01	44.802
723.20	42.640
723.38	48.056
723.56	43.668
723.74	47.732
723.92	43.768
724.10	45.603
724.29	39.121
724.47	46.889
724.65	41.673
724.83	48.445
725.01	44.508
725.19	50.766
725.38	46.066
725.56	47.435
725.74	45.401
725.92	51.410
726.10	43.528
726.28	51.371
726.46	47.929
726.65	48.873
726.83	47.458
727.01	47.029
727.19	46.546
727.37	50.694
727.55	45.092
727.73	45.166
727.92	47.153
728.10	47.724
728.28	45.199
728.46	51.018
728.64	44.939
728.82	48.620
729.00	44.705
729.19	48.082
729.37	49.668
729.55	48.153
729.73	42.866
729.91	54.058
730.09	48.586
730.27	49.239
730.45	48.088
730.63	49.279
730.82	42.358
731.00	44.828
731.18	44.762
731.36	50.286
731.54	48.688
731.72	46.451
731.90	44.915
732.08	48.910
732.26	48.400
732.45	51.833
732.63	51.463
732.81	53.351
732.99	45.721
733.17	52.135
733.35	49.744
733.53	52.149
733.71	49.968
733.89	50.656
734.07	48.092
734.25	51.498
734.44	51.775
734.62	47.905
734.80	48.413
734.98	52.200
735.16	47.923
735.34	50.533
735.52	48.126
735.70	52.433
735.88	52.068
736.06	54.498
736.24	53.587
736.42	52.347
736.60	53.997
736.78	55.761
736.97	47.604
737.15	55.482
737.33	49.794
737.51	53.003
737.69	51.107
737.87	51.358
738.05	52.234
738.23	56.690
738.41	52.302
738.59	52.562
738.77	56.061
738.95	57.341
739.13	53.926
739.31	48.031
739.49	54.306
739.67	55.717
739.85	53.603
740.03	50.195
740.21	55.392
740.39	58.453
740.57	56.086
740.75	55.428
740.93	50.197
741.11	58.140
741.30	51.417
741.48	55.274
741.66	50.585
741.84	53.239
742.02	51.026
742.20	56.306
742.38	48.726
742.56	59.561
742.74	54.463
742.92	53.907
743.10	53.860
743.28	62.802
743.46	49.906
743.64	53.154
743.82	55.425
744.00	53.890
744.18	56.022
744.36	51.111
744.54	53.557
744.72	54.171
744.90	58.460
745.08	55.985
745.26	57.073
745.44	61.181
745.62	59.315
745.80	56.760
745.98	51.951
746.16	57.749
746.34	51.606
746.52	57.172
746.70	50.932
746.87	55.795
747.05	55.745
747.23	58.180
747.41	55.745
747.59	51.935
747.77	55.020
747.95	56.334
748.13	51.293
748.31	61.737
748.49	58.534
748.67	61.220
748.85	58.351
749.03	59.800
749.21	52.055
749.39	63.089
749.57	55.848
749.75	56.891
749.93	54.418
750.11	51.053
750.29	52.712
750.47	57.874
750.65	53.366
750.83	61.426
751.01	52.060
751.18	59.358
751.36	54.835
751.54	56.447
751.72	55.544
751.90	55.620
752.08	55.710
752.26	59.186
752.44	55.392
752.62	60.198
752.80	52.669
752.98	57.657
753.16	53.800
753.34	50.774
753.52	53.089
753.69	57.538
753.87	52.057
754.05	57.798
754.23	56.263
754.41	55.000
754.59	53.892
754.77	60.460
754.95	53.720
755.13	62.735
755.31	57.490
755.49	59.004
755.66	51.762
755.84	53.876
756.02	58.987
756.20	57.264
756.38	53.236
756.56	58.487
756.74	52.191
756.92	54.684
757.10	55.897
757.28	57.688
757.45	56.190
757.63	60.879
757.81	51.183
757.99	58.359
758.17	62.047
758.35	54.436
758.53	57.283
758.71	53.172
758.88	51.631
759.06	58.096
759.24	48.405
759.42	47.843
759.60	49.550
759.78	46.794
759.96	42.843
760.13	44.888
760.31	36.966
760.49	45.278
760.67	30.979
760.85	44.933
761.03	35.312
761.21	37.892
761.38	28.654
761.56	37.127
761.74	29.866
761.92	45.922
762.10	29.916
762.28	39.450
762.46	30.741
762.63	39.799
762.81	32.956
762.99	40.948
763.17	34.438
763.35	37.426
763.53	36.289
763.70	44.564
763.88	39.369
764.06	41.482
764.24	38.472
764.42	43.799
764.60	40.694
764.77	45.619
764.95	41.365
765.13	46.907
765.31	39.144
765.49	44.110
765.66	43.044
765.84	48.184
766.02	44.915
766.20	48.480
766.38	41.329
766.56	50.085
766.73	49.136
766.91	49.790
767.09	45.341
767.27	49.095
767.45	47.316
767.62	50.392
767.80	45.073
767.98	53.923
768.16	45.067
768.33	55.474
768.51	52.105
768.69	61.397
768.87	49.115
769.05	55.023
769.22	50.496
769.40	61.312
769.58	56.149
769.76	57.875
769.94	55.122
770.11	53.174
770.29	54.353
770.47	53.383
770.65	51.453
770.82	53.201
771.00	51.809
771.18	66.341
771.36	53.776
771.53	45.060
771.71	51.711
771.89	60.816
772.07	51.913
772.25	62.017
772.42	49.213
772.60	59.765
772.78	47.750
772.96	61.430
773.13	55.907
773.31	50.538
773.49	58.200
773.67	63.247
773.84	52.738
774.02	50.519
774.20	56.058
774.37	55.494
774.55	45.180
774.73	57.009
774.91	48.862
775.08	54.848
775.26	60.380
775.44	57.682
775.62	45.902
775.79	53.228
775.97	54.769
776.15	53.551
776.32	50.385
776.50	62.636
776.68	52.677
776.86	53.571
777.03	52.690
777.21	64.207
777.39	59.942
777.56	57.121
777.74	46.837
777.92	58.275
778.10	55.788
778.27	68.372
778.45	48.706
778.63	53.555
778.80	55.892
778.98	52.211
779.16	59.631
779.34	55.007
779.51	57.975
779.69	58.940
779.87	50.384
780.04	52.958
780.22	54.118
780.40	51.275
780.57	51.196
780.75	52.374
780.93	56.986
781.10	57.293
781.28	62.768
781.46	57.829
781.63	52.397
781.81	53.988
781.99	44.408
782.16	50.828
782.34	44.949
782.52	53.623
782.69	58.982
782.87	52.365
783.05	51.100
783.22	54.643
783.40	51.893
783.58	51.127
783.75	47.766
783.93	51.223
784.11	49.385
784.28	54.844
784.46	52.381
784.64	49.821
784.81	52.509
784.99	60.548
785.17	66.602
785.34	60.676
785.52	51.429
785.69	51.444
785.87	46.741
786.05	59.107
786.22	64.340
786.40	55.657
786.58	53.188
786.75	55.083
786.93	57.570
787.11	52.098
787.28	47.595
787.46	64.440
787.63	54.706
787.81	48.634
787.99	52.900
788.16	53.115
788.34	39.711
788.51	52.995
788.69	41.957
788.87	49.251
789.04	46.282
789.22	52.395
789.39	40.033
789.57	48.498
789.75	42.479
789.92	50.147
790.10	39.598
790.27	57.000
790.45	43.760
790.63	47.687
790.80	48.220
790.98	54.225
791.15	46.429
791.33	49.592
791.51	50.864
791.68	42.370
791.86	53.913
792.03	47.530
792.21	46.507
792.39	48.582
792.56	45.724
792.74	52.552
792.91	51.852
793.09	51.845
793.26	50.943
793.44	49.336
793.62	49.213
793.79	48.310
793.97	51.462
794.14	45.841
794.32	52.008
794.49	58.082
794.67	49.797
794.84	44.025
795.02	53.497
795.20	47.826
795.37	49.800
795.55	46.112
795.72	47.388
795.90	50.487
796.07	51.587
796.25	53.165
796.42	46.154
796.60	43.406
796.77	44.306
796.95	47.378
797.13	47.652
797.30	58.423
797.48	36.244
797.65	47.191
797.83	47.602
798.00	47.761
798.18	33.272
798.35	51.379
798.53	46.408
798.70	45.664
798.88	56.548
799.05	49.198
799.23	44.262
799.40	39.502
799.58	57.739
799.75	55.323
799.93	43.977
800.10	51.880
800.28	47.826
800.45	55.936
800.63	33.270
800.80	48.022
800.98	48.582
801.15	43.682
801.33	45.349
801.50	39.068
801.68	40.000
801.85	43.436
802.03	48.497
802.20	53.131
802.38	48.876
802.55	55.809
802.73	53.757
802.90	46.667
803.08	45.347
803.25	46.293
803.43	44.672
803.60	50.331
803.78	50.295
803.95	46.320
804.13	44.847
804.30	44.519
804.48	48.253
804.65	51.685
804.83	39.235
805.00	50.331
805.17	48.827
805.35	44.383
805.52	43.585
805.70	50.415
805.87	43.702
806.05	47.390
806.22	52.708
806.40	47.448
806.57	52.132
806.75	47.131
806.92	54.115
807.09	55.368
807.27	40.408
807.44	38.310
807.62	44.677
807.79	45.794
807.97	41.000
808.14	46.154
808.31	49.561
808.49	42.790
808.66	41.975
808.84	42.254
809.01	44.598
809.19	50.704
809.36	50.104
809.53	43.478
809.71	44.017
809.88	53.061
810.06	47.921
810.23	48.998
810.41	40.881
810.58	59.466
810.75	36.053
810.93	47.260
811.10	40.830
811.28	37.753
811.45	54.135
811.62	44.757
811.80	36.181
811.97	51.759
812.15	51.708
812.32	48.429
812.49	47.420
812.67	41.766
812.84	44.952
813.02	58.995
813.19	46.247
813.36	40.608
813.54	37.783
813.71	41.495
813.89	45.078
814.06	39.850
814.23	38.235
814.41	49.747
814.58	51.240
814.75	47.139
814.93	52.475
815.10	51.724
815.28	42.786
815.45	40.281
815.62	50.287
815.80	27.778
815.97	27.000
816.14	44.828
816.32	49.096
816.49	28.232
816.66	30.933
816.84	32.346
817.01	40.389
817.18	40.209
817.36	41.902
817.53	39.563
817.71	35.990
817.88	41.204
818.05	48.307
818.23	36.496
818.40	26.667
818.57	37.130
818.75	39.789
818.92	35.589
819.09	36.776
819.27	35.750
819.44	24.941
819.61	32.794
819.79	32.886
819.96	30.137
820.13	38.353
820.31	32.750
820.48	40.326
820.65	36.330
820.82	32.580
821.00	37.736
821.17	29.613
821.34	31.888
821.52	30.350
821.69	34.815
821.86	33.848
822.04	38.100
822.21	33.385
822.38	37.035
822.56	35.334
822.73	41.430
822.90	39.738
823.07	42.116
823.25	39.635
823.42	41.167
823.59	43.068
823.77	42.461
823.94	42.488
824.11	42.810
824.29	41.275
824.46	43.238
824.63	44.480
824.80	43.874
824.98	39.765
825.15	46.254
825.32	39.439
825.49	40.566
825.67	35.597
825.84	42.012
826.01	42.417
826.19	47.083
826.36	35.648
826.53	41.108
826.70	29.378
826.88	39.147
827.05	31.614
827.22	31.670
827.39	34.590
827.57	38.898
827.74	31.773
827.91	39.405
828.08	29.251
828.26	37.093
828.43	34.525
828.60	38.928
828.77	34.959
828.95	40.868
829.12	31.643
829.29	33.991
829.46	32.190
829.64	33.121
829.81	27.809
829.98	38.557
830.15	30.884
830.32	33.858
830.50	23.401
830.67	31.623
830.84	36.957
831.01	30.619
831.19	33.519
831.36	32.271
831.53	26.906
831.70	39.540
831.87	30.932
832.05	48.131
832.22	42.222
832.39	35.934
832.56	40.897
832.74	29.954
832.91	39.401
833.08	45.940
833.25	26.601
833.42	35.073
833.60	34.364
833.77	33.507
833.94	31.949
834.11	30.295
834.28	33.168
834.45	27.129
834.63	32.643
834.80	34.169
834.97	36.036
835.14	28.365
835.31	27.645
835.49	32.164
835.66	30.375
835.83	32.010
836.00	34.843
836.17	31.338
836.34	30.015
836.52	29.908
836.69	38.776
836.86	37.050
837.03	31.262
837.20	27.222
837.37	36.811
837.55	38.125
837.72	26.424
837.89	37.879
838.06	38.286
838.23	44.118
838.40	37.349
838.58	30.548
838.75	37.624
838.92	54.180
839.09	43.299
839.26	45.545
839.43	43.686
839.60	46.246
839.78	65.909
839.95	37.602
840.12	37.543
840.29	51.186
840.46	52.761
840.63	65.831
840.80	54.045
840.98	54.487
841.15	51.250
841.32	46.364
841.49	41.176
841.66	48.354
841.83	40.683
842.00	39.867
842.17	53.409
842.34	44.595
842.52	46.667
842.69	39.322
842.86	47.287
843.03	57.565
843.20	54.789
843.37	48.708
843.54	39.326
843.71	47.768
843.88	66.222
844.06	67.200
844.23	52.381
844.40	56.889
844.57	38.674
844.74	70.732
844.91	57.971
845.08	74.432
845.25	73.913
845.42	69.355
845.59	71.053
845.76	35.385
845.94	61.881
846.11	89.041
846.28	70.238
846.45	82.022
846.62	76.623
846.79	97.260
846.96	80.864
847.13	76.744
847.30	64.138
847.47	68.345
847.64	101.550
847.81	88.136
847.98	54.271
848.15	70.803
848.32	91.195
848.50	104.192
848.67	58.621
848.84	87.671
849.01	40.223
849.18	79.897
849.35	87.500
849.52	43.966
849.69	66.887
849.86	93.197
850.03	86.567
850.20	82.456
850.37	63.025
850.54	72.067
850.71	71.523
850.88	60.335
851.05	64.407
851.22	65.730
851.39	105.405
851.56	68.750
851.73	84.906
851.90	53.416
852.07	108.271
852.24	73.026
852.41	34.286
852.58	63.380
852.75	90.805
852.92	53.171
853.09	91.406
853.26	66.667
853.43	113.208
853.60	56.180
853.77	96.203
853.94	81.752
854.11	72.028
854.28	70.400
854.45	52.344
854.62	89.340
854.79	67.974
854.96	86.400
855.13	84.795
855.30	100.000
855.47	90.517
855.64	70.677
855.81	72.043
855.98	86.508
856.15	100.000
856.32	68.553
856.49	71.318
856.66	54.545
856.83	63.636
857.00	64.052
857.17	108.462
857.34	45.263
857.51	87.770
857.68	76.216
857.85	79.545
858.02	78.519
858.19	70.270
858.36	72.727
858.53	69.677
858.70	61.677
858.87	83.544
859.04	60.484
859.21	32.432
859.38	107.895
859.55	126.866
859.72	101.149
859.89	43.165
860.05	76.577
860.22	77.487
860.39	100.893
860.56	69.466
860.73	100.000
860.90	44.954
861.07	61.842
861.24	65.789
861.41	81.481
861.58	83.333
861.75	61.481
861.92	85.526
862.09	64.444
862.26	87.179
862.43	116.832
862.59	82.353
862.76	104.196
862.93	153.933
863.10	66.667
863.27	58.974
863.44	108.046
863.61	76.642
863.78	86.857
863.95	90.850
864.12	76.437
864.29	58.120
864.45	102.586
864.62	66.667
864.79	60.465
864.96	67.480
865.13	50.450
865.30	100.621
865.47	90.854
865.64	60.432
865.81	47.328
865.97	74.667
866.14	53.741
866.31	45.833
866.48	58.278
866.65	53.846
866.82	68.354
866.99	81.197
867.16	45.865
867.33	81.720
867.49	60.494
867.66	98.969
867.83	68.504
868.00	72.603
868.17	76.860
868.34	54.386
868.51	71.429
868.67	84.810
868.84	73.333
869.01	68.000
869.18	56.028
869.35	70.543
869.52	62.698
869.69	65.753
869.85	84.112
870.02	82.692
870.19	96.610
870.36	105.517
870.53	59.286
870.70	64.151
870.86	49.000
871.03	66.667
871.20	78.899
871.37	86.207
871.54	69.595
871.71	50.714
871.87	55.975
872.04	55.429
872.21	55.652
872.38	90.244
872.55	86.420
872.72	75.000
872.88	66.480
873.05	102.299
873.22	87.755
873.39	98.980
873.56	71.598
873.72	48.235
873.89	60.248
874.06	71.642
874.23	96.610
874.40	45.000
874.56	108.421
874.73	73.171
874.90	89.831
875.07	72.857
875.24	45.963
875.40	91.597
875.57	81.651
875.74	80.800
875.91	55.046
876.08	91.304
876.24	67.442
876.41	117.600
876.58	72.340
876.75	53.901
876.92	49.265
877.08	88.971
877.25	73.043
877.42	86.719
877.59	101.020
877.75	77.333
877.92	48.810
878.09	46.875
878.26	53.293
878.42	70.000
878.59	86.087
878.76	63.158
878.93	78.358
879.09	23.232
879.26	43.902
879.43	77.297
879.60	78.322
879.76	43.750
879.93	42.222
880.10	46.000
880.27	38.509
880.43	60.335
880.60	24.658
880.77	30.114
880.94	39.801
881.10	30.088
881.27	37.049
881.44	21.813
881.61	36.996
881.77	30.402
881.94	27.811
882.11	25.000
882.28	20.388
882.44	18.871
882.61	24.895
882.78	29.950
882.94	37.516
883.11	30.834
883.28	21.550
883.45	29.967
883.61	21.338
883.78	25.559
883.95	25.587
884.11	25.670
884.28	27.320
>>>>>End Processed Spectral Data<<<<<
