SpectraSuite Data File
++++++++++++++++++++++++++++++++++++
Date: Sat Sep 21 03:49:13 EST 2019
User: sgrac
Dark Spectrum Present: Yes
Reference Spectrum Present: Yes
Number of Sampled Component Spectra: 1
Spectrometers: USB4E01596
Integration Time (usec): 100000 (USB4E01596)
Spectra Averaged: 1 (USB4E01596)
Boxcar Smoothing: 0 (USB4E01596)
Correct for Electrical Dark: No (USB4E01596)
Strobe/Lamp Enabled: Yes (USB4E01596)
Correct for Detector Non-linearity: No (USB4E01596)
Correct for Stray Light: No (USB4E01596)
Number of Pixels in Processed Spectrum: 3648
>>>>>Begin Processed Spectral Data<<<<<
178.44	-235.714
178.66	-235.714
178.87	-235.714
179.09	-442.857
179.30	-407.692
179.52	0.000
179.74	-1425.000
179.95	1550.000
180.17	693.333
180.38	2600.000
180.60	0.000
180.82	525.000
181.03	-242.105
181.25	326.087
181.46	-177.419
181.68	362.500
181.89	9900.000
182.11	225.714
182.33	-191.111
182.54	-337.500
182.76	-3950.000
182.97	420.000
183.19	2650.000
183.40	231.034
183.62	-207.407
183.84	-192.593
184.05	378.261
184.27	625.000
184.48	828.571
184.70	170.000
184.91	-660.000
185.13	182.222
185.34	-150.000
185.56	151.667
185.78	0.000
185.99	540.000
186.21	286.207
186.42	420.000
186.64	137.097
186.85	162.963
187.07	130.909
187.28	313.333
187.50	-220.000
187.72	1700.000
187.93	-6700.000
188.15	244.000
188.36	-276.471
188.58	-2950.000
188.79	318.182
189.01	263.889
189.22	1820.000
189.44	2800.000
189.65	323.333
189.87	587.500
190.09	-1640.000
190.30	575.000
190.52	-5050.000
190.73	194.643
190.95	228.571
191.16	260.000
191.38	700.000
191.59	123.810
191.81	194.444
192.02	276.596
192.24	558.824
192.45	-1380.000
192.67	331.429
192.88	420.833
193.10	248.000
193.31	490.000
193.53	-6400.000
193.74	85.366
193.96	529.167
194.18	267.742
194.39	-288.889
194.61	489.474
194.82	523.810
195.04	252.381
195.25	2750.000
195.47	192.683
195.68	297.872
195.90	440.000
196.11	189.091
196.33	159.574
196.54	-3533.333
196.76	267.857
196.97	-2266.667
197.19	439.286
197.40	288.235
197.62	207.813
197.83	101.351
198.05	-331.579
198.26	380.000
198.48	188.889
198.69	209.302
198.91	260.784
199.12	-148.571
199.34	-2080.000
199.55	5600.000
199.77	2700.000
199.98	328.000
200.20	108.451
200.41	471.429
200.63	-866.667
200.84	188.235
201.06	800.000
201.27	313.514
201.49	1387.500
201.70	396.296
201.91	219.565
202.13	143.478
202.34	181.132
202.56	-1042.857
202.77	711.111
202.99	403.571
203.20	3750.000
203.42	1175.000
203.63	230.233
203.85	225.714
204.06	177.778
204.28	-940.000
204.49	234.286
204.71	156.410
204.92	0.000
205.14	-385.714
205.35	316.667
205.56	-1420.000
205.78	500.000
205.99	710.000
206.21	-180.645
206.42	274.194
206.64	317.857
206.85	1100.000
207.07	-661.538
207.28	657.143
207.50	-352.632
207.71	274.359
207.93	206.818
208.14	676.471
208.35	421.053
208.57	-10100.000
208.78	800.000
209.00	377.778
209.21	-3600.000
209.43	227.586
209.64	282.353
209.86	714.286
210.07	0.000
210.28	-364.706
210.50	155.102
210.71	221.053
210.93	352.381
211.14	-211.111
211.36	-174.194
211.57	-176.190
211.78	-204.348
212.00	0.000
212.21	281.395
212.43	-118.182
212.64	144.828
212.86	-762.500
213.07	-336.364
213.29	236.842
213.50	8100.000
213.71	156.604
213.93	1514.286
214.14	119.697
214.36	7200.000
214.57	353.846
214.78	331.250
215.00	3000.000
215.21	150.000
215.43	228.000
215.64	271.795
215.86	194.286
216.07	3300.000
216.28	380.000
216.50	-857.143
216.71	-2020.000
216.93	242.553
217.14	303.125
217.35	240.741
217.57	339.286
217.78	1287.500
218.00	-370.000
218.21	310.526
218.42	-2866.667
218.64	464.706
218.85	-455.556
219.07	321.429
219.28	1550.000
219.49	156.579
219.71	1900.000
219.92	213.889
220.14	158.333
220.35	435.000
220.56	205.128
220.78	270.588
220.99	-9500.000
221.21	404.762
221.42	300.000
221.63	280.000
221.85	154.839
222.06	228.571
222.28	231.818
222.49	-2300.000
222.70	0.000
222.92	311.111
223.13	303.333
223.34	-1850.000
223.56	165.789
223.77	93.258
223.99	276.923
224.20	73.810
224.41	300.000
224.63	358.333
224.84	87.931
225.05	157.143
225.27	124.286
225.48	213.043
225.69	128.571
225.91	181.481
226.12	266.667
226.34	117.647
226.55	116.667
226.76	161.290
226.98	152.000
227.19	181.818
227.40	64.463
227.62	62.195
227.83	87.000
228.04	61.538
228.26	75.248
228.47	115.517
228.69	41.447
228.90	46.479
229.11	60.000
229.33	49.758
229.54	53.947
229.75	26.957
229.97	27.897
230.18	27.957
230.39	29.536
230.61	20.126
230.82	31.950
231.03	5.394
231.25	41.414
231.46	36.861
231.67	38.340
231.89	57.255
232.10	33.603
232.31	56.250
232.53	48.023
232.74	44.792
232.95	57.831
233.17	42.197
233.38	37.313
233.59	77.941
233.81	59.709
234.02	57.895
234.23	54.011
234.45	61.842
234.66	42.938
234.87	62.416
235.09	37.778
235.30	27.586
235.51	46.602
235.73	13.208
235.94	51.813
236.15	40.306
236.36	41.270
236.58	45.024
236.79	39.267
237.00	36.715
237.22	43.827
237.43	65.196
237.64	29.258
237.86	51.087
238.07	70.352
238.28	32.240
238.50	34.783
238.71	16.568
238.92	29.762
239.13	35.429
239.35	38.462
239.56	35.417
239.77	66.341
239.99	34.434
240.20	38.947
240.41	26.293
240.63	26.721
240.84	28.685
241.05	27.737
241.26	35.537
241.48	33.038
241.69	23.101
241.90	16.056
242.12	21.173
242.33	18.966
242.54	15.778
242.75	21.822
242.97	15.000
243.18	15.320
243.39	17.262
243.61	15.592
243.82	18.182
244.03	10.360
244.24	4.755
244.46	14.667
244.67	10.629
244.88	19.249
245.09	20.868
245.31	8.061
245.52	21.140
245.73	19.261
245.95	24.094
246.16	17.354
246.37	16.085
246.58	15.327
246.80	19.298
247.01	11.463
247.22	12.597
247.43	11.461
247.65	14.009
247.86	10.166
248.07	9.448
248.28	10.348
248.50	7.322
248.71	10.426
248.92	8.151
249.13	7.766
249.35	9.219
249.56	13.156
249.77	9.605
249.98	12.428
250.20	11.667
250.41	16.313
250.62	11.687
250.83	14.728
251.05	20.064
251.26	12.886
251.47	22.162
251.68	10.055
251.90	19.928
252.11	15.157
252.32	19.056
252.53	13.776
252.75	10.400
252.96	22.436
253.17	13.176
253.38	14.595
253.59	8.616
253.81	15.089
254.02	18.250
254.23	15.385
254.44	20.408
254.66	18.678
254.87	18.953
255.08	19.231
255.29	21.084
255.50	22.366
255.72	23.624
255.93	22.384
256.14	19.318
256.35	21.311
256.57	21.260
256.78	27.854
256.99	23.822
257.20	22.087
257.41	21.325
257.63	18.609
257.84	18.465
258.05	13.125
258.26	10.811
258.47	21.109
258.69	14.566
258.90	10.404
259.11	6.240
259.32	4.201
259.53	9.517
259.75	10.820
259.96	7.062
260.17	6.643
260.38	6.149
260.59	6.815
260.81	8.748
261.02	8.023
261.23	9.932
261.44	6.495
261.65	8.923
261.87	7.273
262.08	6.733
262.29	8.926
262.50	9.254
262.71	6.186
262.92	12.003
263.14	10.428
263.35	7.121
263.56	8.000
263.77	17.845
263.98	12.169
264.20	12.565
264.41	5.939
264.62	15.633
264.83	9.322
265.04	15.621
265.25	10.610
265.47	13.142
265.68	14.286
265.89	6.156
266.10	13.651
266.31	21.479
266.52	12.899
266.74	7.610
266.95	10.995
267.16	14.820
267.37	13.250
267.58	5.119
267.79	7.898
268.01	7.582
268.22	11.078
268.43	12.887
268.64	9.424
268.85	9.712
269.06	8.066
269.27	14.501
269.49	8.004
269.70	11.672
269.91	9.605
270.12	9.131
270.33	12.013
270.54	7.851
270.75	4.094
270.97	11.728
271.18	11.077
271.39	10.830
271.60	14.995
271.81	6.880
272.02	12.075
272.23	10.249
272.45	8.930
272.66	5.985
272.87	5.887
273.08	5.578
273.29	7.777
273.50	12.114
273.71	9.878
273.92	10.668
274.14	2.179
274.35	5.263
274.56	8.796
274.77	5.276
274.98	9.828
275.19	8.703
275.40	7.653
275.61	4.899
275.83	13.527
276.04	11.315
276.25	8.725
276.46	12.136
276.67	8.008
276.88	13.444
277.09	5.748
277.30	9.356
277.51	15.947
277.73	10.400
277.94	8.491
278.15	7.322
278.36	10.132
278.57	9.734
278.78	7.800
278.99	10.732
279.20	8.994
279.41	12.500
279.62	9.509
279.84	9.633
280.05	13.953
280.26	12.008
280.47	11.492
280.68	2.838
280.89	10.000
281.10	9.001
281.31	6.464
281.52	13.060
281.73	10.010
281.94	8.273
282.16	7.233
282.37	11.431
282.58	11.010
282.79	12.175
283.00	9.357
283.21	6.935
283.42	8.860
283.63	5.914
283.84	10.410
284.05	11.004
284.26	9.479
284.47	6.875
284.68	6.592
284.89	7.261
285.11	8.679
285.32	8.289
285.53	6.175
285.74	11.953
285.95	10.137
286.16	8.598
286.37	6.836
286.58	6.285
286.79	11.104
287.00	7.908
287.21	4.389
287.42	7.278
287.63	6.486
287.84	6.352
288.05	7.256
288.26	5.704
288.48	11.148
288.69	5.847
288.90	5.182
289.11	7.026
289.32	9.281
289.53	9.604
289.74	5.214
289.95	3.026
290.16	10.185
290.37	4.645
290.58	5.848
290.79	7.210
291.00	9.838
291.21	4.219
291.42	4.167
291.63	5.366
291.84	9.527
292.05	5.504
292.26	6.598
292.47	7.092
292.68	4.932
292.89	10.186
293.10	7.664
293.31	8.153
293.52	6.732
293.73	4.659
293.94	9.345
294.15	7.126
294.36	3.813
294.57	10.198
294.79	7.292
295.00	6.102
295.21	4.957
295.42	8.699
295.63	10.278
295.84	7.729
296.05	5.944
296.26	6.533
296.47	8.833
296.68	7.211
296.89	6.083
297.10	5.409
297.31	5.080
297.52	8.197
297.73	7.749
297.94	7.762
298.15	5.056
298.36	7.824
298.57	4.183
298.78	7.395
298.99	4.475
299.20	4.869
299.41	4.149
299.62	7.590
299.83	6.517
300.04	6.268
300.25	7.582
300.46	6.235
300.67	6.349
300.88	6.593
301.09	5.249
301.30	6.454
301.50	10.045
301.71	7.547
301.92	7.754
302.13	5.886
302.34	9.109
302.55	6.052
302.76	6.052
302.97	9.916
303.18	5.688
303.39	5.626
303.60	5.501
303.81	4.448
304.02	7.642
304.23	8.665
304.44	7.148
304.65	6.820
304.86	8.817
305.07	6.335
305.28	9.008
305.49	7.571
305.70	7.118
305.91	8.300
306.12	5.899
306.33	7.059
306.54	3.888
306.75	8.445
306.96	13.148
307.17	7.687
307.38	5.649
307.58	6.360
307.79	8.884
308.00	6.863
308.21	7.099
308.42	6.045
308.63	8.889
308.84	8.146
309.05	8.172
309.26	7.234
309.47	6.560
309.68	5.070
309.89	8.658
310.10	7.980
310.31	4.860
310.52	5.270
310.73	8.662
310.94	5.446
311.14	6.883
311.35	6.050
311.56	3.641
311.77	6.325
311.98	6.018
312.19	7.174
312.40	4.788
312.61	4.216
312.82	6.828
313.03	4.772
313.24	7.844
313.45	7.244
313.66	5.581
313.86	7.365
314.07	5.691
314.28	3.791
314.49	5.202
314.70	8.362
314.91	8.130
315.12	6.885
315.33	3.890
315.54	6.387
315.75	8.451
315.96	4.391
316.16	7.310
316.37	6.712
316.58	7.420
316.79	7.101
317.00	6.828
317.21	6.361
317.42	7.173
317.63	5.773
317.84	9.568
318.05	7.423
318.25	6.686
318.46	5.666
318.67	4.277
318.88	8.774
319.09	7.426
319.30	6.882
319.51	4.454
319.72	10.407
319.93	9.215
320.13	6.223
320.34	7.801
320.55	6.509
320.76	8.999
320.97	9.221
321.18	6.971
321.39	7.016
321.60	6.652
321.80	9.033
322.01	3.259
322.22	7.632
322.43	4.186
322.64	4.744
322.85	6.754
323.06	6.777
323.27	8.106
323.47	7.121
323.68	9.157
323.89	5.543
324.10	6.712
324.31	7.456
324.52	5.594
324.73	5.455
324.93	9.038
325.14	5.589
325.35	8.741
325.56	7.589
325.77	5.832
325.98	4.654
326.19	7.435
326.39	5.794
326.60	5.975
326.81	7.942
327.02	7.968
327.23	4.114
327.44	6.663
327.64	6.220
327.85	4.389
328.06	7.574
328.27	10.393
328.48	5.573
328.69	5.890
328.90	5.871
329.10	7.565
329.31	5.146
329.52	8.243
329.73	8.862
329.94	6.163
330.15	6.943
330.35	7.735
330.56	6.711
330.77	7.335
330.98	7.858
331.19	6.748
331.39	6.480
331.60	6.311
331.81	8.740
332.02	9.170
332.23	7.561
332.44	5.475
332.64	6.192
332.85	7.749
333.06	10.794
333.27	4.379
333.48	7.424
333.68	8.210
333.89	6.271
334.10	3.302
334.31	7.211
334.52	8.105
334.72	6.182
334.93	6.140
335.14	5.633
335.35	5.096
335.56	6.518
335.76	4.789
335.97	10.671
336.18	5.933
336.39	7.692
336.60	8.242
336.80	7.243
337.01	6.971
337.22	5.260
337.43	9.897
337.64	9.433
337.84	7.082
338.05	6.937
338.26	10.463
338.47	8.081
338.68	6.892
338.88	6.429
339.09	10.120
339.30	8.211
339.51	6.007
339.71	7.541
339.92	5.998
340.13	10.034
340.34	8.261
340.55	8.303
340.75	10.042
340.96	3.867
341.17	9.689
341.38	6.110
341.58	6.698
341.79	5.257
342.00	5.624
342.21	9.655
342.41	5.399
342.62	6.499
342.83	10.100
343.04	5.305
343.24	9.321
343.45	8.276
343.66	7.679
343.87	8.778
344.07	4.656
344.28	8.855
344.49	8.131
344.70	10.486
344.90	7.285
345.11	6.909
345.32	5.976
345.53	7.672
345.73	8.283
345.94	10.409
346.15	9.918
346.36	8.865
346.56	9.104
346.77	10.558
346.98	9.593
347.19	10.404
347.39	10.255
347.60	8.815
347.81	9.282
348.02	8.525
348.22	5.857
348.43	8.079
348.64	9.255
348.84	9.848
349.05	8.484
349.26	11.833
349.47	7.855
349.67	9.550
349.88	11.074
350.09	7.867
350.30	11.408
350.50	10.049
350.71	10.377
350.92	9.227
351.12	8.346
351.33	8.982
351.54	8.259
351.74	11.263
351.95	10.515
352.16	11.762
352.37	9.903
352.57	9.248
352.78	7.300
352.99	11.438
353.19	7.843
353.40	10.815
353.61	14.815
353.82	10.814
354.02	10.413
354.23	10.426
354.44	10.692
354.64	9.155
354.85	11.858
355.06	11.968
355.26	8.729
355.47	8.657
355.68	12.525
355.88	12.397
356.09	11.834
356.30	9.859
356.51	11.754
356.71	10.746
356.92	7.116
357.13	10.904
357.33	11.925
357.54	9.195
357.75	6.848
357.95	11.207
358.16	9.518
358.37	15.861
358.57	9.117
358.78	13.572
358.99	8.825
359.19	10.608
359.40	11.535
359.61	10.980
359.81	11.357
360.02	13.927
360.23	8.617
360.43	10.733
360.64	8.784
360.85	10.965
361.05	9.280
361.26	11.346
361.47	8.865
361.67	14.138
361.88	7.210
362.09	13.906
362.29	9.599
362.50	8.196
362.70	8.709
362.91	13.658
363.12	9.012
363.32	9.753
363.53	10.993
363.74	13.168
363.94	8.089
364.15	14.136
364.36	11.126
364.56	9.396
364.77	12.469
364.98	14.862
365.18	10.702
365.39	11.363
365.59	9.543
365.80	9.580
366.01	11.656
366.21	10.162
366.42	7.579
366.63	10.938
366.83	11.538
367.04	6.162
367.24	12.539
367.45	9.104
367.66	6.130
367.86	11.416
368.07	9.244
368.28	7.974
368.48	8.992
368.69	7.420
368.89	9.135
369.10	8.810
369.31	8.997
369.51	8.353
369.72	9.153
369.92	11.046
370.13	7.042
370.34	9.586
370.54	6.121
370.75	9.716
370.95	7.123
371.16	9.869
371.37	7.262
371.57	7.504
371.78	9.550
371.98	10.709
372.19	10.346
372.40	12.052
372.60	10.435
372.81	9.982
373.01	6.625
373.22	8.370
373.43	9.707
373.63	12.166
373.84	7.939
374.04	8.255
374.25	9.015
374.46	8.747
374.66	7.764
374.87	9.407
375.07	5.325
375.28	8.678
375.48	7.156
375.69	9.148
375.90	7.107
376.10	7.477
376.31	7.712
376.51	5.981
376.72	7.143
376.92	4.790
377.13	8.542
377.34	10.986
377.54	7.277
377.75	9.618
377.95	7.267
378.16	7.623
378.36	7.048
378.57	9.317
378.77	7.989
378.98	8.532
379.19	6.648
379.39	6.648
379.60	7.790
379.80	8.101
380.01	9.123
380.21	7.935
380.42	7.537
380.62	6.852
380.83	9.073
381.04	6.894
381.24	8.414
381.45	7.085
381.65	5.642
381.86	8.554
382.06	9.331
382.27	4.285
382.47	6.998
382.68	9.944
382.88	3.393
383.09	4.254
383.29	8.169
383.50	9.661
383.71	6.879
383.91	6.851
384.12	4.905
384.32	6.652
384.53	6.629
384.73	4.722
384.94	5.843
385.14	6.356
385.35	6.423
385.55	6.935
385.76	4.919
385.96	7.534
386.17	6.932
386.37	7.795
386.58	7.431
386.78	7.290
386.99	3.623
387.19	6.475
387.40	5.639
387.60	9.091
387.81	5.869
388.01	6.610
388.22	6.872
388.42	8.702
388.63	7.397
388.83	9.970
389.04	5.449
389.24	7.645
389.45	5.875
389.65	5.673
389.86	6.732
390.06	4.957
390.27	5.417
390.47	5.613
390.68	4.406
390.88	8.605
391.09	6.642
391.29	7.456
391.50	6.601
391.70	6.707
391.91	5.873
392.11	6.936
392.32	6.888
392.52	8.156
392.73	5.413
392.93	7.295
393.14	5.276
393.34	6.165
393.55	8.023
393.75	6.001
393.95	5.225
394.16	6.880
394.36	7.515
394.57	8.288
394.77	6.755
394.98	6.443
395.18	5.676
395.39	6.487
395.59	6.199
395.80	6.470
396.00	6.344
396.21	7.534
396.41	6.150
396.61	6.764
396.82	6.359
397.02	9.899
397.23	7.703
397.43	5.906
397.64	4.265
397.84	8.296
398.05	3.278
398.25	6.037
398.45	6.277
398.66	8.244
398.86	6.447
399.07	8.434
399.27	5.727
399.48	7.319
399.68	4.033
399.89	5.829
400.09	6.498
400.29	6.055
400.50	7.461
400.70	6.080
400.91	5.645
401.11	5.713
401.32	5.819
401.52	4.694
401.72	6.068
401.93	7.236
402.13	6.707
402.34	6.068
402.54	5.202
402.75	7.549
402.95	3.924
403.15	8.193
403.36	4.574
403.56	5.826
403.77	5.472
403.97	5.166
404.17	5.057
404.38	7.447
404.58	5.319
404.79	6.709
404.99	6.640
405.19	6.125
405.40	4.693
405.60	6.777
405.81	6.271
406.01	5.154
406.21	5.619
406.42	6.439
406.62	5.526
406.83	6.449
407.03	6.890
407.23	4.906
407.44	5.988
407.64	5.714
407.85	7.215
408.05	6.767
408.25	3.874
408.46	6.141
408.66	6.420
408.87	5.669
409.07	4.545
409.27	4.819
409.48	6.866
409.68	5.973
409.88	4.056
410.09	5.780
410.29	5.327
410.50	8.329
410.70	4.015
410.90	6.474
411.11	4.514
411.31	5.452
411.51	6.629
411.72	6.526
411.92	4.654
412.12	4.363
412.33	4.735
412.53	5.983
412.74	3.200
412.94	4.171
413.14	5.058
413.35	6.114
413.55	5.084
413.75	7.464
413.96	5.087
414.16	4.335
414.36	6.673
414.57	4.854
414.77	5.201
414.97	5.072
415.18	5.098
415.38	6.289
415.58	5.479
415.79	4.312
415.99	4.848
416.19	4.925
416.40	5.039
416.60	5.294
416.80	4.163
417.01	5.698
417.21	4.054
417.41	6.498
417.62	5.884
417.82	5.688
418.02	3.908
418.23	5.750
418.43	5.881
418.63	5.831
418.84	6.314
419.04	5.352
419.24	7.211
419.45	7.336
419.65	6.719
419.85	7.160
420.06	6.495
420.26	7.150
420.46	6.784
420.67	8.159
420.87	7.696
421.07	7.745
421.28	6.136
421.48	8.282
421.68	7.747
421.88	8.381
422.09	7.710
422.29	7.543
422.49	6.556
422.70	8.001
422.90	6.675
423.10	7.410
423.31	7.356
423.51	8.228
423.71	6.780
423.91	7.959
424.12	7.779
424.32	7.814
424.52	7.396
424.73	7.927
424.93	7.714
425.13	7.508
425.33	6.620
425.54	8.080
425.74	7.414
425.94	8.238
426.15	7.637
426.35	7.036
426.55	7.736
426.75	7.524
426.96	7.880
427.16	7.375
427.36	7.061
427.57	8.162
427.77	6.185
427.97	6.336
428.17	6.935
428.38	7.189
428.58	4.437
428.78	6.404
428.98	4.930
429.19	6.182
429.39	4.105
429.59	6.097
429.79	4.931
430.00	3.385
430.20	4.561
430.40	5.396
430.60	5.301
430.81	6.643
431.01	4.913
431.21	5.985
431.41	4.400
431.62	5.574
431.82	5.632
432.02	6.869
432.22	4.355
432.43	4.094
432.63	3.727
432.83	5.618
433.03	5.887
433.24	4.908
433.44	4.854
433.64	5.744
433.84	5.230
434.05	6.750
434.25	5.056
434.45	5.946
434.65	6.530
434.85	6.845
435.06	6.349
435.26	6.369
435.46	5.662
435.66	6.056
435.87	5.238
436.07	5.811
436.27	5.911
436.47	5.399
436.67	4.503
436.88	6.236
437.08	5.168
437.28	5.645
437.48	5.164
437.69	6.879
437.89	5.261
438.09	7.354
438.29	4.700
438.49	6.944
438.70	5.439
438.90	4.991
439.10	5.189
439.30	6.520
439.50	4.740
439.71	6.215
439.91	5.206
440.11	6.810
440.31	6.643
440.51	5.356
440.72	5.602
440.92	6.489
441.12	6.404
441.32	7.767
441.52	7.031
441.72	7.186
441.93	6.126
442.13	7.739
442.33	5.748
442.53	7.878
442.73	5.436
442.94	6.896
443.14	5.184
443.34	7.468
443.54	7.122
443.74	7.208
443.94	6.169
444.15	5.704
444.35	4.530
444.55	6.991
444.75	5.548
444.95	6.392
445.15	5.244
445.36	6.101
445.56	4.363
445.76	7.383
445.96	5.225
446.16	5.958
446.36	5.246
446.57	7.749
446.77	5.389
446.97	7.132
447.17	7.355
447.37	7.246
447.57	6.863
447.77	7.404
447.98	6.474
448.18	7.859
448.38	6.090
448.58	7.756
448.78	6.086
448.98	6.589
449.18	5.960
449.39	5.990
449.59	5.461
449.79	6.339
449.99	4.650
450.19	6.991
450.39	5.487
450.59	6.551
450.79	5.411
451.00	7.562
451.20	6.972
451.40	6.056
451.60	4.256
451.80	6.495
452.00	4.935
452.20	6.242
452.40	5.154
452.61	4.888
452.81	6.023
453.01	6.123
453.21	4.797
453.41	5.692
453.61	6.059
453.81	5.567
454.01	5.323
454.21	6.170
454.42	6.575
454.62	6.309
454.82	4.385
455.02	4.701
455.22	4.401
455.42	4.855
455.62	4.133
455.82	5.900
456.02	4.277
456.23	5.287
456.43	4.797
456.63	5.401
456.83	3.673
457.03	6.445
457.23	5.062
457.43	5.312
457.63	3.873
457.83	5.483
458.03	4.878
458.23	5.463
458.43	4.243
458.64	5.621
458.84	5.281
459.04	5.947
459.24	5.311
459.44	6.491
459.64	5.114
459.84	5.909
460.04	5.874
460.24	6.531
460.44	6.127
460.64	6.775
460.84	5.801
461.04	7.224
461.24	6.604
461.45	7.908
461.65	6.815
461.85	7.140
462.05	6.840
462.25	7.038
462.45	7.386
462.65	6.270
462.85	4.605
463.05	6.133
463.25	4.051
463.45	5.858
463.65	4.805
463.85	6.109
464.05	4.808
464.25	5.756
464.45	5.592
464.65	4.888
464.85	4.250
465.05	5.563
465.26	4.866
465.46	6.265
465.66	5.477
465.86	6.047
466.06	5.349
466.26	5.519
466.46	3.704
466.66	5.527
466.86	4.941
467.06	4.590
467.26	4.800
467.46	6.045
467.66	5.128
467.86	5.817
468.06	5.534
468.26	4.954
468.46	5.445
468.66	5.015
468.86	3.325
469.06	6.404
469.26	4.161
469.46	5.701
469.66	3.963
469.86	6.265
470.06	4.531
470.26	6.348
470.46	4.651
470.66	5.772
470.86	3.957
471.06	5.965
471.26	3.543
471.46	4.415
471.66	5.232
471.86	5.512
472.06	4.801
472.26	6.653
472.46	6.350
472.66	5.979
472.86	4.648
473.06	5.371
473.26	4.694
473.46	5.024
473.66	4.973
473.86	5.345
474.06	5.002
474.26	5.180
474.46	3.818
474.66	6.569
474.86	5.390
475.06	5.513
475.26	4.081
475.46	5.940
475.66	4.499
475.86	6.085
476.06	6.123
476.26	6.032
476.46	5.183
476.66	5.606
476.86	4.229
477.06	5.393
477.26	4.867
477.46	5.839
477.65	4.506
477.85	6.054
478.05	4.323
478.25	7.318
478.45	5.331
478.65	6.329
478.85	4.894
479.05	6.054
479.25	5.308
479.45	6.840
479.65	5.129
479.85	5.747
480.05	5.430
480.25	7.066
480.45	5.609
480.65	7.327
480.85	5.019
481.05	7.307
481.25	6.505
481.44	7.008
481.64	4.674
481.84	7.228
482.04	6.393
482.24	6.963
482.44	5.561
482.64	7.277
482.84	7.066
483.04	7.644
483.24	7.415
483.44	8.110
483.64	7.617
483.84	8.007
484.04	8.218
484.23	8.440
484.43	8.527
484.63	8.505
484.83	8.588
485.03	8.811
485.23	8.537
485.43	9.081
485.63	8.829
485.83	8.996
486.03	9.153
486.23	8.911
486.42	8.474
486.62	8.546
486.82	8.506
487.02	8.558
487.22	8.293
487.42	8.525
487.62	8.338
487.82	8.333
488.02	7.981
488.22	8.344
488.41	8.825
488.61	8.764
488.81	8.386
489.01	8.634
489.21	8.456
489.41	8.697
489.61	8.529
489.81	8.571
490.01	8.520
490.20	9.067
490.40	8.494
490.60	8.781
490.80	7.809
491.00	8.528
491.20	7.966
491.40	7.907
491.60	7.950
491.79	8.352
491.99	8.287
492.19	8.331
492.39	8.244
492.59	8.342
492.79	8.761
492.99	8.903
493.19	8.320
493.38	8.666
493.58	8.369
493.78	8.839
493.98	8.309
494.18	8.357
494.38	8.449
494.58	8.928
494.77	6.031
494.97	8.141
495.17	6.483
495.37	7.248
495.57	7.373
495.77	6.757
495.96	6.590
496.16	6.595
496.36	6.730
496.56	7.791
496.76	5.938
496.96	7.006
497.15	6.887
497.35	7.240
497.55	6.494
497.75	7.389
497.95	5.994
498.15	7.716
498.34	7.093
498.54	7.149
498.74	7.446
498.94	7.969
499.14	6.093
499.34	8.407
499.53	6.852
499.73	7.609
499.93	7.144
500.13	8.005
500.33	6.034
500.52	7.310
500.72	6.439
500.92	7.429
501.12	5.873
501.32	7.252
501.52	6.795
501.71	6.639
501.91	5.834
502.11	6.970
502.31	5.907
502.51	7.390
502.70	6.019
502.90	6.744
503.10	6.054
503.30	7.850
503.50	6.826
503.69	7.292
503.89	6.490
504.09	7.725
504.29	6.421
504.48	7.837
504.68	7.215
504.88	8.208
505.08	6.331
505.28	7.557
505.47	6.424
505.67	9.377
505.87	6.308
506.07	7.421
506.27	5.932
506.46	7.854
506.66	6.603
506.86	8.004
507.06	7.967
507.25	7.902
507.45	7.657
507.65	8.199
507.85	6.773
508.04	8.795
508.24	7.834
508.44	8.082
508.64	7.797
508.83	8.339
509.03	7.164
509.23	8.453
509.43	7.431
509.63	8.901
509.82	7.623
510.02	8.776
510.22	7.753
510.42	9.209
510.61	8.542
510.81	9.227
511.01	8.415
511.21	9.343
511.40	8.128
511.60	9.725
511.80	8.488
511.99	10.002
512.19	8.955
512.39	9.138
512.59	8.141
512.78	9.491
512.98	9.289
513.18	8.702
513.38	8.441
513.57	9.487
513.77	8.909
513.97	8.752
514.17	8.849
514.36	9.308
514.56	8.942
514.76	9.759
514.95	8.018
515.15	9.567
515.35	7.529
515.55	9.516
515.74	8.905
515.94	10.282
516.14	8.486
516.33	9.999
516.53	8.410
516.73	8.990
516.93	9.296
517.12	9.757
517.32	7.695
517.52	9.781
517.71	8.653
517.91	9.769
518.11	9.471
518.30	9.789
518.50	9.094
518.70	9.690
518.90	9.932
519.09	9.872
519.29	9.786
519.49	10.349
519.68	9.558
519.88	10.373
520.08	10.200
520.27	10.525
520.47	10.209
520.67	9.993
520.86	10.265
521.06	10.573
521.26	8.981
521.45	10.465
521.65	9.687
521.85	9.772
522.04	8.881
522.24	10.089
522.44	8.568
522.63	10.203
522.83	8.916
523.03	10.548
523.22	8.914
523.42	10.014
523.62	9.676
523.81	10.256
524.01	9.700
524.21	9.448
524.40	8.641
524.60	9.584
524.80	8.352
524.99	9.158
525.19	9.272
525.39	10.370
525.58	9.070
525.78	9.876
525.98	9.960
526.17	10.268
526.37	10.489
526.57	10.165
526.76	10.090
526.96	10.473
527.15	9.798
527.35	9.905
527.55	10.026
527.74	10.437
527.94	10.143
528.14	10.111
528.33	10.027
528.53	10.237
528.72	10.255
528.92	10.440
529.12	10.136
529.31	10.433
529.51	10.383
529.71	10.559
529.90	10.582
530.10	10.421
530.29	10.560
530.49	10.834
530.69	10.854
530.88	10.737
531.08	10.637
531.28	10.518
531.47	10.716
531.67	11.023
531.86	10.453
532.06	11.004
532.26	10.170
532.45	10.654
532.65	10.388
532.84	10.009
533.04	9.570
533.24	10.333
533.43	10.245
533.63	10.972
533.82	10.483
534.02	10.418
534.22	10.427
534.41	10.510
534.61	10.963
534.80	10.551
535.00	10.604
535.19	10.900
535.39	10.385
535.59	11.163
535.78	10.753
535.98	10.637
536.17	10.150
536.37	10.969
536.57	10.832
536.76	10.991
536.96	10.378
537.15	11.270
537.35	10.557
537.54	11.023
537.74	10.635
537.93	10.893
538.13	10.743
538.33	10.891
538.52	10.917
538.72	11.202
538.91	10.806
539.11	10.978
539.30	10.012
539.50	11.534
539.70	10.056
539.89	11.605
540.09	10.173
540.28	11.311
540.48	9.741
540.67	10.840
540.87	10.607
541.06	10.749
541.26	11.080
541.45	11.448
541.65	10.576
541.85	11.007
542.04	10.969
542.24	11.396
542.43	11.118
542.63	11.249
542.82	11.541
543.02	11.482
543.21	11.763
543.41	11.751
543.60	12.062
543.80	11.814
543.99	11.020
544.19	12.053
544.38	12.032
544.58	11.711
544.77	11.668
544.97	12.280
545.16	11.060
545.36	11.994
545.56	11.529
545.75	11.685
545.95	10.975
546.14	11.725
546.34	11.388
546.53	12.186
546.73	11.490
546.92	11.889
547.12	10.907
547.31	12.254
547.51	11.204
547.70	12.405
547.90	11.301
548.09	11.875
548.29	11.797
548.48	12.369
548.68	12.044
548.87	12.345
549.07	11.947
549.26	12.118
549.46	11.953
549.65	12.085
549.84	11.007
550.04	11.847
550.23	11.266
550.43	11.911
550.62	11.717
550.82	11.081
551.01	9.892
551.21	11.512
551.40	10.761
551.60	11.929
551.79	10.483
551.99	11.357
552.18	10.896
552.38	12.795
552.57	11.143
552.77	12.491
552.96	11.925
553.16	13.199
553.35	11.799
553.54	13.187
553.74	12.354
553.93	13.838
554.13	12.466
554.32	13.128
554.52	12.176
554.71	12.854
554.91	12.080
555.10	13.776
555.29	11.162
555.49	13.359
555.68	11.546
555.88	13.567
556.07	12.101
556.27	13.654
556.46	13.171
556.66	13.063
556.85	13.385
557.04	13.699
557.24	12.524
557.43	14.136
557.63	12.829
557.82	14.180
558.02	12.973
558.21	14.301
558.40	12.555
558.60	14.124
558.79	12.744
558.99	14.980
559.18	13.281
559.38	13.775
559.57	13.760
559.76	14.939
559.96	15.120
560.15	14.458
560.35	13.284
560.54	15.044
560.73	12.303
560.93	14.958
561.12	14.983
561.32	15.653
561.51	14.328
561.70	15.543
561.90	14.411
562.09	16.516
562.29	14.350
562.48	15.969
562.67	14.816
562.87	15.783
563.06	15.468
563.26	16.571
563.45	15.786
563.64	17.162
563.84	15.328
564.03	16.585
564.23	16.038
564.42	16.411
564.61	15.076
564.81	17.227
565.00	16.375
565.20	16.703
565.39	16.429
565.58	17.641
565.78	16.809
565.97	18.031
566.16	17.503
566.36	18.395
566.55	17.126
566.74	17.731
566.94	18.044
567.13	18.529
567.33	17.700
567.52	18.857
567.71	18.325
567.91	18.568
568.10	18.868
568.29	18.778
568.49	18.134
568.68	19.326
568.87	17.865
569.07	18.860
569.26	18.261
569.45	19.304
569.65	17.847
569.84	19.726
570.04	18.807
570.23	19.064
570.42	18.588
570.62	19.606
570.81	19.218
571.00	19.383
571.20	19.106
571.39	19.190
571.58	20.049
571.78	20.194
571.97	19.609
572.16	19.862
572.36	19.134
572.55	20.463
572.74	19.953
572.94	19.918
573.13	20.106
573.32	19.608
573.51	20.321
573.71	20.850
573.90	19.388
574.09	19.969
574.29	20.347
574.48	20.672
574.67	19.174
574.87	20.317
575.06	19.504
575.25	20.660
575.45	19.613
575.64	20.587
575.83	20.261
576.03	21.378
576.22	19.582
576.41	20.874
576.60	19.399
576.80	20.899
576.99	20.330
577.18	19.803
577.38	20.407
577.57	20.468
577.76	20.406
577.95	21.017
578.15	19.315
578.34	20.757
578.53	20.299
578.73	20.309
578.92	20.300
579.11	21.166
579.30	19.397
579.50	20.540
579.69	19.708
579.88	20.865
580.08	19.004
580.27	19.923
580.46	20.259
580.65	20.367
580.85	18.944
581.04	19.715
581.23	19.787
581.42	19.902
581.62	19.536
581.81	20.846
582.00	20.324
582.19	18.745
582.39	19.854
582.58	19.213
582.77	18.653
582.96	19.430
583.16	19.276
583.35	21.076
583.54	18.534
583.73	19.263
583.93	18.675
584.12	19.514
584.31	19.128
584.50	19.463
584.70	19.050
584.89	20.000
585.08	18.761
585.27	20.194
585.47	18.566
585.66	20.295
585.85	18.402
586.04	19.217
586.24	19.055
586.43	19.052
586.62	18.319
586.81	20.214
587.00	17.605
587.20	19.940
587.39	17.937
587.58	20.898
587.77	19.256
587.97	19.338
588.16	18.490
588.35	18.862
588.54	18.051
588.73	19.246
588.93	20.102
589.12	19.093
589.31	18.415
589.50	17.871
589.69	19.739
589.89	19.068
590.08	17.997
590.27	19.450
590.46	18.371
590.65	19.592
590.85	17.852
591.04	19.739
591.23	19.358
591.42	20.104
591.61	18.410
591.81	19.384
592.00	19.109
592.19	19.751
592.38	17.786
592.57	18.619
592.77	19.253
592.96	18.544
593.15	19.260
593.34	20.257
593.53	17.867
593.72	20.435
593.92	19.599
594.11	20.392
594.30	18.220
594.49	19.412
594.68	19.460
594.87	20.297
595.07	19.392
595.26	20.573
595.45	17.790
595.64	20.492
595.83	18.170
596.02	20.978
596.22	20.040
596.41	20.706
596.60	18.873
596.79	20.837
596.98	19.293
597.17	20.965
597.37	20.110
597.56	21.110
597.75	19.890
597.94	20.717
598.13	21.180
598.32	20.977
598.51	20.240
598.71	21.692
598.90	20.294
599.09	21.211
599.28	21.158
599.47	22.330
599.66	20.247
599.85	22.066
600.05	19.623
600.24	21.842
600.43	20.309
600.62	21.485
600.81	20.023
601.00	22.534
601.19	19.410
601.38	20.185
601.58	20.462
601.77	20.884
601.96	20.048
602.15	22.138
602.34	20.378
602.53	21.493
602.72	21.051
602.91	22.330
603.10	19.964
603.30	21.056
603.49	20.912
603.68	22.241
603.87	19.333
604.06	22.135
604.25	22.328
604.44	21.324
604.63	21.073
604.82	22.202
605.01	22.308
605.21	22.780
605.40	22.567
605.59	22.345
605.78	22.035
605.97	22.840
606.16	22.355
606.35	22.364
606.54	21.745
606.73	21.939
606.92	21.181
607.11	22.658
607.30	20.504
607.50	22.859
607.69	20.907
607.88	21.889
608.07	20.460
608.26	22.163
608.45	22.206
608.64	22.548
608.83	20.202
609.02	22.445
609.21	20.617
609.40	21.467
609.59	20.720
609.78	21.459
609.97	20.690
610.16	21.971
610.35	20.466
610.55	21.725
610.74	21.891
610.93	21.671
611.12	20.840
611.31	21.483
611.50	20.188
611.69	22.098
611.88	20.571
612.07	21.550
612.26	19.113
612.45	20.877
612.64	18.973
612.83	21.174
613.02	17.704
613.21	19.895
613.40	19.364
613.59	19.419
613.78	16.807
613.97	19.258
614.16	19.169
614.35	19.546
614.54	15.518
614.73	18.266
614.92	16.862
615.11	18.548
615.30	16.887
615.49	17.799
615.68	17.547
615.87	17.321
616.07	16.075
616.26	18.576
616.45	16.568
616.64	16.936
616.83	17.865
617.02	18.103
617.21	15.333
617.40	17.200
617.59	17.263
617.78	18.851
617.97	15.698
618.16	15.851
618.35	15.302
618.54	17.051
618.73	16.624
618.92	16.332
619.11	16.146
619.30	18.570
619.49	14.037
619.68	17.501
619.86	15.305
620.05	18.581
620.24	15.037
620.43	16.977
620.62	12.076
620.81	15.317
621.00	15.741
621.19	17.206
621.38	14.092
621.57	17.020
621.76	15.315
621.95	17.046
622.14	15.117
622.33	17.893
622.52	13.832
622.71	16.453
622.90	13.454
623.09	16.490
623.28	14.590
623.47	16.904
623.66	15.357
623.85	15.476
624.04	15.231
624.23	15.062
624.42	14.993
624.61	15.035
624.80	12.479
624.99	15.185
625.18	13.458
625.36	15.438
625.55	15.517
625.74	15.053
625.93	14.328
626.12	16.300
626.31	16.978
626.50	15.896
626.69	15.129
626.88	17.804
627.07	16.637
627.26	16.372
627.45	15.066
627.64	16.376
627.83	14.752
628.02	16.410
628.20	15.950
628.39	17.150
628.58	15.750
628.77	17.042
628.96	14.635
629.15	15.928
629.34	15.497
629.53	14.935
629.72	12.629
629.91	17.021
630.10	14.696
630.29	14.181
630.47	14.145
630.66	14.329
630.85	13.998
631.04	15.717
631.23	15.074
631.42	14.428
631.61	11.847
631.80	15.984
631.99	13.241
632.18	14.256
632.36	12.029
632.55	15.675
632.74	13.396
632.93	12.455
633.12	12.976
633.31	14.475
633.50	13.343
633.69	15.533
633.88	11.397
634.06	14.658
634.25	13.230
634.44	13.636
634.63	13.628
634.82	15.892
635.01	11.989
635.20	14.897
635.39	12.778
635.57	15.584
635.76	13.847
635.95	14.926
636.14	10.880
636.33	14.323
636.52	11.962
636.71	13.354
636.89	12.772
637.08	14.754
637.27	12.521
637.46	13.554
637.65	13.268
637.84	13.782
638.03	11.396
638.21	14.634
638.40	12.827
638.59	11.711
638.78	12.191
638.97	14.688
639.16	15.460
639.34	13.836
639.53	9.499
639.72	14.928
639.91	9.776
640.10	10.692
640.29	13.685
640.47	14.842
640.66	12.141
640.85	16.339
641.04	9.269
641.23	14.014
641.42	11.267
641.60	14.989
641.79	11.360
641.98	11.844
642.17	12.188
642.36	13.864
642.54	10.940
642.73	11.533
642.92	10.273
643.11	11.492
643.30	11.160
643.49	10.801
643.67	7.685
643.86	12.053
644.05	10.290
644.24	10.948
644.43	11.636
644.61	12.471
644.80	10.586
644.99	11.249
645.18	13.699
645.37	12.947
645.55	10.215
645.74	11.867
645.93	12.149
646.12	12.286
646.31	10.672
646.49	12.065
646.68	11.780
646.87	10.745
647.06	11.341
647.24	12.127
647.43	8.194
647.62	13.320
647.81	8.840
648.00	12.662
648.18	7.590
648.37	11.695
648.56	10.241
648.75	10.655
648.93	11.327
649.12	11.623
649.31	10.307
649.50	12.448
649.68	9.846
649.87	10.907
650.06	8.840
650.25	13.728
650.43	9.096
650.62	12.104
650.81	11.525
651.00	12.170
651.18	8.807
651.37	12.636
651.56	11.411
651.75	12.103
651.93	9.439
652.12	11.499
652.31	9.205
652.50	10.583
652.68	12.863
652.87	13.770
653.06	12.533
653.25	14.528
653.43	10.635
653.62	11.015
653.81	10.385
654.00	13.670
654.18	9.077
654.37	14.063
654.56	12.286
654.74	10.385
654.93	10.343
655.12	10.536
655.31	9.317
655.49	11.568
655.68	9.734
655.87	9.556
656.05	7.259
656.24	10.739
656.43	5.948
656.62	9.262
656.80	9.580
656.99	8.413
657.18	7.731
657.36	9.524
657.55	11.814
657.74	8.735
657.93	10.664
658.11	12.854
658.30	8.120
658.49	8.965
658.67	7.726
658.86	8.009
659.05	8.493
659.23	11.350
659.42	9.244
659.61	11.691
659.79	9.104
659.98	10.038
660.17	10.127
660.35	10.269
660.54	9.851
660.73	11.736
660.91	11.122
661.10	10.854
661.29	6.103
661.47	9.188
661.66	9.698
661.85	9.295
662.03	8.248
662.22	6.370
662.41	5.152
662.59	8.336
662.78	5.556
662.97	7.326
663.15	6.641
663.34	5.172
663.53	5.248
663.71	6.519
663.90	4.363
664.09	8.636
664.27	7.377
664.46	6.246
664.65	5.997
664.83	6.526
665.02	6.450
665.21	5.773
665.39	6.204
665.58	6.695
665.77	5.119
665.95	7.188
666.14	4.910
666.32	7.535
666.51	5.597
666.70	6.533
666.88	6.547
667.07	4.408
667.26	5.278
667.44	5.891
667.63	6.743
667.81	4.505
668.00	6.044
668.19	8.339
668.37	6.384
668.56	7.933
668.75	5.258
668.93	7.602
669.12	6.543
669.30	5.846
669.49	5.687
669.68	5.412
669.86	7.410
670.05	5.340
670.23	6.385
670.42	4.394
670.61	6.418
670.79	6.101
670.98	6.966
671.16	9.416
671.35	6.753
671.54	6.373
671.72	5.807
671.91	6.387
672.09	6.803
672.28	9.218
672.46	9.771
672.65	7.159
672.84	9.060
673.02	8.394
673.21	4.194
673.39	6.235
673.58	8.092
673.77	7.502
673.95	8.302
674.14	8.135
674.32	6.798
674.51	10.091
674.69	6.800
674.88	8.486
675.07	7.237
675.25	10.497
675.44	7.588
675.62	8.465
675.81	6.308
675.99	13.068
676.18	9.439
676.36	7.876
676.55	5.365
676.74	10.769
676.92	10.683
677.11	11.638
677.29	8.164
677.48	9.470
677.66	9.041
677.85	6.777
678.03	7.662
678.22	9.324
678.40	8.611
678.59	7.051
678.78	7.636
678.96	9.884
679.15	6.537
679.33	10.515
679.52	11.291
679.70	10.322
679.89	6.664
680.07	10.540
680.26	7.298
680.44	10.309
680.63	9.182
680.81	9.492
681.00	6.570
681.18	11.716
681.37	8.362
681.55	12.730
681.74	12.181
681.92	11.192
682.11	11.071
682.29	10.242
682.48	10.324
682.66	11.289
682.85	10.171
683.03	11.070
683.22	11.722
683.40	11.568
683.59	11.654
683.77	11.711
683.96	8.651
684.14	13.718
684.33	6.832
684.51	15.209
684.70	11.085
684.88	16.167
685.07	13.517
685.25	16.213
685.44	10.831
685.62	15.259
685.81	10.182
685.99	13.978
686.18	9.422
686.36	12.515
686.55	10.403
686.73	11.573
686.92	15.133
687.10	14.795
687.29	15.173
687.47	15.010
687.65	13.119
687.84	14.047
688.02	15.798
688.21	16.719
688.39	12.500
688.58	18.968
688.76	14.235
688.95	15.577
689.13	12.571
689.32	17.847
689.50	14.863
689.68	16.519
689.87	14.114
690.05	18.899
690.24	18.242
690.42	19.533
690.61	19.312
690.79	17.175
690.98	15.008
691.16	20.390
691.34	15.636
691.53	18.504
691.71	17.367
691.90	20.557
692.08	15.703
692.27	21.283
692.45	21.937
692.63	20.515
692.82	23.629
693.00	23.965
693.19	17.949
693.37	24.595
693.56	22.586
693.74	25.981
693.92	22.249
694.11	22.530
694.29	22.934
694.48	28.348
694.66	20.440
694.84	28.692
695.03	20.018
695.21	30.455
695.40	29.397
695.58	28.277
695.76	24.258
695.95	28.760
696.13	25.131
696.32	29.078
696.50	36.710
696.68	31.640
696.87	26.937
697.05	30.421
697.24	30.394
697.42	36.095
697.60	30.699
697.79	34.165
697.97	32.977
698.16	37.631
698.34	33.515
698.52	37.019
698.71	36.771
698.89	37.476
699.07	37.180
699.26	37.492
699.44	37.575
699.63	38.613
699.81	37.713
699.99	39.619
700.18	38.199
700.36	39.779
700.54	40.721
700.73	37.701
700.91	38.678
701.09	43.224
701.28	39.043
701.46	43.174
701.64	40.008
701.83	44.394
702.01	41.194
702.20	44.302
702.38	38.640
702.56	40.098
702.75	41.410
702.93	41.627
703.11	39.770
703.30	43.716
703.48	42.256
703.66	44.423
703.85	42.244
704.03	46.812
704.21	40.618
704.40	46.375
704.58	42.020
704.76	46.413
704.95	42.117
705.13	47.526
705.31	45.810
705.50	46.170
705.68	41.996
705.86	49.393
706.04	44.779
706.23	48.490
706.41	42.458
706.59	45.212
706.78	45.016
706.96	50.456
707.14	44.365
707.33	50.252
707.51	46.509
707.69	51.191
707.88	45.892
708.06	47.526
708.24	48.706
708.42	51.538
708.61	45.989
708.79	47.469
708.97	51.403
709.16	52.083
709.34	47.090
709.52	49.252
709.71	49.511
709.89	53.678
710.07	46.744
710.25	49.892
710.44	44.804
710.62	47.046
710.80	51.020
710.98	52.918
711.17	49.072
711.35	50.563
711.53	47.764
711.72	53.300
711.90	49.723
712.08	51.260
712.26	49.032
712.45	53.571
712.63	50.744
712.81	54.860
712.99	48.843
713.18	55.612
713.36	51.786
713.54	52.683
713.72	46.754
713.91	53.670
714.09	50.182
714.27	55.221
714.45	49.480
714.64	55.689
714.82	48.461
715.00	52.369
715.18	53.426
715.37	52.017
715.55	51.440
715.73	50.638
715.91	53.147
716.10	53.477
716.28	50.197
716.46	54.569
716.64	49.644
716.83	53.788
717.01	52.199
717.19	51.796
717.37	50.869
717.55	52.092
717.74	53.478
717.92	54.855
718.10	49.772
718.28	54.700
718.47	47.405
718.65	51.950
718.83	48.133
719.01	55.515
719.19	52.277
719.38	50.431
719.56	48.450
719.74	51.466
719.92	46.207
720.10	52.166
720.29	46.908
720.47	51.799
720.65	50.978
720.83	51.432
721.01	45.007
721.20	51.486
721.38	44.444
721.56	54.724
721.74	48.573
721.92	54.775
722.11	45.851
722.29	54.778
722.47	53.269
722.65	53.278
722.83	47.939
723.01	49.932
723.20	50.303
723.38	53.889
723.56	51.456
723.74	56.803
723.92	47.754
724.10	54.752
724.29	46.279
724.47	51.704
724.65	46.846
724.83	52.495
725.01	51.783
725.19	52.662
725.38	49.045
725.56	56.059
725.74	52.263
725.92	58.674
726.10	47.297
726.28	54.114
726.46	56.509
726.65	51.972
726.83	52.321
727.01	53.551
727.19	50.973
727.37	57.708
727.55	51.778
727.73	54.558
727.92	50.208
728.10	57.631
728.28	47.737
728.46	53.578
728.64	51.417
728.82	54.266
729.00	51.877
729.19	55.822
729.37	55.637
729.55	57.452
729.73	52.010
729.91	58.010
730.09	56.041
730.27	58.503
730.45	54.958
730.63	55.308
730.82	50.000
731.00	57.493
731.18	56.054
731.36	57.587
731.54	50.262
731.72	58.872
731.90	55.476
732.08	55.128
732.26	53.267
732.45	59.608
732.63	59.109
732.81	59.532
732.99	51.343
733.17	57.298
733.35	57.810
733.53	56.254
733.71	50.789
733.89	57.214
734.07	57.952
734.25	59.675
734.44	58.138
734.62	55.964
734.80	54.153
734.98	59.947
735.16	60.100
735.34	60.270
735.52	55.689
735.70	57.371
735.88	55.687
736.06	59.703
736.24	58.638
736.42	62.050
736.60	58.072
736.78	64.003
736.97	54.792
737.15	62.984
737.33	54.897
737.51	54.708
737.69	62.920
737.87	55.469
738.05	60.195
738.23	58.195
738.41	55.556
738.59	60.579
738.77	60.522
738.95	65.987
739.13	55.529
739.31	60.157
739.49	62.520
739.67	63.285
739.85	60.810
740.03	59.719
740.21	56.323
740.39	59.171
740.57	62.173
740.75	61.239
740.93	53.659
741.11	64.950
741.30	57.085
741.48	61.652
741.66	59.783
741.84	61.379
742.02	55.385
742.20	64.387
742.38	57.108
742.56	61.404
742.74	59.603
742.92	58.824
743.10	55.404
743.28	69.855
743.46	61.423
743.64	58.442
743.82	57.478
744.00	61.575
744.18	59.033
744.36	59.289
744.54	58.597
744.72	62.137
744.90	58.080
745.08	63.803
745.26	56.488
745.44	62.149
745.62	55.891
745.80	63.777
745.98	57.088
746.16	56.960
746.34	64.974
746.52	64.857
746.70	57.900
746.87	60.103
747.05	58.617
747.23	60.429
747.41	61.489
747.59	63.442
747.77	52.309
747.95	60.762
748.13	52.120
748.31	61.450
748.49	60.643
748.67	60.335
748.85	59.381
749.03	60.700
749.21	64.090
749.39	66.199
749.57	56.725
749.75	58.162
749.93	60.843
750.11	59.077
750.29	54.710
750.47	61.785
750.65	64.585
750.83	64.046
751.01	52.965
751.18	65.668
751.36	57.407
751.54	64.772
751.72	55.245
751.90	60.368
752.08	53.724
752.26	65.144
752.44	59.078
752.62	59.505
752.80	58.214
752.98	68.448
753.16	56.500
753.34	58.801
753.52	62.199
753.69	60.592
753.87	53.684
754.05	66.769
754.23	59.754
754.41	58.137
754.59	62.167
754.77	63.063
754.95	61.449
755.13	61.065
755.31	63.158
755.49	62.165
755.66	59.819
755.84	58.818
756.02	61.470
756.20	59.811
756.38	55.010
756.56	54.801
756.74	57.271
756.92	58.554
757.10	61.436
757.28	63.116
757.45	60.423
757.63	66.154
757.81	57.594
757.99	65.421
758.17	57.569
758.35	53.450
758.53	59.042
758.71	58.610
758.88	52.783
759.06	62.218
759.24	55.816
759.42	49.706
759.60	53.347
759.78	51.603
759.96	45.980
760.13	50.925
760.31	44.979
760.49	49.075
760.67	37.476
760.85	46.272
761.03	42.958
761.21	45.204
761.38	38.819
761.56	47.015
761.74	38.168
761.92	50.971
762.10	36.347
762.28	48.991
762.46	32.222
762.63	40.073
762.81	40.038
762.99	43.401
763.17	40.097
763.35	42.485
763.53	40.387
763.70	46.280
763.88	49.451
764.06	47.854
764.24	45.466
764.42	48.951
764.60	48.115
764.77	52.266
764.95	47.656
765.13	55.556
765.31	48.081
765.49	55.058
765.66	51.653
765.84	51.676
766.02	49.666
766.20	57.302
766.38	45.607
766.56	52.721
766.73	49.655
766.91	54.828
767.09	54.749
767.27	48.931
767.45	55.596
767.62	58.725
767.80	49.756
767.98	55.611
768.16	49.740
768.33	55.996
768.51	62.316
768.69	59.336
768.87	53.650
769.05	58.645
769.22	47.409
769.40	64.819
769.58	60.621
769.76	59.341
769.94	59.024
770.11	57.725
770.29	54.104
770.47	59.041
770.65	58.475
770.82	58.906
771.00	65.762
771.18	61.585
771.36	50.521
771.53	58.554
771.71	56.974
771.89	60.408
772.07	58.333
772.25	61.740
772.42	52.362
772.60	70.044
772.78	50.218
772.96	57.344
773.13	52.473
773.31	60.484
773.49	59.071
773.67	63.093
773.84	57.637
774.02	58.963
774.20	53.285
774.37	60.083
774.55	48.777
774.73	63.240
774.91	54.325
775.08	59.334
775.26	50.292
775.44	57.402
775.62	60.060
775.79	57.963
775.97	57.385
776.15	53.977
776.32	53.159
776.50	59.380
776.68	58.177
776.86	60.093
777.03	57.911
777.21	59.969
777.39	54.427
777.56	55.869
777.74	44.578
777.92	57.441
778.10	46.945
778.27	66.512
778.45	48.706
778.63	61.769
778.80	58.280
778.98	60.057
779.16	62.647
779.34	59.216
779.51	47.699
779.69	60.762
779.87	63.748
780.04	64.507
780.22	49.853
780.40	54.958
780.57	58.373
780.75	48.464
780.93	63.108
781.10	58.172
781.28	58.649
781.46	51.246
781.63	56.860
781.81	60.736
781.99	52.303
782.16	60.927
782.34	53.367
782.52	57.810
782.69	53.593
782.87	54.899
783.05	54.992
783.22	60.536
783.40	57.571
783.58	60.832
783.75	49.656
783.93	67.210
784.11	51.142
784.28	59.862
784.46	48.501
784.64	53.929
784.81	42.832
784.99	64.090
785.17	66.990
785.34	59.075
785.52	51.429
785.69	54.332
785.87	55.307
786.05	55.714
786.22	62.264
786.40	64.234
786.58	57.047
786.75	58.780
786.93	57.218
787.11	53.322
787.28	53.265
787.46	53.249
787.63	54.706
787.81	59.199
787.99	54.833
788.16	46.393
788.34	40.836
788.51	54.378
788.69	47.264
788.87	56.287
789.04	48.558
789.22	55.007
789.39	48.270
789.57	48.348
789.75	45.950
789.92	56.490
790.10	41.894
790.27	46.857
790.45	48.025
790.63	59.968
790.80	42.718
790.98	48.944
791.15	51.398
791.33	51.550
791.51	51.056
791.68	47.217
791.86	50.087
792.03	57.411
792.21	49.265
792.39	58.156
792.56	47.120
792.74	60.681
792.91	47.963
793.09	47.979
793.26	43.606
793.44	45.920
793.62	46.457
793.79	53.280
793.97	60.429
794.14	50.484
794.32	45.984
794.49	56.661
794.67	43.496
794.84	50.524
795.02	49.338
795.20	47.070
795.37	49.000
795.55	51.175
795.72	49.627
795.90	57.115
796.07	53.770
796.25	54.611
796.42	43.357
796.60	48.414
796.77	45.552
796.95	55.696
797.13	43.304
797.30	58.065
797.48	39.209
797.65	49.920
797.83	42.274
798.00	52.985
798.18	42.647
798.35	58.103
798.53	57.670
798.70	42.124
798.88	53.175
799.05	50.446
799.23	42.077
799.40	49.466
799.58	49.913
799.75	56.021
799.93	45.889
800.10	61.654
800.28	49.068
800.45	55.332
800.63	41.065
800.80	54.496
800.98	52.741
801.15	49.819
801.33	39.729
801.50	48.566
801.68	40.217
801.85	54.054
802.03	50.301
802.20	63.232
802.38	48.876
802.55	46.680
802.73	47.206
802.90	50.303
803.08	48.713
803.25	54.910
803.43	51.639
803.60	54.746
803.78	48.134
803.95	41.558
804.13	50.954
804.30	46.532
804.48	43.013
804.65	48.764
804.83	43.058
805.00	47.682
805.17	50.959
805.35	51.750
805.52	39.511
805.70	67.012
805.87	45.611
806.05	44.177
806.22	45.208
806.40	44.423
806.57	53.682
806.75	54.508
806.92	52.263
807.09	54.526
807.27	51.020
807.44	52.063
807.62	44.487
807.79	43.925
807.97	46.000
808.14	55.301
808.31	42.105
808.49	46.572
808.66	52.099
808.84	43.058
809.01	40.920
809.19	38.028
809.36	57.203
809.53	49.428
809.71	47.436
809.88	54.875
810.06	52.954
810.23	54.120
810.41	58.071
810.58	55.097
810.75	47.368
810.93	53.653
811.10	38.646
811.28	50.787
811.45	51.880
811.62	53.708
811.80	51.256
811.97	53.015
812.15	56.492
812.32	41.885
812.49	51.106
812.67	41.766
812.84	46.875
813.02	59.524
813.19	50.121
813.36	55.801
813.54	32.997
813.71	40.464
813.89	46.114
814.06	45.113
814.23	47.647
814.41	41.162
814.58	52.066
814.75	44.959
814.93	46.040
815.10	47.745
815.28	38.308
815.45	34.426
815.62	41.954
815.80	28.655
815.97	25.500
816.14	45.623
816.32	50.388
816.49	31.398
816.66	27.733
816.84	35.080
817.01	32.829
817.18	35.770
817.36	49.357
817.53	53.398
817.71	35.219
817.88	39.352
818.05	36.117
818.23	48.175
818.40	35.467
818.57	42.597
818.75	40.421
818.92	35.589
819.09	26.196
819.27	46.250
819.44	22.803
819.61	41.339
819.79	41.387
819.96	30.594
820.13	46.586
820.31	43.433
820.48	45.621
820.65	41.284
820.82	42.373
821.00	44.768
821.17	34.673
821.34	36.862
821.52	38.881
821.69	42.346
821.86	30.209
822.04	46.587
822.21	40.839
822.38	45.146
822.56	41.563
822.73	49.949
822.90	45.689
823.07	46.706
823.25	48.276
823.42	48.417
823.59	49.226
823.77	51.187
823.94	48.891
824.11	49.964
824.29	46.714
824.46	49.854
824.63	49.034
824.80	47.875
824.98	47.441
825.15	51.078
825.32	43.053
825.49	46.918
825.67	43.031
825.84	45.192
826.01	44.000
826.19	47.500
826.36	36.111
826.53	43.432
826.70	38.852
826.88	48.152
827.05	36.867
827.22	40.835
827.39	42.459
827.57	42.434
827.74	37.028
827.91	47.866
828.08	35.647
828.26	47.736
828.43	38.911
828.60	44.838
828.77	41.057
828.95	40.131
829.12	38.021
829.29	40.282
829.46	36.952
829.64	35.987
829.81	30.760
829.98	40.920
830.15	34.247
830.32	38.583
830.50	23.547
830.67	40.894
830.84	34.783
831.01	35.575
831.19	38.148
831.36	41.036
831.53	41.928
831.70	43.678
831.87	33.051
832.05	46.028
832.22	46.222
832.39	32.388
832.56	44.063
832.74	45.392
832.91	35.661
833.08	52.350
833.25	28.818
833.42	35.282
833.60	31.636
833.77	28.993
833.94	29.393
834.11	30.965
834.28	32.673
834.45	36.861
834.63	36.054
834.80	40.091
834.97	36.149
835.14	36.151
835.31	32.992
835.49	37.076
835.66	32.500
835.83	32.907
836.00	36.604
836.17	37.197
836.34	34.700
836.52	36.350
836.69	38.932
836.86	36.511
837.03	32.015
837.20	38.889
837.37	35.039
837.55	37.083
837.72	31.435
837.89	39.899
838.06	43.714
838.23	39.216
838.40	35.542
838.58	40.922
838.75	35.644
838.92	40.248
839.09	45.361
839.26	51.815
839.43	52.901
839.60	48.048
839.78	60.390
839.95	56.131
840.12	45.734
840.29	62.712
840.46	47.239
840.63	52.038
840.80	53.398
840.98	68.590
841.15	46.250
841.32	50.909
841.49	34.641
841.66	52.658
841.83	53.416
842.00	43.189
842.17	50.568
842.34	31.757
842.52	53.000
842.69	42.373
842.86	40.698
843.03	59.410
843.20	47.893
843.37	63.838
843.54	44.569
843.71	34.375
843.88	81.778
844.06	69.200
844.23	64.286
844.40	49.333
844.57	70.166
844.74	80.488
844.91	48.792
845.08	86.932
845.25	60.870
845.42	58.602
845.59	66.842
845.76	59.487
845.94	88.614
846.11	67.808
846.28	76.190
846.45	86.517
846.62	71.429
846.79	52.055
846.96	72.840
847.13	67.442
847.30	64.138
847.47	74.820
847.64	83.721
847.81	101.695
847.98	58.794
848.15	72.993
848.32	67.296
848.50	101.796
848.67	50.000
848.84	67.123
849.01	54.190
849.18	59.278
849.35	73.437
849.52	62.069
849.69	75.497
849.86	70.068
850.03	94.776
850.20	77.778
850.37	101.681
850.54	77.654
850.71	92.715
850.88	47.486
851.05	81.356
851.22	73.034
851.39	94.595
851.56	73.214
851.73	63.522
851.90	76.398
852.07	118.797
852.24	100.000
852.41	61.905
852.58	64.789
852.75	96.552
852.92	57.073
853.09	90.625
853.26	62.434
853.43	84.906
853.60	88.764
853.77	84.810
853.94	87.591
854.11	69.930
854.28	84.000
854.45	52.344
854.62	68.528
854.79	66.013
854.96	70.400
855.13	84.211
855.30	95.918
855.47	74.138
855.64	109.774
855.81	83.333
855.98	49.206
856.15	107.207
856.32	42.138
856.49	88.372
856.66	27.972
856.83	66.667
857.00	57.516
857.17	75.385
857.34	57.895
857.51	99.281
857.68	77.297
857.85	73.295
858.02	85.185
858.19	105.405
858.36	64.545
858.53	58.710
858.70	71.257
858.87	77.215
859.04	102.419
859.21	59.459
859.38	95.614
859.55	86.567
859.72	125.287
859.89	77.698
860.05	109.910
860.22	74.869
860.39	77.679
860.56	81.679
860.73	104.065
860.90	88.073
861.07	63.816
861.24	65.132
861.41	93.519
861.58	70.833
861.75	100.000
861.92	91.447
862.09	82.963
862.26	75.214
862.43	59.406
862.59	94.118
862.76	74.126
862.93	134.831
863.10	61.905
863.27	33.333
863.44	119.540
863.61	59.854
863.78	68.571
863.95	93.464
864.12	71.839
864.29	78.632
864.45	55.172
864.62	42.373
864.79	60.465
864.96	64.228
865.13	56.757
865.30	81.988
865.47	89.024
865.64	52.518
865.81	83.969
865.97	81.333
866.14	79.592
866.31	90.000
866.48	71.523
866.65	70.513
866.82	87.342
866.99	93.162
867.16	67.669
867.33	106.452
867.49	75.926
867.66	59.794
867.83	67.717
868.00	60.959
868.17	65.289
868.34	79.825
868.51	69.524
868.67	73.418
868.84	68.333
869.01	73.600
869.18	85.816
869.35	58.140
869.52	73.810
869.69	64.384
869.85	65.421
870.02	107.692
870.19	93.220
870.36	114.483
870.53	85.714
870.70	87.421
870.86	64.000
871.03	68.519
871.20	77.982
871.37	94.828
871.54	46.622
871.71	67.143
871.87	63.522
872.04	66.286
872.21	110.435
872.38	83.740
872.55	71.605
872.72	71.875
872.88	88.827
873.05	80.460
873.22	93.878
873.39	103.061
873.56	61.538
873.72	66.471
873.89	63.975
874.06	68.657
874.23	66.102
874.40	42.000
874.56	108.421
874.73	68.293
874.90	110.169
875.07	64.286
875.24	74.534
875.40	90.756
875.57	83.486
875.74	79.200
875.91	88.073
876.08	93.913
876.24	38.372
876.41	94.400
876.58	61.702
876.75	68.085
876.92	56.618
877.08	72.794
877.25	45.217
877.42	92.969
877.59	92.857
877.75	53.333
877.92	47.024
878.09	100.000
878.26	53.892
878.42	62.500
878.59	73.913
878.76	78.289
878.93	70.149
879.09	61.616
879.26	65.244
879.43	81.622
879.60	62.238
879.76	61.932
879.93	50.556
880.10	52.667
880.27	39.752
880.43	71.508
880.60	20.548
880.77	52.841
880.94	34.826
881.10	29.499
881.27	37.705
881.44	26.912
881.61	36.996
881.77	34.990
881.94	22.288
882.11	28.521
882.28	22.492
882.44	22.452
882.61	31.505
882.78	28.321
882.94	38.137
883.11	29.988
883.28	27.724
883.45	30.300
883.61	27.601
883.78	28.857
883.95	36.268
884.11	33.333
884.28	23.454
>>>>>End Processed Spectral Data<<<<<
