SpectraSuite Data File
++++++++++++++++++++++++++++++++++++
Date: Wed Sep 18 03:30:55 EST 2019
User: sgrac
Dark Spectrum Present: Yes
Reference Spectrum Present: Yes
Number of Sampled Component Spectra: 1
Spectrometers: USB4E01596
Integration Time (usec): 100000 (USB4E01596)
Spectra Averaged: 3 (USB4E01596)
Boxcar Smoothing: 0 (USB4E01596)
Correct for Electrical Dark: No (USB4E01596)
Strobe/Lamp Enabled: Yes (USB4E01596)
Correct for Detector Non-linearity: No (USB4E01596)
Correct for Stray Light: No (USB4E01596)
Number of Pixels in Processed Spectrum: 3648
>>>>>Begin Processed Spectral Data<<<<<
178.44	-46.774
178.66	-46.774
178.87	-46.774
179.09	-194.000
179.30	198.913
179.52	568.421
179.74	-1088.889
179.95	-1386.667
180.17	486.047
180.38	-606.667
180.60	321.429
180.82	981.250
181.03	439.535
181.25	-1778.571
181.46	-532.500
181.68	-318.605
181.89	477.551
182.11	505.000
182.33	615.686
182.54	331.579
182.76	730.435
182.97	1421.429
183.19	228.261
183.40	247.727
183.62	332.692
183.84	253.226
184.05	551.515
184.27	467.213
184.48	1800.000
184.70	533.333
184.91	591.304
185.13	-456.250
185.34	-218.333
185.56	-493.939
185.78	1266.667
185.99	439.344
186.21	609.756
186.42	-1750.000
186.64	295.455
186.85	1306.250
187.07	407.143
187.28	497.619
187.50	-805.882
187.72	388.000
187.93	354.217
188.15	439.706
188.36	-1241.176
188.58	248.052
188.79	-8300.000
189.01	175.510
189.22	294.805
189.44	679.167
189.65	232.584
189.87	309.211
190.09	251.064
190.30	746.667
190.52	1356.250
190.73	319.277
190.95	886.364
191.16	250.746
191.38	-19200.000
191.59	556.522
191.81	294.286
192.02	-428.205
192.24	341.935
192.45	267.778
192.67	359.091
192.88	300.000
193.10	461.364
193.31	419.643
193.53	346.774
193.74	336.364
193.96	359.322
194.18	-826.087
194.39	472.549
194.61	737.931
194.82	984.615
195.04	422.222
195.25	304.918
195.47	-4475.000
195.68	190.141
195.90	218.681
196.11	416.667
196.33	1694.118
196.54	469.767
196.76	-740.000
196.97	259.000
197.19	845.000
197.40	256.391
197.62	-590.909
197.83	423.077
198.05	202.013
198.26	-596.000
198.48	355.556
198.69	200.000
198.91	308.696
199.12	-1683.333
199.34	912.000
199.55	10700.000
199.77	269.737
199.98	4883.333
200.20	576.471
200.41	314.085
200.63	403.704
200.84	1171.429
201.06	561.290
201.27	344.444
201.49	310.937
201.70	481.967
201.91	536.364
202.13	1070.000
202.34	-520.000
202.56	396.667
202.77	-203.488
202.99	292.683
203.20	419.149
203.42	504.286
203.63	221.101
203.85	-534.483
204.06	627.273
204.28	1373.333
204.49	560.465
204.71	199.160
204.92	669.231
205.14	989.474
205.35	4300.000
205.56	357.746
205.78	414.815
205.99	187.023
206.21	146.465
206.42	463.043
206.64	597.059
206.85	197.778
207.07	622.857
207.28	239.773
207.50	1052.174
207.71	360.465
207.93	377.083
208.14	453.488
208.35	276.271
208.57	376.000
208.78	282.979
209.00	246.237
209.21	213.380
209.43	413.889
209.64	869.231
209.86	1072.727
210.07	322.785
210.28	218.072
210.50	297.101
210.71	281.818
210.93	352.727
211.14	455.000
211.36	1028.571
211.57	192.500
211.78	526.923
212.00	575.676
212.21	2355.556
212.43	1792.308
212.64	725.000
212.86	237.273
213.07	601.923
213.29	286.735
213.50	270.000
213.71	202.500
213.93	225.843
214.14	500.000
214.36	524.390
214.57	296.429
214.78	4575.000
215.00	278.049
215.21	415.556
215.43	-5180.000
215.64	232.857
215.86	211.765
216.07	231.507
216.28	422.000
216.50	334.000
216.71	913.333
216.93	-16700.000
217.14	989.474
217.35	-172.881
217.57	252.273
217.78	544.828
218.00	220.952
218.21	302.941
218.42	-5025.000
218.64	939.286
218.85	263.235
219.07	400.000
219.28	437.500
219.49	-9200.000
219.71	358.209
219.92	386.842
220.14	-16800.000
220.35	317.808
220.56	254.348
220.78	203.659
220.99	-284.444
221.21	208.434
221.42	190.132
221.63	976.923
221.85	-540.000
222.06	184.848
222.28	-553.571
222.49	356.140
222.70	225.000
222.92	457.895
223.13	103.425
223.34	1891.667
223.56	136.752
223.77	259.259
223.99	230.303
224.20	214.286
224.41	190.000
224.63	124.432
224.84	167.742
225.05	221.311
225.27	458.182
225.48	296.341
225.69	332.812
225.91	298.462
226.12	212.000
226.34	176.471
226.55	131.132
226.76	148.837
226.98	224.359
227.19	145.714
227.40	131.690
227.62	129.744
227.83	72.857
228.04	91.351
228.26	91.892
228.47	61.058
228.69	30.492
228.90	49.864
229.11	39.607
229.33	56.404
229.54	38.610
229.75	24.057
229.97	20.812
230.18	33.108
230.39	31.167
230.61	17.007
230.82	32.714
231.03	13.184
231.25	43.314
231.46	31.044
231.67	33.803
231.89	34.753
232.10	34.142
232.31	32.830
232.53	47.333
232.74	42.771
232.95	40.990
233.17	44.592
233.38	50.355
233.59	52.539
233.81	41.578
234.02	51.873
234.23	46.094
234.45	22.067
234.66	34.158
234.87	54.607
235.09	46.890
235.30	23.367
235.51	47.368
235.73	29.216
235.94	47.899
236.15	42.644
236.36	35.056
236.58	43.939
236.79	46.642
237.00	44.134
237.22	35.912
237.43	46.331
237.64	23.589
237.86	44.512
238.07	55.679
238.28	35.622
238.50	44.172
238.71	34.423
238.92	33.941
239.13	27.350
239.35	43.228
239.56	54.565
239.77	61.133
239.99	38.397
240.20	48.958
240.41	20.774
240.63	26.103
240.84	37.459
241.05	23.704
241.26	30.015
241.48	25.718
241.69	28.602
241.90	15.594
242.12	23.477
242.33	18.732
242.54	17.769
242.75	12.126
242.97	17.855
243.18	12.205
243.39	12.073
243.61	10.926
243.82	13.036
244.03	13.556
244.24	13.074
244.46	13.205
244.67	12.175
244.88	12.586
245.09	16.578
245.31	10.886
245.52	11.611
245.73	19.793
245.95	29.863
246.16	17.183
246.37	18.802
246.58	20.910
246.80	22.800
247.01	14.173
247.22	13.258
247.43	10.360
247.65	12.002
247.86	10.512
248.07	8.724
248.28	8.246
248.50	8.259
248.71	10.388
248.92	6.395
249.13	9.545
249.35	8.258
249.56	9.732
249.77	5.839
249.98	8.691
250.20	8.061
250.41	14.028
250.62	13.875
250.83	15.380
251.05	16.913
251.26	14.527
251.47	17.670
251.68	16.241
251.90	15.055
252.11	15.952
252.32	15.418
252.53	17.834
252.75	11.413
252.96	15.048
253.17	12.394
253.38	11.493
253.59	6.740
253.81	10.426
254.02	10.134
254.23	14.162
254.44	14.677
254.66	18.337
254.87	18.519
255.08	12.060
255.29	21.105
255.50	15.959
255.72	15.449
255.93	15.598
256.14	23.197
256.35	15.622
256.57	21.392
256.78	27.706
256.99	22.572
257.20	18.068
257.41	15.847
257.63	12.078
257.84	17.300
258.05	10.092
258.26	15.531
258.47	18.311
258.69	15.420
258.90	9.903
259.11	10.056
259.32	13.716
259.53	11.076
259.75	9.778
259.96	11.460
260.17	10.329
260.38	8.483
260.59	4.959
260.81	7.241
261.02	5.524
261.23	5.647
261.44	6.312
261.65	4.890
261.87	5.775
262.08	6.726
262.29	7.904
262.50	6.629
262.71	6.592
262.92	7.771
263.14	6.560
263.35	7.173
263.56	11.436
263.77	11.300
263.98	8.064
264.20	12.398
264.41	12.236
264.62	9.989
264.83	7.059
265.04	14.598
265.25	13.520
265.47	13.310
265.68	11.833
265.89	12.403
266.10	11.886
266.31	13.043
266.52	11.916
266.74	11.623
266.95	9.968
267.16	11.219
267.37	12.271
267.58	9.168
267.79	9.141
268.01	8.165
268.22	8.738
268.43	8.495
268.64	7.988
268.85	10.870
269.06	10.308
269.27	7.390
269.49	5.117
269.70	10.234
269.91	9.963
270.12	12.516
270.33	11.438
270.54	12.226
270.75	9.841
270.97	7.934
271.18	10.515
271.39	7.602
271.60	9.518
271.81	7.902
272.02	11.141
272.23	7.167
272.45	7.097
272.66	6.774
272.87	6.814
273.08	6.449
273.29	7.757
273.50	4.816
273.71	5.098
273.92	6.787
274.14	6.479
274.35	7.138
274.56	7.619
274.77	6.122
274.98	7.611
275.19	7.353
275.40	11.812
275.61	7.638
275.83	7.910
276.04	9.898
276.25	13.066
276.46	8.911
276.67	7.708
276.88	11.081
277.09	4.795
277.30	11.446
277.51	6.909
277.73	8.324
277.94	9.598
278.15	10.045
278.36	10.878
278.57	5.955
278.78	7.660
278.99	9.413
279.20	9.773
279.41	12.060
279.62	7.715
279.84	9.919
280.05	4.089
280.26	9.098
280.47	10.152
280.68	7.839
280.89	6.242
281.10	10.338
281.31	9.146
281.52	9.579
281.73	7.264
281.94	5.876
282.16	7.377
282.37	8.768
282.58	9.460
282.79	7.067
283.00	8.139
283.21	8.357
283.42	7.516
283.63	7.591
283.84	6.136
284.05	8.296
284.26	7.387
284.47	7.662
284.68	7.349
284.89	4.607
285.11	7.658
285.32	7.340
285.53	6.467
285.74	9.618
285.95	6.373
286.16	8.557
286.37	4.124
286.58	4.560
286.79	5.411
287.00	4.586
287.21	4.234
287.42	4.850
287.63	6.552
287.84	5.972
288.05	5.394
288.26	7.172
288.48	6.614
288.69	6.239
288.90	7.037
289.11	7.265
289.32	7.444
289.53	6.558
289.74	4.571
289.95	6.779
290.16	6.420
290.37	7.459
290.58	5.132
290.79	4.027
291.00	5.127
291.21	7.097
291.42	6.915
291.63	5.229
291.84	5.988
292.05	4.983
292.26	6.540
292.47	6.116
292.68	3.405
292.89	6.878
293.10	8.431
293.31	5.949
293.52	4.662
293.73	5.778
293.94	6.667
294.15	4.432
294.36	5.820
294.57	5.542
294.79	5.681
295.00	6.059
295.21	6.759
295.42	6.765
295.63	9.044
295.84	4.456
296.05	4.846
296.26	5.735
296.47	6.919
296.68	5.619
296.89	6.332
297.10	6.328
297.31	6.319
297.52	4.959
297.73	5.230
297.94	2.650
298.15	4.416
298.36	3.952
298.57	4.349
298.78	5.332
298.99	4.566
299.20	4.970
299.41	5.113
299.62	4.166
299.83	5.644
300.04	4.984
300.25	5.798
300.46	5.627
300.67	7.100
300.88	5.126
301.09	3.793
301.30	5.474
301.50	6.429
301.71	7.354
301.92	7.028
302.13	4.649
302.34	5.253
302.55	5.966
302.76	6.043
302.97	4.118
303.18	5.895
303.39	6.873
303.60	6.257
303.81	5.114
304.02	5.071
304.23	5.684
304.44	6.689
304.65	5.623
304.86	6.612
305.07	5.410
305.28	5.743
305.49	6.805
305.70	7.100
305.91	6.044
306.12	4.091
306.33	5.015
306.54	7.764
306.75	6.262
306.96	7.878
307.17	4.947
307.38	6.825
307.58	4.258
307.79	5.893
308.00	8.276
308.21	4.708
308.42	2.783
308.63	7.397
308.84	6.166
309.05	6.873
309.26	3.750
309.47	6.620
309.68	4.609
309.89	6.405
310.10	4.682
310.31	4.250
310.52	3.961
310.73	7.047
310.94	3.829
311.14	3.875
311.35	6.286
311.56	5.957
311.77	5.498
311.98	3.566
312.19	4.350
312.40	4.826
312.61	5.208
312.82	4.995
313.03	5.316
313.24	4.576
313.45	5.748
313.66	5.691
313.86	6.458
314.07	5.288
314.28	4.974
314.49	3.754
314.70	4.903
314.91	6.876
315.12	6.068
315.33	7.599
315.54	5.867
315.75	6.793
315.96	3.622
316.16	6.258
316.37	7.876
316.58	6.406
316.79	6.728
317.00	8.284
317.21	7.356
317.42	7.553
317.63	4.814
317.84	7.212
318.05	5.584
318.25	6.406
318.46	6.834
318.67	5.710
318.88	8.192
319.09	7.798
319.30	6.861
319.51	7.366
319.72	6.750
319.93	4.434
320.13	5.889
320.34	7.054
320.55	3.403
320.76	6.836
320.97	6.957
321.18	7.658
321.39	7.155
321.60	8.895
321.80	7.847
322.01	6.318
322.22	7.992
322.43	6.547
322.64	7.381
322.85	6.780
323.06	7.094
323.27	8.271
323.47	8.735
323.68	7.769
323.89	6.459
324.10	7.593
324.31	7.567
324.52	7.354
324.73	5.602
324.93	5.319
325.14	5.284
325.35	7.548
325.56	5.949
325.77	7.974
325.98	4.753
326.19	4.555
326.39	6.033
326.60	7.018
326.81	4.036
327.02	5.094
327.23	6.715
327.44	7.899
327.64	4.285
327.85	4.286
328.06	7.015
328.27	9.754
328.48	6.982
328.69	3.903
328.90	4.353
329.10	4.369
329.31	6.259
329.52	5.303
329.73	8.471
329.94	7.863
330.15	8.091
330.35	9.131
330.56	7.393
330.77	7.692
330.98	8.203
331.19	7.472
331.39	6.605
331.60	7.813
331.81	5.814
332.02	7.550
332.23	8.614
332.44	7.349
332.64	8.448
332.85	7.828
333.06	10.580
333.27	5.494
333.48	8.144
333.68	7.023
333.89	7.194
334.10	7.660
334.31	8.231
334.52	8.288
334.72	7.846
334.93	7.196
335.14	4.968
335.35	7.995
335.56	8.575
335.76	6.615
335.97	9.750
336.18	7.073
336.39	9.783
336.60	7.317
336.80	7.647
337.01	8.049
337.22	6.742
337.43	10.505
337.64	9.700
337.84	7.224
338.05	7.427
338.26	11.060
338.47	9.822
338.68	7.876
338.88	10.773
339.09	10.328
339.30	10.282
339.51	6.765
339.71	11.156
339.92	9.269
340.13	10.739
340.34	8.832
340.55	8.676
340.75	10.119
340.96	9.548
341.17	11.179
341.38	10.578
341.58	11.104
341.79	10.687
342.00	10.179
342.21	11.131
342.41	9.305
342.62	11.321
342.83	11.386
343.04	9.173
343.24	12.579
343.45	13.644
343.66	11.580
343.87	10.719
344.07	10.929
344.28	12.883
344.49	14.207
344.70	14.650
344.90	10.905
345.11	9.358
345.32	14.084
345.53	12.465
345.73	13.521
345.94	15.895
346.15	16.070
346.36	14.304
346.56	12.829
346.77	15.468
346.98	14.810
347.19	13.052
347.39	14.672
347.60	12.996
347.81	16.898
348.02	16.284
348.22	10.549
348.43	13.727
348.64	11.772
348.84	14.946
349.05	15.726
349.26	17.359
349.47	12.178
349.67	13.884
349.88	16.483
350.09	13.599
350.30	17.763
350.50	14.919
350.71	15.715
350.92	15.264
351.12	16.139
351.33	13.894
351.54	15.349
351.74	16.224
351.95	13.217
352.16	18.061
352.37	17.968
352.57	14.752
352.78	15.697
352.99	15.866
353.19	14.297
353.40	18.428
353.61	17.792
353.82	17.685
354.02	17.062
354.23	17.585
354.44	18.354
354.64	15.739
354.85	18.505
355.06	15.765
355.26	14.854
355.47	17.374
355.68	20.090
355.88	18.254
356.09	16.470
356.30	15.253
356.51	16.190
356.71	17.514
356.92	14.741
357.13	17.457
357.33	20.680
357.54	17.566
357.75	12.937
357.95	18.920
358.16	14.606
358.37	19.767
358.57	13.714
358.78	19.799
358.99	17.943
359.19	16.355
359.40	18.711
359.61	17.623
359.81	19.599
360.02	20.995
360.23	14.745
360.43	17.569
360.64	17.204
360.85	17.814
361.05	15.358
361.26	19.496
361.47	15.522
361.67	19.180
361.88	13.701
362.09	19.295
362.29	14.978
362.50	16.112
362.70	13.910
362.91	18.635
363.12	16.166
363.32	17.713
363.53	16.619
363.74	19.562
363.94	13.330
364.15	19.085
364.36	16.644
364.56	15.950
364.77	17.524
364.98	19.221
365.18	15.934
365.39	18.209
365.59	15.555
365.80	16.628
366.01	17.154
366.21	16.051
366.42	15.285
366.63	18.225
366.83	16.681
367.04	12.253
367.24	18.071
367.45	14.652
367.66	14.284
367.86	14.313
368.07	14.160
368.28	15.319
368.48	15.029
368.69	13.811
368.89	15.499
369.10	16.087
369.31	15.772
369.51	16.684
369.72	18.014
369.92	18.956
370.13	11.550
370.34	15.691
370.54	10.479
370.75	16.368
370.95	12.784
371.16	15.945
371.37	12.355
371.57	14.460
371.78	14.274
371.98	14.945
372.19	15.323
372.40	15.881
372.60	15.340
372.81	15.184
373.01	12.429
373.22	13.395
373.43	15.414
373.63	15.766
373.84	15.622
374.04	15.317
374.25	14.313
374.46	15.665
374.66	14.946
374.87	14.990
375.07	11.292
375.28	12.255
375.48	14.333
375.69	15.938
375.90	10.678
376.10	11.514
376.31	12.449
376.51	11.725
376.72	11.895
376.92	11.124
377.13	14.583
377.34	14.532
377.54	13.521
377.75	14.634
377.95	12.214
378.16	13.948
378.36	13.555
378.57	15.955
378.77	13.702
378.98	13.970
379.19	12.032
379.39	12.870
379.60	12.249
379.80	13.043
380.01	14.344
380.21	12.204
380.42	13.836
380.62	12.859
380.83	13.328
381.04	11.683
381.24	12.869
381.45	12.939
381.65	11.734
381.86	13.420
382.06	13.554
382.27	10.430
382.47	11.297
382.68	13.056
382.88	11.119
383.09	11.455
383.29	11.578
383.50	13.927
383.71	11.851
383.91	12.583
384.12	10.987
384.32	12.981
384.53	11.854
384.73	10.841
384.94	11.319
385.14	11.052
385.35	9.834
385.55	11.787
385.76	11.444
385.96	11.214
386.17	12.160
386.37	11.733
386.58	10.804
386.78	13.480
386.99	10.924
387.19	12.955
387.40	9.945
387.60	14.125
387.81	10.849
388.01	10.763
388.22	13.107
388.42	12.767
388.63	13.185
388.83	13.294
389.04	9.491
389.24	11.495
389.45	10.327
389.65	10.265
389.86	10.097
390.06	8.941
390.27	9.861
390.47	11.364
390.68	9.739
390.88	12.682
391.09	11.961
391.29	12.562
391.50	10.845
391.70	11.580
391.91	10.651
392.11	10.925
392.32	10.750
392.52	11.571
392.73	10.089
392.93	11.743
393.14	9.941
393.34	11.475
393.55	11.889
393.75	10.128
393.95	10.814
394.16	11.366
394.36	12.495
394.57	12.264
394.77	10.729
394.98	10.612
395.18	11.696
395.39	11.015
395.59	9.826
395.80	11.065
396.00	10.874
396.21	12.293
396.41	9.750
396.61	12.008
396.82	11.393
397.02	13.188
397.23	10.782
397.43	10.812
397.64	8.685
397.84	12.541
398.05	8.125
398.25	12.088
398.45	9.636
398.66	11.211
398.86	10.572
399.07	12.164
399.27	9.679
399.48	10.898
399.68	9.571
399.89	9.050
400.09	11.027
400.29	9.827
400.50	10.152
400.70	11.082
400.91	9.829
401.11	9.772
401.32	10.139
401.52	9.050
401.72	9.519
401.93	11.563
402.13	10.252
402.34	9.971
402.54	8.129
402.75	12.108
402.95	8.462
403.15	11.526
403.36	9.083
403.56	10.414
403.77	8.283
403.97	10.165
404.17	8.613
404.38	10.109
404.58	8.230
404.79	10.163
404.99	10.430
405.19	8.792
405.40	9.577
405.60	10.609
405.81	8.609
406.01	9.359
406.21	9.086
406.42	9.428
406.62	10.019
406.83	10.344
407.03	10.090
407.23	9.043
407.44	8.535
407.64	9.727
407.85	9.365
408.05	10.026
408.25	9.047
408.46	10.034
408.66	10.057
408.87	9.279
409.07	9.013
409.27	7.869
409.48	8.739
409.68	10.352
409.88	7.122
410.09	9.902
410.29	9.918
410.50	11.166
410.70	7.440
410.90	8.950
411.11	8.637
411.31	9.440
411.51	9.276
411.72	9.711
411.92	8.784
412.12	8.510
412.33	7.409
412.53	8.565
412.74	7.198
412.94	9.111
413.14	9.673
413.35	8.426
413.55	8.822
413.75	9.613
413.96	7.166
414.16	9.352
414.36	9.073
414.57	8.650
414.77	7.399
414.97	9.175
415.18	7.970
415.38	8.192
415.58	7.754
415.79	7.274
415.99	7.607
416.19	9.288
416.40	8.662
416.60	8.755
416.80	7.750
417.01	8.620
417.21	7.185
417.41	10.395
417.62	8.679
417.82	8.349
418.02	7.580
418.23	8.988
418.43	8.327
418.63	9.669
418.84	9.088
419.04	8.173
419.24	9.098
419.45	9.432
419.65	9.771
419.85	9.851
420.06	9.456
420.26	9.449
420.46	8.693
420.67	9.771
420.87	9.296
421.07	10.229
421.28	8.527
421.48	9.952
421.68	9.041
421.88	10.072
422.09	9.421
422.29	9.369
422.49	9.346
422.70	9.479
422.90	9.201
423.10	9.231
423.31	9.469
423.51	9.802
423.71	9.085
423.91	9.468
424.12	9.223
424.32	9.565
424.52	8.941
424.73	9.040
424.93	9.454
425.13	9.417
425.33	8.936
425.54	9.055
425.74	9.421
425.94	10.111
426.15	9.630
426.35	9.103
426.55	9.559
426.75	9.394
426.96	8.849
427.16	9.154
427.36	9.793
427.57	9.613
427.77	8.701
427.97	9.252
428.17	9.109
428.38	9.766
428.58	6.707
428.78	9.363
428.98	7.392
429.19	8.867
429.39	7.378
429.59	8.644
429.79	7.370
430.00	7.497
430.20	7.182
430.40	7.972
430.60	8.097
430.81	8.200
431.01	7.294
431.21	8.409
431.41	7.335
431.62	8.094
431.82	7.639
432.02	8.618
432.22	7.605
432.43	7.662
432.63	6.745
432.83	8.219
433.03	8.138
433.24	7.650
433.44	7.370
433.64	8.367
433.84	7.442
434.05	8.542
434.25	8.044
434.45	8.688
434.65	8.867
434.85	8.861
435.06	7.954
435.26	8.530
435.46	7.998
435.66	8.708
435.87	7.608
436.07	8.218
436.27	8.639
436.47	8.057
436.67	7.397
436.88	8.484
437.08	7.901
437.28	8.510
437.48	7.778
437.69	9.073
437.89	8.089
438.09	8.592
438.29	7.336
438.49	8.237
438.70	8.139
438.90	7.799
439.10	7.966
439.30	8.302
439.50	7.574
439.71	8.519
439.91	7.883
440.11	8.901
440.31	8.117
440.51	8.041
440.72	7.933
440.92	8.672
441.12	8.361
441.32	9.266
441.52	8.471
441.72	8.810
441.93	8.214
442.13	8.955
442.33	8.222
442.53	8.661
442.73	7.881
442.94	8.790
443.14	8.206
443.34	8.845
443.54	8.591
443.74	8.742
443.94	7.997
444.15	8.255
444.35	8.028
444.55	8.638
444.75	8.233
444.95	8.302
445.15	8.393
445.36	8.665
445.56	7.339
445.76	8.111
445.96	8.003
446.16	8.232
446.36	7.613
446.57	8.652
446.77	7.652
446.97	8.540
447.17	9.000
447.37	8.814
447.57	8.932
447.77	8.520
447.98	8.228
448.18	8.913
448.38	8.107
448.58	8.952
448.78	8.768
448.98	8.584
449.18	8.030
449.39	8.450
449.59	8.100
449.79	8.728
449.99	8.472
450.19	8.401
450.39	8.630
450.59	8.675
450.79	7.755
451.00	8.554
451.20	8.604
451.40	7.682
451.60	8.079
451.80	8.603
452.00	7.804
452.20	8.388
452.40	7.707
452.61	7.660
452.81	7.591
453.01	8.142
453.21	7.910
453.41	8.282
453.61	8.188
453.81	7.900
454.01	7.474
454.21	8.109
454.42	8.336
454.62	8.160
454.82	7.677
455.02	7.650
455.22	7.246
455.42	7.840
455.62	6.782
455.82	8.060
456.02	6.855
456.23	7.773
456.43	7.635
456.63	7.717
456.83	6.850
457.03	7.838
457.23	7.435
457.43	8.298
457.63	7.724
457.83	7.993
458.03	7.007
458.23	8.294
458.43	6.805
458.64	7.755
458.84	7.597
459.04	7.848
459.24	7.952
459.44	8.028
459.64	7.756
459.84	8.175
460.04	7.714
460.24	8.065
460.44	8.144
460.64	8.430
460.84	7.806
461.04	8.243
461.24	8.319
461.45	9.074
461.65	8.530
461.85	8.566
462.05	8.378
462.25	8.197
462.45	8.613
462.65	8.446
462.85	7.312
463.05	8.323
463.25	6.830
463.45	8.161
463.65	7.675
463.85	7.656
464.05	7.726
464.25	7.427
464.45	8.250
464.65	7.887
464.85	7.356
465.05	7.531
465.26	7.341
465.46	8.402
465.66	8.120
465.86	7.766
466.06	7.448
466.26	7.990
466.46	6.558
466.66	7.193
466.86	7.371
467.06	7.814
467.26	7.435
467.46	8.008
467.66	7.530
467.86	7.335
468.06	7.738
468.26	7.422
468.46	7.662
468.66	7.581
468.86	6.792
469.06	8.552
469.26	6.732
469.46	8.307
469.66	6.807
469.86	8.124
470.06	7.207
470.26	8.197
470.46	7.054
470.66	7.942
470.86	7.006
471.06	7.621
471.26	6.634
471.46	7.061
471.66	7.114
471.86	7.486
472.06	7.400
472.26	8.418
472.46	7.789
472.66	7.702
472.86	7.233
473.06	7.853
473.26	7.374
473.46	7.900
473.66	7.209
473.86	7.474
474.06	6.588
474.26	7.513
474.46	6.956
474.66	8.012
474.86	8.145
475.06	7.881
475.26	6.840
475.46	7.917
475.66	6.801
475.86	7.433
476.06	8.315
476.26	8.862
476.46	6.791
476.66	7.880
476.86	6.761
477.06	7.120
477.26	7.242
477.46	8.117
477.65	7.428
477.85	8.327
478.05	6.929
478.25	8.490
478.45	7.513
478.65	8.255
478.85	7.593
479.05	8.473
479.25	7.936
479.45	8.194
479.65	7.481
479.85	8.263
480.05	8.013
480.25	8.186
480.45	7.738
480.65	8.635
480.85	8.668
481.05	8.817
481.25	8.410
481.44	8.547
481.64	7.738
481.84	8.770
482.04	8.363
482.24	8.535
482.44	8.182
482.64	8.459
482.84	8.649
483.04	8.640
483.24	8.533
483.44	8.909
483.64	8.482
483.84	8.531
484.04	8.678
484.23	8.700
484.43	8.757
484.63	8.819
484.83	8.956
485.03	9.037
485.23	9.111
485.43	8.981
485.63	9.151
485.83	9.317
486.03	9.458
486.23	9.402
486.42	9.348
486.62	9.389
486.82	9.143
487.02	9.198
487.22	8.788
487.42	8.998
487.62	8.939
487.82	8.959
488.02	9.123
488.22	8.983
488.41	8.937
488.61	8.980
488.81	9.120
489.01	9.266
489.21	9.243
489.41	9.379
489.61	9.031
489.81	9.468
490.01	9.326
490.20	9.404
490.40	9.368
490.60	9.443
490.80	9.134
491.00	9.267
491.20	8.906
491.40	8.996
491.60	8.766
491.79	8.868
491.99	8.957
492.19	9.036
492.39	9.222
492.59	8.874
492.79	9.069
492.99	9.261
493.19	9.272
493.38	9.280
493.58	9.056
493.78	9.493
493.98	9.433
494.18	9.632
494.38	9.325
494.58	9.536
494.77	8.656
494.97	8.801
495.17	8.780
495.37	9.212
495.57	8.853
495.77	8.493
495.96	9.064
496.16	8.569
496.36	8.290
496.56	8.512
496.76	8.439
496.96	8.986
497.15	8.411
497.35	8.825
497.55	8.525
497.75	9.383
497.95	8.818
498.15	8.676
498.34	8.878
498.54	8.822
498.74	8.864
498.94	9.348
499.14	8.423
499.34	9.202
499.53	8.826
499.73	9.397
499.93	8.553
500.13	9.096
500.33	8.383
500.52	9.051
500.72	9.028
500.92	8.813
501.12	8.193
501.32	8.697
501.52	9.166
501.71	9.109
501.91	8.321
502.11	9.153
502.31	8.355
502.51	9.337
502.70	8.152
502.90	8.960
503.10	8.471
503.30	9.238
503.50	9.007
503.69	9.064
503.89	8.592
504.09	9.286
504.29	8.458
504.48	9.732
504.68	9.364
504.88	9.545
505.08	8.728
505.28	9.286
505.47	8.757
505.67	9.883
505.87	9.192
506.07	8.928
506.27	8.980
506.46	9.505
506.66	8.919
506.86	9.211
507.06	8.994
507.25	9.430
507.45	9.417
507.65	9.684
507.85	8.821
508.04	9.552
508.24	9.869
508.44	9.395
508.64	8.926
508.83	9.660
509.03	9.235
509.23	9.892
509.43	9.402
509.63	9.057
509.82	9.461
510.02	9.643
510.22	9.338
510.42	9.974
510.61	9.754
510.81	9.940
511.01	9.620
511.21	10.018
511.40	10.106
511.60	10.090
511.80	10.111
511.99	10.021
512.19	9.822
512.39	10.454
512.59	9.783
512.78	10.141
512.98	9.787
513.18	10.080
513.38	9.936
513.57	10.519
513.77	9.908
513.97	10.108
514.17	9.774
514.36	9.894
514.56	9.884
514.76	10.465
514.95	9.301
515.15	10.023
515.35	9.618
515.55	10.309
515.74	9.842
515.94	10.862
516.14	9.496
516.33	10.403
516.53	9.647
516.73	9.951
516.93	9.970
517.12	10.230
517.32	9.100
517.52	10.163
517.71	10.295
517.91	10.260
518.11	9.746
518.30	10.307
518.50	9.968
518.70	10.263
518.90	10.041
519.09	10.546
519.29	9.935
519.49	10.409
519.68	10.180
519.88	10.452
520.08	10.507
520.27	10.845
520.47	10.708
520.67	10.718
520.86	10.650
521.06	10.962
521.26	10.775
521.45	10.824
521.65	10.553
521.85	10.659
522.04	10.305
522.24	10.652
522.44	10.313
522.63	10.690
522.83	10.349
523.03	10.626
523.22	10.313
523.42	11.128
523.62	10.593
523.81	10.573
524.01	10.777
524.21	10.750
524.40	9.841
524.60	10.684
524.80	10.264
524.99	10.415
525.19	10.788
525.39	10.516
525.58	10.351
525.78	10.788
525.98	10.833
526.17	10.762
526.37	10.788
526.57	11.061
526.76	10.801
526.96	10.795
527.15	10.983
527.35	11.186
527.55	10.701
527.74	11.375
527.94	10.856
528.14	10.926
528.33	10.748
528.53	10.665
528.72	10.732
528.92	11.000
529.12	11.030
529.31	11.281
529.51	10.957
529.71	11.039
529.90	11.248
530.10	11.343
530.29	11.335
530.49	11.419
530.69	11.529
530.88	11.683
531.08	11.506
531.28	11.671
531.47	11.472
531.67	11.700
531.86	11.606
532.06	11.566
532.26	11.526
532.45	11.727
532.65	11.444
532.84	11.330
533.04	11.348
533.24	11.420
533.43	11.365
533.63	11.565
533.82	11.469
534.02	11.474
534.22	11.336
534.41	11.465
534.61	11.713
534.80	11.571
535.00	11.817
535.19	11.868
535.39	11.826
535.59	12.199
535.78	11.603
535.98	11.880
536.17	11.837
536.37	11.896
536.57	11.692
536.76	11.678
536.96	11.701
537.15	11.899
537.35	12.093
537.54	11.827
537.74	11.945
537.93	12.321
538.13	11.755
538.33	12.423
538.52	12.110
538.72	12.338
538.91	12.472
539.11	12.283
539.30	12.082
539.50	12.367
539.70	12.196
539.89	12.841
540.09	12.555
540.28	12.405
540.48	12.072
540.67	12.172
540.87	12.140
541.06	12.115
541.26	11.909
541.45	12.429
541.65	12.167
541.85	12.400
542.04	12.488
542.24	12.517
542.43	12.526
542.63	12.564
542.82	12.659
543.02	12.904
543.21	12.886
543.41	12.963
543.60	13.010
543.80	13.268
543.99	12.981
544.19	13.301
544.38	13.162
544.58	13.367
544.77	13.037
544.97	13.262
545.16	13.247
545.36	13.461
545.56	13.012
545.75	13.706
545.95	13.490
546.14	13.773
546.34	13.290
546.53	13.681
546.73	13.203
546.92	13.656
547.12	13.387
547.31	13.784
547.51	13.694
547.70	13.848
547.90	13.910
548.09	14.372
548.29	13.999
548.48	14.187
548.68	13.480
548.87	14.747
549.07	14.167
549.26	14.159
549.46	14.286
549.65	14.414
549.84	14.140
550.04	14.348
550.23	14.788
550.43	14.696
550.62	14.658
550.82	14.653
551.01	14.214
551.21	15.008
551.40	14.656
551.60	14.786
551.79	14.068
551.99	15.125
552.18	14.398
552.38	14.972
552.57	15.049
552.77	15.766
552.96	15.623
553.16	15.369
553.35	15.197
553.54	16.074
553.74	15.848
553.93	15.665
554.13	16.356
554.32	15.155
554.52	15.929
554.71	16.126
554.91	16.155
555.10	16.355
555.29	15.660
555.49	16.695
555.68	15.809
555.88	16.915
556.07	16.508
556.27	17.015
556.46	16.526
556.66	16.341
556.85	16.340
557.04	17.621
557.24	16.708
557.43	17.623
557.63	16.979
557.82	18.014
558.02	17.302
558.21	17.506
558.40	18.361
558.60	18.345
558.79	17.673
558.99	17.889
559.18	18.411
559.38	18.286
559.57	18.880
559.76	18.288
559.96	18.718
560.15	18.596
560.35	19.029
560.54	19.229
560.73	18.115
560.93	19.182
561.12	18.736
561.32	19.536
561.51	18.908
561.70	19.622
561.90	19.411
562.09	19.361
562.29	19.659
562.48	20.068
562.67	19.760
562.87	20.632
563.06	19.764
563.26	21.029
563.45	20.265
563.64	20.194
563.84	20.048
564.03	20.912
564.23	20.276
564.42	21.127
564.61	20.887
564.81	21.453
565.00	20.644
565.20	20.523
565.39	21.401
565.58	20.957
565.78	21.268
565.97	21.777
566.16	22.567
566.36	21.843
566.55	21.737
566.74	21.749
566.94	22.198
567.13	22.478
567.33	22.266
567.52	22.507
567.71	22.841
567.91	22.600
568.10	22.648
568.29	23.263
568.49	22.532
568.68	23.442
568.87	23.163
569.07	23.051
569.26	23.496
569.45	23.441
569.65	23.344
569.84	23.900
570.04	23.403
570.23	23.723
570.42	23.017
570.62	23.552
570.81	23.566
571.00	23.918
571.20	24.000
571.39	24.237
571.58	24.155
571.78	24.064
571.97	24.141
572.16	23.863
572.36	24.333
572.55	24.176
572.74	24.193
572.94	24.084
573.13	24.566
573.32	24.462
573.51	24.508
573.71	24.794
573.90	24.825
574.09	24.680
574.29	24.654
574.48	24.982
574.67	24.913
574.87	24.547
575.06	25.002
575.25	24.794
575.45	24.949
575.64	24.790
575.83	24.332
576.03	25.529
576.22	25.426
576.41	25.436
576.60	24.465
576.80	25.310
576.99	25.337
577.18	25.552
577.38	25.221
577.57	25.921
577.76	25.249
577.95	26.008
578.15	25.605
578.34	26.181
578.53	25.471
578.73	25.476
578.92	25.420
579.11	26.348
579.30	26.306
579.50	25.594
579.69	26.086
579.88	25.308
580.08	25.843
580.27	26.489
580.46	25.589
580.65	25.678
580.85	26.149
581.04	26.001
581.23	25.311
581.42	26.114
581.62	24.906
581.81	26.336
582.00	25.430
582.19	25.687
582.39	25.578
582.58	25.657
582.77	26.066
582.96	25.474
583.16	25.776
583.35	25.942
583.54	26.063
583.73	25.483
583.93	25.005
584.12	25.974
584.31	25.194
584.50	26.259
584.70	25.159
584.89	25.793
585.08	25.204
585.27	26.094
585.47	25.571
585.66	25.970
585.85	25.233
586.04	25.754
586.24	25.522
586.43	25.213
586.62	24.755
586.81	25.188
587.00	25.010
587.20	24.993
587.39	25.584
587.58	25.195
587.77	25.192
587.97	24.799
588.16	24.939
588.35	25.018
588.54	24.594
588.73	25.018
588.93	25.178
589.12	24.438
589.31	25.477
589.50	25.002
589.69	25.554
589.89	25.319
590.08	24.189
590.27	25.284
590.46	24.483
590.65	24.470
590.85	24.161
591.04	25.230
591.23	25.789
591.42	25.600
591.61	25.621
591.81	25.432
592.00	25.436
592.19	25.730
592.38	24.491
592.57	25.412
592.77	26.355
592.96	25.403
593.15	25.141
593.34	24.812
593.53	25.428
593.72	24.974
593.92	24.386
594.11	25.487
594.30	24.736
594.49	25.271
594.68	24.630
594.87	25.443
595.07	24.908
595.26	25.576
595.45	25.815
595.64	25.450
595.83	25.116
596.02	25.619
596.22	25.719
596.41	26.061
596.60	25.222
596.79	25.579
596.98	25.891
597.17	25.990
597.37	25.801
597.56	26.135
597.75	26.073
597.94	26.164
598.13	26.152
598.32	26.694
598.51	26.450
598.71	26.571
598.90	26.208
599.09	26.682
599.28	26.244
599.47	26.565
599.66	26.424
599.85	26.673
600.05	26.585
600.24	26.402
600.43	26.761
600.62	27.325
600.81	27.759
601.00	27.800
601.19	26.577
601.38	26.743
601.58	27.752
601.77	27.000
601.96	27.415
602.15	27.980
602.34	27.169
602.53	28.513
602.72	27.109
602.91	27.721
603.10	27.269
603.30	28.118
603.49	27.061
603.68	27.749
603.87	26.643
604.06	26.860
604.25	27.286
604.44	26.909
604.63	27.214
604.82	27.098
605.01	27.823
605.21	27.640
605.40	26.757
605.59	27.030
605.78	27.325
605.97	27.228
606.16	27.375
606.35	27.696
606.54	27.990
606.73	27.877
606.92	27.213
607.11	27.831
607.30	27.481
607.50	28.447
607.69	26.998
607.88	27.720
608.07	26.838
608.26	26.786
608.45	27.255
608.64	28.380
608.83	26.000
609.02	27.568
609.21	26.530
609.40	27.105
609.59	26.590
609.78	25.833
609.97	26.362
610.16	26.269
610.35	27.185
610.55	26.721
610.74	26.578
610.93	26.721
611.12	26.523
611.31	27.072
611.50	26.281
611.69	26.023
611.88	26.978
612.07	26.312
612.26	26.672
612.45	26.895
612.64	26.379
612.83	26.511
613.02	26.914
613.21	25.786
613.40	26.037
613.59	27.356
613.78	25.651
613.97	26.669
614.16	25.010
614.35	25.531
614.54	24.763
614.73	26.508
614.92	25.173
615.11	25.000
615.30	25.095
615.49	25.090
615.68	25.345
615.87	25.002
616.07	23.961
616.26	24.385
616.45	25.115
616.64	24.272
616.83	23.775
617.02	24.951
617.21	24.016
617.40	25.220
617.59	24.077
617.78	24.648
617.97	24.035
618.16	24.304
618.35	21.840
618.54	23.905
618.73	23.487
618.92	23.795
619.11	23.142
619.30	24.169
619.49	22.582
619.68	23.705
619.86	23.425
620.05	22.575
620.24	22.723
620.43	23.246
620.62	21.432
620.81	22.603
621.00	24.163
621.19	24.170
621.38	23.279
621.57	23.275
621.76	23.386
621.95	23.463
622.14	22.213
622.33	23.159
622.52	22.422
622.71	21.997
622.90	21.922
623.09	22.635
623.28	21.644
623.47	22.649
623.66	23.076
623.85	22.353
624.04	21.639
624.23	21.664
624.42	21.588
624.61	21.778
624.80	21.204
624.99	22.626
625.18	22.440
625.36	23.473
625.55	22.354
625.74	22.401
625.93	22.005
626.12	22.627
626.31	23.386
626.50	22.958
626.69	22.706
626.88	23.208
627.07	22.089
627.26	22.308
627.45	22.421
627.64	21.995
627.83	22.523
628.02	22.455
628.20	22.308
628.39	22.792
628.58	22.486
628.77	22.126
628.96	21.719
629.15	21.954
629.34	21.912
629.53	22.249
629.72	21.196
629.91	23.316
630.10	21.948
630.29	21.868
630.47	21.772
630.66	21.595
630.85	21.607
631.04	21.986
631.23	21.454
631.42	22.528
631.61	20.892
631.80	22.172
631.99	21.177
632.18	21.655
632.36	20.970
632.55	23.081
632.74	21.622
632.93	20.815
633.12	21.189
633.31	21.590
633.50	21.266
633.69	21.634
633.88	20.570
634.06	21.245
634.25	21.249
634.44	21.116
634.63	21.382
634.82	21.976
635.01	21.381
635.20	21.305
635.39	20.747
635.57	20.570
635.76	21.327
635.95	21.217
636.14	19.875
636.33	20.645
636.52	21.364
636.71	20.120
636.89	19.695
637.08	21.142
637.27	20.154
637.46	20.328
637.65	21.508
637.84	21.366
638.03	19.861
638.21	21.498
638.40	20.462
638.59	21.045
638.78	19.904
638.97	21.066
639.16	19.716
639.34	20.110
639.53	18.859
639.72	20.804
639.91	19.250
640.10	19.645
640.29	21.090
640.47	22.023
640.66	20.280
640.85	21.750
641.04	18.313
641.23	20.543
641.42	19.970
641.60	19.998
641.79	19.268
641.98	19.988
642.17	18.898
642.36	20.990
642.54	18.186
642.73	20.474
642.92	19.193
643.11	19.630
643.30	18.558
643.49	20.662
643.67	18.390
643.86	19.470
644.05	18.702
644.24	19.819
644.43	19.958
644.61	19.985
644.80	19.179
644.99	20.353
645.18	21.074
645.37	20.732
645.55	19.275
645.74	20.405
645.93	19.593
646.12	19.724
646.31	18.562
646.49	19.514
646.68	18.664
646.87	19.860
647.06	19.688
647.24	19.547
647.43	17.366
647.62	21.417
647.81	18.552
648.00	19.476
648.18	17.783
648.37	18.198
648.56	19.544
648.75	18.274
648.93	19.404
649.12	19.998
649.31	18.612
649.50	20.328
649.68	18.389
649.87	19.181
650.06	18.649
650.25	19.496
650.43	17.296
650.62	19.793
650.81	18.181
651.00	18.792
651.18	17.626
651.37	19.224
651.56	17.824
651.75	19.787
651.93	18.033
652.12	20.365
652.31	17.802
652.50	18.744
652.68	18.091
652.87	19.717
653.06	18.846
653.25	18.510
653.43	17.761
653.62	18.968
653.81	17.993
654.00	20.743
654.18	17.233
654.37	19.165
654.56	17.535
654.74	17.074
654.93	17.442
655.12	18.322
655.31	16.034
655.49	18.700
655.68	17.064
655.87	15.775
656.05	15.789
656.24	17.786
656.43	15.471
656.62	17.105
656.80	15.908
656.99	16.040
657.18	15.883
657.36	16.814
657.55	16.292
657.74	15.828
657.93	15.935
658.11	16.722
658.30	15.313
658.49	14.919
658.67	15.802
658.86	15.163
659.05	14.917
659.23	15.336
659.42	14.527
659.61	15.668
659.79	14.455
659.98	15.533
660.17	14.933
660.35	14.485
660.54	14.996
660.73	16.073
660.91	14.689
661.10	14.874
661.29	13.002
661.47	13.529
661.66	13.173
661.85	14.406
662.03	12.949
662.22	10.790
662.41	11.456
662.59	13.167
662.78	11.322
662.97	12.246
663.15	11.617
663.34	11.244
663.53	10.517
663.71	12.384
663.90	10.841
664.09	12.879
664.27	11.513
664.46	12.123
664.65	9.828
664.83	9.855
665.02	9.844
665.21	9.996
665.39	7.757
665.58	10.797
665.77	9.881
665.95	10.818
666.14	8.122
666.32	10.506
666.51	9.376
666.70	9.226
666.88	8.562
667.07	9.838
667.26	8.110
667.44	9.460
667.63	8.377
667.81	8.495
668.00	8.996
668.19	10.254
668.37	8.639
668.56	10.579
668.75	6.971
668.93	11.050
669.12	8.747
669.30	9.616
669.49	8.603
669.68	10.476
669.86	8.817
670.05	8.630
670.23	8.497
670.42	8.215
670.61	10.817
670.79	9.856
670.98	8.446
671.16	10.718
671.35	8.873
671.54	9.860
671.72	8.965
671.91	10.046
672.09	7.796
672.28	11.024
672.46	10.889
672.65	11.579
672.84	10.705
673.02	11.711
673.21	7.698
673.39	10.160
673.58	11.340
673.77	10.596
673.95	10.661
674.14	11.662
674.32	9.545
674.51	11.721
674.69	11.366
674.88	11.421
675.07	10.319
675.25	13.955
675.44	11.475
675.62	11.955
675.81	11.328
675.99	15.933
676.18	12.386
676.36	11.621
676.55	10.047
676.74	13.972
676.92	13.215
677.11	12.771
677.29	11.671
677.48	14.836
677.66	13.593
677.85	12.129
678.03	11.524
678.22	14.424
678.40	14.678
678.59	12.422
678.78	9.565
678.96	13.055
679.15	11.060
679.33	14.178
679.52	14.497
679.70	14.198
679.89	13.800
680.07	13.983
680.26	10.909
680.44	13.989
680.63	13.020
680.81	13.227
681.00	10.904
681.18	14.177
681.37	13.845
681.55	15.141
681.74	14.822
681.92	14.532
682.11	13.797
682.29	14.178
682.48	14.061
682.66	15.370
682.85	13.955
683.03	16.423
683.22	15.804
683.40	17.374
683.59	16.349
683.77	17.096
683.96	14.755
684.14	17.753
684.33	12.675
684.51	19.006
684.70	16.567
684.88	19.489
685.07	16.552
685.25	18.608
685.44	17.723
685.62	19.442
685.81	17.275
685.99	19.651
686.18	15.598
686.36	19.218
686.55	16.132
686.73	18.453
686.92	19.781
687.10	19.422
687.29	21.628
687.47	22.307
687.65	21.555
687.84	21.107
688.02	22.176
688.21	23.378
688.39	20.202
688.58	23.620
688.76	20.360
688.95	22.606
689.13	20.417
689.32	25.063
689.50	23.838
689.68	25.491
689.87	24.453
690.05	24.960
690.24	25.215
690.42	26.571
690.61	26.366
690.79	28.934
690.98	27.814
691.16	28.341
691.34	26.521
691.53	30.115
691.71	27.902
691.90	29.450
692.08	27.497
692.27	31.742
692.45	31.184
692.63	31.166
692.82	32.481
693.00	31.404
693.19	29.265
693.37	34.729
693.56	33.085
693.74	35.977
693.92	32.671
694.11	36.508
694.29	32.780
694.48	37.033
694.66	35.230
694.84	38.314
695.03	34.865
695.21	38.219
695.40	37.655
695.58	38.839
695.76	38.450
695.95	41.259
696.13	38.993
696.32	41.774
696.50	43.342
696.68	41.466
696.87	40.637
697.05	42.541
697.24	41.536
697.42	44.124
697.60	42.935
697.79	43.619
697.97	44.990
698.16	44.020
698.34	42.165
698.52	42.937
698.71	43.426
698.89	44.930
699.07	43.824
699.26	44.873
699.44	44.332
699.63	45.091
699.81	44.816
699.99	45.625
700.18	45.650
700.36	45.646
700.54	46.818
700.73	48.051
700.91	47.598
701.09	47.117
701.28	47.929
701.46	49.499
701.64	48.475
701.83	49.424
702.01	50.252
702.20	51.210
702.38	49.880
702.56	50.433
702.75	50.983
702.93	50.957
703.11	51.949
703.30	51.478
703.48	51.642
703.66	54.903
703.85	50.967
704.03	54.513
704.21	51.855
704.40	53.454
704.58	52.169
704.76	53.493
704.95	54.244
705.13	54.435
705.31	55.644
705.50	56.153
705.68	54.231
705.86	54.752
706.04	56.658
706.23	58.538
706.41	56.833
706.59	57.382
706.78	55.101
706.96	55.568
707.14	56.992
707.33	55.355
707.51	52.003
707.69	57.380
707.88	56.826
708.06	55.934
708.24	57.423
708.42	57.755
708.61	56.851
708.79	57.113
708.97	56.980
709.16	56.765
709.34	58.459
709.52	56.474
709.71	56.984
709.89	57.334
710.07	54.675
710.25	56.454
710.44	56.393
710.62	58.454
710.80	56.718
710.98	57.491
711.17	57.980
711.35	58.702
711.53	57.735
711.72	57.078
711.90	58.397
712.08	57.245
712.26	56.815
712.45	58.421
712.63	57.528
712.81	57.522
712.99	57.943
713.18	56.711
713.36	58.744
713.54	58.610
713.72	58.388
713.91	59.128
714.09	56.544
714.27	58.760
714.45	59.921
714.64	58.786
714.82	57.703
715.00	59.066
715.18	57.591
715.37	56.443
715.55	57.464
715.73	59.109
715.91	58.728
716.10	59.646
716.28	54.560
716.46	58.019
716.64	55.251
716.83	60.707
717.01	57.503
717.19	59.606
717.37	57.680
717.55	58.043
717.74	57.924
717.92	57.679
718.10	57.858
718.28	56.706
718.47	56.027
718.65	58.486
718.83	57.967
719.01	59.983
719.19	56.114
719.38	58.547
719.56	58.861
719.74	60.432
719.92	57.809
720.10	56.171
720.29	57.445
720.47	58.063
720.65	59.030
720.83	60.305
721.01	57.464
721.20	58.119
721.38	60.073
721.56	61.412
721.74	61.519
721.92	62.526
722.11	59.143
722.29	60.446
722.47	60.750
722.65	63.283
722.83	63.671
723.01	61.085
723.20	62.916
723.38	58.924
723.56	56.206
723.74	62.471
723.92	59.933
724.10	61.353
724.29	57.806
724.47	60.723
724.65	58.362
724.83	61.962
725.01	58.497
725.19	59.184
725.38	56.594
725.56	63.054
725.74	57.496
725.92	61.798
726.10	59.298
726.28	62.936
726.46	61.669
726.65	60.986
726.83	60.222
727.01	62.794
727.19	59.197
727.37	60.860
727.55	59.888
727.73	61.184
727.92	62.506
728.10	58.169
728.28	60.091
728.46	60.014
728.64	61.056
728.82	61.236
729.00	59.774
729.19	63.266
729.37	59.854
729.55	60.598
729.73	58.551
729.91	61.129
730.09	57.640
730.27	62.968
730.45	57.507
730.63	61.864
730.82	58.748
731.00	61.270
731.18	59.119
731.36	61.563
731.54	59.124
731.72	61.248
731.90	62.117
732.08	61.055
732.26	58.936
732.45	62.350
732.63	61.549
732.81	60.402
732.99	59.229
733.17	62.449
733.35	60.576
733.53	63.534
733.71	60.166
733.89	62.262
734.07	58.083
734.25	64.903
734.44	60.426
734.62	61.594
734.80	60.464
734.98	63.739
735.16	60.405
735.34	61.480
735.52	62.621
735.70	64.159
735.88	62.630
736.06	64.911
736.24	67.061
736.42	67.343
736.60	60.596
736.78	63.624
736.97	64.356
737.15	63.146
737.33	62.767
737.51	62.402
737.69	64.068
737.87	63.577
738.05	64.722
738.23	64.456
738.41	64.325
738.59	65.432
738.77	61.782
738.95	66.788
739.13	63.796
739.31	63.395
739.49	67.247
739.67	67.005
739.85	64.396
740.03	62.095
740.21	64.839
740.39	69.012
740.57	64.473
740.75	64.069
740.93	63.816
741.11	63.410
741.30	64.581
741.48	66.767
741.66	64.903
741.84	65.433
742.02	65.438
742.20	65.036
742.38	63.341
742.56	68.168
742.74	63.944
742.92	66.171
743.10	64.088
743.28	68.842
743.46	63.854
743.64	67.865
743.82	61.835
744.00	67.051
744.18	67.799
744.36	62.119
744.54	64.635
744.72	64.752
744.90	66.445
745.08	68.844
745.26	64.873
745.44	65.430
745.62	63.308
745.80	64.379
745.98	64.437
746.16	64.771
746.34	64.126
746.52	62.569
746.70	60.194
746.87	68.376
747.05	69.142
747.23	64.721
747.41	66.374
747.59	66.383
747.77	62.586
747.95	65.875
748.13	67.014
748.31	66.328
748.49	63.897
748.67	68.985
748.85	62.419
749.03	68.036
749.21	65.034
749.39	64.772
749.57	60.579
749.75	63.065
749.93	64.212
750.11	64.669
750.29	63.757
750.47	68.939
750.65	65.259
750.83	65.162
751.01	61.485
751.18	67.492
751.36	62.562
751.54	67.862
751.72	67.096
751.90	64.763
752.08	64.799
752.26	65.834
752.44	64.350
752.62	67.552
752.80	66.957
752.98	64.657
753.16	64.196
753.34	64.150
753.52	65.301
753.69	65.386
753.87	64.202
754.05	65.590
754.23	63.260
754.41	65.062
754.59	63.896
754.77	67.324
754.95	61.241
755.13	66.534
755.31	64.921
755.49	61.950
755.66	61.170
755.84	61.581
756.02	62.840
756.20	68.613
756.38	64.077
756.56	67.110
756.74	64.326
756.92	62.048
757.10	64.105
757.28	65.021
757.45	68.909
757.63	66.108
757.81	57.743
757.99	65.948
758.17	60.743
758.35	62.344
758.53	65.566
758.71	61.692
758.88	60.814
759.06	65.318
759.24	57.014
759.42	63.555
759.60	59.001
759.78	59.901
759.96	54.698
760.13	59.478
760.31	50.917
760.49	56.104
760.67	49.791
760.85	55.238
761.03	50.017
761.21	51.628
761.38	50.137
761.56	55.327
761.74	48.040
761.92	55.928
762.10	46.157
762.28	58.667
762.46	49.632
762.63	51.446
762.81	50.622
762.99	53.067
763.17	52.389
763.35	51.897
763.53	53.717
763.70	55.390
763.88	53.635
764.06	53.958
764.24	52.971
764.42	57.715
764.60	55.120
764.77	54.581
764.95	55.241
765.13	56.194
765.31	52.847
765.49	55.244
765.66	55.777
765.84	58.340
766.02	56.104
766.20	59.306
766.38	55.805
766.56	59.208
766.73	55.084
766.91	58.965
767.09	55.930
767.27	57.664
767.45	60.664
767.62	60.151
767.80	59.557
767.98	61.646
768.16	56.805
768.33	59.030
768.51	58.499
768.69	59.710
768.87	61.431
769.05	64.414
769.22	59.235
769.40	66.045
769.58	64.892
769.76	69.155
769.94	62.031
770.11	61.462
770.29	60.894
770.47	63.526
770.65	60.173
770.82	63.928
771.00	63.397
771.18	64.372
771.36	65.823
771.53	61.710
771.71	60.931
771.89	68.859
772.07	59.227
772.25	66.030
772.42	58.649
772.60	65.119
772.78	59.022
772.96	62.795
773.13	60.601
773.31	64.599
773.49	55.628
773.67	63.492
773.84	61.640
774.02	62.109
774.20	58.016
774.37	64.496
774.55	60.163
774.73	62.627
774.91	59.171
775.08	64.762
775.26	66.685
775.44	63.314
775.62	62.459
775.79	63.739
775.97	62.598
776.15	63.163
776.32	55.876
776.50	64.336
776.68	59.462
776.86	67.198
777.03	60.404
777.21	65.865
777.39	56.290
777.56	65.784
777.74	56.989
777.92	61.915
778.10	61.327
778.27	64.598
778.45	61.638
778.63	65.206
778.80	62.708
778.98	62.578
779.16	62.453
779.34	63.662
779.51	59.733
779.69	63.786
779.87	58.503
780.04	62.659
780.22	64.290
780.40	62.201
780.57	61.856
780.75	64.648
780.93	60.815
781.10	62.029
781.28	65.866
781.46	61.991
781.63	65.074
781.81	65.647
781.99	61.165
782.16	56.575
782.34	58.838
782.52	58.985
782.69	61.448
782.87	63.572
783.05	58.154
783.22	64.533
783.40	59.574
783.58	62.687
783.75	59.178
783.93	64.672
784.11	56.775
784.28	65.707
784.46	56.163
784.64	65.288
784.81	52.673
784.99	68.503
785.17	58.873
785.34	61.074
785.52	58.923
785.69	60.633
785.87	58.412
786.05	60.339
786.22	55.483
786.40	68.045
786.58	60.000
786.75	66.467
786.93	61.544
787.11	59.605
787.28	60.268
787.46	61.115
787.63	60.442
787.81	60.247
787.99	51.869
788.16	57.211
788.34	56.919
788.51	58.089
788.69	55.828
788.87	61.559
789.04	55.176
789.22	61.481
789.39	57.464
789.57	56.240
789.75	52.807
789.92	60.177
790.10	54.972
790.27	59.034
790.45	53.943
790.63	58.843
790.80	50.601
790.98	56.014
791.15	57.833
791.33	59.531
791.51	55.569
791.68	59.499
791.86	52.762
792.03	60.483
792.21	50.195
792.39	56.036
792.56	59.221
792.74	56.263
792.91	56.811
793.09	52.445
793.26	52.737
793.44	60.879
793.62	52.215
793.79	53.933
793.97	53.457
794.14	58.886
794.32	51.318
794.49	60.264
794.67	56.935
794.84	51.083
795.02	46.504
795.20	48.895
795.37	51.111
795.55	53.121
795.72	55.299
795.90	57.367
796.07	59.479
796.25	59.193
796.42	54.822
796.60	53.350
796.77	50.518
796.95	58.221
797.13	51.408
797.30	61.054
797.48	53.318
797.65	57.755
797.83	50.599
798.00	53.512
798.18	54.412
798.35	55.863
798.53	54.760
798.70	58.903
798.88	51.983
799.05	56.385
799.23	53.800
799.40	54.789
799.58	48.756
799.75	52.883
799.93	51.504
800.10	58.172
800.28	51.672
800.45	56.899
800.63	54.321
800.80	58.371
800.98	53.388
801.15	54.366
801.33	58.098
801.50	55.358
801.68	51.511
801.85	52.153
802.03	55.703
802.20	55.048
802.38	51.067
802.55	52.085
802.73	50.318
802.90	49.931
803.08	47.869
803.25	57.868
803.43	58.986
803.60	50.402
803.78	50.582
803.95	55.483
804.13	56.750
804.30	51.871
804.48	51.152
804.65	48.281
804.83	50.939
805.00	57.389
805.17	55.716
805.35	54.042
805.52	49.399
805.70	55.506
805.87	55.209
806.05	58.333
806.22	45.369
806.40	46.263
806.57	46.701
806.75	55.684
806.92	57.046
807.09	59.375
807.27	48.651
807.44	55.635
807.62	49.235
807.79	53.102
807.97	49.127
808.14	55.861
808.31	50.220
808.49	54.829
808.66	42.879
808.84	54.232
809.01	50.081
809.19	52.710
809.36	58.179
809.53	51.979
809.71	45.339
809.88	51.383
810.06	56.559
810.23	54.408
810.41	56.504
810.58	58.276
810.75	48.195
810.93	50.043
811.10	50.207
811.28	54.167
811.45	41.902
811.62	44.934
811.80	47.409
811.97	52.997
812.15	62.669
812.32	48.882
812.49	49.500
812.67	48.628
812.84	43.699
813.02	51.473
813.19	44.675
813.36	47.329
813.54	37.857
813.71	53.650
813.89	56.399
814.06	51.282
814.23	44.803
814.41	42.618
814.58	51.082
814.75	50.486
814.93	44.377
815.10	52.488
815.28	48.928
815.45	44.357
815.62	42.471
815.80	44.251
815.97	38.626
816.14	48.472
816.32	51.327
816.49	45.115
816.66	43.959
816.84	49.770
817.01	44.465
817.18	48.727
817.36	47.027
817.53	58.326
817.71	39.551
817.88	47.667
818.05	41.429
818.23	44.300
818.40	39.113
818.57	49.093
818.75	44.901
818.92	41.866
819.09	45.500
819.27	45.447
819.44	51.305
819.61	46.023
819.79	40.000
819.96	46.087
820.13	41.708
820.31	47.330
820.48	50.277
820.65	47.970
820.82	38.177
821.00	47.965
821.17	42.408
821.34	47.246
821.52	50.440
821.69	43.023
821.86	45.343
822.04	49.195
822.21	52.666
822.38	51.464
822.56	49.649
822.73	54.260
822.90	50.244
823.07	52.090
823.25	51.709
823.42	49.201
823.59	50.774
823.77	51.931
823.94	53.615
824.11	50.507
824.29	50.789
824.46	51.799
824.63	52.576
824.80	53.199
824.98	50.924
825.15	50.306
825.32	50.143
825.49	51.330
825.67	47.895
825.84	51.780
826.01	46.364
826.19	51.017
826.36	47.782
826.53	56.650
826.70	48.527
826.88	50.355
827.05	48.325
827.22	46.291
827.39	46.737
827.57	49.671
827.74	46.154
827.91	52.878
828.08	46.186
828.26	49.689
828.43	44.391
828.60	52.209
828.77	49.410
828.95	50.853
829.12	46.537
829.29	45.125
829.46	45.277
829.64	46.803
829.81	43.190
829.98	48.155
830.15	44.834
830.32	47.482
830.50	44.177
830.67	55.290
830.84	43.476
831.01	35.550
831.19	38.770
831.36	47.266
831.53	42.335
831.70	58.326
831.87	44.354
832.05	49.781
832.22	54.869
832.39	45.315
832.56	36.888
832.74	40.852
832.91	35.532
833.08	49.297
833.25	35.601
833.42	39.972
833.60	39.464
833.77	39.296
833.94	39.710
834.11	41.703
834.28	39.374
834.45	45.780
834.63	40.896
834.80	45.903
834.97	43.900
835.14	44.162
835.31	43.441
835.49	44.768
835.66	45.340
835.83	42.531
836.00	48.087
836.17	44.385
836.34	40.308
836.52	43.430
836.69	47.565
836.86	45.219
837.03	48.763
837.20	43.614
837.37	40.870
837.55	40.720
837.72	45.075
837.89	47.509
838.06	51.374
838.23	49.763
838.40	47.904
838.58	40.265
838.75	50.363
838.92	48.136
839.09	60.864
839.26	44.213
839.43	49.881
839.60	61.832
839.78	52.294
839.95	49.645
840.12	49.163
840.29	59.856
840.46	50.463
840.63	43.246
840.80	50.851
840.98	47.975
841.15	46.458
841.32	41.328
841.49	41.776
841.66	61.455
841.83	36.355
842.00	41.860
842.17	53.776
842.34	49.731
842.52	57.500
842.69	58.399
842.86	44.118
843.03	73.316
843.20	54.065
843.37	51.969
843.54	50.815
843.71	56.087
843.88	56.220
844.06	65.109
844.23	58.750
844.40	54.740
844.57	46.000
844.74	71.587
844.91	54.873
845.08	51.675
845.25	74.708
845.42	59.082
845.59	57.292
845.76	59.188
845.94	75.121
846.11	50.638
846.28	86.957
846.45	62.173
846.62	83.613
846.79	64.032
846.96	53.846
847.13	57.663
847.30	62.393
847.47	60.425
847.64	54.219
847.81	78.431
847.98	65.720
848.15	77.023
848.32	73.227
848.50	71.226
848.67	60.954
848.84	76.156
849.01	69.492
849.18	71.818
849.35	86.683
849.52	75.560
849.69	87.407
849.86	78.450
850.03	78.144
850.20	64.978
850.37	78.966
850.54	90.000
850.71	66.384
850.88	74.041
851.05	80.383
851.22	93.564
851.39	57.883
851.56	73.515
851.73	80.682
851.90	86.799
852.07	62.435
852.24	68.721
852.41	73.504
852.58	70.157
852.75	73.576
852.92	64.268
853.09	90.237
853.26	76.667
853.43	79.319
853.60	66.860
853.77	76.167
853.94	68.737
854.11	75.758
854.28	81.586
854.45	57.725
854.62	66.331
854.79	87.293
854.96	47.696
855.13	88.489
855.30	75.799
855.47	88.110
855.64	61.371
855.81	70.288
855.98	71.944
856.15	79.167
856.32	86.195
856.49	77.949
856.66	76.282
856.83	75.669
857.00	62.022
857.17	90.860
857.34	87.500
857.51	73.118
857.68	73.684
857.85	84.241
858.02	81.336
858.19	84.936
858.36	81.379
858.53	84.431
858.70	68.135
858.87	105.864
859.04	46.944
859.21	70.029
859.38	82.494
859.55	80.928
859.72	90.608
859.89	69.832
860.05	67.322
860.22	84.615
860.39	91.768
860.56	82.067
860.73	74.588
860.90	77.743
861.07	75.493
861.24	61.098
861.41	88.472
861.58	75.490
861.75	61.635
861.92	71.981
862.09	89.378
862.26	76.077
862.43	80.645
862.59	86.380
862.76	74.534
862.93	84.324
863.10	73.913
863.27	69.492
863.44	56.635
863.61	91.411
863.78	79.054
863.95	62.565
864.12	69.195
864.29	72.727
864.45	46.875
864.62	71.353
864.79	65.553
864.96	63.196
865.13	59.066
865.30	75.309
865.47	78.112
865.64	81.053
865.81	77.212
865.97	45.110
866.14	75.000
866.31	79.948
866.48	84.444
866.65	76.903
866.82	84.075
866.99	67.463
867.16	57.618
867.33	80.251
867.49	77.959
867.66	65.455
867.83	66.577
868.00	78.272
868.17	65.909
868.34	73.626
868.51	63.966
868.67	60.411
868.84	85.979
869.01	72.581
869.18	64.784
869.35	59.140
869.52	51.532
869.69	75.645
869.85	70.725
870.02	75.168
870.19	85.304
870.36	81.231
870.53	68.310
870.70	85.675
870.86	72.121
871.03	72.826
871.20	81.967
871.37	118.354
871.54	93.678
871.71	72.973
871.87	54.472
872.04	71.739
872.21	48.851
872.38	92.560
872.55	88.169
872.72	52.589
872.88	80.893
873.05	67.031
873.22	95.319
873.39	63.636
873.56	72.464
873.72	55.236
873.89	51.299
874.06	67.155
874.23	62.357
874.40	73.620
874.56	97.605
874.73	61.713
874.90	62.916
875.07	63.300
875.24	76.203
875.40	57.534
875.57	78.371
875.74	58.873
875.91	58.394
876.08	67.761
876.24	70.190
876.41	90.085
876.58	73.214
876.75	72.394
876.92	82.026
877.08	74.185
877.25	78.680
877.42	63.610
877.59	71.810
877.75	92.486
877.92	71.277
878.09	72.846
878.26	83.551
878.42	62.353
878.59	72.679
878.76	62.344
878.93	67.797
879.09	54.545
879.26	48.098
879.43	70.721
879.60	60.759
879.76	47.117
879.93	65.356
880.10	56.504
880.27	53.537
880.43	54.788
880.60	45.821
880.77	43.989
880.94	40.000
881.10	34.881
881.27	40.883
881.44	32.299
881.61	44.561
881.77	46.438
881.94	39.741
882.11	31.550
882.28	30.374
882.44	35.573
882.61	39.744
882.78	37.516
882.94	41.326
883.11	39.741
883.28	43.118
883.45	41.780
883.61	41.073
883.78	39.705
883.95	42.954
884.11	43.799
884.28	44.974
>>>>>End Processed Spectral Data<<<<<
