SpectraSuite Data File
++++++++++++++++++++++++++++++++++++
Date: Sat Sep 21 03:56:53 EST 2019
User: sgrac
Dark Spectrum Present: Yes
Reference Spectrum Present: Yes
Number of Sampled Component Spectra: 1
Spectrometers: USB4E01596
Integration Time (usec): 100000 (USB4E01596)
Spectra Averaged: 1 (USB4E01596)
Boxcar Smoothing: 0 (USB4E01596)
Correct for Electrical Dark: No (USB4E01596)
Strobe/Lamp Enabled: Yes (USB4E01596)
Correct for Detector Non-linearity: No (USB4E01596)
Correct for Stray Light: No (USB4E01596)
Number of Pixels in Processed Spectrum: 3648
>>>>>Begin Processed Spectral Data<<<<<
178.44	-342.857
178.66	-342.857
178.87	-342.857
179.09	-585.714
179.30	-330.769
179.52	0.000
179.74	-1225.000
179.95	700.000
180.17	600.000
180.38	6200.000
180.60	0.000
180.82	925.000
181.03	-478.947
181.25	413.043
181.46	-180.645
181.68	270.833
181.89	4600.000
182.11	277.143
182.33	-204.444
182.54	-193.750
182.76	-4350.000
182.97	930.000
183.19	1875.000
183.40	217.241
183.62	-122.222
183.84	-292.593
184.05	434.783
184.27	341.667
184.48	1685.714
184.70	212.000
184.91	-593.333
185.13	211.111
185.34	-285.714
185.56	138.333
185.78	0.000
185.99	506.667
186.21	265.517
186.42	526.667
186.64	190.323
186.85	151.852
187.07	154.545
187.28	113.333
187.50	-333.333
187.72	2100.000
187.93	-7600.000
188.15	254.000
188.36	-323.529
188.58	-3400.000
188.79	190.909
189.01	291.667
189.22	1760.000
189.44	3000.000
189.65	340.000
189.87	837.500
190.09	-1360.000
190.30	718.750
190.52	-6250.000
190.73	221.429
190.95	207.143
191.16	253.333
191.38	1000.000
191.59	192.857
191.81	163.889
192.02	210.638
192.24	641.176
192.45	-1640.000
192.67	248.571
192.88	350.000
193.10	312.000
193.31	370.000
193.53	-10500.000
193.74	157.317
193.96	454.167
194.18	348.387
194.39	-150.000
194.61	363.158
194.82	395.238
195.04	214.286
195.25	3600.000
195.47	282.927
195.68	238.298
195.90	340.000
196.11	225.455
196.33	174.468
196.54	-2433.333
196.76	300.000
196.97	-2166.667
197.19	346.429
197.40	258.824
197.62	198.438
197.83	140.541
198.05	-273.684
198.26	331.429
198.48	255.556
198.69	295.349
198.91	249.020
199.12	-160.000
199.34	-880.000
199.55	7100.000
199.77	1725.000
199.98	344.000
200.20	132.394
200.41	621.429
200.63	-611.111
200.84	129.412
201.06	623.077
201.27	289.189
201.49	1500.000
201.70	388.889
201.91	217.391
202.13	128.986
202.34	207.547
202.56	-1357.143
202.77	622.222
202.99	339.286
203.20	3250.000
203.42	950.000
203.63	188.372
203.85	328.571
204.06	246.296
204.28	-720.000
204.49	254.286
204.71	187.179
204.92	0.000
205.14	-371.429
205.35	411.111
205.56	-1620.000
205.78	409.524
205.99	890.000
206.21	-54.839
206.42	283.871
206.64	467.857
206.85	1600.000
207.07	-461.538
207.28	528.571
207.50	-300.000
207.71	182.051
207.93	172.727
208.14	741.176
208.35	378.947
208.57	-7900.000
208.78	792.308
209.00	566.667
209.21	-3450.000
209.43	89.655
209.64	300.000
209.86	957.143
210.07	0.000
210.28	-623.529
210.50	185.714
210.71	221.053
210.93	333.333
211.14	-288.889
211.36	-225.806
211.57	-128.571
211.78	-95.652
212.00	0.000
212.21	276.744
212.43	-231.818
212.64	124.138
212.86	-875.000
213.07	-195.455
213.29	176.316
213.50	7100.000
213.71	207.547
213.93	1142.857
214.14	110.606
214.36	5900.000
214.57	400.000
214.78	343.750
215.00	2800.000
215.21	133.333
215.43	348.000
215.64	276.923
215.86	228.571
216.07	8200.000
216.28	244.000
216.50	-1428.571
216.71	-1080.000
216.93	234.043
217.14	271.875
217.35	462.963
217.57	196.429
217.78	1200.000
218.00	-580.000
218.21	268.421
218.42	-2000.000
218.64	617.647
218.85	-733.333
219.07	471.429
219.28	1750.000
219.49	43.421
219.71	3300.000
219.92	286.111
220.14	437.500
220.35	550.000
220.56	194.872
220.78	382.353
220.99	-6500.000
221.21	533.333
221.42	366.667
221.63	205.000
221.85	177.419
222.06	196.429
222.28	213.636
222.49	-3100.000
222.70	0.000
222.92	288.889
223.13	316.667
223.34	-725.000
223.56	192.105
223.77	66.292
223.99	246.154
224.20	50.000
224.41	264.865
224.63	255.556
224.84	162.069
225.05	342.857
225.27	120.000
225.48	213.043
225.69	771.429
225.91	133.333
226.12	194.444
226.34	110.784
226.55	125.926
226.76	179.032
226.98	136.000
227.19	54.545
227.40	90.083
227.62	80.488
227.83	79.000
228.04	96.703
228.26	89.109
228.47	46.552
228.69	39.474
228.90	77.465
229.11	34.815
229.33	33.333
229.54	30.921
229.75	38.261
229.97	30.043
230.18	35.125
230.39	18.143
230.61	24.528
230.82	36.929
231.03	2.075
231.25	35.017
231.46	30.292
231.67	50.988
231.89	47.059
232.10	36.437
232.31	41.827
232.53	20.904
232.74	41.667
232.95	53.012
233.17	35.838
233.38	29.104
233.59	41.912
233.81	44.175
234.02	64.474
234.23	49.733
234.45	50.658
234.66	42.938
234.87	55.705
235.09	43.704
235.30	52.299
235.51	45.146
235.73	34.591
235.94	53.886
236.15	55.612
236.36	38.624
236.58	49.763
236.79	40.314
237.00	38.164
237.22	42.593
237.43	47.059
237.64	38.428
237.86	36.413
238.07	37.688
238.28	56.831
238.50	33.913
238.71	28.402
238.92	25.595
239.13	47.429
239.35	37.063
239.56	51.042
239.77	59.024
239.99	27.358
240.20	34.737
240.41	26.293
240.63	20.648
240.84	21.912
241.05	33.577
241.26	19.835
241.48	38.053
241.69	11.392
241.90	15.493
242.12	25.510
242.33	12.069
242.54	9.808
242.75	17.268
242.97	16.552
243.18	19.024
243.39	15.923
243.61	9.145
243.82	8.112
244.03	8.921
244.24	6.442
244.46	13.778
244.67	10.629
244.88	12.989
245.09	15.860
245.31	6.334
245.52	29.779
245.73	11.284
245.95	32.196
246.16	13.449
246.37	23.256
246.58	23.178
246.80	17.225
247.01	9.653
247.22	10.779
247.43	8.539
247.65	10.022
247.86	6.061
248.07	5.853
248.28	9.242
248.50	6.657
248.71	7.269
248.92	7.205
249.13	5.714
249.35	5.859
249.56	11.407
249.77	6.822
249.98	6.501
250.20	6.556
250.41	11.285
250.62	9.518
250.83	16.495
251.05	8.828
251.26	8.893
251.47	21.441
251.68	10.969
251.90	18.116
252.11	12.544
252.32	12.142
252.53	16.207
252.75	10.880
252.96	19.391
253.17	14.702
253.38	13.514
253.59	11.441
253.81	14.403
254.02	3.922
254.23	17.562
254.44	13.658
254.66	12.066
254.87	13.538
255.08	16.117
255.29	14.859
255.50	22.796
255.72	16.514
255.93	22.871
256.14	20.000
256.35	20.141
256.57	21.522
256.78	21.005
256.99	13.089
257.20	16.990
257.41	17.184
257.63	19.427
257.84	23.859
258.05	18.542
258.26	12.252
258.47	18.784
258.69	13.912
258.90	13.509
259.11	8.424
259.32	8.266
259.53	7.909
259.75	6.120
259.96	5.527
260.17	4.758
260.38	5.016
260.59	4.667
260.81	4.470
261.02	7.454
261.23	6.810
261.44	6.963
261.65	5.815
261.87	2.242
262.08	5.050
262.29	8.926
262.50	7.963
262.71	6.186
262.92	5.917
263.14	13.035
263.35	9.930
263.56	4.941
263.77	6.605
263.98	9.259
264.20	16.839
264.41	6.492
264.62	16.038
264.83	15.819
265.04	14.226
265.25	17.151
265.47	11.329
265.68	17.201
265.89	9.318
266.10	3.947
266.31	22.902
266.52	11.512
266.74	3.196
266.95	8.377
267.16	12.887
267.37	15.250
267.58	6.190
267.79	8.120
268.01	6.374
268.22	11.078
268.43	10.722
268.64	5.654
268.85	3.735
269.06	5.998
269.27	13.426
269.49	8.212
269.70	10.325
269.91	11.953
270.12	8.471
270.33	9.378
270.54	10.950
270.75	7.953
270.97	9.568
271.18	6.154
271.39	11.134
271.60	8.004
271.81	7.917
272.02	8.855
272.23	8.864
272.45	6.047
272.66	4.156
272.87	4.778
273.08	4.020
273.29	7.620
273.50	6.998
273.71	6.687
273.92	8.058
274.14	3.353
274.35	3.077
274.56	8.179
274.77	6.925
274.98	10.401
275.19	7.460
275.40	11.608
275.61	5.860
275.83	13.913
276.04	7.544
276.25	10.882
276.46	6.118
276.67	4.312
276.88	5.998
277.09	7.037
277.30	9.667
277.51	11.111
277.73	5.700
277.94	7.233
278.15	5.010
278.36	8.207
278.57	10.758
278.78	6.200
278.99	11.024
279.20	11.884
279.41	12.195
279.62	8.333
279.84	6.852
280.05	13.214
280.26	11.180
280.47	12.601
280.68	3.712
280.89	9.808
281.10	9.199
281.31	6.369
281.52	9.515
281.73	8.866
281.94	7.000
282.16	7.866
282.37	10.330
282.58	7.368
282.79	9.488
283.00	9.190
283.21	3.145
283.42	5.932
283.63	4.903
283.84	6.625
284.05	8.273
284.26	9.635
284.47	9.062
284.68	6.190
284.89	5.367
285.11	6.452
285.32	4.446
285.53	5.422
285.74	9.034
285.95	7.260
286.16	6.746
286.37	6.120
286.58	2.828
286.79	6.303
287.00	5.779
287.21	4.389
287.42	5.858
287.63	4.009
287.84	5.031
288.05	2.334
288.26	7.403
288.48	7.009
288.69	6.452
288.90	5.328
289.11	7.452
289.32	6.115
289.53	5.645
289.74	5.571
289.95	2.731
290.16	9.972
290.37	3.167
290.58	5.054
290.79	4.111
291.00	7.832
291.21	2.505
291.42	2.910
291.63	4.419
291.84	8.328
292.05	5.637
292.26	6.214
292.47	6.125
292.68	2.740
292.89	6.401
293.10	8.759
293.31	8.009
293.52	3.631
293.73	4.819
293.94	8.241
294.15	2.146
294.36	2.879
294.57	9.589
294.79	8.456
295.00	7.466
295.21	4.598
295.42	7.446
295.63	6.067
295.84	5.245
296.05	4.615
296.26	7.245
296.47	6.196
296.68	6.515
296.89	3.832
297.10	6.146
297.31	6.164
297.52	7.403
297.73	4.503
297.94	5.444
298.15	3.878
298.36	5.200
298.57	3.990
298.78	5.044
298.99	1.848
299.20	3.819
299.41	3.371
299.62	5.451
299.83	4.849
300.04	5.865
300.25	5.801
300.46	5.935
300.67	3.836
300.88	7.702
301.09	5.317
301.30	8.492
301.50	9.851
301.71	6.778
301.92	6.952
302.13	4.479
302.34	5.253
302.55	4.133
302.76	8.116
302.97	7.876
303.18	5.976
303.39	4.852
303.60	6.476
303.81	6.743
304.02	6.128
304.23	5.730
304.44	8.397
304.65	3.336
304.86	6.015
305.07	9.215
305.28	6.397
305.49	6.813
305.70	6.151
305.91	7.162
306.12	3.022
306.33	3.806
306.54	5.649
306.75	6.404
306.96	7.115
307.17	7.687
307.38	6.641
307.58	6.513
307.79	7.365
308.00	6.335
308.21	8.796
308.42	7.761
308.63	7.240
308.84	7.093
309.05	6.092
309.26	6.028
309.47	6.071
309.68	3.451
309.89	9.029
310.10	6.234
310.31	5.047
310.52	2.180
310.73	3.584
310.94	4.189
311.14	4.916
311.35	4.188
311.56	4.370
311.77	5.527
311.98	5.580
312.19	3.696
312.40	2.612
312.61	5.622
312.82	5.538
313.03	3.620
313.24	4.242
313.45	5.093
313.66	4.942
313.86	6.108
314.07	5.572
314.28	5.229
314.49	7.217
314.70	4.827
314.91	5.691
315.12	7.294
315.33	2.192
315.54	5.838
315.75	5.567
315.96	7.790
316.16	7.586
316.37	6.849
316.58	5.481
316.79	7.232
317.00	7.517
317.21	2.394
317.42	4.318
317.63	7.484
317.84	8.993
318.05	7.843
318.25	6.543
318.46	5.887
318.67	4.794
318.88	6.825
319.09	5.368
319.30	8.459
319.51	7.127
319.72	6.137
319.93	8.783
320.13	8.274
320.34	8.936
320.55	5.325
320.76	7.257
320.97	7.076
321.18	7.281
321.39	5.318
321.60	8.026
321.80	7.052
322.01	6.836
322.22	7.165
322.43	5.766
322.64	4.132
322.85	4.451
323.06	6.462
323.27	8.321
323.47	9.624
323.68	6.032
323.89	5.393
324.10	6.441
324.31	5.404
324.52	4.965
324.73	6.364
324.93	8.269
325.14	2.994
325.35	5.440
325.56	7.222
325.77	6.446
325.98	3.103
326.19	7.373
326.39	6.355
326.60	5.094
326.81	2.752
327.02	6.691
327.23	3.932
327.44	7.252
327.64	5.737
327.85	4.262
328.06	7.751
328.27	7.516
328.48	4.103
328.69	3.383
328.90	5.743
329.10	5.773
329.31	1.947
329.52	6.335
329.73	6.812
329.94	6.094
330.15	3.338
330.35	7.596
330.56	8.658
330.77	8.308
330.98	8.596
331.19	8.248
331.39	7.572
331.60	7.074
331.81	9.485
332.02	7.162
332.23	6.277
332.44	3.958
332.64	5.053
332.85	7.816
333.06	9.143
333.27	4.379
333.48	6.662
333.68	5.679
333.89	2.838
334.10	2.368
334.31	7.464
334.52	6.234
334.72	6.000
334.93	7.112
335.14	7.911
335.35	4.077
335.56	6.580
335.76	3.466
335.97	5.427
336.18	8.653
336.39	5.340
336.60	7.753
336.80	7.121
337.01	6.130
337.22	3.310
337.43	6.375
337.64	6.535
337.84	4.762
338.05	7.407
338.26	8.062
338.47	8.081
338.68	6.348
338.88	5.238
339.09	7.485
339.30	5.337
339.51	4.829
339.71	9.049
339.92	7.036
340.13	9.518
340.34	6.597
340.55	5.795
340.75	7.096
340.96	7.069
341.17	8.592
341.38	7.864
341.58	6.756
341.79	7.130
342.00	6.503
342.21	8.543
342.41	4.859
342.62	7.982
342.83	10.826
343.04	2.567
343.24	5.754
343.45	9.425
343.66	6.726
343.87	10.167
344.07	3.825
344.28	11.015
344.49	11.147
344.70	11.534
344.90	8.311
345.11	8.088
345.32	7.509
345.53	7.032
345.73	7.631
345.94	12.584
346.15	11.357
346.36	8.156
346.56	9.692
346.77	12.998
346.98	9.543
347.19	12.968
347.39	12.194
347.60	11.449
347.81	10.738
348.02	11.281
348.22	8.651
348.43	9.898
348.64	9.474
348.84	12.268
349.05	9.050
349.26	16.722
349.47	10.347
349.67	12.046
349.88	14.914
350.09	12.133
350.30	14.135
350.50	11.950
350.71	14.036
350.92	13.120
351.12	11.975
351.33	11.111
351.54	11.836
351.74	15.895
351.95	10.305
352.16	13.555
352.37	15.447
352.57	13.413
352.78	11.239
352.99	14.978
353.19	10.784
353.40	12.467
353.61	16.588
353.82	14.121
354.02	18.053
354.23	15.053
354.44	17.006
354.64	15.443
354.85	16.031
355.06	16.617
355.26	11.002
355.47	14.627
355.68	18.363
355.88	15.932
356.09	15.110
356.30	12.274
356.51	17.539
356.71	16.535
356.92	11.376
357.13	15.084
357.33	16.614
357.54	14.987
357.75	9.647
357.95	16.051
358.16	14.255
358.37	21.850
358.57	13.963
358.78	20.338
358.99	14.884
359.19	16.401
359.40	19.876
359.61	14.721
359.81	17.537
360.02	19.242
360.23	13.325
360.43	15.877
360.64	15.223
360.85	16.776
361.05	15.808
361.26	19.008
361.47	13.937
361.67	18.661
361.88	11.201
362.09	20.827
362.29	15.031
362.50	15.465
362.70	12.728
362.91	20.428
363.12	14.877
363.32	16.586
363.53	18.133
363.74	19.490
363.94	11.975
364.15	20.975
364.36	15.914
364.56	14.369
364.77	18.491
364.98	20.771
365.18	15.793
365.39	18.233
365.59	13.623
365.80	16.124
366.01	17.558
366.21	13.714
366.42	12.694
366.63	17.930
366.83	14.663
367.04	10.841
367.24	20.588
367.45	12.575
367.66	14.109
367.86	16.973
368.07	13.735
368.28	14.715
368.48	14.130
368.69	13.303
368.89	13.722
369.10	17.233
369.31	13.476
369.51	14.697
369.72	14.733
369.92	17.492
370.13	11.308
370.34	16.467
370.54	7.075
370.75	15.932
370.95	14.604
371.16	17.004
371.37	13.540
371.57	14.931
371.78	12.932
371.98	14.547
372.19	14.913
372.40	17.547
372.60	17.635
372.81	16.767
373.01	11.054
373.22	12.419
373.43	14.989
373.63	16.255
373.84	14.882
374.04	13.650
374.25	14.334
374.46	16.942
374.66	14.946
374.87	15.451
375.07	10.498
375.28	11.631
375.48	12.037
375.69	16.667
375.90	12.393
376.10	11.705
376.31	12.460
376.51	11.927
376.72	12.077
376.92	10.175
377.13	14.923
377.34	16.591
377.54	13.092
377.75	16.242
377.95	11.785
378.16	16.432
378.36	14.743
378.57	17.205
378.77	14.399
378.98	16.719
379.19	14.268
379.39	12.823
379.60	13.323
379.80	15.833
380.01	14.833
380.21	13.225
380.42	15.042
380.62	12.605
380.83	15.360
381.04	13.073
381.24	13.359
381.45	14.041
381.65	10.807
381.86	13.810
382.06	14.258
382.27	10.185
382.47	10.158
382.68	17.238
382.88	8.893
383.09	12.407
383.29	13.323
383.50	15.703
383.71	11.565
383.91	13.541
384.12	10.059
384.32	15.029
384.53	10.533
384.73	8.419
384.94	9.893
385.14	13.217
385.35	11.134
385.55	13.515
385.76	10.558
385.96	12.932
386.17	12.651
386.37	13.906
386.58	12.631
386.78	14.180
386.99	10.840
387.19	14.736
387.40	9.691
387.60	17.612
387.81	11.650
388.01	13.305
388.22	13.656
388.42	15.811
388.63	15.078
388.83	15.551
389.04	9.206
389.24	14.671
389.45	11.544
389.65	13.692
389.86	12.749
390.06	12.115
390.27	12.217
390.47	11.909
390.68	11.474
390.88	16.017
391.09	14.510
391.29	14.080
391.50	14.057
391.70	13.648
391.91	12.115
392.11	11.799
392.32	13.024
392.52	15.658
392.73	13.866
392.93	13.043
393.14	12.585
393.34	13.932
393.55	13.052
393.75	12.836
393.95	11.713
394.16	14.436
394.36	15.699
394.57	16.970
394.77	13.043
394.98	13.755
395.18	13.194
395.39	12.857
395.59	13.049
395.80	13.372
396.00	13.868
396.21	14.994
396.41	11.525
396.61	14.490
396.82	13.113
397.02	15.973
397.23	13.546
397.43	12.362
397.64	8.912
397.84	15.129
398.05	9.293
398.25	14.234
398.45	10.850
398.66	13.966
398.86	12.428
399.07	14.391
399.27	11.934
399.48	13.843
399.68	11.281
399.89	12.692
400.09	12.834
400.29	11.918
400.50	11.477
400.70	13.909
400.91	11.565
401.11	11.867
401.32	11.933
401.52	10.543
401.72	11.160
401.93	15.452
402.13	12.937
402.34	12.630
402.54	10.512
402.75	14.962
402.95	8.796
403.15	13.985
403.36	9.507
403.56	11.408
403.77	10.052
403.97	10.826
404.17	9.583
404.38	12.752
404.58	9.998
404.79	13.182
404.99	11.994
405.19	12.319
405.40	10.298
405.60	13.045
405.81	12.698
406.01	12.749
406.21	10.742
406.42	12.921
406.62	11.991
406.83	12.085
407.03	12.809
407.23	11.214
407.44	9.942
407.64	13.459
407.85	11.496
408.05	11.981
408.25	8.942
408.46	13.898
408.66	12.890
408.87	10.281
409.07	10.640
409.27	10.246
409.48	10.506
409.68	12.170
409.88	8.684
410.09	12.938
410.29	10.448
410.50	14.116
410.70	7.594
410.90	11.815
411.11	8.163
411.31	11.778
411.51	11.213
411.72	13.891
411.92	8.866
412.12	12.247
412.33	8.934
412.53	10.381
412.74	7.152
412.94	10.391
413.14	10.673
413.35	11.256
413.55	9.761
413.75	11.962
413.96	8.657
414.16	10.484
414.36	10.108
414.57	11.591
414.77	8.953
414.97	11.504
415.18	9.760
415.38	11.486
415.58	9.725
415.79	9.647
415.99	9.630
416.19	12.078
416.40	10.605
416.60	11.261
416.80	10.532
417.01	12.785
417.21	8.350
417.41	12.347
417.62	11.406
417.82	11.886
418.02	8.811
418.23	11.785
418.43	10.932
418.63	11.712
418.84	12.886
419.04	12.259
419.24	13.260
419.45	14.019
419.65	12.885
419.85	13.141
420.06	12.778
420.26	13.462
420.46	13.265
420.67	14.699
420.87	13.283
421.07	13.695
421.28	12.126
421.48	13.655
421.68	13.789
421.88	14.524
422.09	13.767
422.29	13.385
422.49	13.009
422.70	14.218
422.90	13.165
423.10	14.080
423.31	12.757
423.51	13.738
423.71	12.600
423.91	14.877
424.12	13.745
424.32	13.620
424.52	13.139
424.73	13.917
424.93	13.897
425.13	13.338
425.33	12.743
425.54	13.735
425.74	13.313
425.94	13.859
426.15	12.936
426.35	13.058
426.55	13.724
426.75	13.711
426.96	13.157
427.16	13.320
427.36	12.735
427.57	14.205
427.77	12.550
427.97	12.542
428.17	12.256
428.38	12.705
428.58	9.762
428.78	11.741
428.98	9.778
429.19	11.033
429.39	9.779
429.59	13.037
429.79	8.638
430.00	9.689
430.20	7.451
430.40	10.394
430.60	9.559
430.81	11.892
431.01	9.826
431.21	12.237
431.41	8.919
431.62	11.588
431.82	10.988
432.02	11.530
432.22	10.092
432.43	9.656
432.63	8.771
432.83	11.458
433.03	11.075
433.24	10.669
433.44	10.282
433.64	11.834
433.84	11.126
434.05	13.190
434.25	11.228
434.45	12.243
434.65	12.254
434.85	12.996
435.06	11.854
435.26	12.432
435.46	11.759
435.66	12.673
435.87	10.936
436.07	12.154
436.27	10.746
436.47	11.435
436.67	9.574
436.88	12.618
437.08	11.280
437.28	11.732
437.48	11.260
437.69	13.130
437.89	9.724
438.09	12.180
438.29	10.205
438.49	11.838
438.70	11.338
438.90	11.708
439.10	10.546
439.30	12.442
439.50	10.077
439.71	12.555
439.91	11.187
440.11	12.734
440.31	12.522
440.51	11.776
440.72	11.170
440.92	12.694
441.12	12.607
441.32	13.143
441.52	12.572
441.72	13.210
441.93	12.240
442.13	13.493
442.33	12.545
442.53	13.210
442.73	11.845
442.94	13.205
443.14	11.916
443.34	13.656
443.54	13.355
443.74	13.381
443.94	11.897
444.15	12.479
444.35	10.853
444.55	12.468
444.75	12.358
444.95	12.597
445.15	11.616
445.36	13.197
445.56	11.568
445.76	13.038
445.96	12.402
446.16	12.563
446.36	12.417
446.57	13.246
446.77	10.944
446.97	12.970
447.17	12.348
447.37	13.053
447.57	13.486
447.77	13.368
447.98	12.722
448.18	13.362
448.38	12.739
448.58	13.632
448.78	13.650
448.98	12.939
449.18	12.393
449.39	12.979
449.59	13.229
449.79	13.158
449.99	11.859
450.19	13.551
450.39	11.243
450.59	12.693
450.79	11.646
451.00	12.787
451.20	13.147
451.40	12.971
451.60	9.921
451.80	13.256
452.00	11.299
452.20	12.815
452.40	10.890
452.61	12.267
452.81	12.073
453.01	13.090
453.21	11.353
453.41	13.062
453.61	11.964
453.81	12.697
454.01	11.140
454.21	12.433
454.42	12.301
454.62	12.820
454.82	10.606
455.02	12.451
455.22	10.887
455.42	11.688
455.62	10.204
455.82	11.743
456.02	11.307
456.23	11.658
456.43	10.248
456.63	11.845
456.83	10.313
457.03	12.555
457.23	11.195
457.43	12.227
457.63	10.763
457.83	11.439
458.03	9.887
458.23	13.068
458.43	9.965
458.64	11.507
458.84	11.182
459.04	11.842
459.24	11.302
459.44	11.917
459.64	11.568
459.84	12.775
460.04	11.814
460.24	13.062
460.44	12.262
460.64	12.775
460.84	12.637
461.04	12.964
461.24	13.147
461.45	12.829
461.65	13.143
461.85	13.133
462.05	13.298
462.25	13.505
462.45	12.909
462.65	12.222
462.85	11.547
463.05	12.917
463.25	11.664
463.45	12.139
463.65	10.973
463.85	12.841
464.05	11.757
464.25	11.497
464.45	12.229
464.65	12.290
464.85	9.583
465.05	12.423
465.26	12.079
465.46	12.300
465.66	11.612
465.86	12.435
466.06	10.820
466.26	12.445
466.46	9.812
466.66	11.450
466.86	11.353
467.06	11.597
467.26	11.804
467.46	12.661
467.66	11.679
467.86	11.807
468.06	10.737
468.26	11.654
468.46	11.468
468.66	11.625
468.86	10.578
469.06	12.517
469.26	11.000
469.46	11.979
469.66	10.066
469.86	12.693
470.06	11.060
470.26	12.602
470.46	10.109
470.66	12.551
470.86	10.186
471.06	11.406
471.26	9.218
471.46	10.878
471.66	11.236
471.86	12.375
472.06	11.198
472.26	12.780
472.46	11.162
472.66	12.165
472.86	11.008
473.06	12.808
473.26	10.667
473.46	12.079
473.66	10.985
473.86	12.136
474.06	10.672
474.26	11.310
474.46	9.791
474.66	11.592
474.86	11.480
475.06	12.141
475.26	9.880
475.46	10.573
475.66	10.240
475.86	12.551
476.06	11.193
476.26	11.645
476.46	10.911
476.66	12.048
476.86	10.785
477.06	11.849
477.26	10.180
477.46	12.170
477.65	11.117
477.85	12.897
478.05	11.078
478.25	12.410
478.45	11.528
478.65	12.366
478.85	11.236
479.05	12.408
479.25	12.162
479.45	12.841
479.65	11.272
479.85	12.614
480.05	11.615
480.25	13.079
480.45	11.895
480.65	12.830
480.85	10.941
481.05	12.690
481.25	12.326
481.44	12.811
481.64	11.627
481.84	13.358
482.04	11.843
482.24	12.494
482.44	11.112
482.64	12.288
482.84	12.272
483.04	12.834
483.24	12.298
483.44	12.631
483.64	12.131
483.84	12.594
484.04	12.635
484.23	12.567
484.43	12.834
484.63	12.906
484.83	13.170
485.03	12.946
485.23	13.382
485.43	13.047
485.63	13.284
485.83	13.244
486.03	13.614
486.23	13.562
486.42	13.390
486.62	13.368
486.82	13.573
487.02	13.121
487.22	13.116
487.42	12.855
487.62	12.869
487.82	13.256
488.02	12.768
488.22	13.137
488.41	13.390
488.61	12.863
488.81	13.177
489.01	12.953
489.21	12.937
489.41	13.466
489.61	13.195
489.81	13.371
490.01	13.683
490.20	13.809
490.40	13.257
490.60	13.583
490.80	13.461
491.00	13.298
491.20	12.983
491.40	13.038
491.60	12.740
491.79	12.418
491.99	13.086
492.19	12.973
492.39	13.017
492.59	12.943
492.79	13.208
492.99	13.015
493.19	13.508
493.38	13.345
493.58	13.835
493.78	13.727
493.98	13.725
494.18	14.097
494.38	13.433
494.58	13.766
494.77	13.040
494.97	13.394
495.17	13.332
495.37	13.010
495.57	13.535
495.77	13.141
495.96	12.765
496.16	13.242
496.36	12.836
496.56	13.539
496.76	12.645
496.96	13.160
497.15	12.542
497.35	12.901
497.55	12.515
497.75	13.688
497.95	13.174
498.15	13.535
498.34	13.138
498.54	13.296
498.74	13.811
498.94	13.606
499.14	13.786
499.34	14.058
499.53	13.094
499.73	13.882
499.93	13.658
500.13	14.068
500.33	13.193
500.52	12.742
500.72	13.815
500.92	13.174
501.12	12.480
501.32	13.426
501.52	14.001
501.71	13.556
501.91	13.113
502.11	13.700
502.31	12.896
502.51	14.180
502.70	12.506
502.90	13.779
503.10	12.309
503.30	13.647
503.50	13.416
503.69	13.252
503.89	12.911
504.09	13.661
504.29	13.112
504.48	13.735
504.68	14.141
504.88	14.177
505.08	13.178
505.28	13.547
505.47	12.915
505.67	14.568
505.87	13.634
506.07	13.920
506.27	12.591
506.46	14.152
506.66	13.584
506.86	14.853
507.06	13.661
507.25	13.741
507.45	13.456
507.65	13.557
507.85	13.209
508.04	13.943
508.24	14.036
508.44	13.752
508.64	13.985
508.83	14.446
509.03	14.044
509.23	14.674
509.43	13.780
509.63	15.677
509.82	13.913
510.02	14.682
510.22	13.693
510.42	13.851
510.61	14.448
510.81	15.220
511.01	14.421
511.21	14.760
511.40	14.969
511.60	14.816
511.80	14.974
511.99	14.562
512.19	14.726
512.39	14.359
512.59	14.205
512.78	15.235
512.98	15.065
513.18	14.619
513.38	15.212
513.57	14.395
513.77	14.792
513.97	14.655
514.17	14.782
514.36	15.337
514.56	14.355
514.76	14.332
514.95	14.739
515.15	15.547
515.35	13.929
515.55	15.234
515.74	14.764
515.94	15.022
516.14	15.014
516.33	15.494
516.53	14.826
516.73	15.364
516.93	14.748
517.12	15.288
517.32	14.334
517.52	14.926
517.71	14.486
517.91	15.419
518.11	14.707
518.30	15.694
518.50	14.528
518.70	15.169
518.90	15.330
519.09	15.138
519.29	15.172
519.49	15.456
519.68	14.870
519.88	15.520
520.08	15.075
520.27	15.534
520.47	15.691
520.67	15.713
520.86	16.035
521.06	16.644
521.26	15.455
521.45	15.689
521.65	15.734
521.85	16.133
522.04	15.630
522.24	15.604
522.44	15.161
522.63	14.968
522.83	15.613
523.03	15.255
523.22	15.191
523.42	15.389
523.62	15.402
523.81	15.640
524.01	15.618
524.21	15.992
524.40	14.625
524.60	15.548
524.80	15.346
524.99	15.547
525.19	15.466
525.39	16.201
525.58	15.272
525.78	15.588
525.98	15.470
526.17	15.864
526.37	15.579
526.57	15.633
526.76	15.721
526.96	15.744
527.15	15.748
527.35	15.583
527.55	15.494
527.74	15.672
527.94	15.937
528.14	15.616
528.33	15.236
528.53	15.449
528.72	14.847
528.92	15.564
529.12	15.393
529.31	15.757
529.51	16.259
529.71	16.013
529.90	15.753
530.10	16.023
530.29	16.287
530.49	16.309
530.69	16.342
530.88	16.395
531.08	16.316
531.28	16.432
531.47	16.400
531.67	15.832
531.86	16.436
532.06	16.263
532.26	15.753
532.45	16.547
532.65	16.078
532.84	15.495
533.04	15.856
533.24	15.400
533.43	15.335
533.63	15.872
533.82	15.732
534.02	15.968
534.22	15.915
534.41	16.154
534.61	15.853
534.80	15.764
535.00	16.293
535.19	16.139
535.39	16.465
535.59	16.422
535.78	16.016
535.98	16.143
536.17	16.318
536.37	16.172
536.57	16.574
536.76	16.332
536.96	16.206
537.15	16.255
537.35	16.939
537.54	16.083
537.74	16.196
537.93	16.413
538.13	16.998
538.33	16.430
538.52	16.028
538.72	16.638
538.91	16.320
539.11	17.382
539.30	15.871
539.50	16.272
539.70	16.169
539.89	17.169
540.09	15.834
540.28	16.902
540.48	16.292
540.67	16.380
540.87	16.112
541.06	15.892
541.26	15.620
541.45	16.731
541.65	16.060
541.85	16.213
542.04	16.367
542.24	16.496
542.43	16.702
542.63	16.611
542.82	16.843
543.02	16.947
543.21	17.268
543.41	17.181
543.60	17.108
543.80	16.853
543.99	17.474
544.19	17.028
544.38	16.925
544.58	17.234
544.77	17.408
544.97	17.195
545.16	16.884
545.36	17.419
545.56	17.519
545.75	17.101
545.95	17.178
546.14	17.278
546.34	17.078
546.53	17.039
546.73	17.300
546.92	16.780
547.12	17.879
547.31	17.382
547.51	17.021
547.70	17.589
547.90	17.618
548.09	17.622
548.29	17.401
548.48	17.643
548.68	18.024
548.87	17.900
549.07	17.154
549.26	17.379
549.46	17.313
549.65	18.455
549.84	17.153
550.04	17.120
550.23	17.393
550.43	17.664
550.62	16.925
550.82	16.608
551.01	16.774
551.21	17.596
551.40	17.990
551.60	18.262
551.79	18.086
551.99	18.073
552.18	17.715
552.38	18.606
552.57	17.614
552.77	18.005
552.96	18.167
553.16	18.807
553.35	18.160
553.54	18.872
553.74	18.184
553.93	18.546
554.13	18.322
554.32	18.550
554.52	19.007
554.71	19.411
554.91	18.877
555.10	18.842
555.29	17.177
555.49	19.714
555.68	18.559
555.88	19.423
556.07	18.110
556.27	19.244
556.46	18.797
556.66	18.297
556.85	19.851
557.04	19.106
557.24	18.292
557.43	19.149
557.63	19.476
557.82	19.569
558.02	19.392
558.21	20.036
558.40	18.877
558.60	20.271
558.79	19.094
558.99	19.828
559.18	18.957
559.38	20.347
559.57	19.098
559.76	20.766
559.96	20.353
560.15	20.119
560.35	19.560
560.54	21.407
560.73	19.431
560.93	20.456
561.12	19.512
561.32	21.190
561.51	20.083
561.70	21.183
561.90	20.210
562.09	21.697
562.29	19.916
562.48	20.896
562.67	20.339
562.87	21.581
563.06	20.760
563.26	21.650
563.45	20.288
563.64	22.635
563.84	20.247
564.03	22.266
564.23	21.148
564.42	22.231
564.61	20.742
564.81	21.008
565.00	21.015
565.20	22.139
565.39	20.709
565.58	21.657
565.78	21.381
565.97	22.033
566.16	22.133
566.36	22.204
566.55	21.896
566.74	22.473
566.94	22.627
567.13	22.497
567.33	21.829
567.52	22.697
567.71	22.584
567.91	22.760
568.10	23.283
568.29	22.823
568.49	22.129
568.68	22.536
568.87	23.076
569.07	22.586
569.26	22.751
569.45	23.528
569.65	22.398
569.84	22.770
570.04	23.079
570.23	23.361
570.42	22.491
570.62	24.304
570.81	23.751
571.00	23.216
571.20	23.563
571.39	23.729
571.58	23.893
571.78	23.810
571.97	22.965
572.16	23.154
572.36	23.525
572.55	23.139
572.74	23.574
572.94	23.375
573.13	23.376
573.32	24.844
573.51	23.003
573.71	24.867
573.90	23.474
574.09	24.718
574.29	23.429
574.48	24.020
574.67	23.586
574.87	23.499
575.06	23.730
575.25	24.745
575.45	23.372
575.64	23.706
575.83	23.994
576.03	24.592
576.22	23.783
576.41	23.967
576.60	23.895
576.80	24.180
576.99	24.504
577.18	24.465
577.38	24.598
577.57	23.972
577.76	24.845
577.95	24.888
578.15	23.369
578.34	25.015
578.53	24.463
578.73	25.190
578.92	24.656
579.11	25.156
579.30	23.851
579.50	24.759
579.69	23.864
579.88	24.668
580.08	23.851
580.27	24.638
580.46	24.345
580.65	24.579
580.85	24.070
581.04	24.798
581.23	24.545
581.42	25.573
581.62	22.538
581.81	24.935
582.00	23.772
582.19	23.763
582.39	23.620
582.58	24.374
582.77	23.477
582.96	25.098
583.16	23.036
583.35	25.058
583.54	24.276
583.73	22.896
583.93	23.814
584.12	23.556
584.31	23.508
584.50	23.272
584.70	23.890
584.89	24.520
585.08	23.438
585.27	24.262
585.47	22.437
585.66	24.463
585.85	23.177
586.04	24.667
586.24	24.126
586.43	23.847
586.62	22.493
586.81	24.552
587.00	22.737
587.20	24.205
587.39	23.325
587.58	26.030
587.77	24.292
587.97	23.070
588.16	23.517
588.35	23.344
588.54	21.972
588.73	23.604
588.93	23.966
589.12	24.057
589.31	22.552
589.50	23.705
589.69	23.872
589.89	24.108
590.08	23.541
590.27	23.383
590.46	23.509
590.65	24.336
590.85	22.378
591.04	23.369
591.23	23.629
591.42	23.576
591.61	22.544
591.81	24.146
592.00	24.076
592.19	23.402
592.38	24.102
592.57	23.876
592.77	23.604
592.96	23.576
593.15	22.832
593.34	23.062
593.53	24.168
593.72	24.083
593.92	22.457
594.11	24.165
594.30	24.128
594.49	23.196
594.68	23.547
594.87	24.762
595.07	22.978
595.26	24.736
595.45	24.130
595.64	24.893
595.83	22.762
596.02	23.958
596.22	23.865
596.41	24.738
596.60	23.955
596.79	24.152
596.98	23.236
597.17	24.413
597.37	23.912
597.56	25.486
597.75	24.157
597.94	23.932
598.13	25.017
598.32	24.979
598.51	24.164
598.71	25.656
598.90	24.053
599.09	25.471
599.28	23.881
599.47	25.174
599.66	24.352
599.85	25.069
600.05	22.863
600.24	25.707
600.43	24.100
600.62	25.651
600.81	24.937
601.00	24.181
601.19	21.914
601.38	24.218
601.58	24.104
601.77	23.658
601.96	24.465
602.15	26.542
602.34	23.582
602.53	25.506
602.72	23.833
602.91	25.238
603.10	24.114
603.30	24.006
603.49	24.293
603.68	25.423
603.87	23.763
604.06	23.954
604.25	24.505
604.44	24.960
604.63	23.505
604.82	24.551
605.01	25.635
605.21	25.262
605.40	24.867
605.59	25.030
605.78	25.155
605.97	25.510
606.16	25.452
606.35	25.509
606.54	24.967
606.73	25.920
606.92	24.249
607.11	24.963
607.30	24.971
607.50	25.366
607.69	24.213
607.88	24.982
608.07	24.383
608.26	24.862
608.45	25.477
608.64	25.233
608.83	24.531
609.02	24.923
609.21	23.545
609.40	23.952
609.59	24.184
609.78	24.675
609.97	23.223
610.16	24.988
610.35	23.640
610.55	23.483
610.74	24.920
610.93	24.754
611.12	24.538
611.31	24.705
611.50	23.550
611.69	24.979
611.88	24.389
612.07	25.236
612.26	23.220
612.45	24.469
612.64	22.655
612.83	23.567
613.02	23.312
613.21	23.518
613.40	21.680
613.59	23.320
613.78	20.376
613.97	22.725
614.16	22.157
614.35	23.428
614.54	21.931
614.73	22.827
614.92	21.709
615.11	21.933
615.30	21.536
615.49	21.775
615.68	21.051
615.87	22.579
616.07	20.384
616.26	21.100
616.45	20.646
616.64	22.520
616.83	21.072
617.02	23.597
617.21	20.167
617.40	22.412
617.59	23.205
617.78	21.350
617.97	20.908
618.16	22.028
618.35	19.256
618.54	21.166
618.73	19.898
618.92	22.399
619.11	20.763
619.30	22.463
619.49	19.342
619.68	21.279
619.86	21.086
620.05	20.802
620.24	20.057
620.43	20.680
620.62	18.592
620.81	22.395
621.00	20.486
621.19	22.738
621.38	19.187
621.57	21.637
621.76	19.622
621.95	21.829
622.14	20.892
622.33	21.444
622.52	18.956
622.71	21.007
622.90	18.599
623.09	21.383
623.28	20.545
623.47	20.827
623.66	20.251
623.85	21.137
624.04	19.669
624.23	20.234
624.42	19.222
624.61	19.480
624.80	17.801
624.99	21.181
625.18	18.757
625.36	19.756
625.55	20.330
625.74	19.636
625.93	18.416
626.12	19.961
626.31	20.612
626.50	20.479
626.69	19.120
626.88	21.544
627.07	21.589
627.26	20.587
627.45	19.099
627.64	22.349
627.83	19.579
628.02	21.813
628.20	19.699
628.39	20.993
628.58	20.665
628.77	22.546
628.96	19.840
629.15	19.184
629.34	20.083
629.53	19.927
629.72	19.752
629.91	22.619
630.10	21.044
630.29	19.935
630.47	18.487
630.66	19.425
630.85	20.217
631.04	19.974
631.23	19.227
631.42	19.703
631.61	17.952
631.80	21.044
631.99	19.583
632.18	18.773
632.36	17.327
632.55	20.434
632.74	18.380
632.93	19.569
633.12	18.865
633.31	20.689
633.50	18.845
633.69	18.796
633.88	16.292
634.06	20.536
634.25	16.812
634.44	19.318
634.63	17.852
634.82	20.227
635.01	18.027
635.20	20.638
635.39	17.968
635.57	20.309
635.76	19.312
635.95	19.817
636.14	17.489
636.33	20.104
636.52	16.570
636.71	19.207
636.89	17.498
637.08	18.394
637.27	16.687
637.46	18.379
637.65	17.494
637.84	18.213
638.03	16.929
638.21	20.408
638.40	18.009
638.59	17.606
638.78	15.805
638.97	18.987
639.16	18.973
639.34	17.564
639.53	13.372
639.72	17.699
639.91	15.565
640.10	17.282
640.29	16.881
640.47	19.472
640.66	15.728
640.85	19.831
641.04	13.848
641.23	16.998
641.42	15.751
641.60	16.814
641.79	16.204
641.98	14.869
642.17	16.128
642.36	18.582
642.54	14.693
642.73	16.721
642.92	13.502
643.11	13.750
643.30	14.315
643.49	15.617
643.67	13.261
643.86	17.005
644.05	12.010
644.24	15.703
644.43	14.448
644.61	16.353
644.80	13.636
644.99	16.616
645.18	16.409
645.37	15.964
645.55	12.894
645.74	16.992
645.93	15.510
646.12	16.032
646.31	15.153
646.49	15.103
646.68	15.312
646.87	15.527
647.06	14.491
647.24	15.378
647.43	13.457
647.62	15.076
647.81	12.038
648.00	16.090
648.18	11.702
648.37	15.525
648.56	13.072
648.75	15.714
648.93	14.734
649.12	14.328
649.31	12.154
649.50	14.217
649.68	13.217
649.87	14.129
650.06	12.445
650.25	14.882
650.43	14.047
650.62	13.821
650.81	14.166
651.00	15.626
651.18	11.663
651.37	15.652
651.56	13.159
651.75	16.304
651.93	12.500
652.12	15.782
652.31	12.537
652.50	15.219
652.68	13.298
652.87	16.801
653.06	15.513
653.25	17.223
653.43	14.417
653.62	14.727
653.81	13.134
654.00	16.512
654.18	12.245
654.37	15.802
654.56	14.063
654.74	13.103
654.93	11.632
655.12	14.059
655.31	11.970
655.49	15.487
655.68	12.299
655.87	11.486
656.05	10.570
656.24	12.173
656.43	10.178
656.62	13.390
656.80	11.372
656.99	11.239
657.18	8.136
657.36	13.359
657.55	13.868
657.74	12.646
657.93	13.782
658.11	14.970
658.30	13.428
658.49	12.558
658.67	12.153
658.86	11.537
659.05	11.270
659.23	12.849
659.42	12.947
659.61	14.755
659.79	12.785
659.98	13.958
660.17	13.215
660.35	13.406
660.54	12.763
660.73	16.990
660.91	13.430
661.10	15.437
661.29	10.085
661.47	12.330
661.66	12.608
661.85	14.121
662.03	11.718
662.22	9.383
662.41	8.788
662.59	12.459
662.78	9.186
662.97	9.173
663.15	10.058
663.34	8.687
663.53	8.844
663.71	10.819
663.90	9.131
664.09	12.366
664.27	8.634
664.46	9.018
664.65	8.162
664.83	8.916
665.02	9.550
665.21	7.462
665.39	7.816
665.58	8.711
665.77	10.018
665.95	8.855
666.14	6.065
666.32	7.385
666.51	7.966
666.70	7.289
666.88	9.820
667.07	7.508
667.26	7.556
667.44	7.842
667.63	7.855
667.81	7.297
668.00	6.551
668.19	11.155
668.37	8.238
668.56	10.844
668.75	6.881
668.93	9.743
669.12	7.148
669.30	9.638
669.49	6.646
669.68	7.647
669.86	8.885
670.05	7.732
670.23	6.839
670.42	7.016
670.61	8.211
670.79	7.854
670.98	8.876
671.16	10.584
671.35	8.319
671.54	7.730
671.72	7.156
671.91	8.095
672.09	6.236
672.28	10.834
672.46	10.598
672.65	9.242
672.84	8.445
673.02	9.084
673.21	5.579
673.39	7.176
673.58	8.909
673.77	7.966
673.95	7.733
674.14	9.823
674.32	8.809
674.51	11.722
674.69	8.245
674.88	8.914
675.07	7.237
675.25	12.803
675.44	8.741
675.62	8.307
675.81	6.027
675.99	13.344
676.18	9.805
676.36	7.120
676.55	5.002
676.74	9.586
676.92	9.214
677.11	10.084
677.29	9.883
677.48	7.705
677.66	10.094
677.85	10.284
678.03	7.897
678.22	7.625
678.40	8.107
678.59	9.310
678.78	6.942
678.96	11.339
679.15	7.770
679.33	9.723
679.52	11.291
679.70	9.214
679.89	7.935
680.07	10.573
680.26	8.197
680.44	10.470
680.63	10.669
680.81	8.910
681.00	6.879
681.18	12.021
681.37	8.768
681.55	13.098
681.74	13.094
681.92	12.651
682.11	11.792
682.29	11.337
682.48	9.818
682.66	11.935
682.85	10.385
683.03	11.341
683.22	11.861
683.40	13.031
683.59	10.981
683.77	12.618
683.96	8.760
684.14	14.332
684.33	8.015
684.51	14.601
684.70	13.215
684.88	15.773
685.07	12.781
685.25	11.820
685.44	10.122
685.62	13.865
685.81	12.242
685.99	13.458
686.18	9.095
686.36	13.565
686.55	11.008
686.73	13.468
686.92	15.731
687.10	13.660
687.29	17.757
687.47	13.386
687.65	14.866
687.84	14.047
688.02	19.817
688.21	17.188
688.39	15.251
688.58	18.808
688.76	14.627
688.95	13.555
689.13	13.220
689.32	19.239
689.50	16.211
689.68	18.574
689.87	15.638
690.05	17.038
690.24	18.077
690.42	18.468
690.61	17.074
690.79	18.178
690.98	18.201
691.16	17.423
691.34	15.851
691.53	20.617
691.71	18.146
691.90	21.080
692.08	16.614
692.27	23.009
692.45	22.247
692.63	21.283
692.82	22.441
693.00	23.556
693.19	18.590
693.37	22.469
693.56	21.060
693.74	26.794
693.92	21.153
694.11	25.115
694.29	25.261
694.48	25.698
694.66	22.983
694.84	26.011
695.03	21.993
695.21	28.653
695.40	29.002
695.58	29.333
695.76	24.450
695.95	26.497
696.13	24.607
696.32	29.173
696.50	32.760
696.68	29.423
696.87	25.817
697.05	31.016
697.24	29.002
697.42	34.274
697.60	28.875
697.79	30.951
697.97	30.510
698.16	36.233
698.34	32.114
698.52	36.524
698.71	35.651
698.89	38.139
699.07	35.028
699.26	34.241
699.44	35.890
699.63	37.656
699.81	34.588
699.99	36.707
700.18	35.756
700.36	39.600
700.54	38.964
700.73	40.385
700.91	37.718
701.09	38.604
701.28	36.950
701.46	40.474
701.64	36.710
701.83	41.367
702.01	34.830
702.20	42.226
702.38	38.283
702.56	39.386
702.75	35.242
702.93	42.148
703.11	36.991
703.30	41.312
703.48	40.333
703.66	43.040
703.85	37.896
704.03	41.199
704.21	40.672
704.40	40.725
704.58	37.839
704.76	42.011
704.95	40.991
705.13	42.789
705.31	40.657
705.50	40.653
705.68	41.118
705.86	47.130
706.04	40.313
706.23	45.358
706.41	42.570
706.59	42.437
706.78	41.402
706.96	44.698
707.14	42.943
707.33	46.999
707.51	44.201
707.69	45.928
707.88	41.196
708.06	43.611
708.24	41.732
708.42	47.814
708.61	44.545
708.79	43.876
708.97	45.129
709.16	44.017
709.34	44.762
709.52	47.703
709.71	47.337
709.89	46.588
710.07	44.521
710.25	48.703
710.44	41.676
710.62	49.893
710.80	47.671
710.98	51.006
711.17	46.914
711.35	47.771
711.53	46.291
711.72	46.150
711.90	47.660
712.08	48.790
712.26	44.913
712.45	49.008
712.63	46.875
712.81	50.331
712.99	48.483
713.18	48.248
713.36	50.459
713.54	51.238
713.72	48.953
713.91	50.495
714.09	48.469
714.27	47.844
714.45	46.514
714.64	49.269
714.82	46.114
715.00	46.765
715.18	47.537
715.37	48.938
715.55	46.708
715.73	49.617
715.91	46.104
716.10	48.024
716.28	47.441
716.46	50.914
716.64	44.157
716.83	48.333
717.01	47.181
717.19	48.603
717.37	46.575
717.55	52.981
717.74	50.163
717.92	48.326
718.10	46.303
718.28	46.949
718.47	45.598
718.65	50.028
718.83	45.491
719.01	49.910
719.19	46.055
719.38	46.187
719.56	44.655
719.74	49.595
719.92	44.075
720.10	46.815
720.29	45.101
720.47	46.337
720.65	43.291
720.83	49.414
721.01	39.947
721.20	49.730
721.38	44.108
721.56	47.936
721.74	45.651
721.92	50.614
722.11	44.329
722.29	54.363
722.47	49.002
722.65	53.417
722.83	49.241
723.01	46.033
723.20	47.648
723.38	50.833
723.56	51.237
723.74	54.788
723.92	49.420
724.10	52.624
724.29	42.098
724.47	51.852
724.65	45.571
724.83	51.627
725.01	47.860
725.19	54.340
725.38	48.892
725.56	51.599
725.74	46.861
725.92	51.693
726.10	46.088
726.28	53.447
726.46	51.849
726.65	52.254
726.83	49.079
727.01	51.014
727.19	47.619
727.37	54.514
727.55	44.097
727.73	50.829
727.92	47.847
728.10	53.280
728.28	46.091
728.46	49.705
728.64	48.650
728.82	51.317
729.00	45.912
729.19	55.274
729.37	48.210
729.55	51.401
729.73	46.628
729.91	52.929
730.09	51.414
730.27	54.695
730.45	46.857
730.63	50.328
730.82	49.611
731.00	53.448
731.18	51.429
731.36	49.841
731.54	50.131
731.72	52.725
731.90	54.302
732.08	51.154
732.26	53.133
732.45	54.235
732.63	53.723
732.81	55.433
732.99	53.654
733.17	55.131
733.35	52.113
733.53	56.190
733.71	53.628
733.89	55.403
734.07	55.089
734.25	55.993
734.44	49.833
734.62	58.027
734.80	53.950
734.98	56.993
735.16	52.865
735.34	55.721
735.52	57.028
735.70	56.137
735.88	55.539
736.06	59.628
736.24	60.102
736.42	57.746
736.60	55.721
736.78	57.696
736.97	55.192
737.15	57.626
737.33	50.617
737.51	59.821
737.69	54.143
737.87	56.012
738.05	58.408
738.23	59.303
738.41	58.333
738.59	61.157
738.77	60.774
738.95	61.256
739.13	57.212
739.31	57.244
739.49	53.828
739.67	61.836
739.85	55.304
740.03	57.767
740.21	56.168
740.39	58.134
740.57	59.784
740.75	58.869
740.93	53.816
741.11	62.126
741.30	54.899
741.48	60.016
741.66	55.853
741.84	60.382
742.02	62.308
742.20	61.989
742.38	58.422
742.56	55.614
742.74	57.259
742.92	63.565
743.10	57.402
743.28	70.048
743.46	61.985
743.64	62.987
743.82	58.162
744.00	60.327
744.18	56.022
744.36	56.711
744.54	58.300
744.72	62.231
744.90	61.217
745.08	63.127
745.26	57.268
745.44	63.988
745.62	59.215
745.80	59.443
745.98	58.896
746.16	57.947
746.34	64.663
746.52	61.066
746.70	57.802
746.87	64.718
747.05	62.766
747.23	60.020
747.41	60.745
747.59	59.572
747.77	53.715
747.95	56.334
748.13	57.084
748.31	65.649
748.49	58.333
748.67	62.008
748.85	61.134
749.03	59.600
749.21	58.023
749.39	65.797
749.57	54.678
749.75	61.486
749.93	63.855
750.11	60.782
750.29	59.562
750.47	60.883
750.65	59.317
750.83	65.933
751.01	56.281
751.18	66.738
751.36	59.877
751.54	61.726
751.72	57.243
751.90	57.074
752.08	55.909
752.26	60.973
752.44	57.604
752.62	61.782
752.80	57.700
752.98	66.804
753.16	63.400
753.34	58.124
753.52	59.581
753.69	61.260
753.87	55.981
754.05	68.909
754.23	63.347
754.41	65.588
754.59	67.586
754.77	64.565
754.95	58.937
755.13	66.910
755.31	61.538
755.49	62.644
755.66	57.100
755.84	60.659
756.02	58.391
756.20	59.057
756.38	55.532
756.56	61.785
756.74	62.351
756.92	63.238
757.10	60.821
757.28	64.724
757.45	63.810
757.63	64.835
757.81	57.495
757.99	67.497
758.17	63.753
758.35	61.774
758.53	64.027
758.71	62.034
758.88	58.925
759.06	57.213
759.24	55.347
759.42	53.922
759.60	55.744
759.78	53.507
759.96	46.275
760.13	46.933
760.31	46.261
760.49	45.764
760.67	37.006
760.85	42.639
761.03	39.638
761.21	43.590
761.38	38.625
761.56	39.552
761.74	38.168
761.92	47.087
762.10	38.117
762.28	47.431
762.46	38.519
762.63	41.720
762.81	40.415
762.99	48.816
763.17	39.289
763.35	44.122
763.53	41.356
763.70	45.708
763.88	42.661
764.06	47.594
764.24	42.746
764.42	48.712
764.60	47.636
764.77	48.943
764.95	44.570
765.13	49.309
765.31	47.640
765.49	50.512
765.66	49.793
765.84	52.863
766.02	50.928
766.20	52.780
766.38	46.753
766.56	55.187
766.73	51.986
766.91	51.805
767.09	52.330
767.27	54.030
767.45	51.956
767.62	59.902
767.80	52.098
767.98	60.278
768.16	56.282
768.33	64.234
768.51	58.737
768.69	63.803
768.87	60.841
769.05	66.706
769.22	51.158
769.40	67.760
769.58	55.901
769.76	64.225
769.94	59.024
770.11	60.120
770.29	61.816
770.47	57.442
770.65	61.017
770.82	58.091
771.00	62.403
771.18	62.683
771.36	59.635
771.53	58.434
771.71	56.974
771.89	62.721
772.07	62.568
772.25	72.790
772.42	56.824
772.60	68.869
772.78	52.685
772.96	65.006
773.13	63.599
773.31	60.215
773.49	63.861
773.67	63.400
773.84	61.239
774.02	63.852
774.20	61.752
774.37	62.726
774.55	59.712
774.73	63.396
774.91	61.457
775.08	58.900
775.26	64.474
775.44	66.061
775.62	59.016
775.79	58.393
775.97	61.231
776.15	54.688
776.32	59.168
776.50	67.907
776.68	57.742
776.86	61.335
777.03	63.924
777.21	62.480
777.39	64.006
777.56	69.953
777.74	59.789
777.92	62.309
778.10	57.717
778.27	67.752
778.45	52.359
778.63	66.825
778.80	57.643
778.98	59.914
779.16	61.139
779.34	56.023
779.51	62.117
779.69	65.728
779.87	59.293
780.04	60.423
780.22	59.853
780.40	57.790
780.57	64.912
780.75	57.542
780.93	62.009
781.10	61.336
781.28	67.875
781.46	60.142
781.63	64.793
781.81	57.975
781.99	60.691
782.16	65.397
782.34	59.764
782.52	57.166
782.69	61.677
782.87	60.980
783.05	61.760
783.22	61.071
783.40	58.833
783.58	64.471
783.75	53.608
783.93	68.352
784.11	64.148
784.28	63.322
784.46	55.908
784.64	58.571
784.81	56.452
784.99	62.480
785.17	64.466
785.34	63.523
785.52	57.143
785.69	59.025
785.87	61.639
786.05	61.429
786.22	62.075
786.40	66.606
786.58	64.262
786.75	58.041
786.93	64.613
787.11	58.217
787.28	61.340
787.46	59.567
787.63	61.569
787.81	59.563
787.99	55.009
788.16	60.984
788.34	51.768
788.51	56.836
788.69	48.093
788.87	50.599
789.04	51.442
789.22	48.331
789.39	49.753
789.57	55.105
789.75	47.438
789.92	53.392
790.10	54.232
790.27	51.714
790.45	50.553
790.63	55.662
790.80	54.369
790.98	62.852
791.15	54.503
791.33	55.791
791.51	55.278
791.68	59.605
791.86	57.565
792.03	58.603
792.21	52.574
792.39	53.191
792.56	51.658
792.74	58.223
792.91	57.593
793.09	51.670
793.26	58.491
793.44	57.685
793.62	55.512
793.79	56.064
793.97	63.353
794.14	51.257
794.32	57.028
794.49	58.615
794.67	57.520
794.84	53.669
795.02	55.766
795.20	52.741
795.37	58.400
795.55	53.707
795.72	60.821
795.90	57.310
796.07	62.698
796.25	61.844
796.42	54.545
796.60	54.090
796.77	52.491
796.95	63.834
797.13	51.130
797.30	55.914
797.48	47.611
797.65	48.154
797.83	50.799
798.00	53.918
798.18	50.735
798.35	56.897
798.53	60.971
798.70	49.381
798.88	64.087
799.05	56.684
799.23	48.452
799.40	51.246
799.58	54.783
799.75	56.719
799.93	43.595
800.10	63.534
800.28	57.143
800.45	62.575
800.63	46.768
800.80	62.950
800.98	55.955
801.15	51.083
801.33	49.806
801.50	53.943
801.68	49.565
801.85	48.649
802.03	51.303
802.20	64.242
802.38	56.180
802.55	62.033
802.73	56.455
802.90	51.313
803.08	53.663
803.25	59.118
803.43	55.738
803.60	54.967
803.78	54.813
803.95	57.143
804.13	52.481
804.30	48.098
804.48	46.725
804.65	55.281
804.83	44.869
805.00	57.395
805.17	58.635
805.35	51.750
805.52	49.898
805.70	59.959
805.87	54.771
806.05	53.414
806.22	55.000
806.40	51.229
806.57	59.496
806.75	55.943
806.92	63.374
807.09	61.053
807.27	53.469
807.44	53.242
807.62	54.563
807.79	53.084
807.97	49.600
808.14	53.015
808.31	48.026
808.49	55.556
808.66	64.691
808.84	44.668
809.01	43.678
809.19	45.540
809.36	55.115
809.53	58.352
809.71	56.410
809.88	65.533
810.06	53.173
810.23	65.702
810.41	55.765
810.58	59.223
810.75	46.842
810.93	55.708
811.10	47.817
811.28	48.090
811.45	48.872
811.62	58.312
811.80	40.452
811.97	56.784
812.15	57.631
812.32	56.806
812.49	55.774
812.67	49.403
812.84	50.000
813.02	54.233
813.19	51.816
813.36	52.762
813.54	45.592
813.71	44.845
813.89	53.627
814.06	51.128
814.23	49.706
814.41	47.222
814.58	61.708
814.75	55.858
814.93	47.277
815.10	55.172
815.28	48.010
815.45	38.876
815.62	45.402
815.80	34.503
815.97	40.000
816.14	40.053
816.32	39.793
816.49	42.480
816.66	31.467
816.84	38.952
817.01	43.629
817.18	50.392
817.36	49.871
817.53	50.728
817.71	40.360
817.88	41.667
818.05	43.792
818.23	33.333
818.40	40.800
818.57	43.052
818.75	39.789
818.92	40.602
819.09	35.013
819.27	37.500
819.44	37.055
819.61	43.880
819.79	38.926
819.96	33.105
820.13	42.771
820.31	44.834
820.48	49.491
820.65	44.954
820.82	42.561
821.00	46.655
821.17	33.780
821.34	35.204
821.52	36.783
821.69	37.531
821.86	37.927
822.04	45.387
822.21	43.245
822.38	46.277
822.56	41.450
822.73	44.726
822.90	43.768
823.07	44.199
823.25	46.085
823.42	46.738
823.59	45.448
823.77	46.039
823.94	46.562
824.11	46.168
824.29	45.970
824.46	46.608
824.63	47.976
824.80	47.233
824.98	44.989
825.15	47.730
825.32	45.483
825.49	43.459
825.67	45.104
825.84	42.012
826.01	41.500
826.19	49.167
826.36	38.611
826.53	39.768
826.70	37.033
826.88	44.739
827.05	36.304
827.22	37.659
827.39	39.836
827.57	39.638
827.74	38.013
827.91	41.921
828.08	40.952
828.26	44.400
828.43	38.424
828.60	46.020
828.77	40.976
828.95	37.592
829.12	35.568
829.29	41.596
829.46	38.095
829.64	40.127
829.81	31.669
829.98	43.408
830.15	38.356
830.32	35.433
830.50	30.523
830.67	41.722
830.84	43.659
831.01	43.363
831.19	33.889
831.36	46.016
831.53	39.910
831.70	46.207
831.87	35.381
832.05	47.664
832.22	51.778
832.39	46.099
832.56	40.369
832.74	35.253
832.91	39.401
833.08	49.786
833.25	26.601
833.42	42.171
833.60	37.273
833.77	35.417
833.94	33.546
834.11	29.625
834.28	34.777
834.45	33.090
834.63	32.156
834.80	38.610
834.97	32.770
835.14	35.150
835.31	35.381
835.49	37.661
835.66	34.875
835.83	35.851
836.00	39.748
836.17	41.146
836.34	38.799
836.52	39.877
836.69	45.683
836.86	36.331
837.03	35.028
837.20	42.963
837.37	43.898
837.55	41.875
837.72	35.080
837.89	51.263
838.06	47.714
838.23	41.176
838.40	46.386
838.58	39.193
838.75	38.284
838.92	67.492
839.09	54.983
839.26	57.756
839.43	57.679
839.60	46.847
839.78	64.286
839.95	42.779
840.12	52.218
840.29	54.576
840.46	56.748
840.63	64.890
840.80	68.285
840.98	51.282
841.15	59.375
841.32	46.970
841.49	49.673
841.66	66.076
841.83	44.720
842.00	44.186
842.17	58.807
842.34	46.622
842.52	63.667
842.69	37.288
842.86	56.977
843.03	67.528
843.20	55.939
843.37	62.731
843.54	59.551
843.71	58.036
843.88	59.556
844.06	71.200
844.23	57.619
844.40	69.778
844.57	65.193
844.74	85.366
844.91	44.928
845.08	101.705
845.25	67.633
845.42	57.527
845.59	76.316
845.76	69.744
845.94	77.723
846.11	87.671
846.28	89.286
846.45	98.876
846.62	103.896
846.79	75.342
846.96	46.914
847.13	88.953
847.30	62.759
847.47	76.259
847.64	87.597
847.81	110.169
847.98	91.457
848.15	109.489
848.32	86.792
848.50	100.599
848.67	82.759
848.84	66.438
849.01	55.866
849.18	81.443
849.35	84.375
849.52	74.138
849.69	70.861
849.86	91.156
850.03	107.463
850.20	73.684
850.37	71.429
850.54	88.827
850.71	78.146
850.88	74.302
851.05	98.305
851.22	63.483
851.39	101.802
851.56	94.643
851.73	72.327
851.90	74.534
852.07	133.083
852.24	76.316
852.41	99.048
852.58	90.845
852.75	77.011
852.92	51.707
853.09	104.687
853.26	77.249
853.43	100.000
853.60	71.348
853.77	131.646
853.94	79.562
854.11	96.503
854.28	129.600
854.45	61.719
854.62	61.421
854.79	112.418
854.96	76.000
855.13	69.006
855.30	105.102
855.47	87.931
855.64	105.263
855.81	76.882
855.98	95.238
856.15	81.081
856.32	72.327
856.49	73.643
856.66	65.734
856.83	51.515
857.00	76.471
857.17	78.462
857.34	66.316
857.51	97.122
857.68	77.838
857.85	73.864
858.02	103.704
858.19	71.171
858.36	101.818
858.53	76.129
858.70	45.509
858.87	77.848
859.04	91.935
859.21	53.378
859.38	78.947
859.55	100.746
859.72	119.540
859.89	85.612
860.05	88.288
860.22	100.000
860.39	103.571
860.56	90.840
860.73	91.057
860.90	101.835
861.07	62.500
861.24	64.474
861.41	142.593
861.58	114.583
861.75	76.296
861.92	71.053
862.09	87.407
862.26	73.504
862.43	130.693
862.59	75.000
862.76	79.720
862.93	148.315
863.10	78.095
863.27	72.650
863.44	108.046
863.61	94.161
863.78	74.286
863.95	105.229
864.12	81.609
864.29	58.120
864.45	58.621
864.62	64.407
864.79	106.202
864.96	59.350
865.13	70.270
865.30	104.969
865.47	65.244
865.64	86.331
865.81	74.809
865.97	92.667
866.14	73.469
866.31	81.667
866.48	72.185
866.65	74.359
866.82	86.076
866.99	99.145
867.16	91.729
867.33	104.301
867.49	88.272
867.66	106.186
867.83	62.205
868.00	76.027
868.17	71.901
868.34	75.439
868.51	98.095
868.67	96.203
868.84	80.000
869.01	99.200
869.18	68.085
869.35	81.395
869.52	45.238
869.69	65.068
869.85	77.570
870.02	71.154
870.19	96.610
870.36	101.379
870.53	74.286
870.70	62.264
870.86	84.000
871.03	78.395
871.20	62.385
871.37	75.000
871.54	81.081
871.71	75.714
871.87	55.975
872.04	54.286
872.21	96.522
872.38	106.504
872.55	99.383
872.72	118.750
872.88	80.447
873.05	78.161
873.22	104.762
873.39	70.408
873.56	87.574
873.72	58.235
873.89	77.640
874.06	70.149
874.23	122.034
874.40	86.000
874.56	108.421
874.73	90.244
874.90	63.559
875.07	100.714
875.24	65.839
875.40	100.840
875.57	92.661
875.74	82.400
875.91	60.550
876.08	90.435
876.24	115.116
876.41	111.200
876.58	69.149
876.75	73.759
876.92	66.912
877.08	75.735
877.25	57.391
877.42	89.844
877.59	83.673
877.75	77.333
877.92	42.262
878.09	85.417
878.26	86.826
878.42	70.000
878.59	82.609
878.76	58.553
878.93	88.806
879.09	47.475
879.26	63.415
879.43	68.649
879.60	66.434
879.76	63.068
879.93	58.333
880.10	55.333
880.27	52.174
880.43	56.425
880.60	50.228
880.77	24.432
880.94	54.726
881.10	32.153
881.27	42.623
881.44	28.612
881.61	35.202
881.77	33.078
881.94	39.053
882.11	24.824
882.28	27.994
882.44	27.686
882.61	32.068
882.78	33.584
882.94	34.410
883.11	34.704
883.28	31.356
883.45	32.519
883.61	27.707
883.78	30.271
883.95	29.460
884.11	28.225
884.28	29.510
>>>>>End Processed Spectral Data<<<<<
