SpectraSuite Data File
++++++++++++++++++++++++++++++++++++
Date: Sat Sep 21 04:04:04 EST 2019
User: sgrac
Dark Spectrum Present: Yes
Reference Spectrum Present: Yes
Number of Sampled Component Spectra: 1
Spectrometers: USB4E01596
Integration Time (usec): 100000 (USB4E01596)
Spectra Averaged: 1 (USB4E01596)
Boxcar Smoothing: 0 (USB4E01596)
Correct for Electrical Dark: No (USB4E01596)
Strobe/Lamp Enabled: Yes (USB4E01596)
Correct for Detector Non-linearity: No (USB4E01596)
Correct for Stray Light: No (USB4E01596)
Number of Pixels in Processed Spectrum: 3648
>>>>>Begin Processed Spectral Data<<<<<
178.44	-578.571
178.66	-578.571
178.87	-578.571
179.09	-242.857
179.30	-484.615
179.52	0.000
179.74	-1200.000
179.95	1166.667
180.17	653.333
180.38	7800.000
180.60	0.000
180.82	1100.000
181.03	-457.895
181.25	352.174
181.46	-145.161
181.68	470.833
181.89	11700.000
182.11	357.143
182.33	-137.778
182.54	-359.375
182.76	-4050.000
182.97	480.000
183.19	2225.000
183.40	279.310
183.62	-248.148
183.84	-288.889
184.05	239.130
184.27	525.000
184.48	1042.857
184.70	228.000
184.91	-646.667
185.13	211.111
185.34	-278.571
185.56	103.333
185.78	0.000
185.99	606.667
186.21	362.069
186.42	633.333
186.64	146.774
186.85	307.407
187.07	145.455
187.28	513.333
187.50	-406.667
187.72	1540.000
187.93	-10300.000
188.15	230.000
188.36	-305.882
188.58	-3700.000
188.79	295.455
189.01	322.222
189.22	1680.000
189.44	3900.000
189.65	263.333
189.87	687.500
190.09	-2180.000
190.30	662.500
190.52	-5100.000
190.73	125.000
190.95	207.143
191.16	271.111
191.38	780.000
191.59	197.619
191.81	250.000
192.02	236.170
192.24	511.765
192.45	-1820.000
192.67	285.714
192.88	545.833
193.10	328.000
193.31	370.000
193.53	-12100.000
193.74	143.902
193.96	495.833
194.18	387.097
194.39	-272.222
194.61	647.368
194.82	504.762
195.04	304.762
195.25	3350.000
195.47	187.805
195.68	208.511
195.90	1420.000
196.11	250.909
196.33	227.660
196.54	-3533.333
196.76	264.286
196.97	-2200.000
197.19	425.000
197.40	282.353
197.62	189.063
197.83	175.676
198.05	-226.316
198.26	360.000
198.48	219.444
198.69	244.186
198.91	207.843
199.12	-260.000
199.34	-1340.000
199.55	10300.000
199.77	2575.000
199.98	416.000
200.20	153.521
200.41	750.000
200.63	-922.222
200.84	235.294
201.06	646.154
201.27	324.324
201.49	1000.000
201.70	392.593
201.91	284.783
202.13	186.957
202.34	192.453
202.56	-700.000
202.77	466.667
202.99	396.429
203.20	3700.000
203.42	1162.500
203.63	239.535
203.85	277.143
204.06	174.074
204.28	-720.000
204.49	205.714
204.71	202.564
204.92	0.000
205.14	-600.000
205.35	483.333
205.56	-1880.000
205.78	342.857
205.99	1000.000
206.21	-196.774
206.42	277.419
206.64	289.286
206.85	1150.000
207.07	-538.462
207.28	407.143
207.50	-510.526
207.71	169.231
207.93	236.364
208.14	488.235
208.35	578.947
208.57	-13100.000
208.78	846.154
209.00	400.000
209.21	-4650.000
209.43	324.138
209.64	323.529
209.86	671.429
210.07	0.000
210.28	-488.235
210.50	177.551
210.71	198.246
210.93	342.857
211.14	-422.222
211.36	-187.097
211.57	-385.714
211.78	-95.652
212.00	0.000
212.21	197.674
212.43	-409.091
212.64	177.586
212.86	-1100.000
213.07	-295.455
213.29	215.789
213.50	7400.000
213.71	218.868
213.93	1428.571
214.14	107.576
214.36	6500.000
214.57	323.077
214.78	462.500
215.00	3800.000
215.21	244.444
215.43	312.000
215.64	238.462
215.86	188.571
216.07	4600.000
216.28	220.000
216.50	-1085.714
216.71	-1580.000
216.93	331.915
217.14	271.875
217.35	340.741
217.57	239.286
217.78	1000.000
218.00	-590.000
218.21	400.000
218.42	-1866.667
218.64	558.824
218.85	-1088.889
219.07	328.571
219.28	1500.000
219.49	156.579
219.71	2066.667
219.92	202.778
220.14	266.667
220.35	325.000
220.56	194.872
220.78	258.824
220.99	-4600.000
221.21	409.524
221.42	700.000
221.63	265.000
221.85	183.871
222.06	146.429
222.28	222.727
222.49	-3800.000
222.70	0.000
222.92	422.222
223.13	223.333
223.34	-1250.000
223.56	163.158
223.77	104.494
223.99	251.282
224.20	23.810
224.41	256.757
224.63	333.333
224.84	117.241
225.05	92.857
225.27	170.000
225.48	147.826
225.69	885.714
225.91	300.000
226.12	238.889
226.34	135.294
226.55	116.667
226.76	174.194
226.98	132.000
227.19	254.545
227.40	80.165
227.62	92.683
227.83	82.000
228.04	81.319
228.26	75.248
228.47	105.172
228.69	52.632
228.90	25.352
229.11	54.074
229.33	51.208
229.54	25.000
229.75	51.304
229.97	44.206
230.18	34.409
230.39	20.675
230.61	27.044
230.82	40.664
231.03	2.075
231.25	35.354
231.46	41.241
231.67	41.107
231.89	58.039
232.10	33.198
232.31	49.038
232.53	40.113
232.74	46.354
232.95	63.855
233.17	73.410
233.38	22.388
233.59	65.441
233.81	52.427
234.02	73.684
234.23	53.476
234.45	77.632
234.66	64.407
234.87	62.416
235.09	61.481
235.30	48.276
235.51	63.592
235.73	35.220
235.94	34.197
236.15	69.388
236.36	53.439
236.58	36.493
236.79	48.168
237.00	31.401
237.22	88.272
237.43	53.922
237.64	30.131
237.86	58.152
238.07	64.824
238.28	27.322
238.50	40.435
238.71	57.396
238.92	47.024
239.13	54.857
239.35	48.951
239.56	49.479
239.77	63.415
239.99	40.566
240.20	37.895
240.41	37.931
240.63	31.579
240.84	38.247
241.05	32.847
241.26	19.008
241.48	31.858
241.69	22.785
241.90	30.704
242.12	32.908
242.33	19.397
242.54	13.433
242.75	26.755
242.97	25.517
243.18	14.141
243.39	22.173
243.61	12.444
243.82	22.238
244.03	14.676
244.24	15.644
244.46	21.630
244.67	10.329
244.88	23.161
245.09	20.534
245.31	12.476
245.52	30.147
245.73	30.739
245.95	33.475
246.16	15.618
246.37	22.093
246.58	21.869
246.80	23.604
247.01	12.066
247.22	19.221
247.43	16.854
247.65	16.918
247.86	13.783
248.07	7.358
248.28	15.877
248.50	14.793
248.71	14.978
248.92	15.284
249.13	12.161
249.35	14.531
249.56	16.153
249.77	15.978
249.98	13.958
250.20	15.000
250.41	17.095
250.62	20.241
250.83	17.820
251.05	17.817
251.26	10.345
251.47	18.018
251.68	25.046
251.90	22.826
252.11	21.429
252.32	20.573
252.53	24.959
252.75	12.320
252.96	17.628
253.17	17.614
253.38	17.162
253.59	9.181
253.81	16.324
254.02	16.893
254.23	20.755
254.44	17.582
254.66	18.512
254.87	25.993
255.08	21.062
255.29	29.920
255.50	14.624
255.72	23.853
255.93	22.871
256.14	25.682
256.35	26.698
256.57	23.885
256.78	20.091
256.99	22.251
257.20	11.408
257.41	31.056
257.63	22.086
257.84	20.539
258.05	13.958
258.26	11.171
258.47	19.678
258.69	15.548
258.90	11.335
259.11	14.665
259.32	14.092
259.53	13.807
259.75	9.180
259.96	7.779
260.17	7.092
260.38	7.686
260.59	11.926
260.81	9.898
261.02	12.382
261.23	14.245
261.44	12.229
261.65	11.975
261.87	11.515
262.08	12.219
262.29	12.416
262.50	12.410
262.71	10.847
262.92	11.243
263.14	16.201
263.35	8.425
263.56	8.941
263.77	13.326
263.98	13.757
264.20	19.560
264.41	10.083
264.62	15.364
264.83	11.723
265.04	16.876
265.25	16.715
265.47	21.601
265.68	16.764
265.89	10.483
266.10	11.349
266.31	22.333
266.52	18.863
266.74	9.132
266.95	10.602
267.16	13.015
267.37	13.625
267.58	7.143
267.79	12.236
268.01	9.341
268.22	16.567
268.43	14.948
268.64	14.450
268.85	11.313
269.06	11.582
269.27	12.675
269.49	11.954
269.70	16.947
269.91	14.941
270.12	8.801
270.33	17.281
270.54	11.777
270.75	9.357
270.97	16.872
271.18	12.308
271.39	10.729
271.60	10.537
271.81	14.986
272.02	15.385
272.23	14.774
272.45	10.140
272.66	8.894
272.87	9.727
273.08	10.500
273.29	11.390
273.50	11.964
273.71	11.246
273.92	12.356
274.14	7.963
274.35	6.721
274.56	11.420
274.77	13.273
274.98	14.496
275.19	10.657
275.40	10.232
275.61	10.086
275.83	13.333
276.04	12.573
276.25	12.451
276.46	14.142
276.67	12.012
276.88	17.166
277.09	6.838
277.30	13.825
277.51	12.860
277.73	8.400
277.94	9.119
278.15	10.405
278.36	13.779
278.57	11.168
278.78	12.300
278.99	15.122
279.20	11.563
279.41	15.650
279.62	13.889
279.84	11.420
280.05	12.896
280.26	10.145
280.47	14.012
280.68	7.642
280.89	15.288
281.10	14.738
281.31	11.027
281.52	17.817
281.73	9.438
281.94	11.182
282.16	13.291
282.37	14.395
282.58	13.990
282.79	14.777
283.00	17.293
283.21	10.242
283.42	7.165
283.63	12.529
283.84	11.672
284.05	11.807
284.26	12.199
284.47	12.422
284.68	12.460
284.89	8.287
285.11	13.210
285.32	10.023
285.53	9.714
285.74	14.454
285.95	11.781
286.16	9.259
286.37	11.458
286.58	10.371
286.79	11.825
287.00	13.929
287.21	10.024
287.42	11.538
287.63	11.321
287.84	8.365
288.05	12.871
288.26	11.408
288.48	12.083
288.69	9.543
288.90	8.394
289.11	14.265
289.32	12.734
289.53	11.510
289.74	6.143
289.95	10.701
290.16	14.530
290.37	9.993
290.58	8.014
290.79	9.164
291.00	10.809
291.21	6.526
291.42	8.333
291.63	8.144
291.84	12.429
292.05	10.013
292.26	10.186
292.47	12.701
292.68	8.356
292.89	12.251
293.10	15.182
293.31	11.833
293.52	8.775
293.73	6.667
293.94	9.492
294.15	8.046
294.36	9.261
294.57	16.819
294.79	11.016
295.00	7.897
295.21	10.776
295.42	13.013
295.63	12.705
295.84	9.524
296.05	10.280
296.26	7.633
296.47	11.074
296.68	13.093
296.89	12.774
297.10	11.432
297.31	11.187
297.52	12.427
297.73	12.094
297.94	14.617
298.15	8.493
298.36	12.834
298.57	9.375
298.78	12.586
298.99	9.241
299.20	13.317
299.41	13.900
299.62	12.837
299.83	10.271
300.04	13.744
300.25	14.819
300.46	16.787
300.67	9.458
300.88	11.423
301.09	7.975
301.30	13.655
301.50	11.795
301.71	17.750
301.92	13.235
302.13	9.277
302.34	12.101
302.55	11.439
302.76	12.517
302.97	15.823
303.18	10.727
303.39	6.681
303.60	10.237
303.81	15.854
304.02	10.526
304.23	12.020
304.44	9.368
304.65	11.193
304.86	14.354
305.07	10.583
305.28	13.055
305.49	15.967
305.70	13.891
305.91	13.320
306.12	10.072
306.33	10.588
306.54	12.619
306.75	12.597
306.96	16.628
307.17	11.782
307.38	8.855
307.58	10.728
307.79	13.440
308.00	12.670
308.21	12.577
308.42	13.209
308.63	11.756
308.84	10.042
309.05	10.401
309.26	10.638
309.47	10.956
309.68	11.690
309.89	14.038
310.10	10.224
310.31	10.841
310.52	9.388
310.73	14.755
310.94	7.421
311.14	11.452
311.35	10.820
311.56	9.300
311.77	10.256
311.98	9.354
312.19	14.130
312.40	7.617
312.61	11.514
312.82	10.914
313.03	11.410
313.24	11.679
313.45	14.827
313.66	11.279
313.86	14.790
314.07	11.915
314.28	9.608
314.49	10.923
314.70	13.664
314.91	16.556
315.12	15.542
315.33	15.276
315.54	11.126
315.75	10.060
315.96	8.782
316.16	10.759
316.37	12.055
316.58	10.495
316.79	9.730
317.00	14.345
317.21	9.166
317.42	9.958
317.63	14.825
317.84	13.957
318.05	11.625
318.25	15.220
318.46	12.068
318.67	8.702
318.88	14.206
319.09	11.765
319.30	15.197
319.51	10.839
319.72	16.811
319.93	12.095
320.13	12.588
320.34	12.908
320.55	11.464
320.76	12.337
320.97	14.653
321.18	14.330
321.39	12.112
321.60	11.208
321.80	19.651
322.01	10.493
322.22	12.305
322.43	7.425
322.64	7.345
322.85	8.596
323.06	14.972
323.27	15.423
323.47	14.710
323.68	15.262
323.89	11.011
324.10	14.169
324.31	10.465
324.52	11.748
324.73	14.870
324.93	11.795
325.14	13.041
325.35	13.631
325.56	13.770
325.77	12.400
325.98	10.621
326.19	12.763
326.39	9.470
326.60	11.887
326.81	11.757
327.02	12.530
327.23	7.320
327.44	18.219
327.64	9.239
327.85	9.924
328.06	17.456
328.27	20.376
328.48	14.697
328.69	10.025
328.90	14.103
329.10	11.812
329.31	12.448
329.52	13.556
329.73	17.394
329.94	8.657
330.15	15.688
330.35	14.425
330.56	12.483
330.77	14.596
330.98	12.021
331.19	14.656
331.39	15.484
331.60	11.789
331.81	13.076
332.02	18.675
332.23	12.126
332.44	9.894
332.64	18.292
332.85	11.890
333.06	17.587
333.27	8.431
333.48	15.926
333.68	13.951
333.89	14.917
334.10	9.221
334.31	18.153
334.52	15.212
334.72	14.061
334.93	13.009
335.14	15.443
335.35	10.612
335.56	18.746
335.76	12.476
335.97	20.061
336.18	12.114
336.39	22.505
336.60	15.507
336.80	15.886
337.01	13.161
337.22	13.948
337.43	19.611
337.64	22.318
337.84	17.888
338.05	15.168
338.26	18.239
338.47	21.331
338.68	14.268
338.88	19.345
339.09	15.269
339.30	16.540
339.51	15.194
339.71	18.735
339.92	13.149
340.13	20.241
340.34	15.660
340.55	15.233
340.75	14.612
340.96	15.589
341.17	16.758
341.38	14.217
341.58	13.512
341.79	14.320
342.00	12.361
342.21	16.325
342.41	13.017
342.62	17.788
342.83	17.690
343.04	11.352
343.24	16.226
343.45	20.862
343.66	16.200
343.87	18.500
344.07	12.472
344.28	18.035
344.49	18.309
344.70	22.130
344.90	14.301
345.11	15.265
345.32	13.696
345.53	15.131
345.73	15.462
345.94	21.802
346.15	20.298
346.36	17.275
346.56	17.768
346.77	19.771
346.98	16.524
347.19	19.872
347.39	18.673
347.60	18.997
347.81	16.708
348.02	18.275
348.22	13.057
348.43	18.192
348.64	13.198
348.84	17.220
349.05	17.534
349.26	21.944
349.47	12.459
349.67	13.890
349.88	17.974
350.09	18.892
350.30	19.310
350.50	18.740
350.71	18.296
350.92	17.387
351.12	14.671
351.33	18.640
351.54	15.360
351.74	19.895
351.95	14.564
352.16	19.304
352.37	18.299
352.57	16.333
352.78	15.704
352.99	17.266
353.19	15.904
353.40	14.278
353.61	19.405
353.82	19.318
354.02	17.007
354.23	18.191
354.44	18.432
354.64	19.718
354.85	15.573
355.06	19.634
355.26	12.965
355.47	16.368
355.68	19.162
355.88	21.065
356.09	17.995
356.30	15.694
356.51	18.182
356.71	16.674
356.92	13.811
357.13	18.628
357.33	20.300
357.54	16.755
357.75	15.159
357.95	19.663
358.16	16.117
358.37	24.618
358.57	14.784
358.78	23.238
358.99	17.365
359.19	16.197
359.40	18.714
359.61	19.154
359.81	19.791
360.02	23.445
360.23	12.610
360.43	19.198
360.64	16.296
360.85	18.791
361.05	15.297
361.26	22.109
361.47	16.417
361.67	21.510
361.88	12.741
362.09	22.958
362.29	16.327
362.50	17.200
362.70	16.504
362.91	21.021
363.12	16.852
363.32	18.122
363.53	20.451
363.74	22.376
363.94	14.204
364.15	22.120
364.36	16.487
364.56	17.455
364.77	20.723
364.98	20.220
365.18	17.651
365.39	20.536
365.59	15.606
365.80	16.490
366.01	17.853
366.21	16.660
366.42	13.831
366.63	18.672
366.83	14.183
367.04	11.754
367.24	19.311
367.45	15.336
367.66	14.456
367.86	17.011
368.07	16.093
368.28	14.753
368.48	15.609
368.69	12.457
368.89	14.173
369.10	15.804
369.31	12.634
369.51	15.288
369.72	17.784
369.92	19.222
370.13	10.905
370.34	15.539
370.54	9.698
370.75	15.397
370.95	11.978
371.16	16.369
371.37	13.805
371.57	13.132
371.78	14.418
371.98	18.421
372.19	15.662
372.40	19.036
372.60	16.522
372.81	16.909
373.01	11.226
373.22	14.359
373.43	16.809
373.63	19.196
373.84	13.405
374.04	14.410
374.25	15.768
374.46	16.722
374.66	14.480
374.87	13.374
375.07	10.801
375.28	13.540
375.48	13.174
375.69	17.000
375.90	11.857
376.10	12.858
376.31	13.602
376.51	12.312
376.72	12.284
376.92	12.133
377.13	15.060
377.34	16.946
377.54	12.997
377.75	15.414
377.95	13.491
378.16	16.526
378.36	14.805
378.57	17.484
378.77	15.674
378.98	15.433
379.19	13.054
379.39	12.854
379.60	13.818
379.80	15.526
380.01	15.885
380.21	12.046
380.42	14.886
380.62	13.801
380.83	15.943
381.04	14.341
381.24	12.974
381.45	13.944
381.65	10.679
381.86	15.965
382.06	15.367
382.27	10.613
382.47	12.415
382.68	16.241
382.88	10.178
383.09	10.667
383.29	12.577
383.50	15.735
383.71	13.094
383.91	14.024
384.12	9.500
384.32	13.982
384.53	10.409
384.73	10.562
384.94	10.240
385.14	11.969
385.35	10.144
385.55	12.982
385.76	11.220
385.96	12.764
386.17	12.426
386.37	12.843
386.58	10.455
386.78	13.751
386.99	9.776
387.19	14.011
387.40	8.331
387.60	14.735
387.81	12.115
388.01	12.232
388.22	13.888
388.42	15.180
388.63	14.282
388.83	16.418
389.04	8.030
389.24	14.053
389.45	10.186
389.65	9.266
389.86	11.260
390.06	10.912
390.27	10.215
390.47	10.798
390.68	10.443
390.88	14.186
391.09	12.942
391.29	12.500
391.50	12.667
391.70	13.126
391.91	10.772
392.11	11.620
392.32	12.394
392.52	14.618
392.73	12.234
392.93	13.454
393.14	10.600
393.34	12.743
393.55	12.144
393.75	10.565
393.95	10.109
394.16	13.535
394.36	13.467
394.57	14.289
394.77	11.963
394.98	11.263
395.18	11.966
395.39	11.897
395.59	11.577
395.80	11.718
396.00	11.704
396.21	14.748
396.41	8.862
396.61	13.478
396.82	11.634
397.02	15.663
397.23	11.421
397.43	12.257
397.64	7.873
397.84	14.624
398.05	9.320
398.25	12.360
398.45	11.634
398.66	14.096
398.86	12.593
399.07	14.180
399.27	10.762
399.48	13.048
399.68	10.158
399.89	10.440
400.09	11.836
400.29	9.945
400.50	11.269
400.70	13.622
400.91	9.537
401.11	11.218
401.32	9.815
401.52	8.497
401.72	9.154
401.93	14.499
402.13	11.453
402.34	10.866
402.54	9.466
402.75	13.393
402.95	7.145
403.15	13.077
403.36	7.165
403.56	10.700
403.77	8.814
403.97	9.709
404.17	8.622
404.38	11.974
404.58	9.071
404.79	11.451
404.99	10.521
405.19	11.144
405.40	10.721
405.60	12.918
405.81	10.399
406.01	10.466
406.21	11.374
406.42	11.493
406.62	11.074
406.83	12.481
407.03	12.046
407.23	8.546
407.44	9.871
407.64	13.200
407.85	11.496
408.05	10.892
408.25	9.966
408.46	12.209
408.66	10.750
408.87	8.792
409.07	10.615
409.27	7.710
409.48	9.577
409.68	11.050
409.88	7.241
410.09	11.560
410.29	10.448
410.50	11.889
410.70	7.376
410.90	10.140
411.11	8.595
411.31	10.099
411.51	11.596
411.72	11.897
411.92	8.161
412.12	9.316
412.33	7.768
412.53	9.719
412.74	6.812
412.94	8.390
413.14	9.197
413.35	10.332
413.55	8.186
413.75	11.746
413.96	7.924
414.16	10.207
414.36	9.691
414.57	9.007
414.77	8.525
414.97	9.401
415.18	9.638
415.38	10.536
415.58	9.274
415.79	8.428
415.99	9.387
416.19	11.165
416.40	9.825
416.60	10.024
416.80	7.997
417.01	10.734
417.21	8.675
417.41	11.812
417.62	10.752
417.82	10.411
418.02	8.895
418.23	11.113
418.43	9.400
418.63	11.859
418.84	11.199
419.04	11.522
419.24	12.262
419.45	13.499
419.65	12.437
419.85	12.840
420.06	11.811
420.26	12.423
420.46	12.925
420.67	13.453
420.87	12.604
421.07	12.729
421.28	11.844
421.48	14.043
421.68	12.442
421.88	14.186
422.09	13.219
422.29	13.004
422.49	12.161
422.70	13.321
422.90	12.720
423.10	13.414
423.31	12.190
423.51	13.738
423.71	11.731
423.91	14.346
424.12	13.292
424.32	13.062
424.52	13.296
424.73	13.619
424.93	13.194
425.13	13.157
425.33	12.378
425.54	13.735
425.74	13.323
425.94	13.710
426.15	13.425
426.35	13.111
426.55	13.341
426.75	13.734
426.96	12.966
427.16	12.531
427.36	12.445
427.57	13.200
427.77	11.875
427.97	13.094
428.17	12.029
428.38	13.610
428.58	9.855
428.78	11.541
428.98	9.960
429.19	10.005
429.39	8.003
429.59	11.134
429.79	8.533
430.00	8.739
430.20	8.148
430.40	10.498
430.60	10.341
430.81	11.090
431.01	9.400
431.21	11.404
431.41	8.852
431.62	11.588
431.82	10.793
432.02	12.001
432.22	8.813
432.43	9.297
432.63	8.225
432.83	10.094
433.03	11.149
433.24	10.848
433.44	9.738
433.64	11.168
433.84	10.735
434.05	12.712
434.25	10.644
434.45	11.879
434.65	11.754
434.85	13.148
435.06	12.174
435.26	11.871
435.46	11.931
435.66	11.743
435.87	11.084
436.07	11.172
436.27	11.054
436.47	10.947
436.67	10.185
436.88	12.720
437.08	10.743
437.28	11.686
437.48	10.779
437.69	12.370
437.89	10.169
438.09	12.649
438.29	10.303
438.49	12.702
438.70	11.612
438.90	10.939
439.10	10.854
439.30	12.282
439.50	10.117
439.71	12.330
439.91	11.697
440.11	12.418
440.31	12.296
440.51	12.513
440.72	11.285
440.92	13.010
441.12	11.665
441.32	13.407
441.52	12.934
441.72	13.884
441.93	12.219
442.13	13.650
442.33	12.418
442.53	14.077
442.73	12.326
442.94	13.363
443.14	11.148
443.34	13.885
443.54	13.453
443.74	13.886
443.94	12.442
444.15	12.479
444.35	11.770
444.55	12.519
444.75	11.869
444.95	12.885
445.15	11.898
445.36	13.209
445.56	12.044
445.76	13.049
445.96	12.469
446.16	12.970
446.36	12.146
446.57	13.869
446.77	11.984
446.97	13.653
447.17	14.604
447.37	13.732
447.57	13.352
447.77	14.029
447.98	13.092
448.18	14.251
448.38	13.300
448.58	13.913
448.78	14.077
448.98	13.835
449.18	13.955
449.39	13.663
449.59	13.333
449.79	14.131
449.99	12.434
450.19	14.945
450.39	12.535
450.59	14.781
450.79	12.948
451.00	14.217
451.20	14.674
451.40	14.187
451.60	12.641
451.80	14.782
452.00	12.006
452.20	13.706
452.40	13.616
452.61	13.376
452.81	13.767
453.01	14.192
453.21	12.853
453.41	14.479
453.61	13.701
453.81	14.142
454.01	14.295
454.21	15.124
454.42	15.476
454.62	16.638
454.82	13.831
455.02	14.801
455.22	14.288
455.42	14.707
455.62	12.284
455.82	14.886
456.02	15.161
456.23	16.208
456.43	13.976
456.63	15.277
456.83	13.683
457.03	16.369
457.23	14.471
457.43	16.517
457.63	14.395
457.83	15.596
458.03	14.071
458.23	16.973
458.43	15.199
458.64	16.808
458.84	15.491
459.04	16.908
459.24	15.910
459.44	16.086
459.64	16.107
459.84	16.534
460.04	16.187
460.24	16.733
460.44	16.515
460.64	16.194
460.84	15.892
461.04	15.796
461.24	16.143
461.45	16.761
461.65	16.829
461.85	17.068
462.05	16.804
462.25	17.666
462.45	17.934
462.65	18.174
462.85	17.512
463.05	17.738
463.25	17.602
463.45	17.703
463.65	18.690
463.85	17.957
464.05	18.260
464.25	18.018
464.45	18.618
464.65	18.731
464.85	17.309
465.05	19.004
465.26	18.345
465.46	18.904
465.66	18.831
465.86	20.131
466.06	19.143
466.26	19.066
466.46	17.565
466.66	18.755
466.86	19.695
467.06	19.690
467.26	18.304
467.46	19.025
467.66	19.333
467.86	20.134
468.06	19.463
468.26	19.635
468.46	19.348
468.66	19.045
468.86	18.845
469.06	19.803
469.26	18.942
469.46	19.410
469.66	19.096
469.86	20.193
470.06	20.472
470.26	20.762
470.46	19.744
470.66	21.136
470.86	20.715
471.06	21.265
471.26	19.169
471.46	19.867
471.66	20.269
471.86	21.394
472.06	20.663
472.26	21.086
472.46	21.726
472.66	21.404
472.86	20.763
473.06	21.978
473.26	20.253
473.46	20.818
473.66	20.432
473.86	22.065
474.06	20.859
474.26	20.533
474.46	20.966
474.66	21.985
474.86	21.215
475.06	21.893
475.26	21.121
475.46	22.288
475.66	20.949
475.86	22.706
476.06	21.748
476.26	22.112
476.46	20.877
476.66	22.253
476.86	20.024
477.06	21.662
477.26	20.807
477.46	22.296
477.65	21.305
477.85	21.973
478.05	20.731
478.25	21.848
478.45	21.358
478.65	21.375
478.85	20.871
479.05	21.812
479.25	20.641
479.45	22.003
479.65	20.795
479.85	21.275
480.05	20.533
480.25	21.255
480.45	21.533
480.65	21.667
480.85	21.363
481.05	21.088
481.25	21.956
481.44	20.768
481.64	21.188
481.84	20.535
482.04	19.815
482.24	20.074
482.44	19.713
482.64	19.870
482.84	19.736
483.04	19.204
483.24	19.137
483.44	18.340
483.64	17.406
483.84	16.354
484.04	17.025
484.23	16.479
484.43	16.947
484.63	16.677
484.83	16.625
485.03	16.747
485.23	16.966
485.43	16.907
485.63	17.258
485.83	17.470
486.03	17.710
486.23	17.793
486.42	17.985
486.62	17.588
486.82	18.361
487.02	17.538
487.22	18.280
487.42	17.590
487.62	17.320
487.82	17.250
488.02	17.504
488.22	16.903
488.41	17.390
488.61	16.768
488.81	17.477
489.01	17.384
489.21	17.606
489.41	17.643
489.61	17.912
489.81	17.592
490.01	18.153
490.20	18.471
490.40	19.420
490.60	18.430
490.80	19.114
491.00	19.244
491.20	19.465
491.40	18.370
491.60	18.472
491.79	17.635
491.99	17.596
492.19	17.742
492.39	17.770
492.59	17.315
492.79	17.811
492.99	17.966
493.19	18.356
493.38	18.003
493.58	18.539
493.78	18.736
493.98	18.788
494.18	19.623
494.38	19.692
494.58	19.970
494.77	19.799
494.97	20.820
495.17	20.654
495.37	20.653
495.57	20.948
495.77	20.709
495.96	21.285
496.16	20.940
496.36	21.072
496.56	21.360
496.76	19.984
496.96	20.741
497.15	20.448
497.35	20.467
497.55	19.944
497.75	20.214
497.95	20.044
498.15	19.711
498.34	19.605
498.54	20.058
498.74	20.300
498.94	19.757
499.14	19.705
499.34	20.231
499.53	19.936
499.73	20.310
499.93	20.861
500.13	20.141
500.33	20.372
500.52	20.598
500.72	20.421
500.92	20.614
501.12	20.257
501.32	21.298
501.52	21.041
501.71	21.039
501.91	20.415
502.11	21.472
502.31	20.578
502.51	21.217
502.70	20.574
502.90	20.663
503.10	20.590
503.30	21.157
503.50	21.466
503.69	20.729
503.89	20.678
504.09	20.907
504.29	20.187
504.48	21.112
504.68	20.779
504.88	20.267
505.08	20.320
505.28	20.669
505.47	20.022
505.67	20.466
505.87	20.739
506.07	20.617
506.27	18.758
506.46	20.384
506.66	20.691
506.86	20.890
507.06	20.354
507.25	19.930
507.45	20.268
507.65	20.633
507.85	19.825
508.04	19.791
508.24	19.222
508.44	19.697
508.64	19.300
508.83	19.146
509.03	19.670
509.23	18.900
509.43	18.919
509.63	19.461
509.82	19.198
510.02	19.136
510.22	18.675
510.42	19.523
510.61	18.421
510.81	18.852
511.01	19.189
511.21	19.412
511.40	18.989
511.60	19.897
511.80	19.419
511.99	19.229
512.19	18.454
512.39	18.948
512.59	18.738
512.78	19.530
512.98	19.565
513.18	18.163
513.38	18.688
513.57	19.149
513.77	18.927
513.97	18.519
514.17	19.405
514.36	19.884
514.56	18.841
514.76	19.882
514.95	19.146
515.15	19.357
515.35	18.845
515.55	19.676
515.74	18.904
515.94	19.434
516.14	18.896
516.33	19.136
516.53	19.107
516.73	20.007
516.93	19.146
517.12	18.509
517.32	17.958
517.52	18.892
517.71	18.243
517.91	18.376
518.11	17.672
518.30	19.036
518.50	16.688
518.70	17.700
518.90	17.446
519.09	17.721
519.29	18.123
519.49	17.714
519.68	17.526
519.88	17.612
520.08	17.461
520.27	17.834
520.47	17.914
520.67	18.269
520.86	17.926
521.06	17.976
521.26	17.132
521.45	18.099
521.65	17.500
521.85	18.042
522.04	17.646
522.24	18.327
522.44	17.851
522.63	17.588
522.83	17.975
523.03	17.957
523.22	17.910
523.42	18.264
523.62	18.473
523.81	17.994
524.01	18.312
524.21	18.551
524.40	17.597
524.60	18.099
524.80	17.500
524.99	17.291
525.19	17.226
525.39	17.467
525.58	16.768
525.78	17.032
525.98	16.751
526.17	16.898
526.37	17.324
526.57	16.800
526.76	16.755
526.96	16.596
527.15	16.695
527.35	16.675
527.55	16.370
527.74	16.572
527.94	16.304
528.14	15.967
528.33	15.982
528.53	15.690
528.72	15.388
528.92	15.174
529.12	15.397
529.31	15.359
529.51	15.847
529.71	15.620
529.90	15.847
530.10	15.506
530.29	16.180
530.49	15.617
530.69	16.372
530.88	16.421
531.08	16.078
531.28	16.051
531.47	16.517
531.67	16.258
531.86	16.649
532.06	16.404
532.26	16.239
532.45	15.837
532.65	16.615
532.84	15.548
533.04	16.022
533.24	15.933
533.43	15.679
533.63	16.051
533.82	16.175
534.02	15.856
534.22	16.029
534.41	15.593
534.61	16.091
534.80	15.421
535.00	15.676
535.19	16.241
535.39	16.278
535.59	16.383
535.78	16.583
535.98	15.997
536.17	15.979
536.37	15.960
536.57	16.750
536.76	16.339
536.96	16.185
537.15	15.939
537.35	16.000
537.54	16.683
537.74	16.401
537.93	16.695
538.13	16.321
538.33	16.337
538.52	16.401
538.72	16.377
538.91	16.172
539.11	16.595
539.30	16.378
539.50	16.891
539.70	15.893
539.89	16.964
540.09	16.458
540.28	16.874
540.48	15.485
540.67	16.739
540.87	15.789
541.06	15.907
541.26	15.347
541.45	15.732
541.65	15.852
541.85	15.692
542.04	15.586
542.24	15.610
542.43	15.619
542.63	16.143
542.82	15.654
543.02	15.619
543.21	16.081
543.41	16.148
543.60	16.570
543.80	16.009
543.99	16.085
544.19	16.191
544.38	16.451
544.58	15.967
544.77	16.377
544.97	16.512
545.16	16.531
545.36	16.616
545.56	16.984
545.75	16.692
545.95	16.261
546.14	16.703
546.34	16.345
546.53	16.286
546.73	16.680
546.92	15.748
547.12	16.067
547.31	16.120
547.51	15.687
547.70	16.901
547.90	16.475
548.09	16.237
548.29	16.458
548.48	16.620
548.68	16.760
548.87	17.429
549.07	16.707
549.26	16.686
549.46	16.679
549.65	16.929
549.84	16.295
550.04	17.509
550.23	15.815
550.43	16.849
550.62	16.508
550.82	16.034
551.01	15.242
551.21	16.631
551.40	16.019
551.60	16.722
551.79	16.039
551.99	15.929
552.18	14.670
552.38	17.166
552.57	16.358
552.77	16.642
552.96	15.904
553.16	17.464
553.35	16.375
553.54	17.138
553.74	16.641
553.93	17.574
554.13	17.390
554.32	16.946
554.52	17.201
554.71	17.163
554.91	16.510
555.10	16.861
555.29	14.934
555.49	17.218
555.68	15.900
555.88	17.666
556.07	15.815
556.27	17.502
556.46	17.037
556.66	17.221
556.85	16.283
557.04	16.482
557.24	17.097
557.43	17.065
557.63	17.006
557.82	16.808
558.02	16.353
558.21	17.650
558.40	16.318
558.60	18.247
558.79	16.169
558.99	17.645
559.18	16.388
559.38	17.393
559.57	16.797
559.76	17.663
559.96	17.569
560.15	17.977
560.35	16.369
560.54	17.089
560.73	15.784
560.93	17.878
561.12	16.270
561.32	18.333
561.51	16.969
561.70	17.283
561.90	16.130
562.09	18.292
562.29	16.742
562.48	18.722
562.67	16.815
562.87	17.848
563.06	16.773
563.26	18.010
563.45	17.707
563.64	18.769
563.84	18.221
564.03	19.173
564.23	17.691
564.42	19.496
564.61	17.500
564.81	18.547
565.00	18.756
565.20	19.597
565.39	18.435
565.58	19.417
565.78	17.633
565.97	18.618
566.16	18.739
566.36	20.008
566.55	18.195
566.74	19.642
566.94	18.731
567.13	19.512
567.33	18.956
567.52	20.236
567.71	18.971
567.91	18.989
568.10	19.928
568.29	19.773
568.49	19.036
568.68	20.053
568.87	19.495
569.07	19.408
569.26	20.084
569.45	19.561
569.65	19.510
569.84	20.159
570.04	19.528
570.23	19.214
570.42	18.685
570.62	20.563
570.81	19.476
571.00	19.913
571.20	19.713
571.39	20.553
571.58	20.400
571.78	20.996
571.97	19.732
572.16	20.407
572.36	20.509
572.55	20.860
572.74	20.592
572.94	19.586
573.13	20.831
573.32	20.773
573.51	19.943
573.71	21.589
573.90	19.795
574.09	20.377
574.29	21.124
574.48	20.199
574.67	20.086
574.87	20.167
575.06	20.558
575.25	20.685
575.45	20.795
575.64	21.478
575.83	20.010
576.03	21.266
576.22	20.892
576.41	20.737
576.60	20.649
576.80	20.999
576.99	20.650
577.18	21.261
577.38	20.354
577.57	20.915
577.76	20.617
577.95	20.640
578.15	19.814
578.34	21.359
578.53	20.507
578.73	20.681
578.92	20.779
579.11	21.727
579.30	20.771
579.50	21.063
579.69	21.380
579.88	20.767
580.08	19.723
580.27	21.389
580.46	21.467
580.65	21.243
580.85	19.630
581.04	20.179
581.23	20.521
581.42	21.337
581.62	20.583
581.81	20.898
582.00	20.048
582.19	20.720
582.39	20.618
582.58	20.612
582.77	20.371
582.96	20.802
583.16	18.975
583.35	21.040
583.54	20.707
583.73	20.202
583.93	19.767
584.12	20.569
584.31	19.182
584.50	20.787
584.70	19.775
584.89	20.457
585.08	19.803
585.27	20.554
585.47	18.732
585.66	21.059
585.85	18.806
586.04	20.011
586.24	19.348
586.43	19.769
586.62	18.615
586.81	20.731
587.00	17.826
587.20	20.071
587.39	18.933
587.58	21.615
587.77	20.163
587.97	18.566
588.16	19.521
588.35	20.158
588.54	18.180
588.73	18.979
588.93	20.831
589.12	19.751
589.31	19.026
589.50	19.616
589.69	19.962
589.89	19.744
590.08	19.072
590.27	19.061
590.46	19.333
590.65	19.893
590.85	19.606
591.04	19.438
591.23	19.323
591.42	20.812
591.61	18.862
591.81	19.926
592.00	18.968
592.19	20.348
592.38	16.860
592.57	19.942
592.77	19.216
592.96	18.396
593.15	20.033
593.34	20.275
593.53	18.206
593.72	19.864
593.92	17.706
594.11	20.809
594.30	18.514
594.49	19.817
594.68	19.104
594.87	19.043
595.07	18.456
595.26	20.081
595.45	18.690
595.64	20.234
595.83	18.910
596.02	20.609
596.22	18.443
596.41	20.673
596.60	19.457
596.79	20.046
596.98	19.865
597.17	20.736
597.37	19.064
597.56	20.663
597.75	19.284
597.94	21.459
598.13	20.022
598.32	20.853
598.51	19.881
598.71	21.130
598.90	19.904
599.09	19.831
599.28	19.059
599.47	19.809
599.66	19.663
599.85	20.608
600.05	18.145
600.24	20.529
600.43	19.159
600.62	20.829
600.81	19.617
601.00	20.239
601.19	16.460
601.38	20.050
601.58	19.606
601.77	19.952
601.96	18.483
602.15	21.266
602.34	19.602
602.53	20.837
602.72	18.405
602.91	21.007
603.10	18.122
603.30	19.714
603.49	18.866
603.68	20.870
603.87	18.270
604.06	19.596
604.25	20.363
604.44	20.805
604.63	19.313
604.82	21.263
605.01	20.679
605.21	20.834
605.40	20.716
605.59	21.468
605.78	20.825
605.97	22.142
606.16	20.134
606.35	21.312
606.54	20.193
606.73	21.788
606.92	19.623
607.11	20.451
607.30	19.127
607.50	19.969
607.69	18.720
607.88	20.215
608.07	17.713
608.26	19.060
608.45	21.084
608.64	21.596
608.83	18.310
609.02	21.215
609.21	19.101
609.40	20.759
609.59	17.693
609.78	20.776
609.97	19.820
610.16	21.418
610.35	19.559
610.55	20.425
610.74	20.086
610.93	20.296
611.12	20.605
611.31	20.949
611.50	19.432
611.69	20.247
611.88	18.805
612.07	21.187
612.26	17.835
612.45	19.003
612.64	18.140
612.83	18.600
613.02	16.353
613.21	17.948
613.40	17.428
613.59	18.509
613.78	15.423
613.97	18.087
614.16	16.607
614.35	17.548
614.54	15.107
614.73	18.698
614.92	15.874
615.11	18.548
615.30	16.796
615.49	16.459
615.68	15.010
615.87	16.845
616.07	15.270
616.26	16.814
616.45	16.097
616.64	16.751
616.83	15.734
617.02	17.046
617.21	14.292
617.40	15.707
617.59	15.719
617.78	17.823
617.97	15.860
618.16	15.571
618.35	13.000
618.54	15.269
618.73	14.534
618.92	16.192
619.11	14.584
619.30	17.249
619.49	13.740
619.68	16.409
619.86	14.674
620.05	17.358
620.24	13.924
620.43	15.859
620.62	11.456
620.81	15.526
621.00	15.926
621.19	17.628
621.38	15.401
621.57	16.018
621.76	16.033
621.95	16.975
622.14	15.469
622.33	17.775
622.52	13.928
622.71	15.927
622.90	14.227
623.09	15.455
623.28	14.805
623.47	16.429
623.66	15.887
623.85	14.856
624.04	13.456
624.23	15.372
624.42	14.320
624.61	14.326
624.80	12.880
624.99	15.276
625.18	13.107
625.36	14.840
625.55	16.640
625.74	14.671
625.93	12.629
626.12	15.406
626.31	16.022
626.50	16.060
626.69	13.969
626.88	18.044
627.07	16.755
627.26	16.391
627.45	15.216
627.64	17.175
627.83	15.061
628.02	17.601
628.20	16.244
628.39	16.933
628.58	15.001
628.77	18.271
628.96	14.713
629.15	15.163
629.34	14.746
629.53	14.309
629.72	12.335
629.91	18.323
630.10	14.803
630.29	14.289
630.47	12.873
630.66	13.589
630.85	14.431
631.04	15.846
631.23	14.404
631.42	14.568
631.61	14.560
631.80	17.962
631.99	15.370
632.18	14.654
632.36	12.792
632.55	16.375
632.74	12.629
632.93	13.796
633.12	13.862
633.31	14.126
633.50	13.847
633.69	14.706
633.88	12.887
634.06	15.952
634.25	13.947
634.44	13.505
634.63	14.540
634.82	16.070
635.01	12.273
635.20	15.451
635.39	12.976
635.57	15.834
635.76	13.983
635.95	13.989
636.14	11.754
636.33	15.786
636.52	13.381
636.71	14.286
636.89	14.180
637.08	15.093
637.27	13.199
637.46	12.136
637.65	13.342
637.84	13.709
638.03	11.701
638.21	15.480
638.40	12.519
638.59	12.859
638.78	10.632
638.97	14.611
639.16	15.993
639.34	14.860
639.53	10.507
639.72	13.830
639.91	11.851
640.10	12.086
640.29	14.258
640.47	16.258
640.66	13.135
640.85	16.067
641.04	9.903
641.23	13.758
641.42	12.948
641.60	12.970
641.79	12.408
641.98	12.243
642.17	12.387
642.36	14.269
642.54	11.143
642.73	12.511
642.92	10.420
643.11	10.935
643.30	10.868
643.49	12.511
643.67	8.107
643.86	12.709
644.05	10.501
644.24	13.942
644.43	12.893
644.61	13.824
644.80	10.317
644.99	11.795
645.18	13.520
645.37	11.658
645.55	11.805
645.74	12.386
645.93	12.026
646.12	14.294
646.31	10.672
646.49	11.504
646.68	12.018
646.87	12.076
647.06	11.071
647.24	12.449
647.43	9.211
647.62	13.700
647.81	8.985
648.00	12.541
648.18	10.130
648.37	13.871
648.56	11.506
648.75	10.863
648.93	10.909
649.12	12.010
649.31	10.158
649.50	12.238
649.68	10.497
649.87	11.321
650.06	9.043
650.25	10.947
650.43	11.244
650.62	11.157
650.81	11.615
651.00	10.979
651.18	10.235
651.37	14.647
651.56	10.694
651.75	12.662
651.93	10.669
652.12	12.614
652.31	9.410
652.50	11.370
652.68	12.108
652.87	13.539
653.06	11.919
653.25	14.353
653.43	11.699
653.62	11.223
653.81	9.713
654.00	13.910
654.18	9.899
654.37	14.033
654.56	10.165
654.74	10.324
654.93	10.437
655.12	9.648
655.31	9.576
655.49	12.832
655.68	9.076
655.87	10.167
656.05	8.405
656.24	9.369
656.43	7.898
656.62	11.212
656.80	10.948
656.99	8.807
657.18	7.056
657.36	10.770
657.55	11.429
657.74	10.880
657.93	12.629
658.11	12.792
658.30	10.774
658.49	10.286
658.67	9.317
658.86	9.773
659.05	9.625
659.23	11.401
659.42	11.497
659.61	12.481
659.79	9.840
659.98	11.783
660.17	11.324
660.35	12.146
660.54	11.793
660.73	14.756
660.91	12.399
661.10	13.599
661.29	9.129
661.47	11.518
661.66	10.506
661.85	12.860
662.03	10.040
662.22	6.686
662.41	7.879
662.59	10.427
662.78	7.986
662.97	7.671
663.15	6.576
663.34	9.184
663.53	7.289
663.71	8.532
663.90	7.778
664.09	10.708
664.27	8.501
664.46	8.526
664.65	7.133
664.83	8.452
665.02	8.000
665.21	8.061
665.39	6.064
665.58	8.711
665.77	8.007
665.95	8.040
666.14	5.740
666.32	8.355
666.51	8.253
666.70	6.911
666.88	7.194
667.07	8.256
667.26	7.592
667.44	7.842
667.63	7.040
667.81	7.185
668.00	8.288
668.19	10.433
668.37	8.738
668.56	10.590
668.75	6.775
668.93	10.314
669.12	7.255
669.30	9.499
669.49	7.845
669.68	8.485
669.86	8.988
670.05	7.871
670.23	7.502
670.42	6.437
670.61	8.856
670.79	8.906
670.98	8.168
671.16	9.097
671.35	9.328
671.54	7.579
671.72	6.257
671.91	8.541
672.09	7.029
672.28	12.339
672.46	10.410
672.65	10.606
672.84	9.520
673.02	10.004
673.21	6.118
673.39	7.098
673.58	9.874
673.77	9.358
673.95	7.847
674.14	9.747
674.32	6.557
674.51	12.064
674.69	8.519
674.88	9.264
675.07	9.756
675.25	14.195
675.44	7.827
675.62	9.567
675.81	7.794
675.99	14.884
676.18	12.531
676.36	8.552
676.55	5.325
676.74	11.321
676.92	10.405
677.11	11.359
677.29	9.219
677.48	10.193
677.66	11.574
677.85	8.905
678.03	9.773
678.22	10.628
678.40	9.426
678.59	7.752
678.78	8.523
678.96	9.884
679.15	7.882
679.33	11.703
679.52	11.869
679.70	11.708
679.89	10.512
680.07	10.706
680.26	9.297
680.44	11.147
680.63	10.217
680.81	9.829
681.00	7.251
681.18	9.951
681.37	10.577
681.55	13.344
681.74	13.440
681.92	12.968
682.11	11.792
682.29	11.787
682.48	9.919
682.66	12.513
682.85	8.815
683.03	11.477
683.22	13.183
683.40	13.937
683.59	11.052
683.77	11.168
683.96	9.269
684.14	13.213
684.33	6.565
684.51	13.878
684.70	11.243
684.88	13.525
685.07	10.186
685.25	13.103
685.44	8.980
685.62	14.143
685.81	10.990
685.99	13.219
686.18	7.825
686.36	11.667
686.55	9.677
686.73	11.250
686.92	12.624
687.10	14.552
687.29	14.506
687.47	12.752
687.65	13.566
687.84	9.883
688.02	15.758
688.21	15.391
688.39	12.217
688.58	15.646
688.76	13.610
688.95	14.982
689.13	10.381
689.32	13.508
689.50	14.047
689.68	12.369
689.87	11.267
690.05	15.743
690.24	14.708
690.42	14.578
690.61	15.002
690.79	15.754
690.98	12.562
691.16	15.769
691.34	8.892
691.53	14.111
691.71	12.949
691.90	14.111
692.08	12.062
692.27	17.965
692.45	17.249
692.63	15.273
692.82	18.236
693.00	16.326
693.19	14.515
693.37	16.181
693.56	14.594
693.74	19.713
693.92	15.674
694.11	17.452
694.29	16.477
694.48	19.120
694.66	17.800
694.84	19.379
695.03	16.437
695.21	21.727
695.40	20.306
695.58	22.948
695.76	15.837
695.95	19.896
696.13	16.183
696.32	21.277
696.50	27.416
696.68	21.755
696.87	15.873
697.05	23.193
697.24	21.578
697.42	24.716
697.60	21.581
697.79	24.017
697.97	24.095
698.16	29.981
698.34	23.628
698.52	28.576
698.71	24.288
698.89	28.454
699.07	27.449
699.26	30.031
699.44	29.422
699.63	31.535
699.81	27.033
699.99	30.565
700.18	26.898
700.36	30.514
700.54	30.487
700.73	29.807
700.91	30.901
701.09	31.211
701.28	28.475
701.46	32.260
701.64	25.834
701.83	31.424
702.01	27.507
702.20	35.424
702.38	29.785
702.56	30.441
702.75	27.753
702.93	29.281
703.11	27.120
703.30	31.397
703.48	32.900
703.66	35.538
703.85	31.025
704.03	32.262
704.21	31.779
704.40	34.755
704.58	29.642
704.76	33.315
704.95	30.687
705.13	35.053
705.31	30.578
705.50	33.476
705.68	30.702
705.86	37.362
706.04	32.831
706.23	35.906
706.41	33.911
706.59	32.427
706.78	31.709
706.96	36.602
707.14	34.519
707.33	38.250
707.51	37.161
707.69	38.061
707.88	34.153
708.06	36.324
708.24	37.345
708.42	38.046
708.61	32.299
708.79	34.731
708.97	37.369
709.16	37.607
709.34	35.026
709.52	36.378
709.71	32.989
709.89	37.687
710.07	31.869
710.25	36.270
710.44	33.457
710.62	37.379
710.80	38.148
710.98	42.455
711.17	40.542
711.35	37.433
711.53	35.976
711.72	38.850
711.90	40.966
712.08	37.399
712.26	37.916
712.45	40.774
712.63	39.534
712.81	44.936
712.99	38.663
713.18	42.407
713.36	36.990
713.54	38.803
713.72	36.387
713.91	36.335
714.09	37.987
714.27	38.545
714.45	38.814
714.64	41.858
714.82	37.454
715.00	40.907
715.18	39.400
715.37	43.100
715.55	37.449
715.73	41.960
715.91	39.710
716.10	40.720
716.28	38.681
716.46	40.104
716.64	35.823
716.83	41.010
717.01	38.282
717.19	41.068
717.37	38.701
717.55	41.318
717.74	41.467
717.92	40.234
718.10	38.055
718.28	41.726
718.47	37.493
718.65	40.701
718.83	35.382
719.01	41.350
719.19	36.947
719.38	40.344
719.56	34.345
719.74	40.986
719.92	29.781
720.10	38.535
720.29	35.719
720.47	40.424
720.65	35.266
720.83	38.997
721.01	36.268
721.20	38.851
721.38	36.027
721.56	41.428
721.74	37.648
721.92	40.859
722.11	37.690
722.29	41.274
722.47	37.233
722.65	40.934
722.83	41.070
723.01	38.098
723.20	39.074
723.38	39.861
723.56	39.229
723.74	41.469
723.92	38.333
724.10	42.128
724.29	35.790
724.47	42.000
724.65	37.279
724.83	41.215
725.01	36.947
725.19	45.150
725.38	38.961
725.56	44.610
725.74	40.438
725.92	44.429
726.10	38.620
726.28	42.402
726.46	42.086
726.65	40.493
726.83	39.499
727.01	43.986
727.19	42.119
727.37	45.903
727.55	38.478
727.73	40.331
727.92	39.375
728.10	46.051
728.28	38.546
728.46	41.891
728.64	42.308
728.82	44.730
729.00	40.952
729.19	44.521
729.37	41.512
729.55	42.484
729.73	37.938
729.91	49.682
730.09	45.244
730.27	44.416
730.45	42.255
730.63	44.430
730.82	41.775
731.00	44.098
731.18	41.224
731.36	44.952
731.54	39.239
731.72	45.691
731.90	43.937
732.08	46.410
732.26	42.267
732.45	46.523
732.63	43.351
732.81	47.365
732.99	43.660
733.17	49.012
733.35	43.790
733.53	43.746
733.71	43.218
733.89	47.658
734.07	45.483
734.25	50.687
734.44	46.082
734.62	47.453
734.80	44.700
734.98	51.215
735.16	47.779
735.34	49.183
735.52	46.252
735.70	46.914
735.88	47.710
736.06	48.625
736.24	52.416
736.42	51.408
736.60	50.313
736.78	54.079
736.97	42.252
737.15	49.382
737.33	47.490
737.51	48.133
737.69	50.123
737.87	48.720
738.05	51.340
738.23	53.286
738.41	50.317
738.59	50.579
738.77	54.125
738.95	55.546
739.13	51.362
739.31	53.307
739.49	53.270
739.67	51.771
739.85	46.883
740.03	47.541
740.21	49.418
740.39	48.246
740.57	49.230
740.75	50.994
740.93	47.050
741.11	50.914
741.30	51.660
741.48	51.513
741.66	46.572
741.84	50.914
742.02	50.000
742.20	51.510
742.38	48.562
742.56	50.789
742.74	50.947
742.92	51.975
743.10	51.589
743.28	57.681
743.46	56.929
743.64	48.794
743.82	51.222
744.00	53.314
744.18	51.734
744.36	50.489
744.54	53.360
744.72	56.139
744.90	50.380
745.08	50.290
745.26	55.122
745.44	55.179
745.62	47.936
745.80	56.966
745.98	53.853
746.16	50.938
746.34	55.233
746.52	52.152
746.70	51.619
746.87	61.641
747.05	52.979
747.23	51.943
747.41	55.106
747.59	58.452
747.77	48.795
747.95	60.659
748.13	51.293
748.31	52.767
748.49	57.028
748.67	56.496
748.85	52.268
749.03	57.200
749.21	55.479
749.39	58.074
749.57	50.390
749.75	56.012
749.93	53.213
750.11	53.661
750.29	51.189
750.47	52.056
750.65	48.878
750.83	61.845
751.01	48.442
751.18	60.535
751.36	52.675
751.54	53.198
751.72	52.448
751.90	47.868
752.08	49.553
752.26	57.200
752.44	51.889
752.62	55.050
752.80	51.232
752.98	58.890
753.16	51.400
753.34	51.838
753.52	53.717
753.69	54.485
753.87	50.048
754.05	56.575
754.23	54.620
754.41	55.000
754.59	50.936
754.77	54.755
754.95	55.266
755.13	57.307
755.31	51.619
755.49	55.556
755.66	51.964
755.84	50.678
756.02	47.468
756.20	60.377
756.38	52.818
756.56	51.503
756.74	52.689
756.92	57.739
757.10	52.821
757.28	57.387
757.45	57.672
757.63	57.143
757.81	50.296
757.99	59.190
758.17	57.676
758.35	55.750
758.53	52.688
758.71	49.950
758.88	52.015
759.06	53.680
759.24	47.373
759.42	48.824
759.60	47.652
759.78	49.198
759.96	40.196
760.13	47.809
760.31	39.957
760.49	41.772
760.67	32.392
760.85	43.499
761.03	34.708
761.21	36.277
761.38	30.687
761.56	38.340
761.74	30.916
761.92	45.243
762.10	28.052
762.28	39.908
762.46	29.352
762.63	39.158
762.81	39.093
762.99	40.609
763.17	27.971
763.35	37.946
763.53	36.066
763.70	40.773
763.88	39.918
764.06	37.841
764.24	36.982
764.42	38.167
764.60	37.582
764.77	41.752
764.95	37.211
765.13	42.643
765.31	40.277
765.49	41.293
765.66	41.460
765.84	41.830
766.02	44.395
766.20	41.512
766.38	39.267
766.56	52.806
766.73	46.459
766.91	45.844
767.09	46.057
767.27	45.559
767.45	47.225
767.62	51.471
767.80	49.366
767.98	53.625
768.16	49.429
768.33	59.333
768.51	51.368
768.69	58.648
768.87	50.442
769.05	44.393
769.22	50.165
769.40	57.692
769.58	51.677
769.76	61.172
769.94	55.854
770.11	55.808
770.29	51.119
770.47	58.057
770.65	53.390
770.82	58.556
771.00	59.173
771.18	57.317
771.36	50.781
771.53	47.229
771.71	55.921
771.89	60.000
772.07	51.366
772.25	62.845
772.42	52.756
772.60	66.226
772.78	47.170
772.96	59.387
773.13	54.533
773.31	55.914
773.49	53.556
773.67	56.049
773.84	55.331
774.02	50.370
774.20	49.343
774.37	50.626
774.55	50.072
774.73	54.829
774.91	54.325
775.08	52.822
775.26	52.193
775.44	59.078
775.62	57.526
775.79	48.637
775.97	52.308
776.15	57.813
776.32	52.234
776.50	59.380
776.68	53.546
776.86	55.124
777.03	56.487
777.21	55.573
777.39	55.152
777.56	61.189
777.74	55.120
777.92	52.434
778.10	52.412
778.27	63.101
778.45	54.186
778.63	59.084
778.80	52.548
778.98	55.207
779.16	56.281
779.34	51.234
779.51	60.123
779.69	61.424
779.87	52.842
780.04	56.056
780.22	48.676
780.40	54.391
780.57	57.257
780.75	45.391
780.93	53.375
781.10	65.202
781.28	56.837
781.46	50.356
781.63	48.430
781.81	55.828
781.99	51.974
782.16	52.152
782.34	46.465
782.52	51.691
782.69	52.395
782.87	55.912
783.05	60.914
783.22	59.286
783.40	50.789
783.58	61.525
783.75	56.357
783.93	59.543
784.11	53.427
784.28	62.976
784.46	55.379
784.64	58.929
784.81	53.763
784.99	60.870
785.17	62.330
785.34	56.406
785.52	59.810
785.69	53.791
785.87	53.445
786.05	58.036
786.22	61.132
786.40	56.387
786.58	58.725
786.75	57.116
786.93	58.627
787.11	54.720
787.28	58.419
787.46	58.303
787.63	53.725
787.81	62.295
787.99	56.239
788.16	59.672
788.34	48.875
788.51	53.917
788.69	50.580
788.87	49.701
789.04	44.461
789.22	52.975
789.39	49.423
789.57	50.450
789.75	42.314
789.92	50.147
790.10	48.350
790.27	47.857
790.45	48.183
790.63	50.239
790.80	47.573
790.98	52.465
791.15	47.516
791.33	51.223
791.51	48.560
791.68	58.528
791.86	51.826
792.03	50.426
792.21	49.449
792.39	51.773
792.56	47.120
792.74	56.522
792.91	52.593
793.09	53.251
793.26	55.975
793.44	51.803
793.62	50.000
793.79	50.298
793.97	59.454
794.14	52.031
794.32	53.213
794.49	53.641
794.67	49.593
794.84	40.461
795.02	55.766
795.20	51.229
795.37	55.600
795.55	49.367
795.72	52.239
795.90	58.674
796.07	49.802
796.25	51.718
796.42	51.049
796.60	46.411
796.77	46.085
796.95	52.622
797.13	49.565
797.30	64.875
797.48	40.527
797.65	43.178
797.83	49.201
798.00	49.813
798.18	47.978
798.35	55.517
798.53	56.311
798.70	42.301
798.88	58.532
799.05	50.624
799.23	46.812
799.40	43.416
799.58	44.870
799.75	52.007
799.93	40.535
800.10	59.398
800.28	38.716
800.45	55.734
800.63	36.882
800.80	55.935
800.98	58.790
801.15	54.874
801.33	48.837
801.50	42.652
801.68	50.435
801.85	53.089
802.03	46.493
802.20	54.343
802.38	51.311
802.55	55.809
802.73	53.179
802.90	43.030
803.08	48.713
803.25	49.900
803.43	53.074
803.60	56.733
803.78	42.240
803.95	48.918
804.13	52.481
804.30	49.441
804.48	47.162
804.65	46.966
804.83	43.260
805.00	42.826
805.17	51.386
805.35	50.092
805.52	42.566
805.70	55.394
805.87	54.962
806.05	46.185
806.22	50.208
806.40	41.777
806.57	56.202
806.75	52.869
806.92	46.502
807.09	54.105
807.27	49.592
807.44	54.813
807.62	36.502
807.79	53.645
807.97	42.800
808.14	45.530
808.31	45.614
808.49	51.300
808.66	59.259
808.84	47.686
809.01	47.356
809.19	46.009
809.36	58.038
809.53	58.581
809.71	58.333
809.88	58.730
810.06	51.641
810.23	50.780
810.41	53.040
810.58	62.379
810.75	42.368
810.93	38.356
811.10	41.703
811.28	36.854
811.45	48.371
811.62	51.662
811.80	43.216
811.97	56.281
812.15	45.558
812.32	46.335
812.49	53.808
812.67	49.403
812.84	42.067
813.02	57.407
813.19	46.973
813.36	49.724
813.54	45.088
813.71	50.258
813.89	46.891
814.06	48.872
814.23	38.235
814.41	42.677
814.58	53.444
814.75	44.414
814.93	54.455
815.10	52.785
815.28	52.239
815.45	44.965
815.62	46.552
815.80	40.351
815.97	43.500
816.14	40.584
816.32	50.646
816.49	36.939
816.66	34.667
816.84	35.991
817.01	38.877
817.18	40.209
817.36	51.414
817.53	49.029
817.71	44.987
817.88	43.056
818.05	43.792
818.23	40.389
818.40	35.200
818.57	44.191
818.75	33.053
818.92	46.617
819.09	33.501
819.27	44.750
819.44	43.705
819.61	40.647
819.79	35.570
819.96	35.616
820.13	38.956
820.31	35.026
820.48	47.251
820.65	36.881
820.82	36.723
821.00	45.111
821.17	32.887
821.34	33.801
821.52	37.622
821.69	35.679
821.86	33.407
822.04	35.701
822.21	36.801
822.38	35.239
822.56	33.069
822.73	39.807
822.90	32.990
823.07	36.762
823.25	35.132
823.42	38.268
823.59	37.363
823.77	39.467
823.94	39.178
824.11	37.737
824.29	36.463
824.46	39.825
824.63	38.868
824.80	39.872
824.98	36.780
825.15	39.444
825.32	34.579
825.49	37.296
825.67	35.740
825.84	36.243
826.01	35.500
826.19	38.333
826.36	32.685
826.53	37.355
826.70	29.761
826.88	34.882
827.05	33.208
827.22	32.577
827.39	34.918
827.57	31.414
827.74	28.243
827.91	38.034
828.08	28.471
828.26	40.508
828.43	30.950
828.60	37.431
828.77	36.667
828.95	36.036
829.12	30.008
829.29	32.582
829.46	31.714
829.64	26.752
829.81	28.490
829.98	36.443
830.15	35.243
830.32	36.483
830.50	23.837
830.67	37.086
830.84	35.507
831.01	39.823
831.19	37.222
831.36	31.474
831.53	39.238
831.70	42.529
831.87	28.814
832.05	47.196
832.22	36.444
832.39	30.496
832.56	37.731
832.74	42.627
832.91	30.673
833.08	59.402
833.25	45.074
833.42	23.800
833.60	33.636
833.77	28.125
833.94	33.067
834.11	29.893
834.28	35.025
834.45	29.319
834.63	36.419
834.80	32.802
834.97	37.275
835.14	30.033
835.31	26.962
835.49	30.760
835.66	33.875
835.83	29.193
836.00	33.836
836.17	36.815
836.34	37.482
836.52	26.227
836.69	36.264
836.86	31.835
837.03	37.100
837.20	33.148
837.37	39.764
837.55	36.875
837.72	35.763
837.89	44.444
838.06	42.286
838.23	45.833
838.40	54.819
838.58	30.259
838.75	39.274
838.92	51.703
839.09	49.141
839.26	51.485
839.43	55.973
839.60	51.351
839.78	74.026
839.95	46.594
840.12	43.345
840.29	51.525
840.46	53.988
840.63	63.950
840.80	49.515
840.98	55.769
841.15	45.313
841.32	48.182
841.49	37.255
841.66	37.975
841.83	47.516
842.00	52.824
842.17	51.420
842.34	44.595
842.52	64.333
842.69	44.407
842.86	50.388
843.03	62.731
843.20	40.230
843.37	56.089
843.54	41.199
843.71	52.679
843.88	77.778
844.06	79.600
844.23	59.048
844.40	68.000
844.57	72.376
844.74	81.707
844.91	67.633
845.08	87.500
845.25	76.329
845.42	68.280
845.59	45.789
845.76	73.846
845.94	82.673
846.11	86.986
846.28	81.548
846.45	101.685
846.62	84.416
846.79	63.014
846.96	58.642
847.13	88.953
847.30	70.345
847.47	41.727
847.64	87.597
847.81	79.661
847.98	68.342
848.15	97.810
848.32	92.453
848.50	92.216
848.67	37.356
848.84	91.096
849.01	64.804
849.18	75.773
849.35	100.000
849.52	50.000
849.69	70.199
849.86	70.748
850.03	90.299
850.20	82.456
850.37	77.311
850.54	69.832
850.71	70.199
850.88	54.190
851.05	122.034
851.22	75.843
851.39	105.405
851.56	85.714
851.73	85.535
851.90	51.553
852.07	115.789
852.24	84.868
852.41	66.667
852.58	119.014
852.75	124.138
852.92	69.268
853.09	97.656
853.26	87.302
853.43	118.868
853.60	43.820
853.77	96.203
853.94	94.161
854.11	71.329
854.28	80.000
854.45	60.156
854.62	77.157
854.79	81.699
854.96	92.800
855.13	98.246
855.30	148.980
855.47	137.931
855.64	93.985
855.81	74.731
855.98	79.365
856.15	100.000
856.32	57.233
856.49	88.372
856.66	79.720
856.83	90.909
857.00	68.627
857.17	106.923
857.34	65.263
857.51	112.230
857.68	74.595
857.85	67.045
858.02	74.074
858.19	79.279
858.36	72.727
858.53	77.419
858.70	49.701
858.87	77.215
859.04	80.645
859.21	62.162
859.38	104.386
859.55	97.761
859.72	118.391
859.89	90.647
860.05	99.099
860.22	76.963
860.39	105.357
860.56	56.489
860.73	99.187
860.90	71.560
861.07	66.447
861.24	72.368
861.41	115.741
861.58	60.417
861.75	85.185
861.92	95.395
862.09	97.778
862.26	78.632
862.43	121.782
862.59	110.294
862.76	91.608
862.93	119.101
863.10	84.762
863.27	100.000
863.44	87.356
863.61	75.182
863.78	88.000
863.95	79.085
864.12	82.184
864.29	100.855
864.45	112.069
864.62	69.492
864.79	98.450
864.96	82.927
865.13	50.450
865.30	92.547
865.47	90.854
865.64	54.676
865.81	61.069
865.97	93.333
866.14	88.435
866.31	83.333
866.48	68.212
866.65	73.077
866.82	91.772
866.99	104.274
867.16	63.158
867.33	67.742
867.49	61.728
867.66	101.031
867.83	54.331
868.00	76.027
868.17	92.562
868.34	95.614
868.51	86.667
868.67	108.228
868.84	70.833
869.01	72.000
869.18	92.199
869.35	71.318
869.52	80.952
869.69	76.027
869.85	92.523
870.02	50.000
870.19	129.661
870.36	101.379
870.53	55.714
870.70	88.050
870.86	48.000
871.03	60.494
871.20	66.055
871.37	120.690
871.54	72.297
871.71	76.429
871.87	81.132
872.04	64.000
872.21	95.652
872.38	84.553
872.55	101.235
872.72	125.000
872.88	93.855
873.05	125.287
873.22	89.116
873.39	113.265
873.56	73.373
873.72	65.294
873.89	77.019
874.06	61.194
874.23	116.949
874.40	19.000
874.56	65.263
874.73	70.732
874.90	72.881
875.07	85.000
875.24	74.534
875.40	87.395
875.57	129.358
875.74	100.800
875.91	64.220
876.08	100.870
876.24	104.651
876.41	133.600
876.58	91.489
876.75	93.617
876.92	77.206
877.08	71.324
877.25	69.565
877.42	103.906
877.59	83.673
877.75	74.667
877.92	51.786
878.09	76.042
878.26	59.880
878.42	46.875
878.59	94.783
878.76	76.316
878.93	93.284
879.09	37.374
879.26	46.341
879.43	87.568
879.60	46.154
879.76	57.386
879.93	45.556
880.10	51.333
880.27	48.447
880.43	59.218
880.60	32.420
880.77	36.364
880.94	26.866
881.10	29.499
881.27	46.885
881.44	30.028
881.61	32.960
881.77	32.314
881.94	24.852
882.11	27.465
882.28	20.388
882.44	25.482
882.61	27.989
882.78	31.078
882.94	27.950
883.11	28.900
883.28	22.518
883.45	29.856
883.61	23.992
883.78	25.206
883.95	30.634
884.11	27.586
884.28	30.541
>>>>>End Processed Spectral Data<<<<<
