SpectraSuite Data File
++++++++++++++++++++++++++++++++++++
Date: Sat Sep 21 04:12:58 EST 2019
User: sgrac
Dark Spectrum Present: Yes
Reference Spectrum Present: Yes
Number of Sampled Component Spectra: 1
Spectrometers: USB4E01596
Integration Time (usec): 100000 (USB4E01596)
Spectra Averaged: 1 (USB4E01596)
Boxcar Smoothing: 0 (USB4E01596)
Correct for Electrical Dark: No (USB4E01596)
Strobe/Lamp Enabled: Yes (USB4E01596)
Correct for Detector Non-linearity: No (USB4E01596)
Correct for Stray Light: No (USB4E01596)
Number of Pixels in Processed Spectrum: 3648
>>>>>Begin Processed Spectral Data<<<<<
178.44	-542.857
178.66	-542.857
178.87	-542.857
179.09	-257.143
179.30	-484.615
179.52	0.000
179.74	-2475.000
179.95	450.000
180.17	586.667
180.38	9100.000
180.60	0.000
180.82	908.333
181.03	-331.579
181.25	269.565
181.46	-219.355
181.68	458.333
181.89	8800.000
182.11	202.857
182.33	-193.333
182.54	-250.000
182.76	-5300.000
182.97	710.000
183.19	2325.000
183.40	275.862
183.62	-214.815
183.84	-388.889
184.05	413.043
184.27	608.333
184.48	1185.714
184.70	240.000
184.91	-580.000
185.13	188.889
185.34	-296.429
185.56	118.333
185.78	0.000
185.99	573.333
186.21	289.655
186.42	540.000
186.64	122.581
186.85	240.741
187.07	167.273
187.28	260.000
187.50	-173.333
187.72	1600.000
187.93	-8200.000
188.15	206.000
188.36	-123.529
188.58	-3800.000
188.79	172.727
189.01	255.556
189.22	1700.000
189.44	4500.000
189.65	276.667
189.87	1012.500
190.09	-1820.000
190.30	750.000
190.52	-3550.000
190.73	171.429
190.95	385.714
191.16	233.333
191.38	590.000
191.59	166.667
191.81	183.333
192.02	285.106
192.24	647.059
192.45	-1680.000
192.67	382.857
192.88	566.667
193.10	360.000
193.31	450.000
193.53	-12100.000
193.74	104.878
193.96	400.000
194.18	348.387
194.39	-300.000
194.61	352.632
194.82	371.429
195.04	328.571
195.25	4200.000
195.47	209.756
195.68	225.532
195.90	1060.000
196.11	200.000
196.33	238.298
196.54	-3633.333
196.76	421.429
196.97	-2533.333
197.19	446.429
197.40	305.882
197.62	235.938
197.83	118.919
198.05	-494.737
198.26	277.143
198.48	263.889
198.69	220.930
198.91	274.510
199.12	-257.143
199.34	-1620.000
199.55	6300.000
199.77	2400.000
199.98	308.000
200.20	122.535
200.41	485.714
200.63	-777.778
200.84	243.137
201.06	376.923
201.27	262.162
201.49	1300.000
201.70	255.556
201.91	171.739
202.13	169.565
202.34	222.642
202.56	-914.286
202.77	577.778
202.99	382.143
203.20	1800.000
203.42	1637.500
203.63	202.326
203.85	351.429
204.06	231.481
204.28	-1120.000
204.49	268.571
204.71	179.487
204.92	0.000
205.14	-542.857
205.35	338.889
205.56	-2100.000
205.78	414.286
205.99	950.000
206.21	-219.355
206.42	322.581
206.64	264.286
206.85	1425.000
207.07	-584.615
207.28	500.000
207.50	-431.579
207.71	171.795
207.93	270.455
208.14	576.471
208.35	394.737
208.57	-5000.000
208.78	938.462
209.00	450.000
209.21	-2750.000
209.43	265.517
209.64	170.588
209.86	700.000
210.07	0.000
210.28	-500.000
210.50	148.980
210.71	192.982
210.93	361.905
211.14	-244.444
211.36	-245.161
211.57	-328.571
211.78	-278.261
212.00	0.000
212.21	260.465
212.43	-345.455
212.64	206.897
212.86	-450.000
213.07	-122.727
213.29	292.105
213.50	8000.000
213.71	186.792
213.93	1485.714
214.14	203.030
214.36	9700.000
214.57	365.385
214.78	537.500
215.00	3200.000
215.21	227.778
215.43	300.000
215.64	261.538
215.86	294.286
216.07	7800.000
216.28	300.000
216.50	-771.429
216.71	-1760.000
216.93	197.872
217.14	300.000
217.35	355.556
217.57	350.000
217.78	1575.000
218.00	-460.000
218.21	394.737
218.42	-2266.667
218.64	735.294
218.85	-855.556
219.07	657.143
219.28	1725.000
219.49	132.895
219.71	1800.000
219.92	297.222
220.14	300.000
220.35	445.000
220.56	174.359
220.78	352.941
220.99	-6800.000
221.21	461.905
221.42	558.333
221.63	330.000
221.85	195.161
222.06	353.571
222.28	250.000
222.49	-4600.000
222.70	0.000
222.92	383.333
223.13	363.333
223.34	-1450.000
223.56	181.579
223.77	121.348
223.99	266.667
224.20	171.429
224.41	172.973
224.63	358.333
224.84	208.621
225.05	142.857
225.27	171.429
225.48	200.000
225.69	942.857
225.91	237.037
226.12	288.889
226.34	126.471
226.55	151.852
226.76	187.097
226.98	232.000
227.19	104.545
227.40	90.083
227.62	101.220
227.83	101.000
228.04	74.725
228.26	76.238
228.47	125.862
228.69	61.842
228.90	36.620
229.11	43.704
229.33	65.217
229.54	53.947
229.75	28.696
229.97	45.923
230.18	27.240
230.39	19.409
230.61	33.019
230.82	50.622
231.03	5.394
231.25	37.710
231.46	24.453
231.67	32.016
231.89	50.588
232.10	38.866
232.31	48.077
232.53	34.463
232.74	47.396
232.95	42.771
233.17	58.382
233.38	48.507
233.59	61.029
233.81	51.456
234.02	75.000
234.23	67.380
234.45	63.158
234.66	46.893
234.87	64.430
235.09	44.444
235.30	48.276
235.51	52.913
235.73	43.396
235.94	46.632
236.15	36.735
236.36	49.735
236.58	63.507
236.79	38.220
237.00	24.155
237.22	64.815
237.43	46.569
237.64	37.991
237.86	55.978
238.07	54.271
238.28	28.962
238.50	46.957
238.71	36.095
238.92	29.167
239.13	52.571
239.35	25.874
239.56	52.604
239.77	60.000
239.99	17.925
240.20	9.474
240.41	37.931
240.63	25.911
240.84	30.677
241.05	26.642
241.26	29.339
241.48	36.283
241.69	20.886
241.90	28.451
242.12	27.296
242.33	14.871
242.54	18.550
242.75	20.873
242.97	23.103
243.18	14.310
243.39	13.690
243.61	13.943
243.82	16.224
244.03	14.676
244.24	11.656
244.46	16.444
244.67	9.731
244.88	15.649
245.09	18.698
245.31	9.021
245.52	30.331
245.73	22.374
245.95	29.424
246.16	7.375
246.37	28.101
246.58	21.682
246.80	20.734
247.01	16.591
247.22	15.455
247.43	10.562
247.65	11.961
247.86	8.798
248.07	8.027
248.28	10.506
248.50	11.391
248.71	9.618
248.92	9.461
249.13	8.645
249.35	11.016
249.56	10.325
249.77	8.797
249.98	6.501
250.20	7.000
250.41	13.966
250.62	13.373
250.83	15.464
251.05	20.064
251.26	15.426
251.47	20.541
251.68	22.852
251.90	31.159
252.11	19.164
252.32	25.126
252.53	18.152
252.75	15.360
252.96	21.955
253.17	10.541
253.38	13.784
253.59	12.429
253.81	10.974
254.02	17.496
254.23	14.949
254.44	17.582
254.66	12.562
254.87	17.870
255.08	11.172
255.29	23.494
255.50	27.742
255.72	20.642
255.93	26.764
256.14	29.773
256.35	25.995
256.57	27.034
256.78	27.626
256.99	15.445
257.20	14.078
257.41	26.915
257.63	20.654
257.84	21.784
258.05	18.333
258.26	14.775
258.47	8.945
258.69	14.239
258.90	13.354
259.11	9.360
259.32	7.453
259.53	8.981
259.75	10.710
259.96	9.519
260.17	7.451
260.38	5.744
260.59	6.963
260.81	7.407
261.02	7.517
261.23	8.343
261.44	7.548
261.65	6.448
261.87	6.061
262.08	7.980
262.29	9.463
262.50	9.469
262.71	7.542
262.92	9.383
263.14	14.246
263.35	6.219
263.56	4.941
263.77	14.600
263.98	17.989
264.20	17.098
264.41	6.768
264.62	15.229
264.83	14.124
265.04	17.155
265.25	11.192
265.47	15.861
265.68	16.035
265.89	11.814
266.10	5.428
266.31	21.053
266.52	15.950
266.74	5.936
266.95	7.330
267.16	10.180
267.37	13.750
267.58	5.952
267.79	10.345
268.01	10.989
268.22	13.174
268.43	11.031
268.64	16.126
268.85	12.807
269.06	4.964
269.27	13.319
269.49	8.836
269.70	9.428
269.91	12.166
270.12	6.381
270.33	14.752
270.54	10.744
270.75	8.421
270.97	11.934
271.18	10.051
271.39	11.640
271.60	9.321
271.81	8.671
272.02	15.027
272.23	9.603
272.45	11.163
272.66	6.401
272.87	5.973
273.08	6.891
273.29	11.626
273.50	8.728
273.71	10.182
273.92	7.905
274.14	4.610
274.35	5.911
274.56	9.491
274.77	4.864
274.98	12.449
275.19	9.769
275.40	9.630
275.61	7.781
275.83	15.942
276.04	8.897
276.25	11.667
276.46	10.732
276.67	8.830
276.88	9.204
277.09	8.622
277.30	11.538
277.51	11.008
277.73	7.300
277.94	9.329
278.15	7.514
278.36	9.321
278.57	9.016
278.78	9.800
278.99	14.244
279.20	9.208
279.41	13.720
279.62	10.684
279.84	8.640
280.05	11.416
280.26	10.145
280.47	11.190
280.68	3.275
280.89	14.038
281.10	12.265
281.31	6.844
281.52	13.806
281.73	8.770
281.94	3.364
282.16	9.222
282.37	10.669
282.58	10.017
282.79	13.686
283.00	11.863
283.21	6.452
283.42	7.011
283.63	5.759
283.84	7.413
284.05	10.442
284.26	11.888
284.47	10.078
284.68	12.138
284.89	10.182
285.11	8.218
285.32	8.139
285.53	7.003
285.74	10.424
285.95	7.808
286.16	6.878
286.37	7.812
286.58	6.977
286.79	7.983
287.00	8.637
287.21	5.931
287.42	7.515
287.63	7.488
287.84	8.491
288.05	8.517
288.26	8.131
288.48	8.411
288.69	8.199
288.90	3.869
289.11	6.671
289.32	8.561
289.53	8.138
289.74	4.143
289.95	7.454
290.16	11.325
290.37	4.222
290.58	6.498
290.79	6.873
291.00	9.061
291.21	3.164
291.42	4.365
291.63	4.987
291.84	9.590
292.05	7.427
292.26	7.239
292.47	7.221
292.68	6.918
292.89	7.226
293.10	8.394
293.31	8.947
293.52	8.321
293.73	7.550
293.94	7.506
294.15	7.510
294.36	5.837
294.57	10.122
294.79	8.456
295.00	8.471
295.21	7.112
295.42	9.882
295.63	7.780
295.84	6.073
296.05	6.294
296.26	7.827
296.47	7.515
296.68	8.539
296.89	7.482
297.10	7.376
297.31	7.420
297.52	9.096
297.73	6.230
297.94	7.560
298.15	5.940
298.36	6.536
298.57	6.923
298.78	7.786
298.99	6.663
299.20	6.539
299.41	7.054
299.62	7.998
299.83	7.351
300.04	9.373
300.25	8.788
300.46	7.614
300.67	7.275
300.88	9.269
301.09	5.726
301.30	7.609
301.50	7.453
301.71	9.015
301.92	7.487
302.13	6.910
302.34	7.314
302.55	5.609
302.76	6.878
302.97	11.111
303.18	2.520
303.39	8.650
303.60	3.969
303.81	6.887
304.02	7.642
304.23	7.757
304.44	8.189
304.65	6.079
304.86	7.861
305.07	6.479
305.28	8.225
305.49	9.016
305.70	6.704
305.91	8.902
306.12	7.338
306.33	6.574
306.54	7.117
306.75	11.612
306.96	15.700
307.17	7.830
307.38	5.420
307.58	7.126
307.79	9.491
308.00	9.804
308.21	11.188
308.42	8.881
308.63	12.115
308.84	10.323
309.05	7.058
309.26	8.511
309.47	10.956
309.68	4.014
309.89	11.441
310.10	8.042
310.31	8.224
310.52	6.360
310.73	11.111
310.94	6.882
311.14	7.808
311.35	8.028
311.56	7.451
311.77	6.724
311.98	7.112
312.19	10.054
312.40	5.441
312.61	8.270
312.82	8.817
313.03	6.747
313.24	10.982
313.45	7.923
313.66	9.186
313.86	8.383
314.07	8.121
314.28	7.974
314.49	6.957
314.70	10.333
314.91	10.643
315.12	9.748
315.33	9.264
315.54	6.387
315.75	6.036
315.96	7.295
316.16	5.241
316.37	9.384
316.58	4.679
316.79	7.627
317.00	8.069
317.21	6.772
317.42	4.387
317.63	8.339
317.84	9.496
318.05	10.504
318.25	10.384
318.46	7.432
318.67	4.572
318.88	8.217
319.09	7.868
319.30	12.043
319.51	6.236
319.72	12.208
319.93	7.343
320.13	9.335
320.34	9.858
320.55	8.284
320.76	9.579
320.97	10.508
321.18	8.133
321.39	7.829
321.60	10.484
321.80	11.410
322.01	7.790
322.22	8.255
322.43	6.398
322.64	5.279
322.85	7.828
323.06	11.820
323.27	9.684
323.47	8.842
323.68	11.337
323.89	8.315
324.10	8.407
324.31	6.498
324.52	7.552
324.73	10.455
324.93	9.231
325.14	7.452
325.35	7.885
325.56	9.547
325.77	8.901
325.98	7.160
326.19	10.099
326.39	9.034
326.60	8.491
326.81	9.068
327.02	9.611
327.23	7.199
327.44	12.382
327.64	8.454
327.85	6.361
328.06	12.722
328.27	12.625
328.48	9.982
328.69	8.208
328.90	7.977
329.10	8.494
329.31	7.093
329.52	11.444
329.73	11.442
329.94	4.501
330.15	10.013
330.35	10.523
330.56	7.517
330.77	9.656
330.98	9.738
331.19	7.703
331.39	8.117
331.60	10.125
331.81	10.434
332.02	10.241
332.23	8.417
332.44	8.047
332.64	8.327
332.85	8.617
333.06	11.492
333.27	6.405
333.48	10.850
333.68	8.580
333.89	9.307
334.10	4.860
334.31	12.081
334.52	11.783
334.72	8.242
334.93	6.261
335.14	8.861
335.35	7.914
335.56	11.546
335.76	8.444
335.97	13.049
336.18	9.765
336.39	9.790
336.60	11.294
336.80	7.730
337.01	11.899
337.22	6.087
337.43	10.929
337.64	10.727
337.84	8.364
338.05	11.405
338.26	11.092
338.47	14.439
338.68	7.981
338.88	9.762
339.09	11.796
339.30	6.686
339.51	8.775
339.71	11.369
339.92	8.997
340.13	9.862
340.34	9.494
340.55	11.529
340.75	11.064
340.96	9.728
341.17	8.653
341.38	8.772
341.58	7.571
341.79	6.526
342.00	8.319
342.21	10.357
342.41	8.038
342.62	11.174
342.83	11.272
343.04	4.849
343.24	11.220
343.45	10.977
343.66	7.791
343.87	11.611
344.07	7.373
344.28	10.259
344.49	11.255
344.70	12.638
344.90	10.416
345.11	8.409
345.32	8.038
345.53	6.819
345.73	7.480
345.94	11.497
346.15	10.432
346.36	8.511
346.56	10.671
346.77	12.351
346.98	8.739
347.19	9.122
347.39	8.673
347.60	10.182
347.81	11.691
348.02	11.026
348.22	6.018
348.43	10.968
348.64	8.817
348.84	10.580
349.05	10.860
349.26	13.611
349.47	6.609
349.67	9.604
349.88	10.963
350.09	9.252
350.30	11.742
350.50	9.071
350.71	9.885
350.92	11.040
351.12	7.724
351.33	10.332
351.54	8.995
351.74	10.632
351.95	10.515
352.16	10.021
352.37	12.809
352.57	8.653
352.78	7.826
352.99	11.874
353.19	8.769
353.40	10.389
353.61	11.894
353.82	9.711
354.02	12.664
354.23	10.691
354.44	11.813
354.64	10.563
354.85	9.822
355.06	9.594
355.26	5.682
355.47	11.294
355.68	10.579
355.88	12.252
356.09	10.318
356.30	7.495
356.51	10.652
356.71	10.607
356.92	7.865
357.13	9.178
357.33	11.243
357.54	8.002
357.75	5.900
357.95	9.934
358.16	7.614
358.37	14.870
358.57	7.844
358.78	12.565
358.99	8.825
359.19	8.568
359.40	10.581
359.61	9.394
359.81	10.939
360.02	11.908
360.23	6.978
360.43	10.895
360.64	9.420
360.85	10.577
361.05	8.848
361.26	11.857
361.47	9.303
361.67	12.322
361.88	5.565
362.09	10.397
362.29	8.210
362.50	8.495
362.70	8.313
362.91	11.372
363.12	6.574
363.32	8.850
363.53	9.959
363.74	11.172
363.94	6.338
364.15	12.729
364.36	8.564
364.56	8.059
364.77	9.493
364.98	11.817
365.18	10.182
365.39	11.023
365.59	7.223
365.80	8.775
366.01	9.627
366.21	7.291
366.42	5.911
366.63	10.000
366.83	8.053
367.04	5.896
367.24	9.365
367.45	8.060
367.66	5.821
367.86	9.839
368.07	6.886
368.28	8.398
368.48	8.564
368.69	5.921
368.89	7.895
369.10	8.694
369.31	8.270
369.51	8.589
369.72	9.715
369.92	9.552
370.13	6.157
370.34	9.007
370.54	6.041
370.75	10.416
370.95	8.476
371.16	7.967
371.37	6.959
371.57	6.355
371.78	8.473
371.98	8.918
372.19	9.133
372.40	9.394
372.60	9.670
372.81	8.988
373.01	6.248
373.22	7.281
373.43	8.458
373.63	9.801
373.84	6.536
374.04	8.327
374.25	8.412
374.46	8.159
374.66	5.474
374.87	8.689
375.07	6.193
375.28	7.706
375.48	7.376
375.69	7.704
375.90	5.786
376.10	7.128
376.31	6.426
376.51	5.876
376.72	6.729
376.92	5.420
377.13	7.684
377.34	10.309
377.54	7.467
377.75	9.108
377.95	7.962
378.16	8.935
378.36	7.202
378.57	7.888
378.77	8.019
378.98	8.657
379.19	7.043
379.39	5.986
379.60	6.121
379.80	8.315
380.01	7.974
380.21	7.202
380.42	8.440
380.62	6.399
380.83	7.874
381.04	7.057
381.24	7.193
381.45	5.726
381.65	5.355
381.86	6.823
382.06	8.777
382.27	3.955
382.47	4.773
382.68	9.507
382.88	4.941
383.09	5.446
383.29	6.288
383.50	8.498
383.71	5.118
383.91	6.980
384.12	4.502
384.32	7.361
384.53	5.855
384.73	4.070
384.94	5.004
385.14	5.524
385.35	6.002
385.55	6.254
385.76	4.747
385.96	6.269
386.17	8.876
386.37	5.964
386.58	5.623
386.78	6.204
386.99	5.003
387.19	6.754
387.40	5.327
387.60	7.517
387.81	5.171
388.01	6.299
388.22	6.988
388.42	7.713
388.63	6.743
388.83	7.884
389.04	4.531
389.24	6.689
389.45	4.931
389.65	5.762
389.86	5.958
390.06	4.664
390.27	4.475
390.47	5.299
390.68	4.778
390.88	7.384
391.09	6.956
391.29	6.236
391.50	6.734
391.70	6.002
391.91	5.294
392.11	6.194
392.32	6.233
392.52	7.478
392.73	6.055
392.93	6.667
393.14	5.131
393.34	5.874
393.55	6.232
393.75	6.070
393.95	3.767
394.16	6.180
394.36	7.738
394.57	7.624
394.77	5.871
394.98	4.162
395.18	5.995
395.39	5.269
395.59	6.778
395.80	5.176
396.00	6.491
396.21	7.117
396.41	4.964
396.61	6.640
396.82	4.930
397.02	9.563
397.23	7.012
397.43	6.798
397.64	3.964
397.84	7.498
398.05	4.172
398.25	6.193
398.45	4.167
398.66	7.776
398.86	4.691
399.07	7.064
399.27	5.541
399.48	7.209
399.68	4.058
399.89	5.591
400.09	7.172
400.29	5.014
400.50	6.477
400.70	6.028
400.91	4.111
401.11	5.661
401.32	6.677
401.52	4.065
401.72	5.426
401.93	7.889
402.13	5.302
402.34	5.342
402.54	5.417
402.75	7.305
402.95	3.978
403.15	8.220
403.36	4.271
403.56	6.235
403.77	4.382
403.97	5.218
404.17	4.804
404.38	6.912
404.58	5.391
404.79	6.733
404.99	4.910
405.19	6.401
405.40	5.116
405.60	6.247
405.81	5.044
406.01	4.702
406.21	5.484
406.42	5.224
406.62	5.302
406.83	5.283
407.03	6.335
407.23	4.929
407.44	4.678
407.64	7.060
407.85	6.109
408.05	5.006
408.25	4.069
408.46	6.704
408.66	6.319
408.87	4.684
409.07	4.622
409.27	4.869
409.48	6.273
409.68	5.625
409.88	3.782
410.09	6.554
410.29	5.378
410.50	5.472
410.70	3.845
410.90	4.617
411.11	4.706
411.31	4.992
411.51	6.562
411.72	6.843
411.92	3.838
412.12	5.158
412.33	4.199
412.53	5.179
412.74	2.836
412.94	4.267
413.14	4.816
413.35	5.664
413.55	4.749
413.75	5.526
413.96	4.451
414.16	5.141
414.36	5.864
414.57	5.047
414.77	4.583
414.97	4.676
415.18	5.341
415.38	6.360
415.58	4.032
415.79	4.159
415.99	5.225
416.19	5.646
416.40	5.081
416.60	5.967
416.80	4.988
417.01	6.051
417.21	3.932
417.41	5.237
417.62	4.995
417.82	4.810
418.02	3.588
418.23	5.346
418.43	4.888
418.63	4.881
418.84	6.989
419.04	4.583
419.24	5.930
419.45	7.763
419.65	7.075
419.85	7.064
420.06	5.779
420.26	6.551
420.46	6.420
420.67	7.162
420.87	6.958
421.07	7.435
421.28	5.290
421.48	7.471
421.68	7.117
421.88	7.663
422.09	7.763
422.29	7.205
422.49	5.770
422.70	7.255
422.90	6.241
423.10	7.199
423.31	6.127
423.51	8.060
423.71	5.955
423.91	7.428
424.12	6.732
424.32	6.612
424.52	6.193
424.73	7.589
424.93	7.062
425.13	6.684
425.33	6.498
425.54	7.157
425.74	6.681
425.94	7.621
426.15	6.712
426.35	6.716
426.55	6.479
426.75	6.652
426.96	7.024
427.16	6.512
427.36	6.229
427.57	7.626
427.77	5.662
427.97	6.351
428.17	6.482
428.38	7.038
428.58	4.250
428.78	6.154
428.98	4.349
429.19	5.238
429.39	4.208
429.59	6.114
429.79	4.459
430.00	4.352
430.20	3.447
430.40	4.203
430.60	4.571
430.81	6.295
431.01	4.606
431.21	5.490
431.41	4.638
431.62	6.081
431.82	5.665
432.02	6.820
432.22	4.337
432.43	3.963
432.63	3.470
432.83	5.269
433.03	5.708
433.24	4.923
433.44	4.648
433.64	6.077
433.84	5.086
434.05	6.724
434.25	5.497
434.45	6.175
434.65	5.826
434.85	7.021
435.06	5.837
435.26	5.475
435.46	5.068
435.66	6.507
435.87	5.238
436.07	6.161
436.27	5.003
436.47	5.118
436.67	4.160
436.88	5.902
437.08	4.864
437.28	5.004
437.48	5.480
437.69	6.324
437.89	5.890
438.09	6.869
438.29	4.926
438.49	6.079
438.70	5.655
438.90	4.829
439.10	4.235
439.30	6.507
439.50	4.701
439.71	6.477
439.91	4.900
440.11	7.077
440.31	6.380
440.51	5.286
440.72	5.142
440.92	6.753
441.12	6.245
441.32	7.788
441.52	6.782
441.72	7.601
441.93	6.447
442.13	8.261
442.33	5.833
442.53	7.835
442.73	6.234
442.94	7.099
443.14	5.784
443.34	7.613
443.54	6.727
443.74	7.220
443.94	5.806
444.15	6.087
444.35	5.514
444.55	7.106
444.75	6.308
444.95	6.330
445.15	6.078
445.36	6.869
445.56	4.530
445.76	6.777
445.96	5.954
446.16	5.739
446.36	5.735
446.57	8.021
446.77	5.292
446.97	7.906
447.17	8.019
447.37	7.660
447.57	7.166
447.77	8.320
447.98	6.817
448.18	8.224
448.38	6.081
448.58	7.794
448.78	6.870
448.98	7.375
449.18	6.371
449.39	7.368
449.59	6.168
449.79	6.294
449.99	5.859
450.19	6.843
450.39	6.438
450.59	7.148
450.79	5.965
451.00	7.603
451.20	6.986
451.40	6.241
451.60	5.707
451.80	7.629
452.00	5.830
452.20	7.148
452.40	5.197
452.61	6.257
452.81	7.170
453.01	8.096
453.21	6.371
453.41	7.567
453.61	5.879
453.81	7.329
454.01	6.310
454.21	7.759
454.42	7.824
454.62	7.837
454.82	6.760
455.02	7.135
455.22	6.582
455.42	6.763
455.62	5.843
455.82	7.400
456.02	6.352
456.23	7.415
456.43	7.278
456.63	7.602
456.83	6.741
457.03	8.901
457.23	7.429
457.43	8.793
457.63	7.220
457.83	8.314
458.03	6.702
458.23	8.290
458.43	6.853
458.64	8.028
458.84	7.492
459.04	8.250
459.24	7.477
459.44	8.706
459.64	8.639
459.84	9.230
460.04	8.383
460.24	9.213
460.44	8.855
460.64	9.022
460.84	8.797
461.04	10.064
461.24	9.186
461.45	10.558
461.65	8.808
461.85	10.458
462.05	9.820
462.25	10.257
462.45	10.169
462.65	10.813
462.85	8.541
463.05	9.666
463.25	8.976
463.45	10.627
463.65	8.617
463.85	10.641
464.05	8.866
464.25	9.412
464.45	10.250
464.65	9.465
464.85	9.119
465.05	10.123
465.26	10.014
465.46	11.461
465.66	10.719
465.86	10.774
466.06	10.220
466.26	10.720
466.46	9.190
466.66	10.219
466.86	10.030
467.06	10.614
467.26	9.977
467.46	11.665
467.66	10.872
467.86	11.099
468.06	10.826
468.26	10.839
468.46	11.016
468.66	11.333
468.86	9.012
469.06	11.912
469.26	10.121
469.46	12.084
469.66	9.854
469.86	12.137
470.06	10.846
470.26	12.857
470.46	10.721
470.66	12.405
470.86	10.611
471.06	13.007
471.26	9.761
471.46	11.676
471.66	11.096
471.86	12.989
472.06	11.129
472.26	13.036
472.46	12.771
472.66	12.831
472.86	12.524
473.06	12.888
473.26	11.682
473.46	11.732
473.66	12.735
473.86	13.213
474.06	11.549
474.26	12.328
474.46	10.855
474.66	13.178
474.86	12.734
475.06	13.138
475.26	11.200
475.46	12.966
475.66	11.593
475.86	13.695
476.06	13.672
476.26	13.895
476.46	11.684
476.66	13.320
476.86	11.697
477.06	13.015
477.26	11.508
477.46	13.624
477.65	12.392
477.85	13.747
478.05	12.251
478.25	13.505
478.45	12.074
478.65	12.995
478.85	12.310
479.05	13.076
479.25	12.696
479.45	14.140
479.65	11.318
479.85	13.723
480.05	12.326
480.25	14.155
480.45	12.064
480.65	13.758
480.85	12.475
481.05	13.936
481.25	13.621
481.44	13.163
481.64	11.851
481.84	13.165
482.04	12.517
482.24	12.390
482.44	11.848
482.64	12.853
482.84	11.998
483.04	12.583
483.24	11.298
483.44	11.916
483.64	10.914
483.84	10.960
484.04	10.963
484.23	10.628
484.43	10.562
484.63	10.412
484.83	10.218
485.03	10.834
485.23	10.812
485.43	10.891
485.63	10.376
485.83	11.294
486.03	11.161
486.23	11.163
486.42	10.751
486.62	11.416
486.82	10.836
487.02	11.353
487.22	11.296
487.42	11.502
487.62	10.938
487.82	10.891
488.02	10.745
488.22	11.428
488.41	11.026
488.61	10.801
488.81	10.540
489.01	11.382
489.21	10.756
489.41	11.384
489.61	10.977
489.81	11.439
490.01	11.083
490.20	11.601
490.40	12.068
490.60	12.031
490.80	11.796
491.00	12.093
491.20	12.029
491.40	11.851
491.60	11.068
491.79	11.538
491.99	11.186
492.19	11.608
492.39	11.106
492.59	11.353
492.79	11.306
492.99	11.245
493.19	11.351
493.38	11.388
493.58	11.671
493.78	11.996
493.98	11.745
494.18	12.760
494.38	12.281
494.58	13.346
494.77	11.827
494.97	13.495
495.17	13.187
495.37	13.208
495.57	13.323
495.77	13.660
495.96	12.962
496.16	13.357
496.36	12.805
496.56	13.419
496.76	12.784
496.96	13.285
497.15	12.590
497.35	12.585
497.55	12.024
497.75	13.307
497.95	12.032
498.15	12.648
498.34	12.116
498.54	12.611
498.74	12.916
498.94	13.030
499.14	11.920
499.34	13.025
499.53	12.653
499.73	13.049
499.93	12.479
500.13	13.372
500.33	11.843
500.52	13.247
500.72	12.034
500.92	13.227
501.12	11.757
501.32	13.349
501.52	13.479
501.71	13.045
501.91	12.437
502.11	13.037
502.31	12.224
502.51	13.815
502.70	11.429
502.90	12.962
503.10	12.534
503.30	13.213
503.50	12.687
503.69	13.079
503.89	12.667
504.09	13.273
504.29	11.397
504.48	13.679
504.68	12.554
504.88	13.195
505.08	11.841
505.28	12.806
505.47	11.140
505.67	13.397
505.87	11.908
506.07	11.922
506.27	11.619
506.46	13.677
506.66	11.799
506.86	13.252
507.06	12.306
507.25	12.321
507.45	12.363
507.65	12.816
507.85	11.389
508.04	12.953
508.24	11.961
508.44	12.218
508.64	11.451
508.83	12.968
509.03	11.393
509.23	12.156
509.43	11.954
509.63	12.742
509.82	11.459
510.02	11.851
510.22	11.606
510.42	12.602
510.61	11.604
510.81	12.587
511.01	11.437
511.21	12.477
511.40	11.114
511.60	12.494
511.80	11.314
511.99	12.403
512.19	12.332
512.39	12.226
512.59	11.777
512.78	12.867
512.98	12.027
513.18	12.064
513.38	11.697
513.57	12.004
513.77	12.111
513.97	11.826
514.17	11.925
514.36	12.833
514.56	11.885
514.76	12.690
514.95	11.002
515.15	12.160
515.35	10.218
515.55	12.745
515.74	12.298
515.94	12.652
516.14	11.908
516.33	12.638
516.53	11.993
516.73	12.582
516.93	12.131
517.12	12.368
517.32	10.647
517.52	12.771
517.71	10.658
517.91	11.808
518.11	11.361
518.30	11.974
518.50	10.945
518.70	11.311
518.90	11.422
519.09	11.742
519.29	11.455
519.49	11.207
519.68	10.742
519.88	11.715
520.08	11.039
520.27	11.366
520.47	11.268
520.67	11.765
520.86	11.589
521.06	12.116
521.26	11.280
521.45	11.969
521.65	11.443
521.85	11.828
522.04	10.484
522.24	12.381
522.44	10.852
522.63	11.775
522.83	10.921
523.03	12.086
523.22	11.310
523.42	11.707
523.62	11.746
523.81	12.139
524.01	11.906
524.21	11.471
524.40	10.570
524.60	11.016
524.80	10.506
524.99	10.892
525.19	10.383
525.39	11.531
525.58	10.248
525.78	11.600
525.98	10.574
526.17	11.236
526.37	10.877
526.57	10.887
526.76	10.881
526.96	11.292
527.15	10.704
527.35	10.868
527.55	10.257
527.74	10.916
527.94	10.747
528.14	10.575
528.33	10.275
528.53	10.345
528.72	10.055
528.92	10.298
529.12	10.033
529.31	10.289
529.51	10.123
529.71	10.450
529.90	10.030
530.10	10.482
530.29	10.453
530.49	10.697
530.69	10.564
530.88	10.710
531.08	10.472
531.28	10.838
531.47	10.671
531.67	10.545
531.86	10.797
532.06	10.914
532.26	10.319
532.45	10.741
532.65	10.616
532.84	10.816
533.04	10.223
533.24	10.497
533.43	9.691
533.63	10.833
533.82	10.321
534.02	10.472
534.22	10.057
534.41	10.469
534.61	10.522
534.80	10.678
535.00	10.290
535.19	11.048
535.39	10.523
535.59	11.022
535.78	10.226
535.98	10.567
536.17	10.150
536.37	11.027
536.57	9.969
536.76	10.898
536.96	10.421
537.15	10.778
537.35	10.212
537.54	11.188
537.74	9.972
537.93	11.153
538.13	10.129
538.33	11.265
538.52	10.334
538.72	10.918
538.91	10.610
539.11	10.944
539.30	9.923
539.50	10.514
539.70	9.918
539.89	11.530
540.09	9.912
540.28	10.953
540.48	9.481
540.67	10.721
540.87	10.026
541.06	10.397
541.26	9.933
541.45	10.645
541.65	10.356
541.85	10.270
542.04	9.912
542.24	10.465
542.43	10.193
542.63	10.713
542.82	10.175
543.02	10.357
543.21	10.524
543.41	10.670
543.60	10.534
543.80	11.087
543.99	10.209
544.19	10.847
544.38	10.367
544.58	10.360
544.77	10.623
544.97	10.476
545.16	10.016
545.36	10.905
545.56	10.677
545.75	10.739
545.95	10.033
546.14	10.653
546.34	9.809
546.53	10.716
546.73	10.404
546.92	10.748
547.12	10.387
547.31	10.927
547.51	9.895
547.70	11.276
547.90	9.960
548.09	10.940
548.29	10.176
548.48	10.952
548.68	10.238
548.87	11.158
549.07	10.150
549.26	10.690
549.46	10.217
549.65	10.834
549.84	9.958
550.04	10.304
550.23	9.323
550.43	10.677
550.62	9.582
550.82	9.777
551.01	8.696
551.21	10.306
551.40	9.926
551.60	9.961
551.79	9.623
551.99	9.824
552.18	9.400
552.38	10.419
552.57	9.616
552.77	11.042
552.96	10.159
553.16	11.388
553.35	9.344
553.54	10.993
553.74	9.999
553.93	11.763
554.13	10.601
554.32	10.961
554.52	9.596
554.71	11.475
554.91	10.056
555.10	10.970
555.29	9.606
555.49	10.916
555.68	9.562
555.88	11.280
556.07	8.754
556.27	10.676
556.46	9.680
556.66	9.865
556.85	10.690
557.04	11.002
557.24	9.957
557.43	11.075
557.63	9.850
557.82	10.349
558.02	8.703
558.21	11.277
558.40	9.619
558.60	10.582
558.79	9.698
558.99	11.036
559.18	9.919
559.38	10.369
559.57	9.894
559.76	10.761
559.96	11.135
560.15	11.123
560.35	9.895
560.54	10.848
560.73	9.019
560.93	10.906
561.12	9.756
561.32	11.648
561.51	9.975
561.70	11.222
561.90	9.034
562.09	11.569
562.29	10.813
562.48	11.839
562.67	10.342
562.87	10.922
563.06	10.554
563.26	10.994
563.45	10.909
563.64	11.377
563.84	11.217
564.03	11.240
564.23	10.507
564.42	11.989
564.61	10.652
564.81	11.645
565.00	11.389
565.20	12.407
565.39	10.821
565.58	11.822
565.78	10.519
565.97	12.310
566.16	11.625
566.36	13.597
566.55	11.938
566.74	12.217
566.94	11.482
567.13	12.972
567.33	11.776
567.52	12.686
567.71	11.722
567.91	12.767
568.10	12.332
568.29	13.031
568.49	11.896
568.68	12.787
568.87	12.253
569.07	12.423
569.26	11.947
569.45	13.212
569.65	11.907
569.84	12.760
570.04	12.067
570.23	13.081
570.42	11.239
570.62	12.560
570.81	12.839
571.00	12.328
571.20	13.344
571.39	13.393
571.58	12.492
571.78	13.254
571.97	13.043
572.16	13.968
572.36	12.390
572.55	13.287
572.74	13.657
572.94	12.466
573.13	13.427
573.32	13.991
573.51	12.218
573.71	13.496
573.90	12.173
574.09	13.325
574.29	12.376
574.48	13.566
574.67	12.520
574.87	13.179
575.06	11.834
575.25	13.935
575.45	11.667
575.64	13.432
575.83	12.768
576.03	13.778
576.22	12.293
576.41	13.437
576.60	12.099
576.80	13.264
576.99	12.380
577.18	13.920
577.38	12.547
577.57	13.041
577.76	13.148
577.95	13.122
578.15	11.335
578.34	13.212
578.53	12.135
578.73	12.751
578.92	10.969
579.11	13.607
579.30	12.099
579.50	12.461
579.69	12.338
579.88	13.211
580.08	10.145
580.27	12.494
580.46	12.138
580.65	13.258
580.85	10.955
581.04	12.124
581.23	11.704
581.42	12.095
581.62	10.632
581.81	12.859
582.00	11.912
582.19	12.118
582.39	12.912
582.58	12.196
582.77	11.695
582.96	11.087
583.16	10.232
583.35	12.359
583.54	11.714
583.73	12.174
583.93	11.244
584.12	11.912
584.31	10.440
584.50	11.065
584.70	10.295
584.89	11.217
585.08	10.596
585.27	13.823
585.47	9.937
585.66	11.995
585.85	10.101
586.04	12.676
586.24	11.148
586.43	10.968
586.62	10.286
586.81	11.944
587.00	8.572
587.20	11.841
587.39	9.780
587.58	13.355
587.77	10.609
587.97	10.699
588.16	11.050
588.35	11.393
588.54	9.691
588.73	11.330
588.93	11.883
589.12	12.171
589.31	11.416
589.50	11.191
589.69	11.079
589.89	12.175
590.08	10.048
590.27	10.721
590.46	10.225
590.65	11.675
590.85	9.269
591.04	12.395
591.23	10.576
591.42	11.628
591.61	10.410
591.81	11.487
592.00	11.225
592.19	11.710
592.38	10.417
592.57	11.730
592.77	10.364
592.96	10.728
593.15	12.079
593.34	11.861
593.53	11.021
593.72	11.130
593.92	10.820
594.11	12.282
594.30	11.266
594.49	11.369
594.68	11.089
594.87	11.595
595.07	11.127
595.26	12.351
595.45	9.579
595.64	11.604
595.83	9.775
596.02	12.372
596.22	10.344
596.41	13.210
596.60	10.005
596.79	12.471
596.98	10.293
597.17	13.852
597.37	11.716
597.56	14.050
597.75	11.273
597.94	13.367
598.13	12.655
598.32	12.600
598.51	11.495
598.71	13.794
598.90	11.427
599.09	12.245
599.28	10.202
599.47	12.538
599.66	11.334
599.85	11.684
600.05	10.613
600.24	13.224
600.43	10.711
600.62	12.960
600.81	12.304
601.00	12.257
601.19	9.511
601.38	12.428
601.58	12.679
601.77	11.789
601.96	9.746
602.15	13.370
602.34	11.721
602.53	12.888
602.72	11.420
602.91	13.327
603.10	11.413
603.30	12.807
603.49	11.444
603.68	13.575
603.87	11.165
604.06	12.525
604.25	11.822
604.44	13.158
604.63	12.890
604.82	13.650
605.01	12.797
605.21	13.979
605.40	12.509
605.59	13.278
605.78	13.431
605.97	13.652
606.16	12.980
606.35	13.501
606.54	12.022
606.73	14.370
606.92	10.746
607.11	12.882
607.30	11.805
607.50	13.527
607.69	10.987
607.88	12.136
608.07	11.697
608.26	11.550
608.45	12.561
608.64	13.819
608.83	11.638
609.02	11.792
609.21	11.729
609.40	13.218
609.59	11.268
609.78	13.125
609.97	11.509
610.16	12.842
610.35	11.304
610.55	12.613
610.74	12.804
610.93	12.891
611.12	12.253
611.31	12.320
611.50	10.943
611.69	11.298
611.88	10.009
612.07	12.328
612.26	10.040
612.45	10.892
612.64	10.717
612.83	10.959
613.02	9.210
613.21	10.408
613.40	8.840
613.59	11.053
613.78	9.366
613.97	11.153
614.16	10.045
614.35	10.556
614.54	8.946
614.73	9.825
614.92	8.913
615.11	9.174
615.30	9.116
615.49	8.807
615.68	9.039
615.87	8.851
616.07	8.665
616.26	8.288
616.45	9.074
616.64	9.829
616.83	9.810
617.02	10.918
617.21	8.673
617.40	8.718
617.59	9.918
617.78	9.998
617.97	8.937
618.16	7.995
618.35	6.721
618.54	8.411
618.73	9.148
618.92	9.379
619.11	8.383
619.30	10.311
619.49	7.682
619.68	9.581
619.86	7.887
620.05	9.585
620.24	7.885
620.43	9.828
620.62	6.301
620.81	8.633
621.00	8.264
621.19	10.947
621.38	8.437
621.57	9.419
621.76	7.514
621.95	9.871
622.14	8.333
622.33	10.130
622.52	6.519
622.71	9.474
622.90	7.391
623.09	8.845
623.28	9.041
623.47	9.582
623.66	9.185
623.85	9.362
624.04	7.484
624.23	8.818
624.42	7.977
624.61	7.778
624.80	6.522
624.99	8.299
625.18	7.175
625.36	8.431
625.55	9.787
625.74	6.807
625.93	6.361
626.12	9.022
626.31	9.584
626.50	8.777
626.69	9.245
626.88	10.702
627.07	9.885
627.26	9.221
627.45	7.111
627.64	10.185
627.83	8.311
628.02	9.176
628.20	8.894
628.39	10.152
628.58	7.510
628.77	9.344
628.96	8.335
629.15	8.317
629.34	8.401
629.53	7.983
629.72	7.165
629.91	10.886
630.10	8.115
630.29	7.629
630.47	6.820
630.66	7.078
630.85	8.797
631.04	8.256
631.23	8.397
631.42	7.760
631.61	6.421
631.80	11.569
631.99	8.657
632.18	7.350
632.36	5.728
632.55	10.170
632.74	6.830
632.93	6.659
633.12	8.379
633.31	8.424
633.50	7.565
633.69	7.858
633.88	6.006
634.06	9.167
634.25	6.805
634.44	7.124
634.63	7.337
634.82	10.002
635.01	6.213
635.20	9.355
635.39	6.598
635.57	7.769
635.76	7.561
635.95	7.383
636.14	5.806
636.33	7.739
636.52	7.354
636.71	7.788
636.89	7.281
637.08	8.736
637.27	6.757
637.46	6.192
637.65	6.388
637.84	7.271
638.03	6.015
638.21	7.914
638.40	7.132
638.59	7.851
638.78	6.109
638.97	8.137
639.16	9.340
639.34	7.377
639.53	5.784
639.72	10.144
639.91	5.625
640.10	5.524
640.29	8.194
640.47	9.641
640.66	7.506
640.85	10.011
641.04	5.572
641.23	7.391
641.42	6.530
641.60	7.605
641.79	6.742
641.98	6.364
642.17	7.115
642.36	8.133
642.54	6.605
642.73	7.412
642.92	7.661
643.11	6.362
643.30	5.346
643.49	7.239
643.67	5.546
643.86	7.070
644.05	6.729
644.24	6.986
644.43	7.867
644.61	7.088
644.80	5.861
644.99	5.609
645.18	7.415
645.37	7.176
645.55	6.623
645.74	7.535
645.93	7.524
646.12	7.492
646.31	6.958
646.49	6.608
646.68	6.884
646.87	6.023
647.06	6.841
647.24	7.235
647.43	4.725
647.62	8.109
647.81	5.350
648.00	8.030
648.18	5.383
648.37	6.761
648.56	5.633
648.75	7.292
648.93	6.993
649.12	7.759
649.31	6.077
649.50	6.779
649.68	5.943
649.87	7.242
650.06	4.129
650.25	8.994
650.43	5.696
650.62	6.896
650.81	7.863
651.00	7.348
651.18	6.129
651.37	6.376
651.56	6.049
651.75	7.521
651.93	5.778
652.12	6.542
652.31	5.757
652.50	7.026
652.68	7.317
652.87	7.881
653.06	8.122
653.25	8.992
653.43	6.617
653.62	6.888
653.81	5.925
654.00	7.359
654.18	6.275
654.37	8.511
654.56	7.359
654.74	7.269
654.93	5.942
655.12	5.205
655.31	5.726
655.49	7.111
655.68	5.360
655.87	5.502
656.05	6.367
656.24	6.692
656.43	3.272
656.62	7.117
656.80	5.279
656.99	4.469
657.18	3.477
657.36	6.072
657.55	9.567
657.74	5.740
657.93	9.292
658.11	8.683
658.30	5.940
658.49	5.404
658.67	5.324
658.86	5.601
659.05	6.012
659.23	6.593
659.42	7.250
659.61	6.920
659.79	5.399
659.98	6.477
660.17	6.344
660.35	7.036
660.54	5.778
660.73	9.428
660.91	6.604
661.10	7.479
661.29	4.913
661.47	5.445
661.66	5.711
661.85	6.197
662.03	6.371
662.22	5.911
662.41	3.879
662.59	6.480
662.78	4.324
662.97	5.260
663.15	4.578
663.34	5.040
663.53	4.049
663.71	5.904
663.90	3.686
664.09	6.563
664.27	5.723
664.46	6.211
664.65	5.039
664.83	5.563
665.02	4.901
665.21	4.998
665.39	4.732
665.58	3.816
665.77	4.826
665.95	4.705
666.14	3.791
666.32	4.551
666.51	5.454
666.70	5.363
666.88	5.540
667.07	5.454
667.26	6.471
667.44	4.916
667.63	6.039
667.81	4.914
668.00	4.379
668.19	6.751
668.37	5.456
668.56	5.750
668.75	4.975
668.93	5.282
669.12	4.623
669.30	5.358
669.49	4.111
669.68	3.561
669.86	5.009
670.05	4.646
670.23	4.885
670.42	4.394
670.61	4.159
670.79	4.102
670.98	6.153
671.16	6.018
671.35	6.996
671.54	5.354
671.72	3.859
671.91	6.016
672.09	3.364
672.28	7.932
672.46	6.614
672.65	6.061
672.84	7.601
673.02	6.209
673.21	4.656
673.39	3.843
673.58	5.048
673.77	5.104
673.95	3.563
674.14	5.948
674.32	5.068
674.51	7.018
674.69	4.377
674.88	5.216
675.07	4.998
675.25	7.913
675.44	4.489
675.62	5.591
675.81	5.625
675.99	8.646
676.18	7.364
676.36	4.256
676.55	3.025
676.74	5.878
676.92	7.268
677.11	5.819
677.29	5.117
677.48	6.140
677.66	6.430
677.85	5.950
678.03	5.121
678.22	7.191
678.40	6.129
678.59	5.727
678.78	4.396
678.96	5.893
679.15	5.080
679.33	6.086
679.52	7.684
679.70	6.062
679.89	4.809
680.07	5.635
680.26	4.399
680.44	6.927
680.63	6.014
680.81	4.470
681.00	3.471
681.18	6.665
681.37	5.523
681.55	6.074
681.74	8.593
681.92	7.197
682.11	6.878
682.29	6.248
682.48	6.208
682.66	5.950
682.85	4.818
683.03	4.686
683.22	6.678
683.40	8.397
683.59	4.711
683.77	5.983
683.96	4.544
684.14	8.231
684.33	2.672
684.51	8.973
684.70	6.509
684.88	8.991
685.07	7.397
685.25	6.415
685.44	5.199
685.62	8.446
685.81	6.828
685.99	6.629
686.18	5.490
686.36	6.500
686.55	6.290
686.73	6.250
686.92	9.120
687.10	8.026
687.29	7.045
687.47	7.287
687.65	8.408
687.84	6.809
688.02	9.869
688.21	9.336
688.39	7.241
688.58	9.964
688.76	7.235
688.95	7.293
689.13	5.799
689.32	7.204
689.50	6.697
689.68	6.003
689.87	7.819
690.05	7.365
690.24	8.381
690.42	7.617
690.61	8.703
690.79	6.477
690.98	7.380
691.16	9.114
691.34	6.357
691.53	8.069
691.71	7.319
691.90	7.056
692.08	6.919
692.27	9.690
692.45	11.632
692.63	9.670
692.82	9.461
693.00	8.595
693.19	8.059
693.37	8.969
693.56	10.103
693.74	11.866
693.92	9.433
694.11	10.572
694.29	10.684
694.48	12.589
694.66	8.215
694.84	11.054
695.03	10.514
695.21	12.334
695.40	14.032
695.58	11.474
695.76	9.474
695.95	10.184
696.13	9.995
696.32	11.395
696.50	16.496
696.68	12.148
696.87	8.777
697.05	14.639
697.24	11.183
697.42	16.340
697.60	12.288
697.79	14.292
697.97	13.363
698.16	16.311
698.34	12.651
698.52	16.602
698.71	14.586
698.89	16.341
699.07	14.442
699.26	16.440
699.44	15.915
699.63	18.654
699.81	14.356
699.99	19.579
700.18	16.510
700.36	18.828
700.54	17.941
700.73	16.988
700.91	17.575
701.09	18.070
701.28	17.695
701.46	20.163
701.64	16.137
701.83	19.026
702.01	14.385
702.20	20.274
702.38	18.381
702.56	19.270
702.75	14.048
702.93	19.253
703.11	15.860
703.30	19.880
703.48	19.127
703.66	19.842
703.85	19.002
704.03	20.872
704.21	18.872
704.40	18.443
704.58	17.807
704.76	19.348
704.95	17.230
705.13	19.947
705.31	21.631
705.50	20.836
705.68	17.544
705.86	24.117
706.04	18.649
706.23	21.141
706.41	18.324
706.59	19.587
706.78	18.237
706.96	21.380
707.14	21.718
707.33	23.388
707.51	21.927
707.69	24.155
707.88	18.502
708.06	23.328
708.24	21.991
708.42	24.771
708.61	18.556
708.79	21.666
708.97	23.115
709.16	22.009
709.34	25.026
709.52	23.291
709.71	23.750
709.89	24.574
710.07	20.963
710.25	21.784
710.44	20.626
710.62	22.180
710.80	23.286
710.98	26.761
711.17	23.231
711.35	25.037
711.53	23.374
711.72	25.600
711.90	24.962
712.08	22.228
712.26	23.226
712.45	25.298
712.63	25.347
712.81	26.107
712.99	24.165
713.18	27.476
713.36	24.796
713.54	24.252
713.72	22.827
713.91	25.195
714.09	20.706
714.27	26.545
714.45	23.829
714.64	30.741
714.82	22.848
715.00	27.611
715.18	24.304
715.37	24.628
715.55	25.823
715.73	28.331
715.91	30.170
716.10	28.214
716.28	25.295
716.46	29.765
716.64	22.713
716.83	24.747
717.01	25.453
717.19	26.198
717.37	24.182
717.55	27.772
717.74	24.293
717.92	22.489
718.10	23.151
718.28	25.948
718.47	25.190
718.65	29.565
718.83	25.158
719.01	30.621
719.19	24.310
719.38	24.108
719.56	23.909
719.74	27.074
719.92	19.749
720.10	23.567
720.29	25.087
720.47	25.707
720.65	25.759
720.83	27.474
721.01	23.390
721.20	29.054
721.38	23.906
721.56	26.872
721.74	28.671
721.92	32.060
722.11	24.689
722.29	29.571
722.47	24.501
722.65	30.056
722.83	31.887
723.01	28.865
723.20	29.135
723.38	28.611
723.56	30.640
723.74	32.901
723.92	28.913
724.10	29.504
724.29	25.230
724.47	31.556
724.65	23.813
724.83	31.960
725.01	27.817
725.19	33.260
725.38	29.947
725.56	31.152
725.74	30.000
725.92	33.004
726.10	27.240
726.28	30.838
726.46	32.766
726.65	30.563
726.83	28.371
727.01	34.638
727.19	30.584
727.37	35.764
727.55	29.587
727.73	31.699
727.92	28.958
728.10	34.605
728.28	28.464
728.46	31.779
728.64	30.567
728.82	34.504
729.00	29.692
729.19	35.205
729.37	31.101
729.55	32.166
729.73	27.367
729.91	33.733
730.09	32.841
730.27	34.898
730.45	30.395
730.63	34.600
730.82	29.210
731.00	32.891
731.18	31.633
731.36	32.508
731.54	29.921
731.72	34.474
731.90	32.725
732.08	37.051
732.26	31.400
732.45	37.168
732.63	38.231
732.81	37.866
732.99	33.104
733.17	40.280
733.35	38.412
733.53	37.075
733.71	35.142
733.89	36.977
734.07	36.514
734.25	39.139
734.44	35.767
734.62	37.589
734.80	36.057
734.98	37.886
735.16	36.605
735.34	36.318
735.52	37.015
735.70	39.216
735.88	37.814
736.06	39.703
736.24	41.947
736.42	39.045
736.60	39.890
736.78	40.875
736.97	41.214
737.15	43.858
737.33	36.543
737.51	42.289
737.69	42.740
737.87	40.264
738.05	40.699
738.23	40.459
738.41	39.762
738.59	42.893
738.77	41.414
738.95	47.635
739.13	43.750
739.31	38.819
739.49	41.228
739.67	44.847
739.85	42.915
740.03	38.329
740.21	43.832
740.39	39.075
740.57	44.838
740.75	45.719
740.93	42.486
741.11	47.176
741.30	43.320
741.48	45.298
741.66	41.221
741.84	45.017
742.02	41.880
742.20	45.826
742.38	44.125
742.56	45.263
742.74	46.709
742.92	43.020
743.10	41.689
743.28	53.430
743.46	40.543
743.64	48.609
743.82	45.259
744.00	48.415
744.18	46.624
744.36	47.200
744.54	47.233
744.72	47.235
744.90	47.624
745.08	47.683
745.26	46.829
745.44	52.662
745.62	47.231
745.80	48.916
745.98	52.141
746.16	49.260
746.34	49.845
746.52	51.434
746.70	48.184
746.87	56.615
747.05	48.617
747.23	48.262
747.41	51.064
747.59	52.648
747.77	45.482
747.95	52.420
748.13	49.741
748.31	46.851
748.49	48.394
748.67	50.591
748.85	45.155
749.03	51.100
749.21	51.370
749.39	52.257
749.57	49.610
749.75	50.147
749.93	54.116
750.11	48.445
750.29	46.432
750.47	53.661
750.65	50.049
750.83	56.499
751.01	40.402
751.18	51.658
751.36	47.531
751.54	51.269
751.72	51.249
751.90	51.841
752.08	48.361
752.26	50.645
752.44	52.074
752.62	49.307
752.80	51.745
752.98	53.649
753.16	54.500
753.34	48.453
753.52	52.984
753.69	54.008
753.87	45.359
754.05	55.148
754.23	52.156
754.41	51.667
754.59	49.754
754.77	50.851
754.95	53.623
755.13	53.758
755.31	54.555
755.49	58.142
755.66	44.310
755.84	51.163
756.02	51.738
756.20	54.245
756.38	48.017
756.56	55.868
756.74	46.514
756.92	48.676
757.10	54.051
757.28	54.171
757.45	50.476
757.63	57.582
757.81	45.562
757.99	52.648
758.17	52.239
758.35	48.959
758.53	54.545
758.71	50.655
758.88	47.889
759.06	48.577
759.24	43.902
759.42	45.000
759.60	46.953
759.78	40.481
759.96	33.824
760.13	39.338
760.31	37.607
760.49	37.683
760.67	29.002
760.85	33.078
761.03	28.672
761.21	33.903
761.38	25.460
761.56	32.929
761.74	27.576
761.92	32.427
762.10	29.730
762.28	33.394
762.46	29.444
762.63	32.388
762.81	28.706
762.99	35.025
763.17	25.707
763.35	32.887
763.53	26.975
763.70	31.974
763.88	32.922
764.06	31.664
764.24	27.332
764.42	34.632
764.60	33.034
764.77	33.776
764.95	30.920
765.13	38.318
765.31	33.228
765.49	35.019
765.66	35.882
765.84	38.827
766.02	36.526
766.20	37.213
766.38	36.058
766.56	40.136
766.73	40.674
766.91	38.455
767.09	46.057
767.27	40.707
767.45	45.132
767.62	52.353
767.80	40.585
767.98	45.680
768.16	47.975
768.33	50.678
768.51	49.474
768.69	48.568
768.87	50.000
769.05	51.636
769.22	44.432
769.40	62.217
769.58	51.553
769.76	56.777
769.94	50.366
770.11	52.216
770.29	51.493
770.47	55.597
770.65	53.027
770.82	53.900
771.00	57.235
771.18	58.780
771.36	60.286
771.53	45.663
771.71	53.026
771.89	56.735
772.07	56.557
772.25	57.873
772.42	56.037
772.60	59.765
772.78	50.798
772.96	55.172
773.13	57.830
773.31	51.344
773.49	60.522
773.67	58.499
773.84	57.637
774.02	52.593
774.20	52.847
774.37	59.527
774.55	54.676
774.73	55.919
774.91	59.029
775.08	50.507
775.26	58.626
775.44	55.447
775.62	58.569
775.79	51.650
775.97	54.462
776.15	53.693
776.32	51.772
776.50	60.775
776.68	61.650
776.86	60.870
777.03	60.443
777.21	57.771
777.39	64.586
777.56	58.059
777.74	56.325
777.92	55.772
778.10	51.447
778.27	62.171
778.45	49.619
778.63	65.403
778.80	55.414
778.98	55.920
779.16	58.626
779.34	52.395
779.51	54.601
779.69	66.225
779.87	60.829
780.04	62.676
780.22	48.235
780.40	53.399
780.57	64.434
780.75	61.313
780.93	56.201
781.10	66.960
781.28	55.519
781.46	52.669
781.63	52.231
781.81	57.362
781.99	58.388
782.16	51.821
782.34	55.892
782.52	55.072
782.69	50.898
782.87	60.304
783.05	59.898
783.22	60.000
783.40	56.625
783.58	51.820
783.75	53.436
783.93	69.821
784.11	51.670
784.28	57.612
784.46	59.083
784.64	58.929
784.81	56.452
784.99	57.488
785.17	63.883
785.34	68.149
785.52	59.429
785.69	55.235
785.87	52.514
786.05	54.464
786.22	58.113
786.40	58.577
786.58	57.718
786.75	61.553
786.93	55.106
787.11	48.601
787.28	56.873
787.46	59.928
787.63	55.098
787.81	55.556
787.99	56.766
788.16	57.213
788.34	45.177
788.51	53.610
788.69	44.942
788.87	48.653
789.04	46.282
789.22	52.830
789.39	46.458
789.57	50.000
789.75	48.099
789.92	44.543
790.10	49.641
790.27	50.714
790.45	46.130
790.63	51.834
790.80	51.618
790.98	50.528
791.15	47.050
791.33	51.223
791.51	50.288
791.68	52.783
791.86	48.696
792.03	50.937
792.21	48.897
792.39	57.092
792.56	48.517
792.74	64.272
792.91	49.074
793.09	46.749
793.26	58.910
793.44	52.372
793.62	54.921
793.79	49.503
793.97	58.674
794.14	47.776
794.32	55.020
794.49	58.082
794.67	53.252
794.84	48.847
795.02	58.412
795.20	50.284
795.37	62.000
795.55	49.186
795.72	51.866
795.90	44.250
796.07	54.563
796.25	55.515
796.42	52.098
796.60	53.756
796.77	48.932
796.95	53.888
797.13	42.957
797.30	62.007
797.48	41.186
797.65	52.327
797.83	46.359
798.00	48.881
798.18	46.691
798.35	54.655
798.53	52.039
798.70	45.841
798.88	60.714
799.05	49.911
799.23	43.352
799.40	45.018
799.58	50.957
799.75	55.846
799.93	50.669
800.10	53.947
800.28	48.033
800.45	58.149
800.63	42.966
800.80	56.655
800.98	55.955
801.15	52.166
801.33	51.744
801.50	48.387
801.68	41.957
801.85	42.664
802.03	49.900
802.20	57.374
802.38	47.566
802.55	52.905
802.73	54.721
802.90	38.990
803.08	58.020
803.25	54.309
803.43	57.787
803.60	59.603
803.78	52.652
803.95	42.424
804.13	56.298
804.30	44.966
804.48	57.205
804.65	55.281
804.83	56.539
805.00	52.097
805.17	57.143
805.35	53.591
805.52	46.436
805.70	63.071
805.87	53.817
806.05	54.618
806.22	56.458
806.40	43.667
806.57	56.202
806.75	54.918
806.92	55.556
807.09	63.158
807.27	49.796
807.44	56.778
807.62	41.445
807.79	51.402
807.97	43.600
808.14	43.867
808.31	53.509
808.49	54.137
808.66	43.951
808.84	47.082
809.01	44.368
809.19	44.836
809.36	50.522
809.53	51.945
809.71	50.000
809.88	60.317
810.06	48.578
810.23	54.788
810.41	58.281
810.58	62.136
810.75	44.211
810.93	52.740
811.10	46.070
811.28	51.011
811.45	55.890
811.62	55.499
811.80	43.467
811.97	43.970
812.15	52.164
812.32	58.901
812.49	58.231
812.67	48.926
812.84	47.837
813.02	55.820
813.19	62.470
813.36	47.238
813.54	54.660
813.71	38.144
813.89	48.705
814.06	39.850
814.23	42.353
814.41	39.646
814.58	56.198
814.75	50.136
814.93	55.941
815.10	42.175
815.28	42.786
815.45	46.604
815.62	49.425
815.80	42.105
815.97	35.500
816.14	52.255
816.32	45.995
816.49	36.939
816.66	33.067
816.84	41.686
817.01	46.652
817.18	48.303
817.36	58.355
817.53	53.398
817.71	44.730
817.88	47.685
818.05	40.632
818.23	40.389
818.40	38.400
818.57	36.446
818.75	35.579
818.92	49.123
819.09	30.479
819.27	32.750
819.44	39.667
819.61	31.409
819.79	38.031
819.96	31.507
820.13	39.960
820.31	45.709
820.48	41.955
820.65	42.385
820.82	38.983
821.00	42.024
821.17	31.696
821.34	30.230
821.52	33.986
821.69	31.605
821.86	31.092
822.04	34.133
822.21	28.960
822.38	30.519
822.56	25.595
822.73	27.485
822.90	27.273
823.07	28.687
823.25	28.479
823.42	28.729
823.59	27.087
823.77	29.354
823.94	29.793
824.11	30.036
824.29	26.056
824.46	30.254
824.63	28.427
824.80	33.399
824.98	26.546
825.15	31.215
825.32	26.791
825.49	31.132
825.67	28.306
825.84	28.698
826.01	28.333
826.19	31.083
826.36	24.907
826.53	33.155
826.70	29.952
826.88	30.142
827.05	24.484
827.22	24.955
827.39	29.262
827.57	28.947
827.74	23.727
827.91	30.793
828.08	24.649
828.26	26.847
828.43	24.858
828.60	29.393
828.77	27.724
828.95	26.945
829.12	26.083
829.29	29.765
829.46	29.143
829.64	25.902
829.81	22.020
829.98	32.463
830.15	33.748
830.32	26.509
830.50	22.965
830.67	32.781
830.84	36.775
831.01	30.973
831.19	31.852
831.36	35.458
831.53	39.238
831.70	40.690
831.87	31.992
832.05	47.897
832.22	40.667
832.39	47.518
832.56	35.092
832.74	33.641
832.91	47.880
833.08	47.436
833.25	33.251
833.42	32.985
833.60	35.818
833.77	29.861
833.94	29.712
834.11	34.048
834.28	28.589
834.45	28.710
834.63	29.233
834.80	33.485
834.97	28.491
835.14	24.583
835.31	26.962
835.49	29.474
835.66	26.625
835.83	29.449
836.00	31.321
836.17	31.975
836.34	34.407
836.52	38.037
836.69	39.246
836.86	31.655
837.03	28.437
837.20	31.481
837.37	34.646
837.55	33.750
837.72	36.446
837.89	43.939
838.06	48.857
838.23	45.343
838.40	35.542
838.58	34.006
838.75	39.934
838.92	55.728
839.09	53.608
839.26	76.568
839.43	68.601
839.60	45.045
839.78	57.792
839.95	61.035
840.12	52.560
840.29	65.763
840.46	42.638
840.63	54.859
840.80	52.104
840.98	62.179
841.15	47.500
841.32	50.303
841.49	42.484
841.66	53.165
841.83	57.764
842.00	60.133
842.17	50.000
842.34	54.054
842.52	54.000
842.69	51.186
842.86	51.163
843.03	75.646
843.20	53.257
843.37	63.469
843.54	43.820
843.71	39.286
843.88	75.556
844.06	72.400
844.23	50.476
844.40	70.667
844.57	89.503
844.74	87.805
844.91	56.039
845.08	90.341
845.25	79.710
845.42	63.441
845.59	68.947
845.76	84.103
845.94	100.495
846.11	100.000
846.28	73.214
846.45	98.315
846.62	83.117
846.79	111.644
846.96	71.605
847.13	74.419
847.30	73.103
847.47	69.784
847.64	120.155
847.81	102.542
847.98	65.327
848.15	103.650
848.32	103.774
848.50	106.587
848.67	80.460
848.84	84.247
849.01	78.212
849.18	70.619
849.35	96.875
849.52	91.379
849.69	85.430
849.86	81.633
850.03	96.269
850.20	86.550
850.37	82.353
850.54	66.480
850.71	94.040
850.88	67.039
851.05	50.000
851.22	68.539
851.39	112.613
851.56	119.643
851.73	70.440
851.90	70.807
852.07	132.331
852.24	129.605
852.41	57.143
852.58	95.070
852.75	89.655
852.92	49.756
853.09	116.406
853.26	84.127
853.43	128.302
853.60	71.910
853.77	136.709
853.94	86.861
854.11	95.105
854.28	66.400
854.45	60.156
854.62	81.726
854.79	103.922
854.96	103.200
855.13	74.854
855.30	156.122
855.47	88.793
855.64	114.286
855.81	86.559
855.98	107.143
856.15	72.973
856.32	51.572
856.49	93.798
856.66	82.517
856.83	111.364
857.00	94.118
857.17	109.231
857.34	102.105
857.51	110.072
857.68	78.378
857.85	73.295
858.02	88.889
858.19	75.676
858.36	104.545
858.53	99.355
858.70	76.048
858.87	91.139
859.04	88.710
859.21	75.000
859.38	95.614
859.55	128.358
859.72	109.195
859.89	95.683
860.05	131.532
860.22	70.157
860.39	107.143
860.56	80.153
860.73	103.252
860.90	101.835
861.07	78.947
861.24	82.895
861.41	133.333
861.58	133.333
861.75	65.185
861.92	103.289
862.09	92.593
862.26	76.923
862.43	149.505
862.59	119.118
862.76	97.902
862.93	114.607
863.10	93.333
863.27	71.795
863.44	94.253
863.61	57.664
863.78	82.286
863.95	105.229
864.12	77.011
864.29	94.017
864.45	53.448
864.62	63.842
864.79	66.667
864.96	88.618
865.13	68.468
865.30	98.758
865.47	96.951
865.64	77.698
865.81	77.099
865.97	82.667
866.14	89.116
866.31	98.333
866.48	98.013
866.65	53.846
866.82	90.506
866.99	100.000
867.16	83.459
867.33	97.849
867.49	74.691
867.66	80.412
867.83	96.850
868.00	105.479
868.17	106.612
868.34	85.965
868.51	102.857
868.67	93.671
868.84	72.500
869.01	83.200
869.18	75.177
869.35	72.093
869.52	84.127
869.69	84.247
869.85	114.953
870.02	78.846
870.19	125.424
870.36	98.621
870.53	72.857
870.70	67.925
870.86	85.000
871.03	87.654
871.20	79.817
871.37	108.621
871.54	75.000
871.71	77.143
871.87	70.440
872.04	51.429
872.21	87.826
872.38	102.439
872.55	71.605
872.72	96.875
872.88	85.475
873.05	113.793
873.22	86.395
873.39	105.102
873.56	98.817
873.72	64.118
873.89	78.261
874.06	40.299
874.23	91.525
874.40	82.000
874.56	84.211
874.73	104.878
874.90	89.831
875.07	57.857
875.24	74.534
875.40	85.714
875.57	128.440
875.74	109.600
875.91	93.578
876.08	79.130
876.24	109.302
876.41	131.200
876.58	75.000
876.75	82.270
876.92	87.500
877.08	77.941
877.25	79.130
877.42	106.250
877.59	111.224
877.75	90.667
877.92	63.690
878.09	55.208
878.26	66.467
878.42	77.500
878.59	79.130
878.76	56.579
878.93	84.328
879.09	53.535
879.26	64.634
879.43	69.730
879.60	65.035
879.76	57.386
879.93	65.556
880.10	43.333
880.27	64.596
880.43	64.804
880.60	42.009
880.77	46.591
880.94	41.791
881.10	37.168
881.27	42.951
881.44	36.544
881.61	30.717
881.77	33.078
881.94	20.316
882.11	22.183
882.28	21.036
882.44	28.512
882.61	19.831
882.78	21.930
882.94	23.975
883.11	25.998
883.28	19.007
883.45	22.309
883.61	20.913
883.78	24.382
883.95	19.366
884.11	23.244
884.28	22.036
>>>>>End Processed Spectral Data<<<<<
