SpectraSuite Data File
++++++++++++++++++++++++++++++++++++
Date: Sat Sep 21 04:19:53 EST 2019
User: sgrac
Dark Spectrum Present: Yes
Reference Spectrum Present: Yes
Number of Sampled Component Spectra: 1
Spectrometers: USB4E01596
Integration Time (usec): 100000 (USB4E01596)
Spectra Averaged: 1 (USB4E01596)
Boxcar Smoothing: 0 (USB4E01596)
Correct for Electrical Dark: No (USB4E01596)
Strobe/Lamp Enabled: Yes (USB4E01596)
Correct for Detector Non-linearity: No (USB4E01596)
Correct for Stray Light: No (USB4E01596)
Number of Pixels in Processed Spectrum: 3648
>>>>>Begin Processed Spectral Data<<<<<
178.44	-528.571
178.66	-528.571
178.87	-528.571
179.09	-228.571
179.30	-846.154
179.52	0.000
179.74	-1800.000
179.95	1366.667
180.17	653.333
180.38	7600.000
180.60	0.000
180.82	500.000
181.03	-500.000
181.25	339.130
181.46	-148.387
181.68	266.667
181.89	10700.000
182.11	268.571
182.33	-204.444
182.54	-393.750
182.76	-4400.000
182.97	840.000
183.19	3150.000
183.40	251.724
183.62	-88.889
183.84	-255.556
184.05	508.696
184.27	275.000
184.48	1000.000
184.70	258.000
184.91	-553.333
185.13	244.444
185.34	-167.857
185.56	196.667
185.78	0.000
185.99	673.333
186.21	375.862
186.42	486.667
186.64	195.161
186.85	392.593
187.07	130.909
187.28	566.667
187.50	-240.000
187.72	1540.000
187.93	-8100.000
188.15	188.000
188.36	-323.529
188.58	-3900.000
188.79	272.727
189.01	325.000
189.22	1980.000
189.44	4350.000
189.65	416.667
189.87	862.500
190.09	-2020.000
190.30	687.500
190.52	-5300.000
190.73	225.000
190.95	292.857
191.16	177.778
191.38	700.000
191.59	257.143
191.81	216.667
192.02	253.191
192.24	652.941
192.45	-2120.000
192.67	340.000
192.88	516.667
193.10	364.000
193.31	480.000
193.53	-14300.000
193.74	113.415
193.96	579.167
194.18	390.323
194.39	-388.889
194.61	510.526
194.82	504.762
195.04	290.476
195.25	4450.000
195.47	224.390
195.68	280.851
195.90	1360.000
196.11	141.818
196.33	165.957
196.54	-3033.333
196.76	439.286
196.97	-2900.000
197.19	417.857
197.40	276.471
197.62	153.125
197.83	168.919
198.05	-621.053
198.26	337.143
198.48	241.667
198.69	209.302
198.91	198.039
199.12	-231.429
199.34	-1340.000
199.55	5900.000
199.77	2975.000
199.98	268.000
200.20	153.521
200.41	578.571
200.63	-388.889
200.84	188.235
201.06	746.154
201.27	262.162
201.49	1325.000
201.70	314.815
201.91	256.522
202.13	155.072
202.34	207.547
202.56	-1214.286
202.77	944.444
202.99	425.000
203.20	3400.000
203.42	1437.500
203.63	258.140
203.85	228.571
204.06	212.963
204.28	-370.000
204.49	262.857
204.71	146.154
204.92	0.000
205.14	-478.571
205.35	405.556
205.56	-2120.000
205.78	533.333
205.99	560.000
206.21	-332.258
206.42	322.581
206.64	342.857
206.85	1150.000
207.07	-661.538
207.28	557.143
207.50	-447.368
207.71	210.256
207.93	261.364
208.14	788.235
208.35	421.053
208.57	-7700.000
208.78	1176.923
209.00	527.778
209.21	-2000.000
209.43	358.621
209.64	226.471
209.86	1114.286
210.07	0.000
210.28	-488.235
210.50	175.510
210.71	235.088
210.93	314.286
211.14	-383.333
211.36	-232.258
211.57	-242.857
211.78	-230.435
212.00	0.000
212.21	246.512
212.43	-309.091
212.64	155.172
212.86	-675.000
213.07	-350.000
213.29	247.368
213.50	6500.000
213.71	164.151
213.93	1657.143
214.14	122.727
214.36	7300.000
214.57	411.538
214.78	693.750
215.00	2850.000
215.21	227.778
215.43	292.000
215.64	233.333
215.86	251.429
216.07	8700.000
216.28	384.000
216.50	-1314.286
216.71	-1920.000
216.93	214.894
217.14	378.125
217.35	359.259
217.57	275.000
217.78	1100.000
218.00	-620.000
218.21	236.842
218.42	-3000.000
218.64	711.765
218.85	-1066.667
219.07	685.714
219.28	1725.000
219.49	127.632
219.71	2166.667
219.92	352.778
220.14	329.167
220.35	460.000
220.56	235.897
220.78	258.824
220.99	-6500.000
221.21	442.857
221.42	491.667
221.63	300.000
221.85	222.581
222.06	207.143
222.28	281.818
222.49	-4600.000
222.70	0.000
222.92	522.222
223.13	150.000
223.34	-2525.000
223.56	171.053
223.77	125.843
223.99	274.359
224.20	111.905
224.41	305.405
224.63	352.778
224.84	191.379
225.05	217.857
225.27	131.429
225.48	234.783
225.69	1042.857
225.91	255.556
226.12	308.333
226.34	115.686
226.55	153.704
226.76	143.548
226.98	152.000
227.19	195.455
227.40	90.909
227.62	73.171
227.83	104.000
228.04	104.396
228.26	81.188
228.47	117.241
228.69	48.026
228.90	69.014
229.11	62.222
229.33	48.309
229.54	19.079
229.75	25.652
229.97	45.064
230.18	31.541
230.39	20.675
230.61	41.509
230.82	36.100
231.03	12.863
231.25	32.660
231.46	28.102
231.67	42.688
231.89	40.784
232.10	40.486
232.31	51.923
232.53	47.458
232.74	57.812
232.95	62.651
233.17	55.491
233.38	47.015
233.59	76.471
233.81	47.087
234.02	65.132
234.23	45.455
234.45	78.289
234.66	56.497
234.87	61.074
235.09	68.889
235.30	33.908
235.51	62.621
235.73	54.717
235.94	51.295
236.15	37.245
236.36	53.968
236.58	43.128
236.79	47.120
237.00	34.783
237.22	58.642
237.43	39.706
237.64	58.952
237.86	61.957
238.07	69.849
238.28	55.191
238.50	33.043
238.71	38.462
238.92	30.952
239.13	51.429
239.35	24.476
239.56	48.958
239.77	52.195
239.99	31.132
240.20	37.895
240.41	36.638
240.63	29.555
240.84	43.825
241.05	37.226
241.26	30.579
241.48	32.743
241.69	28.797
241.90	16.620
242.12	29.337
242.33	21.121
242.54	21.748
242.75	23.719
242.97	24.483
243.18	18.013
243.39	18.601
243.61	13.643
243.82	14.266
244.03	18.993
244.24	10.123
244.46	21.037
244.67	17.365
244.88	20.344
245.09	26.878
245.31	12.092
245.52	30.331
245.73	22.179
245.95	28.571
246.16	12.148
246.37	18.411
246.58	20.935
246.80	15.470
247.01	13.876
247.22	15.584
247.43	13.820
247.65	15.841
247.86	9.482
248.07	8.528
248.28	12.875
248.50	8.506
248.71	11.454
248.92	10.990
249.13	11.062
249.35	9.375
249.56	15.404
249.77	12.208
249.98	12.428
250.20	12.333
250.41	16.089
250.62	12.410
250.83	19.735
251.05	15.409
251.26	17.241
251.47	21.802
251.68	14.808
251.90	16.304
252.11	16.725
252.32	20.405
252.53	15.721
252.75	16.480
252.96	23.237
253.17	15.811
253.38	16.622
253.59	16.243
253.81	13.169
254.02	16.440
254.23	18.723
254.44	22.449
254.66	15.372
254.87	22.924
255.08	14.469
255.29	24.297
255.50	21.935
255.72	23.394
255.93	19.951
256.14	29.091
256.35	16.159
256.57	26.772
256.78	32.420
256.99	6.545
257.20	23.301
257.41	31.056
257.63	17.791
257.84	19.087
258.05	12.292
258.26	17.477
258.47	16.995
258.69	15.548
258.90	12.112
259.11	7.176
259.32	13.686
259.53	13.271
259.75	10.383
259.96	10.747
260.17	8.887
260.38	8.576
260.59	7.852
260.81	9.132
261.02	10.171
261.23	11.635
261.44	8.543
261.65	10.248
261.87	5.879
262.08	10.599
262.29	13.758
262.50	11.765
262.71	10.169
262.92	11.074
263.14	11.359
263.35	6.820
263.56	6.353
263.77	15.527
263.98	14.550
264.20	20.855
264.41	10.635
264.62	15.903
264.83	15.113
265.04	22.176
265.25	13.953
265.47	19.637
265.68	16.327
265.89	12.978
266.10	10.691
266.31	27.454
266.52	19.834
266.74	8.219
266.95	9.424
267.16	18.428
267.37	10.750
267.58	7.500
267.79	11.235
268.01	15.714
268.22	13.673
268.43	12.062
268.64	11.099
268.85	7.898
269.06	6.722
269.27	14.071
269.49	10.707
269.70	11.223
269.91	13.661
270.12	12.101
270.33	17.281
270.54	9.298
270.75	8.304
270.97	11.831
271.18	12.103
271.39	9.211
271.60	15.400
271.81	9.331
272.02	11.986
272.23	9.695
272.45	10.233
272.66	8.645
272.87	6.399
273.08	10.500
273.29	8.327
273.50	9.105
273.71	6.611
273.92	7.061
274.14	5.616
274.35	7.773
274.56	10.494
274.77	9.068
274.98	12.285
275.19	8.526
275.40	12.382
275.61	6.820
275.83	14.203
276.04	12.573
276.25	9.020
276.46	9.328
276.67	8.830
276.88	12.410
277.09	7.334
277.30	14.137
277.51	15.947
277.73	5.900
277.94	12.683
278.15	8.863
278.36	15.198
278.57	5.738
278.78	10.800
278.99	11.902
279.20	13.383
279.41	16.057
279.62	9.936
279.84	10.030
280.05	9.408
280.26	14.286
280.47	10.484
280.68	6.114
280.89	11.731
281.10	13.452
281.31	9.411
281.52	15.392
281.73	14.204
281.94	5.364
282.16	9.403
282.37	10.330
282.58	10.513
282.79	13.098
283.00	13.617
283.21	6.613
283.42	5.855
283.63	6.926
283.84	12.382
284.05	10.763
284.26	10.101
284.47	9.219
284.68	10.450
284.89	9.708
285.11	10.753
285.32	8.440
285.53	8.961
285.74	10.146
285.95	6.781
286.16	9.987
286.37	6.706
286.58	6.851
286.79	7.683
287.00	9.732
287.21	10.083
287.42	7.870
287.63	8.844
287.84	7.358
288.05	6.751
288.26	7.888
288.48	12.817
288.69	10.148
288.90	6.496
289.11	9.723
289.32	9.712
289.53	7.625
289.74	5.929
289.95	8.339
290.16	12.251
290.37	5.982
290.58	8.375
290.79	6.469
291.00	10.356
291.21	6.394
291.42	8.333
291.63	7.260
291.84	11.483
292.05	8.621
292.26	8.840
292.47	10.316
292.68	6.507
292.89	9.704
293.10	10.292
293.31	11.111
293.52	4.841
293.73	7.871
293.94	10.743
294.15	5.211
294.36	3.735
294.57	10.046
294.79	11.249
295.00	10.553
295.21	7.830
295.42	9.673
295.63	8.280
295.84	6.763
296.05	7.902
296.26	7.245
296.47	6.526
296.68	9.677
296.89	10.584
297.10	7.007
297.31	7.820
297.52	8.990
297.73	9.476
297.94	8.417
298.15	6.824
298.36	7.013
298.57	7.115
298.78	11.312
298.99	6.809
299.20	6.921
299.41	6.380
299.62	8.558
299.83	4.745
300.04	8.683
300.25	8.271
300.46	10.432
300.67	8.267
300.88	9.791
301.09	7.430
301.30	7.948
301.50	9.851
301.71	10.692
301.92	9.626
302.13	8.893
302.34	7.846
302.55	7.380
302.76	7.909
302.97	10.338
303.18	8.999
303.39	7.525
303.60	6.894
303.81	11.908
304.02	8.724
304.23	7.757
304.44	6.523
304.65	6.523
304.86	6.835
305.07	9.215
305.28	8.355
305.49	9.153
305.70	8.224
305.91	10.174
306.12	6.619
306.33	6.090
306.54	7.117
306.75	11.823
306.96	16.860
307.17	6.537
307.38	6.336
307.58	8.889
307.79	8.884
308.00	9.276
308.21	8.410
308.42	10.299
308.63	13.262
308.84	12.289
309.05	7.801
309.26	6.738
309.47	8.793
309.68	4.366
309.89	9.524
310.10	9.352
310.31	8.536
310.52	5.391
310.73	11.828
310.94	6.463
311.14	8.213
311.35	7.563
311.56	9.020
311.77	5.185
311.98	4.376
312.19	8.478
312.40	3.917
312.61	6.973
312.82	7.849
313.03	7.405
313.24	8.948
313.45	10.074
313.66	7.558
313.86	8.024
314.07	9.129
314.28	6.536
314.49	6.437
314.70	9.449
314.91	11.382
315.12	8.453
315.33	10.820
315.54	8.516
315.75	7.914
315.96	7.649
316.16	7.310
316.37	9.863
316.58	7.487
316.79	5.391
317.00	10.621
317.21	6.703
317.42	6.128
317.63	11.119
317.84	9.424
318.05	9.874
318.25	8.321
318.46	10.743
318.67	7.448
318.88	9.331
319.09	9.706
319.30	10.323
319.51	7.350
319.72	11.808
319.93	7.991
320.13	9.335
320.34	10.922
320.55	7.027
320.76	9.942
320.97	11.294
321.18	11.464
321.39	7.164
321.60	9.111
321.80	13.391
322.01	10.493
322.22	8.956
322.43	8.452
322.64	7.498
322.85	7.137
323.06	9.299
323.27	13.917
323.47	11.894
323.68	10.392
323.89	7.715
324.10	8.475
324.31	7.319
324.52	10.629
324.73	10.844
324.93	11.538
325.14	5.921
325.35	9.046
325.56	11.077
325.77	9.024
325.98	9.308
326.19	9.170
326.39	6.667
326.60	8.050
326.81	8.193
327.02	8.759
327.23	6.776
327.44	14.623
327.64	8.031
327.85	6.489
328.06	11.657
328.27	15.502
328.48	8.573
328.69	9.461
328.90	7.849
329.10	7.432
329.31	5.702
329.52	8.243
329.73	11.442
329.94	8.726
330.15	8.545
330.35	11.638
330.56	7.517
330.77	10.479
330.98	8.261
331.19	9.407
331.39	10.641
331.60	6.796
331.81	10.637
332.02	16.131
332.23	10.128
332.44	9.894
332.64	11.601
332.85	11.957
333.06	12.381
333.27	8.497
333.48	11.041
333.68	8.642
333.89	8.119
334.10	5.981
334.31	11.069
334.52	10.848
334.72	10.667
334.93	10.638
335.14	7.848
335.35	8.573
335.56	12.228
335.76	10.964
335.97	11.341
336.18	10.260
336.39	12.460
336.60	12.882
336.80	8.338
337.01	13.041
337.22	7.801
337.43	12.083
337.64	13.440
337.84	10.073
338.05	9.347
338.26	13.493
338.47	14.082
338.68	7.678
338.88	10.179
339.09	13.174
339.30	11.026
339.51	9.953
339.71	11.949
339.92	8.016
340.13	10.378
340.34	9.741
340.55	11.290
340.75	10.403
340.96	9.607
341.17	11.274
341.38	7.864
341.58	9.959
341.79	10.030
342.00	8.494
342.21	10.240
342.41	8.158
342.62	12.543
342.83	12.165
343.04	6.674
343.24	7.768
343.45	11.552
343.66	9.025
343.87	11.722
344.07	8.703
344.28	11.933
344.49	10.070
344.70	15.673
344.90	11.009
345.11	9.159
345.32	10.471
345.53	9.430
345.73	8.584
345.94	10.927
346.15	10.277
346.36	7.649
346.56	9.300
346.77	11.753
346.98	10.497
347.19	12.574
347.39	9.184
347.60	9.574
347.81	11.540
348.02	11.690
348.22	7.039
348.43	10.647
348.64	8.215
348.84	11.705
349.05	9.955
349.26	12.722
349.47	8.017
349.67	9.116
349.88	11.575
350.09	10.970
350.30	10.351
350.50	10.266
350.71	11.688
350.92	12.213
351.12	10.213
351.33	9.450
351.54	11.415
351.74	11.474
351.95	8.938
352.16	10.707
352.37	12.487
352.57	8.599
352.78	7.458
352.99	11.874
353.19	8.224
353.40	9.004
353.61	13.250
353.82	8.609
354.02	12.088
354.23	10.372
354.44	12.576
354.64	10.966
354.85	10.433
355.06	10.089
355.26	6.198
355.47	9.403
355.68	10.429
355.88	12.446
356.09	10.562
356.30	8.249
356.51	11.111
356.71	10.792
356.92	6.133
357.13	9.859
357.33	13.109
357.54	9.549
357.75	8.872
357.95	11.207
358.16	9.052
358.37	14.209
358.57	8.953
358.78	14.337
358.99	8.743
359.19	8.650
359.40	11.701
359.61	10.411
359.81	11.106
360.02	12.979
360.23	9.248
360.43	10.895
360.64	9.420
360.85	10.461
361.05	8.691
361.26	13.134
361.47	9.413
361.67	13.105
361.88	7.210
362.09	13.185
362.29	9.228
362.50	8.914
362.70	7.430
362.91	12.381
363.12	8.519
363.32	9.151
363.53	10.241
363.74	12.615
363.94	7.197
364.15	13.580
364.36	10.317
364.56	8.539
364.77	10.804
364.98	12.257
365.18	10.554
365.39	12.948
365.59	7.522
365.80	10.896
366.01	11.619
366.21	8.954
366.42	6.593
366.63	11.484
366.83	10.016
367.04	5.820
367.24	10.913
367.45	7.388
367.66	6.746
367.86	10.477
368.07	7.448
368.28	7.858
368.48	10.121
368.69	7.036
368.89	9.436
369.10	7.998
369.31	8.576
369.51	9.968
369.72	10.799
369.92	12.303
370.13	6.036
370.34	10.630
370.54	6.995
370.75	11.939
370.95	7.839
371.16	9.156
371.37	7.337
371.57	8.423
371.78	8.213
371.98	10.088
372.19	8.955
372.40	11.273
372.60	10.922
372.81	10.195
373.01	6.419
373.22	7.724
373.43	9.279
373.63	10.950
373.84	7.792
374.04	9.124
374.25	7.771
374.46	9.408
374.66	5.784
374.87	8.916
375.07	4.230
375.28	6.698
375.48	7.817
375.69	8.963
375.90	8.036
376.10	6.150
376.31	6.462
376.51	7.905
376.72	8.109
376.92	3.881
377.13	9.091
377.34	9.085
377.54	7.753
377.75	9.363
377.95	9.384
378.16	8.872
378.36	8.710
378.57	10.186
378.77	8.202
378.98	11.731
379.19	8.652
379.39	6.805
379.60	7.264
379.80	7.824
380.01	9.761
380.21	6.947
380.42	9.031
380.62	7.725
380.83	8.036
381.04	7.707
381.24	8.992
381.45	6.438
381.65	6.662
381.86	8.227
382.06	8.646
382.27	3.856
382.47	6.127
382.68	9.632
382.88	5.138
383.09	6.703
383.29	4.959
383.50	10.533
383.71	6.713
383.91	7.559
384.12	5.899
384.32	8.254
384.53	6.010
384.73	5.778
384.94	5.901
385.14	6.653
385.35	5.522
385.55	6.491
385.76	5.610
385.96	7.225
386.17	7.833
386.37	7.145
386.58	7.940
386.78	8.205
386.99	4.543
387.19	7.201
387.40	5.271
387.60	9.715
387.81	6.275
388.01	6.328
388.22	7.451
388.42	9.031
388.63	8.165
388.83	8.968
389.04	3.556
389.24	8.516
389.45	4.842
389.65	6.296
389.86	6.226
390.06	5.808
390.27	7.183
390.47	6.011
390.68	5.694
390.88	9.331
391.09	7.155
391.29	8.259
391.50	7.189
391.70	6.811
391.91	6.874
392.11	6.399
392.32	6.743
392.52	8.809
392.73	6.797
392.93	6.739
393.14	6.341
393.34	6.699
393.55	6.698
393.75	6.905
393.95	5.881
394.16	7.931
394.36	8.755
394.57	8.731
394.77	7.541
394.98	6.584
395.18	7.248
395.39	6.674
395.59	6.175
395.80	7.740
396.00	7.475
396.21	8.025
396.41	7.022
396.61	8.442
396.82	7.740
397.02	10.907
397.23	7.703
397.43	7.979
397.64	5.276
397.84	8.003
398.05	5.283
398.25	8.249
398.45	6.602
398.66	9.181
398.86	7.545
399.07	8.803
399.27	7.006
399.48	9.183
399.68	5.003
399.89	7.128
400.09	8.547
400.29	6.055
400.50	6.580
400.70	8.351
400.91	5.508
401.11	6.544
401.32	6.516
401.52	5.665
401.72	6.557
401.93	9.521
402.13	7.158
402.34	6.432
402.54	6.061
402.75	10.633
402.95	5.359
403.15	9.448
403.36	6.090
403.56	5.663
403.77	5.744
403.97	6.205
404.17	6.144
404.38	8.275
404.58	6.531
404.79	7.444
404.99	6.126
405.19	7.092
405.40	5.205
405.60	8.386
405.81	6.226
406.01	6.013
406.21	7.086
406.42	7.015
406.62	6.622
406.83	6.560
407.03	7.954
407.23	5.336
407.44	6.784
407.64	8.524
407.85	7.528
408.05	6.350
408.25	6.067
408.46	7.707
408.66	7.729
408.87	5.813
409.07	6.653
409.27	5.605
409.48	6.118
409.68	6.570
409.88	5.001
410.09	8.029
410.29	7.452
410.50	7.797
410.70	4.667
410.90	6.474
411.11	4.850
411.31	6.280
411.51	7.910
411.72	8.792
411.92	5.073
412.12	6.294
412.33	4.712
412.53	6.479
412.74	4.509
412.94	5.906
413.14	6.123
413.35	6.209
413.55	5.943
413.75	8.445
413.96	4.647
414.16	6.048
414.36	6.600
414.57	6.665
414.77	5.913
414.97	5.814
415.18	6.531
415.38	7.546
415.58	6.214
415.79	5.814
415.99	5.977
416.19	6.793
416.40	6.220
416.60	5.901
416.80	5.771
417.01	7.563
417.21	4.783
417.41	8.639
417.62	6.756
417.82	7.391
418.02	5.054
418.23	6.540
418.43	6.500
418.63	7.322
418.84	8.017
419.04	6.628
419.24	7.598
419.45	8.390
419.65	7.971
419.85	8.546
420.06	8.192
420.26	8.961
420.46	7.670
420.67	9.330
420.87	8.293
421.07	8.862
421.28	8.268
421.48	9.281
421.68	8.715
421.88	9.964
422.09	8.837
422.29	9.085
422.49	7.497
422.70	9.381
422.90	8.129
423.10	9.334
423.31	7.797
423.51	9.320
423.71	8.006
423.91	10.041
424.12	8.976
424.32	8.651
424.52	8.212
424.73	9.353
424.93	8.210
425.13	8.554
425.33	8.060
425.54	9.709
425.74	8.608
425.94	9.044
426.15	9.404
426.35	7.816
426.55	8.577
426.75	9.224
426.96	9.342
427.16	7.881
427.36	7.931
427.57	9.470
427.77	7.783
427.97	8.749
428.17	8.633
428.38	8.606
428.58	5.838
428.78	7.472
428.98	5.777
429.19	6.451
429.39	5.916
429.59	8.658
429.79	5.211
430.00	5.164
430.20	4.596
430.40	6.451
430.60	6.291
430.81	7.201
431.01	5.186
431.21	6.800
431.41	5.182
431.62	6.453
431.82	6.967
432.02	8.266
432.22	5.616
432.43	5.415
432.63	4.787
432.83	7.777
433.03	6.139
433.24	6.255
433.44	7.252
433.64	7.478
433.84	6.025
434.05	7.772
434.25	6.327
434.45	7.951
434.65	7.887
434.85	8.811
435.06	7.719
435.26	7.251
435.46	6.757
435.66	7.396
435.87	6.453
436.07	7.256
436.27	7.532
436.47	5.888
436.67	5.756
436.88	7.835
437.08	6.736
437.28	7.658
437.48	6.846
437.69	7.887
437.89	7.607
438.09	8.731
438.29	5.688
438.49	7.766
438.70	7.151
438.90	6.569
439.10	6.829
439.30	8.011
439.50	5.932
439.71	7.812
439.91	7.382
440.11	8.837
440.31	7.919
440.51	7.274
440.72	6.442
440.92	8.209
441.12	7.643
441.32	8.825
441.52	8.406
441.72	8.783
441.93	8.021
442.13	9.023
442.33	7.643
442.53	9.428
442.73	7.208
442.94	7.889
443.14	7.212
443.34	9.486
443.54	8.492
443.74	8.502
443.94	7.646
444.15	7.276
444.35	6.081
444.55	8.235
444.75	6.864
444.95	7.330
445.15	7.033
445.36	7.938
445.56	5.707
445.76	8.585
445.96	7.154
446.16	7.293
446.36	6.359
446.57	8.762
446.77	6.391
446.97	8.480
447.17	8.544
447.37	8.640
447.57	8.316
447.77	9.054
447.98	8.083
448.18	9.299
448.38	7.644
448.58	9.048
448.78	8.299
448.98	7.714
449.18	6.947
449.39	8.020
449.59	6.759
449.79	6.965
449.99	6.493
450.19	7.928
450.39	6.853
450.59	7.260
450.79	6.493
451.00	8.250
451.20	7.121
451.40	6.757
451.60	5.722
451.80	7.573
452.00	6.551
452.20	6.875
452.40	6.546
452.61	6.229
452.81	7.102
453.01	7.321
453.21	5.664
453.41	7.410
453.61	6.793
453.81	6.468
454.01	6.635
454.21	7.523
454.42	7.957
454.62	7.140
454.82	6.099
455.02	5.974
455.22	5.348
455.42	6.079
455.62	5.102
455.82	7.643
456.02	6.395
456.23	6.914
456.43	4.901
456.63	7.370
456.83	5.070
457.03	7.337
457.23	6.446
457.43	6.014
457.63	5.959
457.83	6.913
458.03	5.588
458.23	6.847
458.43	5.527
458.64	6.943
458.84	5.985
459.04	7.145
459.24	6.406
459.44	7.415
459.64	7.310
459.84	7.644
460.04	7.433
460.24	8.075
460.44	7.743
460.64	7.894
460.84	6.919
461.04	8.943
461.24	8.343
461.45	9.339
461.65	8.568
461.85	8.660
462.05	7.990
462.25	8.763
462.45	8.891
462.65	8.473
462.85	5.786
463.05	7.397
463.25	5.263
463.45	7.614
463.65	5.731
463.85	7.063
464.05	6.031
464.25	6.228
464.45	7.172
464.65	6.117
464.85	5.488
465.05	6.651
465.26	6.054
465.46	7.172
465.66	6.780
465.86	7.232
466.06	5.853
466.26	7.311
466.46	4.630
466.66	7.264
466.86	6.156
467.06	5.624
467.26	6.274
467.46	7.201
467.66	6.538
467.86	7.457
468.06	6.119
468.26	6.390
468.46	6.750
468.66	6.990
468.86	5.058
469.06	7.210
469.26	4.174
469.46	6.868
469.66	5.027
469.86	7.554
470.06	5.886
470.26	8.012
470.46	4.790
470.66	7.682
470.86	5.244
471.06	5.993
471.26	4.385
471.46	6.090
471.66	6.018
471.86	6.331
472.06	5.819
472.26	7.579
472.46	8.314
472.66	7.477
472.86	5.845
473.06	6.811
473.26	6.105
473.46	6.721
473.66	5.749
473.86	7.683
474.06	6.390
474.26	6.773
474.46	4.736
474.66	7.049
474.86	6.552
475.06	7.718
475.26	4.741
475.46	6.627
475.66	5.051
475.86	6.874
476.06	6.524
476.26	6.961
476.46	5.369
476.66	6.349
476.86	4.811
477.06	6.209
477.26	6.042
477.46	5.999
477.65	6.326
477.85	7.559
478.05	4.946
478.25	7.924
478.45	5.782
478.65	6.818
478.85	5.840
479.05	7.378
479.25	6.865
479.45	8.024
479.65	5.735
479.85	7.130
480.05	6.265
480.25	7.202
480.45	6.636
480.65	7.886
480.85	6.237
481.05	8.075
481.25	7.308
481.44	7.691
481.64	5.601
481.84	7.604
482.04	7.183
482.24	7.580
482.44	6.637
482.64	7.651
482.84	7.713
483.04	8.367
483.24	8.105
483.44	8.787
483.64	8.294
483.84	8.495
484.04	8.712
484.23	8.820
484.43	9.094
484.63	8.928
484.83	9.056
485.03	9.302
485.23	9.202
485.43	9.214
485.63	9.259
485.83	9.456
486.03	9.487
486.23	9.340
486.42	9.235
486.62	9.313
486.82	8.951
487.02	8.975
487.22	8.914
487.42	8.901
487.62	8.688
487.82	9.220
488.02	8.640
488.22	9.032
488.41	9.338
488.61	9.103
488.81	8.958
489.01	9.364
489.21	8.895
489.41	9.257
489.61	8.987
489.81	8.972
490.01	9.124
490.20	9.488
490.40	9.478
490.60	8.977
490.80	8.714
491.00	9.065
491.20	8.821
491.40	8.507
491.60	8.305
491.79	8.800
491.99	8.549
492.19	8.826
492.39	8.792
492.59	8.884
492.79	8.806
492.99	8.660
493.19	9.173
493.38	9.004
493.58	9.180
493.78	9.356
493.98	8.978
494.18	9.129
494.38	8.586
494.58	8.771
494.77	7.070
494.97	8.508
495.17	7.283
495.37	7.901
495.57	7.655
495.77	7.579
495.96	7.659
496.16	7.043
496.36	6.605
496.56	8.071
496.76	6.688
496.96	7.801
497.15	7.137
497.35	7.622
497.55	7.147
497.75	7.924
497.95	6.977
498.15	8.612
498.34	7.745
498.54	8.176
498.74	8.093
498.94	7.933
499.14	6.559
499.34	8.072
499.53	7.189
499.73	7.928
499.93	7.674
500.13	7.809
500.33	6.545
500.52	6.876
500.72	6.668
500.92	7.365
501.12	5.703
501.32	7.404
501.52	7.006
501.71	7.206
501.91	5.697
502.11	6.913
502.31	6.032
502.51	7.767
502.70	5.293
502.90	7.140
503.10	5.829
503.30	8.155
503.50	6.897
503.69	7.002
503.89	6.316
504.09	8.044
504.29	5.462
504.48	7.366
504.68	7.715
504.88	8.363
505.08	6.090
505.28	7.383
505.47	6.953
505.67	8.482
505.87	6.972
506.07	7.048
506.27	5.731
506.46	7.765
506.66	6.420
506.86	6.620
507.06	7.163
507.25	7.034
507.45	7.229
507.65	8.581
507.85	6.661
508.04	7.761
508.24	6.559
508.44	7.775
508.64	6.634
508.83	7.208
509.03	6.617
509.23	8.176
509.43	6.716
509.63	8.129
509.82	7.014
510.02	7.500
510.22	6.794
510.42	8.351
510.61	7.461
510.81	7.906
511.01	7.752
511.21	8.376
511.40	7.436
511.60	7.988
511.80	7.546
511.99	8.511
512.19	7.319
512.39	8.524
512.59	6.522
512.78	8.170
512.98	8.079
513.18	7.559
513.38	7.279
513.57	8.398
513.77	7.298
513.97	7.532
514.17	7.044
514.36	7.776
514.56	7.707
514.76	8.595
514.95	6.480
515.15	7.895
515.35	5.582
515.55	8.154
515.74	7.934
515.94	8.065
516.14	6.659
516.33	7.524
516.53	6.710
516.73	7.468
516.93	7.309
517.12	8.324
517.32	6.096
517.52	8.216
517.71	6.779
517.91	8.168
518.11	7.719
518.30	8.145
518.50	7.371
518.70	8.305
518.90	8.362
519.09	8.738
519.29	8.679
519.49	8.750
519.68	7.849
519.88	9.338
520.08	8.778
520.27	8.910
520.47	8.481
520.67	8.869
520.86	8.992
521.06	9.317
521.26	7.295
521.45	8.733
521.65	7.614
521.85	7.928
522.04	7.056
522.24	8.382
522.44	6.960
522.63	7.810
522.83	6.595
523.03	8.584
523.22	7.035
523.42	8.189
523.62	7.868
523.81	7.881
524.01	8.277
524.21	7.637
524.40	6.712
524.60	8.328
524.80	6.985
524.99	7.731
525.19	8.117
525.39	8.869
525.58	7.774
525.78	9.087
525.98	8.272
526.17	9.241
526.37	8.673
526.57	9.060
526.76	9.189
526.96	9.238
527.15	8.455
527.35	8.773
527.55	8.281
527.74	9.312
527.94	9.133
528.14	9.058
528.33	8.761
528.53	9.183
528.72	9.042
528.92	9.372
529.12	9.361
529.31	9.303
529.51	9.722
529.71	9.364
529.90	9.602
530.10	9.405
530.29	9.791
530.49	9.795
530.69	9.762
530.88	9.701
531.08	9.489
531.28	9.368
531.47	9.555
531.67	9.767
531.86	9.614
532.06	9.426
532.26	9.051
532.45	9.456
532.65	8.952
532.84	9.037
533.04	8.296
533.24	8.883
533.43	9.086
533.63	9.521
533.82	9.587
534.02	9.595
534.22	9.380
534.41	9.450
534.61	9.271
534.80	9.393
535.00	9.409
535.19	10.028
535.39	9.151
535.59	9.834
535.78	8.791
535.98	9.267
536.17	8.628
536.37	9.741
536.57	8.755
536.76	9.091
536.96	9.243
537.15	9.386
537.35	9.137
537.54	9.810
537.74	9.111
537.93	9.738
538.13	8.909
538.33	9.575
538.52	8.608
538.72	9.322
538.91	9.446
539.11	9.550
539.30	8.082
539.50	9.220
539.70	7.620
539.89	10.148
540.09	8.169
540.28	9.083
540.48	7.707
540.67	9.062
540.87	8.815
541.06	9.357
541.26	9.053
541.45	9.665
541.65	9.242
541.85	9.120
542.04	9.178
542.24	9.856
542.43	9.533
542.63	9.915
542.82	9.879
543.02	9.676
543.21	9.839
543.41	9.632
543.60	9.708
543.80	9.792
543.99	9.600
544.19	9.895
544.38	9.576
544.58	10.122
544.77	9.643
544.97	9.904
545.16	8.838
545.36	9.666
545.56	9.256
545.75	9.726
545.95	8.173
546.14	9.511
546.34	8.622
546.53	9.791
546.73	9.215
546.92	9.707
547.12	8.734
547.31	9.425
547.51	8.570
547.70	10.080
547.90	8.689
548.09	9.399
548.29	8.731
548.48	10.162
548.68	9.162
548.87	10.608
549.07	8.831
549.26	8.306
549.46	8.558
549.65	8.987
549.84	7.683
550.04	8.967
550.23	6.892
550.43	8.335
550.62	7.187
550.82	7.652
551.01	6.559
551.21	8.577
551.40	7.393
551.60	8.167
551.79	7.562
551.99	8.345
552.18	6.726
552.38	8.702
552.57	7.351
552.77	9.396
552.96	8.033
553.16	9.786
553.35	7.774
553.54	9.955
553.74	8.962
553.93	9.985
554.13	8.569
554.32	9.989
554.52	8.404
554.71	9.389
554.91	7.905
555.10	9.904
555.29	7.260
555.49	8.892
555.68	7.316
555.88	9.342
556.07	7.430
556.27	9.018
556.46	8.497
556.66	8.919
556.85	9.190
557.04	9.733
557.24	8.010
557.43	9.502
557.63	8.802
557.82	7.706
558.02	7.858
558.21	10.210
558.40	7.271
558.60	9.853
558.79	8.410
558.99	9.741
559.18	8.157
559.38	8.681
559.57	7.931
559.76	9.778
559.96	9.355
560.15	8.553
560.35	8.841
560.54	8.941
560.73	7.158
560.93	9.639
561.12	8.574
561.32	10.308
561.51	8.012
561.70	9.062
561.90	8.072
562.09	11.292
562.29	8.900
562.48	9.868
562.67	9.781
562.87	10.688
563.06	9.046
563.26	9.952
563.45	9.499
563.64	10.202
563.84	9.074
564.03	10.245
564.23	9.079
564.42	10.044
564.61	9.424
564.81	10.174
565.00	9.867
565.20	10.741
565.39	10.468
565.58	11.202
565.78	10.560
565.97	11.683
566.16	10.585
566.36	13.343
566.55	11.200
566.74	10.526
566.94	10.722
567.13	13.162
567.33	10.675
567.52	12.214
567.71	11.758
567.91	11.518
568.10	11.370
568.29	12.791
568.49	11.561
568.68	12.259
568.87	10.983
569.07	11.642
569.26	10.872
569.45	12.590
569.65	11.717
569.84	12.690
570.04	12.039
570.23	12.184
570.42	10.298
570.62	12.011
570.81	11.889
571.00	12.763
571.20	11.511
571.39	12.758
571.58	11.908
571.78	13.725
571.97	12.040
572.16	13.544
572.36	12.523
572.55	13.007
572.74	12.828
572.94	12.637
573.13	13.542
573.32	13.806
573.51	12.676
573.71	13.854
573.90	12.460
574.09	13.301
574.29	12.679
574.48	13.516
574.67	12.656
574.87	13.091
575.06	12.243
575.25	13.088
575.45	11.768
575.64	13.394
575.83	12.555
576.03	13.729
576.22	12.503
576.41	13.610
576.60	11.884
576.80	13.137
576.99	12.892
577.18	14.051
577.38	12.467
577.57	13.271
577.76	13.430
577.95	13.290
578.15	11.406
578.34	13.271
578.53	12.357
578.73	13.272
578.92	10.737
579.11	13.030
579.30	12.147
579.50	11.938
579.69	11.818
579.88	11.851
580.08	10.730
580.27	12.510
580.46	10.998
580.65	12.264
580.85	11.161
581.04	11.489
581.23	11.739
581.42	12.498
581.62	10.126
581.81	12.441
582.00	11.446
582.19	12.170
582.39	11.784
582.58	11.584
582.77	11.886
582.96	10.374
583.16	10.356
583.35	11.749
583.54	11.237
583.73	11.341
583.93	11.603
584.12	10.571
584.31	9.637
584.50	11.808
584.70	9.480
584.89	11.876
585.08	9.225
585.27	12.905
585.47	9.698
585.66	11.977
585.85	9.734
586.04	10.809
586.24	11.239
586.43	10.086
586.62	10.009
586.81	11.685
587.00	8.996
587.20	11.467
587.39	9.190
587.58	12.031
587.77	10.591
587.97	10.496
588.16	10.755
588.35	11.285
588.54	9.192
588.73	10.708
588.93	11.245
589.12	11.139
589.31	10.525
589.50	10.522
589.69	10.873
589.89	11.448
590.08	9.638
590.27	10.805
590.46	10.569
590.65	11.208
590.85	9.035
591.04	10.940
591.23	11.157
591.42	11.695
591.61	10.444
591.81	11.364
592.00	10.695
592.19	11.517
592.38	9.691
592.57	12.382
592.77	11.074
592.96	11.207
593.15	11.968
593.34	11.772
593.53	9.629
593.72	12.493
593.92	9.336
594.11	12.427
594.30	10.239
594.49	11.897
594.68	11.782
594.87	11.013
595.07	10.049
595.26	11.771
595.45	9.926
595.64	12.532
595.83	9.590
596.02	11.820
596.22	10.411
596.41	13.043
596.60	11.188
596.79	12.897
596.98	11.151
597.17	13.452
597.37	12.436
597.56	13.645
597.75	11.535
597.94	13.491
598.13	12.348
598.32	12.697
598.51	12.103
598.71	14.226
598.90	12.386
599.09	13.165
599.28	10.054
599.47	12.700
599.66	10.974
599.85	12.378
600.05	10.470
600.24	12.225
600.43	11.069
600.62	12.285
600.81	12.014
601.00	13.591
601.19	9.239
601.38	12.080
601.58	11.883
601.77	10.561
601.96	9.529
602.15	12.041
602.34	11.303
602.53	12.927
602.72	10.078
602.91	12.954
603.10	10.912
603.30	12.772
603.49	10.543
603.68	12.949
603.87	10.424
604.06	13.435
604.25	12.562
604.44	12.927
604.63	12.275
604.82	14.521
605.01	13.059
605.21	13.362
605.40	12.903
605.59	14.843
605.78	13.108
605.97	14.186
606.16	12.843
606.35	13.515
606.54	12.257
606.73	14.234
606.92	10.762
607.11	13.160
607.30	10.999
607.50	12.987
607.69	11.769
607.88	11.754
608.07	10.874
608.26	11.642
608.45	12.636
608.64	13.036
608.83	11.975
609.02	12.226
609.21	11.746
609.40	13.529
609.59	11.874
609.78	12.329
609.97	10.828
610.16	13.600
610.35	11.851
610.55	12.949
610.74	12.009
610.93	14.070
611.12	11.752
611.31	12.401
611.50	11.515
611.69	12.721
611.88	11.222
612.07	13.762
612.26	9.419
612.45	11.510
612.64	10.310
612.83	11.442
613.02	9.906
613.21	11.225
613.40	10.272
613.59	11.443
613.78	8.458
613.97	10.424
614.16	9.596
614.35	10.829
614.54	8.215
614.73	10.347
614.92	8.707
615.11	10.844
615.30	9.093
615.49	8.553
615.68	9.454
615.87	7.661
616.07	7.741
616.26	9.836
616.45	9.144
616.64	9.183
616.83	9.974
617.02	11.904
617.21	7.747
617.40	8.695
617.59	9.216
617.78	11.446
617.97	9.169
618.16	7.552
618.35	7.442
618.54	8.320
618.73	7.267
618.92	9.286
619.11	7.901
619.30	9.910
619.49	6.059
619.68	9.832
619.86	8.191
620.05	9.789
620.24	7.175
620.43	8.524
620.62	6.229
620.81	8.610
621.00	9.144
621.19	11.838
621.38	8.670
621.57	8.790
621.76	8.519
621.95	9.472
622.14	8.028
622.33	9.846
622.52	6.952
622.71	9.176
622.90	6.570
623.09	8.916
623.28	7.630
623.47	9.154
623.66	8.799
623.85	7.905
624.04	8.012
624.23	8.842
624.42	7.448
624.61	8.652
624.80	6.028
624.99	8.299
625.18	6.753
625.36	8.913
625.55	9.764
625.74	9.077
625.93	6.016
626.12	8.172
626.31	9.010
626.50	8.940
626.69	8.349
626.88	11.482
627.07	10.139
627.26	8.186
627.45	8.218
627.64	9.713
627.83	7.657
628.02	9.689
628.20	8.049
628.39	11.204
628.58	9.081
628.77	9.571
628.96	7.631
629.15	8.533
629.34	8.875
629.53	7.053
629.72	6.220
629.91	11.134
630.10	8.733
630.29	8.319
630.47	7.434
630.66	7.382
630.85	7.757
631.04	8.837
631.23	7.548
631.42	8.922
631.61	7.393
631.80	11.454
631.99	8.287
632.18	7.022
632.36	6.921
632.55	9.167
632.74	6.183
632.93	8.814
633.12	8.619
633.31	7.354
633.50	7.565
633.69	9.375
633.88	6.645
634.06	8.600
634.25	6.895
634.44	8.020
634.63	7.448
634.82	10.069
635.01	6.169
635.20	9.532
635.39	6.488
635.57	8.791
635.76	8.153
635.95	7.886
636.14	6.538
636.33	8.329
636.52	6.446
636.71	8.743
636.89	7.520
637.08	8.687
637.27	6.394
637.46	7.063
637.65	6.781
637.84	7.173
638.03	6.066
638.21	8.686
638.40	6.798
638.59	6.677
638.78	5.615
638.97	8.265
639.16	8.143
639.34	6.721
639.53	5.572
639.72	8.601
639.91	6.090
640.10	6.645
640.29	8.058
640.47	9.940
640.66	6.402
640.85	10.120
641.04	4.690
641.23	7.220
641.42	5.970
641.60	7.052
641.79	7.422
641.98	5.708
642.17	6.944
642.36	8.307
642.54	6.226
642.73	5.574
642.92	6.105
643.11	6.098
643.30	6.339
643.49	6.156
643.67	4.310
643.86	6.325
644.05	5.009
644.24	7.719
644.43	7.688
644.61	6.882
644.80	5.951
644.99	6.246
645.18	8.874
645.37	8.260
645.55	7.094
645.74	8.206
645.93	7.740
646.12	6.563
646.31	6.191
646.49	5.841
646.68	6.172
646.87	6.144
647.06	6.511
647.24	6.005
647.43	5.502
647.62	7.231
647.81	4.972
648.00	7.068
648.18	5.141
648.37	7.516
648.56	7.259
648.75	6.756
648.93	6.276
649.12	6.391
649.31	6.077
649.50	6.089
649.68	6.002
649.87	5.912
650.06	4.274
650.25	7.633
650.43	6.502
650.62	6.896
650.81	7.023
651.00	7.784
651.18	6.278
651.37	7.065
651.56	6.938
651.75	9.166
651.93	6.579
652.12	7.539
652.31	6.108
652.50	6.735
652.68	6.417
652.87	9.209
653.06	8.238
653.25	8.084
653.43	6.381
653.62	5.968
653.81	4.887
654.00	8.705
654.18	5.574
654.37	9.030
654.56	6.392
654.74	6.475
654.93	6.099
655.12	7.172
655.31	5.597
655.49	8.375
655.68	5.985
655.87	5.952
656.05	5.285
656.24	6.628
656.43	4.065
656.62	7.085
656.80	5.995
656.99	4.469
657.18	4.625
657.36	5.976
657.55	7.994
657.74	4.951
657.93	8.326
658.11	8.217
658.30	5.529
658.49	6.632
658.67	6.308
658.86	5.741
659.05	6.147
659.23	7.032
659.42	6.939
659.61	7.019
659.79	5.350
659.98	6.525
660.17	7.326
660.35	6.965
660.54	6.441
660.73	10.803
660.91	7.194
661.10	7.303
661.29	5.069
661.47	6.283
661.66	7.139
661.85	6.307
662.03	6.769
662.22	4.964
662.41	3.818
662.59	5.979
662.78	4.230
662.97	4.759
663.15	4.384
663.34	4.741
663.53	4.535
663.71	7.747
663.90	6.561
664.09	6.494
664.27	4.664
664.46	7.123
664.65	5.039
664.83	4.779
665.02	5.802
665.21	4.681
665.39	4.346
665.58	6.012
665.77	6.033
665.95	5.854
666.14	5.235
666.32	4.812
666.51	5.274
666.70	4.721
666.88	6.007
667.07	5.641
667.26	5.676
667.44	4.503
667.63	5.446
667.81	5.659
668.00	5.212
668.19	6.859
668.37	5.777
668.56	7.132
668.75	5.363
668.93	6.460
669.12	5.903
669.30	5.985
669.49	5.618
669.68	6.180
669.86	6.964
670.05	5.097
670.23	5.338
670.42	4.871
670.61	4.912
670.79	4.979
670.98	7.461
671.16	5.699
671.35	6.718
671.54	7.127
671.72	5.508
671.91	6.684
672.09	5.329
672.28	7.051
672.46	8.305
672.65	6.061
672.84	7.217
673.02	6.746
673.21	3.848
673.39	4.000
673.58	8.686
673.77	6.419
673.95	6.899
674.14	7.444
674.32	5.270
674.51	8.763
674.69	5.197
674.88	5.683
675.07	5.878
675.25	9.781
675.44	4.728
675.62	6.417
675.81	6.589
675.99	11.725
676.18	8.788
676.36	4.972
676.55	4.316
676.74	8.718
676.92	9.492
677.11	8.210
677.29	7.734
677.48	5.819
677.66	7.833
677.85	7.723
678.03	6.568
678.22	9.166
678.40	7.991
678.59	7.402
678.78	5.939
678.96	8.019
679.15	6.276
679.33	8.246
679.52	9.055
679.70	7.897
679.89	7.832
680.07	7.590
680.26	7.064
680.44	7.378
680.63	8.406
680.81	7.502
681.00	5.578
681.18	8.125
681.37	6.708
681.55	9.601
681.74	10.954
681.92	9.860
682.11	8.320
682.29	7.568
682.48	7.760
682.66	7.514
682.85	7.744
683.03	7.334
683.22	11.061
683.40	11.777
683.59	8.112
683.77	8.484
683.96	6.289
684.14	10.650
684.33	5.763
684.51	12.167
684.70	9.231
684.88	10.765
685.07	9.334
685.25	10.575
685.44	6.814
685.62	11.554
685.81	8.566
685.99	9.065
686.18	8.029
686.36	8.357
686.55	7.218
686.73	8.831
686.92	11.509
687.10	8.877
687.29	10.713
687.47	9.624
687.65	9.058
687.84	8.833
688.02	11.819
688.21	11.563
688.39	8.172
688.58	13.365
688.76	8.526
688.95	7.927
689.13	7.015
689.32	10.684
689.50	8.534
689.68	10.999
689.87	10.064
690.05	9.753
690.24	11.422
690.42	10.770
690.61	11.272
690.79	10.781
690.98	8.831
691.16	9.792
691.34	8.634
691.53	12.041
691.71	9.615
691.90	10.889
692.08	8.011
692.27	12.301
692.45	12.693
692.63	10.981
692.82	12.660
693.00	12.779
693.19	8.791
693.37	12.668
693.56	10.912
693.74	14.737
693.92	11.910
694.11	13.527
694.29	11.396
694.48	16.517
694.66	11.736
694.84	15.381
695.03	12.718
695.21	17.125
695.40	15.415
695.58	17.523
695.76	15.550
695.95	17.539
696.13	13.041
696.32	17.069
696.50	24.164
696.68	17.460
696.87	14.052
697.05	16.697
697.24	17.958
697.42	20.437
697.60	18.281
697.79	21.353
697.97	18.174
698.16	21.359
698.34	18.840
698.52	22.642
698.71	20.387
698.89	24.353
699.07	21.397
699.26	23.065
699.44	24.218
699.63	27.850
699.81	22.026
699.99	25.231
700.18	24.985
700.36	26.868
700.54	24.075
700.73	27.629
700.91	25.248
701.09	24.983
701.28	24.291
701.46	28.413
701.64	23.714
701.83	27.373
702.01	23.409
702.20	29.726
702.38	29.070
702.56	26.747
702.75	27.068
702.93	26.112
703.11	25.108
703.30	30.396
703.48	28.326
703.66	31.096
703.85	29.630
704.03	32.207
704.21	29.176
704.40	31.023
704.58	26.493
704.76	31.522
704.95	28.941
705.13	34.737
705.31	33.579
705.50	32.566
705.68	29.825
705.86	33.996
706.04	31.491
706.23	35.515
706.41	30.838
706.59	34.168
706.78	30.942
706.96	34.208
707.14	36.707
707.33	35.895
707.51	33.814
707.69	36.787
707.88	35.718
708.06	37.085
708.24	37.177
708.42	38.478
708.61	34.545
708.79	36.255
708.97	37.314
709.16	37.714
709.34	35.926
709.52	36.859
709.71	37.120
709.89	39.339
710.07	34.674
710.25	38.973
710.44	35.684
710.62	38.346
710.80	39.560
710.98	41.499
711.17	38.886
711.35	40.617
711.53	39.075
711.72	42.800
711.90	37.896
712.08	41.028
712.26	37.916
712.45	39.534
712.63	39.038
712.81	39.084
712.99	39.846
713.18	43.728
713.36	41.429
713.54	41.486
713.72	40.838
713.91	43.050
714.09	39.024
714.27	40.675
714.45	41.571
714.64	44.415
714.82	43.714
715.00	42.028
715.18	44.004
715.37	42.675
715.55	38.889
715.73	44.615
715.91	42.807
716.10	42.721
716.28	39.567
716.46	42.663
716.64	37.551
716.83	40.202
717.01	39.110
717.19	42.665
717.37	42.076
717.55	43.776
717.74	43.696
717.92	42.801
718.10	41.297
718.28	41.836
718.47	40.758
718.65	43.810
718.83	42.562
719.01	43.098
719.19	42.656
719.38	41.390
719.56	39.216
719.74	44.230
719.92	38.683
720.10	42.866
720.29	39.402
720.47	42.416
720.65	39.649
720.83	44.727
721.01	38.699
721.20	41.892
721.38	43.434
721.56	46.746
721.74	42.032
721.92	47.067
722.11	39.834
722.29	43.629
722.47	44.942
722.65	46.862
722.83	47.216
723.01	42.544
723.20	46.206
723.38	46.528
723.56	42.431
723.74	51.764
723.92	46.812
724.10	47.660
724.29	42.310
724.47	52.889
724.65	44.295
724.83	49.313
725.01	44.508
725.19	47.119
725.38	46.066
725.56	47.138
725.74	43.066
725.92	48.801
726.10	44.737
726.28	47.146
726.46	49.038
726.65	44.296
726.83	42.815
727.01	50.217
727.19	48.960
727.37	51.111
727.55	46.088
727.73	48.273
727.92	46.458
728.10	49.197
728.28	45.062
728.46	46.619
728.64	46.761
728.82	45.169
729.00	48.458
729.19	49.110
729.37	46.950
729.55	48.344
729.73	44.682
729.91	51.447
730.09	50.257
730.27	48.160
730.45	46.922
730.63	49.410
730.82	48.964
731.00	52.387
731.18	46.939
731.36	52.889
731.54	47.769
731.72	49.683
731.90	49.739
732.08	52.436
732.26	49.667
732.45	50.822
732.63	49.734
732.81	51.789
732.99	47.595
733.17	52.709
733.35	49.040
733.53	53.432
733.71	44.606
733.89	54.653
734.07	53.435
734.25	49.064
734.44	51.708
734.62	52.869
734.80	54.288
734.98	53.972
735.16	54.370
735.34	57.356
735.52	53.213
735.70	54.757
735.88	53.176
736.06	53.978
736.24	57.540
736.42	55.947
736.60	55.251
736.78	61.312
736.97	52.316
737.15	54.328
737.33	54.239
737.51	57.386
737.69	57.916
737.87	56.555
738.05	56.539
738.23	59.462
738.41	55.556
738.59	55.372
738.77	57.239
738.95	62.398
739.13	52.724
739.31	57.795
739.49	53.589
739.67	58.454
739.85	57.895
740.03	57.065
740.21	53.918
740.39	53.828
740.57	59.938
740.75	56.651
740.93	55.940
741.11	62.043
741.30	57.652
741.48	58.136
741.66	58.696
741.84	57.392
742.02	60.085
742.20	60.924
742.38	56.204
742.56	58.333
742.74	62.579
742.92	57.770
743.10	61.126
743.28	62.899
743.46	61.236
743.64	63.358
743.82	63.832
744.00	61.768
744.18	58.942
744.36	59.200
744.54	59.684
744.72	67.104
744.90	59.981
745.08	61.197
745.26	58.634
745.44	65.053
745.62	59.718
745.80	61.300
745.98	59.943
746.16	62.389
746.34	61.036
746.52	63.627
746.70	60.942
746.87	67.590
747.05	63.617
747.23	57.975
747.41	66.383
747.59	64.257
747.77	61.948
747.95	62.204
748.13	60.393
748.31	64.695
748.49	64.558
748.67	62.205
748.85	59.278
749.03	62.300
749.21	61.155
749.39	65.396
749.57	59.357
749.75	64.809
749.93	60.442
750.11	63.290
750.29	61.370
750.47	64.393
750.65	60.293
750.83	65.933
751.01	58.894
751.18	66.738
751.36	63.272
751.54	64.975
751.72	63.437
751.90	59.787
752.08	62.066
752.26	62.860
752.44	61.290
752.62	65.149
752.80	61.088
752.98	67.831
753.16	63.100
753.34	58.511
753.52	64.503
753.69	58.397
753.87	60.287
754.05	64.730
754.23	63.758
754.41	61.471
754.59	64.828
754.77	62.362
754.95	60.870
755.13	65.658
755.31	66.397
755.49	65.421
755.66	62.739
755.84	63.178
756.02	64.449
756.20	64.623
756.38	59.395
756.56	58.972
756.74	63.446
756.92	59.369
757.10	65.436
757.28	65.930
757.45	62.751
757.63	65.604
757.81	57.396
757.99	68.847
758.17	66.098
758.35	62.212
758.53	65.787
758.71	65.861
758.88	60.173
759.06	60.844
759.24	52.345
759.42	57.647
759.60	54.745
759.78	55.711
759.96	45.490
760.13	50.925
760.31	45.513
760.49	45.278
760.67	35.782
760.85	42.256
761.03	37.425
761.21	41.406
761.38	42.691
761.56	39.739
761.74	37.118
761.92	47.282
762.10	34.203
762.28	45.596
762.46	39.074
762.63	47.850
762.81	40.227
762.99	43.401
763.17	38.884
763.35	44.568
763.53	40.537
763.70	48.140
763.88	42.455
764.06	43.433
764.24	44.301
764.42	47.034
764.60	45.063
764.77	47.795
764.95	44.629
765.13	47.147
765.31	46.507
765.49	48.656
765.66	45.592
765.84	48.883
766.02	48.478
766.20	52.261
766.38	51.337
766.56	54.507
766.73	53.454
766.91	56.507
767.09	56.004
767.27	53.536
767.45	57.416
767.62	59.314
767.80	52.195
767.98	61.470
768.16	54.829
768.33	60.375
768.51	58.947
768.69	68.041
768.87	60.951
769.05	55.841
769.22	58.765
769.40	71.267
769.58	64.596
769.76	64.713
769.94	64.512
770.11	63.713
770.29	69.527
770.47	60.271
770.65	64.044
770.82	63.446
771.00	66.925
771.18	72.073
771.36	66.146
771.53	56.627
771.71	67.368
771.89	67.755
772.07	64.754
772.25	71.409
772.42	68.373
772.60	79.148
772.78	68.795
772.96	67.561
773.13	69.643
773.31	66.398
773.49	68.650
773.67	65.237
773.84	67.867
774.02	69.185
774.20	55.474
774.37	64.673
774.55	63.022
774.73	63.084
774.91	63.126
775.08	63.965
775.26	69.444
775.44	72.486
775.62	59.911
775.79	66.714
775.97	67.692
776.15	66.477
776.32	70.570
776.50	70.543
776.68	65.847
776.86	67.702
777.03	69.620
777.21	73.469
777.39	72.134
777.56	65.728
777.74	66.416
777.92	67.455
778.10	63.987
778.27	75.969
778.45	68.493
778.63	75.197
778.80	67.834
778.98	65.906
779.16	73.534
779.34	58.781
779.51	68.252
779.69	71.523
779.87	68.510
780.04	65.634
780.22	58.382
780.40	58.074
780.57	67.305
780.75	66.341
780.93	69.231
781.10	72.056
781.28	69.852
781.46	62.989
781.63	67.603
781.81	66.258
781.99	66.612
782.16	64.238
782.34	64.815
782.52	66.667
782.69	63.623
782.87	70.608
783.05	63.621
783.22	69.107
783.40	59.464
783.58	70.711
783.75	63.230
783.93	69.168
784.11	68.541
784.28	71.626
784.46	73.369
784.64	64.821
784.81	58.423
784.99	70.531
785.17	69.126
785.34	69.395
785.52	68.762
785.69	66.245
785.87	66.294
786.05	75.714
786.22	73.585
786.40	75.547
786.58	70.134
786.75	73.567
786.93	69.894
787.11	69.580
787.28	73.883
787.46	74.368
787.63	69.020
787.81	60.656
787.99	64.148
788.16	66.230
788.34	57.878
788.51	65.438
788.69	58.541
788.87	59.281
789.04	60.395
789.22	57.329
789.39	60.626
789.57	56.907
789.75	63.306
789.92	61.652
790.10	55.380
790.27	61.571
790.45	53.712
790.63	59.011
790.80	53.560
790.98	64.437
791.15	64.130
791.33	67.210
791.51	63.724
791.68	62.837
791.86	59.826
792.03	64.736
792.21	67.647
792.39	70.922
792.56	56.370
792.74	66.541
792.91	60.741
793.09	59.402
793.26	71.908
793.44	58.065
793.62	67.323
793.79	56.859
793.97	66.667
794.14	66.731
794.32	60.241
794.49	62.877
794.67	67.073
794.84	66.876
795.02	68.053
795.20	54.631
795.37	68.200
795.55	64.738
795.72	60.075
795.90	59.844
796.07	64.683
796.25	59.675
796.42	58.217
796.60	63.773
796.77	58.185
796.95	62.929
797.13	55.130
797.30	66.846
797.48	51.236
797.65	50.562
797.83	62.345
798.00	62.500
798.18	56.066
798.35	65.862
798.53	65.437
798.70	50.973
798.88	71.825
799.05	61.319
799.23	56.466
799.40	59.431
799.58	62.261
799.75	62.827
799.93	61.377
800.10	69.549
800.28	70.393
800.45	72.837
800.63	54.373
800.80	60.072
800.98	65.406
801.15	60.830
801.33	53.682
801.50	56.093
801.68	55.000
801.85	54.054
802.03	59.519
802.20	66.869
802.38	63.670
802.55	64.938
802.73	62.428
802.90	51.111
803.08	56.436
803.25	58.918
803.43	61.885
803.60	67.329
803.78	52.259
803.95	56.494
804.13	62.023
804.30	56.152
804.48	67.904
804.65	60.225
804.83	61.167
805.00	68.433
805.17	67.164
805.35	55.801
805.52	60.081
805.70	62.033
805.87	59.351
806.05	57.430
806.22	58.958
806.40	58.034
806.57	67.054
806.75	64.754
806.92	70.988
807.09	69.895
807.27	64.490
807.44	57.564
807.62	59.696
807.79	63.551
807.97	56.400
808.14	62.994
808.31	59.649
808.49	66.667
808.66	64.691
808.84	49.095
809.01	58.851
809.19	63.146
809.36	56.785
809.53	60.412
809.71	60.256
809.88	64.626
810.06	59.300
810.23	67.929
810.41	63.941
810.58	66.262
810.75	61.316
810.93	54.110
811.10	46.070
811.28	55.281
811.45	69.674
811.62	65.217
811.80	52.513
811.97	62.312
812.15	64.237
812.32	67.801
812.49	63.145
812.67	53.699
812.84	55.529
813.02	66.402
813.19	61.743
813.36	62.983
813.54	59.950
813.71	54.639
813.89	51.554
814.06	56.892
814.23	50.588
814.41	58.081
814.58	65.840
814.75	66.485
814.93	55.198
815.10	57.560
815.28	59.204
815.45	45.667
815.62	61.207
815.80	49.708
815.97	41.750
816.14	57.560
816.32	50.129
816.49	49.868
816.66	49.067
816.84	48.519
817.01	52.484
817.18	59.008
817.36	58.869
817.53	64.563
817.71	54.242
817.88	54.167
818.05	51.016
818.23	44.282
818.40	48.533
818.57	57.859
818.75	50.947
818.92	54.135
819.09	41.562
819.27	40.250
819.44	50.356
819.61	44.804
819.79	53.468
819.96	41.096
820.13	39.759
820.31	45.884
820.48	48.065
820.65	44.220
820.82	43.503
821.00	39.108
821.17	36.012
821.34	37.500
821.52	39.021
821.69	44.198
821.86	37.045
822.04	42.804
822.21	38.354
822.38	42.221
822.56	36.863
822.73	43.256
822.90	38.988
823.07	41.734
823.25	37.404
823.42	42.083
823.59	40.499
823.77	41.402
823.94	41.470
824.11	43.613
824.29	38.341
824.46	42.197
824.63	41.812
824.80	43.676
824.98	41.045
825.15	41.827
825.32	37.009
825.49	41.572
825.67	39.385
825.84	42.530
826.01	38.500
826.19	46.250
826.36	38.056
826.53	44.236
826.70	44.880
826.88	44.265
827.05	38.180
827.22	37.659
827.39	39.180
827.57	38.240
827.74	35.386
827.91	40.396
828.08	34.711
828.26	41.938
828.43	34.444
828.60	40.426
828.77	38.699
828.95	43.161
829.12	41.292
829.29	38.967
829.46	37.429
829.64	39.915
829.81	36.776
829.98	47.512
830.15	42.839
830.32	42.913
830.50	26.890
830.67	47.682
830.84	43.297
831.01	41.416
831.19	41.296
831.36	45.817
831.53	40.359
831.70	51.954
831.87	37.712
832.05	57.944
832.22	47.778
832.39	44.681
832.56	46.438
832.74	36.406
832.91	49.626
833.08	46.368
833.25	43.350
833.42	44.259
833.60	39.091
833.77	42.014
833.94	37.540
834.11	41.019
834.28	33.540
834.45	33.333
834.63	38.611
834.80	41.344
834.97	38.851
835.14	41.713
835.31	34.357
835.49	37.661
835.66	36.375
835.83	39.309
836.00	41.132
836.17	42.675
836.34	43.338
836.52	35.123
836.69	39.717
836.86	41.727
837.03	48.399
837.20	44.815
837.37	37.795
837.55	50.625
837.72	41.913
837.89	55.303
838.06	49.143
838.23	56.863
838.40	62.651
838.58	44.092
838.75	64.686
838.92	60.062
839.09	57.732
839.26	58.086
839.43	77.474
839.60	62.763
839.78	68.831
839.95	56.676
840.12	62.116
840.29	58.644
840.46	58.896
840.63	71.473
840.80	53.398
840.98	67.628
841.15	57.813
841.32	57.576
841.49	52.941
841.66	64.810
841.83	58.385
842.00	65.449
842.17	47.159
842.34	57.432
842.52	80.667
842.69	52.542
842.86	68.605
843.03	80.812
843.20	55.556
843.37	64.207
843.54	59.551
843.71	64.732
843.88	69.333
844.06	85.600
844.23	67.143
844.40	69.778
844.57	74.033
844.74	96.951
844.91	67.633
845.08	96.591
845.25	76.329
845.42	59.677
845.59	67.895
845.76	68.205
845.94	85.644
846.11	91.781
846.28	85.714
846.45	84.270
846.62	89.610
846.79	78.767
846.96	87.654
847.13	74.419
847.30	91.724
847.47	64.748
847.64	113.953
847.81	131.356
847.98	70.854
848.15	108.759
848.32	93.711
848.50	117.964
848.67	69.540
848.84	107.534
849.01	99.441
849.18	70.619
849.35	125.781
849.52	70.690
849.69	96.689
849.86	77.551
850.03	105.224
850.20	87.135
850.37	100.840
850.54	70.950
850.71	68.874
850.88	60.335
851.05	75.424
851.22	64.607
851.39	112.613
851.56	94.643
851.73	87.421
851.90	98.758
852.07	146.617
852.24	93.421
852.41	86.667
852.58	116.197
852.75	134.483
852.92	75.122
853.09	89.844
853.26	72.487
853.43	129.245
853.60	63.483
853.77	154.430
853.94	102.190
854.11	90.909
854.28	112.000
854.45	52.344
854.62	88.832
854.79	107.843
854.96	106.400
855.13	76.023
855.30	153.061
855.47	108.621
855.64	109.774
855.81	75.806
855.98	99.206
856.15	107.207
856.32	84.906
856.49	98.450
856.66	83.217
856.83	71.970
857.00	86.928
857.17	114.615
857.34	77.895
857.51	103.597
857.68	85.946
857.85	72.727
858.02	91.852
858.19	105.405
858.36	83.636
858.53	89.032
858.70	73.653
858.87	93.671
859.04	91.129
859.21	77.703
859.38	90.351
859.55	111.940
859.72	97.701
859.89	71.942
860.05	115.315
860.22	89.529
860.39	121.429
860.56	113.740
860.73	143.902
860.90	93.578
861.07	93.421
861.24	101.316
861.41	143.519
861.58	96.875
861.75	88.148
861.92	114.474
862.09	75.556
862.26	82.051
862.43	118.812
862.59	95.588
862.76	106.294
862.93	133.708
863.10	96.190
863.27	116.239
863.44	103.448
863.61	81.022
863.78	88.571
863.95	107.843
864.12	83.333
864.29	88.034
864.45	98.276
864.62	60.452
864.79	107.752
864.96	101.626
865.13	109.009
865.30	106.211
865.47	87.805
865.64	83.453
865.81	93.893
865.97	89.333
866.14	77.551
866.31	81.667
866.48	92.715
866.65	89.103
866.82	87.975
866.99	97.436
867.16	91.729
867.33	126.882
867.49	82.716
867.66	125.773
867.83	82.677
868.00	95.890
868.17	97.521
868.34	106.140
868.51	119.048
868.67	107.595
868.84	86.667
869.01	88.000
869.18	89.362
869.35	88.372
869.52	85.714
869.69	91.781
869.85	112.150
870.02	93.269
870.19	105.932
870.36	116.552
870.53	62.857
870.70	88.050
870.86	99.000
871.03	104.321
871.20	104.587
871.37	100.000
871.54	103.378
871.71	105.714
871.87	68.553
872.04	65.714
872.21	132.174
872.38	82.927
872.55	101.235
872.72	60.937
872.88	101.117
873.05	122.989
873.22	94.558
873.39	104.082
873.56	84.615
873.72	65.882
873.89	76.398
874.06	68.657
874.23	135.593
874.40	100.000
874.56	142.105
874.73	115.854
874.90	86.441
875.07	93.571
875.24	73.913
875.40	87.395
875.57	120.183
875.74	136.000
875.91	121.101
876.08	96.522
876.24	90.698
876.41	154.400
876.58	95.745
876.75	91.489
876.92	83.088
877.08	107.353
877.25	72.174
877.42	107.031
877.59	94.898
877.75	69.333
877.92	52.976
878.09	114.583
878.26	70.659
878.42	69.375
878.59	110.435
878.76	76.316
878.93	83.582
879.09	84.848
879.26	59.146
879.43	74.595
879.60	58.042
879.76	55.114
879.93	56.111
880.10	60.667
880.27	57.764
880.43	86.592
880.60	43.836
880.77	53.977
880.94	18.408
881.10	32.448
881.27	57.377
881.44	32.578
881.61	44.170
881.77	35.564
881.94	24.458
882.11	28.521
882.28	25.728
882.44	27.135
882.61	32.771
882.78	28.195
882.94	36.894
883.11	36.397
883.28	27.361
883.45	32.408
883.61	28.238
883.78	28.857
883.95	32.746
884.11	27.075
884.28	28.608
>>>>>End Processed Spectral Data<<<<<
