SpectraSuite Data File
++++++++++++++++++++++++++++++++++++
Date: Sat Sep 21 04:28:12 EST 2019
User: sgrac
Dark Spectrum Present: Yes
Reference Spectrum Present: Yes
Number of Sampled Component Spectra: 1
Spectrometers: USB4E01596
Integration Time (usec): 100000 (USB4E01596)
Spectra Averaged: 1 (USB4E01596)
Boxcar Smoothing: 0 (USB4E01596)
Correct for Electrical Dark: No (USB4E01596)
Strobe/Lamp Enabled: Yes (USB4E01596)
Correct for Detector Non-linearity: No (USB4E01596)
Correct for Stray Light: No (USB4E01596)
Number of Pixels in Processed Spectrum: 3648
>>>>>Begin Processed Spectral Data<<<<<
178.44	-671.429
178.66	-671.429
178.87	-671.429
179.09	28.571
179.30	-300.000
179.52	0.000
179.74	-1450.000
179.95	1016.667
180.17	760.000
180.38	6500.000
180.60	0.000
180.82	566.667
181.03	-415.789
181.25	491.304
181.46	-190.323
181.68	445.833
181.89	10300.000
182.11	368.571
182.33	-202.222
182.54	-312.500
182.76	-6200.000
182.97	840.000
183.19	2600.000
183.40	268.966
183.62	-174.074
183.84	-229.630
184.05	456.522
184.27	458.333
184.48	1114.286
184.70	184.000
184.91	-680.000
185.13	222.222
185.34	-117.857
185.56	121.667
185.78	0.000
185.99	553.333
186.21	396.552
186.42	520.000
186.64	209.677
186.85	233.333
187.07	209.091
187.28	433.333
187.50	-453.333
187.72	1860.000
187.93	-11100.000
188.15	206.000
188.36	-464.706
188.58	-3300.000
188.79	368.182
189.01	372.222
189.22	2040.000
189.44	2650.000
189.65	326.667
189.87	1125.000
190.09	-1500.000
190.30	1037.500
190.52	-4550.000
190.73	178.571
190.95	346.429
191.16	244.444
191.38	600.000
191.59	123.810
191.81	172.222
192.02	297.872
192.24	517.647
192.45	-2440.000
192.67	402.857
192.88	450.000
193.10	296.000
193.31	480.000
193.53	-9300.000
193.74	150.000
193.96	550.000
194.18	393.548
194.39	-500.000
194.61	547.368
194.82	461.905
195.04	247.619
195.25	5400.000
195.47	302.439
195.68	259.574
195.90	780.000
196.11	205.455
196.33	265.957
196.54	-4433.333
196.76	578.571
196.97	-1633.333
197.19	346.429
197.40	197.059
197.62	189.063
197.83	160.811
198.05	-442.105
198.26	220.000
198.48	280.556
198.69	193.023
198.91	245.098
199.12	-251.429
199.34	-1320.000
199.55	1000.000
199.77	3050.000
199.98	360.000
200.20	183.099
200.41	342.857
200.63	-500.000
200.84	196.078
201.06	653.846
201.27	291.892
201.49	1500.000
201.70	218.519
201.91	202.174
202.13	152.174
202.34	196.226
202.56	-885.714
202.77	644.444
202.99	496.429
203.20	3900.000
203.42	825.000
203.63	186.047
203.85	331.429
204.06	212.963
204.28	-960.000
204.49	140.000
204.71	148.718
204.92	0.000
205.14	-485.714
205.35	577.778
205.56	-2660.000
205.78	342.857
205.99	650.000
206.21	-67.742
206.42	329.032
206.64	253.571
206.85	1700.000
207.07	-692.308
207.28	728.571
207.50	-426.316
207.71	271.795
207.93	306.818
208.14	623.529
208.35	442.105
208.57	-6600.000
208.78	669.231
209.00	422.222
209.21	-3650.000
209.43	206.897
209.64	276.471
209.86	1128.571
210.07	0.000
210.28	-711.765
210.50	144.898
210.71	238.596
210.93	295.238
211.14	-377.778
211.36	-290.323
211.57	-133.333
211.78	-204.348
212.00	0.000
212.21	300.000
212.43	-195.455
212.64	187.931
212.86	-962.500
213.07	-372.727
213.29	292.105
213.50	4300.000
213.71	245.283
213.93	1342.857
214.14	116.667
214.36	6500.000
214.57	434.615
214.78	750.000
215.00	5750.000
215.21	238.889
215.43	324.000
215.64	379.487
215.86	194.286
216.07	7500.000
216.28	320.000
216.50	-1057.143
216.71	-1780.000
216.93	278.723
217.14	331.250
217.35	329.630
217.57	235.714
217.78	1275.000
218.00	-780.000
218.21	289.474
218.42	-1600.000
218.64	511.765
218.85	-811.111
219.07	528.571
219.28	1375.000
219.49	146.053
219.71	3100.000
219.92	197.222
220.14	370.833
220.35	365.000
220.56	212.821
220.78	317.647
220.99	-3300.000
221.21	395.238
221.42	516.667
221.63	322.500
221.85	158.065
222.06	278.571
222.28	259.091
222.49	-3600.000
222.70	0.000
222.92	322.222
223.13	323.333
223.34	-1925.000
223.56	223.684
223.77	86.517
223.99	205.128
224.20	209.524
224.41	221.622
224.63	247.222
224.84	112.069
225.05	175.000
225.27	131.429
225.48	158.696
225.69	828.571
225.91	233.333
226.12	255.556
226.34	139.216
226.55	77.778
226.76	161.290
226.98	192.000
227.19	131.818
227.40	84.298
227.62	97.561
227.83	104.000
228.04	108.791
228.26	61.386
228.47	124.138
228.69	56.579
228.90	105.634
229.11	50.370
229.33	43.961
229.54	42.105
229.75	33.913
229.97	50.644
230.18	30.108
230.39	36.709
230.61	25.786
230.82	36.100
231.03	13.693
231.25	27.273
231.46	45.255
231.67	35.178
231.89	54.118
232.10	33.603
232.31	48.558
232.53	34.463
232.74	37.500
232.95	33.735
233.17	43.931
233.38	53.731
233.59	91.176
233.81	53.883
234.02	62.500
234.23	36.898
234.45	77.632
234.66	44.068
234.87	62.416
235.09	77.778
235.30	50.575
235.51	57.282
235.73	49.686
235.94	65.803
236.15	50.000
236.36	61.905
236.58	46.919
236.79	53.927
237.00	23.671
237.22	39.506
237.43	50.490
237.64	30.131
237.86	59.783
238.07	70.352
238.28	46.995
238.50	48.696
238.71	33.136
238.92	17.262
239.13	40.000
239.35	40.559
239.56	52.083
239.77	61.951
239.99	26.887
240.20	32.105
240.41	39.224
240.63	36.032
240.84	37.450
241.05	21.898
241.26	28.099
241.48	27.434
241.69	27.848
241.90	21.408
242.12	19.643
242.33	17.241
242.54	15.778
242.75	22.581
242.97	18.966
243.18	14.983
243.39	14.732
243.61	15.142
243.82	16.923
244.03	13.669
244.24	6.135
244.46	14.519
244.67	13.922
244.88	16.432
245.09	16.528
245.31	7.869
245.52	28.309
245.73	16.926
245.95	31.557
246.16	9.328
246.37	16.860
246.58	11.589
246.80	16.268
247.01	10.860
247.22	11.558
247.43	9.888
247.65	12.608
247.86	7.722
248.07	6.355
248.28	7.030
248.50	6.213
248.71	9.251
248.92	5.895
249.13	8.425
249.35	8.984
249.56	8.743
249.77	7.540
249.98	6.119
250.20	10.556
250.41	12.849
250.62	9.398
250.83	16.348
251.05	9.149
251.26	13.793
251.47	17.117
251.68	18.464
251.90	15.942
252.11	13.415
252.32	18.044
252.53	17.990
252.75	7.040
252.96	15.385
253.17	11.234
253.38	14.324
253.59	14.124
253.81	17.695
254.02	12.971
254.23	16.981
254.44	15.542
254.66	13.884
254.87	18.773
255.08	15.568
255.29	26.707
255.50	21.075
255.72	28.899
255.93	37.956
256.14	22.500
256.35	26.464
256.57	17.060
256.78	25.799
256.99	20.681
257.20	30.340
257.41	32.091
257.63	14.110
257.84	17.635
258.05	11.458
258.26	12.432
258.47	18.962
258.69	19.313
258.90	9.161
259.11	5.304
259.32	12.873
259.53	9.115
259.75	6.557
259.96	6.755
260.17	6.553
260.38	4.854
260.59	4.741
260.81	6.194
261.02	7.517
261.23	7.321
261.44	5.793
261.65	4.893
261.87	4.000
262.08	6.047
262.29	7.651
262.50	7.461
262.71	7.373
262.92	8.369
263.14	13.966
263.35	7.021
263.56	7.294
263.77	11.935
263.98	15.344
264.20	14.508
264.41	10.635
264.62	14.960
264.83	11.158
265.04	15.481
265.25	14.099
265.47	13.142
265.68	18.367
265.89	17.471
266.10	6.579
266.31	17.212
266.52	14.286
266.74	9.437
266.95	8.246
267.16	10.954
267.37	14.125
267.58	10.357
267.79	11.235
268.01	11.319
268.22	10.778
268.43	8.247
268.64	8.796
268.85	12.060
269.06	8.790
269.27	11.815
269.49	8.628
269.70	5.163
269.91	11.953
270.12	10.561
270.33	12.013
270.54	13.326
270.75	6.667
270.97	10.905
271.18	8.615
271.39	8.401
271.60	11.044
271.81	8.577
272.02	10.197
272.23	10.342
272.45	7.907
272.66	5.486
272.87	6.143
273.08	6.481
273.29	9.819
273.50	7.750
273.71	7.143
273.92	7.061
274.14	4.191
274.35	2.996
274.56	8.025
274.77	8.739
274.98	11.794
275.19	9.236
275.40	8.856
275.61	7.397
275.83	8.116
276.04	8.027
276.25	9.118
276.46	7.924
276.67	7.803
276.88	8.480
277.09	6.838
277.30	7.900
277.51	12.243
277.73	6.300
277.94	13.312
278.15	5.780
278.36	6.282
278.57	9.426
278.78	10.100
278.99	11.122
279.20	8.137
279.41	9.654
279.62	4.701
279.84	6.356
280.05	10.359
280.26	12.422
280.47	7.964
280.68	2.183
280.89	13.077
281.10	9.100
281.31	5.894
281.52	9.701
281.73	11.725
281.94	5.455
282.16	9.765
282.37	10.415
282.58	11.341
282.79	7.221
283.00	11.696
283.21	6.774
283.42	7.165
283.63	4.280
283.84	9.779
284.05	7.631
284.26	8.936
284.47	6.250
284.68	7.315
284.89	8.761
285.11	6.144
285.32	5.576
285.53	5.196
285.74	8.409
285.95	5.548
286.16	5.952
286.37	6.250
286.58	6.160
286.79	5.642
287.00	5.839
287.21	5.338
287.42	5.858
287.63	4.599
287.84	3.899
288.05	4.795
288.26	6.189
288.48	5.808
288.69	6.183
288.90	2.409
289.11	6.884
289.32	6.259
289.53	9.384
289.74	7.286
289.95	7.749
290.16	11.538
290.37	5.841
290.58	7.292
290.79	7.075
291.00	6.602
291.21	4.219
291.42	4.696
291.63	3.283
291.84	6.372
292.05	5.239
292.26	7.880
292.47	6.899
292.68	4.315
292.89	7.364
293.10	5.839
293.31	9.091
293.52	6.505
293.73	8.675
293.94	5.740
294.15	8.429
294.36	2.802
294.57	10.198
294.79	10.008
295.00	7.035
295.21	4.454
295.42	7.655
295.63	4.996
295.84	6.970
296.05	6.224
296.26	5.563
296.47	9.229
296.68	6.135
296.89	5.900
297.10	6.208
297.31	7.363
297.52	8.514
297.73	4.974
297.94	5.242
298.15	3.682
298.36	6.345
298.57	4.663
298.78	8.570
298.99	2.821
299.20	4.916
299.41	4.772
299.62	7.489
299.83	6.413
300.04	6.843
300.25	5.112
300.46	6.595
300.67	4.431
300.88	8.094
301.09	4.431
301.30	6.658
301.50	8.944
301.71	8.595
301.92	8.824
302.13	7.806
302.34	5.253
302.55	5.018
302.76	5.502
302.97	9.845
303.18	7.559
303.39	4.501
303.60	5.153
303.81	7.963
304.02	6.345
304.23	6.918
304.44	7.564
304.65	4.003
304.86	5.263
305.07	5.760
305.28	5.614
305.49	9.979
305.70	8.155
305.91	7.497
306.12	4.964
306.33	5.190
306.54	7.997
306.75	8.726
306.96	8.971
307.17	7.902
307.38	7.023
307.58	7.893
307.79	8.580
308.00	5.656
308.21	7.870
308.42	9.776
308.63	10.179
308.84	9.059
309.05	5.423
309.26	5.106
309.47	6.350
309.68	4.930
309.89	6.246
310.10	6.359
310.31	7.975
310.52	2.968
310.73	6.810
310.94	5.745
311.14	4.338
311.35	3.956
311.56	4.538
311.77	4.615
311.98	6.838
312.19	7.174
312.40	4.461
312.61	6.216
312.82	5.699
313.03	4.388
313.24	6.101
313.45	7.810
313.66	4.070
313.86	7.665
314.07	7.528
314.28	6.209
314.49	6.372
314.70	7.546
314.91	8.056
315.12	7.362
315.33	6.436
315.54	6.387
315.75	7.512
315.96	6.374
316.16	8.276
316.37	7.192
316.58	7.286
316.79	6.969
317.00	11.379
317.21	7.661
317.42	5.989
317.63	7.627
317.84	8.273
318.05	8.053
318.25	7.610
318.46	8.609
318.67	6.195
318.88	6.825
319.09	7.941
319.30	7.168
319.51	6.310
319.72	7.605
319.93	7.631
320.13	8.628
320.34	9.362
320.55	8.136
320.76	9.724
320.97	7.505
321.18	9.605
321.39	6.647
321.60	9.328
321.80	12.837
322.01	9.857
322.22	6.075
322.43	5.845
322.64	5.279
322.85	4.988
323.06	10.165
323.27	9.110
323.47	8.998
323.68	9.738
323.89	9.588
324.10	8.881
324.31	6.498
324.52	9.021
324.73	8.636
324.93	7.179
325.14	3.593
325.35	7.641
325.56	8.568
325.77	6.323
325.98	7.041
326.19	7.745
326.39	5.545
326.60	7.547
326.81	5.378
327.02	8.516
327.23	4.053
327.44	8.432
327.64	7.911
327.85	7.570
328.06	8.994
328.27	10.628
328.48	8.206
328.69	6.642
328.90	9.892
329.10	8.096
329.31	5.355
329.52	10.150
329.73	8.399
329.94	8.102
330.15	7.477
330.35	7.666
330.56	6.309
330.77	5.763
330.98	7.656
331.19	6.271
331.39	8.868
331.60	7.628
331.81	10.027
332.02	9.705
332.23	7.275
332.44	5.673
332.64	6.619
332.85	7.749
333.06	8.444
333.27	5.490
333.48	5.013
333.68	7.716
333.89	7.063
334.10	2.928
334.31	9.741
334.52	7.980
334.72	7.030
334.93	7.599
335.14	7.089
335.35	6.175
335.56	7.821
335.76	7.372
335.97	8.902
336.18	10.445
336.39	8.074
336.60	8.059
336.80	7.486
337.01	8.413
337.22	5.733
337.43	7.165
337.64	5.179
337.84	3.480
338.05	6.467
338.26	9.262
338.47	8.734
338.68	5.502
338.88	7.024
339.09	8.683
339.30	6.979
339.51	4.947
339.71	7.541
339.92	6.690
340.13	7.970
340.34	8.200
340.55	5.854
340.75	7.035
340.96	6.949
341.17	7.800
341.38	6.473
341.58	6.989
341.79	7.069
342.00	5.565
342.21	7.080
342.41	5.879
342.62	7.298
342.83	8.817
343.04	3.708
343.24	5.984
343.45	6.724
343.66	4.596
343.87	8.944
344.07	5.710
344.28	5.778
344.49	9.155
344.70	9.216
344.90	6.422
345.11	6.535
345.32	6.346
345.53	6.074
345.73	8.584
345.94	8.959
346.15	8.787
346.36	5.268
346.56	4.993
346.77	7.669
346.98	5.475
347.19	6.016
347.39	8.980
347.60	5.117
347.81	9.032
348.02	7.300
348.22	4.782
348.43	6.421
348.64	7.941
348.84	4.389
349.05	6.900
349.26	7.833
349.47	5.580
349.67	8.139
349.88	8.347
350.09	6.371
350.30	8.292
350.50	4.291
350.71	6.335
350.92	7.733
351.12	4.510
351.33	5.919
351.54	8.101
351.74	7.474
351.95	6.519
352.16	7.542
352.37	7.320
352.57	6.814
352.78	6.513
352.99	8.224
353.19	7.407
353.40	7.938
353.61	10.120
353.82	8.871
354.02	8.582
354.23	7.287
354.44	6.619
354.64	7.948
354.85	7.277
355.06	9.001
355.26	4.390
355.47	5.174
355.68	7.585
355.88	9.879
356.09	7.726
356.30	4.175
356.51	9.229
356.71	6.948
356.92	4.354
357.13	6.497
357.33	7.374
357.54	3.537
357.75	5.728
357.95	6.158
358.16	5.076
358.37	7.518
358.57	6.201
358.78	7.169
358.99	4.921
359.19	5.018
359.40	8.091
359.61	5.856
359.81	6.597
360.02	7.417
360.23	3.909
360.43	7.533
360.64	6.121
360.85	5.812
361.05	5.269
361.26	7.114
361.47	5.618
361.67	8.796
361.88	3.780
362.09	5.641
362.29	5.093
362.50	4.457
362.70	4.781
362.91	5.077
363.12	2.809
363.32	3.582
363.53	4.980
363.74	5.955
363.94	4.363
364.15	5.726
364.36	5.968
364.56	3.086
364.77	6.624
364.98	7.083
365.18	5.351
365.39	5.247
365.59	5.015
365.80	6.289
366.01	6.049
366.21	4.345
366.42	3.941
366.63	4.805
366.83	5.729
367.04	3.766
367.24	7.701
367.45	5.037
367.66	3.508
367.86	6.271
368.07	5.277
368.28	4.507
368.48	4.087
368.69	3.652
368.89	3.947
369.10	3.478
369.31	5.475
369.51	4.177
369.72	5.379
369.92	5.385
370.13	3.984
370.34	6.997
370.54	4.293
370.75	5.023
370.95	6.645
371.16	5.192
371.37	5.030
371.57	4.786
371.78	6.132
371.98	5.921
372.19	5.102
372.40	5.601
372.60	6.122
372.81	5.364
373.01	3.433
373.22	5.240
373.43	6.210
373.63	6.151
373.84	3.287
374.04	6.372
374.25	4.149
374.46	4.814
374.66	3.843
374.87	4.382
375.07	3.814
375.28	4.321
375.48	3.963
375.69	5.630
375.90	4.643
376.10	4.368
376.31	4.998
376.51	4.932
376.72	4.175
376.92	3.741
377.13	3.671
377.34	6.218
377.54	5.307
377.75	5.541
377.95	5.245
378.16	4.811
378.36	3.632
378.57	4.565
378.77	5.225
378.98	2.886
379.19	4.675
379.39	3.434
379.60	3.833
379.80	4.480
380.01	4.274
380.21	4.430
380.42	3.768
380.62	4.686
380.83	4.245
381.04	3.154
381.24	4.367
381.45	3.106
381.65	4.112
381.86	4.799
382.06	4.633
382.27	2.241
382.47	4.450
382.68	6.079
382.88	2.042
383.09	2.546
383.29	4.182
383.50	5.363
383.71	4.453
383.91	3.377
384.12	2.732
384.32	4.466
384.53	3.841
384.73	2.765
384.94	3.182
385.14	3.713
385.35	2.791
385.55	3.023
385.76	3.136
385.96	4.583
386.17	4.649
386.37	4.163
386.58	3.645
386.78	3.774
386.99	3.220
387.19	3.461
387.40	2.777
387.60	4.288
387.81	3.661
388.01	2.994
388.22	3.798
388.42	4.310
388.63	4.353
388.83	5.419
389.04	2.638
389.24	3.879
389.45	3.395
389.65	3.594
389.86	4.260
390.06	3.755
390.27	3.003
390.47	2.735
390.68	2.833
390.88	4.767
391.09	4.019
391.29	3.271
391.50	4.971
391.70	3.419
391.91	4.188
392.11	2.918
392.32	4.099
392.52	3.727
392.73	2.645
392.93	3.527
393.14	2.711
393.34	3.083
393.55	3.435
393.75	3.313
393.95	2.843
394.16	3.327
394.36	4.712
394.57	5.214
394.77	3.169
394.98	3.833
395.18	2.776
395.39	2.857
395.59	3.546
395.80	3.666
396.00	3.836
396.21	2.822
396.41	3.729
396.61	3.604
396.82	4.141
397.02	4.885
397.23	5.418
397.43	4.121
397.64	2.624
397.84	5.238
398.05	3.874
398.25	3.955
398.45	3.544
398.66	5.176
398.86	3.539
399.07	4.112
399.27	3.729
399.48	3.920
399.68	2.221
399.89	3.498
400.09	4.961
400.29	2.932
400.50	3.420
400.70	3.862
400.91	2.412
401.11	2.623
401.32	3.754
401.52	3.541
401.72	3.857
401.93	4.108
402.13	4.242
402.34	3.371
402.54	3.942
402.75	4.437
402.95	3.870
403.15	4.030
403.36	2.122
403.56	1.987
403.77	2.104
403.97	2.518
404.17	3.211
404.38	3.139
404.58	2.945
404.79	4.315
404.99	2.245
405.19	3.983
405.40	2.513
405.60	3.664
405.81	3.459
406.01	1.967
406.21	2.663
406.42	4.328
406.62	2.237
406.83	2.553
407.03	3.514
407.23	2.464
407.44	3.181
407.64	3.471
407.85	3.992
408.05	3.244
408.25	0.877
408.46	3.572
408.66	3.902
408.87	2.474
409.07	3.987
409.27	2.283
409.48	4.956
409.68	3.932
409.88	3.260
410.09	3.628
410.29	4.020
410.50	4.044
410.70	0.314
410.90	3.259
411.11	1.921
411.31	3.083
411.51	3.865
411.72	3.830
411.92	2.250
412.12	2.159
412.33	2.239
412.53	2.979
412.74	2.182
412.94	1.230
413.14	3.630
413.35	3.175
413.55	3.222
413.75	3.493
413.96	2.739
414.16	2.646
414.36	3.557
414.57	4.081
414.77	4.061
414.97	2.548
415.18	4.030
415.38	3.844
415.58	2.609
415.79	2.853
415.99	3.254
416.19	2.823
416.40	3.437
416.60	2.799
416.80	2.824
417.01	3.336
417.21	1.986
417.41	3.135
417.62	2.906
417.82	2.914
418.02	1.836
418.23	2.522
418.43	3.210
418.63	2.080
418.84	2.635
419.04	2.635
419.24	2.682
419.45	2.574
419.65	2.569
419.85	2.551
420.06	2.611
420.26	2.370
420.46	2.367
420.67	3.052
420.87	3.186
421.07	3.061
421.28	2.290
421.48	2.853
421.68	2.717
421.88	3.209
422.09	2.517
422.29	2.324
422.49	2.192
422.70	2.469
422.90	2.507
423.10	2.981
423.31	2.449
423.51	2.666
423.71	2.442
423.91	2.711
424.12	2.999
424.32	2.426
424.52	2.511
424.73	3.015
424.93	2.668
425.13	2.623
425.33	2.322
425.54	3.014
425.74	2.508
425.94	2.627
426.15	3.076
426.35	2.466
426.55	3.005
426.75	3.003
426.96	3.363
427.16	2.726
427.36	2.522
427.57	3.716
427.77	2.438
427.97	3.284
428.17	3.566
428.38	3.255
428.58	2.195
428.78	2.668
428.98	2.722
429.19	2.375
429.39	2.777
429.59	3.099
429.79	2.500
430.00	1.313
430.20	1.480
430.40	3.390
430.60	2.520
430.81	2.738
431.01	1.979
431.21	2.709
431.41	1.903
431.62	2.500
431.82	3.288
432.02	3.426
432.22	2.557
432.43	2.447
432.63	1.414
432.83	2.000
433.03	2.988
433.24	1.885
433.44	2.721
433.64	1.873
433.84	2.138
434.05	2.741
434.25	1.698
434.45	1.830
434.65	2.535
434.85	3.252
435.06	2.599
435.26	2.096
435.46	2.244
435.66	2.174
435.87	2.241
436.07	2.204
436.27	2.865
436.47	2.367
436.67	2.356
436.88	2.791
437.08	2.642
437.28	2.182
437.48	2.988
437.69	3.140
437.89	2.684
438.09	2.693
438.29	2.244
438.49	2.482
438.70	3.180
438.90	2.064
439.10	1.851
439.30	3.167
439.50	2.317
439.71	2.171
439.91	2.113
440.11	3.277
440.31	2.922
440.51	1.988
440.72	1.933
440.92	1.731
441.12	2.562
441.32	3.217
441.52	2.667
441.72	3.100
441.93	2.420
442.13	3.070
442.33	1.874
442.53	3.186
442.73	2.362
442.94	2.370
443.14	1.776
443.34	3.202
443.54	2.950
443.74	3.080
443.94	3.201
444.15	1.915
444.35	2.063
444.55	2.809
444.75	2.537
444.95	2.727
445.15	2.353
445.36	2.680
445.56	1.962
445.76	2.953
445.96	2.041
446.16	1.836
446.36	1.426
446.57	3.129
446.77	1.634
446.97	2.468
447.17	3.043
447.37	2.383
447.57	2.460
447.77	2.402
447.98	2.134
448.18	3.512
448.38	2.186
448.58	3.181
448.78	2.800
448.98	2.588
449.18	2.394
449.39	2.008
449.59	2.214
449.79	2.046
449.99	1.902
450.19	2.885
450.39	2.402
450.59	2.263
450.79	2.255
451.00	3.066
451.20	3.729
451.40	2.301
451.60	2.621
451.80	2.198
452.00	2.352
452.20	1.985
452.40	2.314
452.61	2.150
452.81	2.349
453.01	2.817
453.21	1.599
453.41	2.098
453.61	2.560
453.81	2.174
454.01	2.090
454.21	2.613
454.42	2.909
454.62	2.451
454.82	2.685
455.02	1.791
455.22	1.645
455.42	2.207
455.62	1.625
455.82	2.400
456.02	2.244
456.23	1.725
456.43	2.287
456.63	1.723
456.83	1.685
457.03	2.441
457.23	2.352
457.43	2.503
457.63	1.516
457.83	2.314
458.03	1.853
458.23	2.214
458.43	2.652
458.64	1.878
458.84	2.338
459.04	1.829
459.24	1.924
459.44	2.381
459.64	2.253
459.84	2.406
460.04	2.205
460.24	2.259
460.44	2.397
460.64	2.167
460.84	1.836
461.04	2.630
461.24	2.221
461.45	2.836
461.65	2.446
461.85	2.502
462.05	2.510
462.25	2.617
462.45	3.184
462.65	2.374
462.85	1.956
463.05	2.760
463.25	2.313
463.45	2.705
463.65	2.263
463.85	1.696
464.05	2.307
464.25	1.946
464.45	2.721
464.65	2.091
464.85	2.041
465.05	2.119
465.26	2.433
465.46	2.774
465.66	2.519
465.86	3.024
466.06	2.606
466.26	2.136
466.46	2.197
466.66	2.244
466.86	2.470
467.06	2.030
467.26	1.978
467.46	2.471
467.66	2.103
467.86	2.535
468.06	2.353
468.26	2.095
468.46	2.334
468.66	1.811
468.86	1.797
469.06	2.105
469.26	1.785
469.46	2.490
469.66	1.303
469.86	2.672
470.06	2.293
470.26	2.832
470.46	2.061
470.66	2.800
470.86	2.259
471.06	2.568
471.26	1.792
471.46	1.941
471.66	2.932
471.86	2.292
472.06	2.339
472.26	2.721
472.46	3.303
472.66	2.566
472.86	2.115
473.06	1.879
473.26	2.479
473.46	1.804
473.66	2.513
473.86	2.692
474.06	2.606
474.26	1.994
474.46	2.168
474.66	2.358
474.86	2.629
475.06	2.310
475.26	1.883
475.46	2.104
475.66	2.029
475.86	3.008
476.06	2.189
476.26	3.140
476.46	2.278
476.66	2.399
476.86	2.062
477.06	1.841
477.26	1.865
477.46	2.636
477.65	1.807
477.85	2.924
478.05	2.335
478.25	2.330
478.45	1.911
478.65	1.900
478.85	1.869
479.05	2.244
479.25	2.059
479.45	2.184
479.65	1.725
479.85	1.977
480.05	2.066
480.25	2.537
480.45	2.099
480.65	2.629
480.85	1.557
481.05	2.402
481.25	2.354
481.44	2.453
481.64	1.469
481.84	2.674
482.04	2.600
482.24	2.334
482.44	1.543
482.64	2.162
482.84	2.665
483.04	2.619
483.24	2.215
483.44	2.733
483.64	2.609
483.84	3.179
484.04	3.148
484.23	3.804
484.43	3.521
484.63	3.936
484.83	3.441
485.03	4.332
485.23	4.029
485.43	4.050
485.63	3.883
485.83	4.352
486.03	3.812
486.23	4.315
486.42	3.549
486.62	3.613
486.82	2.887
487.02	3.218
487.22	2.608
487.42	3.558
487.62	3.178
487.82	3.213
488.02	2.929
488.22	3.869
488.41	3.171
488.61	3.667
488.81	3.381
489.01	3.739
489.21	3.313
489.41	3.680
489.61	3.505
489.81	3.651
490.01	2.910
490.20	3.553
490.40	3.151
490.60	3.123
490.80	2.918
491.00	3.331
491.20	2.830
491.40	2.466
491.60	2.481
491.79	2.801
491.99	2.779
492.19	3.235
492.39	3.099
492.59	3.523
492.79	2.983
492.99	3.559
493.19	2.970
493.38	3.513
493.58	2.791
493.78	3.193
493.98	3.285
494.18	3.467
494.38	2.587
494.58	3.333
494.77	1.525
494.97	2.594
495.17	2.257
495.37	2.426
495.57	2.814
495.77	2.225
495.96	2.501
496.16	2.174
496.36	2.285
496.56	3.465
496.76	1.874
496.96	2.010
497.15	1.731
497.35	2.082
497.55	1.916
497.75	2.269
497.95	1.656
498.15	2.905
498.34	2.405
498.54	2.064
498.74	2.801
498.94	2.765
499.14	1.775
499.34	2.802
499.53	2.156
499.73	2.633
499.93	2.152
500.13	2.374
500.33	1.616
500.52	2.110
500.72	2.000
500.92	2.132
501.12	1.979
501.32	2.254
501.52	2.435
501.71	2.476
501.91	1.777
502.11	2.129
502.31	2.003
502.51	2.071
502.70	1.745
502.90	2.007
503.10	2.073
503.30	2.359
503.50	1.930
503.69	2.199
503.89	2.136
504.09	2.119
504.29	2.167
504.48	2.455
504.68	3.008
504.88	2.295
505.08	1.654
505.28	1.710
505.47	1.917
505.67	3.258
505.87	2.390
506.07	2.283
506.27	1.296
506.46	2.360
506.66	2.094
506.86	2.184
507.06	2.491
507.25	2.300
507.45	2.421
507.65	2.269
507.85	1.685
508.04	1.990
508.24	2.399
508.44	2.105
508.64	2.191
508.83	2.498
509.03	2.105
509.23	2.627
509.43	1.716
509.63	2.745
509.82	1.874
510.02	2.250
510.22	1.452
510.42	2.412
510.61	2.474
510.81	2.360
511.01	1.999
511.21	2.747
511.40	2.391
511.60	2.610
511.80	2.326
511.99	2.672
512.19	2.852
512.39	2.971
512.59	2.233
512.78	2.436
512.98	3.077
513.18	1.835
513.38	2.353
513.57	2.624
513.77	2.269
513.97	2.225
514.17	2.054
514.36	2.095
514.56	2.130
514.76	2.370
514.95	2.031
515.15	2.709
515.35	1.538
515.55	2.189
515.74	2.578
515.94	2.952
516.14	2.220
516.33	2.541
516.53	2.277
516.73	2.573
516.93	2.422
517.12	2.878
517.32	1.673
517.52	2.532
517.71	2.005
517.91	2.528
518.11	2.585
518.30	2.610
518.50	1.826
518.70	2.269
518.90	2.640
519.09	2.690
519.29	2.663
519.49	2.806
519.68	2.197
519.88	3.302
520.08	2.408
520.27	2.918
520.47	2.771
520.67	2.714
520.86	2.877
521.06	3.390
521.26	1.902
521.45	2.964
521.65	2.589
521.85	1.964
522.04	2.160
522.24	2.580
522.44	1.767
522.63	2.313
522.83	1.985
523.03	2.348
523.22	2.183
523.42	2.855
523.62	2.697
523.81	2.927
524.01	2.644
524.21	2.478
524.40	2.037
524.60	2.080
524.80	1.983
524.99	1.906
525.19	2.365
525.39	2.400
525.58	1.914
525.78	2.856
525.98	2.340
526.17	3.044
526.37	2.936
526.57	3.127
526.76	2.947
526.96	3.249
527.15	2.371
527.35	3.102
527.55	2.477
527.74	3.559
527.94	3.115
528.14	3.107
528.33	2.939
528.53	3.586
528.72	3.150
528.92	4.382
529.12	3.837
529.31	4.153
529.51	4.080
529.71	4.226
529.90	4.050
530.10	4.514
530.29	4.278
530.49	4.548
530.69	4.005
530.88	4.363
531.08	3.723
531.28	3.821
531.47	3.598
531.67	3.972
531.86	3.380
532.06	3.355
532.26	2.905
532.45	3.516
532.65	2.698
532.84	3.281
533.04	2.260
533.24	3.125
533.43	2.766
533.63	3.522
533.82	3.037
534.02	3.871
534.22	3.387
534.41	3.867
534.61	3.602
534.80	3.680
535.00	3.682
535.19	3.576
535.39	3.624
535.59	3.712
535.78	2.878
535.98	3.845
536.17	2.503
536.37	3.632
536.57	2.816
536.76	3.693
536.96	3.123
537.15	3.754
537.35	2.567
537.54	3.212
537.74	2.618
537.93	3.591
538.13	2.518
538.33	3.525
538.52	2.832
538.72	2.947
538.91	2.654
539.11	2.556
539.30	2.205
539.50	3.262
539.70	2.344
539.89	3.828
540.09	2.583
540.28	3.052
540.48	1.864
540.67	3.163
540.87	2.406
541.06	3.598
541.26	2.593
541.45	4.242
541.65	3.348
541.85	3.882
542.04	3.144
542.24	4.515
542.43	4.057
542.63	4.168
542.82	3.487
543.02	4.398
543.21	3.725
543.41	4.360
543.60	3.762
543.80	4.295
543.99	3.178
544.19	3.637
544.38	3.560
544.58	3.759
544.77	3.495
544.97	3.861
545.16	2.763
545.36	3.789
545.56	2.991
545.75	3.577
545.95	2.742
546.14	3.461
546.34	2.679
546.53	3.909
546.73	3.181
546.92	3.205
547.12	2.525
547.31	3.626
547.51	2.837
547.70	3.793
547.90	2.346
548.09	2.908
548.29	2.916
548.48	3.579
548.68	2.957
548.87	3.503
549.07	3.492
549.26	3.171
549.46	2.827
549.65	3.420
549.84	2.430
550.04	2.710
550.23	2.782
550.43	3.321
550.62	2.968
550.82	2.998
551.01	2.554
551.21	2.787
551.40	2.615
551.60	2.812
551.79	3.153
551.99	2.795
552.18	2.913
552.38	3.658
552.57	2.847
552.77	3.525
552.96	2.661
553.16	3.081
553.35	2.348
553.54	3.373
553.74	2.779
553.93	3.391
554.13	3.454
554.32	3.326
554.52	2.961
554.71	3.564
554.91	3.004
555.10	3.339
555.29	2.165
555.49	3.603
555.68	2.397
555.88	3.332
556.07	2.759
556.27	3.399
556.46	3.145
556.66	2.939
556.85	3.233
557.04	3.648
557.24	3.024
557.43	3.789
557.63	3.787
557.82	3.296
558.02	3.024
558.21	4.238
558.40	2.845
558.60	3.542
558.79	2.682
558.99	3.568
559.18	3.003
559.38	3.165
559.57	3.053
559.76	3.436
559.96	4.594
560.15	3.626
560.35	3.466
560.54	3.631
560.73	3.390
560.93	4.306
561.12	2.939
561.32	4.079
561.51	3.674
561.70	3.175
561.90	3.278
562.09	4.773
562.29	3.450
562.48	3.883
562.67	3.999
562.87	3.821
563.06	3.044
563.26	4.624
563.45	4.052
563.64	4.432
563.84	4.199
564.03	4.165
564.23	3.622
564.42	4.559
564.61	3.848
564.81	4.817
565.00	4.278
565.20	5.407
565.39	4.125
565.58	5.002
565.78	3.776
565.97	4.601
566.16	5.124
566.36	6.944
566.55	5.164
566.74	4.460
566.94	4.125
567.13	6.409
567.33	4.009
567.52	4.900
567.71	5.538
567.91	5.225
568.10	5.500
568.29	5.646
568.49	4.214
568.68	5.443
568.87	5.091
569.07	5.972
569.26	5.525
569.45	6.769
569.65	6.035
569.84	6.059
570.04	5.104
570.23	5.113
570.42	4.747
570.62	5.401
570.81	5.157
571.00	5.750
571.20	5.789
571.39	6.776
571.58	5.675
571.78	6.825
571.97	5.710
572.16	6.609
572.36	5.815
572.55	6.883
572.74	6.083
572.94	6.010
573.13	6.667
573.32	7.439
573.51	6.052
573.71	7.804
573.90	5.400
574.09	7.472
574.29	6.455
574.48	6.970
574.67	6.642
574.87	6.864
575.06	5.973
575.25	7.609
575.45	5.331
575.64	6.400
575.83	5.689
576.03	7.163
576.22	5.807
576.41	7.176
576.60	4.913
576.80	6.184
576.99	6.606
577.18	8.339
577.38	5.852
577.57	6.399
577.76	6.948
577.95	5.715
578.15	4.982
578.34	6.239
578.53	6.253
578.73	7.767
578.92	5.052
579.11	6.110
579.30	5.813
579.50	6.018
579.69	5.779
579.88	6.310
580.08	5.031
580.27	6.264
580.46	5.754
580.65	6.587
580.85	5.829
581.04	5.547
581.23	6.123
581.42	5.864
581.62	5.220
581.81	7.343
582.00	5.016
582.19	4.791
582.39	6.803
582.58	5.442
582.77	5.744
582.96	4.884
583.16	4.362
583.35	6.099
583.54	5.724
583.73	4.661
583.93	6.106
584.12	5.527
584.31	5.183
584.50	5.351
584.70	5.510
584.89	5.270
585.08	4.841
585.27	6.407
585.47	5.310
585.66	4.805
585.85	4.775
586.04	4.435
586.24	5.729
586.43	5.365
586.62	4.414
586.81	6.775
587.00	3.900
587.20	5.518
587.39	4.429
587.58	7.027
587.77	5.499
587.97	4.559
588.16	5.322
588.35	5.796
588.54	4.735
588.73	5.496
588.93	6.543
589.12	4.964
589.31	5.446
589.50	5.446
589.69	5.419
589.89	5.715
590.08	4.384
590.27	4.913
590.46	5.035
590.65	5.261
590.85	4.292
591.04	5.838
591.23	5.484
591.42	6.640
591.61	5.021
591.81	6.041
592.00	5.356
592.19	6.935
592.38	5.372
592.57	5.928
592.77	5.714
592.96	5.696
593.15	6.260
593.34	6.770
593.53	4.608
593.72	5.454
593.92	5.011
594.11	7.184
594.30	5.780
594.49	5.984
594.68	5.065
594.87	5.312
595.07	4.539
595.26	6.448
595.45	4.971
595.64	7.031
595.83	4.542
596.02	6.128
596.22	5.688
596.41	7.296
596.60	6.044
596.79	7.209
596.98	6.215
597.17	6.855
597.37	5.187
597.56	7.409
597.75	5.217
597.94	7.556
598.13	6.321
598.32	6.735
598.51	5.941
598.71	7.826
598.90	5.317
599.09	6.682
599.28	5.232
599.47	6.625
599.66	5.255
599.85	7.552
600.05	5.556
600.24	6.806
600.43	6.129
600.62	6.230
600.81	6.442
601.00	7.727
601.19	4.445
601.38	6.793
601.58	6.748
601.77	5.706
601.96	6.498
602.15	6.526
602.34	6.050
602.53	6.734
602.72	6.012
602.91	7.158
603.10	6.154
603.30	7.119
603.49	5.514
603.68	7.227
603.87	5.252
604.06	6.882
604.25	7.423
604.44	7.228
604.63	6.581
604.82	8.013
605.01	7.427
605.21	8.210
605.40	7.336
605.59	8.042
605.78	7.435
605.97	8.325
606.16	6.565
606.35	7.882
606.54	6.516
606.73	9.349
606.92	5.793
607.11	7.406
607.30	6.633
607.50	7.469
607.69	6.720
607.88	6.514
608.07	5.549
608.26	6.445
608.45	6.916
608.64	7.945
608.83	5.341
609.02	6.891
609.21	6.884
609.40	7.903
609.59	6.054
609.78	6.563
609.97	5.952
610.16	7.629
610.35	5.879
610.55	7.002
610.74	7.052
610.93	7.012
611.12	6.722
611.31	6.540
611.50	5.665
611.69	6.635
611.88	6.405
612.07	7.117
612.26	4.637
612.45	5.581
612.64	5.911
612.83	6.596
613.02	3.868
613.21	4.859
613.40	5.262
613.59	5.917
613.78	4.499
613.97	5.720
614.16	4.966
614.35	5.199
614.54	5.363
614.73	5.900
614.92	4.962
615.11	5.678
615.30	6.130
615.49	4.854
615.68	6.064
615.87	3.902
616.07	4.474
616.26	4.668
616.45	4.737
616.64	5.284
616.83	6.134
617.02	5.565
617.21	4.857
617.40	4.170
617.59	4.585
617.78	5.069
617.97	4.492
618.16	3.613
618.35	4.465
618.54	4.183
618.73	4.528
618.92	4.876
619.11	4.157
619.30	5.026
619.49	4.230
619.68	5.189
619.86	4.330
620.05	5.257
620.24	3.670
620.43	4.099
620.62	3.079
620.81	4.224
621.00	4.861
621.19	4.712
621.38	4.347
621.57	4.710
621.76	5.025
621.95	5.416
622.14	5.211
622.33	5.751
622.52	4.547
622.71	5.355
622.90	3.720
623.09	5.128
623.28	5.023
623.47	4.327
623.66	4.581
623.85	4.705
624.04	4.198
624.23	4.552
624.42	4.781
624.61	4.444
624.80	4.050
624.99	4.332
625.18	4.080
625.36	3.768
625.55	5.592
625.74	3.932
625.93	2.664
626.12	3.705
626.31	5.674
626.50	3.335
626.69	4.419
626.88	5.281
627.07	4.365
627.26	4.215
627.45	4.146
627.64	4.866
627.83	3.520
628.02	4.707
628.20	4.226
628.39	5.276
628.58	4.568
628.77	4.804
628.96	4.187
629.15	3.668
629.34	4.546
629.53	4.042
629.72	3.698
629.91	6.652
630.10	4.941
630.29	3.599
630.47	3.684
630.66	3.397
630.85	4.550
631.04	3.462
631.23	5.159
631.42	5.112
631.61	2.962
631.80	5.980
631.99	4.051
632.18	4.026
632.36	3.437
632.55	4.875
632.74	3.786
632.93	4.168
633.12	4.453
633.31	3.491
633.50	4.081
633.69	5.078
633.88	2.601
634.06	4.788
634.25	4.791
634.44	4.065
634.63	4.113
634.82	5.468
635.01	3.325
635.20	4.544
635.39	3.761
635.57	4.612
635.76	3.849
635.95	3.794
636.14	2.101
636.33	4.884
636.52	3.374
636.71	3.966
636.89	3.629
637.08	4.489
637.27	4.287
637.46	2.089
637.65	4.472
637.84	4.651
638.03	3.985
638.21	4.380
638.40	3.540
638.59	3.469
638.78	2.365
638.97	5.169
639.16	3.912
639.34	3.702
639.53	3.025
639.72	4.235
639.91	4.205
640.10	4.293
640.29	5.490
640.47	5.365
640.66	5.132
640.85	5.510
641.04	4.055
641.23	3.240
641.42	4.288
641.60	5.559
641.79	4.589
641.98	2.768
642.17	3.912
642.36	5.933
642.54	4.713
642.73	4.121
642.92	3.053
643.11	4.808
643.30	3.681
643.49	5.130
643.67	4.310
643.86	5.251
644.05	3.893
644.24	3.610
644.43	4.517
644.61	5.118
644.80	3.678
644.99	3.608
645.18	5.658
645.37	4.804
645.55	3.709
645.74	5.461
645.93	3.824
646.12	4.585
646.31	3.538
646.49	3.717
646.68	4.006
646.87	3.904
647.06	4.680
647.24	4.071
647.43	4.575
647.62	4.772
647.81	4.042
648.00	4.120
648.18	3.326
648.37	4.701
648.56	3.163
648.75	3.690
648.93	4.094
649.12	4.043
649.31	4.647
649.50	3.299
649.68	4.701
649.87	2.749
650.06	3.548
650.25	5.089
650.43	5.368
650.62	5.327
650.81	4.142
651.00	4.821
651.18	3.868
651.37	4.078
651.56	4.673
651.75	4.142
651.93	4.005
652.12	4.341
652.31	3.507
652.50	3.294
652.68	4.762
652.87	5.716
653.06	5.288
653.25	5.272
653.43	4.431
653.62	3.949
653.81	3.726
654.00	4.577
654.18	2.498
654.37	4.454
654.56	4.584
654.74	5.651
654.93	2.798
655.12	3.237
655.31	3.526
655.49	5.594
655.68	3.453
655.87	3.218
656.05	4.330
656.24	3.633
656.43	3.470
656.62	3.835
656.80	3.715
656.99	3.746
657.18	2.735
657.36	5.369
657.55	4.494
657.74	3.469
657.93	6.392
658.11	5.602
658.30	4.013
658.49	1.566
658.67	4.340
658.86	2.940
659.05	4.476
659.23	3.413
659.42	3.573
659.61	4.474
659.79	3.166
659.98	4.207
660.17	4.142
660.35	2.472
660.54	3.647
660.73	5.058
660.91	4.640
661.10	4.508
661.29	4.293
661.47	3.272
661.66	3.960
661.85	4.003
662.03	4.266
662.22	3.788
662.41	2.303
662.59	3.270
662.78	2.115
662.97	3.538
663.15	2.901
663.34	3.647
663.53	3.013
663.71	3.515
663.90	4.363
664.09	4.180
664.27	3.970
664.46	3.298
664.65	4.010
664.83	3.531
665.02	2.883
665.21	4.224
665.39	3.505
665.58	3.708
665.77	3.144
665.95	2.260
666.14	3.574
666.32	2.835
666.51	2.296
666.70	2.908
666.88	5.827
667.07	3.437
667.26	3.724
667.44	3.340
667.63	4.780
667.81	3.723
668.00	3.945
668.19	6.101
668.37	4.636
668.56	5.422
668.75	3.211
668.93	4.461
669.12	3.947
669.30	4.141
669.49	4.180
669.68	2.828
669.86	3.877
670.05	4.161
670.23	4.466
670.42	2.452
670.61	2.582
670.79	3.226
670.98	4.809
671.16	3.363
671.35	5.987
671.54	4.336
671.72	3.410
671.91	4.790
672.09	4.837
672.28	5.252
672.46	5.637
672.65	4.848
672.84	4.568
673.02	3.986
673.21	4.425
673.39	3.843
673.58	5.754
673.77	4.408
673.95	4.208
674.14	4.605
674.32	4.626
674.51	5.994
674.69	3.009
674.88	5.021
675.07	3.719
675.25	7.117
675.44	2.265
675.62	3.543
675.81	4.781
675.99	6.119
676.18	5.574
676.36	4.813
676.55	3.146
676.74	4.458
676.92	6.950
677.11	4.942
677.29	7.109
677.48	2.769
677.66	5.495
677.85	4.098
678.03	5.629
678.22	5.018
678.40	5.469
678.59	3.818
678.78	3.509
678.96	5.707
679.15	4.296
679.33	6.122
679.52	6.097
679.70	5.126
679.89	3.538
680.07	4.640
680.26	3.932
680.44	5.251
680.63	4.882
680.81	4.501
681.00	4.152
681.18	5.143
681.37	4.711
681.55	4.294
681.74	5.351
681.92	4.724
682.11	4.553
682.29	5.056
682.48	4.656
682.66	3.876
682.85	3.819
683.03	4.618
683.22	6.017
683.40	5.296
683.59	5.703
683.77	3.916
683.96	5.125
684.14	4.946
684.33	3.359
684.51	5.589
684.70	5.680
684.88	6.703
685.07	5.771
685.25	5.754
685.44	4.647
685.62	7.689
685.81	6.101
685.99	5.950
686.18	4.342
686.36	6.500
686.55	5.121
686.73	6.089
686.92	6.252
687.10	5.553
687.29	6.669
687.47	5.782
687.65	7.433
687.84	5.214
688.02	7.998
688.21	6.875
688.39	6.068
688.58	8.083
688.76	6.336
688.95	5.192
689.13	6.123
689.32	7.204
689.50	4.410
689.68	5.036
689.87	6.937
690.05	6.313
690.24	7.642
690.42	6.593
690.61	7.045
690.79	5.224
690.98	6.592
691.16	7.037
691.34	4.983
691.53	7.605
691.71	6.756
691.90	6.707
692.08	5.872
692.27	7.699
692.45	8.536
692.63	7.140
692.82	10.192
693.00	11.323
693.19	6.822
693.37	7.212
693.56	9.295
693.74	7.560
693.92	8.576
694.11	8.449
694.29	8.500
694.48	10.412
694.66	6.357
694.84	9.878
695.03	7.484
695.21	10.436
695.40	11.858
695.58	9.458
695.76	8.947
695.95	10.938
696.13	9.139
696.32	9.740
696.50	16.450
696.68	10.624
696.87	9.150
697.05	11.345
697.24	10.487
697.42	12.335
697.60	11.246
697.79	12.347
697.97	10.773
698.16	16.000
698.34	9.459
698.52	13.352
698.71	12.449
698.89	13.659
699.07	14.442
699.26	13.282
699.44	13.387
699.63	18.190
699.81	11.838
699.99	16.119
700.18	17.304
700.36	16.587
700.54	14.858
700.73	13.799
700.91	14.286
701.09	16.427
701.28	14.929
701.46	17.277
701.64	14.134
701.83	18.372
702.01	13.775
702.20	19.037
702.38	17.710
702.56	15.754
702.75	15.272
702.93	17.502
703.11	15.573
703.30	16.675
703.48	18.347
703.66	20.286
703.85	19.592
704.03	20.490
704.21	19.957
704.40	20.416
704.58	15.635
704.76	19.457
704.95	19.088
705.13	18.053
705.31	20.442
705.50	20.514
705.68	14.583
705.86	23.124
706.04	21.217
706.23	22.036
706.41	20.670
706.59	20.511
706.78	16.320
706.96	19.270
707.14	23.140
707.33	24.453
707.51	20.716
707.69	22.216
707.88	19.843
708.06	22.730
708.24	22.160
708.42	24.123
708.61	22.353
708.79	22.428
708.97	25.702
709.16	20.246
709.34	23.280
709.52	20.459
709.71	21.630
709.89	23.667
710.07	18.211
710.25	26.486
710.44	20.467
710.62	23.416
710.80	24.699
710.98	25.604
711.17	23.131
711.35	24.939
711.53	23.780
711.72	22.350
711.90	23.704
712.08	25.353
712.26	22.630
712.45	25.794
712.63	26.339
712.81	28.651
712.99	24.627
713.18	27.273
713.36	24.541
713.54	26.780
713.72	22.513
713.91	26.028
714.09	23.923
714.27	26.649
714.45	25.494
714.64	28.549
714.82	25.091
715.00	27.916
715.18	25.268
715.37	27.495
715.55	24.691
715.73	27.412
715.91	25.724
716.10	29.115
716.28	25.591
716.46	27.363
716.64	25.203
716.83	29.192
717.01	25.867
717.19	30.240
717.37	26.074
717.55	27.667
717.74	27.609
717.92	27.176
718.10	24.801
718.28	27.378
718.47	23.732
718.65	26.286
718.83	29.236
719.01	28.571
719.19	25.786
719.38	27.491
719.56	23.023
719.74	29.819
719.92	25.455
720.10	26.433
720.29	26.477
720.47	30.077
720.65	25.624
720.83	28.125
721.01	24.573
721.20	28.716
721.38	27.340
721.56	29.181
721.74	26.444
721.92	32.742
722.11	25.588
722.29	32.756
722.47	28.493
722.65	31.381
722.83	31.815
723.01	30.027
723.20	29.211
723.38	32.847
723.56	31.223
723.74	33.333
723.92	34.928
724.10	33.617
724.29	26.648
724.47	33.630
724.65	27.073
724.83	32.972
725.01	31.384
725.19	34.573
725.38	30.481
725.56	33.383
725.74	31.168
725.92	33.639
726.10	30.797
726.28	35.804
726.46	33.802
726.65	34.789
726.83	30.656
727.01	33.333
727.19	36.419
727.37	33.958
727.55	33.144
727.73	34.047
727.92	29.583
728.10	38.086
728.28	31.481
728.46	35.456
728.64	35.897
728.82	36.198
729.00	32.038
729.19	39.178
729.37	36.936
729.55	36.306
729.73	32.296
729.91	40.790
730.09	37.789
730.27	36.865
730.45	30.136
730.63	34.600
730.82	36.593
731.00	37.135
731.18	32.517
731.36	34.603
731.54	31.102
731.72	38.086
731.90	33.703
732.08	36.859
732.26	36.600
732.45	37.547
732.63	38.032
732.81	41.444
732.99	35.353
733.17	40.217
733.35	40.013
733.53	38.807
733.71	35.268
733.89	39.475
734.07	37.468
734.25	40.949
734.44	41.393
734.62	38.491
734.80	39.298
734.98	44.714
735.16	40.616
735.34	41.862
735.52	39.759
735.70	42.556
735.88	40.103
736.06	43.346
736.24	48.682
736.42	45.227
736.60	41.144
736.78	51.976
736.97	43.770
737.15	46.084
737.33	42.881
737.51	44.481
737.69	42.904
737.87	43.910
738.05	45.410
738.23	48.535
738.41	44.286
738.59	45.950
738.77	44.613
738.95	47.635
739.13	45.833
739.31	46.220
739.49	42.105
739.67	51.530
739.85	50.850
740.03	46.448
740.21	44.298
740.39	42.504
740.57	49.769
740.75	47.477
740.93	41.542
741.11	48.256
741.30	46.073
741.48	47.588
741.66	44.231
741.84	46.512
742.02	44.701
742.20	52.131
742.38	44.207
742.56	47.368
742.74	49.775
742.92	48.025
743.10	44.868
743.28	54.396
743.46	48.221
743.64	51.670
743.82	49.853
744.00	52.065
744.18	51.369
744.36	48.267
744.54	50.395
744.72	54.639
744.90	53.992
745.08	49.614
745.26	53.366
745.44	53.727
745.62	51.662
745.80	53.457
745.98	51.665
746.16	52.221
746.34	53.472
746.52	52.459
746.70	50.343
746.87	53.641
747.05	54.681
747.23	46.319
747.41	48.723
747.59	59.063
747.77	50.703
747.95	54.583
748.13	52.534
748.31	52.767
748.49	56.225
748.67	52.165
748.85	52.165
749.03	50.200
749.21	52.153
749.39	55.065
749.57	45.127
749.75	53.079
749.93	50.502
750.11	52.357
750.29	50.999
750.47	51.454
750.65	50.439
750.83	56.289
751.01	47.035
751.18	56.150
751.36	55.967
751.54	51.777
751.72	53.447
751.90	53.391
752.08	48.957
752.26	53.625
752.44	52.811
752.62	53.861
752.80	56.468
752.98	56.423
753.16	54.300
753.34	51.838
753.52	52.356
753.69	52.004
753.87	49.474
754.05	54.536
754.23	53.388
754.41	53.922
754.59	56.847
754.77	53.754
754.95	56.039
755.13	59.290
755.31	55.061
755.49	60.536
755.66	49.043
755.84	53.295
756.02	57.001
756.20	56.415
756.38	51.566
756.56	53.249
756.74	51.096
756.92	46.741
757.10	58.154
757.28	57.487
757.45	57.778
757.63	57.363
757.81	51.085
757.99	53.271
758.17	59.062
758.35	54.217
758.53	57.283
758.71	55.186
758.88	51.440
759.06	48.577
759.24	45.216
759.42	45.490
759.60	46.154
759.78	46.293
759.96	40.588
760.13	38.948
760.31	37.179
760.49	40.409
760.67	28.437
760.85	36.520
761.03	31.288
761.21	33.048
761.38	26.912
761.56	34.888
761.74	28.531
761.92	37.184
762.10	27.773
762.28	38.073
762.46	32.407
762.63	33.943
762.81	30.595
762.99	38.663
763.17	31.690
763.35	32.664
763.53	33.979
763.70	36.624
763.88	33.882
764.06	35.241
764.24	31.995
764.42	36.129
764.60	35.607
764.77	35.287
764.95	32.997
765.13	35.616
765.31	33.417
765.49	40.333
765.66	37.603
765.84	40.503
766.02	39.198
766.20	39.511
766.38	40.947
766.56	46.003
766.73	44.560
766.91	40.218
767.09	45.789
767.27	44.901
767.45	43.949
767.62	50.000
767.80	48.976
767.98	52.929
768.16	50.467
768.33	53.910
768.51	51.263
768.69	59.679
768.87	51.438
769.05	52.103
769.22	50.276
769.40	55.995
769.58	56.894
769.76	57.509
769.94	56.463
770.11	58.204
770.29	58.582
770.47	58.057
770.65	59.685
770.82	53.667
771.00	55.943
771.18	59.268
771.36	62.630
771.53	56.145
771.71	59.868
771.89	59.728
772.07	55.738
772.25	67.403
772.42	58.136
772.60	67.841
772.78	62.554
772.96	63.857
773.13	62.775
773.31	58.602
773.49	59.652
773.67	62.634
773.84	60.231
774.02	58.963
774.20	56.788
774.37	59.110
774.55	58.273
774.73	57.788
774.91	55.690
775.08	56.151
775.26	61.404
775.44	61.173
775.62	62.444
775.79	52.224
775.97	64.000
776.15	52.699
776.32	61.479
776.50	65.426
776.68	61.071
776.86	56.211
777.03	60.601
777.21	63.108
777.39	62.409
777.56	60.094
777.74	55.271
777.92	63.143
778.10	57.878
778.27	64.651
778.45	58.752
778.63	63.823
778.80	63.057
778.98	59.486
779.16	65.159
779.34	54.427
779.51	62.423
779.69	61.424
779.87	63.287
780.04	60.563
780.22	58.235
780.40	53.258
780.57	54.386
780.75	58.799
780.93	62.166
781.10	71.880
781.28	62.768
781.46	62.278
781.63	50.083
781.81	57.362
781.99	53.618
782.16	56.457
782.34	56.734
782.52	57.005
782.69	54.790
782.87	63.682
783.05	57.360
783.22	61.071
783.40	62.934
783.58	62.565
783.75	56.014
783.93	65.090
784.11	61.687
784.28	58.651
784.46	55.908
784.64	61.429
784.81	59.498
784.99	68.921
785.17	64.272
785.34	62.633
785.52	64.000
785.69	56.859
785.87	56.611
786.05	61.429
786.22	68.679
786.40	63.686
786.58	59.732
786.75	61.183
786.93	65.317
787.11	61.538
787.28	61.684
787.46	55.957
787.63	54.118
787.81	62.113
787.99	55.712
788.16	55.410
788.34	47.910
788.51	52.995
788.69	51.410
788.87	54.790
789.04	51.745
789.22	55.733
789.39	46.458
789.57	58.559
789.75	49.256
789.92	55.752
790.10	50.789
790.27	53.000
790.45	52.607
790.63	52.472
790.80	49.515
790.98	54.577
791.15	53.882
791.33	49.918
791.51	62.764
791.68	55.655
791.86	48.000
792.03	55.877
792.21	53.493
792.39	62.057
792.56	52.356
792.74	64.272
792.91	51.481
793.09	55.712
793.26	54.298
793.44	54.649
793.62	56.496
793.79	63.419
793.97	59.844
794.14	58.994
794.32	51.807
794.49	63.055
794.67	55.894
794.84	59.539
795.02	62.193
795.20	47.826
795.37	59.000
795.55	60.579
795.72	53.731
795.90	53.996
796.07	59.325
796.25	60.398
796.42	58.916
796.60	57.429
796.77	56.228
796.95	57.866
797.13	52.696
797.30	58.961
797.48	49.918
797.65	46.870
797.83	56.838
798.00	52.052
798.18	46.875
798.35	53.103
798.53	62.524
798.70	43.363
798.88	60.516
799.05	49.376
799.23	47.177
799.40	54.804
799.58	55.130
799.75	66.143
799.93	51.052
800.10	65.038
800.28	57.143
800.45	64.185
800.63	48.859
800.80	57.194
800.98	61.248
801.15	48.014
801.33	48.450
801.50	51.971
801.68	54.130
801.85	53.475
802.03	54.509
802.20	67.677
802.38	51.873
802.55	54.564
802.73	56.455
802.90	53.131
803.08	58.416
803.25	60.922
803.43	49.795
803.60	56.954
803.78	54.224
803.95	54.113
804.13	61.260
804.30	55.257
804.48	50.437
804.65	66.517
804.83	52.113
805.00	54.746
805.17	64.819
805.35	56.354
805.52	50.916
805.70	57.261
805.87	62.977
806.05	49.598
806.22	54.583
806.40	49.338
806.57	54.845
806.75	63.320
806.92	58.642
807.09	56.632
807.27	52.449
807.44	57.171
807.62	54.753
807.79	54.766
807.97	53.800
808.14	50.728
808.31	51.974
808.49	56.501
808.66	50.864
808.84	43.260
809.01	53.563
809.19	50.939
809.36	58.246
809.53	58.581
809.71	58.547
809.88	53.741
810.06	52.079
810.23	56.347
810.41	61.006
810.58	62.379
810.75	48.421
810.93	51.598
811.10	46.507
811.28	48.090
811.45	67.669
811.62	59.847
811.80	57.789
811.97	61.055
812.15	55.353
812.32	57.853
812.49	47.912
812.67	56.325
812.84	47.837
813.02	56.349
813.19	60.048
813.36	65.746
813.54	47.859
813.71	60.567
813.89	60.363
814.06	56.391
814.23	50.294
814.41	53.788
814.58	60.331
814.75	47.956
814.93	57.921
815.10	56.499
815.28	46.517
815.45	50.117
815.62	51.724
815.80	42.105
815.97	46.250
816.14	46.684
816.32	50.904
816.49	38.259
816.66	43.200
816.84	38.952
817.01	46.220
817.18	51.175
817.36	50.386
817.53	57.282
817.71	43.702
817.88	49.074
818.05	46.727
818.23	56.934
818.40	43.733
818.57	42.825
818.75	43.158
818.92	52.882
819.09	43.577
819.27	36.500
819.44	40.618
819.61	43.880
819.79	35.570
819.96	38.813
820.13	44.177
820.31	39.930
820.48	47.658
820.65	43.119
820.82	51.789
821.00	42.882
821.17	28.423
821.34	35.842
821.52	33.147
821.69	35.432
821.86	28.445
822.04	32.196
822.21	30.124
822.38	31.117
822.56	27.746
822.73	31.897
822.90	27.882
823.07	29.409
823.25	28.073
823.42	29.874
823.59	29.958
823.77	30.084
823.94	30.629
824.11	30.073
824.29	29.343
824.46	29.796
824.63	31.969
824.80	31.818
824.98	27.079
825.15	33.485
825.32	32.274
825.49	29.811
825.67	30.522
825.84	34.615
826.01	30.167
826.19	34.000
826.36	29.537
826.53	36.014
826.70	29.282
826.88	33.081
827.05	25.797
827.22	32.668
827.39	31.393
827.57	27.961
827.74	24.384
827.91	32.851
828.08	28.549
828.26	33.598
828.43	29.813
828.60	31.678
828.77	29.106
828.95	32.678
829.12	29.027
829.29	30.892
829.46	29.524
829.64	30.149
829.81	28.263
829.98	35.448
830.15	36.115
830.32	34.908
830.50	25.145
830.67	33.609
830.84	35.688
831.01	40.000
831.19	32.407
831.36	40.239
831.53	48.655
831.70	39.310
831.87	40.042
832.05	53.271
832.22	48.667
832.39	44.208
832.56	37.995
832.74	38.249
832.91	38.155
833.08	49.786
833.25	29.064
833.42	40.919
833.60	36.364
833.77	31.076
833.94	37.220
834.11	28.954
834.28	28.342
834.45	32.725
834.63	29.963
834.80	33.257
834.97	33.671
835.14	31.924
835.31	25.939
835.49	31.228
835.66	29.125
835.83	34.187
836.00	29.811
836.17	30.446
836.34	37.482
836.52	32.209
836.69	35.793
836.86	39.928
837.03	37.288
837.20	37.222
837.37	41.732
837.55	50.208
837.72	33.713
837.89	45.960
838.06	52.000
838.23	48.039
838.40	48.494
838.58	52.738
838.75	57.756
838.92	59.752
839.09	41.924
839.26	66.997
839.43	67.577
839.60	54.054
839.78	73.052
839.95	54.223
840.12	61.092
840.29	58.644
840.46	53.374
840.63	63.950
840.80	59.223
840.98	57.051
841.15	50.938
841.32	43.030
841.49	46.405
841.66	51.646
841.83	58.385
842.00	60.133
842.17	49.148
842.34	48.311
842.52	62.000
842.69	41.695
842.86	63.566
843.03	77.122
843.20	57.854
843.37	87.454
843.54	39.700
843.71	53.125
843.88	76.889
844.06	85.200
844.23	61.429
844.40	53.778
844.57	89.503
844.74	84.756
844.91	77.295
845.08	77.273
845.25	85.990
845.42	71.505
845.59	74.211
845.76	94.359
845.94	83.663
846.11	91.781
846.28	76.786
846.45	106.742
846.62	90.260
846.79	101.370
846.96	72.840
847.13	99.419
847.30	92.414
847.47	73.381
847.64	92.248
847.81	124.576
847.98	55.276
848.15	118.978
848.32	101.258
848.50	119.162
848.67	74.713
848.84	103.425
849.01	68.715
849.18	81.959
849.35	111.719
849.52	75.862
849.69	90.066
849.86	106.122
850.03	113.433
850.20	64.912
850.37	87.395
850.54	98.324
850.71	84.106
850.88	68.715
851.05	92.373
851.22	88.202
851.39	130.631
851.56	116.071
851.73	95.597
851.90	94.410
852.07	140.602
852.24	88.816
852.41	78.095
852.58	119.014
852.75	121.839
852.92	58.049
853.09	111.719
853.26	82.011
853.43	116.981
853.60	75.281
853.77	136.709
853.94	97.810
854.11	102.098
854.28	105.600
854.45	83.594
854.62	75.127
854.79	114.379
854.96	108.000
855.13	77.193
855.30	141.837
855.47	120.690
855.64	112.782
855.81	90.860
855.98	74.603
856.15	117.117
856.32	80.503
856.49	89.922
856.66	79.720
856.83	106.818
857.00	70.588
857.17	80.769
857.34	65.263
857.51	135.252
857.68	80.541
857.85	107.955
858.02	82.222
858.19	104.505
858.36	87.273
858.53	73.548
858.70	66.467
858.87	91.772
859.04	108.065
859.21	65.541
859.38	72.807
859.55	120.896
859.72	116.092
859.89	94.964
860.05	127.928
860.22	85.340
860.39	98.214
860.56	109.160
860.73	108.943
860.90	91.743
861.07	71.053
861.24	106.579
861.41	136.111
861.58	120.833
861.75	90.370
861.92	79.605
862.09	91.111
862.26	111.111
862.43	141.584
862.59	78.676
862.76	94.406
862.93	152.809
863.10	100.000
863.27	93.162
863.44	88.506
863.61	64.234
863.78	93.714
863.95	97.386
864.12	65.517
864.29	100.855
864.45	127.586
864.62	78.531
864.79	83.721
864.96	98.374
865.13	73.874
865.30	124.845
865.47	76.829
865.64	92.086
865.81	73.282
865.97	88.000
866.14	78.231
866.31	86.667
866.48	76.159
866.65	87.179
866.82	81.646
866.99	140.171
867.16	70.677
867.33	152.688
867.49	80.864
867.66	57.732
867.83	66.929
868.00	95.205
868.17	105.785
868.34	122.807
868.51	109.524
868.67	98.734
868.84	78.333
869.01	82.400
869.18	96.454
869.35	47.287
869.52	96.825
869.69	97.945
869.85	140.187
870.02	74.038
870.19	113.559
870.36	109.655
870.53	64.286
870.70	116.981
870.86	97.000
871.03	60.494
871.20	105.505
871.37	108.621
871.54	104.730
871.71	84.286
871.87	59.119
872.04	62.286
872.21	92.174
872.38	95.122
872.55	102.469
872.72	131.250
872.88	93.855
873.05	106.897
873.22	123.129
873.39	131.633
873.56	82.249
873.72	74.118
873.89	75.155
874.06	74.627
874.23	113.559
874.40	67.000
874.56	133.684
874.73	143.902
874.90	76.271
875.07	102.143
875.24	84.472
875.40	110.924
875.57	94.495
875.74	107.200
875.91	71.560
876.08	138.261
876.24	77.907
876.41	154.400
876.58	86.170
876.75	94.326
876.92	75.000
877.08	55.147
877.25	66.087
877.42	94.531
877.59	157.143
877.75	83.333
877.92	52.381
878.09	85.417
878.26	62.874
878.42	79.375
878.59	93.913
878.76	59.211
878.93	82.836
879.09	64.646
879.26	67.683
879.43	76.216
879.60	56.643
879.76	40.341
879.93	72.778
880.10	70.667
880.27	45.963
880.43	78.212
880.60	52.055
880.77	39.205
880.94	36.318
881.10	40.118
881.27	48.852
881.44	26.912
881.61	36.547
881.77	36.138
881.94	25.247
882.11	25.176
882.28	24.757
882.44	22.314
882.61	25.457
882.78	27.694
882.94	24.099
883.11	25.151
883.28	22.881
883.45	19.534
883.61	24.841
883.78	28.386
883.95	23.122
884.11	20.817
884.28	23.454
>>>>>End Processed Spectral Data<<<<<
