SpectraSuite Data File
++++++++++++++++++++++++++++++++++++
Date: Sat Sep 21 04:35:04 EST 2019
User: sgrac
Dark Spectrum Present: Yes
Reference Spectrum Present: Yes
Number of Sampled Component Spectra: 1
Spectrometers: USB4E01596
Integration Time (usec): 100000 (USB4E01596)
Spectra Averaged: 1 (USB4E01596)
Boxcar Smoothing: 0 (USB4E01596)
Correct for Electrical Dark: No (USB4E01596)
Strobe/Lamp Enabled: Yes (USB4E01596)
Correct for Detector Non-linearity: No (USB4E01596)
Correct for Stray Light: No (USB4E01596)
Number of Pixels in Processed Spectrum: 3648
>>>>>Begin Processed Spectral Data<<<<<
178.44	-378.571
178.66	-378.571
178.87	-378.571
179.09	-242.857
179.30	-623.077
179.52	0.000
179.74	-2125.000
179.95	1183.333
180.17	600.000
180.38	10300.000
180.60	0.000
180.82	858.333
181.03	-394.737
181.25	300.000
181.46	-212.903
181.68	329.167
181.89	9800.000
182.11	340.000
182.33	-222.222
182.54	-253.125
182.76	-4300.000
182.97	840.000
183.19	2850.000
183.40	224.138
183.62	-81.481
183.84	-414.815
184.05	443.478
184.27	433.333
184.48	1585.714
184.70	238.000
184.91	-586.667
185.13	228.889
185.34	-325.000
185.56	183.333
185.78	0.000
185.99	580.000
186.21	348.276
186.42	653.333
186.64	135.484
186.85	303.704
187.07	230.909
187.28	360.000
187.50	-460.000
187.72	1520.000
187.93	-7500.000
188.15	228.000
188.36	-452.941
188.58	-4800.000
188.79	259.091
189.01	333.333
189.22	1720.000
189.44	3350.000
189.65	290.000
189.87	1037.500
190.09	-2440.000
190.30	718.750
190.52	-6200.000
190.73	146.429
190.95	300.000
191.16	275.556
191.38	690.000
191.59	202.381
191.81	233.333
192.02	293.617
192.24	664.706
192.45	-2500.000
192.67	371.429
192.88	520.833
193.10	368.000
193.31	520.000
193.53	-10500.000
193.74	151.220
193.96	479.167
194.18	251.613
194.39	-455.556
194.61	626.316
194.82	600.000
195.04	280.952
195.25	6500.000
195.47	312.195
195.68	217.021
195.90	1500.000
196.11	181.818
196.33	202.128
196.54	-3666.667
196.76	403.571
196.97	-3200.000
197.19	339.286
197.40	214.706
197.62	170.313
197.83	136.486
198.05	-257.895
198.26	388.571
198.48	397.222
198.69	206.977
198.91	233.333
199.12	-274.286
199.34	-1940.000
199.55	9300.000
199.77	2500.000
199.98	192.000
200.20	185.915
200.41	557.143
200.63	-888.889
200.84	227.451
201.06	946.154
201.27	272.973
201.49	1387.500
201.70	370.370
201.91	267.391
202.13	152.174
202.34	222.642
202.56	-1257.143
202.77	844.444
202.99	389.286
203.20	3100.000
203.42	1275.000
203.63	220.930
203.85	311.429
204.06	255.556
204.28	-900.000
204.49	214.286
204.71	225.641
204.92	0.000
205.14	-671.429
205.35	283.333
205.56	-2540.000
205.78	542.857
205.99	990.000
206.21	-138.710
206.42	325.806
206.64	153.571
206.85	2375.000
207.07	-738.462
207.28	600.000
207.50	-368.421
207.71	287.179
207.93	218.182
208.14	552.941
208.35	242.105
208.57	-10100.000
208.78	700.000
209.00	577.778
209.21	-3500.000
209.43	275.862
209.64	311.765
209.86	1071.429
210.07	0.000
210.28	-552.941
210.50	187.755
210.71	185.965
210.93	433.333
211.14	-344.444
211.36	-193.548
211.57	-176.190
211.78	-243.478
212.00	0.000
212.21	230.233
212.43	-290.909
212.64	193.103
212.86	-750.000
213.07	-250.000
213.29	284.211
213.50	8000.000
213.71	179.245
213.93	1028.571
214.14	122.727
214.36	8900.000
214.57	426.923
214.78	456.250
215.00	4500.000
215.21	200.000
215.43	324.000
215.64	335.897
215.86	140.000
216.07	5500.000
216.28	408.000
216.50	-1185.714
216.71	-1980.000
216.93	219.149
217.14	287.500
217.35	366.667
217.57	235.714
217.78	1212.500
218.00	-550.000
218.21	331.579
218.42	-3800.000
218.64	752.941
218.85	-733.333
219.07	728.571
219.28	2650.000
219.49	127.632
219.71	3500.000
219.92	258.333
220.14	412.500
220.35	565.000
220.56	264.103
220.78	570.588
220.99	-11300.000
221.21	395.238
221.42	366.667
221.63	257.500
221.85	219.355
222.06	321.429
222.28	184.091
222.49	-3900.000
222.70	0.000
222.92	500.000
223.13	330.000
223.34	-1800.000
223.56	200.000
223.77	106.742
223.99	251.282
224.20	133.333
224.41	421.622
224.63	275.000
224.84	115.517
225.05	267.857
225.27	197.143
225.48	191.304
225.69	342.857
225.91	166.667
226.12	316.667
226.34	141.176
226.55	68.519
226.76	177.419
226.98	144.000
227.19	195.455
227.40	104.132
227.62	121.951
227.83	145.000
228.04	87.912
228.26	86.139
228.47	158.621
228.69	42.105
228.90	92.958
229.11	48.889
229.33	34.300
229.54	49.342
229.75	48.261
229.97	31.330
230.18	19.713
230.39	32.068
230.61	24.843
230.82	46.888
231.03	3.734
231.25	40.067
231.46	33.577
231.67	49.407
231.89	56.078
232.10	34.818
232.31	59.135
232.53	23.729
232.74	54.687
232.95	62.651
233.17	50.289
233.38	46.269
233.59	96.324
233.81	46.117
234.02	51.974
234.23	44.385
234.45	84.211
234.66	53.107
234.87	48.993
235.09	48.889
235.30	50.575
235.51	59.223
235.73	35.849
235.94	49.223
236.15	48.980
236.36	54.497
236.58	36.967
236.79	73.822
237.00	37.681
237.22	47.531
237.43	49.510
237.64	46.725
237.86	51.630
238.07	44.221
238.28	45.902
238.50	43.478
238.71	39.645
238.92	39.881
239.13	69.714
239.35	23.077
239.56	40.104
239.77	55.610
239.99	42.453
240.20	43.158
240.41	43.103
240.63	24.291
240.84	30.279
241.05	37.226
241.26	38.017
241.48	22.714
241.69	31.646
241.90	27.324
242.12	14.286
242.33	15.086
242.54	13.006
242.75	22.960
242.97	19.138
243.18	12.458
243.39	19.048
243.61	19.940
243.82	13.566
244.03	13.525
244.24	7.362
244.46	17.333
244.67	5.240
244.88	12.676
245.09	20.033
245.31	16.315
245.52	30.331
245.73	30.739
245.95	28.145
246.16	23.427
246.37	17.054
246.58	16.449
246.80	21.372
247.01	8.597
247.22	13.636
247.43	12.360
247.65	9.806
247.86	8.895
248.07	8.361
248.28	9.716
248.50	5.325
248.71	9.251
248.92	8.661
249.13	7.473
249.35	6.875
249.56	12.823
249.77	12.118
249.98	8.987
250.20	8.444
250.41	14.190
250.62	13.976
250.83	13.697
251.05	20.706
251.26	17.060
251.47	27.207
251.68	14.260
251.90	19.022
252.11	21.777
252.32	17.369
252.53	11.831
252.75	11.200
252.96	18.269
253.17	13.454
253.38	17.027
253.59	10.169
253.81	20.027
254.02	16.742
254.23	17.852
254.44	16.797
254.66	16.694
254.87	17.870
255.08	12.271
255.29	21.285
255.50	20.215
255.72	20.413
255.93	21.168
256.14	26.136
256.35	16.862
256.57	23.097
256.78	23.744
256.99	17.016
257.20	16.262
257.41	25.880
257.63	14.724
257.84	17.635
258.05	18.333
258.26	7.568
258.47	20.036
258.69	15.221
258.90	15.528
259.11	8.112
259.32	9.350
259.53	10.054
259.75	7.432
259.96	6.755
260.17	7.630
260.38	5.906
260.59	5.185
260.81	4.470
261.02	6.443
261.23	8.229
261.44	6.846
261.65	3.742
261.87	3.636
262.08	9.102
262.29	6.040
262.50	9.756
262.71	5.847
262.92	7.777
263.14	10.987
263.35	6.620
263.56	4.353
263.77	13.905
263.98	12.698
264.20	18.135
264.41	7.459
264.62	14.420
264.83	13.418
265.04	18.271
265.25	13.081
265.47	14.955
265.68	16.764
265.89	11.148
266.10	16.447
266.31	11.522
266.52	18.169
266.74	7.002
266.95	5.890
267.16	10.696
267.37	13.250
267.58	4.524
267.79	11.680
268.01	7.253
268.22	11.377
268.43	9.588
268.64	10.576
268.85	5.870
269.06	11.272
269.27	12.460
269.49	8.212
269.70	13.917
269.91	10.352
270.12	10.451
270.33	16.017
270.54	9.298
270.75	5.029
270.97	13.889
271.18	11.282
271.39	11.437
271.60	10.334
271.81	8.765
272.02	8.140
272.23	12.373
272.45	9.209
272.66	6.816
272.87	7.338
273.08	5.989
273.29	8.248
273.50	6.847
273.71	10.942
273.92	8.289
274.14	4.694
274.35	3.158
274.56	7.870
274.77	7.420
274.98	11.384
275.19	7.904
275.40	9.200
275.61	6.532
275.83	12.560
276.04	10.832
276.25	11.275
276.46	10.732
276.67	11.088
276.88	8.997
277.09	7.136
277.30	4.782
277.51	15.123
277.73	6.300
277.94	13.103
278.15	7.514
278.36	6.079
278.57	9.426
278.78	12.600
278.99	12.098
279.20	7.602
279.41	14.736
279.62	7.265
279.84	9.434
280.05	7.188
280.26	6.211
280.47	7.661
280.68	1.747
280.89	13.365
281.10	6.726
281.31	5.133
281.52	13.526
281.73	10.772
281.94	5.909
282.16	9.946
282.37	12.616
282.58	10.017
282.79	10.411
283.00	7.519
283.21	8.145
283.42	6.549
283.63	4.047
283.84	6.151
284.05	8.353
284.26	10.800
284.47	9.141
284.68	5.145
284.89	7.972
285.11	7.450
285.32	7.536
285.53	5.798
285.74	8.339
285.95	6.781
286.16	6.217
286.37	5.273
286.58	6.537
286.79	5.822
287.00	7.238
287.21	3.974
287.42	3.728
287.63	5.896
287.84	4.843
288.05	8.391
288.26	7.403
288.48	6.075
288.69	7.796
288.90	6.788
289.11	6.458
289.32	6.835
289.53	7.111
289.74	4.714
289.95	6.199
290.16	9.972
290.37	4.082
290.58	7.292
290.79	8.086
291.00	8.738
291.21	4.417
291.42	7.606
291.63	5.303
291.84	7.634
292.05	6.764
292.26	7.175
292.47	6.061
292.68	4.041
292.89	6.125
293.10	8.175
293.31	7.359
293.52	7.035
293.73	6.667
293.94	7.800
294.15	4.368
294.36	4.669
294.57	8.828
294.79	8.922
295.00	4.882
295.21	8.621
295.42	8.142
295.63	7.423
295.84	4.762
296.05	6.503
296.26	7.245
296.47	6.724
296.68	8.286
296.89	7.056
297.10	6.392
297.31	5.765
297.52	7.192
297.73	4.660
297.94	7.661
298.15	3.878
298.36	7.586
298.57	5.962
298.78	5.926
298.99	5.982
299.20	5.107
299.41	4.979
299.62	6.623
299.83	4.432
300.04	6.613
300.25	6.778
300.46	6.655
300.67	7.011
300.88	8.616
301.09	4.158
301.30	6.522
301.50	7.518
301.71	8.735
301.92	7.754
302.13	5.822
302.34	6.915
302.55	4.871
302.76	6.671
302.97	8.861
303.18	7.055
303.39	5.485
303.60	5.501
303.81	6.815
304.02	7.138
304.23	5.730
304.44	7.148
304.65	7.858
304.86	4.716
305.07	7.199
305.28	9.138
305.49	6.745
305.70	6.704
305.91	11.914
306.12	3.309
306.33	4.844
306.54	7.483
306.75	10.908
306.96	9.745
307.17	7.615
307.38	3.206
307.58	6.284
307.79	7.669
308.00	7.541
308.21	8.179
308.42	6.791
308.63	11.111
308.84	7.935
309.05	6.092
309.26	7.660
309.47	6.490
309.68	4.789
309.89	7.669
310.10	7.357
310.31	7.040
310.52	3.998
310.73	8.841
310.94	5.685
311.14	5.205
311.35	5.236
311.56	3.641
311.77	5.470
311.98	4.595
312.19	7.065
312.40	4.461
312.61	7.568
312.82	6.022
313.03	5.321
313.24	5.578
313.45	5.659
313.66	3.837
313.86	7.964
314.07	6.283
314.28	6.536
314.49	6.177
314.70	7.274
314.91	7.317
315.12	7.294
315.33	7.567
315.54	8.654
315.75	6.573
315.96	6.941
316.16	5.103
316.37	7.534
316.58	7.687
316.79	8.810
317.00	8.345
317.21	3.488
317.42	4.875
317.63	7.627
317.84	10.216
318.05	8.894
318.25	6.401
318.46	8.609
318.67	4.720
318.88	7.939
319.09	8.456
319.30	6.667
319.51	6.162
319.72	8.472
319.93	7.055
320.13	7.992
320.34	10.496
320.55	4.956
320.76	9.869
320.97	7.505
321.18	8.675
321.39	8.863
321.60	8.315
321.80	12.282
322.01	8.903
322.22	6.542
322.43	5.924
322.64	5.203
322.85	5.756
323.06	8.983
323.27	8.537
323.47	9.390
323.68	10.029
323.89	4.345
324.10	6.915
324.31	7.045
324.52	9.091
324.73	7.792
324.93	6.667
325.14	5.190
325.35	7.213
325.56	7.528
325.77	9.085
325.98	7.220
326.19	9.665
326.39	6.168
326.60	9.057
326.81	6.129
327.02	8.455
327.23	4.658
327.44	9.670
327.64	6.944
327.85	5.471
328.06	9.882
328.27	9.454
328.48	8.512
328.69	5.764
328.90	6.318
329.10	6.437
329.31	7.232
329.52	8.856
329.73	10.913
329.94	6.094
330.15	7.744
330.35	8.293
330.56	6.846
330.77	7.410
330.98	8.596
331.19	7.430
331.39	8.117
331.60	7.767
331.81	7.114
332.02	10.040
332.23	6.847
332.44	7.322
332.64	6.975
332.85	7.615
333.06	7.937
333.27	5.556
333.48	4.759
333.68	9.506
333.89	7.459
334.10	4.237
334.31	9.551
334.52	9.975
334.72	8.545
334.93	8.267
335.14	6.329
335.35	6.894
335.56	8.132
335.76	5.986
335.97	10.976
336.18	7.169
336.39	7.311
336.60	8.364
336.80	9.130
337.01	11.358
337.22	4.669
337.43	11.718
337.64	8.385
337.84	6.410
338.05	6.290
338.26	11.321
338.47	9.863
338.68	7.013
338.88	7.976
339.09	8.563
339.30	7.625
339.51	6.949
339.71	7.715
339.92	8.881
340.13	8.085
340.34	5.302
340.55	7.706
340.75	8.298
340.96	7.492
341.17	9.689
341.38	6.534
341.58	5.999
341.79	5.680
342.00	7.440
342.21	6.027
342.41	6.119
342.62	7.811
342.83	7.980
343.04	7.017
343.24	8.861
343.45	6.437
343.66	3.868
343.87	8.611
344.07	6.929
344.28	7.883
344.49	8.562
344.70	9.989
344.90	6.638
345.11	7.338
345.32	7.721
345.53	6.500
345.73	7.631
345.94	7.561
346.15	9.404
346.36	8.055
346.56	6.755
346.77	9.064
346.98	7.885
347.19	9.615
347.39	7.755
347.60	7.042
347.81	7.025
348.02	8.984
348.22	6.878
348.43	7.437
348.64	8.981
348.84	8.216
349.05	8.258
349.26	11.778
349.47	6.609
349.67	8.030
349.88	8.069
350.09	6.925
350.30	9.850
350.50	6.844
350.71	9.776
350.92	9.227
351.12	7.258
351.33	7.944
351.54	10.363
351.74	8.684
351.95	7.571
352.16	8.017
352.37	10.011
352.57	7.788
352.78	6.985
352.99	9.096
353.19	7.898
353.40	5.647
353.61	12.780
353.82	7.769
354.02	9.995
354.23	8.404
354.44	9.470
354.64	9.608
354.85	6.412
355.06	9.347
355.26	5.940
355.47	8.756
355.68	8.782
355.88	9.201
356.09	9.682
356.30	7.545
356.51	8.173
356.71	8.291
356.92	5.103
357.13	7.179
357.33	9.058
357.54	7.118
357.75	6.761
357.95	8.251
358.16	6.472
358.37	9.459
358.57	6.489
358.78	9.102
358.99	6.873
359.19	5.753
359.40	7.884
359.61	7.686
359.81	9.896
360.02	9.477
360.23	5.843
360.43	6.926
360.64	7.512
360.85	8.175
361.05	6.803
361.26	8.574
361.47	7.005
361.67	8.155
361.88	4.970
362.09	7.150
362.29	5.617
362.50	5.773
362.70	4.568
362.91	7.185
363.12	5.679
363.32	5.659
363.53	7.109
363.74	8.011
363.94	4.841
364.15	8.115
364.36	6.473
364.56	5.830
364.77	8.289
364.98	8.147
365.18	6.652
365.39	8.116
365.59	6.025
365.80	6.325
366.01	8.632
366.21	6.611
366.42	5.078
366.63	6.445
366.83	5.929
367.04	3.880
367.24	8.437
367.45	6.866
367.66	5.590
367.86	7.510
368.07	7.111
368.28	5.354
368.48	5.722
368.69	5.344
368.89	6.729
369.10	5.719
369.31	5.896
369.51	5.516
369.72	7.989
369.92	7.626
370.13	6.076
370.34	6.997
370.54	4.849
370.75	7.040
370.95	5.133
371.16	6.183
371.37	5.068
371.57	5.283
371.78	6.503
371.98	6.469
372.19	6.065
372.40	7.409
372.60	8.696
372.81	6.288
373.01	6.317
373.22	4.559
373.43	6.781
373.63	8.550
373.84	4.099
374.04	5.431
374.25	6.073
374.46	5.476
374.66	4.891
374.87	5.818
375.07	5.476
375.28	4.753
375.48	5.468
375.69	6.667
375.90	5.929
376.10	5.101
376.31	6.355
376.51	6.261
376.72	4.865
376.92	3.776
377.13	6.141
377.34	7.474
377.54	3.940
377.75	5.764
377.95	4.961
378.16	5.779
378.36	5.325
378.57	4.286
378.77	6.987
378.98	5.176
379.19	5.829
379.39	4.127
379.60	4.235
379.80	6.075
380.01	6.635
380.21	5.354
380.42	6.042
380.62	5.882
380.83	5.671
381.04	6.016
381.24	5.267
381.45	4.756
381.65	5.196
381.86	6.301
382.06	5.710
382.27	1.516
382.47	4.644
382.68	7.481
382.88	3.788
383.09	4.093
383.29	5.575
383.50	6.171
383.71	5.118
383.91	5.597
384.12	4.222
384.32	5.728
384.53	4.771
384.73	4.411
384.94	4.484
385.14	4.604
385.35	3.962
385.55	4.001
385.76	4.143
385.96	5.426
386.17	5.241
386.37	5.314
386.58	4.380
386.78	3.488
386.99	3.968
387.19	4.047
387.40	3.882
387.60	4.966
387.81	3.486
388.01	4.237
388.22	4.871
388.42	5.463
388.63	4.922
388.83	5.852
389.04	3.069
389.24	5.031
389.45	4.753
389.65	4.010
389.86	4.736
390.06	3.960
390.27	3.974
390.47	4.416
390.68	3.863
390.88	5.901
391.09	5.046
391.29	4.601
391.50	4.516
391.70	3.993
391.91	4.188
392.11	4.070
392.32	4.147
392.52	4.840
392.73	4.869
392.93	3.285
393.14	3.921
393.34	3.981
393.55	3.778
393.75	4.124
393.95	4.569
394.16	3.753
394.36	5.382
394.57	4.870
394.77	4.692
394.98	4.561
395.18	3.710
395.39	3.864
395.59	4.293
395.80	3.786
396.00	4.131
396.21	4.172
396.41	4.068
396.61	4.345
396.82	4.412
397.02	5.686
397.23	5.764
397.43	4.567
397.64	2.652
397.84	5.078
398.05	3.278
398.25	4.372
398.45	3.409
398.66	6.086
398.86	4.911
399.07	4.533
399.27	4.502
399.48	5.016
399.68	3.573
399.89	3.021
400.09	5.743
400.29	2.877
400.50	5.311
400.70	4.332
400.91	3.919
401.11	4.103
401.32	3.620
401.52	3.331
401.72	3.883
401.93	5.223
402.13	5.037
402.34	3.709
402.54	4.237
402.75	4.762
402.95	4.465
403.15	5.845
403.36	3.472
403.56	3.267
403.77	3.243
403.97	3.946
404.17	3.413
404.38	3.310
404.58	4.251
404.79	4.125
404.99	3.484
405.19	4.145
405.40	3.270
405.60	3.854
405.81	4.776
406.01	3.413
406.21	3.769
406.42	3.817
406.62	3.423
406.83	3.676
407.03	3.931
407.23	3.324
407.44	4.515
407.64	4.746
407.85	4.858
408.05	4.311
408.25	3.095
408.46	4.208
408.66	4.129
408.87	3.267
409.07	4.038
409.27	3.424
409.48	5.085
409.68	5.027
409.88	3.633
410.09	5.562
410.29	3.560
410.50	4.479
410.70	1.814
410.90	3.056
411.11	2.977
411.31	3.980
411.51	5.348
411.72	4.147
411.92	2.426
412.12	3.454
412.33	2.613
412.53	3.452
412.74	2.303
412.94	2.628
413.14	4.114
413.35	3.886
413.55	3.962
413.75	4.569
413.96	2.886
414.16	4.032
414.36	4.318
414.57	3.840
414.77	3.515
414.97	4.107
415.18	4.054
415.38	3.916
415.58	4.341
415.79	3.245
415.99	4.184
416.19	3.502
416.40	3.647
416.60	3.884
416.80	2.638
417.01	3.833
417.21	2.777
417.41	3.364
417.62	3.197
417.82	3.810
418.02	2.493
418.23	2.589
418.43	3.763
418.63	2.473
418.84	3.808
419.04	2.291
419.24	3.874
419.45	4.082
419.65	3.426
419.85	3.374
420.06	3.513
420.26	2.956
420.46	3.653
420.67	3.949
420.87	3.432
421.07	3.683
421.28	3.305
421.48	3.663
421.68	3.423
421.88	4.349
422.09	3.760
422.29	3.634
422.49	3.102
422.70	3.527
422.90	2.778
423.10	3.763
423.31	3.478
423.51	4.177
423.71	3.234
423.91	4.370
424.12	3.754
424.32	3.918
424.52	3.525
424.73	4.030
424.93	3.960
425.13	3.257
425.33	2.849
425.54	4.369
425.74	3.491
425.94	4.059
426.15	3.554
426.35	3.395
426.55	3.245
426.75	3.898
426.96	3.839
427.16	3.527
427.36	3.745
427.57	4.487
427.77	3.444
427.97	3.720
428.17	4.132
428.38	3.316
428.58	2.522
428.78	2.902
428.98	3.353
429.19	3.301
429.39	2.242
429.59	3.790
429.79	2.955
430.00	2.193
430.20	2.350
430.40	3.805
430.60	3.111
430.81	3.731
431.01	2.644
431.21	3.506
431.41	2.582
431.62	3.615
431.82	3.484
432.02	4.173
432.22	3.110
432.43	2.235
432.63	2.072
432.83	2.968
433.03	3.166
433.24	2.783
433.44	2.883
433.64	2.678
433.84	2.572
434.05	3.647
434.25	2.450
434.45	2.664
434.65	3.457
434.85	3.618
435.06	3.213
435.26	2.737
435.46	3.299
435.66	3.090
435.87	2.835
436.07	3.593
436.27	3.284
436.47	2.367
436.67	3.117
436.88	3.314
437.08	2.744
437.28	3.158
437.48	3.003
437.69	3.257
437.89	3.681
438.09	3.238
438.29	2.639
438.49	3.625
438.70	3.396
438.90	2.765
439.10	2.566
439.30	3.939
439.50	2.317
439.71	3.270
439.91	3.182
440.11	3.460
440.31	3.470
440.51	2.292
440.72	2.508
440.92	3.049
441.12	3.366
441.32	3.577
441.52	3.608
441.72	3.339
441.93	3.191
442.13	4.449
442.33	3.007
442.53	3.977
442.73	2.942
442.94	3.262
443.14	2.496
443.34	4.218
443.54	3.493
443.74	3.635
443.94	2.877
444.15	1.941
444.35	2.373
444.55	3.361
444.75	3.242
444.95	3.115
445.15	2.831
445.36	3.409
445.56	2.295
445.76	3.342
445.96	2.848
446.16	2.598
446.36	2.082
446.57	3.655
446.77	1.965
446.97	3.716
447.17	3.288
447.37	3.159
447.57	3.209
447.77	3.698
447.98	2.902
448.18	4.410
448.38	2.593
448.58	3.677
448.78	3.415
448.98	2.886
449.18	3.288
449.39	2.572
449.59	2.864
449.79	2.951
449.99	2.172
450.19	3.354
450.39	3.122
450.59	3.767
450.79	3.040
451.00	3.781
451.20	4.108
451.40	3.742
451.60	2.269
451.80	3.639
452.00	3.030
452.20	3.380
452.40	3.195
452.61	2.738
452.81	3.319
453.01	3.334
453.21	2.169
453.41	2.951
453.61	2.637
453.81	2.969
454.01	2.843
454.21	3.269
454.42	3.069
454.62	3.483
454.82	2.361
455.02	2.308
455.22	2.605
455.42	3.474
455.62	2.451
455.82	3.229
456.02	3.120
456.23	2.449
456.43	2.926
456.63	2.577
456.83	2.794
457.03	3.669
457.23	3.112
457.43	3.038
457.63	2.177
457.83	3.287
458.03	2.997
458.23	3.001
458.43	2.736
458.64	2.866
458.84	3.028
459.04	2.145
459.24	2.431
459.44	3.044
459.64	2.906
459.84	3.194
460.04	2.766
460.24	3.350
460.44	3.031
460.64	3.093
460.84	2.454
461.04	3.970
461.24	3.099
461.45	4.162
461.65	3.489
461.85	3.387
462.05	3.276
462.25	3.810
462.45	3.758
462.65	3.101
462.85	2.243
463.05	3.496
463.25	2.700
463.45	3.346
463.65	2.687
463.85	2.690
464.05	2.752
464.25	3.017
464.45	3.765
464.65	2.599
464.85	2.378
465.05	2.942
465.26	3.069
465.46	3.342
465.66	2.519
465.86	3.146
466.06	3.206
466.26	3.649
466.46	2.792
466.66	3.174
466.86	3.145
467.06	2.327
467.26	2.419
467.46	3.481
467.66	3.128
467.86	3.455
468.06	2.531
468.26	2.458
468.46	2.535
468.66	2.685
468.86	2.362
469.06	3.933
469.26	2.258
469.46	3.342
469.66	2.380
469.86	4.190
470.06	2.963
470.26	4.013
470.46	3.063
470.66	3.781
470.86	2.286
471.06	3.438
471.26	2.321
471.46	1.968
471.66	3.395
471.86	2.702
472.06	3.288
472.26	3.434
472.46	4.171
472.66	3.537
472.86	2.978
473.06	2.639
473.26	2.716
473.46	2.846
473.66	2.881
473.86	3.297
474.06	3.195
474.26	2.650
474.46	2.368
474.66	2.905
474.86	3.144
475.06	3.636
475.26	1.993
475.46	2.887
475.66	2.774
475.86	3.430
476.06	3.394
476.26	4.161
476.46	2.838
476.66	2.942
476.86	2.762
477.06	3.033
477.26	2.823
477.46	3.141
477.65	2.340
477.85	3.652
478.05	2.479
478.25	3.799
478.45	2.541
478.65	3.159
478.85	3.107
479.05	3.188
479.25	3.383
479.45	3.920
479.65	3.077
479.85	2.639
480.05	2.653
480.25	3.499
480.45	2.776
480.65	4.105
480.85	2.572
481.05	3.904
481.25	3.691
481.44	3.264
481.64	2.513
481.84	3.792
482.04	3.331
482.24	3.093
482.44	2.395
482.64	3.144
482.84	3.305
483.04	3.932
483.24	3.402
483.44	4.023
483.64	3.837
483.84	4.070
484.04	4.408
484.23	4.692
484.43	4.414
484.63	4.977
484.83	4.552
485.03	5.019
485.23	4.934
485.43	5.191
485.63	4.577
485.83	5.345
486.03	5.006
486.23	5.058
486.42	4.617
486.62	4.953
486.82	4.209
487.02	4.751
487.22	3.844
487.42	4.890
487.62	4.111
487.82	4.576
488.02	3.958
488.22	4.958
488.41	4.504
488.61	4.859
488.81	4.569
489.01	4.933
489.21	4.480
489.41	4.836
489.61	4.298
489.81	5.177
490.01	4.407
490.20	4.904
490.40	4.232
490.60	4.644
490.80	4.098
491.00	4.632
491.20	3.619
491.40	3.692
491.60	3.418
491.79	4.118
491.99	4.029
492.19	4.226
492.39	4.220
492.59	4.556
492.79	4.303
492.99	4.534
493.19	4.477
493.38	4.851
493.58	3.926
493.78	4.365
493.98	4.682
494.18	4.861
494.38	4.328
494.58	4.526
494.77	2.851
494.97	3.548
495.17	3.618
495.37	3.663
495.57	3.560
495.77	3.452
495.96	3.487
496.16	3.017
496.36	3.770
496.56	3.905
496.76	2.713
496.96	3.704
497.15	3.222
497.35	3.420
497.55	2.924
497.75	3.377
497.95	2.931
498.15	4.054
498.34	3.128
498.54	3.241
498.74	3.821
498.94	3.503
499.14	2.909
499.34	4.385
499.53	3.206
499.73	3.543
499.93	3.361
500.13	3.777
500.33	2.424
500.52	3.191
500.72	3.001
500.92	3.048
501.12	3.032
501.32	2.853
501.52	3.092
501.71	2.765
501.91	2.430
502.11	3.388
502.31	2.595
502.51	3.436
502.70	2.166
502.90	2.613
503.10	2.748
503.30	3.250
503.50	2.930
503.69	2.847
503.89	3.030
504.09	3.589
504.29	2.956
504.48	3.330
504.68	3.275
504.88	3.343
505.08	2.651
505.28	3.267
505.47	2.898
505.67	4.186
505.87	2.977
506.07	3.118
506.27	2.435
506.46	3.441
506.66	3.330
506.86	3.613
507.06	3.605
507.25	4.002
507.45	3.457
507.65	3.920
507.85	2.887
508.04	3.358
508.24	2.950
508.44	3.248
508.64	2.969
508.83	3.517
509.03	2.944
509.23	3.713
509.43	2.351
509.63	3.803
509.82	3.101
510.02	3.281
510.22	2.799
510.42	4.423
510.61	3.631
510.81	3.429
511.01	3.676
511.21	3.482
511.40	2.908
511.60	3.563
511.80	3.150
511.99	4.018
512.19	3.796
512.39	4.238
512.59	3.149
512.78	4.031
512.98	3.667
513.18	2.978
513.38	3.111
513.57	3.937
513.77	3.379
513.97	3.249
514.17	3.036
514.36	3.729
514.56	3.385
514.76	4.147
514.95	2.722
515.15	3.641
515.35	2.603
515.55	3.379
515.74	3.694
515.94	4.280
516.14	2.843
516.33	3.729
516.53	3.115
516.73	3.526
516.93	3.801
517.12	3.991
517.32	2.132
517.52	3.762
517.71	2.972
517.91	4.001
518.11	3.234
518.30	3.838
518.50	2.486
518.70	3.465
518.90	3.662
519.09	3.748
519.29	3.869
519.49	4.508
519.68	3.374
519.88	4.680
520.08	3.984
520.27	3.870
520.47	4.035
520.67	4.075
520.86	4.167
521.06	4.992
521.26	2.948
521.45	4.327
521.65	3.603
521.85	3.227
522.04	2.890
522.24	3.903
522.44	2.571
522.63	3.984
522.83	2.687
523.03	3.917
523.22	3.295
523.42	3.845
523.62	3.798
523.81	3.992
524.01	3.803
524.21	3.530
524.40	3.267
524.60	3.679
524.80	3.227
524.99	3.401
525.19	3.259
525.39	3.719
525.58	3.110
525.78	4.085
525.98	3.768
526.17	4.327
526.37	4.056
526.57	4.502
526.76	4.154
526.96	4.881
527.15	3.532
527.35	4.208
527.55	3.570
527.74	4.873
527.94	4.193
528.14	4.279
528.33	4.165
528.53	4.862
528.72	4.082
528.92	5.203
529.12	4.927
529.31	5.487
529.51	5.152
529.71	5.320
529.90	4.953
530.10	5.419
530.29	5.361
530.49	5.525
530.69	5.026
530.88	5.369
531.08	4.967
531.28	5.213
531.47	4.786
531.67	5.068
531.86	4.632
532.06	4.888
532.26	3.843
532.45	4.909
532.65	4.194
532.84	4.732
533.04	3.649
533.24	4.223
533.43	3.675
533.63	5.107
533.82	4.257
534.02	5.491
534.22	4.700
534.41	5.026
534.61	4.926
534.80	4.786
535.00	4.996
535.19	5.251
535.39	4.774
535.59	4.939
535.78	4.170
535.98	4.797
536.17	3.629
536.37	4.385
536.57	4.330
536.76	4.729
536.96	4.231
537.15	4.837
537.35	3.514
537.54	5.067
537.74	4.058
537.93	5.471
538.13	3.966
538.33	4.546
538.52	3.960
538.72	4.061
538.91	4.064
539.11	4.078
539.30	3.619
539.50	4.619
539.70	3.107
539.89	5.200
540.09	3.515
540.28	4.290
540.48	2.948
540.67	4.035
540.87	3.729
541.06	4.821
541.26	3.640
541.45	5.557
541.65	4.572
541.85	4.880
542.04	4.373
542.24	5.643
542.43	5.077
542.63	5.225
542.82	4.784
543.02	5.544
543.21	5.193
543.41	5.722
543.60	5.165
543.80	5.954
543.99	4.548
544.19	5.598
544.38	4.933
544.58	5.362
544.77	4.767
544.97	5.279
545.16	3.815
545.36	5.020
545.56	4.344
545.75	4.548
545.95	3.770
546.14	5.257
546.34	3.430
546.53	5.198
546.73	4.008
546.92	4.749
547.12	3.683
547.31	4.704
547.51	3.707
547.70	5.210
547.90	3.859
548.09	4.622
548.29	3.841
548.48	5.435
548.68	4.286
548.87	5.240
549.07	4.507
549.26	4.232
549.46	4.279
549.65	4.740
549.84	3.716
550.04	3.706
550.23	3.308
550.43	3.780
550.62	4.062
550.82	4.159
551.01	2.997
551.21	3.511
551.40	3.697
551.60	4.070
551.79	3.781
551.99	3.636
552.18	3.840
552.38	3.935
552.57	4.646
552.77	4.679
552.96	4.352
553.16	5.115
553.35	3.474
553.54	4.942
553.74	4.299
553.93	5.692
554.13	4.733
554.32	4.368
554.52	4.165
554.71	5.117
554.91	4.086
555.10	4.850
555.29	3.746
555.49	4.871
555.68	3.858
555.88	4.964
556.07	3.838
556.27	5.127
556.46	4.660
556.66	3.499
556.85	4.981
557.04	5.479
557.24	4.116
557.43	4.663
557.63	4.416
557.82	4.143
558.02	3.647
558.21	5.676
558.40	4.110
558.60	5.120
558.79	4.955
558.99	5.330
559.18	4.332
559.38	5.652
559.57	4.295
559.76	5.736
559.96	5.233
560.15	4.529
560.35	4.184
560.54	4.532
560.73	4.570
560.93	5.617
561.12	4.651
561.32	5.537
561.51	4.530
561.70	4.872
561.90	4.517
562.09	6.141
562.29	4.522
562.48	5.448
562.67	5.020
562.87	6.061
563.06	4.262
563.26	5.812
563.45	4.862
563.64	6.217
563.84	4.816
564.03	5.758
564.23	5.637
564.42	7.476
564.61	5.197
564.81	6.182
565.00	6.101
565.20	6.576
565.39	5.990
565.58	7.003
565.78	5.287
565.97	7.015
566.16	7.126
566.36	8.772
566.55	6.331
566.74	6.323
566.94	5.958
567.13	8.411
567.33	5.744
567.52	7.503
567.71	7.033
567.91	7.266
568.10	6.918
568.29	7.750
568.49	6.547
568.68	7.939
568.87	6.654
569.07	7.656
569.26	7.321
569.45	8.041
569.65	7.302
569.84	7.985
570.04	7.184
570.23	7.452
570.42	6.076
570.62	7.229
570.81	7.329
571.00	8.998
571.20	7.054
571.39	8.139
571.58	7.804
571.78	9.142
571.97	7.469
572.16	8.739
572.36	7.407
572.55	9.314
572.74	7.882
572.94	7.692
573.13	7.946
573.32	9.446
573.51	8.206
573.71	9.813
573.90	7.729
574.09	9.966
574.29	8.226
574.48	9.297
574.67	8.318
574.87	9.110
575.06	7.819
575.25	9.078
575.45	7.946
575.64	8.715
575.83	7.606
576.03	9.941
576.22	7.870
576.41	9.490
576.60	8.348
576.80	8.632
576.99	8.501
577.18	9.902
577.38	7.592
577.57	8.888
577.76	9.907
577.95	8.608
578.15	7.152
578.34	9.014
578.53	7.764
578.73	9.627
578.92	7.323
579.11	7.715
579.30	7.440
579.50	8.062
579.69	8.052
579.88	8.097
580.08	7.204
580.27	7.630
580.46	7.559
580.65	8.693
580.85	7.132
581.04	7.797
581.23	8.100
581.42	8.804
581.62	7.158
581.81	8.857
582.00	7.481
582.19	7.239
582.39	8.400
582.58	7.244
582.77	7.808
582.96	8.164
583.16	6.881
583.35	8.520
583.54	7.827
583.73	8.045
583.93	7.055
584.12	7.476
584.31	7.228
584.50	8.163
584.70	7.667
584.89	7.338
585.08	6.704
585.27	8.495
585.47	6.895
585.66	7.845
585.85	7.016
586.04	7.797
586.24	7.816
586.43	7.110
586.62	6.094
586.81	8.307
587.00	5.316
587.20	8.193
587.39	6.127
587.58	8.812
587.77	7.517
587.97	6.324
588.16	6.280
588.35	8.315
588.54	6.122
588.73	7.382
588.93	8.402
589.12	7.562
589.31	7.296
589.50	6.979
589.69	8.112
589.89	7.586
590.08	5.664
590.27	6.517
590.46	6.633
590.65	7.266
590.85	6.096
591.04	8.013
591.23	6.937
591.42	7.887
591.61	6.912
591.81	7.267
592.00	6.558
592.19	8.462
592.38	6.298
592.57	8.249
592.77	7.302
592.96	6.618
593.15	7.752
593.34	7.360
593.53	6.884
593.72	8.034
593.92	7.016
594.11	9.053
594.30	6.165
594.49	8.518
594.68	7.695
594.87	8.224
595.07	6.199
595.26	8.117
595.45	6.877
595.64	8.561
595.83	6.040
596.02	9.007
596.22	6.686
596.41	8.479
596.60	7.590
596.79	9.490
596.98	7.118
597.17	9.616
597.37	7.518
597.56	9.562
597.75	6.841
597.94	9.177
598.13	9.223
598.32	8.570
598.51	7.958
598.71	10.104
598.90	7.713
599.09	8.582
599.28	8.004
599.47	9.161
599.66	6.990
599.85	8.958
600.05	7.514
600.24	9.469
600.43	7.373
600.62	8.216
600.81	8.087
601.00	9.198
601.19	5.959
601.38	8.066
601.58	8.021
601.77	8.064
601.96	7.468
602.15	8.907
602.34	8.060
602.53	9.261
602.72	7.354
602.91	8.760
603.10	8.336
603.30	8.567
603.49	7.127
603.68	9.072
603.87	6.815
604.06	9.077
604.25	8.692
604.44	9.811
604.63	8.197
604.82	10.182
605.01	9.277
605.21	9.378
605.40	8.874
605.59	9.715
605.78	9.640
605.97	10.352
606.16	9.197
606.35	10.044
606.54	8.654
606.73	10.887
606.92	7.694
607.11	9.711
607.30	8.917
607.50	9.697
607.69	7.662
607.88	8.097
608.07	6.689
608.26	8.520
608.45	8.505
608.64	10.463
608.83	7.627
609.02	8.844
609.21	7.808
609.40	9.439
609.59	7.955
609.78	8.561
609.97	7.899
610.16	9.114
610.35	8.505
610.55	9.035
610.74	8.811
610.93	9.188
611.12	8.743
611.31	9.066
611.50	7.363
611.69	8.040
611.88	7.333
612.07	10.639
612.26	6.919
612.45	8.073
612.64	6.473
612.83	7.661
613.02	6.140
613.21	6.283
613.40	7.177
613.59	7.716
613.78	4.910
613.97	7.796
614.16	7.101
614.35	8.241
614.54	6.276
614.73	6.830
614.92	6.800
615.11	6.168
615.30	6.905
615.49	6.056
615.68	7.355
615.87	6.424
616.07	5.705
616.26	5.192
616.45	5.868
616.64	6.760
616.83	5.994
617.02	7.255
617.21	6.082
617.40	5.094
617.59	7.064
617.78	6.634
617.97	6.298
618.16	5.408
618.35	5.023
618.54	5.486
618.73	6.339
618.92	5.833
619.11	5.007
619.30	8.023
619.49	5.053
619.68	6.327
619.86	5.219
620.05	7.840
620.24	4.831
620.43	5.845
620.62	3.747
620.81	5.639
621.00	5.509
621.19	6.915
621.38	5.235
621.57	5.106
621.76	5.217
621.95	7.503
622.14	5.962
622.33	7.432
622.52	5.172
622.71	6.751
622.90	5.145
623.09	5.999
623.28	6.386
623.47	6.657
623.66	5.834
623.85	5.445
624.04	6.165
624.23	6.864
624.42	4.805
624.61	5.083
624.80	4.262
624.99	6.293
625.18	5.018
625.36	6.019
625.55	7.770
625.74	4.808
625.93	4.914
626.12	4.968
626.31	7.076
626.50	5.953
626.69	5.233
626.88	7.942
627.07	6.909
627.26	5.777
627.45	4.709
627.64	6.173
627.83	4.790
628.02	6.502
628.20	6.119
628.39	6.817
628.58	5.536
628.77	6.544
628.96	5.615
629.15	5.159
629.34	5.693
629.53	4.082
629.72	5.274
629.91	7.974
630.10	5.282
630.29	4.612
630.47	5.417
630.66	4.377
630.85	4.637
631.04	6.773
631.23	4.399
631.42	5.158
631.61	4.454
631.80	7.613
631.99	5.995
632.18	4.260
632.36	4.535
632.55	6.648
632.74	5.847
632.93	5.006
633.12	6.105
633.31	4.864
633.50	5.617
633.69	5.790
633.88	4.185
634.06	6.308
634.25	5.552
634.44	5.900
634.63	5.247
634.82	6.513
635.01	4.419
635.20	6.030
635.39	4.377
635.57	5.566
635.76	4.874
635.95	4.434
636.14	3.422
636.33	5.521
636.52	4.073
636.71	4.587
636.89	4.751
637.08	5.460
637.27	5.304
637.46	4.800
637.65	5.627
637.84	4.700
638.03	4.289
638.21	5.550
638.40	5.593
638.59	4.486
638.78	6.005
638.97	5.246
639.16	5.561
639.34	4.883
639.53	3.449
639.72	6.301
639.91	4.451
640.10	4.949
640.29	6.337
640.47	6.373
640.66	6.595
640.85	6.765
641.04	4.166
641.23	4.861
641.42	4.877
641.60	4.314
641.79	4.844
641.98	3.710
642.17	5.754
642.36	6.831
642.54	5.383
642.73	4.062
642.92	3.375
643.11	3.958
643.30	4.032
643.49	5.671
643.67	4.882
643.86	5.758
644.05	3.621
644.24	6.252
644.43	5.055
644.61	4.765
644.80	4.396
644.99	3.335
645.18	6.581
645.37	5.009
645.55	5.181
645.74	5.888
645.93	6.075
646.12	5.364
646.31	4.864
646.49	4.189
646.68	4.985
646.87	4.177
647.06	5.011
647.24	3.456
647.43	4.306
647.62	6.206
647.81	4.187
648.00	4.421
648.18	4.385
648.37	6.413
648.56	3.675
648.75	4.821
648.93	5.589
649.12	4.102
649.31	5.868
649.50	4.289
649.68	4.021
649.87	5.143
650.06	3.664
650.25	6.302
650.43	5.875
650.62	4.617
650.81	5.342
651.00	4.473
651.18	4.612
651.37	5.457
651.56	6.279
651.75	6.052
651.93	5.006
652.12	4.253
652.31	2.922
652.50	4.548
652.68	5.488
652.87	5.947
653.06	5.317
653.25	5.975
653.43	5.820
653.62	4.394
653.81	3.421
654.00	6.611
654.18	4.264
654.37	6.559
654.56	5.207
654.74	5.070
654.93	4.024
655.12	5.268
655.31	5.532
655.49	4.930
655.68	4.801
655.87	5.180
656.05	5.476
656.24	5.481
656.43	1.520
656.62	4.940
656.80	4.790
656.99	4.601
657.18	3.747
657.36	4.410
657.55	5.650
657.74	5.330
657.93	6.922
658.11	6.007
658.30	4.013
658.49	2.978
658.67	5.093
658.86	5.153
659.05	4.449
659.23	3.852
659.42	4.609
659.61	4.177
659.79	3.730
659.98	4.517
660.17	3.471
660.35	4.540
660.54	4.665
660.73	6.457
660.91	5.131
661.10	5.213
661.29	3.517
661.47	4.974
661.66	4.364
661.85	4.415
662.03	5.404
662.22	3.558
662.41	3.576
662.59	5.037
662.78	3.157
662.97	5.009
663.15	3.804
663.34	4.509
663.53	3.596
663.71	4.881
663.90	3.821
664.09	4.905
664.27	5.061
664.46	4.807
664.65	4.897
664.83	3.923
665.02	5.153
665.21	4.646
665.39	5.503
665.58	3.816
665.77	4.570
665.95	5.372
666.14	4.585
666.32	4.178
666.51	5.310
666.70	4.116
666.88	5.683
667.07	4.072
667.26	4.085
667.44	5.066
667.63	5.372
667.81	4.654
668.00	3.511
668.19	6.318
668.37	4.922
668.56	5.240
668.75	4.693
668.93	6.174
669.12	3.876
669.30	4.454
669.49	4.865
669.68	3.736
669.86	4.666
670.05	4.057
670.23	4.745
670.42	4.292
670.61	4.159
670.79	5.610
670.98	5.481
671.16	5.310
671.35	6.961
671.54	4.676
671.72	3.934
671.91	4.753
672.09	4.649
672.28	7.382
672.46	6.727
672.65	3.750
672.84	8.522
673.02	7.627
673.21	4.810
673.39	5.098
673.58	7.424
673.77	5.839
673.95	6.179
674.14	5.756
674.32	5.752
674.51	8.649
674.69	6.839
674.88	7.824
675.07	5.478
675.25	7.913
675.44	7.350
675.62	6.535
675.81	5.062
675.99	10.422
676.18	7.160
676.36	6.643
676.55	5.002
676.74	7.692
676.92	9.452
677.11	9.127
677.29	7.148
677.48	7.825
677.66	7.716
677.85	7.447
678.03	7.349
678.22	7.270
678.40	6.400
678.59	6.545
678.78	6.710
678.96	6.975
679.15	6.425
679.33	7.274
679.52	9.235
679.70	6.893
679.89	6.115
680.07	6.861
680.26	6.331
680.44	7.442
680.63	7.889
680.81	7.257
681.00	5.578
681.18	6.634
681.37	6.864
681.55	7.914
681.74	9.317
681.92	7.831
682.11	7.009
682.29	7.536
682.48	6.309
682.66	8.365
682.85	6.103
683.03	8.149
683.22	8.730
683.40	11.429
683.59	7.403
683.77	8.448
683.96	7.125
684.14	9.278
684.33	5.382
684.51	11.027
684.70	9.270
684.88	10.726
685.07	9.295
685.25	10.925
685.44	6.814
685.62	10.438
685.81	9.010
685.99	9.105
686.18	7.989
686.36	8.761
686.55	6.976
686.73	8.105
686.92	10.952
687.10	11.634
687.29	10.588
687.47	9.307
687.65	10.154
687.84	8.755
688.02	11.938
688.21	12.148
688.39	10.073
688.58	13.405
688.76	8.956
688.95	10.266
689.13	7.502
689.32	11.543
689.50	9.351
689.68	8.340
689.87	10.906
690.05	12.343
690.24	11.380
690.42	10.074
690.61	10.029
690.79	11.743
690.98	10.572
691.16	12.844
691.34	8.591
691.53	11.576
691.71	10.048
691.90	11.629
692.08	8.694
692.27	13.363
692.45	12.959
692.63	10.619
692.82	13.163
693.00	13.688
693.19	9.890
693.37	12.760
693.56	13.247
693.74	14.689
693.92	12.292
694.11	14.958
694.29	11.443
694.48	17.937
694.66	13.985
694.84	16.322
695.03	11.249
695.21	19.307
695.40	20.356
695.58	18.867
695.76	13.684
695.95	17.020
696.13	14.612
696.32	18.298
696.50	23.931
696.68	17.090
696.87	15.733
697.05	18.573
697.24	16.241
697.42	20.938
697.60	18.107
697.79	20.127
697.97	19.285
698.16	22.874
698.34	18.178
698.52	22.430
698.71	20.319
698.89	21.041
699.07	20.774
699.26	21.950
699.44	21.751
699.63	24.050
699.81	22.055
699.99	23.789
700.18	23.014
700.36	27.974
700.54	24.599
700.73	25.260
700.91	22.199
701.09	25.975
701.28	23.369
701.46	26.637
701.64	22.850
701.83	26.350
702.01	21.752
702.20	29.638
702.38	29.249
702.56	27.103
702.75	22.369
702.93	26.916
703.11	24.054
703.30	27.091
703.48	26.559
703.66	28.529
703.85	28.556
704.03	30.463
704.21	30.152
704.40	29.584
704.58	26.602
704.76	29.783
704.95	26.689
705.13	31.000
705.31	31.597
705.50	32.673
705.68	26.425
705.86	32.285
706.04	29.090
706.23	31.264
706.41	30.838
706.59	29.271
706.78	32.256
706.96	30.901
707.14	33.534
707.33	34.436
707.51	29.198
707.69	33.019
707.88	30.352
708.06	33.496
708.24	30.146
708.42	37.075
708.61	29.572
708.79	32.335
708.97	34.067
709.16	31.410
709.34	31.587
709.52	32.479
709.71	33.370
709.89	36.887
710.07	31.710
710.25	32.919
710.44	28.579
710.62	36.198
710.80	33.804
710.98	37.978
711.17	35.876
711.35	35.963
711.53	35.366
711.72	36.000
711.90	36.839
712.08	36.038
712.26	34.739
712.45	38.591
712.63	36.161
712.81	39.237
712.99	34.550
713.18	37.633
713.36	36.480
713.54	35.449
713.72	33.403
713.91	35.554
714.09	34.198
714.27	35.169
714.45	36.576
714.64	39.353
714.82	37.454
715.00	36.628
715.18	36.242
715.37	37.261
715.55	35.597
715.73	38.540
715.91	34.915
716.10	38.969
716.28	37.500
716.46	37.076
716.64	33.943
716.83	38.182
717.01	35.075
717.19	36.427
717.37	33.793
717.55	39.697
717.74	35.761
717.92	37.388
718.10	35.495
718.28	39.252
718.47	33.236
718.65	38.383
718.83	37.794
719.01	37.673
719.19	36.113
719.38	38.069
719.56	36.496
719.74	38.366
719.92	32.476
720.10	35.605
720.29	35.580
720.47	37.918
720.65	36.413
720.83	39.258
721.01	34.888
721.20	39.595
721.38	38.519
721.56	36.389
721.74	37.787
721.92	42.087
722.11	35.615
722.29	38.643
722.47	40.399
722.65	40.167
722.83	42.155
723.01	38.851
723.20	38.695
723.38	43.333
723.56	37.991
723.74	42.405
723.92	37.029
724.10	39.645
724.29	35.436
724.47	42.889
724.65	35.294
724.83	42.372
725.01	38.445
725.19	42.013
725.38	41.100
725.56	39.480
725.74	40.511
725.92	43.089
726.10	40.043
726.28	44.255
726.46	41.050
726.65	44.437
726.83	40.604
727.01	45.362
727.19	39.571
727.37	42.014
727.55	43.243
727.73	39.365
727.92	41.736
728.10	44.043
728.28	39.506
728.46	45.305
728.64	41.363
728.82	42.158
729.00	42.292
729.19	44.315
729.37	44.496
729.55	45.032
729.73	38.586
729.91	45.660
730.09	40.553
730.27	46.954
730.45	42.968
730.63	41.809
730.82	40.350
731.00	45.292
731.18	42.313
731.36	44.698
731.54	42.257
731.72	42.395
731.90	40.874
732.08	43.974
732.26	41.733
732.45	48.420
732.63	42.952
732.81	46.975
732.99	43.660
733.17	47.674
733.35	44.558
733.53	46.248
733.71	42.145
733.89	44.785
734.07	47.265
734.25	47.628
734.44	46.484
734.62	45.648
734.80	45.442
734.98	49.376
735.16	47.636
735.34	49.254
735.52	47.657
735.70	46.042
735.88	47.710
736.06	50.260
736.24	53.075
736.42	49.687
736.60	53.918
736.78	55.172
736.97	50.879
737.15	56.142
737.33	50.453
737.51	52.354
737.69	53.240
737.87	47.401
738.05	53.777
738.23	50.277
738.41	50.317
738.59	50.248
738.77	53.367
738.95	57.096
739.13	50.160
739.31	48.189
739.49	50.080
739.67	49.195
739.85	52.713
740.03	53.786
740.21	48.487
740.39	51.914
740.57	52.465
740.75	54.511
740.93	47.679
741.11	56.894
741.30	50.526
741.48	53.966
741.66	52.508
741.84	56.478
742.02	47.692
742.20	53.908
742.38	49.055
742.56	56.140
742.74	52.209
742.92	50.395
743.10	50.500
743.28	61.256
743.46	51.498
743.64	55.009
743.82	55.034
744.00	56.100
744.18	53.923
744.36	54.400
744.54	53.261
744.72	54.827
744.90	56.084
745.08	57.143
745.26	60.780
745.44	55.179
745.62	55.086
745.80	57.998
745.98	57.469
746.16	53.110
746.34	55.544
746.52	59.426
746.70	53.091
746.87	64.410
747.05	57.447
747.23	59.816
747.41	54.787
747.59	59.980
747.77	55.924
747.95	57.364
748.13	52.740
748.31	51.240
748.49	60.040
748.67	57.677
748.85	55.979
749.03	58.800
749.21	58.611
749.39	61.585
749.57	52.729
749.75	57.283
749.93	54.719
750.11	61.384
750.29	50.618
750.47	54.062
750.65	59.317
750.83	65.933
751.01	55.980
751.18	61.497
751.36	59.362
751.54	55.533
751.72	57.542
751.90	55.620
752.08	55.710
752.26	61.966
752.44	56.682
752.62	58.911
752.80	54.517
752.98	64.851
753.16	54.800
753.34	57.253
753.52	57.696
753.69	59.065
753.87	54.928
754.05	57.390
754.23	63.039
754.41	57.255
754.59	56.552
754.77	57.357
754.95	55.942
755.13	59.708
755.31	61.943
755.49	61.111
755.66	55.488
755.84	57.267
756.02	57.299
756.20	60.283
756.38	54.697
756.56	58.293
756.74	56.275
756.92	55.193
757.10	61.949
757.28	57.688
757.45	59.365
757.63	62.637
757.81	53.156
757.99	58.775
758.17	61.087
758.35	61.446
758.53	57.771
758.71	58.107
758.88	51.248
759.06	54.171
759.24	50.094
759.42	46.863
759.60	49.251
759.78	50.501
759.96	42.549
760.13	46.251
760.31	40.705
760.49	41.967
760.67	36.629
760.85	40.727
761.03	33.300
761.21	38.177
761.38	32.527
761.56	39.086
761.74	35.878
761.92	40.485
762.10	32.526
762.28	43.028
762.46	34.074
762.63	42.635
762.81	37.205
762.99	44.247
763.17	32.417
763.35	35.640
763.53	37.705
763.70	41.989
763.88	39.506
764.06	37.256
764.24	34.521
764.42	41.402
764.60	39.617
764.77	41.027
764.95	39.644
765.13	41.982
765.31	35.809
765.49	42.702
765.66	40.220
765.84	44.623
766.02	43.059
766.20	44.033
766.38	44.309
766.56	51.020
766.73	48.791
766.91	46.432
767.09	52.688
767.27	49.424
767.45	47.953
767.62	54.608
767.80	49.951
767.98	56.504
768.16	47.560
768.33	61.940
768.51	54.211
768.69	61.627
768.87	54.757
769.05	59.813
769.22	56.229
769.40	60.407
769.58	61.366
769.76	65.079
769.94	58.780
770.11	58.204
770.29	59.080
770.47	60.271
770.65	63.075
770.82	54.831
771.00	60.465
771.18	64.146
771.36	59.896
771.53	59.759
771.71	61.184
771.89	62.177
772.07	56.694
772.25	68.094
772.42	58.924
772.60	74.596
772.78	59.652
772.96	66.284
773.13	60.714
773.31	63.441
773.49	64.151
773.67	64.625
773.84	61.960
774.02	65.481
774.20	61.314
774.37	56.328
774.55	61.583
774.73	64.953
774.91	61.002
775.08	62.952
775.26	64.474
775.44	68.855
775.62	64.829
775.79	63.845
775.97	66.154
776.15	52.983
776.32	57.935
776.50	70.698
776.68	63.676
776.86	65.217
777.03	59.810
777.21	64.521
777.39	63.425
777.56	59.624
777.74	61.446
777.92	59.110
778.10	59.486
778.27	69.147
778.45	63.166
778.63	68.246
778.80	62.580
778.98	60.770
779.16	70.519
779.34	60.377
779.51	57.822
779.69	68.543
779.87	63.594
780.04	57.746
780.22	56.471
780.40	57.224
780.57	64.753
780.75	54.888
780.93	62.009
781.10	71.002
781.28	62.768
781.46	62.989
781.63	60.000
781.81	59.509
781.99	62.664
782.16	64.404
782.34	52.862
782.52	56.361
782.69	62.126
782.87	57.432
783.05	59.222
783.22	64.643
783.40	59.779
783.58	67.764
783.75	64.605
783.93	69.331
784.11	69.420
784.28	72.491
784.46	63.492
784.64	67.321
784.81	65.233
784.99	62.802
785.17	65.437
785.34	64.235
785.52	58.286
785.69	56.498
785.87	67.598
786.05	66.786
786.22	59.434
786.40	76.642
786.58	66.107
786.75	66.543
786.93	63.908
787.11	58.916
787.28	62.027
787.46	67.148
787.63	65.882
787.81	60.291
787.99	62.917
788.16	60.164
788.34	49.518
788.51	57.296
788.69	48.093
788.87	52.395
789.04	61.760
789.22	55.152
789.39	49.094
789.57	58.408
789.75	56.364
789.92	60.767
790.10	44.476
790.27	55.000
790.45	55.292
790.63	52.313
790.80	59.871
790.98	58.451
791.15	56.677
791.33	53.834
791.51	65.451
791.68	54.399
791.86	62.087
792.03	59.284
792.21	61.213
792.39	56.206
792.56	59.337
792.74	58.979
792.91	57.222
793.09	57.293
793.26	64.361
793.44	54.080
793.62	60.827
793.79	66.600
793.97	58.480
794.14	63.636
794.32	60.040
794.49	68.028
794.67	58.740
794.84	53.249
795.02	58.034
795.20	53.497
795.37	59.800
795.55	48.282
795.72	56.716
795.90	63.353
796.07	61.508
796.25	61.121
796.42	53.147
796.60	51.419
796.77	56.584
796.95	60.579
797.13	52.000
797.30	62.007
797.48	47.117
797.65	55.056
797.83	51.510
798.00	56.903
798.18	54.228
798.35	58.276
798.53	66.796
798.70	49.735
798.88	66.468
799.05	53.832
799.23	40.437
799.40	55.516
799.58	56.522
799.75	60.908
799.93	55.449
800.10	64.662
800.28	57.971
800.45	64.588
800.63	51.141
800.80	56.835
800.98	64.461
801.15	48.014
801.33	53.682
801.50	53.405
801.68	49.348
801.85	53.282
802.03	64.128
802.20	59.798
802.38	54.307
802.55	65.145
802.73	65.703
802.90	53.737
803.08	54.257
803.25	59.118
803.43	61.066
803.60	60.044
803.78	58.153
803.95	52.814
804.13	60.115
804.30	62.416
804.48	56.769
804.65	49.438
804.83	62.575
805.00	62.914
805.17	68.017
805.35	55.801
805.52	55.397
805.70	60.788
805.87	53.053
806.05	49.197
806.22	56.875
806.40	58.223
806.57	58.915
806.75	63.730
806.92	51.646
807.09	57.895
807.27	60.816
807.44	63.065
807.62	56.274
807.79	53.645
807.97	47.400
808.14	51.351
808.31	53.728
808.49	77.778
808.66	54.321
808.84	57.143
809.01	54.023
809.19	53.991
809.36	58.038
809.53	58.581
809.71	55.983
809.88	61.905
810.06	66.083
810.23	65.479
810.41	63.941
810.58	67.476
810.75	52.632
810.93	57.534
811.10	47.598
811.28	58.652
811.45	58.396
811.62	57.033
811.80	58.794
811.97	57.286
812.15	60.364
812.32	58.901
812.49	55.037
812.67	61.098
812.84	60.577
813.02	58.995
813.19	64.891
813.36	55.801
813.54	56.927
813.71	60.052
813.89	49.223
814.06	55.388
814.23	45.882
814.41	50.000
814.58	59.780
814.75	55.858
814.93	57.921
815.10	58.090
815.28	55.224
815.45	46.370
815.62	57.184
815.80	40.936
815.97	46.750
816.14	50.663
816.32	57.106
816.49	37.995
816.66	44.800
816.84	46.925
817.01	43.413
817.18	54.308
817.36	51.414
817.53	54.126
817.71	46.787
817.88	44.213
818.05	47.178
818.23	44.769
818.40	34.933
818.57	46.925
818.75	49.474
818.92	61.905
819.09	35.013
819.27	45.750
819.44	38.005
819.61	46.189
819.79	44.072
819.96	35.616
820.13	47.189
820.31	46.935
820.48	48.065
820.65	46.055
820.82	45.386
821.00	41.338
821.17	37.351
821.34	33.546
821.52	35.524
821.69	40.741
821.86	30.761
822.04	40.221
822.21	30.590
822.38	33.910
822.56	27.690
822.73	33.164
822.90	29.288
823.07	33.744
823.25	32.454
823.42	34.071
823.59	33.359
823.77	35.487
823.94	32.375
824.11	35.036
824.29	33.059
824.46	35.497
824.63	36.385
824.80	35.968
824.98	33.262
825.15	35.471
825.32	32.835
825.49	34.780
825.67	39.457
825.84	38.018
826.01	34.167
826.19	42.250
826.36	30.185
826.53	39.678
826.70	34.545
826.88	37.156
827.05	28.049
827.22	28.403
827.39	33.361
827.57	34.046
827.74	29.803
827.91	32.622
828.08	31.747
828.26	34.154
828.43	31.600
828.60	34.594
828.77	31.220
828.95	33.006
829.12	30.581
829.29	30.235
829.46	35.619
829.64	33.546
829.81	29.285
829.98	37.189
830.15	32.005
830.32	35.171
830.50	25.000
830.67	42.384
830.84	37.319
831.01	38.761
831.19	33.889
831.36	43.825
831.53	53.139
831.70	48.966
831.87	39.195
832.05	52.336
832.22	44.444
832.39	39.716
832.56	45.119
832.74	42.857
832.91	37.406
833.08	47.222
833.25	32.266
833.42	44.676
833.60	45.273
833.77	28.299
833.94	31.310
834.11	30.161
834.28	31.559
834.45	32.482
834.63	30.451
834.80	30.979
834.97	37.162
835.14	32.481
835.31	31.513
835.49	30.643
835.66	30.875
835.83	32.907
836.00	36.855
836.17	34.395
836.34	40.556
836.52	32.975
836.69	47.724
836.86	35.432
837.03	38.795
837.20	38.148
837.37	42.913
837.55	48.542
837.72	42.597
837.89	51.515
838.06	58.286
838.23	42.402
838.40	53.012
838.58	52.738
838.75	42.904
838.92	58.204
839.09	58.763
839.26	59.406
839.43	69.966
839.60	57.658
839.78	64.935
839.95	55.041
840.12	63.140
840.29	59.661
840.46	60.736
840.63	55.799
840.80	66.990
840.98	60.577
841.15	49.375
841.32	57.879
841.49	46.732
841.66	55.443
841.83	67.081
842.00	48.837
842.17	57.386
842.34	56.419
842.52	62.000
842.69	45.424
842.86	55.814
843.03	79.336
843.20	51.341
843.37	73.801
843.54	51.311
843.71	69.643
843.88	103.111
844.06	91.600
844.23	78.571
844.40	64.444
844.57	81.768
844.74	106.098
844.91	60.870
845.08	109.091
845.25	65.700
845.42	74.731
845.59	80.526
845.76	75.385
845.94	76.733
846.11	63.014
846.28	83.333
846.45	103.371
846.62	97.403
846.79	102.740
846.96	72.222
847.13	91.860
847.30	86.207
847.47	69.065
847.64	116.279
847.81	106.780
847.98	72.864
848.15	124.088
848.32	105.031
848.50	104.192
848.67	72.989
848.84	84.247
849.01	81.564
849.18	74.742
849.35	103.125
849.52	87.931
849.69	92.053
849.86	89.116
850.03	114.925
850.20	94.737
850.37	70.588
850.54	101.117
850.71	86.093
850.88	83.240
851.05	117.797
851.22	92.697
851.39	136.036
851.56	105.357
851.73	125.786
851.90	104.348
852.07	118.045
852.24	100.000
852.41	89.524
852.58	90.845
852.75	135.632
852.92	98.049
853.09	111.719
853.26	70.899
853.43	103.774
853.60	85.393
853.77	129.114
853.94	92.701
854.11	85.315
854.28	104.000
854.45	84.375
854.62	99.492
854.79	122.876
854.96	126.400
855.13	93.567
855.30	152.041
855.47	93.103
855.64	130.827
855.81	60.753
855.98	88.095
856.15	137.838
856.32	66.038
856.49	77.519
856.66	87.413
856.83	85.606
857.00	82.353
857.17	120.000
857.34	80.000
857.51	89.928
857.68	72.973
857.85	76.136
858.02	81.481
858.19	126.126
858.36	134.545
858.53	83.871
858.70	80.838
858.87	92.405
859.04	101.613
859.21	70.270
859.38	95.614
859.55	140.299
859.72	111.494
859.89	118.705
860.05	108.108
860.22	84.293
860.39	116.964
860.56	84.733
860.73	114.634
860.90	111.927
861.07	89.474
861.24	92.763
861.41	112.037
861.58	102.083
861.75	102.963
861.92	90.789
862.09	99.259
862.26	135.043
862.43	101.980
862.59	89.706
862.76	102.098
862.93	140.449
863.10	100.000
863.27	48.718
863.44	128.736
863.61	85.401
863.78	92.571
863.95	102.614
864.12	90.805
864.29	87.179
864.45	116.379
864.62	53.672
864.79	79.845
864.96	91.057
865.13	109.910
865.30	94.410
865.47	111.585
865.64	76.259
865.81	100.763
865.97	90.000
866.14	94.558
866.31	112.500
866.48	92.053
866.65	63.462
866.82	91.772
866.99	102.564
867.16	87.218
867.33	137.634
867.49	103.704
867.66	108.247
867.83	107.087
868.00	93.836
868.17	90.909
868.34	110.526
868.51	101.905
868.67	103.797
868.84	59.167
869.01	91.200
869.18	90.780
869.35	65.116
869.52	116.667
869.69	65.753
869.85	103.738
870.02	101.923
870.19	104.237
870.36	98.621
870.53	65.000
870.70	79.245
870.86	84.000
871.03	91.975
871.20	121.101
871.37	99.138
871.54	87.838
871.71	117.857
871.87	63.522
872.04	57.143
872.21	103.478
872.38	137.398
872.55	80.247
872.72	125.000
872.88	86.592
873.05	132.184
873.22	102.041
873.39	125.510
873.56	92.899
873.72	75.294
873.89	67.702
874.06	95.522
874.23	110.169
874.40	110.000
874.56	122.105
874.73	134.146
874.90	116.949
875.07	112.143
875.24	73.292
875.40	100.000
875.57	123.853
875.74	84.800
875.91	82.569
876.08	98.261
876.24	91.860
876.41	135.200
876.58	86.170
876.75	89.362
876.92	88.235
877.08	103.676
877.25	107.826
877.42	111.719
877.59	98.980
877.75	86.667
877.92	60.714
878.09	107.292
878.26	73.653
878.42	93.125
878.59	89.565
878.76	65.789
878.93	89.552
879.09	71.717
879.26	60.976
879.43	77.838
879.60	62.238
879.76	53.977
879.93	77.222
880.10	57.333
880.27	62.112
880.43	73.743
880.60	36.986
880.77	52.841
880.94	34.826
881.10	51.327
881.27	37.705
881.44	28.045
881.61	42.377
881.77	33.843
881.94	21.696
882.11	26.761
882.28	24.272
882.44	25.482
882.61	30.942
882.78	28.195
882.94	30.683
883.11	24.063
883.28	27.724
883.45	26.082
883.61	21.975
883.78	28.622
883.95	27.817
884.11	24.521
884.28	25.387
>>>>>End Processed Spectral Data<<<<<
