SpectraSuite Data File
++++++++++++++++++++++++++++++++++++
Date: Sun Sep 22 03:46:00 EST 2019
User: sgrac
Dark Spectrum Present: Yes
Reference Spectrum Present: Yes
Number of Sampled Component Spectra: 1
Spectrometers: USB4E01596
Integration Time (usec): 100000 (USB4E01596)
Spectra Averaged: 3 (USB4E01596)
Boxcar Smoothing: 0 (USB4E01596)
Correct for Electrical Dark: No (USB4E01596)
Strobe/Lamp Enabled: Yes (USB4E01596)
Correct for Detector Non-linearity: No (USB4E01596)
Correct for Stray Light: No (USB4E01596)
Number of Pixels in Processed Spectrum: 3648
>>>>>Begin Processed Spectral Data<<<<<
178.44	754.762
178.66	754.762
178.87	754.762
179.09	-164.815
179.30	-437.037
179.52	236.022
179.74	9366.667
179.95	1244.444
180.17	12800.000
180.38	288.272
180.60	-702.083
180.82	3725.000
181.03	-256.667
181.25	611.594
181.46	-213.690
181.68	-433.333
181.89	467.647
182.11	553.968
182.33	1804.762
182.54	283.908
182.76	1039.394
182.97	-845.238
183.19	352.991
183.40	-444.444
183.62	320.988
183.84	344.762
184.05	12800.000
184.27	355.000
184.48	249.645
184.70	515.476
184.91	695.556
185.13	-7666.667
185.34	1088.095
185.56	-700.000
185.78	383.333
185.99	382.353
186.21	259.420
186.42	2483.333
186.64	126.754
186.85	-516.667
187.07	422.917
187.28	-2575.000
187.50	1319.048
187.72	869.697
187.93	-608.333
188.15	458.586
188.36	379.279
188.58	182.564
188.79	375.269
189.01	548.718
189.22	-1236.667
189.44	218.265
189.65	5150.000
189.87	2726.667
190.09	0.000
190.30	1094.444
190.52	-396.154
190.73	702.899
190.95	476.190
191.16	783.333
191.38	-889.744
191.59	11666.667
191.81	224.561
192.02	920.000
192.24	-6383.333
192.45	-811.111
192.67	257.639
192.88	202.020
193.10	10533.333
193.31	-854.762
193.53	1410.000
193.74	237.607
193.96	272.789
194.18	329.825
194.39	-2050.000
194.61	761.111
194.82	232.727
195.04	1319.048
195.25	996.667
195.47	-600.000
195.68	-335.714
195.90	314.583
196.11	900.000
196.33	303.086
196.54	410.101
196.76	1544.444
196.97	-637.500
197.19	897.619
197.40	443.434
197.62	319.192
197.83	-987.500
198.05	2366.667
198.26	213.930
198.48	808.889
198.69	-430.303
198.91	-3444.444
199.12	448.571
199.34	244.444
199.55	591.228
199.77	-640.351
199.98	-812.821
200.20	283.704
200.41	391.228
200.63	307.483
200.84	-1204.167
201.06	1966.667
201.27	522.222
201.49	-1690.476
201.70	0.000
201.91	558.333
202.13	320.833
202.34	392.593
202.56	1072.727
202.77	378.161
202.99	-916.667
203.20	-970.370
203.42	190.789
203.63	387.037
203.85	256.604
204.06	951.282
204.28	660.000
204.49	-11733.333
204.71	379.279
204.92	421.111
205.14	521.212
205.35	560.317
205.56	227.211
205.78	1453.333
205.99	9333.333
206.21	764.706
206.42	258.889
206.64	3555.556
206.85	193.750
207.07	211.667
207.28	249.180
207.50	510.714
207.71	477.333
207.93	560.870
208.14	-1053.333
208.35	-2900.000
208.57	1036.667
208.78	267.391
209.00	225.758
209.21	403.030
209.43	181.643
209.64	1533.333
209.86	215.152
210.07	815.385
210.28	927.778
210.50	287.500
210.71	307.092
210.93	875.000
211.14	-12700.000
211.36	310.000
211.57	-11333.333
211.78	-3300.000
212.00	435.088
212.21	1213.333
212.43	262.411
212.64	700.000
212.86	391.954
213.07	-3450.000
213.29	270.139
213.50	-633.333
213.71	213.661
213.93	1190.000
214.14	876.190
214.36	925.641
214.57	528.788
214.78	203.463
215.00	213.333
215.21	646.296
215.43	482.667
215.64	-9000.000
215.86	877.778
216.07	-805.128
216.28	840.000
216.50	-483.333
216.71	1906.667
216.93	768.627
217.14	-482.540
217.35	184.896
217.57	948.889
217.78	523.529
218.00	3400.000
218.21	217.610
218.42	1251.852
218.64	3300.000
218.85	2072.222
219.07	-877.778
219.28	-383.951
219.49	345.679
219.71	306.667
219.92	323.932
220.14	579.710
220.35	4433.333
220.56	244.444
220.78	385.556
220.99	-1372.222
221.21	0.000
221.42	389.655
221.63	942.424
221.85	246.893
222.06	184.354
222.28	310.345
222.49	433.333
222.70	1183.333
222.92	230.000
223.13	232.222
223.34	-875.000
223.56	157.143
223.77	250.355
223.99	936.111
224.20	259.350
224.41	279.545
224.63	144.889
224.84	371.264
225.05	209.524
225.27	190.338
225.48	204.000
225.69	267.460
225.91	136.214
226.12	220.188
226.34	100.000
226.55	110.628
226.76	172.515
226.98	177.193
227.19	169.892
227.40	298.958
227.62	131.667
227.83	115.090
228.04	109.622
228.26	78.512
228.47	147.154
228.69	73.570
228.90	60.392
229.11	59.275
229.33	45.938
229.54	35.807
229.75	45.896
229.97	47.748
230.18	33.518
230.39	36.465
230.61	30.530
230.82	52.465
231.03	21.472
231.25	48.548
231.46	41.748
231.67	37.987
231.89	54.074
232.10	44.030
232.31	37.712
232.53	46.296
232.74	42.917
232.95	59.606
233.17	48.307
233.38	48.435
233.59	64.103
233.81	52.333
234.02	57.143
234.23	33.333
234.45	65.062
234.66	51.869
234.87	47.336
235.09	74.204
235.30	44.553
235.51	45.259
235.73	51.282
235.94	48.756
236.15	57.028
236.36	55.019
236.58	41.727
236.79	44.832
237.00	44.170
237.22	48.366
237.43	53.835
237.64	45.870
237.86	37.463
238.07	59.742
238.28	64.670
238.50	54.513
238.71	64.117
238.92	57.143
239.13	52.722
239.35	48.655
239.56	64.006
239.77	48.990
239.99	41.975
240.20	47.093
240.41	39.181
240.63	40.631
240.84	45.734
241.05	30.614
241.26	34.381
241.48	29.247
241.69	28.193
241.90	19.161
242.12	23.368
242.33	16.123
242.54	21.966
242.75	19.913
242.97	19.146
243.18	16.391
243.39	14.904
243.61	19.877
243.82	18.740
244.03	15.124
244.24	14.307
244.46	15.873
244.67	16.645
244.88	19.260
245.09	17.509
245.31	18.116
245.52	15.222
245.73	20.126
245.95	33.281
246.16	26.220
246.37	20.780
246.58	21.339
246.80	18.878
247.01	14.886
247.22	13.093
247.43	10.438
247.65	11.650
247.86	12.946
248.07	9.169
248.28	7.963
248.50	10.023
248.71	7.498
248.92	8.756
249.13	10.801
249.35	10.245
249.56	11.235
249.77	9.168
249.98	9.622
250.20	11.295
250.41	12.954
250.62	16.490
250.83	15.140
251.05	20.719
251.26	17.041
251.47	20.395
251.68	19.353
251.90	16.571
252.11	19.859
252.32	21.545
252.53	19.726
252.75	15.659
252.96	17.781
253.17	8.394
253.38	16.132
253.59	13.459
253.81	12.039
254.02	11.651
254.23	15.172
254.44	18.766
254.66	13.259
254.87	14.967
255.08	18.979
255.29	20.787
255.50	23.234
255.72	20.866
255.93	21.004
256.14	20.753
256.35	22.896
256.57	30.388
256.78	19.474
256.99	17.044
257.20	31.821
257.41	18.908
257.63	16.505
257.84	22.280
258.05	26.925
258.26	14.907
258.47	13.688
258.69	15.531
258.90	12.269
259.11	16.823
259.32	16.049
259.53	9.728
259.75	12.291
259.96	5.174
260.17	10.136
260.38	9.626
260.59	8.800
260.81	7.321
261.02	8.178
261.23	6.543
261.44	7.562
261.65	6.548
261.87	5.968
262.08	5.288
262.29	6.926
262.50	7.363
262.71	8.870
262.92	10.787
263.14	10.330
263.35	11.805
263.56	9.818
263.77	14.296
263.98	15.484
264.20	14.562
264.41	15.051
264.62	16.310
264.83	14.270
265.04	17.108
265.25	14.190
265.47	11.931
265.68	14.917
265.89	10.340
266.10	16.833
266.31	16.228
266.52	14.903
266.74	9.976
266.95	12.815
267.16	14.301
267.37	10.833
267.58	12.747
267.79	9.926
268.01	10.835
268.22	12.613
268.43	9.883
268.64	8.408
268.85	13.708
269.06	9.235
269.27	12.341
269.49	8.979
269.70	11.886
269.91	10.424
270.12	11.671
270.33	11.986
270.54	12.333
270.75	12.029
270.97	9.900
271.18	11.370
271.39	8.230
271.60	10.094
271.81	7.713
272.02	8.732
272.23	9.111
272.45	8.805
272.66	7.441
272.87	10.009
273.08	7.465
273.29	6.863
273.50	7.419
273.71	6.810
273.92	4.678
274.14	7.635
274.35	7.274
274.56	7.400
274.77	8.906
274.98	7.555
275.19	9.267
275.40	7.465
275.61	10.264
275.83	10.479
276.04	11.591
276.25	13.615
276.46	9.183
276.67	14.240
276.88	7.708
277.09	10.771
277.30	8.647
277.51	11.397
277.73	13.059
277.94	11.893
278.15	7.635
278.36	9.888
278.57	7.230
278.78	9.930
278.99	8.186
279.20	11.789
279.41	12.315
279.62	7.796
279.84	9.167
280.05	12.598
280.26	12.517
280.47	9.966
280.68	14.880
280.89	12.049
281.10	10.459
281.31	13.137
281.52	10.428
281.73	8.470
281.94	7.390
282.16	11.606
282.37	9.759
282.58	7.825
282.79	8.518
283.00	9.991
283.21	8.961
283.42	8.968
283.63	9.400
283.84	9.889
284.05	8.809
284.26	7.774
284.47	7.355
284.68	7.631
284.89	10.657
285.11	6.955
285.32	8.074
285.53	7.876
285.74	7.405
285.95	6.355
286.16	6.250
286.37	8.401
286.58	4.455
286.79	6.245
287.00	8.216
287.21	5.310
287.42	5.174
287.63	5.473
287.84	6.891
288.05	8.587
288.26	6.982
288.48	9.788
288.69	7.362
288.90	6.308
289.11	8.696
289.32	7.695
289.53	7.940
289.74	7.247
289.95	7.354
290.16	4.968
290.37	9.996
290.58	8.713
290.79	6.402
291.00	4.590
291.21	6.940
291.42	8.011
291.63	8.538
291.84	7.330
292.05	4.914
292.26	7.118
292.47	6.173
292.68	9.051
292.89	7.086
293.10	8.973
293.31	7.897
293.52	9.645
293.73	8.853
293.94	7.281
294.15	7.979
294.36	8.443
294.57	10.553
294.79	8.241
295.00	7.096
295.21	7.347
295.42	8.651
295.63	8.916
295.84	6.177
296.05	8.544
296.26	6.396
296.47	5.684
296.68	4.601
296.89	6.504
297.10	7.437
297.31	8.319
297.52	5.844
297.73	7.109
297.94	5.715
298.15	5.276
298.36	5.349
298.57	5.502
298.78	7.221
298.99	5.762
299.20	4.850
299.41	6.332
299.62	5.099
299.83	6.608
300.04	6.097
300.25	5.427
300.46	7.197
300.67	6.461
300.88	6.745
301.09	6.097
301.30	9.215
301.50	6.320
301.71	9.108
301.92	10.980
302.13	6.377
302.34	8.133
302.55	8.125
302.76	8.153
302.97	5.591
303.18	9.101
303.39	8.566
303.60	5.739
303.81	7.098
304.02	8.131
304.23	6.738
304.44	7.531
304.65	8.204
304.86	8.595
305.07	8.206
305.28	8.347
305.49	8.565
305.70	8.997
305.91	8.455
306.12	7.449
306.33	7.638
306.54	7.551
306.75	6.799
306.96	12.517
307.17	6.137
307.38	7.735
307.58	8.825
307.79	7.006
308.00	7.824
308.21	10.576
308.42	8.536
308.63	8.592
308.84	8.401
309.05	8.499
309.26	8.123
309.47	6.023
309.68	7.185
309.89	8.461
310.10	7.276
310.31	8.075
310.52	7.703
310.73	8.709
310.94	4.266
311.14	5.741
311.35	5.550
311.56	8.203
311.77	6.622
311.98	5.462
312.19	7.080
312.40	5.785
312.61	6.045
312.82	6.298
313.03	7.295
313.24	7.621
313.45	6.614
313.66	6.950
313.86	6.386
314.07	7.380
314.28	7.918
314.49	9.250
314.70	7.993
314.91	9.409
315.12	6.205
315.33	8.398
315.54	7.769
315.75	6.484
315.96	4.885
316.16	8.528
316.37	11.189
316.58	8.686
316.79	8.338
317.00	9.598
317.21	8.374
317.42	10.317
317.63	7.743
317.84	8.141
318.05	8.813
318.25	8.992
318.46	8.578
318.67	9.381
318.88	8.109
319.09	6.935
319.30	7.078
319.51	9.805
319.72	8.044
319.93	8.938
320.13	8.487
320.34	9.312
320.55	8.605
320.76	11.452
320.97	7.555
321.18	11.001
321.39	8.694
321.60	7.638
321.80	8.952
322.01	8.956
322.22	10.059
322.43	9.619
322.64	9.499
322.85	11.207
323.06	9.498
323.27	7.535
323.47	11.808
323.68	9.223
323.89	9.055
324.10	8.590
324.31	7.295
324.52	9.981
324.73	9.476
324.93	7.835
325.14	9.548
325.35	9.384
325.56	7.606
325.77	10.401
325.98	8.486
326.19	5.829
326.39	5.991
326.60	9.643
326.81	7.571
327.02	6.934
327.23	6.573
327.44	9.019
327.64	6.920
327.85	7.104
328.06	10.154
328.27	12.174
328.48	10.735
328.69	7.149
328.90	7.868
329.10	7.459
329.31	8.950
329.52	8.965
329.73	10.613
329.94	9.145
330.15	10.999
330.35	8.922
330.56	8.947
330.77	8.080
330.98	9.840
331.19	8.789
331.39	9.758
331.60	11.348
331.81	10.493
332.02	10.347
332.23	10.720
332.44	7.304
332.64	10.144
332.85	9.572
333.06	12.579
333.27	9.093
333.48	10.686
333.68	10.024
333.89	8.287
334.10	7.805
334.31	14.108
334.52	8.651
334.72	10.499
334.93	9.571
335.14	8.887
335.35	9.853
335.56	10.595
335.76	7.520
335.97	10.090
336.18	9.430
336.39	12.392
336.60	11.580
336.80	10.260
337.01	9.263
337.22	11.409
337.43	11.010
337.64	11.012
337.84	9.451
338.05	10.301
338.26	14.905
338.47	14.142
338.68	8.916
338.88	12.792
339.09	10.542
339.30	11.423
339.51	9.921
339.71	12.534
339.92	11.507
340.13	12.192
340.34	10.602
340.55	9.782
340.75	12.834
340.96	9.589
341.17	13.482
341.38	9.533
341.58	12.159
341.79	11.122
342.00	9.664
342.21	12.496
342.41	9.719
342.62	11.345
342.83	12.103
343.04	7.887
343.24	12.608
343.45	14.883
343.66	13.276
343.87	13.142
344.07	9.823
344.28	11.965
344.49	12.314
344.70	14.594
344.90	10.414
345.11	11.533
345.32	10.772
345.53	11.016
345.73	13.079
345.94	14.693
346.15	13.739
346.36	12.457
346.56	12.740
346.77	14.330
346.98	12.295
347.19	14.054
347.39	10.731
347.60	12.505
347.81	12.670
348.02	12.168
348.22	9.999
348.43	12.212
348.64	9.642
348.84	12.877
349.05	11.649
349.26	14.142
349.47	12.409
349.67	10.445
349.88	13.753
350.09	12.006
350.30	16.047
350.50	14.204
350.71	11.915
350.92	12.319
351.12	12.346
351.33	12.993
351.54	13.654
351.74	14.062
351.95	11.809
352.16	12.826
352.37	13.367
352.57	11.727
352.78	11.658
352.99	13.023
353.19	11.316
353.40	12.227
353.61	13.647
353.82	15.062
354.02	11.966
354.23	11.631
354.44	14.504
354.64	11.619
354.85	12.182
355.06	12.932
355.26	10.246
355.47	13.251
355.68	12.904
355.88	14.095
356.09	13.478
356.30	11.496
356.51	13.532
356.71	11.152
356.92	10.164
357.13	13.472
357.33	13.888
357.54	12.822
357.75	8.914
357.95	13.104
358.16	10.419
358.37	15.079
358.57	10.777
358.78	13.743
358.99	12.121
359.19	13.006
359.40	12.919
359.61	12.004
359.81	14.308
360.02	13.384
360.23	10.459
360.43	10.945
360.64	11.308
360.85	11.562
361.05	9.707
361.26	13.331
361.47	10.928
361.67	13.158
361.88	9.851
362.09	12.038
362.29	9.521
362.50	10.808
362.70	9.278
362.91	12.932
363.12	10.992
363.32	11.613
363.53	12.053
363.74	11.483
363.94	10.242
364.15	12.856
364.36	11.294
364.56	10.215
364.77	12.609
364.98	14.242
365.18	10.642
365.39	12.174
365.59	8.905
365.80	10.965
366.01	12.912
366.21	11.574
366.42	10.505
366.63	12.000
366.83	10.693
367.04	9.705
367.24	12.082
367.45	10.611
367.66	9.198
367.86	10.923
368.07	10.997
368.28	11.273
368.48	9.463
368.69	9.855
368.89	10.595
369.10	10.316
369.31	9.216
369.51	10.762
369.72	12.741
369.92	12.178
370.13	10.560
370.34	12.460
370.54	7.711
370.75	11.161
370.95	8.915
371.16	10.194
371.37	9.812
371.57	9.426
371.78	9.692
371.98	10.416
372.19	11.727
372.40	11.502
372.60	9.589
372.81	10.509
373.01	8.221
373.22	9.510
373.43	9.954
373.63	10.276
373.84	9.884
374.04	9.542
374.25	10.907
374.46	10.306
374.66	9.627
374.87	10.644
375.07	7.566
375.28	9.056
375.48	10.597
375.69	11.114
375.90	7.362
376.10	7.664
376.31	7.404
376.51	7.974
376.72	9.665
376.92	8.506
377.13	9.922
377.34	10.872
377.54	9.187
377.75	10.543
377.95	8.354
378.16	9.336
378.36	8.956
378.57	9.864
378.77	9.689
378.98	9.801
379.19	8.953
379.39	8.549
379.60	8.519
379.80	8.819
380.01	9.250
380.21	8.223
380.42	9.866
380.62	8.433
380.83	9.399
381.04	7.907
381.24	9.032
381.45	9.065
381.65	7.655
381.86	9.116
382.06	8.990
382.27	7.343
382.47	8.375
382.68	9.401
382.88	8.094
383.09	7.529
383.29	7.156
383.50	9.858
383.71	8.397
383.91	8.028
384.12	7.344
384.32	9.367
384.53	7.339
384.73	6.665
384.94	6.647
385.14	7.534
385.35	6.105
385.55	7.974
385.76	7.671
385.96	7.248
386.17	8.641
386.37	8.481
386.58	7.596
386.78	8.277
386.99	5.796
387.19	8.096
387.40	6.090
387.60	9.234
387.81	7.342
388.01	7.281
388.22	8.020
388.42	8.799
388.63	8.707
388.83	8.726
389.04	6.453
389.24	7.159
389.45	7.858
389.65	7.422
389.86	6.832
390.06	6.856
390.27	6.794
390.47	7.465
390.68	6.435
390.88	8.155
391.09	8.321
391.29	8.884
391.50	7.163
391.70	8.126
391.91	7.305
392.11	7.092
392.32	7.081
392.52	7.721
392.73	7.089
392.93	7.640
393.14	7.141
393.34	7.198
393.55	7.541
393.75	7.132
393.95	7.114
394.16	7.672
394.36	7.725
394.57	8.173
394.77	7.138
394.98	6.535
395.18	7.464
395.39	7.135
395.59	7.723
395.80	6.103
396.00	7.020
396.21	7.510
396.41	6.354
396.61	8.199
396.82	8.032
397.02	7.624
397.23	7.977
397.43	7.212
397.64	5.787
397.84	9.015
398.05	5.826
398.25	7.777
398.45	6.188
398.66	7.966
398.86	7.438
399.07	8.390
399.27	6.155
399.48	8.101
399.68	7.055
399.89	7.327
400.09	8.017
400.29	6.772
400.50	6.697
400.70	7.644
400.91	7.080
401.11	7.438
401.32	6.183
401.52	5.697
401.72	6.610
401.93	7.731
402.13	7.224
402.34	6.136
402.54	6.349
402.75	8.470
402.95	5.792
403.15	7.806
403.36	7.051
403.56	7.687
403.77	6.240
403.97	6.716
404.17	5.950
404.38	7.412
404.58	5.774
404.79	6.433
404.99	7.180
405.19	6.226
405.40	5.892
405.60	6.893
405.81	6.252
406.01	6.574
406.21	6.312
406.42	6.140
406.62	6.841
406.83	6.429
407.03	7.441
407.23	5.912
407.44	6.482
407.64	6.410
407.85	6.349
408.05	6.441
408.25	5.847
408.46	7.343
408.66	6.665
408.87	6.186
409.07	6.430
409.27	6.060
409.48	5.955
409.68	7.159
409.88	5.532
410.09	5.919
410.29	6.775
410.50	7.127
410.70	5.353
410.90	6.609
411.11	5.798
411.31	6.227
411.51	6.431
411.72	6.858
411.92	5.708
412.12	5.459
412.33	6.078
412.53	6.249
412.74	4.948
412.94	5.683
413.14	5.498
413.35	6.299
413.55	5.944
413.75	7.406
413.96	5.300
414.16	6.518
414.36	5.535
414.57	6.229
414.77	5.525
414.97	6.203
415.18	5.927
415.38	5.764
415.58	5.442
415.79	5.753
415.99	5.863
416.19	5.933
416.40	6.150
416.60	5.046
416.80	5.735
417.01	5.680
417.21	5.001
417.41	6.731
417.62	5.957
417.82	6.138
418.02	5.073
418.23	6.587
418.43	5.155
418.63	5.926
418.84	5.834
419.04	5.376
419.24	6.460
419.45	6.415
419.65	6.279
419.85	6.021
420.06	6.209
420.26	6.725
420.46	5.808
420.67	6.503
420.87	6.158
421.07	6.391
421.28	5.913
421.48	6.435
421.68	6.185
421.88	6.385
422.09	6.023
422.29	6.420
422.49	5.844
422.70	6.148
422.90	6.262
423.10	6.013
423.31	6.086
423.51	6.454
423.71	5.800
423.91	6.245
424.12	6.017
424.32	6.356
424.52	6.103
424.73	6.108
424.93	5.848
425.13	6.043
425.33	5.688
425.54	6.057
425.74	5.938
425.94	6.622
426.15	6.167
426.35	5.577
426.55	5.921
426.75	5.867
426.96	5.949
427.16	6.017
427.36	5.939
427.57	6.332
427.77	5.467
427.97	6.468
428.17	6.181
428.38	5.762
428.58	4.949
428.78	5.885
428.98	5.527
429.19	5.770
429.39	5.021
429.59	5.627
429.79	4.837
430.00	5.572
430.20	5.433
430.40	5.553
430.60	4.891
430.81	5.966
431.01	5.163
431.21	5.843
431.41	5.164
431.62	5.552
431.82	4.901
432.02	6.233
432.22	5.154
432.43	4.949
432.63	4.556
432.83	5.331
433.03	4.894
433.24	5.260
433.44	4.953
433.64	5.536
433.84	5.687
434.05	5.657
434.25	5.115
434.45	6.207
434.65	6.042
434.85	5.878
435.06	5.904
435.26	5.531
435.46	5.527
435.66	6.250
435.87	5.299
436.07	5.524
436.27	5.493
436.47	5.643
436.67	4.854
436.88	5.532
437.08	5.583
437.28	5.632
437.48	4.856
437.69	6.130
437.89	5.191
438.09	6.517
438.29	5.220
438.49	5.563
438.70	5.947
438.90	5.030
439.10	5.368
439.30	5.415
439.50	4.774
439.71	5.359
439.91	5.194
440.11	6.038
440.31	5.226
440.51	5.589
440.72	5.299
440.92	5.576
441.12	5.279
441.32	5.783
441.52	5.901
441.72	5.939
441.93	5.891
442.13	5.825
442.33	5.361
442.53	6.214
442.73	5.250
442.94	6.010
443.14	5.564
443.34	6.185
443.54	5.794
443.74	5.789
443.94	5.419
444.15	5.417
444.35	4.707
444.55	6.012
444.75	5.132
444.95	5.906
445.15	5.491
445.36	5.344
445.56	4.883
445.76	5.691
445.96	5.201
446.16	5.043
446.36	5.191
446.57	5.700
446.77	4.880
446.97	5.257
447.17	5.622
447.37	5.743
447.57	5.556
447.77	5.535
447.98	5.509
448.18	6.010
448.38	5.444
448.58	5.796
448.78	5.552
448.98	6.025
449.18	5.177
449.39	5.663
449.59	5.701
449.79	5.598
449.99	4.901
450.19	5.928
450.39	5.730
450.59	5.671
450.79	5.296
451.00	6.156
451.20	6.586
451.40	5.201
451.60	5.032
451.80	5.663
452.00	5.222
452.20	5.292
452.40	4.975
452.61	5.618
452.81	4.588
453.01	5.816
453.21	5.304
453.41	5.807
453.61	5.223
453.81	4.829
454.01	5.589
454.21	5.442
454.42	5.374
454.62	5.307
454.82	5.165
455.02	4.962
455.22	4.244
455.42	5.486
455.62	4.480
455.82	5.491
456.02	4.946
456.23	5.078
456.43	5.102
456.63	5.144
456.83	4.280
457.03	5.662
457.23	4.892
457.43	5.468
457.63	4.915
457.83	4.714
458.03	4.591
458.23	5.127
458.43	4.665
458.64	4.905
458.84	4.591
459.04	4.952
459.24	5.430
459.44	4.988
459.64	5.032
459.84	5.382
460.04	5.394
460.24	5.359
460.44	5.242
460.64	5.729
460.84	5.263
461.04	5.620
461.24	5.618
461.45	5.831
461.65	5.791
461.85	5.632
462.05	5.338
462.25	5.735
462.45	5.863
462.65	5.433
462.85	4.370
463.05	5.534
463.25	4.637
463.45	5.556
463.65	5.172
463.85	5.718
464.05	5.544
464.25	5.069
464.45	4.922
464.65	4.772
464.85	4.923
465.05	4.573
465.26	4.954
465.46	5.636
465.66	5.409
465.86	5.169
466.06	4.901
466.26	5.351
466.46	4.765
466.66	5.033
466.86	4.974
467.06	4.761
467.26	4.778
467.46	5.598
467.66	5.445
467.86	5.074
468.06	5.233
468.26	4.838
468.46	4.861
468.66	5.185
468.86	4.374
469.06	5.573
469.26	4.782
469.46	4.869
469.66	4.838
469.86	5.380
470.06	4.876
470.26	5.626
470.46	4.530
470.66	5.457
470.86	4.875
471.06	4.945
471.26	4.421
471.46	4.234
471.66	4.861
471.86	4.998
472.06	5.070
472.26	6.185
472.46	5.202
472.66	5.300
472.86	4.723
473.06	4.844
473.26	4.915
473.46	4.630
473.66	5.249
473.86	5.457
474.06	4.602
474.26	5.319
474.46	4.430
474.66	5.225
474.86	5.287
475.06	5.358
475.26	4.549
475.46	5.668
475.66	4.465
475.86	5.411
476.06	5.616
476.26	5.534
476.46	4.846
476.66	5.448
476.86	4.601
477.06	5.222
477.26	5.078
477.46	5.031
477.65	4.823
477.85	5.269
478.05	4.543
478.25	5.779
478.45	4.625
478.65	5.025
478.85	4.930
479.05	5.551
479.25	5.092
479.45	5.531
479.65	4.946
479.85	5.362
480.05	4.900
480.25	5.787
480.45	5.243
480.65	5.521
480.85	5.077
481.05	6.192
481.25	5.551
481.44	5.613
481.64	4.690
481.84	5.807
482.04	5.229
482.24	5.998
482.44	4.982
482.64	5.236
482.84	5.553
483.04	5.655
483.24	5.245
483.44	5.707
483.64	5.354
483.84	5.362
484.04	5.539
484.23	5.665
484.43	5.595
484.63	6.148
484.83	6.389
485.03	6.873
485.23	6.761
485.43	6.678
485.63	6.607
485.83	6.388
486.03	5.975
486.23	6.215
486.42	5.967
486.62	6.043
486.82	5.933
487.02	6.002
487.22	5.693
487.42	5.941
487.62	5.611
487.82	5.622
488.02	5.729
488.22	5.866
488.41	5.688
488.61	5.890
488.81	5.695
489.01	6.032
489.21	5.971
489.41	6.071
489.61	6.102
489.81	6.251
490.01	6.071
490.20	6.358
490.40	6.259
490.60	6.185
490.80	5.921
491.00	6.215
491.20	5.735
491.40	5.868
491.60	5.745
491.79	5.687
491.99	5.669
492.19	5.886
492.39	5.654
492.59	6.101
492.79	6.002
492.99	5.993
493.19	6.019
493.38	6.308
493.58	6.043
493.78	6.174
493.98	6.355
494.18	6.564
494.38	6.121
494.58	6.126
494.77	5.672
494.97	6.249
495.17	5.520
495.37	5.986
495.57	5.901
495.77	5.897
495.96	5.789
496.16	5.676
496.36	6.028
496.56	6.299
496.76	5.369
496.96	5.696
497.15	5.895
497.35	6.292
497.55	5.771
497.75	5.959
497.95	5.700
498.15	6.139
498.34	5.932
498.54	5.857
498.74	6.319
498.94	6.005
499.14	5.675
499.34	6.498
499.53	5.834
499.73	6.576
499.93	5.780
500.13	6.049
500.33	5.293
500.52	6.163
500.72	5.926
500.92	5.610
501.12	5.866
501.32	5.901
501.52	5.972
501.71	6.455
501.91	5.558
502.11	5.884
502.31	5.875
502.51	6.188
502.70	5.746
502.90	6.103
503.10	5.800
503.30	5.941
503.50	6.078
503.69	6.144
503.89	5.906
504.09	6.587
504.29	6.027
504.48	6.109
504.68	6.323
504.88	6.550
505.08	5.268
505.28	6.264
505.47	6.061
505.67	6.853
505.87	5.586
506.07	5.929
506.27	6.117
506.46	6.155
506.66	5.939
506.86	5.863
507.06	6.293
507.25	6.341
507.45	6.386
507.65	6.445
507.85	5.900
508.04	6.221
508.24	6.606
508.44	6.754
508.64	6.098
508.83	6.474
509.03	5.945
509.23	6.348
509.43	5.979
509.63	6.393
509.82	5.882
510.02	6.035
510.22	6.152
510.42	6.748
510.61	6.348
510.81	6.563
511.01	6.479
511.21	6.563
511.40	5.899
511.60	6.869
511.80	6.551
511.99	6.643
512.19	6.189
512.39	6.811
512.59	6.514
512.78	6.638
512.98	6.704
513.18	6.499
513.38	6.239
513.57	6.427
513.77	6.370
513.97	6.678
514.17	6.472
514.36	6.551
514.56	6.626
514.76	6.685
514.95	6.251
515.15	6.493
515.35	6.356
515.55	6.242
515.74	6.377
515.94	6.988
516.14	6.365
516.33	6.759
516.53	6.441
516.73	6.464
516.93	6.099
517.12	6.583
517.32	5.926
517.52	6.828
517.71	6.309
517.91	6.442
518.11	6.600
518.30	6.523
518.50	6.241
518.70	6.674
518.90	6.559
519.09	6.783
519.29	6.711
519.49	6.979
519.68	6.570
519.88	6.841
520.08	6.764
520.27	6.733
520.47	6.661
520.67	7.209
520.86	7.275
521.06	7.430
521.26	6.661
521.45	6.932
521.65	6.766
521.85	7.024
522.04	6.629
522.24	7.064
522.44	6.651
522.63	7.227
522.83	6.733
523.03	6.709
523.22	6.581
523.42	7.248
523.62	6.592
523.81	7.068
524.01	7.016
524.21	6.847
524.40	6.741
524.60	7.247
524.80	6.541
524.99	7.056
525.19	6.542
525.39	7.023
525.58	6.570
525.78	6.586
525.98	6.874
526.17	7.128
526.37	6.677
526.57	7.038
526.76	7.313
526.96	7.020
527.15	6.557
527.35	7.110
527.55	6.971
527.74	7.163
527.94	6.919
528.14	6.849
528.33	6.546
528.53	6.787
528.72	6.732
528.92	6.948
529.12	6.959
529.31	7.009
529.51	6.820
529.71	7.133
529.90	7.136
530.10	7.336
530.29	7.237
530.49	7.368
530.69	7.224
530.88	7.517
531.08	7.364
531.28	7.416
531.47	7.244
531.67	7.403
531.86	7.140
532.06	7.308
532.26	6.983
532.45	7.259
532.65	7.127
532.84	7.228
533.04	7.096
533.24	6.860
533.43	6.923
533.63	7.108
533.82	7.176
534.02	7.108
534.22	7.115
534.41	7.363
534.61	7.268
534.80	7.270
535.00	7.312
535.19	7.627
535.39	7.529
535.59	7.683
535.78	7.455
535.98	7.401
536.17	7.296
536.37	7.184
536.57	7.171
536.76	7.568
536.96	7.143
537.15	7.504
537.35	7.419
537.54	7.437
537.74	7.219
537.93	7.537
538.13	7.330
538.33	7.535
538.52	7.392
538.72	7.694
538.91	7.589
539.11	7.562
539.30	7.131
539.50	7.933
539.70	7.540
539.89	7.681
540.09	7.623
540.28	7.651
540.48	7.255
540.67	7.393
540.87	7.197
541.06	7.359
541.26	7.062
541.45	7.243
541.65	7.699
541.85	7.647
542.04	7.603
542.24	7.902
542.43	7.580
542.63	7.390
542.82	7.587
543.02	7.860
543.21	7.778
543.41	7.850
543.60	8.080
543.80	7.871
543.99	8.125
544.19	8.038
544.38	7.752
544.58	8.250
544.77	7.965
544.97	8.198
545.16	7.708
545.36	8.297
545.56	7.939
545.75	8.332
545.95	7.984
546.14	8.274
546.34	7.736
546.53	7.852
546.73	8.076
546.92	8.183
547.12	7.713
547.31	8.271
547.51	7.880
547.70	8.362
547.90	7.954
548.09	8.324
548.29	8.239
548.48	8.750
548.68	8.718
548.87	8.284
549.07	8.386
549.26	8.446
549.46	8.539
549.65	8.920
549.84	8.749
550.04	8.523
550.23	8.557
550.43	8.417
550.62	8.657
550.82	8.805
551.01	8.334
551.21	9.167
551.40	8.576
551.60	8.928
551.79	8.785
551.99	8.911
552.18	8.433
552.38	9.011
552.57	8.723
552.77	8.624
552.96	8.594
553.16	9.003
553.35	8.888
553.54	9.429
553.74	9.058
553.93	8.997
554.13	9.078
554.32	9.770
554.52	9.137
554.71	9.334
554.91	8.992
555.10	9.183
555.29	8.806
555.49	9.565
555.68	9.524
555.88	9.323
556.07	9.243
556.27	9.891
556.46	9.738
556.66	9.643
556.85	9.263
557.04	9.150
557.24	9.108
557.43	10.303
557.63	10.356
557.82	9.566
558.02	8.977
558.21	10.107
558.40	9.731
558.60	10.085
558.79	10.284
558.99	10.053
559.18	9.666
559.38	10.263
559.57	10.176
559.76	10.071
559.96	11.310
560.15	10.444
560.35	9.288
560.54	10.302
560.73	9.688
560.93	10.576
561.12	10.934
561.32	10.616
561.51	10.982
561.70	10.644
561.90	10.096
562.09	10.522
562.29	11.037
562.48	11.422
562.67	10.799
562.87	11.152
563.06	10.552
563.26	10.662
563.45	10.716
563.64	11.461
563.84	10.961
564.03	11.139
564.23	11.124
564.42	11.771
564.61	10.630
564.81	11.533
565.00	11.582
565.20	12.011
565.39	11.862
565.58	10.980
565.78	11.375
565.97	11.863
566.16	11.325
566.36	12.001
566.55	11.462
566.74	11.340
566.94	11.182
567.13	12.212
567.33	11.809
567.52	11.687
567.71	11.937
567.91	12.059
568.10	12.123
568.29	12.402
568.49	12.238
568.68	12.271
568.87	11.839
569.07	12.728
569.26	12.210
569.45	12.492
569.65	12.304
569.84	12.411
570.04	11.990
570.23	11.919
570.42	11.289
570.62	12.243
570.81	12.859
571.00	12.395
571.20	12.268
571.39	12.486
571.58	12.899
571.78	12.538
571.97	12.957
572.16	12.834
572.36	12.737
572.55	12.935
572.74	12.715
572.94	12.431
573.13	13.050
573.32	12.561
573.51	12.591
573.71	13.124
573.90	12.255
574.09	12.830
574.29	13.166
574.48	13.231
574.67	12.594
574.87	12.933
575.06	12.143
575.25	12.808
575.45	12.727
575.64	13.113
575.83	12.443
576.03	13.570
576.22	12.574
576.41	13.145
576.60	12.970
576.80	12.874
576.99	13.023
577.18	13.637
577.38	12.848
577.57	13.203
577.76	13.314
577.95	13.522
578.15	12.735
578.34	13.609
578.53	13.106
578.73	13.016
578.92	12.558
579.11	13.294
579.30	12.887
579.50	13.110
579.69	12.951
579.88	13.828
580.08	12.910
580.27	13.660
580.46	13.222
580.65	13.622
580.85	13.582
581.04	13.285
581.23	12.914
581.42	13.449
581.62	12.725
581.81	12.862
582.00	12.330
582.19	13.191
582.39	13.075
582.58	12.608
582.77	12.752
582.96	12.400
583.16	12.474
583.35	12.766
583.54	12.787
583.73	13.652
583.93	12.622
584.12	12.779
584.31	12.601
584.50	13.004
584.70	12.551
584.89	12.875
585.08	12.999
585.27	13.199
585.47	12.425
585.66	13.156
585.85	11.882
586.04	12.743
586.24	13.010
586.43	12.782
586.62	12.317
586.81	12.914
587.00	12.013
587.20	12.997
587.39	12.290
587.58	12.525
587.77	13.228
587.97	12.747
588.16	13.140
588.35	13.106
588.54	11.704
588.73	12.580
588.93	12.081
589.12	12.917
589.31	12.210
589.50	12.027
589.69	11.968
589.89	12.341
590.08	12.160
590.27	12.406
590.46	12.418
590.65	12.247
590.85	11.934
591.04	13.148
591.23	11.912
591.42	12.925
591.61	12.005
591.81	12.948
592.00	12.371
592.19	12.381
592.38	12.610
592.57	13.298
592.77	12.709
592.96	12.355
593.15	13.264
593.34	12.352
593.53	12.396
593.72	12.611
593.92	12.523
594.11	12.725
594.30	12.047
594.49	12.906
594.68	12.200
594.87	13.037
595.07	12.304
595.26	12.961
595.45	12.841
595.64	13.229
595.83	12.649
596.02	12.769
596.22	12.904
596.41	12.584
596.60	12.902
596.79	12.961
596.98	13.016
597.17	12.681
597.37	12.964
597.56	12.627
597.75	12.708
597.94	12.965
598.13	12.855
598.32	12.951
598.51	12.729
598.71	13.675
598.90	13.066
599.09	13.458
599.28	12.616
599.47	12.567
599.66	12.644
599.85	12.932
600.05	12.529
600.24	14.094
600.43	13.174
600.62	13.020
600.81	13.269
601.00	13.610
601.19	12.939
601.38	13.253
601.58	13.531
601.77	13.274
601.96	13.033
602.15	13.857
602.34	13.803
602.53	14.051
602.72	13.141
602.91	13.858
603.10	12.866
603.30	13.350
603.49	13.138
603.68	14.167
603.87	13.048
604.06	13.274
604.25	13.574
604.44	13.784
604.63	13.113
604.82	13.570
605.01	13.383
605.21	14.137
605.40	13.420
605.59	13.883
605.78	13.424
605.97	13.499
606.16	13.557
606.35	13.659
606.54	13.517
606.73	14.293
606.92	13.183
607.11	14.453
607.30	13.053
607.50	13.001
607.69	13.083
607.88	14.101
608.07	13.203
608.26	13.642
608.45	13.837
608.64	14.049
608.83	12.615
609.02	14.010
609.21	13.237
609.40	13.467
609.59	12.941
609.78	12.827
609.97	12.519
610.16	13.753
610.35	13.353
610.55	13.063
610.74	13.121
610.93	13.357
611.12	12.806
611.31	13.368
611.50	12.859
611.69	13.641
611.88	13.406
612.07	12.898
612.26	12.692
612.45	13.865
612.64	13.062
612.83	13.106
613.02	12.727
613.21	12.842
613.40	12.914
613.59	13.254
613.78	11.490
613.97	13.229
614.16	13.022
614.35	12.757
614.54	12.332
614.73	12.273
614.92	12.657
615.11	12.286
615.30	11.721
615.49	11.518
615.68	11.708
615.87	12.448
616.07	11.745
616.26	11.769
616.45	12.558
616.64	13.401
616.83	12.053
617.02	12.432
617.21	10.815
617.40	11.934
617.59	11.918
617.78	12.605
617.97	11.804
618.16	12.137
618.35	11.113
618.54	11.560
618.73	11.699
618.92	11.900
619.11	11.163
619.30	11.690
619.49	10.836
619.68	11.323
619.86	11.006
620.05	11.766
620.24	10.926
620.43	11.337
620.62	10.170
620.81	10.967
621.00	10.919
621.19	12.370
621.38	11.629
621.57	11.915
621.76	11.758
621.95	11.932
622.14	11.338
622.33	12.085
622.52	10.786
622.71	11.889
622.90	11.136
623.09	11.145
623.28	10.221
623.47	12.005
623.66	10.668
623.85	11.803
624.04	10.484
624.23	11.454
624.42	10.486
624.61	11.265
624.80	10.854
624.99	11.431
625.18	10.500
625.36	10.820
625.55	10.429
625.74	10.856
625.93	10.128
626.12	11.735
626.31	11.594
626.50	11.605
626.69	11.123
626.88	11.764
627.07	11.917
627.26	11.016
627.45	11.771
627.64	10.490
627.83	11.200
628.02	10.304
628.20	10.758
628.39	11.384
628.58	10.824
628.77	10.988
628.96	10.256
629.15	10.748
629.34	10.500
629.53	11.322
629.72	10.837
629.91	11.798
630.10	10.515
630.29	10.708
630.47	11.012
630.66	10.426
630.85	10.667
631.04	11.002
631.23	11.262
631.42	10.702
631.61	11.238
631.80	12.214
631.99	10.523
632.18	10.678
632.36	10.243
632.55	11.446
632.74	9.833
632.93	10.517
633.12	9.917
633.31	11.454
633.50	10.278
633.69	10.135
633.88	9.495
634.06	11.219
634.25	10.226
634.44	10.846
634.63	11.377
634.82	11.609
635.01	9.946
635.20	10.798
635.39	9.559
635.57	10.659
635.76	10.549
635.95	10.316
636.14	10.089
636.33	11.641
636.52	10.342
636.71	10.079
636.89	10.312
637.08	10.238
637.27	10.737
637.46	10.383
637.65	10.323
637.84	10.986
638.03	9.778
638.21	10.471
638.40	10.438
638.59	10.648
638.78	9.785
638.97	10.770
639.16	10.934
639.34	10.675
639.53	9.554
639.72	11.238
639.91	9.741
640.10	9.949
640.29	10.820
640.47	11.127
640.66	10.852
640.85	11.741
641.04	10.149
641.23	9.918
641.42	11.038
641.60	9.993
641.79	10.117
641.98	10.707
642.17	10.735
642.36	11.472
642.54	9.772
642.73	10.072
642.92	9.361
643.11	9.486
643.30	9.650
643.49	10.869
643.67	9.450
643.86	10.240
644.05	9.420
644.24	10.565
644.43	9.006
644.61	10.726
644.80	9.358
644.99	10.987
645.18	10.452
645.37	11.060
645.55	9.940
645.74	11.423
645.93	10.519
646.12	10.687
646.31	10.697
646.49	9.657
646.68	11.233
646.87	10.169
647.06	9.428
647.24	10.246
647.43	9.709
647.62	11.855
647.81	8.800
648.00	9.809
648.18	9.345
648.37	8.689
648.56	10.759
648.75	9.864
648.93	9.416
649.12	10.036
649.31	10.295
649.50	9.182
649.68	9.642
649.87	11.100
650.06	9.149
650.25	9.848
650.43	9.174
650.62	9.789
650.81	10.196
651.00	8.912
651.18	9.311
651.37	11.521
651.56	8.749
651.75	10.697
651.93	9.395
652.12	10.751
652.31	9.260
652.50	9.612
652.68	11.064
652.87	11.795
653.06	10.265
653.25	10.066
653.43	9.841
653.62	9.372
653.81	9.311
654.00	10.234
654.18	8.576
654.37	10.596
654.56	10.129
654.74	8.539
654.93	9.542
655.12	8.663
655.31	9.224
655.49	8.894
655.68	8.222
655.87	8.649
656.05	7.451
656.24	8.836
656.43	8.954
656.62	9.677
656.80	9.982
656.99	9.073
657.18	7.629
657.36	8.774
657.55	8.953
657.74	9.265
657.93	8.878
658.11	10.611
658.30	8.690
658.49	8.269
658.67	8.274
658.86	7.198
659.05	7.865
659.23	9.038
659.42	7.108
659.61	9.355
659.79	7.657
659.98	7.606
660.17	8.253
660.35	9.630
660.54	8.436
660.73	8.953
660.91	8.598
661.10	8.594
661.29	7.914
661.47	7.793
661.66	7.278
661.85	8.647
662.03	8.536
662.22	7.669
662.41	6.990
662.59	6.880
662.78	8.189
662.97	7.811
663.15	6.514
663.34	7.159
663.53	6.800
663.71	6.582
663.90	7.236
664.09	7.236
664.27	7.647
664.46	7.747
664.65	8.106
664.83	7.364
665.02	6.511
665.21	6.493
665.39	5.578
665.58	8.936
665.77	7.064
665.95	6.667
666.14	6.957
666.32	7.507
666.51	6.652
666.70	6.847
666.88	6.982
667.07	8.104
667.26	5.572
667.44	6.684
667.63	7.666
667.81	5.719
668.00	7.879
668.19	9.248
668.37	7.217
668.56	8.427
668.75	6.200
668.93	7.662
669.12	5.987
669.30	7.652
669.49	6.533
669.68	7.645
669.86	7.088
670.05	5.823
670.23	6.959
670.42	5.335
670.61	7.513
670.79	8.172
670.98	8.459
671.16	8.988
671.35	7.284
671.54	7.967
671.72	6.650
671.91	7.490
672.09	6.405
672.28	8.646
672.46	8.818
672.65	8.640
672.84	8.113
673.02	8.253
673.21	6.608
673.39	7.176
673.58	6.822
673.77	7.887
673.95	8.610
674.14	8.619
674.32	6.681
674.51	10.363
674.69	8.139
674.88	9.125
675.07	7.246
675.25	10.116
675.44	9.927
675.62	8.183
675.81	7.502
675.99	11.069
676.18	8.422
676.36	8.296
676.55	8.144
676.74	9.761
676.92	9.546
677.11	9.473
677.29	7.474
677.48	10.156
677.66	9.174
677.85	9.564
678.03	9.696
678.22	9.912
678.40	7.802
678.59	8.844
678.78	8.262
678.96	7.199
679.15	8.973
679.33	9.089
679.52	9.181
679.70	10.395
679.89	8.343
680.07	9.817
680.26	8.647
680.44	8.181
680.63	8.098
680.81	9.289
681.00	7.573
681.18	7.656
681.37	8.301
681.55	9.665
681.74	9.044
681.92	9.140
682.11	10.681
682.29	8.905
682.48	10.408
682.66	9.894
682.85	9.380
683.03	10.067
683.22	9.614
683.40	10.596
683.59	9.485
683.77	10.764
683.96	7.755
684.14	11.547
684.33	8.521
684.51	13.817
684.70	10.815
684.88	12.061
685.07	10.551
685.25	11.252
685.44	9.825
685.62	11.045
685.81	10.360
685.99	11.516
686.18	9.027
686.36	12.114
686.55	10.392
686.73	11.834
686.92	12.011
687.10	12.940
687.29	13.146
687.47	12.640
687.65	11.740
687.84	11.727
688.02	12.051
688.21	13.827
688.39	10.622
688.58	12.488
688.76	13.095
688.95	11.589
689.13	11.798
689.32	14.721
689.50	12.716
689.68	13.268
689.87	12.754
690.05	13.366
690.24	13.521
690.42	14.490
690.61	13.420
690.79	15.509
690.98	15.421
691.16	13.957
691.34	13.904
691.53	15.656
691.71	12.956
691.90	15.492
692.08	13.318
692.27	16.590
692.45	16.250
692.63	13.923
692.82	16.667
693.00	16.495
693.19	15.806
693.37	17.987
693.56	15.803
693.74	17.180
693.92	16.480
694.11	18.680
694.29	19.163
694.48	17.812
694.66	18.928
694.84	17.651
695.03	17.828
695.21	21.506
695.40	18.384
695.58	21.072
695.76	18.667
695.95	20.137
696.13	20.584
696.32	20.398
696.50	25.183
696.68	20.781
696.87	20.601
697.05	21.289
697.24	20.644
697.42	22.621
697.60	20.553
697.79	21.600
697.97	22.793
698.16	21.707
698.34	20.523
698.52	22.017
698.71	20.775
698.89	21.640
699.07	21.264
699.26	22.219
699.44	21.748
699.63	22.677
699.81	21.161
699.99	23.186
700.18	23.655
700.36	23.459
700.54	22.602
700.73	22.507
700.91	22.203
701.09	23.507
701.28	24.893
701.46	24.379
701.64	22.826
701.83	24.661
702.01	23.933
702.20	26.134
702.38	25.159
702.56	26.200
702.75	25.637
702.93	26.414
703.11	26.789
703.30	24.825
703.48	25.771
703.66	26.602
703.85	26.676
704.03	29.126
704.21	27.583
704.40	29.583
704.58	27.440
704.76	27.196
704.95	27.177
705.13	29.597
705.31	27.876
705.50	29.019
705.68	28.295
705.86	30.116
706.04	27.885
706.23	29.865
706.41	29.343
706.59	28.726
706.78	27.962
706.96	30.193
707.14	30.551
707.33	29.925
707.51	29.551
707.69	29.071
707.88	29.070
708.06	30.749
708.24	28.915
708.42	32.838
708.61	31.402
708.79	33.500
708.97	29.317
709.16	32.181
709.34	32.225
709.52	30.286
709.71	30.973
709.89	30.779
710.07	30.458
710.25	31.519
710.44	31.672
710.62	30.290
710.80	31.296
710.98	31.166
711.17	29.513
711.35	32.036
711.53	29.777
711.72	31.373
711.90	33.492
712.08	32.023
712.26	29.060
712.45	32.050
712.63	31.519
712.81	30.681
712.99	32.069
713.18	34.549
713.36	28.949
713.54	31.392
713.72	30.222
713.91	33.149
714.09	30.675
714.27	31.273
714.45	32.756
714.64	32.638
714.82	33.225
715.00	34.103
715.18	30.446
715.37	33.059
715.55	33.049
715.73	32.931
715.91	31.927
716.10	31.959
716.28	29.143
716.46	30.615
716.64	31.490
716.83	29.762
717.01	30.844
717.19	33.288
717.37	30.341
717.55	30.997
717.74	30.135
717.92	31.716
718.10	30.782
718.28	30.974
718.47	30.912
718.65	32.060
718.83	30.486
719.01	32.024
719.19	32.691
719.38	31.680
719.56	28.866
719.74	31.773
719.92	29.132
720.10	31.714
720.29	31.565
720.47	33.200
720.65	32.204
720.83	33.114
721.01	30.228
721.20	32.456
721.38	31.403
721.56	32.369
721.74	33.669
721.92	33.975
722.11	32.955
722.29	32.646
722.47	33.415
722.65	34.220
722.83	35.738
723.01	32.480
723.20	31.339
723.38	34.372
723.56	32.848
723.74	34.795
723.92	33.483
724.10	33.291
724.29	30.891
724.47	33.171
724.65	32.398
724.83	33.692
725.01	31.107
725.19	35.079
725.38	31.651
725.56	34.597
725.74	32.168
725.92	35.308
726.10	31.754
726.28	32.259
726.46	32.886
726.65	36.175
726.83	33.120
727.01	32.524
727.19	32.820
727.37	34.872
727.55	33.077
727.73	32.581
727.92	34.216
728.10	31.384
728.28	31.687
728.46	34.457
728.64	33.552
728.82	35.203
729.00	35.453
729.19	35.241
729.37	30.528
729.55	34.542
729.73	31.037
729.91	34.090
730.09	32.519
730.27	33.917
730.45	31.037
730.63	35.224
730.82	34.434
731.00	33.809
731.18	32.150
731.36	36.860
731.54	30.793
731.72	33.220
731.90	34.153
732.08	33.166
732.26	33.858
732.45	34.355
732.63	34.189
732.81	33.854
732.99	31.388
733.17	33.426
733.35	35.812
733.53	37.238
733.71	31.478
733.89	33.938
734.07	38.520
734.25	34.661
734.44	32.654
734.62	36.605
734.80	34.027
734.98	38.566
735.16	34.644
735.34	37.212
735.52	36.602
735.70	36.289
735.88	37.356
736.06	36.584
736.24	37.131
736.42	37.799
736.60	37.105
736.78	35.815
736.97	36.982
737.15	38.423
737.33	36.327
737.51	37.805
737.69	35.827
737.87	36.678
738.05	37.679
738.23	37.064
738.41	38.239
738.59	38.077
738.77	36.674
738.95	40.832
739.13	38.813
739.31	37.689
739.49	35.794
739.67	37.090
739.85	35.332
740.03	41.777
740.21	38.928
740.39	39.722
740.57	37.162
740.75	39.263
740.93	35.204
741.11	36.721
741.30	36.871
741.48	38.745
741.66	40.367
741.84	41.048
742.02	37.034
742.20	40.942
742.38	39.948
742.56	43.198
742.74	38.563
742.92	36.387
743.10	36.003
743.28	41.628
743.46	40.095
743.64	41.896
743.82	40.362
744.00	41.210
744.18	41.602
744.36	38.320
744.54	39.086
744.72	41.853
744.90	42.357
745.08	45.334
745.26	38.487
745.44	44.444
745.62	37.545
745.80	40.046
745.98	41.798
746.16	43.190
746.34	37.946
746.52	39.969
746.70	39.418
746.87	43.765
747.05	39.467
747.23	44.038
747.41	42.591
747.59	44.620
747.77	37.202
747.95	40.406
748.13	39.405
748.31	43.185
748.49	38.639
748.67	40.101
748.85	38.291
749.03	44.614
749.21	37.730
749.39	40.734
749.57	38.129
749.75	37.778
749.93	39.761
750.11	40.401
750.29	36.111
750.47	38.139
750.65	40.497
750.83	40.282
751.01	38.833
751.18	42.384
751.36	40.294
751.54	43.348
751.72	40.397
751.90	38.728
752.08	37.794
752.26	41.592
752.44	38.734
752.62	38.367
752.80	39.013
752.98	39.348
753.16	41.338
753.34	42.145
753.52	40.750
753.69	41.441
753.87	39.988
754.05	42.327
754.23	41.342
754.41	41.667
754.59	38.156
754.77	40.431
754.95	41.724
755.13	39.580
755.31	39.322
755.49	37.125
755.66	39.576
755.84	41.682
756.02	38.134
756.20	43.540
756.38	42.589
756.56	41.005
756.74	40.409
756.92	44.731
757.10	39.237
757.28	44.908
757.45	41.026
757.63	39.148
757.81	37.372
757.99	44.625
758.17	42.182
758.35	39.346
758.53	37.763
758.71	42.485
758.88	35.075
759.06	37.712
759.24	38.448
759.42	37.737
759.60	32.370
759.78	33.922
759.96	32.525
760.13	35.722
760.31	33.075
760.49	29.025
760.67	24.631
760.85	30.120
761.03	25.907
761.21	27.881
761.38	22.903
761.56	28.822
761.74	28.341
761.92	30.892
762.10	24.544
762.28	29.984
762.46	23.146
762.63	29.240
762.81	30.436
762.99	28.027
763.17	29.195
763.35	29.462
763.53	26.621
763.70	29.733
763.88	30.544
764.06	28.113
764.24	27.948
764.42	30.204
764.60	29.016
764.77	28.077
764.95	28.888
765.13	31.190
765.31	29.418
765.49	30.140
765.66	28.769
765.84	30.674
766.02	31.529
766.20	33.379
766.38	33.844
766.56	34.017
766.73	32.025
766.91	37.173
767.09	38.025
767.27	33.932
767.45	36.409
767.62	38.578
767.80	31.706
767.98	36.330
768.16	33.972
768.33	41.234
768.51	34.126
768.69	37.099
768.87	36.114
769.05	40.921
769.22	38.215
769.40	41.700
769.58	39.867
769.76	43.424
769.94	41.026
770.11	38.761
770.29	38.056
770.47	37.303
770.65	42.236
770.82	46.300
771.00	39.444
771.18	42.003
771.36	42.006
771.53	41.963
771.71	42.407
771.89	43.165
772.07	42.166
772.25	45.943
772.42	43.149
772.60	50.321
772.78	42.293
772.96	47.239
773.13	43.938
773.31	40.286
773.49	44.348
773.67	40.058
773.84	45.346
774.02	43.855
774.20	43.079
774.37	41.464
774.55	42.205
774.73	45.570
774.91	44.024
775.08	44.079
775.26	43.438
775.44	44.506
775.62	41.498
775.79	44.098
775.97	40.191
776.15	40.696
776.32	46.249
776.50	48.949
776.68	44.954
776.86	49.539
777.03	48.220
777.21	46.992
777.39	41.099
777.56	43.159
777.74	44.444
777.92	43.488
778.10	43.342
778.27	44.293
778.45	45.103
778.63	44.560
778.80	39.592
778.98	44.989
779.16	41.086
779.34	45.533
779.51	42.196
779.69	45.079
779.87	47.527
780.04	44.956
780.22	45.740
780.40	44.430
780.57	43.952
780.75	42.857
780.93	47.065
781.10	47.672
781.28	50.075
781.46	42.984
781.63	41.691
781.81	49.307
781.99	44.645
782.16	41.706
782.34	44.313
782.52	47.303
782.69	47.160
782.87	39.495
783.05	41.210
783.22	47.655
783.40	46.783
783.58	47.563
783.75	41.041
783.93	48.485
784.11	43.783
784.28	48.092
784.46	45.005
784.64	43.602
784.81	41.615
784.99	46.002
785.17	48.419
785.34	42.457
785.52	42.492
785.69	41.953
785.87	39.804
786.05	48.389
786.22	43.960
786.40	53.086
786.58	49.459
786.75	46.325
786.93	41.766
787.11	39.504
787.28	45.027
787.46	48.593
787.63	51.097
787.81	39.605
787.99	43.103
788.16	43.338
788.34	39.706
788.51	43.776
788.69	41.643
788.87	42.806
789.04	38.867
789.22	35.860
789.39	40.518
789.57	37.563
789.75	37.419
789.92	40.746
790.10	36.779
790.27	41.924
790.45	34.691
790.63	39.629
790.80	38.266
790.98	38.235
791.15	39.539
791.33	41.199
791.51	39.723
791.68	46.499
791.86	46.291
792.03	45.659
792.21	35.417
792.39	39.725
792.56	39.322
792.74	43.172
792.91	46.475
793.09	38.996
793.26	39.583
793.44	45.226
793.62	43.830
793.79	39.809
793.97	43.464
794.14	44.211
794.32	45.910
794.49	43.876
794.67	36.661
794.84	44.820
795.02	43.400
795.20	47.236
795.37	39.237
795.55	43.732
795.72	36.294
795.90	39.366
796.07	44.190
796.25	41.173
796.42	40.000
796.60	39.927
796.77	42.554
796.95	40.814
797.13	38.852
797.30	39.224
797.48	39.091
797.65	38.341
797.83	36.977
798.00	41.602
798.18	38.231
798.35	36.740
798.53	37.125
798.70	41.179
798.88	40.174
799.05	43.969
799.23	40.274
799.40	37.547
799.58	39.688
799.75	42.404
799.93	41.193
800.10	38.359
800.28	37.298
800.45	43.641
800.63	40.399
800.80	40.571
800.98	41.737
801.15	41.653
801.33	36.149
801.50	38.760
801.68	44.118
801.85	35.937
802.03	45.954
802.20	40.802
802.38	42.261
802.55	33.768
802.73	43.991
802.90	38.575
803.08	42.315
803.25	46.529
803.43	46.791
803.60	42.048
803.78	46.231
803.95	39.644
804.13	42.817
804.30	44.066
804.48	42.830
804.65	47.244
804.83	35.997
805.00	35.544
805.17	42.760
805.35	47.179
805.52	47.133
805.70	42.376
805.87	47.007
806.05	45.159
806.22	38.720
806.40	38.367
806.57	34.014
806.75	43.905
806.92	43.505
807.09	39.257
807.27	41.031
807.44	45.159
807.62	43.786
807.79	37.347
807.97	40.643
808.14	38.203
808.31	43.893
808.49	36.177
808.66	45.379
808.84	39.125
809.01	41.552
809.19	41.700
809.36	47.216
809.53	39.028
809.71	38.614
809.88	48.423
810.06	46.320
810.23	45.643
810.41	43.986
810.58	44.722
810.75	37.549
810.93	38.789
811.10	45.243
811.28	50.984
811.45	42.387
811.62	38.568
811.80	41.366
811.97	43.722
812.15	54.512
812.32	42.806
812.49	46.513
812.67	40.326
812.84	35.644
813.02	37.805
813.19	39.382
813.36	48.810
813.54	36.229
813.71	43.461
813.89	46.612
814.06	51.620
814.23	48.859
814.41	42.000
814.58	45.851
814.75	44.686
814.93	42.857
815.10	53.318
815.28	45.593
815.45	40.363
815.62	43.816
815.80	35.714
815.97	44.306
816.14	47.209
816.32	42.266
816.49	29.484
816.66	29.948
816.84	39.177
817.01	47.247
817.18	35.688
817.36	37.446
817.53	46.649
817.71	37.150
817.88	37.955
818.05	36.726
818.23	41.060
818.40	42.287
818.57	38.779
818.75	40.988
818.92	38.494
819.09	31.106
819.27	39.775
819.44	36.357
819.61	30.545
819.79	37.127
819.96	41.377
820.13	31.024
820.31	34.935
820.48	35.902
820.65	32.609
820.82	36.103
821.00	34.738
821.17	27.562
821.34	32.650
821.52	26.179
821.69	24.478
821.86	30.417
822.04	27.684
822.21	26.771
822.38	26.347
822.56	25.361
822.73	25.715
822.90	24.579
823.07	26.637
823.25	25.833
823.42	25.248
823.59	25.422
823.77	25.851
823.94	25.664
824.11	27.410
824.29	25.060
824.46	25.547
824.63	26.002
824.80	26.054
824.98	27.152
825.15	24.444
825.32	24.139
825.49	28.569
825.67	27.305
825.84	29.497
826.01	27.142
826.19	25.492
826.36	23.943
826.53	30.383
826.70	25.168
826.88	29.248
827.05	24.897
827.22	26.066
827.39	26.295
827.57	23.647
827.74	24.654
827.91	26.427
828.08	22.611
828.26	25.707
828.43	24.718
828.60	27.597
828.77	25.177
828.95	26.542
829.12	23.901
829.29	22.989
829.46	29.282
829.64	24.642
829.81	26.936
829.98	31.010
830.15	31.016
830.32	28.692
830.50	28.995
830.67	34.169
830.84	29.535
831.01	30.281
831.19	35.598
831.36	34.682
831.53	39.791
831.70	34.081
831.87	34.974
832.05	41.181
832.22	37.300
832.39	31.132
832.56	36.458
832.74	35.095
832.91	33.927
833.08	36.706
833.25	28.526
833.42	33.564
833.60	28.595
833.77	20.544
833.94	26.639
834.11	26.197
834.28	24.819
834.45	26.535
834.63	23.422
834.80	25.162
834.97	26.667
835.14	27.857
835.31	23.823
835.49	32.464
835.66	27.247
835.83	28.213
836.00	28.915
836.17	27.571
836.34	26.318
836.52	29.781
836.69	29.418
836.86	35.505
837.03	33.977
837.20	34.766
837.37	28.498
837.55	33.911
837.72	38.114
837.89	34.001
838.06	36.515
838.23	39.950
838.40	52.344
838.58	41.840
838.75	48.958
838.92	43.483
839.09	59.665
839.26	51.556
839.43	49.740
839.60	49.032
839.78	62.703
839.95	58.419
840.12	49.901
840.29	46.389
840.46	53.772
840.63	49.914
840.80	39.386
840.98	43.089
841.15	47.716
841.32	41.777
841.49	36.034
841.66	47.894
841.83	47.855
842.00	52.960
842.17	49.429
842.34	39.948
842.52	51.290
842.69	47.945
842.86	45.285
843.03	53.563
843.20	59.864
843.37	50.000
843.54	57.181
843.71	53.973
843.88	69.860
844.06	68.534
844.23	64.972
844.40	68.809
844.57	78.922
844.74	73.563
844.91	51.709
845.08	62.041
845.25	54.245
845.42	75.287
845.59	65.954
845.76	57.104
845.94	77.949
846.11	48.333
846.28	66.026
846.45	86.585
846.62	77.946
846.79	73.182
846.96	77.273
847.13	69.162
847.30	63.889
847.47	86.345
847.64	69.948
847.81	70.569
847.98	83.066
848.15	76.709
848.32	85.531
848.50	116.667
848.67	85.938
848.84	97.020
849.01	91.852
849.18	70.480
849.35	103.656
849.52	91.033
849.69	86.015
849.86	84.864
850.03	85.417
850.20	113.924
850.37	81.589
850.54	97.222
850.71	98.364
850.88	83.810
851.05	91.285
851.22	75.490
851.39	93.028
851.56	84.444
851.73	90.846
851.90	91.717
852.07	84.896
852.24	77.457
852.41	115.815
852.58	92.365
852.75	66.064
852.92	112.308
853.09	90.293
853.26	108.102
853.43	78.142
853.60	92.982
853.77	72.431
853.94	92.903
854.11	84.799
854.28	86.532
854.45	85.093
854.62	94.340
854.79	96.252
854.96	101.667
855.13	94.600
855.30	88.535
855.47	110.256
855.64	68.750
855.81	76.162
855.98	107.339
856.15	83.610
856.32	100.769
856.49	85.235
856.66	107.184
856.83	95.929
857.00	82.834
857.17	106.471
857.34	88.584
857.51	117.109
857.68	88.889
857.85	81.900
858.02	91.803
858.19	95.862
858.36	91.667
858.53	87.900
858.70	111.570
858.87	86.458
859.04	82.151
859.21	89.394
859.38	93.333
859.55	93.939
859.72	89.099
859.89	115.920
860.05	116.034
860.22	74.681
860.39	96.296
860.56	90.285
860.73	77.842
860.90	126.484
861.07	101.225
861.24	77.519
861.41	81.683
861.58	86.188
861.75	100.000
861.92	89.845
862.09	82.323
862.26	141.453
862.43	87.321
862.59	80.254
862.76	118.788
862.93	137.243
863.10	112.424
863.27	74.892
863.44	96.970
863.61	93.836
863.78	116.667
863.95	95.214
864.12	93.889
864.29	83.240
864.45	101.242
864.62	84.000
864.79	89.125
864.96	111.607
865.13	76.550
865.30	128.889
865.47	111.026
865.64	154.455
865.81	89.503
865.97	71.038
866.14	85.938
866.31	60.702
866.48	100.498
866.65	78.261
866.82	126.667
866.99	89.802
867.16	102.801
867.33	91.549
867.49	93.177
867.66	90.476
867.83	88.739
868.00	74.204
868.17	77.957
868.34	121.005
868.51	120.000
868.67	98.257
868.84	117.080
869.01	86.852
869.18	82.500
869.35	91.411
869.52	82.083
869.69	83.826
869.85	82.514
870.02	101.502
870.19	105.674
870.36	103.865
870.53	93.939
870.70	128.611
870.86	114.286
871.03	76.433
871.20	84.158
871.37	99.140
871.54	87.346
871.71	74.806
871.87	73.282
872.04	83.082
872.21	95.761
872.38	109.048
872.55	95.981
872.72	67.955
872.88	93.291
873.05	89.099
873.22	58.730
873.39	82.917
873.56	65.497
873.72	95.518
873.89	89.759
874.06	93.290
874.23	77.848
874.40	144.343
874.56	74.457
874.73	118.644
874.90	68.724
875.07	91.503
875.24	69.591
875.40	120.000
875.57	103.234
875.74	108.974
875.91	81.127
876.08	123.129
876.24	92.424
876.41	85.667
876.58	88.109
876.75	85.271
876.92	84.886
877.08	84.405
877.25	83.111
877.42	93.512
877.59	95.582
877.75	86.988
877.92	82.094
878.09	93.600
878.26	97.949
878.42	81.169
878.59	98.876
878.76	86.553
878.93	82.950
879.09	86.441
879.26	75.524
879.43	79.602
879.60	89.439
879.76	64.948
879.93	81.569
880.10	56.229
880.27	55.177
880.43	53.931
880.60	56.818
880.77	37.942
880.94	51.766
881.10	50.056
881.27	35.942
881.44	34.921
881.61	32.107
881.77	37.924
881.94	24.649
882.11	23.714
882.28	22.348
882.44	20.639
882.61	25.063
882.78	29.004
882.94	28.453
883.11	26.542
883.28	24.585
883.45	22.058
883.61	25.341
883.78	22.607
883.95	28.305
884.11	24.123
884.28	24.568
>>>>>End Processed Spectral Data<<<<<
