SpectraSuite Data File
++++++++++++++++++++++++++++++++++++
Date: Sun Sep 22 02:54:10 EST 2019
User: sgrac
Dark Spectrum Present: Yes
Reference Spectrum Present: Yes
Number of Sampled Component Spectra: 1
Spectrometers: USB4E01596
Integration Time (usec): 100000 (USB4E01596)
Spectra Averaged: 1 (USB4E01596)
Boxcar Smoothing: 0 (USB4E01596)
Correct for Electrical Dark: No (USB4E01596)
Strobe/Lamp Enabled: Yes (USB4E01596)
Correct for Detector Non-linearity: No (USB4E01596)
Correct for Stray Light: No (USB4E01596)
Number of Pixels in Processed Spectrum: 3648
>>>>>Begin Processed Spectral Data<<<<<
178.44	314.286
178.66	314.286
178.87	314.286
179.09	-63.889
179.30	-138.889
179.52	96.774
179.74	4000.000
179.95	700.000
180.17	6600.000
180.38	209.259
180.60	-175.000
180.82	2350.000
181.03	-96.667
181.25	130.435
181.46	-66.071
181.68	-245.000
181.89	291.176
182.11	347.619
182.33	528.571
182.54	-13.793
182.76	263.636
182.97	-128.571
183.19	82.051
183.40	-176.190
183.62	40.741
183.84	148.571
184.05	1000.000
184.27	117.500
184.48	17.021
184.70	242.857
184.91	286.667
185.13	-4250.000
185.34	507.143
185.56	-114.286
185.78	173.333
185.99	67.647
186.21	154.348
186.42	1400.000
186.64	53.947
186.85	-212.500
187.07	159.375
187.28	-650.000
187.50	357.143
187.72	463.636
187.93	-337.500
188.15	266.667
188.36	132.432
188.58	90.769
188.79	212.903
189.01	161.538
189.22	-530.000
189.44	117.808
189.65	1950.000
189.87	1220.000
190.09	0.000
190.30	591.667
190.52	-165.385
190.73	413.043
190.95	217.857
191.16	370.000
191.38	-369.231
191.59	6800.000
191.81	166.667
192.02	433.333
192.24	-2150.000
192.45	-266.667
192.67	131.250
192.88	81.818
193.10	5100.000
193.31	-392.857
193.53	890.000
193.74	130.769
193.96	116.327
194.18	252.632
194.39	-950.000
194.61	-116.667
194.82	130.909
195.04	457.143
195.25	420.000
195.47	17.647
195.68	-132.143
195.90	178.125
196.11	476.923
196.33	238.889
196.54	184.848
196.76	700.000
196.97	100.000
197.19	457.143
197.40	406.061
197.62	81.818
197.83	-537.500
198.05	1600.000
198.26	58.209
198.48	300.000
198.69	-63.636
198.91	-1133.333
199.12	137.143
199.34	92.593
199.55	315.789
199.77	-194.737
199.98	-323.077
200.20	144.444
200.41	163.158
200.63	228.571
200.84	-525.000
201.06	1320.000
201.27	250.000
201.49	-942.857
201.70	0.000
201.91	135.000
202.13	79.167
202.34	88.889
202.56	436.364
202.77	148.276
202.99	-66.667
203.20	-222.222
203.42	142.105
203.63	166.667
203.85	194.340
204.06	453.846
204.28	360.000
204.49	-1800.000
204.71	194.595
204.92	250.000
205.14	118.182
205.35	252.381
205.56	104.082
205.78	590.000
205.99	6200.000
206.21	441.176
206.42	148.333
206.64	2300.000
206.85	139.583
207.07	105.000
207.28	144.262
207.50	285.714
207.71	288.000
207.93	278.261
208.14	-390.000
208.35	-1666.667
208.57	380.000
208.78	193.478
209.00	98.485
209.21	148.485
209.43	44.928
209.64	687.500
209.86	145.455
210.07	492.308
210.28	333.333
210.50	170.000
210.71	172.340
210.93	400.000
211.14	-7000.000
211.36	230.000
211.57	-5000.000
211.78	-1675.000
212.00	42.105
212.21	450.000
212.43	95.745
212.64	527.273
212.86	193.103
213.07	-1425.000
213.29	131.250
213.50	-257.895
213.71	116.393
213.93	840.000
214.14	364.286
214.36	461.538
214.57	177.273
214.78	50.649
215.00	117.143
215.21	94.444
215.43	208.000
215.64	-3500.000
215.86	608.333
216.07	-300.000
216.28	480.000
216.50	-123.077
216.71	520.000
216.93	300.000
217.14	-233.333
217.35	71.875
217.57	733.333
217.78	311.765
218.00	1066.667
218.21	150.943
218.42	422.222
218.64	1633.333
218.85	366.667
219.07	255.556
219.28	-170.370
219.49	151.852
219.71	160.000
219.92	171.795
220.14	104.348
220.35	3200.000
220.56	136.842
220.78	150.000
220.99	-400.000
221.21	0.000
221.42	162.069
221.63	527.273
221.85	135.593
222.06	46.939
222.28	37.931
222.49	157.692
222.70	480.000
222.92	158.000
223.13	125.000
223.34	-416.667
223.56	80.519
223.77	127.660
223.99	233.333
224.20	2.439
224.41	179.545
224.63	65.333
224.84	172.414
225.05	155.556
225.27	139.130
225.48	50.000
225.69	185.714
225.91	61.728
226.12	105.634
226.34	39.806
226.55	28.986
226.76	50.877
226.98	68.421
227.19	56.452
227.40	21.875
227.62	98.000
227.83	76.351
228.04	11.340
228.26	46.281
228.47	45.122
228.69	52.071
228.90	22.353
229.11	28.870
229.33	28.151
229.54	13.074
229.75	23.507
229.97	18.619
230.18	7.479
230.39	7.273
230.61	5.607
230.82	25.444
231.03	2.147
231.25	25.436
231.46	16.828
231.67	20.130
231.89	23.704
232.10	16.045
232.31	12.712
232.53	4.274
232.74	25.417
232.95	23.153
233.17	21.484
233.38	8.287
233.59	25.128
233.81	37.000
234.02	42.857
234.23	12.385
234.45	21.390
234.66	23.364
234.87	21.461
235.09	47.236
235.30	19.512
235.51	23.276
235.73	19.231
235.94	13.930
236.15	34.538
236.36	31.599
236.58	8.273
236.79	29.457
237.00	26.502
237.22	27.778
237.43	20.354
237.64	29.646
237.86	19.912
238.07	31.690
238.28	19.816
238.50	36.462
238.71	10.929
238.92	48.780
239.13	9.562
239.35	34.386
239.56	20.168
239.77	24.621
239.99	16.667
240.20	13.663
240.41	4.386
240.63	23.077
240.84	23.214
241.05	16.918
241.26	12.286
241.48	12.981
241.69	10.884
241.90	7.363
242.12	8.842
242.33	-0.362
242.54	8.567
242.75	9.091
242.97	7.438
243.18	13.469
243.39	6.897
243.61	12.341
243.82	7.656
244.03	11.287
244.24	5.251
244.46	12.169
244.67	3.979
244.88	9.337
245.09	8.708
245.31	7.023
245.52	12.384
245.73	8.176
245.95	18.936
246.16	8.411
246.37	9.135
246.58	8.096
246.80	12.449
247.01	8.182
247.22	4.330
247.43	0.839
247.65	7.237
247.86	4.651
248.07	5.449
248.28	2.872
248.50	6.466
248.71	4.584
248.92	3.316
249.13	4.861
249.35	5.155
249.56	4.074
249.77	3.587
249.98	6.414
250.20	6.462
250.41	9.814
250.62	11.253
250.83	1.238
251.05	6.831
251.26	10.955
251.47	12.296
251.68	9.539
251.90	5.043
252.11	15.988
252.32	4.309
252.53	13.216
252.75	5.220
252.96	4.980
253.17	4.819
253.38	5.826
253.59	5.077
253.81	1.928
254.02	4.621
254.23	11.214
254.44	10.579
254.66	-0.560
254.87	4.262
255.08	14.195
255.29	8.427
255.50	12.082
255.72	12.795
255.93	9.294
256.14	7.692
256.35	5.871
256.57	14.458
256.78	-0.213
256.99	6.981
257.20	8.679
257.41	9.552
257.63	9.320
257.84	11.169
258.05	9.457
258.26	4.193
258.47	1.288
258.69	6.676
258.90	6.992
259.11	8.197
259.32	11.438
259.53	6.809
259.75	7.902
259.96	4.042
260.17	4.825
260.38	5.150
260.59	5.362
260.81	3.168
261.02	4.184
261.23	2.971
261.44	3.974
261.65	3.313
261.87	2.001
262.08	2.466
262.29	3.219
262.50	2.706
262.71	7.086
262.92	3.221
263.14	5.070
263.35	7.015
263.56	4.612
263.77	9.072
263.98	8.172
264.20	5.475
264.41	7.242
264.62	7.762
264.83	5.488
265.04	8.575
265.25	10.327
265.47	7.923
265.68	5.685
265.89	-1.513
266.10	6.970
266.31	9.912
266.52	10.820
266.74	4.632
266.95	7.222
267.16	10.275
267.37	3.958
267.58	5.927
267.79	5.423
268.01	3.131
268.22	6.190
268.43	5.351
268.64	2.594
268.85	4.967
269.06	4.344
269.27	5.709
269.49	3.044
269.70	2.502
269.91	4.240
270.12	3.843
270.33	3.220
270.54	7.182
270.75	6.838
270.97	3.427
271.18	6.288
271.39	3.303
271.60	5.241
271.81	0.801
272.02	6.813
272.23	5.029
272.45	3.754
272.66	1.244
272.87	4.399
273.08	4.506
273.29	4.036
273.50	3.107
273.71	3.383
273.92	-1.044
274.14	5.270
274.35	1.961
274.56	3.380
274.77	5.303
274.98	3.417
275.19	2.655
275.40	2.022
275.61	6.159
275.83	4.062
276.04	3.517
276.25	6.051
276.46	3.293
276.67	5.120
276.88	1.035
277.09	5.634
277.30	3.928
277.51	2.726
277.73	6.517
277.94	3.015
278.15	1.577
278.36	6.050
278.57	3.733
278.78	1.841
278.99	2.019
279.20	4.013
279.41	5.546
279.62	1.488
279.84	4.794
280.05	6.566
280.26	10.624
280.47	3.936
280.68	9.920
280.89	7.196
281.10	4.645
281.31	7.370
281.52	4.535
281.73	1.169
281.94	4.606
282.16	4.612
282.37	4.057
282.58	2.979
282.79	3.436
283.00	3.771
283.21	5.175
283.42	3.089
283.63	6.149
283.84	6.841
284.05	4.280
284.26	2.085
284.47	3.528
284.68	4.502
284.89	5.871
285.11	3.457
285.32	3.425
285.53	3.384
285.74	2.856
285.95	3.425
286.16	1.842
286.37	3.310
286.58	3.407
286.79	2.076
287.00	2.717
287.21	2.581
287.42	0.791
287.63	1.129
287.84	2.699
288.05	5.513
288.26	2.823
288.48	5.606
288.69	2.242
288.90	2.414
289.11	7.462
289.32	4.366
289.53	4.000
289.74	2.805
289.95	2.698
290.16	3.741
290.37	6.615
290.58	4.270
290.79	4.788
291.00	1.129
291.21	2.130
291.42	4.173
291.63	5.970
291.84	3.621
292.05	1.242
292.26	5.637
292.47	3.912
292.68	5.125
292.89	2.115
293.10	2.907
293.31	3.762
293.52	4.438
293.73	1.494
293.94	1.546
294.15	3.516
294.36	3.815
294.57	6.719
294.79	3.884
295.00	2.025
295.21	4.952
295.42	2.018
295.63	2.542
295.84	2.303
296.05	5.053
296.26	3.952
296.47	2.106
296.68	3.539
296.89	4.518
297.10	5.056
297.31	7.048
297.52	2.486
297.73	3.541
297.94	2.224
298.15	3.828
298.36	3.413
298.57	3.324
298.78	2.979
298.99	3.528
299.20	2.473
299.41	3.767
299.62	3.256
299.83	1.978
300.04	4.296
300.25	3.575
300.46	6.468
300.67	3.856
300.88	4.252
301.09	4.300
301.30	4.471
301.50	4.461
301.71	6.121
301.92	7.714
302.13	1.979
302.34	5.540
302.55	1.708
302.76	4.013
302.97	1.805
303.18	6.663
303.39	4.404
303.60	1.440
303.81	3.808
304.02	3.501
304.23	3.624
304.44	5.103
304.65	4.313
304.86	6.054
305.07	6.373
305.28	3.710
305.49	7.397
305.70	7.965
305.91	5.990
306.12	3.176
306.33	5.389
306.54	5.664
306.75	5.260
306.96	8.148
307.17	5.588
307.38	5.629
307.58	5.054
307.79	2.752
308.00	2.873
308.21	5.699
308.42	4.684
308.63	5.072
308.84	6.574
309.05	4.373
309.26	3.787
309.47	4.148
309.68	5.147
309.89	6.397
310.10	5.013
310.31	5.662
310.52	5.837
310.73	7.745
310.94	4.190
311.14	4.020
311.35	5.597
311.56	6.047
311.77	5.841
311.98	3.381
312.19	6.372
312.40	3.329
312.61	5.794
312.82	3.673
313.03	5.182
313.24	3.645
313.45	6.599
313.66	5.132
313.86	6.256
314.07	6.180
314.28	6.424
314.49	6.740
314.70	4.741
314.91	5.724
315.12	4.119
315.33	6.897
315.54	6.321
315.75	5.051
315.96	1.917
316.16	4.736
316.37	6.800
316.58	3.852
316.79	5.707
317.00	6.571
317.21	5.232
317.42	7.861
317.63	7.135
317.84	4.840
318.05	5.366
318.25	5.116
318.46	6.787
318.67	5.719
318.88	4.579
319.09	6.935
319.30	3.995
319.51	7.856
319.72	7.727
319.93	5.059
320.13	7.299
320.34	6.312
320.55	6.974
320.76	7.964
320.97	7.418
321.18	8.309
321.39	6.490
321.60	3.656
321.80	5.693
322.01	5.374
322.22	8.052
322.43	5.954
322.64	2.996
322.85	8.096
323.06	8.893
323.27	5.315
323.47	8.124
323.68	5.568
323.89	8.144
324.10	7.333
324.31	3.363
324.52	8.834
324.73	8.077
324.93	5.378
325.14	8.837
325.35	9.189
325.56	6.407
325.77	10.610
325.98	7.562
326.19	4.322
326.39	2.835
326.60	8.698
326.81	6.884
327.02	4.161
327.23	4.603
327.44	7.466
327.64	4.586
327.85	3.831
328.06	10.253
328.27	10.596
328.48	11.274
328.69	5.625
328.90	6.457
329.10	4.626
329.31	6.554
329.52	6.670
329.73	9.967
329.94	7.035
330.15	8.431
330.35	4.711
330.56	7.200
330.77	5.906
330.98	6.962
331.19	8.568
331.39	5.609
331.60	7.778
331.81	7.760
332.02	8.002
332.23	7.587
332.44	3.169
332.64	9.237
332.85	8.535
333.06	11.167
333.27	5.091
333.48	10.449
333.68	8.065
333.89	7.845
334.10	4.621
334.31	12.828
334.52	6.231
334.72	9.012
334.93	8.674
335.14	8.887
335.35	6.165
335.56	11.715
335.76	4.319
335.97	9.533
336.18	5.433
336.39	11.672
336.60	9.715
336.80	9.324
337.01	6.538
337.22	10.388
337.43	11.106
337.64	11.247
337.84	7.775
338.05	9.871
338.26	12.518
338.47	11.762
338.68	8.494
338.88	10.719
339.09	8.027
339.30	9.036
339.51	8.850
339.71	8.867
339.92	8.677
340.13	8.746
340.34	7.450
340.55	8.855
340.75	10.650
340.96	5.302
341.17	11.279
341.38	6.726
341.58	8.321
341.79	8.519
342.00	6.769
342.21	9.115
342.41	5.822
342.62	8.377
342.83	8.064
343.04	4.948
343.24	9.203
343.45	12.494
343.66	9.425
343.87	11.087
344.07	7.490
344.28	9.855
344.49	10.342
344.70	13.732
344.90	8.448
345.11	7.595
345.32	9.209
345.53	9.778
345.73	8.975
345.94	12.003
346.15	11.948
346.36	12.510
346.56	9.251
346.77	12.847
346.98	10.381
347.19	12.797
347.39	9.065
347.60	7.568
347.81	10.710
348.02	8.847
348.22	7.840
348.43	10.683
348.64	4.658
348.84	10.412
349.05	9.325
349.26	12.263
349.47	7.686
349.67	6.562
349.88	10.009
350.09	6.809
350.30	12.312
350.50	11.502
350.71	11.083
350.92	11.338
351.12	11.195
351.33	10.378
351.54	8.609
351.74	10.290
351.95	8.520
352.16	10.790
352.37	10.838
352.57	8.481
352.78	6.250
352.99	10.604
353.19	7.597
353.40	9.835
353.61	11.284
353.82	13.214
354.02	8.212
354.23	9.044
354.44	12.374
354.64	9.341
354.85	11.290
355.06	9.553
355.26	7.059
355.47	10.944
355.68	10.900
355.88	12.222
356.09	11.427
356.30	7.707
356.51	11.604
356.71	8.638
356.92	6.940
357.13	12.478
357.33	13.338
357.54	10.946
357.75	7.404
357.95	11.490
358.16	7.574
358.37	14.141
358.57	8.099
358.78	13.348
358.99	9.605
359.19	10.777
359.40	11.780
359.61	10.081
359.81	12.118
360.02	15.350
360.23	10.000
360.43	10.989
360.64	9.938
360.85	11.520
361.05	8.289
361.26	14.095
361.47	10.615
361.67	15.327
361.88	8.535
362.09	13.079
362.29	9.993
362.50	11.065
362.70	8.480
362.91	14.986
363.12	10.548
363.32	12.234
363.53	12.037
363.74	14.160
363.94	8.446
364.15	14.301
364.36	11.735
364.56	9.943
364.77	10.633
364.98	14.490
365.18	10.219
365.39	14.045
365.59	7.937
365.80	9.536
366.01	11.749
366.21	9.265
366.42	9.044
366.63	13.088
366.83	9.605
367.04	7.754
367.24	11.392
367.45	9.361
367.66	7.311
367.86	10.712
368.07	9.612
368.28	9.511
368.48	8.705
368.69	7.101
368.89	8.302
369.10	9.739
369.31	7.692
369.51	10.580
369.72	12.400
369.92	13.258
370.13	8.959
370.34	12.389
370.54	4.110
370.75	9.943
370.95	6.859
371.16	10.451
371.37	8.561
371.57	9.688
371.78	8.381
371.98	11.905
372.19	9.983
372.40	12.769
372.60	9.113
372.81	10.094
373.01	6.920
373.22	9.803
373.43	9.698
373.63	10.695
373.84	8.585
374.04	9.465
374.25	8.494
374.46	10.523
374.66	10.575
374.87	9.049
375.07	5.588
375.28	7.999
375.48	9.420
375.69	11.506
375.90	6.374
376.10	6.741
376.31	8.333
376.51	7.210
376.72	8.765
376.92	7.690
377.13	8.489
377.34	11.384
377.54	7.641
377.75	11.416
377.95	8.246
378.16	11.670
378.36	10.230
378.57	10.919
378.77	9.560
378.98	12.664
379.19	9.025
379.39	9.223
379.60	7.694
379.80	9.129
380.01	9.558
380.21	6.987
380.42	9.900
380.62	9.510
380.83	9.956
381.04	8.357
381.24	10.123
381.45	9.712
381.65	5.690
381.86	9.386
382.06	9.812
382.27	5.423
382.47	7.242
382.68	10.371
382.88	6.768
383.09	7.430
383.29	6.529
383.50	9.979
383.71	8.176
383.91	8.443
384.12	6.989
384.32	9.464
384.53	7.232
384.73	6.192
384.94	6.701
385.14	7.322
385.35	6.910
385.55	9.657
385.76	6.939
385.96	7.506
386.17	8.975
386.37	9.048
386.58	7.435
386.78	10.032
386.99	6.070
387.19	9.844
387.40	6.868
387.60	11.353
387.81	6.366
388.01	7.288
388.22	8.666
388.42	10.041
388.63	9.998
388.83	10.073
389.04	5.197
389.24	8.550
389.45	7.187
389.65	7.666
389.86	6.684
390.06	7.433
390.27	6.925
390.47	8.435
390.68	5.743
390.88	10.146
391.09	8.782
391.29	10.454
391.50	6.632
391.70	10.000
391.91	7.056
392.11	8.667
392.32	8.840
392.52	10.669
392.73	7.688
392.93	8.903
393.14	7.394
393.34	9.646
393.55	9.591
393.75	8.012
393.95	7.879
394.16	9.055
394.36	9.681
394.57	9.819
394.77	8.156
394.98	7.504
395.18	9.560
395.39	8.584
395.59	8.533
395.80	8.275
396.00	8.976
396.21	9.647
396.41	6.315
396.61	8.898
396.82	8.390
397.02	9.981
397.23	8.237
397.43	7.370
397.64	5.530
397.84	10.471
398.05	5.087
398.25	9.682
398.45	6.488
398.66	9.039
398.86	7.048
399.07	10.295
399.27	5.949
399.48	10.541
399.68	6.872
399.89	8.057
400.09	7.554
400.29	6.524
400.50	7.706
400.70	8.581
400.91	6.753
401.11	7.397
401.32	7.206
401.52	5.087
401.72	7.125
401.93	9.407
402.13	6.923
402.34	7.565
402.54	5.488
402.75	11.510
402.95	3.741
403.15	8.285
403.36	5.393
403.56	8.103
403.77	5.781
403.97	8.295
404.17	6.409
404.38	8.214
404.58	6.210
404.79	9.308
404.99	8.324
405.19	7.810
405.40	7.175
405.60	9.263
405.81	6.124
406.01	8.936
406.21	6.776
406.42	8.263
406.62	8.460
406.83	7.966
407.03	8.614
407.23	6.296
407.44	7.306
407.64	8.280
407.85	7.206
408.05	7.570
408.25	6.501
408.46	9.621
408.66	7.104
408.87	6.815
409.07	5.355
409.27	5.527
409.48	6.838
409.68	7.808
409.88	5.259
410.09	7.397
410.29	8.052
410.50	10.080
410.70	5.593
410.90	7.098
411.11	5.455
411.31	6.446
411.51	7.304
411.72	8.499
411.92	6.167
412.12	6.535
412.33	6.332
412.53	7.092
412.74	4.455
412.94	6.855
413.14	6.801
413.35	6.746
413.55	7.000
413.75	8.596
413.96	5.494
414.16	6.323
414.36	6.837
414.57	6.993
414.77	6.113
414.97	7.692
415.18	5.587
415.38	7.084
415.58	7.216
415.79	6.041
415.99	6.428
416.19	7.239
416.40	7.345
416.60	6.278
416.80	7.302
417.01	7.652
417.21	5.677
417.41	9.972
417.62	8.258
417.82	8.912
418.02	5.722
418.23	9.080
418.43	7.275
418.63	8.771
418.84	8.629
419.04	8.301
419.24	9.824
419.45	10.682
419.65	10.415
419.85	9.944
420.06	9.194
420.26	9.765
420.46	9.228
420.67	10.865
420.87	10.018
421.07	10.799
421.28	9.152
421.48	11.106
421.68	10.048
421.88	10.971
422.09	9.958
422.29	10.510
422.49	9.882
422.70	10.794
422.90	10.221
423.10	9.936
423.31	9.605
423.51	10.882
423.71	9.804
423.91	10.524
424.12	10.051
424.32	10.357
424.52	9.909
424.73	10.174
424.93	9.624
425.13	9.742
425.33	9.717
425.54	10.452
425.74	9.850
425.94	11.090
426.15	10.124
426.35	9.313
426.55	9.653
426.75	9.679
426.96	9.594
427.16	9.977
427.36	9.183
427.57	9.829
427.77	7.935
427.97	9.833
428.17	9.172
428.38	9.423
428.58	6.602
428.78	8.398
428.98	7.166
429.19	8.252
429.39	5.986
429.59	8.482
429.79	6.002
430.00	5.811
430.20	5.541
430.40	8.032
430.60	6.539
430.81	8.398
431.01	7.060
431.21	7.809
431.41	5.433
431.62	7.936
431.82	7.248
432.02	9.024
432.22	7.205
432.43	7.055
432.63	5.800
432.83	8.287
433.03	7.139
433.24	7.172
433.44	7.141
433.64	8.436
433.84	7.565
434.05	8.956
434.25	8.471
434.45	10.169
434.65	9.258
434.85	9.772
435.06	9.105
435.26	8.933
435.46	7.725
435.66	9.033
435.87	7.722
436.07	9.151
436.27	8.108
436.47	8.854
436.67	6.082
436.88	8.593
437.08	7.627
437.28	8.298
437.48	8.209
437.69	9.541
437.89	7.660
438.09	9.976
438.29	7.324
438.49	8.877
438.70	8.538
438.90	7.685
439.10	7.627
439.30	9.144
439.50	7.283
439.71	9.808
439.91	8.557
440.11	9.867
440.31	8.857
440.51	9.265
440.72	8.573
440.92	10.295
441.12	9.280
441.32	10.376
441.52	8.976
441.72	9.719
441.93	9.943
442.13	10.156
442.33	9.272
442.53	9.997
442.73	8.728
442.94	10.206
443.14	8.456
443.34	10.097
443.54	8.504
443.74	9.362
443.94	8.670
444.15	8.709
444.35	7.662
444.55	10.124
444.75	9.009
444.95	9.337
445.15	8.573
445.36	9.296
445.56	8.099
445.76	9.129
445.96	8.400
446.16	9.266
446.36	7.897
446.57	9.678
446.77	8.622
446.97	9.740
447.17	10.476
447.37	9.861
447.57	9.211
447.77	10.339
447.98	9.480
448.18	10.308
448.38	9.591
448.58	10.024
448.78	8.753
448.98	9.806
449.18	8.731
449.39	9.361
449.59	8.609
449.79	8.983
449.99	7.745
450.19	9.047
450.39	8.926
450.59	9.147
450.79	8.075
451.00	8.995
451.20	8.764
451.40	8.150
451.60	7.062
451.80	9.050
452.00	7.126
452.20	8.987
452.40	7.619
452.61	8.855
452.81	7.321
453.01	9.005
453.21	8.635
453.41	9.433
453.61	8.177
453.81	7.909
454.01	7.660
454.21	8.560
454.42	7.868
454.62	8.583
454.82	7.526
455.02	8.075
455.22	5.984
455.42	7.688
455.62	5.845
455.82	7.913
456.02	6.266
456.23	7.997
456.43	7.081
456.63	7.499
456.83	5.444
457.03	8.671
457.23	6.997
457.43	7.744
457.63	6.737
457.83	7.602
458.03	6.647
458.23	8.002
458.43	5.372
458.64	7.875
458.84	6.857
459.04	8.626
459.24	8.364
459.44	8.256
459.64	8.584
459.84	9.082
460.04	8.842
460.24	9.797
460.44	8.854
460.64	9.855
460.84	9.067
461.04	9.825
461.24	9.646
461.45	10.066
461.65	9.819
461.85	9.426
462.05	9.218
462.25	9.594
462.45	9.015
462.65	9.004
462.85	6.139
463.05	9.285
463.25	6.579
463.45	8.709
463.65	7.830
463.85	9.024
464.05	7.262
464.25	8.320
464.45	8.161
464.65	7.140
464.85	6.006
465.05	7.397
465.26	6.968
465.46	9.053
465.66	7.183
465.86	8.365
466.06	7.241
466.26	8.152
466.46	5.589
466.66	7.337
466.86	7.618
467.06	8.183
467.26	6.987
467.46	8.695
467.66	8.195
467.86	7.875
468.06	7.459
468.26	7.316
468.46	7.513
468.66	8.136
468.86	5.557
469.06	8.914
469.26	6.493
469.46	7.525
469.66	6.712
469.86	8.901
470.06	7.376
470.26	8.705
470.46	6.194
470.66	8.822
470.86	6.272
471.06	6.953
471.26	5.878
471.46	6.276
471.66	6.371
471.86	7.555
472.06	6.592
472.26	8.577
472.46	8.413
472.66	7.997
472.86	6.870
473.06	7.797
473.26	6.450
473.46	6.934
473.66	6.339
473.86	7.988
474.06	6.476
474.26	7.604
474.46	5.392
474.66	7.995
474.86	7.504
475.06	7.443
475.26	4.657
475.46	8.565
475.66	6.255
475.86	7.061
476.06	8.134
476.26	8.346
476.46	6.882
476.66	8.123
476.86	5.661
477.06	7.691
477.26	6.446
477.46	7.499
477.65	6.707
477.85	8.221
478.05	5.293
478.25	8.594
478.45	6.723
478.65	7.781
478.85	6.697
479.05	8.134
479.25	7.959
479.45	8.691
479.65	6.307
479.85	7.775
480.05	7.849
480.25	9.451
480.45	8.240
480.65	8.754
480.85	7.549
481.05	9.419
481.25	8.358
481.44	8.864
481.64	6.648
481.84	9.495
482.04	8.422
482.24	9.930
482.44	7.507
482.64	8.881
482.84	8.551
483.04	9.231
483.24	9.260
483.44	9.449
483.64	9.289
483.84	9.450
484.04	9.667
484.23	9.716
484.43	10.016
484.63	10.567
484.83	10.979
485.03	11.611
485.23	11.365
485.43	11.088
485.63	11.070
485.83	10.402
486.03	9.624
486.23	10.143
486.42	10.103
486.62	9.926
486.82	9.288
487.02	10.137
487.22	9.479
487.42	9.854
487.62	9.628
487.82	9.798
488.02	9.449
488.22	9.802
488.41	9.621
488.61	9.836
488.81	9.894
489.01	9.994
489.21	9.641
489.41	9.919
489.61	10.004
489.81	10.081
490.01	9.763
490.20	10.154
490.40	9.774
490.60	9.860
490.80	9.627
491.00	9.568
491.20	9.377
491.40	9.714
491.60	9.171
491.79	9.345
491.99	9.555
492.19	9.610
492.39	9.793
492.59	9.621
492.79	9.775
492.99	9.567
493.19	9.690
493.38	9.770
493.58	9.880
493.78	10.136
493.98	9.976
494.18	10.019
494.38	9.069
494.58	9.591
494.77	7.941
494.97	9.632
495.17	7.792
495.37	8.811
495.57	8.652
495.77	9.048
495.96	8.449
496.16	7.735
496.36	8.401
496.56	9.010
496.76	7.669
496.96	8.540
497.15	8.378
497.35	9.096
497.55	9.087
497.75	9.072
497.95	8.012
498.15	9.708
498.34	8.856
498.54	9.149
498.74	9.194
498.94	9.303
499.14	7.947
499.34	9.623
499.53	8.462
499.73	9.612
499.93	7.847
500.13	8.889
500.33	7.755
500.52	8.929
500.72	8.056
500.92	8.164
501.12	7.611
501.32	8.623
501.52	8.140
501.71	8.323
501.91	6.870
502.11	8.389
502.31	7.306
502.51	8.221
502.70	6.853
502.90	8.140
503.10	7.166
503.30	8.786
503.50	7.530
503.69	7.718
503.89	7.535
504.09	8.369
504.29	7.677
504.48	9.036
504.68	8.059
504.88	9.061
505.08	6.726
505.28	8.368
505.47	7.411
505.67	9.414
505.87	7.279
506.07	8.283
506.27	7.607
506.46	8.353
506.66	7.441
506.86	7.638
507.06	8.174
507.25	7.665
507.45	8.283
507.65	9.104
507.85	7.142
508.04	8.996
508.24	8.400
508.44	9.282
508.64	7.884
508.83	8.800
509.03	7.878
509.23	9.137
509.43	7.658
509.63	8.767
509.82	8.019
510.02	8.849
510.22	8.530
510.42	9.913
510.61	8.837
510.81	9.425
511.01	8.930
511.21	9.216
511.40	8.147
511.60	9.545
511.80	8.365
511.99	9.231
512.19	7.990
512.39	9.881
512.59	8.617
512.78	9.750
512.98	8.572
513.18	9.336
513.38	8.263
513.57	9.578
513.77	8.410
513.97	9.655
514.17	7.766
514.36	9.238
514.56	8.476
514.76	9.186
514.95	7.341
515.15	8.828
515.35	7.084
515.55	8.782
515.74	8.722
515.94	9.649
516.14	7.869
516.33	9.003
516.53	8.048
516.73	8.341
516.93	7.685
517.12	9.292
517.32	7.068
517.52	9.129
517.71	8.243
517.91	9.306
518.11	8.797
518.30	8.804
518.50	8.309
518.70	9.312
518.90	9.673
519.09	9.926
519.29	9.369
519.49	10.031
519.68	8.855
519.88	9.996
520.08	9.313
520.27	9.983
520.47	9.515
520.67	9.734
520.86	9.860
521.06	10.384
521.26	8.455
521.45	9.277
521.65	8.553
521.85	9.689
522.04	8.175
522.24	9.587
522.44	8.323
522.63	9.673
522.83	7.885
523.03	9.154
523.22	8.383
523.42	10.204
523.62	9.113
523.81	9.795
524.01	8.860
524.21	8.960
524.40	8.337
524.60	9.064
524.80	8.450
524.99	9.641
525.19	8.974
525.39	9.424
525.58	8.866
525.78	9.419
525.98	9.389
526.17	9.667
526.37	9.616
526.57	9.967
526.76	10.076
526.96	10.120
527.15	9.584
527.35	9.986
527.55	9.133
527.74	10.069
527.94	10.193
528.14	9.687
528.33	9.310
528.53	9.873
528.72	9.891
528.92	9.938
529.12	10.090
529.31	10.283
529.51	10.011
529.71	9.788
529.90	10.302
530.10	10.394
530.29	10.235
530.49	10.263
530.69	10.189
530.88	10.359
531.08	9.947
531.28	10.423
531.47	10.075
531.67	10.198
531.86	9.827
532.06	10.084
532.26	9.538
532.45	10.069
532.65	9.766
532.84	10.162
533.04	9.848
533.24	9.818
533.43	9.832
533.63	9.853
533.82	10.061
534.02	10.000
534.22	9.991
534.41	10.173
534.61	10.005
534.80	10.192
535.00	10.191
535.19	10.039
535.39	10.263
535.59	10.156
535.78	10.354
535.98	10.270
536.17	9.682
536.37	9.594
536.57	9.549
536.76	10.321
536.96	9.018
537.15	10.064
537.35	9.948
537.54	10.039
537.74	9.490
537.93	10.295
538.13	9.857
538.33	10.310
538.52	9.699
538.72	10.211
538.91	9.969
539.11	9.907
539.30	8.791
539.50	10.006
539.70	9.293
539.89	9.837
540.09	9.564
540.28	9.571
540.48	8.536
540.67	9.847
540.87	9.317
541.06	10.069
541.26	9.607
541.45	10.004
541.65	10.277
541.85	10.146
542.04	9.914
542.24	10.328
542.43	10.544
542.63	10.147
542.82	10.180
543.02	10.526
543.21	10.437
543.41	10.444
543.60	10.293
543.80	10.598
543.99	10.561
544.19	10.374
544.38	10.345
544.58	10.429
544.77	9.721
544.97	10.571
545.16	9.381
545.36	10.799
545.56	9.777
545.75	10.312
545.95	9.368
546.14	10.733
546.34	9.338
546.53	10.096
546.73	10.331
546.92	10.472
547.12	9.511
547.31	10.214
547.51	9.492
547.70	10.607
547.90	10.269
548.09	10.098
548.29	9.690
548.48	10.151
548.68	9.917
548.87	10.280
549.07	9.683
549.26	9.137
549.46	9.303
549.65	10.358
549.84	8.882
550.04	8.657
550.23	7.797
550.43	8.950
550.62	8.518
550.82	9.264
551.01	7.719
551.21	9.516
551.40	7.819
551.60	8.830
551.79	8.253
551.99	8.754
552.18	7.777
552.38	9.863
552.57	8.447
552.77	9.494
552.96	9.388
553.16	10.430
553.35	9.173
553.54	10.273
553.74	9.868
553.93	9.812
554.13	9.000
554.32	10.753
554.52	8.885
554.71	9.727
554.91	8.721
555.10	9.784
555.29	7.819
555.49	9.765
555.68	7.546
555.88	9.538
556.07	7.669
556.27	10.253
556.46	9.274
556.66	9.028
556.85	8.939
557.04	10.011
557.24	8.193
557.43	11.046
557.63	9.281
557.82	8.712
558.02	8.145
558.21	10.222
558.40	7.298
558.60	9.708
558.79	8.256
558.99	9.599
559.18	7.598
559.38	8.584
559.57	8.827
559.76	9.493
559.96	9.035
560.15	9.297
560.35	7.006
560.54	9.158
560.73	7.394
560.93	9.791
561.12	9.096
561.32	9.271
561.51	9.632
561.70	9.692
561.90	8.454
562.09	10.127
562.29	9.273
562.48	10.982
562.67	9.764
562.87	10.753
563.06	8.967
563.26	9.562
563.45	8.917
563.64	10.454
563.84	9.906
564.03	10.381
564.23	9.025
564.42	11.594
564.61	10.352
564.81	11.516
565.00	10.212
565.20	11.261
565.39	11.707
565.58	11.374
565.78	9.754
565.97	11.364
566.16	11.314
566.36	11.993
566.55	11.023
566.74	10.805
566.94	10.913
567.13	12.497
567.33	10.645
567.52	11.158
567.71	11.524
567.91	12.423
568.10	11.777
568.29	12.511
568.49	11.276
568.68	12.022
568.87	10.806
569.07	12.916
569.26	11.269
569.45	12.452
569.65	10.739
569.84	12.180
570.04	10.964
570.23	11.625
570.42	9.167
570.62	11.680
570.81	10.911
571.00	12.074
571.20	11.505
571.39	12.417
571.58	12.160
571.78	12.623
571.97	12.842
572.16	12.729
572.36	12.346
572.55	12.959
572.74	12.548
572.94	12.606
573.13	12.667
573.32	12.790
573.51	11.512
573.71	13.400
573.90	10.797
574.09	12.377
574.29	12.471
574.48	13.192
574.67	11.599
574.87	13.350
575.06	10.785
575.25	13.327
575.45	12.147
575.64	13.338
575.83	11.691
576.03	12.417
576.22	12.516
576.41	12.722
576.60	11.506
576.80	12.052
576.99	12.135
577.18	13.393
577.38	10.752
577.57	12.855
577.76	11.718
577.95	12.581
578.15	10.328
578.34	12.655
578.53	10.911
578.73	12.925
578.92	9.435
579.11	10.815
579.30	10.762
579.50	10.923
579.69	12.271
579.88	11.709
580.08	9.061
580.27	11.801
580.46	10.031
580.65	11.645
580.85	10.265
581.04	11.607
581.23	10.088
581.42	10.787
581.62	9.787
581.81	11.188
582.00	9.578
582.19	11.418
582.39	10.868
582.58	9.820
582.77	10.807
582.96	9.000
583.16	8.779
583.35	12.185
583.54	9.988
583.73	11.582
583.93	9.231
584.12	10.369
584.31	8.020
584.50	11.198
584.70	8.954
584.89	11.066
585.08	10.345
585.27	11.195
585.47	9.370
585.66	11.108
585.85	7.598
586.04	9.490
586.24	10.029
586.43	8.591
586.62	8.538
586.81	11.954
587.00	8.536
587.20	10.914
587.39	7.788
587.58	10.779
587.77	9.155
587.97	8.412
588.16	9.763
588.35	11.789
588.54	8.574
588.73	9.630
588.93	9.643
589.12	10.680
589.31	9.188
589.50	10.724
589.69	9.721
589.89	10.119
590.08	9.117
590.27	9.960
590.46	9.963
590.65	9.945
590.85	9.288
591.04	11.496
591.23	10.127
591.42	10.799
591.61	8.937
591.81	10.751
592.00	9.525
592.19	11.766
592.38	9.215
592.57	11.430
592.77	9.306
592.96	9.418
593.15	10.651
593.34	10.371
593.53	8.908
593.72	10.207
593.92	9.413
594.11	11.622
594.30	8.341
594.49	10.324
594.68	9.908
594.87	10.660
595.07	8.426
595.26	11.773
595.45	8.548
595.64	11.104
595.83	8.614
596.02	10.603
596.22	10.069
596.41	10.795
596.60	10.657
596.79	11.657
596.98	10.661
597.17	12.134
597.37	10.127
597.56	11.705
597.75	10.218
597.94	12.941
598.13	12.098
598.32	12.033
598.51	10.228
598.71	12.223
598.90	11.264
599.09	11.334
599.28	9.522
599.47	10.454
599.66	9.487
599.85	10.716
600.05	8.322
600.24	11.461
600.43	9.654
600.62	10.250
600.81	11.117
601.00	10.645
601.19	8.252
601.38	10.672
601.58	9.921
601.77	9.044
601.96	9.016
602.15	9.856
602.34	10.561
602.53	12.268
602.72	8.937
602.91	10.674
603.10	9.427
603.30	11.285
603.49	9.596
603.68	11.341
603.87	9.041
604.06	10.759
604.25	11.790
604.44	12.218
604.63	10.938
604.82	13.229
605.01	11.811
605.21	12.921
605.40	10.822
605.59	13.311
605.78	12.195
605.97	12.533
606.16	11.244
606.35	12.924
606.54	10.745
606.73	13.153
606.92	9.003
607.11	11.868
607.30	8.926
607.50	11.525
607.69	10.028
607.88	10.647
608.07	9.520
608.26	9.892
608.45	10.720
608.64	12.423
608.83	8.698
609.02	11.323
609.21	9.951
609.40	13.163
609.59	9.498
609.78	10.938
609.97	9.771
610.16	11.936
610.35	11.302
610.55	11.444
610.74	11.075
610.93	10.939
611.12	10.858
611.31	11.654
611.50	9.282
611.69	10.083
611.88	9.827
612.07	11.706
612.26	7.902
612.45	9.734
612.64	8.931
612.83	9.838
613.02	7.651
613.21	8.259
613.40	8.188
613.59	9.908
613.78	7.252
613.97	8.752
614.16	9.429
614.35	10.629
614.54	6.448
614.73	9.046
614.92	8.838
615.11	7.956
615.30	7.478
615.49	5.800
615.68	6.722
615.87	7.847
616.07	6.528
616.26	6.427
616.45	7.918
616.64	8.364
616.83	8.780
617.02	9.461
617.21	6.394
617.40	7.063
617.59	7.532
617.78	9.322
617.97	7.463
618.16	6.101
618.35	5.597
618.54	6.652
618.73	7.891
618.92	6.883
619.11	6.653
619.30	7.143
619.49	5.588
619.68	8.447
619.86	6.993
620.05	6.876
620.24	5.797
620.43	6.395
620.62	4.396
620.81	6.352
621.00	6.777
621.19	8.424
621.38	7.120
621.57	8.065
621.76	7.494
621.95	7.308
622.14	6.281
622.33	9.270
622.52	4.460
622.71	7.653
622.90	5.363
623.09	7.705
623.28	6.281
623.47	7.591
623.66	7.149
623.85	5.511
624.04	6.453
624.23	6.005
624.42	5.539
624.61	6.839
624.80	4.628
624.99	7.430
625.18	4.594
625.36	7.406
625.55	6.760
625.74	6.704
625.93	5.949
626.12	8.354
626.31	8.682
626.50	8.206
626.69	7.116
626.88	9.040
627.07	7.930
627.26	7.761
627.45	7.662
627.64	7.724
627.83	7.859
628.02	7.673
628.20	6.669
628.39	8.426
628.58	7.384
628.77	7.751
628.96	6.457
629.15	6.806
629.34	7.624
629.53	6.690
629.72	5.603
629.91	10.087
630.10	6.831
630.29	7.383
630.47	5.572
630.66	6.706
630.85	7.770
631.04	8.626
631.23	7.752
631.42	7.712
631.61	6.691
631.80	10.309
631.99	6.781
632.18	7.191
632.36	6.417
632.55	8.528
632.74	6.689
632.93	5.917
633.12	5.041
633.31	6.720
633.50	6.715
633.69	7.261
633.88	4.504
634.06	6.913
634.25	7.080
634.44	6.417
634.63	7.206
634.82	10.037
635.01	5.476
635.20	7.572
635.39	5.399
635.57	7.402
635.76	6.825
635.95	7.155
636.14	5.121
636.33	8.449
636.52	6.255
636.71	5.525
636.89	6.369
637.08	6.068
637.27	5.732
637.46	6.002
637.65	6.044
637.84	6.506
638.03	4.200
638.21	7.369
638.40	6.873
638.59	5.729
638.78	5.500
638.97	5.885
639.16	6.393
639.34	6.501
639.53	5.173
639.72	6.382
639.91	5.185
640.10	4.291
640.29	6.206
640.47	7.579
640.66	5.632
640.85	7.936
641.04	4.721
641.23	5.083
641.42	5.834
641.60	5.420
641.79	6.020
641.98	5.212
642.17	5.428
642.36	5.769
642.54	4.278
642.73	5.161
642.92	4.238
643.11	4.688
643.30	4.121
643.49	4.933
643.67	3.881
643.86	5.077
644.05	4.667
644.24	6.715
644.43	5.016
644.61	5.502
644.80	4.816
644.99	5.823
645.18	6.942
645.37	5.590
645.55	4.004
645.74	6.114
645.93	6.322
646.12	6.059
646.31	5.918
646.49	5.553
646.68	7.000
646.87	4.744
647.06	4.282
647.24	5.052
647.43	4.051
647.62	6.776
647.81	4.417
648.00	6.158
648.18	4.192
648.37	4.856
648.56	6.268
648.75	5.679
648.93	3.938
649.12	6.555
649.31	5.091
649.50	4.582
649.68	4.415
649.87	6.494
650.06	4.171
650.25	5.554
650.43	4.089
650.62	6.067
650.81	5.620
651.00	4.819
651.18	4.173
651.37	7.228
651.56	3.946
651.75	7.003
651.93	4.697
652.12	7.675
652.31	4.068
652.50	5.159
652.68	6.225
652.87	6.362
653.06	6.405
653.25	5.779
653.43	6.428
653.62	5.226
653.81	4.981
654.00	5.869
654.18	4.399
654.37	6.979
654.56	4.978
654.74	2.822
654.93	4.417
655.12	4.290
655.31	3.886
655.49	4.897
655.68	3.786
655.87	4.009
656.05	2.398
656.24	5.133
656.43	3.934
656.62	5.868
656.80	5.626
656.99	3.736
657.18	3.016
657.36	4.039
657.55	4.622
657.74	5.162
657.93	4.594
658.11	6.985
658.30	4.571
658.49	3.272
658.67	4.928
658.86	3.322
659.05	3.804
659.23	5.469
659.42	4.040
659.61	5.334
659.79	5.037
659.98	3.919
660.17	5.920
660.35	6.105
660.54	5.487
660.73	6.911
660.91	6.281
661.10	5.877
661.29	4.117
661.47	4.327
661.66	4.443
661.85	5.586
662.03	5.270
662.22	2.803
662.41	4.365
662.59	3.829
662.78	4.019
662.97	3.503
663.15	2.927
663.34	2.406
663.53	2.792
663.71	4.042
663.90	3.892
664.09	4.570
664.27	3.838
664.46	3.606
664.65	3.744
664.83	2.465
665.02	3.540
665.21	2.392
665.39	2.194
665.58	4.400
665.77	3.744
665.95	4.124
666.14	3.739
666.32	4.473
666.51	2.952
666.70	2.925
666.88	4.289
667.07	2.979
667.26	2.065
667.44	3.353
667.63	4.211
667.81	2.296
668.00	3.496
668.19	3.404
668.37	2.655
668.56	4.031
668.75	2.344
668.93	5.649
669.12	2.942
669.30	3.433
669.49	2.371
669.68	4.593
669.86	3.783
670.05	1.790
670.23	3.094
670.42	2.538
670.61	3.333
670.79	5.424
670.98	4.235
671.16	6.307
671.35	4.382
671.54	3.989
671.72	3.035
671.91	3.939
672.09	3.110
672.28	6.759
672.46	3.965
672.65	5.071
672.84	2.675
673.02	3.901
673.21	2.789
673.39	3.208
673.58	2.764
673.77	3.910
673.95	4.014
674.14	3.254
674.32	2.733
674.51	5.886
674.69	3.870
674.88	4.872
675.07	1.591
675.25	5.615
675.44	5.141
675.62	3.359
675.81	4.213
675.99	5.431
676.18	3.588
676.36	2.638
676.55	4.155
676.74	4.881
676.92	3.584
677.11	3.412
677.29	2.982
677.48	5.373
677.66	4.710
677.85	4.031
678.03	4.121
678.22	4.788
678.40	4.512
678.59	2.725
678.78	3.287
678.96	2.609
679.15	4.401
679.33	4.048
679.52	5.209
679.70	5.218
679.89	4.815
680.07	4.676
680.26	3.937
680.44	4.252
680.63	3.311
680.81	4.306
681.00	2.843
681.18	2.655
681.37	4.233
681.55	5.184
681.74	4.781
681.92	4.332
682.11	5.326
682.29	4.155
682.48	5.411
682.66	5.010
682.85	3.770
683.03	5.483
683.22	5.400
683.40	4.973
683.59	4.857
683.77	4.809
683.96	3.441
684.14	5.822
684.33	2.321
684.51	6.903
684.70	5.598
684.88	6.849
685.07	4.833
685.25	5.904
685.44	4.314
685.62	5.154
685.81	3.310
685.99	4.455
686.18	3.950
686.36	4.529
686.55	3.733
686.73	4.085
686.92	6.185
687.10	7.020
687.29	6.081
687.47	5.581
687.65	5.692
687.84	4.887
688.02	6.932
688.21	7.229
688.39	4.366
688.58	6.041
688.76	5.687
688.95	4.477
689.13	4.956
689.32	6.915
689.50	6.164
689.68	6.646
689.87	5.886
690.05	5.748
690.24	5.790
690.42	6.513
690.61	5.352
690.79	7.588
690.98	6.299
691.16	5.554
691.34	4.820
691.53	6.509
691.71	5.208
691.90	6.370
692.08	2.749
692.27	6.771
692.45	7.376
692.63	4.185
692.82	6.798
693.00	4.236
693.19	6.025
693.37	7.686
693.56	7.181
693.74	5.227
693.92	6.861
694.11	7.909
694.29	6.576
694.48	4.967
694.66	6.022
694.84	8.013
695.03	6.767
695.21	9.193
695.40	8.258
695.58	7.918
695.76	6.484
695.95	8.780
696.13	6.014
696.32	6.174
696.50	14.977
696.68	6.528
696.87	5.578
697.05	8.754
697.24	7.811
697.42	8.420
697.60	5.858
697.79	7.709
697.97	8.707
698.16	10.685
698.34	4.582
698.52	10.114
698.71	7.809
698.89	9.205
699.07	8.574
699.26	9.334
699.44	9.848
699.63	10.885
699.81	7.182
699.99	13.072
700.18	11.313
700.36	10.725
700.54	10.803
700.73	7.744
700.91	8.827
701.09	10.156
701.28	11.293
701.46	8.782
701.64	7.419
701.83	10.852
702.01	6.367
702.20	13.911
702.38	9.358
702.56	8.988
702.75	7.560
702.93	7.594
703.11	9.502
703.30	8.684
703.48	8.096
703.66	7.804
703.85	5.909
704.03	9.757
704.21	5.610
704.40	10.970
704.58	7.092
704.76	8.183
704.95	6.495
705.13	6.114
705.31	7.393
705.50	8.725
705.68	5.662
705.86	10.941
706.04	4.918
706.23	7.235
706.41	7.143
706.59	7.856
706.78	7.561
706.96	10.609
707.14	9.377
707.33	9.932
707.51	8.846
707.69	5.433
707.88	6.757
708.06	10.229
708.24	8.031
708.42	10.270
708.61	10.285
708.79	10.692
708.97	8.714
709.16	10.090
709.34	6.746
709.52	7.295
709.71	8.943
709.89	10.187
710.07	7.440
710.25	9.198
710.44	8.473
710.62	9.307
710.80	9.146
710.98	8.207
711.17	6.675
711.35	11.850
711.53	6.966
711.72	10.750
711.90	12.203
712.08	9.156
712.26	7.930
712.45	10.678
712.63	9.594
712.81	9.416
712.99	8.894
713.18	9.139
713.36	8.471
713.54	7.482
713.72	8.926
713.91	8.341
714.09	8.836
714.27	8.841
714.45	10.032
714.64	13.101
714.82	7.614
715.00	10.005
715.18	6.707
715.37	14.390
715.55	9.924
715.73	9.571
715.91	9.974
716.10	11.519
716.28	6.778
716.46	11.342
716.64	9.679
716.83	10.319
717.01	10.262
717.19	9.868
717.37	11.311
717.55	11.914
717.74	8.777
717.92	10.806
718.10	10.400
718.28	9.151
718.47	9.620
718.65	12.814
718.83	10.272
719.01	12.351
719.19	8.150
719.38	7.357
719.56	7.987
719.74	6.507
719.92	8.458
720.10	7.234
720.29	7.788
720.47	10.109
720.65	7.003
720.83	11.789
721.01	5.307
721.20	4.486
721.38	6.797
721.56	5.666
721.74	7.610
721.92	9.452
722.11	5.300
722.29	8.672
722.47	8.088
722.65	5.318
722.83	11.125
723.01	6.037
723.20	9.396
723.38	9.766
723.56	7.468
723.74	11.090
723.92	8.927
724.10	11.787
724.29	5.886
724.47	10.049
724.65	6.593
724.83	8.723
725.01	6.618
725.19	11.257
725.38	7.975
725.56	10.992
725.74	9.282
725.92	14.241
726.10	8.262
726.28	5.803
726.46	7.801
726.65	8.015
726.83	7.954
727.01	6.036
727.19	11.249
727.37	9.586
727.55	10.927
727.73	6.888
727.92	6.442
728.10	7.798
728.28	6.526
728.46	12.629
728.64	6.981
728.82	10.353
729.00	10.560
729.19	9.348
729.37	8.822
729.55	10.597
729.73	6.429
729.91	9.795
730.09	9.883
730.27	10.559
730.45	7.326
730.63	10.585
730.82	8.686
731.00	7.477
731.18	9.076
731.36	8.547
731.54	4.551
731.72	7.553
731.90	9.111
732.08	8.352
732.26	6.997
732.45	8.082
732.63	10.650
732.81	9.086
732.99	3.626
733.17	9.645
733.35	8.009
733.53	9.141
733.71	6.985
733.89	6.912
734.07	10.846
734.25	10.730
734.44	7.475
734.62	8.304
734.80	6.478
734.98	15.403
735.16	11.733
735.34	10.330
735.52	8.312
735.70	8.803
735.88	9.884
736.06	9.560
736.24	9.584
736.42	9.487
736.60	9.136
736.78	4.307
736.97	7.614
737.15	11.692
737.33	4.341
737.51	7.523
737.69	7.138
737.87	7.944
738.05	8.954
738.23	10.858
738.41	8.737
738.59	10.052
738.77	6.371
738.95	15.277
739.13	10.573
739.31	8.735
739.49	6.835
739.67	13.023
739.85	7.650
740.03	12.596
740.21	9.761
740.39	11.231
740.57	11.980
740.75	6.378
740.93	9.353
741.11	7.551
741.30	9.259
741.48	11.472
741.66	11.293
741.84	8.082
742.02	7.079
742.20	13.116
742.38	9.141
742.56	12.375
742.74	6.550
742.92	8.776
743.10	6.865
743.28	10.974
743.46	10.380
743.64	7.674
743.82	8.655
744.00	9.435
744.18	13.391
744.36	6.400
744.54	6.441
744.72	14.357
744.90	11.424
745.08	11.214
745.26	7.897
745.44	6.865
745.62	10.209
745.80	9.635
745.98	10.896
746.16	13.386
746.34	9.661
746.52	0.276
746.70	9.083
746.87	12.590
747.05	8.528
747.23	11.240
747.41	8.734
747.59	12.137
747.77	5.497
747.95	8.672
748.13	7.143
748.31	10.201
748.49	2.685
748.67	7.335
748.85	6.474
749.03	13.571
749.21	7.429
749.39	10.077
749.57	2.309
749.75	5.455
749.93	5.585
750.11	7.941
750.29	9.232
750.47	11.889
750.65	10.614
750.83	8.795
751.01	8.917
751.18	9.315
751.36	9.068
751.54	13.333
751.72	11.362
751.90	3.587
752.08	9.099
752.26	7.658
752.44	7.895
752.62	6.711
752.80	6.336
752.98	12.340
753.16	9.320
753.34	12.724
753.52	13.832
753.69	9.797
753.87	9.083
754.05	8.964
754.23	9.560
754.41	7.203
754.59	6.187
754.77	10.605
754.95	10.086
755.13	8.757
755.31	7.797
755.49	7.610
755.66	7.636
755.84	6.932
756.02	4.649
756.20	7.699
756.38	8.393
756.56	8.730
756.74	8.679
756.92	14.693
757.10	7.084
757.28	10.335
757.45	9.302
757.63	6.872
757.81	4.521
757.99	14.453
758.17	7.000
758.35	10.946
758.53	14.618
758.71	10.468
758.88	8.739
759.06	6.480
759.24	7.585
759.42	8.722
759.60	7.180
759.78	8.514
759.96	3.142
760.13	9.333
760.31	8.176
760.49	10.605
760.67	8.539
760.85	8.916
761.03	4.304
761.21	3.401
761.38	6.855
761.56	4.795
761.74	8.132
761.92	7.811
762.10	6.965
762.28	8.155
762.46	1.847
762.63	8.453
762.81	7.987
762.99	5.179
763.17	8.377
763.35	5.099
763.53	6.164
763.70	11.670
763.88	8.797
764.06	6.085
764.24	6.964
764.42	10.074
764.60	6.477
764.77	5.239
764.95	7.218
765.13	10.069
765.31	8.888
765.49	8.140
765.66	5.257
765.84	7.915
766.02	7.990
766.20	7.119
766.38	6.337
766.56	6.374
766.73	7.558
766.91	8.003
767.09	9.953
767.27	9.125
767.45	8.894
767.62	7.911
767.80	5.858
767.98	5.513
768.16	4.874
768.33	9.213
768.51	3.656
768.69	5.322
768.87	2.685
769.05	6.461
769.22	6.647
769.40	12.202
769.58	6.667
769.76	15.031
769.94	14.119
770.11	10.451
770.29	10.134
770.47	6.867
770.65	12.629
770.82	9.341
771.00	14.624
771.18	7.960
771.36	10.068
771.53	11.778
771.71	14.465
771.89	8.753
772.07	8.410
772.25	16.114
772.42	4.808
772.60	9.756
772.78	11.162
772.96	7.255
773.13	6.363
773.31	13.094
773.49	11.634
773.67	9.838
773.84	15.990
774.02	6.944
774.20	9.314
774.37	13.471
774.55	10.393
774.73	13.826
774.91	13.690
775.08	10.219
775.26	12.075
775.44	9.834
775.62	8.586
775.79	11.845
775.97	10.417
776.15	12.985
776.32	7.723
776.50	9.599
776.68	13.056
776.86	13.307
777.03	15.282
777.21	12.780
777.39	6.806
777.56	0.282
777.74	8.947
777.92	10.066
778.10	8.892
778.27	7.367
778.45	10.377
778.63	4.471
778.80	2.929
778.98	12.848
779.16	13.682
779.34	10.204
779.51	11.803
779.69	12.109
779.87	11.951
780.04	10.321
780.22	8.989
780.40	5.570
780.57	12.286
780.75	11.025
780.93	16.012
781.10	9.637
781.28	14.350
781.46	10.192
781.63	15.616
781.81	14.491
781.99	4.505
782.16	5.651
782.34	8.124
782.52	8.671
782.69	6.519
782.87	6.516
783.05	11.095
783.22	2.874
783.40	10.740
783.58	7.829
783.75	6.333
783.93	12.668
784.11	4.859
784.28	9.187
784.46	16.106
784.64	1.774
784.81	8.750
784.99	11.215
785.17	8.554
785.34	5.046
785.52	5.431
785.69	14.499
785.87	7.452
786.05	19.048
786.22	14.135
786.40	13.043
786.58	19.165
786.75	10.085
786.93	10.928
787.11	4.272
787.28	17.467
787.46	15.111
787.63	17.241
787.81	9.037
787.99	11.929
788.16	9.413
788.34	8.088
788.51	12.867
788.69	17.564
788.87	13.126
789.04	9.505
789.22	9.973
789.39	10.977
789.57	8.629
789.75	5.979
789.92	11.451
790.10	3.488
790.27	15.206
790.45	5.618
790.63	8.931
790.80	11.063
790.98	5.441
791.15	15.092
791.33	6.763
791.51	12.460
791.68	14.201
791.86	14.634
792.03	13.826
792.21	8.285
792.39	8.082
792.56	10.016
792.74	14.032
792.91	13.706
793.09	11.058
793.26	13.301
793.44	18.985
793.62	16.415
793.79	14.157
793.97	16.176
794.14	9.123
794.32	11.853
794.49	5.492
794.67	7.057
794.84	11.149
795.02	9.732
795.20	16.585
795.37	9.123
795.55	8.839
795.72	6.086
795.90	11.388
796.07	12.602
796.25	16.283
796.42	14.776
796.60	9.105
796.77	12.083
796.95	10.085
797.13	5.902
797.30	11.635
797.48	7.924
797.65	14.286
797.83	10.192
798.00	9.861
798.18	11.690
798.35	2.628
798.53	4.924
798.70	7.538
798.88	16.174
799.05	12.007
799.23	12.158
799.40	6.159
799.58	10.501
799.75	12.020
799.93	13.597
800.10	11.522
800.28	3.518
800.45	9.244
800.63	15.534
800.80	17.431
800.98	13.445
801.15	14.215
801.33	8.276
801.50	10.797
801.68	15.744
801.85	4.514
802.03	11.957
802.20	13.704
802.38	16.522
802.55	9.609
802.73	14.032
802.90	7.067
803.08	17.902
803.25	14.822
803.43	15.327
803.60	14.625
803.78	16.415
803.95	17.384
804.13	19.080
804.30	17.045
804.48	12.264
804.65	12.598
804.83	5.653
805.00	13.787
805.17	12.090
805.35	18.846
805.52	15.771
805.70	5.851
805.87	16.021
806.05	10.435
806.22	9.125
806.40	8.656
806.57	3.525
806.75	15.672
806.92	12.132
807.09	4.181
807.27	12.405
807.44	15.993
807.62	9.560
807.79	15.183
807.97	8.885
808.14	12.348
808.31	8.015
808.49	12.103
808.66	7.513
808.84	4.440
809.01	15.385
809.19	10.672
809.36	10.515
809.53	10.557
809.71	11.089
809.88	22.449
810.06	13.729
810.23	11.411
810.41	12.826
810.58	10.365
810.75	12.840
810.93	14.574
811.10	17.391
811.28	15.810
811.45	16.461
811.62	4.157
811.80	8.559
811.97	6.278
812.15	28.166
812.32	16.026
812.49	23.222
812.67	12.220
812.84	10.714
813.02	6.585
813.19	13.422
813.36	20.982
813.54	13.363
813.71	18.182
813.89	16.016
814.06	17.927
814.23	18.985
814.41	9.111
814.58	20.675
814.75	22.947
814.93	17.857
815.10	15.877
815.28	16.587
815.45	10.427
815.62	21.041
815.80	5.804
815.97	5.985
816.14	13.876
816.32	20.347
816.49	11.085
816.66	7.617
816.84	21.713
817.01	19.420
817.18	13.466
817.36	16.667
817.53	15.206
817.71	11.916
817.88	12.185
818.05	14.823
818.23	12.583
818.40	15.496
818.57	11.700
818.75	19.833
818.92	18.619
819.09	9.308
819.27	6.280
819.44	8.207
819.61	8.745
819.79	10.075
819.96	18.182
820.13	16.479
820.31	12.384
820.48	14.536
820.65	1.171
820.82	14.462
821.00	7.267
821.17	4.432
821.34	9.603
821.52	5.542
821.69	5.101
821.86	8.648
822.04	4.322
822.21	6.083
822.38	3.892
822.56	6.428
822.73	7.993
822.90	8.254
823.07	11.697
823.25	9.178
823.42	6.987
823.59	7.613
823.77	10.311
823.94	9.870
824.11	8.885
824.29	6.685
824.46	10.277
824.63	9.269
824.80	7.692
824.98	7.097
825.15	5.392
825.32	6.909
825.49	8.238
825.67	6.650
825.84	12.376
826.01	7.062
826.19	7.153
826.36	4.629
826.53	7.965
826.70	5.872
826.88	8.088
827.05	10.025
827.22	8.610
827.39	7.143
827.57	5.128
827.74	8.302
827.91	7.626
828.08	3.567
828.26	3.028
828.43	5.845
828.60	8.853
828.77	6.648
828.95	11.395
829.12	7.185
829.29	3.288
829.46	8.190
829.64	5.158
829.81	8.586
829.98	13.411
830.15	11.656
830.32	8.354
830.50	8.632
830.67	13.166
830.84	9.149
831.01	9.158
831.19	14.808
831.36	15.858
831.53	7.380
831.70	3.364
831.87	10.039
832.05	15.208
832.22	8.559
832.39	8.019
832.56	13.393
832.74	3.965
832.91	10.891
833.08	20.833
833.25	5.192
833.42	2.936
833.60	11.438
833.77	0.000
833.94	6.421
834.11	5.827
834.28	7.152
834.45	7.226
834.63	6.682
834.80	3.487
834.97	5.813
835.14	6.633
835.31	6.329
835.49	9.228
835.66	8.705
835.83	6.886
836.00	9.231
836.17	11.299
836.34	7.253
836.52	8.333
836.69	13.803
836.86	16.572
837.03	13.527
837.20	10.248
837.37	10.751
837.55	9.056
837.72	18.664
837.89	11.359
838.06	14.751
838.23	4.218
838.40	17.448
838.58	19.792
838.75	13.636
838.92	18.209
839.09	26.627
839.26	20.667
839.43	19.315
839.60	10.000
839.78	14.324
839.95	27.062
840.12	14.497
840.29	13.056
840.46	20.263
840.63	18.135
840.80	12.532
840.98	15.122
841.15	22.335
841.32	3.958
841.49	16.962
841.66	20.604
841.83	16.584
842.00	27.251
842.17	9.346
842.34	16.188
842.52	22.601
842.69	8.219
842.86	9.868
843.03	12.759
843.20	8.163
843.37	26.205
843.54	18.577
843.71	21.672
843.88	17.625
844.06	12.931
844.23	22.458
844.40	21.285
844.57	34.191
844.74	32.759
844.91	21.795
845.08	20.096
845.25	10.849
845.42	36.638
845.59	23.077
845.76	25.410
845.94	30.256
846.11	1.000
846.28	36.058
846.45	31.707
846.62	31.313
846.79	34.091
846.96	15.152
847.13	18.717
847.30	5.729
847.47	10.843
847.64	31.088
847.81	24.390
847.98	40.642
848.15	6.410
848.32	34.615
848.50	30.469
848.67	37.500
848.84	34.637
849.01	22.222
849.18	23.729
849.35	57.419
849.52	35.673
849.69	24.138
849.86	28.571
850.03	48.295
850.20	58.228
850.37	19.767
850.54	-44.048
850.71	27.607
850.88	36.000
851.05	22.222
851.22	11.176
851.39	37.255
851.56	32.667
851.73	46.114
851.90	17.576
852.07	40.625
852.24	27.168
852.41	55.474
852.58	27.933
852.75	24.699
852.92	8.462
853.09	37.912
853.26	25.694
853.43	35.519
853.60	45.113
853.77	26.316
853.94	23.871
854.11	12.088
854.28	51.010
854.45	33.540
854.62	1.887
854.79	23.669
854.96	45.625
855.13	31.844
855.30	26.752
855.47	21.538
855.64	51.389
855.81	24.242
855.98	22.936
856.15	44.751
856.32	43.846
856.49	14.765
856.66	37.069
856.83	26.718
857.00	27.545
857.17	64.706
857.34	52.740
857.51	31.858
857.68	40.230
857.85	27.419
858.02	37.158
858.19	34.483
858.36	40.341
858.53	20.548
858.70	45.455
858.87	19.531
859.04	6.452
859.21	39.610
859.38	38.286
859.55	27.972
859.72	35.220
859.89	25.373
860.05	37.975
860.22	28.962
860.39	9.028
860.56	35.678
860.73	26.590
860.90	52.740
861.07	6.618
861.24	26.357
861.41	50.495
861.58	24.309
861.75	22.835
861.92	42.384
862.09	26.515
862.26	39.744
862.43	34.969
862.59	59.783
862.76	31.818
862.93	72.222
863.10	21.818
863.27	8.442
863.44	3.030
863.61	36.301
863.78	32.812
863.95	55.897
864.12	32.222
864.29	51.397
864.45	29.814
864.62	40.000
864.79	21.986
864.96	25.893
865.13	35.465
865.30	26.667
865.47	69.231
865.64	50.495
865.81	37.569
865.97	39.891
866.14	57.813
866.31	31.053
866.48	24.627
866.65	42.029
866.82	60.000
866.99	45.662
867.16	29.412
867.33	16.901
867.49	28.070
867.66	22.981
867.83	39.189
868.00	36.181
868.17	27.419
868.34	58.219
868.51	48.571
868.67	34.641
868.84	46.281
869.01	22.778
869.18	24.375
869.35	15.951
869.52	38.125
869.69	27.811
869.85	38.798
870.02	27.928
870.19	46.099
870.36	18.841
870.53	28.099
870.70	38.333
870.86	31.250
871.03	39.490
871.20	46.040
871.37	46.452
871.54	20.370
871.71	35.465
871.87	10.687
872.04	32.161
872.21	43.931
872.38	39.286
872.55	48.227
872.72	38.164
872.88	42.767
873.05	42.767
873.22	18.452
873.39	35.000
873.56	32.164
873.72	22.689
873.89	46.988
874.06	40.909
874.23	24.051
874.40	58.716
874.56	27.717
874.73	50.000
874.90	22.840
875.07	39.869
875.24	23.977
875.40	56.923
875.57	40.299
875.74	52.564
875.91	20.588
876.08	34.694
876.24	27.273
876.41	39.500
876.58	39.181
876.75	-10.078
876.92	34.783
877.08	43.860
877.25	58.000
877.42	48.993
877.59	36.145
877.75	50.267
877.92	13.223
878.09	49.600
878.26	59.231
878.42	31.169
878.59	25.281
878.76	28.977
878.93	32.184
879.09	49.718
879.26	34.266
879.43	46.269
879.60	38.614
879.76	28.351
879.93	39.216
880.10	12.626
880.27	21.702
880.43	4.245
880.60	52.652
880.77	-0.461
880.94	35.762
881.10	17.726
881.27	15.362
881.44	18.797
881.61	15.801
881.77	11.976
881.94	10.841
882.11	7.562
882.28	7.638
882.44	6.347
882.61	6.934
882.78	11.255
882.94	11.931
883.11	11.019
883.28	9.171
883.45	6.686
883.61	8.691
883.78	6.008
883.95	8.939
884.11	9.759
884.28	1.930
>>>>>End Processed Spectral Data<<<<<
