SpectraSuite Data File
++++++++++++++++++++++++++++++++++++
Date: Sun Sep 22 03:01:54 EST 2019
User: sgrac
Dark Spectrum Present: Yes
Reference Spectrum Present: Yes
Number of Sampled Component Spectra: 1
Spectrometers: USB4E01596
Integration Time (usec): 100000 (USB4E01596)
Spectra Averaged: 1 (USB4E01596)
Boxcar Smoothing: 0 (USB4E01596)
Correct for Electrical Dark: No (USB4E01596)
Strobe/Lamp Enabled: Yes (USB4E01596)
Correct for Detector Non-linearity: No (USB4E01596)
Correct for Stray Light: No (USB4E01596)
Number of Pixels in Processed Spectrum: 3648
>>>>>Begin Processed Spectral Data<<<<<
178.44	471.429
178.66	471.429
178.87	471.429
179.09	-16.667
179.30	-394.444
179.52	125.806
179.74	8000.000
179.95	900.000
180.17	7900.000
180.38	174.074
180.60	-593.750
180.82	2175.000
181.03	-133.333
181.25	321.739
181.46	-121.429
181.68	-295.000
181.89	335.294
182.11	600.000
182.33	942.857
182.54	213.793
182.76	281.818
182.97	-407.143
183.19	274.359
183.40	-328.571
183.62	77.778
183.84	134.286
184.05	8100.000
184.27	170.000
184.48	246.809
184.70	339.286
184.91	600.000
185.13	-5200.000
185.34	707.143
185.56	-471.429
185.78	280.000
185.99	279.412
186.21	171.739
186.42	1150.000
186.64	80.263
186.85	-287.500
187.07	325.000
187.28	-750.000
187.50	1185.714
187.72	872.727
187.93	-362.500
188.15	336.364
188.36	237.838
188.58	116.923
188.79	300.000
189.01	246.154
189.22	-890.000
189.44	145.205
189.65	2900.000
189.87	1240.000
190.09	0.000
190.30	808.333
190.52	-334.615
190.73	465.217
190.95	235.714
191.16	500.000
191.38	-538.462
191.59	5400.000
191.81	140.351
192.02	460.000
192.24	-3550.000
192.45	-560.000
192.67	152.083
192.88	166.667
193.10	4000.000
193.31	-485.714
193.53	820.000
193.74	120.513
193.96	128.571
194.18	94.737
194.39	-1183.333
194.61	566.667
194.82	156.364
195.04	800.000
195.25	570.000
195.47	-376.471
195.68	-210.714
195.90	165.625
196.11	423.077
196.33	255.556
196.54	330.303
196.76	816.667
196.97	-312.500
197.19	607.143
197.40	263.636
197.62	203.030
197.83	-1150.000
198.05	1333.333
198.26	153.731
198.48	566.667
198.69	-118.182
198.91	-2600.000
199.12	205.714
199.34	159.259
199.55	468.421
199.77	-152.632
199.98	-515.385
200.20	246.667
200.41	250.000
200.63	191.837
200.84	-712.500
201.06	920.000
201.27	337.500
201.49	-742.857
201.70	0.000
201.91	345.000
202.13	162.500
202.34	51.852
202.56	727.273
202.77	151.724
202.99	-600.000
203.20	-588.889
203.42	127.632
203.63	191.667
203.85	196.226
204.06	369.231
204.28	393.333
204.49	-5000.000
204.71	313.514
204.92	296.667
205.14	286.364
205.35	361.905
205.56	181.633
205.78	1030.000
205.99	2400.000
206.21	476.471
206.42	205.000
206.64	1133.333
206.85	168.750
207.07	141.667
207.28	165.574
207.50	246.429
207.71	264.000
207.93	265.217
208.14	-560.000
208.35	-1766.667
208.57	700.000
208.78	171.739
209.00	103.030
209.21	306.061
209.43	108.696
209.64	987.500
209.86	151.515
210.07	446.154
210.28	641.667
210.50	260.000
210.71	191.489
210.93	468.750
211.14	-6900.000
211.36	243.333
211.57	-10500.000
211.78	-1975.000
212.00	368.421
212.21	730.000
212.43	151.064
212.64	472.727
212.86	279.310
213.07	-2450.000
213.29	131.250
213.50	-373.684
213.71	137.705
213.93	810.000
214.14	564.286
214.36	723.077
214.57	440.909
214.78	131.169
215.00	132.857
215.21	416.667
215.43	448.000
215.64	-5800.000
215.86	750.000
216.07	-630.769
216.28	240.000
216.50	-161.538
216.71	1760.000
216.93	476.471
217.14	-266.667
217.35	114.062
217.57	473.333
217.78	364.706
218.00	2200.000
218.21	188.679
218.42	1344.444
218.64	1766.667
218.85	433.333
219.07	-466.667
219.28	-303.704
219.49	274.074
219.71	293.333
219.92	307.692
220.14	252.174
220.35	2500.000
220.56	91.228
220.78	210.000
220.99	-733.333
221.21	0.000
221.42	255.172
221.63	1009.091
221.85	213.559
222.06	163.265
222.28	231.034
222.49	253.846
222.70	860.000
222.92	106.000
223.13	155.000
223.34	-383.333
223.56	87.013
223.77	134.043
223.99	433.333
224.20	143.902
224.41	165.909
224.63	146.667
224.84	279.310
225.05	149.206
225.27	85.507
225.48	156.000
225.69	147.619
225.91	100.000
226.12	153.521
226.34	28.155
226.55	104.348
226.76	64.912
226.98	88.158
227.19	159.677
227.40	90.625
227.62	114.000
227.83	67.568
228.04	62.887
228.26	71.901
228.47	90.244
228.69	57.988
228.90	57.647
229.11	52.301
229.33	20.168
229.54	29.329
229.75	17.910
229.97	37.237
230.18	18.283
230.39	22.424
230.61	14.019
230.82	37.574
231.03	14.110
231.25	27.526
231.46	29.773
231.67	25.974
231.89	27.407
232.10	33.209
232.31	19.068
232.53	11.966
232.74	16.250
232.95	33.990
233.17	34.766
233.38	27.624
233.59	36.410
233.81	19.500
234.02	39.524
234.23	19.725
234.45	42.246
234.66	34.112
234.87	41.553
235.09	49.749
235.30	29.756
235.51	40.948
235.73	27.308
235.94	27.861
236.15	45.783
236.36	32.714
236.58	25.180
236.79	18.605
237.00	48.763
237.22	36.928
237.43	19.027
237.64	18.142
237.86	36.726
238.07	45.775
238.28	37.327
238.50	39.350
238.71	30.055
238.92	28.571
239.13	21.514
239.35	43.860
239.56	39.916
239.77	39.015
239.99	22.593
240.20	30.523
240.41	17.544
240.63	23.964
240.84	32.143
241.05	16.012
241.26	16.286
241.48	20.192
241.69	18.594
241.90	11.876
242.12	14.316
242.33	9.783
242.54	13.839
242.75	8.802
242.97	17.906
243.18	10.928
243.39	8.161
243.61	14.187
243.82	12.679
244.03	9.707
244.24	10.046
244.46	11.508
244.67	12.195
244.88	10.961
245.09	10.815
245.31	13.880
245.52	9.907
245.73	16.038
245.95	22.379
246.16	18.380
246.37	10.577
246.58	12.744
246.80	11.218
247.01	8.409
247.22	6.186
247.43	7.735
247.65	6.086
247.86	6.512
248.07	9.103
248.28	4.569
248.50	6.215
248.71	5.868
248.92	2.406
249.13	9.073
249.35	7.601
249.56	7.359
249.77	7.250
249.98	5.510
250.20	4.474
250.41	9.421
250.62	10.616
250.83	9.653
251.05	15.164
251.26	10.815
251.47	19.704
251.68	6.579
251.90	8.646
252.11	13.876
252.32	15.156
252.53	9.838
252.75	10.302
252.96	8.912
253.17	8.434
253.38	9.394
253.59	6.848
253.81	7.712
254.02	9.360
254.23	12.665
254.44	14.232
254.66	7.983
254.87	10.046
255.08	18.979
255.29	15.356
255.50	18.401
255.72	14.567
255.93	10.967
256.14	8.413
256.35	8.806
256.57	18.273
256.78	2.132
256.99	8.491
257.20	17.357
257.41	9.747
257.63	7.573
257.84	9.424
258.05	18.140
258.26	12.422
258.47	3.704
258.69	8.345
258.90	7.784
259.11	9.602
259.32	6.972
259.53	7.004
259.75	13.872
259.96	3.395
260.17	5.775
260.38	5.932
260.59	7.366
260.81	4.752
261.02	6.767
261.23	5.114
261.44	6.388
261.65	4.013
261.87	3.686
262.08	2.074
262.29	5.251
262.50	5.286
262.71	7.448
262.92	7.132
263.14	4.007
263.35	6.416
263.56	4.193
263.77	9.691
263.98	12.258
264.20	10.503
264.41	13.632
264.62	13.048
264.83	7.684
265.04	9.584
265.25	8.816
265.47	5.874
265.68	6.851
265.89	2.522
266.10	6.686
266.31	13.300
266.52	13.555
266.74	4.751
266.95	7.889
267.16	10.064
267.37	5.833
267.58	9.847
267.79	8.364
268.01	6.446
268.22	7.847
268.43	6.842
268.64	4.383
268.85	6.596
269.06	4.508
269.27	8.651
269.49	5.166
269.70	6.077
269.91	8.569
270.12	7.088
270.33	7.513
270.54	7.727
270.75	12.441
270.97	7.733
271.18	7.666
271.39	5.285
271.60	7.404
271.81	5.284
272.02	4.136
272.23	5.466
272.45	7.720
272.66	3.455
272.87	6.215
273.08	4.371
273.29	5.677
273.50	5.644
273.71	4.619
273.92	1.697
274.14	6.757
274.35	3.732
274.56	6.362
274.77	5.982
274.98	3.068
275.19	3.466
275.40	4.510
275.61	6.159
275.83	6.986
276.04	6.395
276.25	5.494
276.46	4.900
276.67	8.000
276.88	3.106
277.09	6.131
277.30	6.219
277.51	6.854
277.73	6.672
277.94	4.020
278.15	3.817
278.36	6.218
278.57	1.689
278.78	5.523
278.99	7.569
279.20	9.365
279.41	10.410
279.62	3.388
279.84	5.467
280.05	7.744
280.26	9.976
280.47	3.099
280.68	11.840
280.89	6.534
281.10	5.868
281.31	7.836
281.52	8.455
281.73	4.209
281.94	5.152
282.16	4.535
282.37	7.640
282.58	4.184
282.79	4.653
283.00	6.242
283.21	7.056
283.42	5.491
283.63	8.758
283.84	5.818
284.05	5.583
284.26	5.863
284.47	2.117
284.68	6.431
284.89	8.424
285.11	4.877
285.32	4.732
285.53	6.068
285.74	5.483
285.95	3.710
286.16	3.850
286.37	6.976
286.58	3.092
286.79	3.411
287.00	5.337
287.21	1.836
287.42	2.818
287.63	2.309
287.84	1.578
288.05	6.543
288.26	5.493
288.48	6.887
288.69	5.381
288.90	2.907
289.11	4.172
289.32	5.682
289.53	5.612
289.74	6.195
289.95	6.175
290.16	2.791
290.37	6.615
290.58	6.636
290.79	4.135
291.00	1.749
291.21	2.343
291.42	5.480
291.63	7.703
291.84	4.686
292.05	4.698
292.26	5.420
292.47	3.860
292.68	6.761
292.89	3.895
293.10	4.186
293.31	5.232
293.52	7.041
293.73	4.610
293.94	4.510
294.15	4.812
294.36	5.503
294.57	9.140
294.79	3.329
295.00	2.699
295.21	5.193
295.42	6.459
295.63	4.333
295.84	4.276
296.05	5.263
296.26	2.808
296.47	3.493
296.68	2.123
296.89	5.462
297.10	5.380
297.31	6.028
297.52	3.576
297.73	3.826
297.94	2.871
298.15	3.150
298.36	2.707
298.57	4.089
298.78	4.487
298.99	2.979
299.20	4.040
299.41	3.564
299.62	2.014
299.83	4.220
300.04	3.510
300.25	3.913
300.46	3.333
300.67	5.090
300.88	3.535
301.09	3.048
301.30	4.362
301.50	3.027
301.71	7.791
301.92	7.038
302.13	3.958
302.34	5.764
302.55	4.613
302.76	5.098
302.97	3.320
303.18	6.555
303.39	7.860
303.60	5.339
303.81	1.789
304.02	5.364
304.23	3.454
304.44	3.899
304.65	4.658
304.86	6.228
305.07	4.684
305.28	5.510
305.49	6.396
305.70	5.254
305.91	7.070
306.12	4.311
306.33	2.950
306.54	5.092
306.75	4.208
306.96	7.806
307.17	3.471
307.38	5.169
307.58	4.874
307.79	4.859
308.00	5.562
308.21	8.519
308.42	4.927
308.63	4.594
308.84	5.306
309.05	5.679
309.26	4.226
309.47	4.205
309.68	4.933
309.89	6.141
310.10	4.439
310.31	4.579
310.52	5.120
310.73	5.441
310.94	3.913
311.14	5.162
311.35	4.198
311.56	6.512
311.77	6.903
311.98	1.864
312.19	5.650
312.40	4.305
312.61	3.759
312.82	3.097
313.03	6.467
313.24	5.761
313.45	4.739
313.66	5.548
313.86	3.128
314.07	5.109
314.28	5.080
314.49	6.793
314.70	4.687
314.91	6.566
315.12	2.801
315.33	4.505
315.54	6.998
315.75	5.427
315.96	3.664
316.16	3.538
316.37	7.016
316.58	3.210
316.79	5.387
317.00	4.968
317.21	6.703
317.42	7.587
317.63	5.642
317.84	5.515
318.05	5.646
318.25	5.581
318.46	5.204
318.67	5.040
318.88	3.320
319.09	5.145
319.30	5.308
319.51	8.387
319.72	4.479
319.93	4.778
320.13	5.287
320.34	7.247
320.55	5.906
320.76	6.428
320.97	2.862
321.18	7.548
321.39	7.452
321.60	3.595
321.80	4.703
322.01	5.991
322.22	5.655
322.43	5.893
322.64	6.698
322.85	6.737
323.06	7.804
323.27	5.315
323.47	5.795
323.68	6.989
323.89	5.011
324.10	7.386
324.31	4.245
324.52	7.345
324.73	6.164
324.93	6.225
325.14	6.501
325.35	6.745
325.56	6.062
325.77	8.382
325.98	4.227
326.19	2.211
326.39	6.391
326.60	8.047
326.81	4.171
327.02	3.377
327.23	4.651
327.44	4.470
327.64	4.241
327.85	4.215
328.06	5.300
328.27	7.227
328.48	6.370
328.69	2.963
328.90	5.940
329.10	3.658
329.31	4.915
329.52	4.749
329.73	6.368
329.94	7.197
330.15	6.142
330.35	4.604
330.56	5.982
330.77	6.243
330.98	6.692
331.19	6.633
331.39	4.701
331.60	6.233
331.81	6.439
332.02	6.176
332.23	5.388
332.44	5.639
332.64	4.058
332.85	6.280
333.06	7.527
333.27	3.912
333.48	6.626
333.68	7.180
333.89	5.247
334.10	4.102
334.31	9.913
334.52	6.643
334.72	6.184
334.93	6.331
335.14	6.440
335.35	6.670
335.56	6.574
335.76	4.268
335.97	5.258
336.18	7.119
336.39	7.111
336.60	7.164
336.80	5.804
337.01	5.288
337.22	5.744
337.43	6.941
337.64	6.729
337.84	5.400
338.05	6.181
338.26	7.793
338.47	7.735
338.68	7.321
338.88	8.121
339.09	4.932
339.30	4.354
339.51	6.707
339.71	6.401
339.92	6.848
340.13	6.548
340.34	7.211
340.55	4.946
340.75	7.163
340.96	3.191
341.17	7.389
341.38	3.951
341.58	7.983
341.79	5.821
342.00	7.376
342.21	6.747
342.41	4.378
342.62	5.921
342.83	5.877
343.04	4.184
343.24	7.794
343.45	6.180
343.66	7.476
343.87	7.577
344.07	6.108
344.28	3.526
344.49	6.223
344.70	8.515
344.90	6.315
345.11	5.148
345.32	6.697
345.53	6.149
345.73	8.340
345.94	7.948
346.15	6.120
346.36	8.036
346.56	4.939
346.77	7.575
346.98	6.213
347.19	8.051
347.39	3.304
347.60	6.273
347.81	6.762
348.02	8.144
348.22	4.218
348.43	6.574
348.64	4.170
348.84	5.737
349.05	5.011
349.26	8.907
349.47	7.128
349.67	4.433
349.88	7.428
350.09	5.439
350.30	8.105
350.50	5.894
350.71	4.907
350.92	6.095
351.12	7.071
351.33	7.721
351.54	8.119
351.74	5.252
351.95	5.820
352.16	6.023
352.37	6.669
352.57	5.669
352.78	6.592
352.99	6.997
353.19	6.824
353.40	4.474
353.61	7.739
353.82	8.879
354.02	6.750
354.23	5.802
354.44	6.991
354.64	6.510
354.85	6.648
355.06	6.680
355.26	5.486
355.47	7.115
355.68	8.340
355.88	7.280
356.09	6.834
356.30	4.360
356.51	5.410
356.71	6.113
356.92	3.560
357.13	7.659
357.33	7.512
357.54	5.663
357.75	3.753
357.95	6.747
358.16	5.231
358.37	7.987
358.57	5.058
358.78	7.618
358.99	6.425
359.19	6.751
359.40	5.272
359.61	6.451
359.81	8.243
360.02	7.453
360.23	5.443
360.43	5.511
360.64	5.234
360.85	7.460
361.05	4.005
361.26	7.880
361.47	6.631
361.67	7.538
361.88	5.421
362.09	6.732
362.29	5.356
362.50	4.953
362.70	4.035
362.91	6.827
363.12	5.344
363.32	6.667
363.53	6.636
363.74	6.567
363.94	5.639
364.15	7.708
364.36	6.040
364.56	4.931
364.77	7.098
364.98	9.003
365.18	5.523
365.39	6.397
365.59	3.714
365.80	6.387
366.01	8.440
366.21	5.893
366.42	6.407
366.63	7.068
366.83	5.587
367.04	5.486
367.24	6.092
367.45	4.650
367.66	4.363
367.86	5.733
368.07	6.246
368.28	5.713
368.48	4.726
368.69	5.578
368.89	5.452
369.10	5.006
369.31	4.634
369.51	5.899
369.72	8.693
369.92	6.934
370.13	5.350
370.34	6.333
370.54	4.078
370.75	6.861
370.95	3.790
371.16	5.226
371.37	4.560
371.57	4.178
371.78	5.109
371.98	6.025
372.19	5.798
372.40	5.756
372.60	5.929
372.81	5.863
373.01	4.443
373.22	4.981
373.43	5.163
373.63	5.222
373.84	4.805
374.04	4.891
374.25	6.655
374.46	5.545
374.66	5.932
374.87	6.177
375.07	4.140
375.28	4.683
375.48	4.652
375.69	6.663
375.90	3.439
376.10	4.000
376.31	4.307
376.51	4.834
376.72	4.035
376.92	4.141
377.13	5.542
377.34	6.140
377.54	3.872
377.75	6.206
377.95	4.198
378.16	5.592
378.36	6.046
378.57	5.082
378.77	4.841
378.98	4.755
379.19	4.802
379.39	5.179
379.60	4.248
379.80	4.564
380.01	5.141
380.21	4.116
380.42	4.644
380.62	4.924
380.83	4.811
381.04	3.945
381.24	6.007
381.45	5.525
381.65	3.313
381.86	6.190
382.06	6.020
382.27	3.140
382.47	5.203
382.68	5.764
382.88	4.624
383.09	3.391
383.29	3.761
383.50	6.315
383.71	4.508
383.91	4.633
384.12	4.027
384.32	5.747
384.53	4.157
384.73	3.357
384.94	3.281
385.14	4.039
385.35	3.833
385.55	2.720
385.76	4.603
385.96	3.673
386.17	4.208
386.37	4.465
386.58	3.729
386.78	4.290
386.99	3.149
387.19	4.556
387.40	2.956
387.60	4.532
387.81	3.578
388.01	4.091
388.22	4.151
388.42	4.362
388.63	6.035
388.83	4.885
389.04	3.020
389.24	3.344
389.45	3.639
389.65	3.959
389.86	3.588
390.06	4.294
390.27	3.532
390.47	4.530
390.68	2.791
390.88	4.241
391.09	4.132
391.29	5.702
391.50	3.381
391.70	4.379
391.91	4.136
392.11	3.738
392.32	3.836
392.52	3.864
392.73	3.063
392.93	4.764
393.14	3.269
393.34	3.130
393.55	4.088
393.75	4.576
393.95	4.280
394.16	3.769
394.36	4.440
394.57	4.998
394.77	3.664
394.98	3.568
395.18	4.199
395.39	3.920
395.59	4.075
395.80	3.404
396.00	3.471
396.21	4.541
396.41	3.812
396.61	4.257
396.82	3.757
397.02	4.164
397.23	5.014
397.43	4.010
397.64	3.415
397.84	4.989
398.05	2.478
398.25	4.543
398.45	3.383
398.66	3.937
398.86	4.339
399.07	5.287
399.27	3.262
399.48	4.186
399.68	4.282
399.89	3.125
400.09	3.321
400.29	3.152
400.50	3.005
400.70	3.901
400.91	4.410
401.11	3.905
401.32	3.174
401.52	2.895
401.72	3.488
401.93	3.668
402.13	3.483
402.34	3.425
402.54	2.863
402.75	5.317
402.95	3.958
403.15	4.379
403.36	3.426
403.56	3.664
403.77	3.589
403.97	3.095
404.17	2.938
404.38	3.820
404.58	2.738
404.79	3.185
404.99	4.456
405.19	3.299
405.40	3.435
405.60	3.822
405.81	2.997
406.01	4.058
406.21	2.372
406.42	3.193
406.62	3.173
406.83	3.145
407.03	3.316
407.23	2.482
407.44	3.506
407.64	2.922
407.85	2.081
408.05	3.123
408.25	3.058
408.46	4.437
408.66	3.176
408.87	2.514
409.07	2.936
409.27	4.114
409.48	3.231
409.68	3.488
409.88	3.560
410.09	2.864
410.29	3.114
410.50	4.260
410.70	3.603
410.90	2.299
411.11	2.594
411.31	2.988
411.51	3.679
411.72	3.800
411.92	2.717
412.12	2.655
412.33	3.328
412.53	2.722
412.74	1.735
412.94	2.963
413.14	2.708
413.35	3.713
413.55	3.637
413.75	4.467
413.96	2.516
414.16	2.775
414.36	2.710
414.57	3.632
414.77	2.743
414.97	3.480
415.18	2.529
415.38	3.279
415.58	2.774
415.79	2.862
415.99	3.620
416.19	2.927
416.40	3.587
416.60	2.361
416.80	3.118
417.01	2.413
417.21	2.487
417.41	4.533
417.62	3.059
417.82	3.688
418.02	2.985
418.23	3.657
418.43	2.628
418.63	3.058
418.84	3.202
419.04	2.793
419.24	3.661
419.45	4.139
419.65	3.881
419.85	3.414
420.06	3.180
420.26	3.698
420.46	3.086
420.67	4.742
420.87	3.638
421.07	4.504
421.28	3.202
421.48	3.892
421.68	3.631
421.88	4.399
422.09	4.017
422.29	3.625
422.49	3.348
422.70	3.934
422.90	3.631
423.10	3.849
423.31	3.786
423.51	4.341
423.71	3.046
423.91	3.697
424.12	3.745
424.32	3.940
424.52	3.984
424.73	3.802
424.93	3.567
425.13	3.923
425.33	3.311
425.54	4.473
425.74	3.391
425.94	4.367
426.15	3.637
426.35	3.429
426.55	3.648
426.75	3.634
426.96	3.227
427.16	3.763
427.36	3.927
427.57	3.846
427.77	3.088
427.97	3.492
428.17	3.793
428.38	3.434
428.58	2.970
428.78	2.827
428.98	2.480
429.19	2.996
429.39	2.383
429.59	2.809
429.79	2.106
430.00	2.848
430.20	2.933
430.40	3.230
430.60	2.601
430.81	3.450
431.01	2.083
431.21	2.934
431.41	2.981
431.62	2.847
431.82	2.448
432.02	3.653
432.22	2.007
432.43	2.637
432.63	2.406
432.83	3.284
433.03	2.572
433.24	2.576
433.44	2.844
433.64	2.804
433.84	2.875
434.05	2.870
434.25	1.973
434.45	3.162
434.65	3.407
434.85	3.485
435.06	3.335
435.26	3.041
435.46	2.955
435.66	3.479
435.87	2.487
436.07	2.682
436.27	2.764
436.47	2.818
436.67	2.299
436.88	3.233
437.08	2.730
437.28	2.937
437.48	2.347
437.69	2.933
437.89	3.201
438.09	3.400
438.29	2.501
438.49	3.398
438.70	3.422
438.90	2.316
439.10	2.628
439.30	3.052
439.50	2.165
439.71	3.074
439.91	2.725
440.11	3.647
440.31	2.922
440.51	3.018
440.72	2.816
440.92	3.521
441.12	3.169
441.32	3.874
441.52	3.541
441.72	3.128
441.93	3.451
442.13	4.220
442.33	2.828
442.53	4.219
442.73	2.631
442.94	3.801
443.14	3.029
443.34	4.448
443.54	3.323
443.74	3.402
443.94	2.872
444.15	2.785
444.35	2.340
444.55	3.486
444.75	2.984
444.95	3.396
445.15	3.038
445.36	2.746
445.56	2.589
445.76	3.359
445.96	3.393
446.16	2.758
446.36	2.558
446.57	3.355
446.77	2.294
446.97	3.503
447.17	3.727
447.37	3.531
447.57	3.369
447.77	3.175
447.98	3.180
448.18	3.816
448.38	2.947
448.58	3.857
448.78	3.406
448.98	3.175
449.18	3.575
449.39	3.123
449.59	2.924
449.79	3.023
449.99	2.253
450.19	3.319
450.39	3.158
450.59	2.979
450.79	2.811
451.00	3.856
451.20	3.634
451.40	2.680
451.60	2.963
451.80	3.333
452.00	2.082
452.20	2.705
452.40	3.117
452.61	3.082
452.81	2.095
453.01	3.219
453.21	2.673
453.41	3.331
453.61	2.381
453.81	2.570
454.01	2.318
454.21	2.953
454.42	3.315
454.62	2.714
454.82	3.110
455.02	2.309
455.22	1.740
455.42	2.507
455.62	1.940
455.82	2.586
456.02	2.865
456.23	2.736
456.43	2.884
456.63	2.669
456.83	1.989
457.03	2.837
457.23	2.618
457.43	2.569
457.63	2.516
457.83	1.897
458.03	2.134
458.23	2.552
458.43	1.968
458.64	2.466
458.84	2.375
459.04	2.655
459.24	3.357
459.44	2.545
459.64	2.633
459.84	3.036
460.04	2.651
460.24	3.368
460.44	3.066
460.64	3.589
460.84	2.733
461.04	4.099
461.24	3.615
461.45	4.357
461.65	4.213
461.85	3.668
462.05	2.670
462.25	3.250
462.45	3.454
462.65	3.236
462.85	1.861
463.05	3.181
463.25	2.269
463.45	2.949
463.65	2.753
463.85	3.128
464.05	3.159
464.25	2.296
464.45	3.168
464.65	2.188
464.85	2.732
465.05	2.492
465.26	2.416
465.46	3.052
465.66	2.775
465.86	2.977
466.06	2.797
466.26	2.964
466.46	2.495
466.66	2.914
466.86	2.781
467.06	2.907
467.26	2.209
467.46	2.851
467.66	2.786
467.86	2.846
468.06	2.629
468.26	2.807
468.46	2.910
468.66	2.456
468.86	1.900
469.06	2.968
469.26	2.446
469.46	1.994
469.66	2.215
469.86	3.271
470.06	2.253
470.26	3.345
470.46	2.219
470.66	3.663
470.86	2.468
471.06	2.071
471.26	1.786
471.46	2.085
471.66	2.419
471.86	2.549
472.06	2.667
472.26	4.207
472.46	3.310
472.66	2.950
472.86	2.344
473.06	2.577
473.26	2.362
473.46	2.130
473.66	2.707
473.86	2.802
474.06	2.573
474.26	2.871
474.46	2.036
474.66	3.205
474.86	2.730
475.06	3.095
475.26	2.277
475.46	3.566
475.66	1.872
475.86	2.951
476.06	3.072
476.26	2.831
476.46	2.962
476.66	3.242
476.86	2.058
477.06	2.684
477.26	2.678
477.46	2.820
477.65	2.498
477.85	3.127
478.05	2.200
478.25	3.605
478.45	2.596
478.65	2.910
478.85	2.346
479.05	3.104
479.25	2.515
479.45	3.392
479.65	2.243
479.85	2.646
480.05	2.154
480.25	3.660
480.45	3.323
480.65	3.909
480.85	2.844
481.05	4.310
481.25	3.374
481.44	3.542
481.64	2.700
481.84	3.808
482.04	3.177
482.24	4.057
482.44	2.543
482.64	3.505
482.84	3.502
483.04	3.935
483.24	3.854
483.44	4.441
483.64	4.149
483.84	4.965
484.04	4.776
484.23	4.895
484.43	5.005
484.63	5.716
484.83	5.697
485.03	6.269
485.23	6.039
485.43	6.104
485.63	5.906
485.83	5.787
486.03	5.570
486.23	5.655
486.42	5.363
486.62	5.419
486.82	4.811
487.02	5.403
487.22	4.778
487.42	5.344
487.62	5.016
487.82	4.940
488.02	4.770
488.22	5.599
488.41	4.944
488.61	5.501
488.81	5.236
489.01	5.619
489.21	5.432
489.41	5.580
489.61	5.661
489.81	5.699
490.01	5.425
490.20	5.496
490.40	5.067
490.60	5.364
490.80	4.766
491.00	5.193
491.20	4.316
491.40	4.546
491.60	4.718
491.79	4.894
491.99	4.898
492.19	5.048
492.39	5.151
492.59	5.460
492.79	5.227
492.99	5.208
493.19	5.139
493.38	5.672
493.58	4.952
493.78	5.270
493.98	5.333
494.18	5.343
494.38	4.653
494.58	5.349
494.77	3.208
494.97	4.812
495.17	3.169
495.37	4.220
495.57	3.499
495.77	4.188
495.96	4.116
496.16	3.606
496.36	3.192
496.56	4.369
496.76	3.244
496.96	3.932
497.15	3.778
497.35	4.748
497.55	3.955
497.75	3.993
497.95	3.261
498.15	4.593
498.34	4.349
498.54	4.199
498.74	4.426
498.94	4.740
499.14	4.059
499.34	4.979
499.53	3.652
499.73	4.427
499.93	3.756
500.13	4.255
500.33	3.358
500.52	3.918
500.72	3.773
500.92	3.741
501.12	3.159
501.32	3.695
501.52	4.018
501.71	3.957
501.91	3.508
502.11	3.655
502.31	3.531
502.51	4.155
502.70	3.332
502.90	4.040
503.10	3.438
503.30	4.667
503.50	4.000
503.69	4.085
503.89	3.782
504.09	4.190
504.29	3.747
504.48	3.804
504.68	3.825
504.88	4.843
505.08	2.343
505.28	3.755
505.47	3.059
505.67	5.033
505.87	3.592
506.07	3.752
506.27	3.741
506.46	4.143
506.66	3.682
506.86	3.694
507.06	4.243
507.25	3.974
507.45	4.098
507.65	4.822
507.85	3.084
508.04	4.461
508.24	4.899
508.44	4.842
508.64	3.783
508.83	4.639
509.03	4.145
509.23	4.768
509.43	3.816
509.63	4.277
509.82	3.844
510.02	4.615
510.22	4.249
510.42	5.672
510.61	4.198
510.81	4.631
511.01	4.424
511.21	4.824
511.40	4.016
511.60	5.089
511.80	4.162
511.99	5.124
512.19	4.327
512.39	5.716
512.59	4.552
512.78	5.639
512.98	4.795
513.18	5.101
513.38	4.234
513.57	5.352
513.77	4.648
513.97	4.975
514.17	3.824
514.36	4.904
514.56	4.472
514.76	5.173
514.95	3.747
515.15	4.677
515.35	3.616
515.55	4.345
515.74	4.053
515.94	5.041
516.14	4.069
516.33	4.702
516.53	3.709
516.73	4.213
516.93	4.123
517.12	5.506
517.32	3.723
517.52	5.084
517.71	3.955
517.91	4.842
518.11	4.722
518.30	4.848
518.50	4.681
518.70	4.947
518.90	5.029
519.09	5.907
519.29	5.424
519.49	6.051
519.68	4.934
519.88	6.074
520.08	5.304
520.27	5.751
520.47	5.696
520.67	5.808
520.86	5.644
521.06	6.601
521.26	4.901
521.45	5.453
521.65	4.476
521.85	5.175
522.04	4.295
522.24	5.559
522.44	4.256
522.63	5.645
522.83	4.716
523.03	5.473
523.22	4.412
523.42	5.836
523.62	4.922
523.81	5.552
524.01	5.063
524.21	5.683
524.40	4.298
524.60	5.546
524.80	4.433
524.99	5.110
525.19	4.585
525.39	5.853
525.58	4.639
525.78	5.857
525.98	5.518
526.17	6.245
526.37	5.254
526.57	6.118
526.76	5.940
526.96	6.428
527.15	5.482
527.35	6.302
527.55	5.829
527.74	6.458
527.94	6.539
528.14	6.207
528.33	5.981
528.53	6.494
528.72	6.283
528.92	6.457
529.12	6.512
529.31	6.887
529.51	6.730
529.71	6.817
529.90	6.871
530.10	6.738
530.29	6.774
530.49	7.167
530.69	6.988
530.88	6.982
531.08	6.595
531.28	6.907
531.47	6.678
531.67	6.997
531.86	6.084
532.06	6.427
532.26	5.796
532.45	6.578
532.65	6.011
532.84	6.858
533.04	5.849
533.24	6.559
533.43	5.760
533.63	6.545
533.82	6.279
534.02	6.742
534.22	6.289
534.41	6.844
534.61	6.507
534.80	6.879
535.00	6.712
535.19	7.126
535.39	6.749
535.59	6.544
535.78	6.533
535.98	6.887
536.17	6.093
536.37	6.433
536.57	6.004
536.76	6.930
536.96	6.071
537.15	6.446
537.35	5.740
537.54	6.877
537.74	6.415
537.93	6.898
538.13	6.041
538.33	6.594
538.52	6.169
538.72	6.638
538.91	6.246
539.11	6.588
539.30	5.197
539.50	6.652
539.70	6.145
539.89	6.636
540.09	5.630
540.28	6.509
540.48	5.142
540.67	6.397
540.87	5.986
541.06	6.761
541.26	5.912
541.45	6.715
541.65	6.880
541.85	7.201
542.04	6.824
542.24	7.358
542.43	7.168
542.63	7.021
542.82	6.922
543.02	7.509
543.21	7.080
543.41	7.279
543.60	7.315
543.80	7.280
543.99	6.918
544.19	7.164
544.38	6.688
544.58	7.708
544.77	6.573
544.97	7.312
545.16	6.186
545.36	7.229
545.56	6.470
545.75	7.129
545.95	6.324
546.14	7.018
546.34	5.735
546.53	7.058
546.73	6.236
546.92	7.249
547.12	6.316
547.31	6.944
547.51	6.570
547.70	7.191
547.90	6.230
548.09	7.281
548.29	6.148
548.48	7.130
548.68	6.844
548.87	7.083
549.07	6.296
549.26	6.298
549.46	6.463
549.65	6.764
549.84	6.667
550.04	5.641
550.23	5.940
550.43	5.405
550.62	5.863
550.82	6.646
551.01	5.111
551.21	6.167
551.40	4.999
551.60	6.843
551.79	5.557
551.99	6.387
552.18	5.069
552.38	6.854
552.57	6.202
552.77	6.649
552.96	6.494
553.16	6.925
553.35	5.913
553.54	7.825
553.74	6.768
553.93	6.849
554.13	6.591
554.32	7.247
554.52	5.948
554.71	7.295
554.91	5.452
555.10	6.934
555.29	5.738
555.49	6.525
555.68	5.560
555.88	7.026
556.07	5.333
556.27	7.445
556.46	6.279
556.66	5.786
556.85	6.047
557.04	7.265
557.24	5.722
557.43	7.715
557.63	6.503
557.82	6.339
558.02	5.979
558.21	7.265
558.40	5.841
558.60	7.371
558.79	6.124
558.99	7.480
559.18	6.413
559.38	7.278
559.57	6.743
559.76	6.941
559.96	6.840
560.15	7.456
560.35	5.787
560.54	7.231
560.73	6.168
560.93	7.291
561.12	6.725
561.32	7.169
561.51	6.898
561.70	7.162
561.90	6.575
562.09	7.723
562.29	6.816
562.48	8.308
562.67	6.825
562.87	8.272
563.06	7.068
563.26	6.679
563.45	7.259
563.64	8.279
563.84	7.230
564.03	8.096
564.23	6.905
564.42	9.426
564.61	6.698
564.81	7.664
565.00	8.370
565.20	8.858
565.39	9.037
565.58	8.741
565.78	7.244
565.97	8.710
566.16	8.558
566.36	10.258
566.55	8.684
566.74	8.893
566.94	8.339
567.13	9.327
567.33	8.134
567.52	9.452
567.71	8.390
567.91	9.577
568.10	8.803
568.29	10.028
568.49	8.569
568.68	9.533
568.87	8.128
569.07	9.824
569.26	9.010
569.45	10.051
569.65	8.468
569.84	9.749
570.04	8.923
570.23	9.884
570.42	7.815
570.62	9.114
570.81	8.936
571.00	9.702
571.20	10.370
571.39	9.726
571.58	9.817
571.78	10.562
571.97	9.823
572.16	10.548
572.36	9.905
572.55	11.045
572.74	9.904
572.94	10.347
573.13	9.890
573.32	10.519
573.51	9.877
573.71	11.102
573.90	9.031
574.09	10.666
574.29	10.406
574.48	10.823
574.67	8.965
574.87	10.322
575.06	8.324
575.25	10.492
575.45	9.874
575.64	10.590
575.83	9.563
576.03	10.874
576.22	8.804
576.41	10.593
576.60	9.761
576.80	10.100
576.99	9.852
577.18	11.018
577.38	8.527
577.57	9.804
577.76	10.192
577.95	9.671
578.15	7.783
578.34	9.715
578.53	8.988
578.73	10.389
578.92	8.007
579.11	9.823
579.30	9.652
579.50	8.895
579.69	9.583
579.88	9.580
580.08	8.486
580.27	10.495
580.46	7.820
580.65	9.389
580.85	7.825
581.04	9.052
581.23	7.840
581.42	9.371
581.62	7.991
581.81	8.866
582.00	8.137
582.19	8.775
582.39	8.760
582.58	7.892
582.77	8.643
582.96	8.002
583.16	7.900
583.35	9.776
583.54	7.908
583.73	8.368
583.93	7.896
584.12	8.612
584.31	7.418
584.50	9.080
584.70	7.194
584.89	8.555
585.08	8.629
585.27	9.292
585.47	7.154
585.66	8.177
585.85	6.531
586.04	8.413
586.24	8.539
586.43	7.382
586.62	6.979
586.81	8.855
587.00	6.623
587.20	8.341
587.39	6.769
587.58	9.218
587.77	8.221
587.97	7.139
588.16	8.288
588.35	9.245
588.54	6.610
588.73	8.058
588.93	8.975
589.12	8.080
589.31	7.688
589.50	7.301
589.69	8.119
589.89	8.038
590.08	7.513
590.27	7.868
590.46	8.062
590.65	8.046
590.85	7.255
591.04	9.428
591.23	7.076
591.42	8.948
591.61	6.796
591.81	8.457
592.00	7.532
592.19	9.354
592.38	7.773
592.57	8.811
592.77	8.164
592.96	7.797
593.15	8.508
593.34	8.453
593.53	7.712
593.72	7.777
593.92	7.482
594.11	9.080
594.30	7.374
594.49	9.090
594.68	7.948
594.87	9.170
595.07	6.777
595.26	8.757
595.45	7.561
595.64	8.716
595.83	7.634
596.02	8.795
596.22	7.413
596.41	8.659
596.60	8.343
596.79	10.317
596.98	8.457
597.17	9.927
597.37	8.299
597.56	9.269
597.75	8.362
597.94	10.299
598.13	9.190
598.32	10.273
598.51	8.412
598.71	10.436
598.90	8.666
599.09	9.639
599.28	7.255
599.47	8.326
599.66	7.160
599.85	8.720
600.05	6.883
600.24	9.776
600.43	7.891
600.62	9.056
600.81	9.613
601.00	8.927
601.19	6.595
601.38	8.603
601.58	8.136
601.77	7.188
601.96	7.473
602.15	8.871
602.34	8.292
602.53	9.421
602.72	7.288
602.91	9.185
603.10	8.475
603.30	9.016
603.49	7.307
603.68	9.128
603.87	7.678
604.06	9.026
604.25	8.836
604.44	9.639
604.63	9.875
604.82	10.342
605.01	9.458
605.21	10.840
605.40	9.131
605.59	10.588
605.78	9.904
605.97	9.670
606.16	9.527
606.35	10.695
606.54	8.670
606.73	10.700
606.92	8.894
607.11	10.226
607.30	7.969
607.50	9.165
607.69	7.875
607.88	9.321
608.07	7.502
608.26	8.685
608.45	9.550
608.64	10.098
608.83	7.154
609.02	9.435
609.21	8.428
609.40	10.602
609.59	7.782
609.78	8.807
609.97	8.019
610.16	10.247
610.35	8.513
610.55	9.195
610.74	8.728
610.93	10.189
611.12	8.695
611.31	9.196
611.50	6.760
611.69	8.575
611.88	7.417
612.07	9.642
612.26	7.226
612.45	8.128
612.64	8.181
612.83	9.039
613.02	6.787
613.21	6.629
613.40	7.602
613.59	8.363
613.78	5.634
613.97	6.850
614.16	7.143
614.35	8.467
614.54	5.975
614.73	6.864
614.92	6.825
615.11	7.291
615.30	5.974
615.49	6.166
615.68	5.430
615.87	6.398
616.07	5.910
616.26	6.124
616.45	6.551
616.64	7.495
616.83	6.829
617.02	7.253
617.21	5.566
617.40	6.373
617.59	6.856
617.78	7.372
617.97	6.072
618.16	6.200
618.35	5.197
618.54	6.469
618.73	6.412
618.92	6.681
619.11	5.423
619.30	6.801
619.49	4.510
619.68	6.643
619.86	5.550
620.05	5.602
620.24	4.804
620.43	5.511
620.62	4.275
620.81	5.573
621.00	5.369
621.19	6.525
621.38	6.531
621.57	6.855
621.76	5.924
621.95	6.418
622.14	5.614
622.33	7.033
622.52	4.003
622.71	6.212
622.90	5.424
623.09	6.172
623.28	4.428
623.47	6.848
623.66	5.957
623.85	5.717
624.04	5.724
624.23	6.128
624.42	5.767
624.61	5.856
624.80	4.380
624.99	7.022
625.18	4.944
625.36	5.434
625.55	5.663
625.74	4.291
625.93	5.389
626.12	6.889
626.31	7.412
626.50	5.805
626.69	4.797
626.88	7.406
627.07	7.187
627.26	5.908
627.45	6.598
627.64	6.384
627.83	5.662
628.02	6.154
628.20	5.760
628.39	7.155
628.58	5.967
628.77	6.324
628.96	5.605
629.15	5.449
629.34	5.411
629.53	6.354
629.72	5.621
629.91	7.157
630.10	5.600
630.29	6.369
630.47	5.402
630.66	5.146
630.85	5.914
631.04	6.287
631.23	5.129
631.42	6.138
631.61	5.767
631.80	7.682
631.99	5.513
632.18	5.904
632.36	4.545
632.55	6.690
632.74	4.727
632.93	5.057
633.12	4.504
633.31	4.562
633.50	5.041
633.69	5.841
633.88	4.524
634.06	5.550
634.25	4.838
634.44	5.666
634.63	5.228
634.82	7.192
635.01	5.034
635.20	5.370
635.39	4.837
635.57	5.705
635.76	5.298
635.95	4.673
636.14	4.981
636.33	6.332
636.52	4.743
636.71	4.453
636.89	5.583
637.08	4.510
637.27	5.140
637.46	6.065
637.65	4.934
637.84	6.188
638.03	4.022
638.21	6.049
638.40	6.217
638.59	4.837
638.78	4.950
638.97	5.592
639.16	5.513
639.34	6.134
639.53	4.185
639.72	6.063
639.91	4.421
640.10	2.696
640.29	5.948
640.47	6.737
640.66	5.109
640.85	6.554
641.04	5.246
641.23	5.554
641.42	5.156
641.60	4.297
641.79	5.271
641.98	4.635
642.17	5.721
642.36	6.219
642.54	4.731
642.73	5.360
642.92	2.451
643.11	4.917
643.30	4.652
643.49	5.085
643.67	3.304
643.86	4.712
644.05	4.330
644.24	6.252
644.43	4.938
644.61	5.606
644.80	5.020
644.99	5.225
645.18	6.370
645.37	5.307
645.55	5.453
645.74	5.458
645.93	5.593
646.12	4.979
646.31	5.579
646.49	4.242
646.68	7.156
646.87	4.029
647.06	3.569
647.24	5.291
647.43	5.205
647.62	6.282
647.81	5.063
648.00	4.718
648.18	4.655
648.37	3.629
648.56	5.592
648.75	5.418
648.93	5.119
649.12	5.462
649.31	5.300
649.50	4.712
649.68	4.067
649.87	5.019
650.06	3.733
650.25	4.224
650.43	3.879
650.62	3.347
650.81	4.869
651.00	3.938
651.18	4.304
651.37	6.108
651.56	4.175
651.75	5.416
651.93	5.412
652.12	5.176
652.31	4.016
652.50	4.404
652.68	7.031
652.87	6.157
653.06	5.124
653.25	5.753
653.43	4.624
653.62	5.148
653.81	4.580
654.00	5.459
654.18	3.789
654.37	4.689
654.56	4.978
654.74	3.501
654.93	4.198
655.12	4.123
655.31	4.163
655.49	4.250
655.68	3.925
655.87	4.427
656.05	4.568
656.24	3.469
656.43	4.897
656.62	5.923
656.80	5.066
656.99	4.101
657.18	3.692
657.36	4.513
657.55	5.017
657.74	5.303
657.93	5.059
658.11	6.238
658.30	4.092
658.49	3.606
658.67	3.958
658.86	3.664
659.05	4.131
659.23	4.182
659.42	3.322
659.61	4.681
659.79	3.691
659.98	3.284
660.17	4.112
660.35	5.505
660.54	4.270
660.73	5.385
660.91	4.015
661.10	5.069
661.29	3.894
661.47	4.489
661.66	3.302
661.85	4.237
662.03	5.811
662.22	2.904
662.41	3.590
662.59	3.068
662.78	3.833
662.97	4.154
663.15	2.871
663.34	3.507
663.53	3.732
663.71	3.435
663.90	2.695
664.09	4.209
664.27	3.035
664.46	4.727
664.65	3.929
664.83	2.254
665.02	2.671
665.21	3.510
665.39	2.476
665.58	4.431
665.77	2.506
665.95	3.659
666.14	3.056
666.32	4.223
666.51	4.182
666.70	3.054
666.88	3.193
667.07	2.691
667.26	2.549
667.44	3.288
667.63	4.338
667.81	2.455
668.00	3.977
668.19	4.200
668.37	3.097
668.56	5.031
668.75	2.745
668.93	4.778
669.12	3.004
669.30	3.522
669.49	3.872
669.68	4.503
669.86	2.563
670.05	2.912
670.23	2.974
670.42	2.478
670.61	4.495
670.79	5.000
670.98	5.203
671.16	4.570
671.35	4.168
671.54	4.812
671.72	4.426
671.91	3.624
672.09	3.241
672.28	5.207
672.46	4.582
672.65	5.436
672.84	3.687
673.02	4.298
673.21	2.856
673.39	2.348
673.58	4.311
673.77	4.247
673.95	4.376
674.14	4.188
674.32	3.259
674.51	5.142
674.69	4.555
674.88	3.856
675.07	4.701
675.25	5.546
675.44	5.243
675.62	5.402
675.81	4.740
675.99	7.160
676.18	3.112
676.36	3.506
676.55	5.753
676.74	6.404
676.92	4.060
677.11	4.742
677.29	2.632
677.48	5.303
677.66	6.081
677.85	4.234
678.03	6.165
678.22	3.540
678.40	5.122
678.59	3.542
678.78	4.799
678.96	3.203
679.15	6.103
679.33	5.460
679.52	4.024
679.70	5.187
679.89	5.472
680.07	5.141
680.26	4.671
680.44	4.880
680.63	4.939
680.81	4.921
681.00	3.683
681.18	3.203
681.37	3.796
681.55	5.398
681.74	4.727
681.92	5.703
682.11	6.095
682.29	4.629
682.48	5.648
682.66	4.573
682.85	4.091
683.03	5.779
683.22	5.523
683.40	5.400
683.59	5.666
683.77	5.403
683.96	2.967
684.14	6.465
684.33	3.614
684.51	8.806
684.70	5.529
684.88	7.451
685.07	4.764
685.25	5.037
685.44	5.683
685.62	5.400
685.81	3.624
685.99	5.658
686.18	4.555
686.36	5.864
686.55	4.088
686.73	7.267
686.92	6.289
687.10	6.388
687.29	5.800
687.47	6.759
687.65	5.443
687.84	5.893
688.02	7.883
688.21	8.193
688.39	5.493
688.58	6.704
688.76	8.391
688.95	5.631
689.13	5.378
689.32	7.887
689.50	6.340
689.68	7.170
689.87	5.256
690.05	5.924
690.24	7.109
690.42	6.297
690.61	7.240
690.79	7.659
690.98	5.872
691.16	5.736
691.34	7.786
691.53	7.803
691.71	7.509
691.90	7.350
692.08	6.233
692.27	7.345
692.45	7.376
692.63	6.238
692.82	8.379
693.00	7.838
693.19	7.787
693.37	7.764
693.56	8.119
693.74	7.618
693.92	6.944
694.11	7.591
694.29	7.552
694.48	6.995
694.66	8.609
694.84	7.518
695.03	7.496
695.21	10.316
695.40	9.035
695.58	10.557
695.76	8.505
695.95	9.505
696.13	8.852
696.32	11.088
696.50	14.522
696.68	7.262
696.87	8.367
697.05	10.864
697.24	8.087
697.42	10.004
697.60	8.336
697.79	8.909
697.97	10.055
698.16	10.282
698.34	8.196
698.52	10.977
698.71	8.042
698.89	10.858
699.07	9.895
699.26	9.915
699.44	10.791
699.63	12.665
699.81	10.081
699.99	12.691
700.18	12.711
700.36	12.845
700.54	11.773
700.73	9.749
700.91	9.814
701.09	11.144
701.28	12.929
701.46	12.865
701.64	10.393
701.83	11.409
702.01	9.326
702.20	14.548
702.38	11.612
702.56	11.712
702.75	9.931
702.93	9.988
703.11	12.013
703.30	11.184
703.48	11.432
703.66	11.861
703.85	10.078
704.03	12.670
704.21	10.192
704.40	12.853
704.58	10.350
704.76	10.765
704.95	12.555
705.13	12.955
705.31	11.378
705.50	12.070
705.68	10.881
705.86	11.945
706.04	10.184
706.23	10.505
706.41	12.709
706.59	12.755
706.78	10.964
706.96	13.606
707.14	13.009
707.33	12.317
707.51	14.135
707.69	10.096
707.88	13.079
708.06	13.440
708.24	11.950
708.42	13.429
708.61	13.617
708.79	16.015
708.97	11.238
709.16	14.117
709.34	13.302
709.52	13.712
709.71	11.970
709.89	13.738
710.07	11.228
710.25	13.515
710.44	13.185
710.62	12.969
710.80	11.899
710.98	11.849
711.17	10.672
711.35	14.298
711.53	11.993
711.72	14.085
711.90	16.097
712.08	13.042
712.26	10.088
712.45	15.492
712.63	11.468
712.81	13.086
712.99	14.537
713.18	15.685
713.36	11.815
713.54	12.500
713.72	14.273
713.91	13.502
714.09	11.328
714.27	13.577
714.45	16.097
714.64	14.007
714.82	11.885
715.00	15.301
715.18	9.967
715.37	15.669
715.55	13.426
715.73	14.758
715.91	15.466
716.10	14.747
716.28	10.940
716.46	15.463
716.64	10.526
716.83	12.680
717.01	11.921
717.19	14.527
717.37	11.625
717.55	14.323
717.74	10.732
717.92	12.821
718.10	10.014
718.28	10.111
718.47	11.977
718.65	15.528
718.83	11.901
719.01	13.385
719.19	12.996
719.38	11.063
719.56	11.050
719.74	12.100
719.92	9.619
720.10	10.768
720.29	9.086
720.47	13.478
720.65	10.964
720.83	14.303
721.01	11.026
721.20	10.108
721.38	13.121
721.56	12.297
721.74	12.075
721.92	13.594
722.11	10.852
722.29	11.340
722.47	12.255
722.65	13.976
722.83	14.059
723.01	11.951
723.20	12.208
723.38	11.744
723.56	12.595
723.74	13.847
723.92	12.974
724.10	12.812
724.29	15.028
724.47	13.094
724.65	10.901
724.83	12.705
725.01	12.439
725.19	12.827
725.38	12.399
725.56	14.087
725.74	12.397
725.92	13.548
726.10	13.305
726.28	13.798
726.46	14.322
726.65	13.295
726.83	9.814
727.01	12.383
727.19	13.795
727.37	15.207
727.55	13.526
727.73	11.698
727.92	12.583
728.10	12.959
728.28	8.407
728.46	13.486
728.64	14.021
728.82	11.857
729.00	13.011
729.19	13.654
729.37	10.273
729.55	12.828
729.73	11.768
729.91	15.219
730.09	13.937
730.27	12.253
730.45	13.341
730.63	13.801
730.82	12.565
731.00	9.475
731.18	11.499
731.36	17.209
731.54	9.613
731.72	12.606
731.90	12.241
732.08	15.200
732.26	14.461
732.45	12.207
732.63	13.162
732.81	14.660
732.99	9.972
733.17	11.419
733.35	14.531
733.53	15.709
733.71	10.278
733.89	13.428
734.07	17.263
734.25	18.031
734.44	13.307
734.62	15.854
734.80	13.650
734.98	16.931
735.16	13.282
735.34	15.806
735.52	13.312
735.70	16.023
735.88	13.928
736.06	15.041
736.24	15.080
736.42	17.949
736.60	13.844
736.78	14.672
736.97	14.208
737.15	18.569
737.33	14.446
737.51	13.485
737.69	14.001
737.87	16.794
738.05	16.977
738.23	17.426
738.41	15.591
738.59	16.449
738.77	14.817
738.95	19.972
739.13	16.508
739.31	14.955
739.49	16.541
739.67	17.409
739.85	16.265
740.03	20.434
740.21	18.399
740.39	19.032
740.57	15.645
740.75	13.182
740.93	12.374
741.11	13.550
741.30	12.892
741.48	16.667
741.66	17.608
741.84	14.181
742.02	12.072
742.20	16.159
742.38	15.703
742.56	17.832
742.74	16.527
742.92	17.629
743.10	15.027
743.28	17.774
743.46	13.154
743.64	14.863
743.82	17.231
744.00	19.032
744.18	17.682
744.36	15.040
744.54	14.616
744.72	20.664
744.90	16.474
745.08	19.899
745.26	17.539
745.44	14.995
745.62	15.649
745.80	17.448
745.98	15.993
746.16	20.472
746.34	17.406
746.52	14.839
746.70	13.668
746.87	21.673
747.05	16.248
747.23	22.748
747.41	13.450
747.59	20.141
747.77	15.620
747.95	13.284
748.13	13.839
748.31	21.970
748.49	18.217
748.67	15.474
748.85	15.923
749.03	23.325
749.21	18.114
749.39	18.787
749.57	11.723
749.75	15.498
749.93	15.183
750.11	15.707
750.29	14.134
750.47	14.165
750.65	19.561
750.83	18.730
751.01	18.000
751.18	17.135
751.36	14.559
751.54	21.039
751.72	16.952
751.90	16.010
752.08	14.005
752.26	17.477
752.44	12.007
752.62	16.191
752.80	13.613
752.98	19.660
753.16	16.373
753.34	17.921
753.52	14.605
753.69	15.794
753.87	17.266
754.05	15.840
754.23	18.782
754.41	20.847
754.59	15.924
754.77	19.056
754.95	16.293
755.13	16.462
755.31	12.458
755.49	17.512
755.66	16.091
755.84	17.468
756.02	14.403
756.20	20.297
756.38	17.232
756.56	18.430
756.74	13.396
756.92	20.748
757.10	16.349
757.28	17.679
757.45	17.352
757.63	17.621
757.81	14.919
757.99	21.680
758.17	15.909
758.35	14.011
758.53	13.704
758.71	18.641
758.88	13.423
759.06	11.909
759.24	14.211
759.42	14.508
759.60	13.135
759.78	17.269
759.96	8.977
760.13	14.250
760.31	12.134
760.49	8.285
760.67	9.524
760.85	10.201
761.03	10.549
761.21	8.421
761.38	6.290
761.56	11.601
761.74	10.306
761.92	9.194
762.10	12.604
762.28	9.638
762.46	7.053
762.63	8.612
762.81	9.945
762.99	9.368
763.17	13.014
763.35	8.286
763.53	7.945
763.70	12.477
763.88	10.996
764.06	8.282
764.24	7.911
764.42	11.551
764.60	10.104
764.77	11.463
764.95	9.310
765.13	13.179
765.31	11.902
765.49	11.573
765.66	8.985
765.84	10.930
766.02	10.889
766.20	12.407
766.38	14.067
766.56	14.359
766.73	13.227
766.91	13.762
767.09	13.530
767.27	19.147
767.45	11.887
767.62	15.644
767.80	11.961
767.98	14.843
768.16	12.359
768.33	18.157
768.51	14.442
768.69	11.671
768.87	13.998
769.05	12.823
769.22	16.956
769.40	21.032
769.58	17.015
769.76	17.328
769.94	15.093
770.11	14.301
770.29	15.512
770.47	15.773
770.65	22.671
770.82	21.209
771.00	18.126
771.18	16.031
771.36	16.403
771.53	16.111
771.71	17.540
771.89	24.820
772.07	12.903
772.25	25.829
772.42	13.462
772.60	20.154
772.78	17.426
772.96	21.765
773.13	16.327
773.31	14.716
773.49	20.421
773.67	17.808
773.84	21.241
774.02	19.697
774.20	17.335
774.37	15.413
774.55	17.617
774.73	24.315
774.91	20.991
775.08	20.438
775.26	21.635
775.44	16.205
775.62	19.823
775.79	20.698
775.97	15.104
776.15	20.080
776.32	15.979
776.50	17.765
776.68	20.417
776.86	17.787
777.03	21.217
777.21	18.577
777.39	19.634
777.56	14.104
777.74	19.913
777.92	18.543
778.10	17.655
778.27	16.917
778.45	22.102
778.63	15.648
778.80	15.579
778.98	22.649
779.16	21.020
779.34	19.456
779.51	22.179
779.69	17.415
779.87	19.918
780.04	23.989
780.22	20.365
780.40	16.048
780.57	16.143
780.75	19.720
780.93	20.961
781.10	23.883
781.28	23.916
781.46	15.362
781.63	20.057
781.81	21.521
781.99	18.619
782.16	13.187
782.34	16.544
782.52	17.486
782.69	21.926
782.87	13.697
783.05	13.833
783.22	24.962
783.40	17.417
783.58	23.929
783.75	16.789
783.93	21.461
784.11	17.085
784.28	15.813
784.46	21.429
784.64	18.065
784.81	14.375
784.99	16.199
785.17	23.639
785.34	17.431
785.52	20.128
785.69	22.123
785.87	12.825
786.05	26.118
786.22	24.812
786.40	19.807
786.58	27.666
786.75	17.436
786.93	15.569
787.11	12.342
787.28	20.670
787.46	23.704
787.63	16.301
787.81	15.704
787.99	22.533
788.16	18.145
788.34	16.324
788.51	18.601
788.69	18.555
788.87	17.727
789.04	17.671
789.22	13.165
789.39	16.332
789.57	9.645
789.75	17.788
789.92	13.715
790.10	11.886
790.27	18.041
790.45	13.904
790.63	13.324
790.80	18.822
790.98	14.412
791.15	16.925
791.33	14.964
791.51	14.537
791.68	18.047
791.86	21.037
792.03	18.971
792.21	14.680
792.39	15.531
792.56	17.647
792.74	20.323
792.91	19.459
793.09	18.109
793.26	22.917
793.44	24.714
793.62	23.283
793.79	16.265
793.97	26.961
794.14	15.439
794.32	21.369
794.49	18.182
794.67	14.286
794.84	18.919
795.02	22.315
795.20	27.750
795.37	19.499
795.55	19.584
795.72	19.408
795.90	18.097
796.07	24.223
796.25	17.928
796.42	18.358
796.60	18.210
796.77	12.083
796.95	18.182
797.13	13.934
797.30	17.820
797.48	12.995
797.65	16.642
797.83	9.897
798.00	21.263
798.18	14.534
798.35	13.869
798.53	14.941
798.70	14.462
798.88	21.565
799.05	22.862
799.23	16.565
799.40	20.583
799.58	14.540
799.75	17.362
799.93	19.621
800.10	18.492
800.28	14.573
800.45	18.151
800.63	24.110
800.80	18.807
800.98	17.815
801.15	22.810
801.33	13.103
801.50	18.106
801.68	18.512
801.85	15.278
802.03	20.109
802.20	21.111
802.38	19.652
802.55	18.730
802.73	24.689
802.90	11.837
803.08	19.168
803.25	17.261
803.43	22.056
803.60	16.819
803.78	27.303
803.95	23.064
804.13	21.465
804.30	19.318
804.48	20.566
804.65	21.260
804.83	10.136
805.00	12.391
805.17	12.090
805.35	28.654
805.52	20.609
805.70	19.504
805.87	20.599
806.05	21.391
806.22	17.681
806.40	16.759
806.57	10.946
806.75	23.321
806.92	17.096
807.09	10.279
807.27	19.656
807.44	16.544
807.62	18.356
807.79	20.244
807.97	16.068
808.14	23.130
808.31	18.702
808.49	10.119
808.66	24.329
808.84	14.286
809.01	15.976
809.19	22.727
809.36	29.072
809.53	12.476
809.71	18.812
809.88	23.933
810.06	27.829
810.23	15.975
810.41	17.174
810.58	18.234
810.75	19.066
810.93	11.659
811.10	22.117
811.28	28.952
811.45	23.251
811.62	19.400
811.80	9.459
811.97	16.368
812.15	29.913
812.32	14.957
812.49	28.870
812.67	29.735
812.84	20.378
813.02	17.317
813.19	23.819
813.36	24.777
813.54	12.249
813.71	22.967
813.89	25.462
814.06	22.246
814.23	29.139
814.41	18.000
814.58	30.380
814.75	21.981
814.93	18.750
815.10	30.095
815.28	29.087
815.45	15.877
815.62	26.471
815.80	14.509
815.97	27.182
816.14	34.450
816.32	20.347
816.49	12.702
816.66	21.680
816.84	23.705
817.01	24.554
817.18	11.258
817.36	22.294
817.53	22.423
817.71	16.121
817.88	20.798
818.05	22.566
818.23	16.115
818.40	25.620
818.57	22.296
818.75	27.766
818.92	26.987
819.09	11.217
819.27	10.870
819.44	6.048
819.61	13.498
819.79	18.470
819.96	16.364
820.13	19.850
820.31	16.081
820.48	10.333
820.65	16.221
820.82	22.000
821.00	8.721
821.17	10.803
821.34	16.389
821.52	10.613
821.69	11.902
821.86	13.121
822.04	10.085
822.21	10.185
822.38	7.725
822.56	9.467
822.73	9.205
822.90	9.597
823.07	11.214
823.25	9.461
823.42	9.435
823.59	8.706
823.77	10.531
823.94	10.568
824.11	11.349
824.29	8.708
824.46	11.552
824.63	10.683
824.80	9.786
824.98	11.126
825.15	8.725
825.32	7.964
825.49	11.839
825.67	8.204
825.84	12.562
826.01	9.463
826.19	9.661
826.36	6.864
826.53	13.516
826.70	8.977
826.88	13.235
827.05	9.696
827.22	10.348
827.39	10.204
827.57	8.476
827.74	11.170
827.91	9.424
828.08	9.219
828.26	7.806
828.43	9.085
828.60	10.552
828.77	8.499
828.95	11.602
829.12	8.148
829.29	10.104
829.46	13.966
829.64	11.939
829.81	13.737
829.98	14.044
830.15	14.724
830.32	11.380
830.50	9.562
830.67	18.339
830.84	11.557
831.01	15.657
831.19	23.519
831.36	21.197
831.53	18.266
831.70	13.271
831.87	14.370
832.05	25.625
832.22	23.591
832.39	8.962
832.56	19.866
832.74	17.621
832.91	19.208
833.08	19.444
833.25	18.654
833.42	15.199
833.60	15.359
833.77	5.287
833.94	13.388
834.11	7.724
834.28	13.155
834.45	13.170
834.63	8.129
834.80	8.821
834.97	10.739
835.14	11.531
835.31	12.463
835.49	11.334
835.66	11.040
835.83	13.983
836.00	13.728
836.17	13.220
836.34	13.436
836.52	9.836
836.69	11.747
836.86	19.688
837.03	15.781
837.20	19.835
837.37	16.724
837.55	13.295
837.72	22.593
837.89	15.367
838.06	23.210
838.23	19.107
838.40	27.344
838.58	14.583
838.75	32.102
838.92	28.060
839.09	31.657
839.26	22.000
839.43	16.511
839.60	20.968
839.78	35.676
839.95	32.990
840.12	23.964
840.29	25.833
840.46	28.947
840.63	27.202
840.80	19.949
840.98	23.659
841.15	29.949
841.32	12.665
841.49	20.000
841.66	23.352
841.83	32.178
842.00	31.387
842.17	20.561
842.34	25.065
842.52	26.935
842.69	18.493
842.86	23.026
843.03	20.000
843.20	10.204
843.37	29.819
843.54	20.553
843.71	21.981
843.88	39.464
844.06	25.862
844.23	47.034
844.40	40.161
844.57	45.588
844.74	36.207
844.91	7.265
845.08	57.895
845.25	37.736
845.42	54.741
845.59	32.051
845.76	33.197
845.94	50.256
846.11	11.500
846.28	46.154
846.45	43.293
846.62	67.172
846.79	43.182
846.96	52.525
847.13	46.524
847.30	36.458
847.47	70.482
847.64	47.668
847.81	20.488
847.98	50.802
848.15	40.385
848.32	32.418
848.50	64.063
848.67	49.479
848.84	36.872
849.01	50.370
849.18	43.644
849.35	52.258
849.52	33.918
849.69	62.069
849.86	47.959
850.03	38.068
850.20	77.848
850.37	25.000
850.54	14.286
850.71	53.988
850.88	54.857
851.05	37.908
851.22	25.294
851.39	45.098
851.56	62.000
851.73	51.813
851.90	67.273
852.07	40.625
852.24	49.711
852.41	61.314
852.58	60.894
852.75	31.325
852.92	52.308
853.09	62.637
853.26	77.778
853.43	45.355
853.60	65.414
853.77	48.872
853.94	63.226
854.11	63.736
854.28	66.162
854.45	57.764
854.62	24.528
854.79	44.970
854.96	73.125
855.13	67.039
855.30	47.771
855.47	46.154
855.64	63.889
855.81	47.273
855.98	50.459
856.15	59.116
856.32	50.000
856.49	66.443
856.66	78.448
856.83	51.908
857.00	52.096
857.17	67.059
857.34	69.178
857.51	68.142
857.68	58.621
857.85	40.323
858.02	53.552
858.19	38.621
858.36	57.955
858.53	54.110
858.70	40.496
858.87	39.844
859.04	61.935
859.21	50.000
859.38	60.000
859.55	51.748
859.72	34.591
859.89	62.687
860.05	45.570
860.22	48.634
860.39	73.611
860.56	66.332
860.73	50.289
860.90	82.192
861.07	64.706
861.24	60.465
861.41	63.861
861.58	39.779
861.75	45.669
861.92	75.497
862.09	19.697
862.26	62.821
862.43	57.669
862.59	53.804
862.76	65.455
862.93	90.741
863.10	56.364
863.27	59.091
863.44	37.374
863.61	47.260
863.78	65.625
863.95	71.282
864.12	71.111
864.29	48.603
864.45	65.217
864.62	37.143
864.79	40.426
864.96	59.821
865.13	54.070
865.30	84.762
865.47	66.154
865.64	85.149
865.81	47.514
865.97	34.973
866.14	92.187
866.31	60.526
866.48	35.821
866.65	42.029
866.82	56.000
866.99	56.621
867.16	18.487
867.33	48.592
867.49	61.988
867.66	55.280
867.83	45.946
868.00	46.734
868.17	58.871
868.34	74.658
868.51	59.048
868.67	74.510
868.84	66.116
869.01	45.000
869.18	39.375
869.35	30.675
869.52	57.500
869.69	55.030
869.85	66.667
870.02	45.946
870.19	73.759
870.36	65.217
870.53	51.240
870.70	83.333
870.86	70.536
871.03	47.771
871.20	67.822
871.37	57.419
871.54	75.000
871.71	35.465
871.87	26.718
872.04	60.804
872.21	60.116
872.38	70.000
872.55	69.504
872.72	53.140
872.88	42.138
873.05	61.635
873.22	33.929
873.39	48.125
873.56	46.784
873.72	56.303
873.89	63.253
874.06	57.143
874.23	53.165
874.40	57.798
874.56	51.087
874.73	38.136
874.90	43.827
875.07	59.477
875.24	35.673
875.40	60.769
875.57	65.672
875.74	73.718
875.91	35.294
876.08	32.653
876.24	53.636
876.41	68.000
876.58	54.386
876.75	0.000
876.92	37.267
877.08	55.556
877.25	38.000
877.42	33.557
877.59	78.916
877.75	69.519
877.92	64.463
878.09	46.400
878.26	60.000
878.42	33.766
878.59	48.315
878.76	36.932
878.93	52.299
879.09	63.277
879.26	61.538
879.43	53.731
879.60	47.525
879.76	45.876
879.93	42.745
880.10	33.333
880.27	29.362
880.43	23.113
880.60	48.106
880.77	18.894
880.94	44.702
881.10	18.060
881.27	19.420
881.44	17.794
881.61	13.853
881.77	17.565
881.94	17.799
882.11	14.660
882.28	14.286
882.44	11.658
882.61	10.618
882.78	16.342
882.94	12.907
883.11	13.825
883.28	12.098
883.45	12.291
883.61	11.089
883.78	9.572
883.95	10.726
884.11	10.746
884.28	11.580
>>>>>End Processed Spectral Data<<<<<
