SpectraSuite Data File
++++++++++++++++++++++++++++++++++++
Date: Wed Sep 18 03:39:06 EST 2019
User: sgrac
Dark Spectrum Present: Yes
Reference Spectrum Present: Yes
Number of Sampled Component Spectra: 1
Spectrometers: USB4E01596
Integration Time (usec): 100000 (USB4E01596)
Spectra Averaged: 3 (USB4E01596)
Boxcar Smoothing: 0 (USB4E01596)
Correct for Electrical Dark: No (USB4E01596)
Strobe/Lamp Enabled: Yes (USB4E01596)
Correct for Detector Non-linearity: No (USB4E01596)
Correct for Stray Light: No (USB4E01596)
Number of Pixels in Processed Spectrum: 3648
>>>>>Begin Processed Spectral Data<<<<<
178.44	-96.774
178.66	-96.774
178.87	-96.774
179.09	-110.000
179.30	241.304
179.52	613.158
179.74	-1494.444
179.95	-1500.000
180.17	562.791
180.38	-473.333
180.60	264.286
180.82	1418.750
181.03	358.140
181.25	-1628.571
181.46	-517.500
181.68	-474.419
181.89	508.163
182.11	492.500
182.33	466.667
182.54	496.491
182.76	1165.217
182.97	1871.429
183.19	239.130
183.40	239.773
183.62	392.308
183.84	277.419
184.05	857.576
184.27	355.738
184.48	2987.500
184.70	686.111
184.91	517.391
185.13	-778.125
185.34	-351.667
185.56	-530.303
185.78	1461.111
185.99	386.885
186.21	451.220
186.42	-1740.000
186.64	250.000
186.85	1325.000
187.07	409.524
187.28	590.476
187.50	-1017.647
187.72	444.000
187.93	408.434
188.15	454.412
188.36	-1582.353
188.58	320.779
188.79	-12600.000
189.01	131.973
189.22	368.831
189.44	729.167
189.65	310.112
189.87	313.158
190.09	272.340
190.30	843.333
190.52	1375.000
190.73	316.867
190.95	936.364
191.16	370.149
191.38	-23400.000
191.59	606.522
191.81	352.857
192.02	-551.282
192.24	496.774
192.45	328.889
192.67	354.545
192.88	298.438
193.10	497.727
193.31	383.929
193.53	358.065
193.74	724.242
193.96	393.220
194.18	-717.391
194.39	543.137
194.61	934.483
194.82	996.154
195.04	431.111
195.25	518.033
195.47	-4250.000
195.68	352.113
195.90	271.429
196.11	470.833
196.33	1611.765
196.54	567.442
196.76	-856.000
196.97	269.000
197.19	1010.000
197.40	249.624
197.62	-493.939
197.83	425.000
198.05	208.054
198.26	-836.000
198.48	522.222
198.69	257.798
198.91	275.362
199.12	-1625.000
199.34	760.000
199.55	20400.000
199.77	282.895
199.98	4566.667
200.20	605.882
200.41	369.014
200.63	444.444
200.84	1223.810
201.06	548.387
201.27	277.778
201.49	350.000
201.70	432.787
201.91	620.455
202.13	1355.000
202.34	-537.143
202.56	443.333
202.77	-195.349
202.99	360.976
203.20	576.596
203.42	351.429
203.63	199.083
203.85	-686.207
204.06	613.636
204.28	1126.667
204.49	372.093
204.71	238.655
204.92	930.769
205.14	1063.158
205.35	4875.000
205.56	416.901
205.78	409.877
205.99	196.947
206.21	227.273
206.42	560.870
206.64	776.471
206.85	305.556
207.07	565.714
207.28	206.818
207.50	947.826
207.71	516.279
207.93	475.000
208.14	569.767
208.35	347.458
208.57	356.000
208.78	259.574
209.00	252.688
209.21	229.577
209.43	350.000
209.64	965.385
209.86	1190.909
210.07	388.608
210.28	209.639
210.50	391.304
210.71	377.273
210.93	429.091
211.14	470.000
211.36	661.905
211.57	200.000
211.78	1057.692
212.00	664.865
212.21	2366.667
212.43	1976.923
212.64	740.625
212.86	319.091
213.07	515.385
213.29	226.531
213.50	405.000
213.71	287.500
213.93	266.292
214.14	465.625
214.36	534.146
214.57	328.571
214.78	6375.000
215.00	226.829
215.21	455.556
215.43	-4140.000
215.64	291.429
215.86	373.529
216.07	264.384
216.28	448.000
216.50	300.000
216.71	1240.000
216.93	-22900.000
217.14	1226.316
217.35	-333.898
217.57	267.045
217.78	727.586
218.00	196.190
218.21	279.412
218.42	-5500.000
218.64	750.000
218.85	313.235
219.07	397.674
219.28	433.333
219.49	-8400.000
219.71	352.239
219.92	415.789
220.14	-16800.000
220.35	324.658
220.56	315.217
220.78	251.220
220.99	-362.222
221.21	313.253
221.42	187.500
221.63	953.846
221.85	-670.000
222.06	227.273
222.28	-532.143
222.49	407.018
222.70	207.759
222.92	478.947
223.13	195.890
223.34	2033.333
223.56	200.000
223.77	235.802
223.99	211.111
224.20	217.857
224.41	159.091
224.63	169.318
224.84	186.290
225.05	232.787
225.27	356.364
225.48	191.463
225.69	335.937
225.91	436.923
226.12	296.000
226.34	199.020
226.55	191.509
226.76	178.295
226.98	232.051
227.19	100.000
227.40	163.380
227.62	135.385
227.83	60.952
228.04	111.351
228.26	138.514
228.47	55.769
228.69	62.623
228.90	44.959
229.11	51.404
229.33	59.326
229.54	38.224
229.75	31.418
229.97	26.565
230.18	29.223
230.39	32.626
230.61	23.299
230.82	40.143
231.03	21.178
231.25	35.320
231.46	34.335
231.67	31.455
231.89	31.516
232.10	42.808
232.31	33.396
232.53	68.889
232.74	46.586
232.95	51.683
233.17	43.488
233.38	39.480
233.59	59.382
233.81	52.026
234.02	46.686
234.23	45.313
234.45	41.061
234.66	53.218
234.87	46.292
235.09	47.129
235.30	43.216
235.51	50.627
235.73	48.456
235.94	46.849
236.15	48.827
236.36	58.202
236.58	39.205
236.79	36.940
237.00	38.734
237.22	57.827
237.43	54.088
237.64	41.532
237.86	43.902
238.07	52.116
238.28	55.579
238.50	44.376
238.71	50.769
238.92	40.091
239.13	41.239
239.35	50.464
239.56	58.811
239.77	64.844
239.99	39.451
240.20	59.583
240.41	32.179
240.63	37.132
240.84	44.719
241.05	30.222
241.26	40.276
241.48	39.655
241.69	37.634
241.90	14.851
242.12	24.575
242.33	19.597
242.54	17.385
242.75	22.644
242.97	20.607
243.18	14.216
243.39	11.446
243.61	14.727
243.82	15.064
244.03	17.811
244.24	15.591
244.46	12.100
244.67	16.965
244.88	15.826
245.09	16.511
245.31	11.514
245.52	14.718
245.73	21.542
245.95	29.701
246.16	25.697
246.37	18.271
246.58	20.525
246.80	23.200
247.01	15.682
247.22	15.942
247.43	11.990
247.65	13.164
247.86	8.714
248.07	8.655
248.28	9.424
248.50	10.786
248.71	8.985
248.92	8.488
249.13	8.613
249.35	8.852
249.56	7.871
249.77	7.195
249.98	12.175
250.20	10.152
250.41	14.750
250.62	11.782
250.83	17.915
251.05	17.367
251.26	14.587
251.47	15.445
251.68	18.571
251.90	13.210
252.11	13.995
252.32	23.983
252.53	24.204
252.75	12.317
252.96	16.334
253.17	17.375
253.38	14.040
253.59	16.685
253.81	13.018
254.02	15.702
254.23	12.953
254.44	19.154
254.66	17.551
254.87	13.905
255.08	14.307
255.29	18.419
255.50	17.827
255.72	22.202
255.93	22.201
256.14	22.807
256.35	20.555
256.57	19.550
256.78	23.636
256.99	16.906
257.20	21.063
257.41	15.938
257.63	14.476
257.84	24.414
258.05	17.932
258.26	14.342
258.47	21.942
258.69	20.185
258.90	13.019
259.11	10.056
259.32	14.784
259.53	12.131
259.75	8.574
259.96	9.670
260.17	11.426
260.38	9.947
260.59	8.146
260.81	6.897
261.02	7.539
261.23	8.519
261.44	7.322
261.65	5.423
261.87	7.064
262.08	7.563
262.29	8.500
262.50	6.433
262.71	7.466
262.92	5.260
263.14	8.599
263.35	11.941
263.56	11.480
263.77	12.415
263.98	12.532
264.20	13.166
264.41	13.397
264.62	10.100
264.83	9.804
265.04	17.553
265.25	10.244
265.47	15.805
265.68	17.865
265.89	14.371
266.10	10.491
266.31	12.921
266.52	12.575
266.74	14.569
266.95	10.394
267.16	10.250
267.37	11.727
267.58	10.539
267.79	11.060
268.01	10.013
268.22	6.355
268.43	10.849
268.64	8.242
268.85	11.776
269.06	10.795
269.27	10.731
269.49	7.278
269.70	11.380
269.91	12.204
270.12	11.959
270.33	14.298
270.54	10.116
270.75	10.724
270.97	10.811
271.18	9.122
271.39	10.693
271.60	10.045
271.81	7.863
272.02	9.796
272.23	7.909
272.45	8.304
272.66	7.646
272.87	8.435
273.08	7.714
273.29	9.688
273.50	5.403
273.71	5.985
273.92	7.613
274.14	8.269
274.35	9.580
274.56	10.846
274.77	7.904
274.98	9.704
275.19	9.506
275.40	11.146
275.61	7.034
275.83	7.832
276.04	7.319
276.25	12.161
276.46	7.937
276.67	12.213
276.88	8.173
277.09	10.274
277.30	11.599
277.51	10.743
277.73	8.784
277.94	10.027
278.15	11.145
278.36	12.044
278.57	8.739
278.78	9.014
278.99	7.416
279.20	14.144
279.41	13.078
279.62	8.382
279.84	10.528
280.05	10.818
280.26	12.279
280.47	10.111
280.68	6.678
280.89	6.643
281.10	9.301
281.31	9.489
281.52	10.767
281.73	8.097
281.94	8.492
282.16	9.205
282.37	10.257
282.58	9.818
282.79	7.133
283.00	8.431
283.21	8.420
283.42	6.398
283.63	10.061
283.84	9.390
284.05	8.296
284.26	7.879
284.47	9.099
284.68	6.027
284.89	7.760
285.11	7.064
285.32	8.935
285.53	8.689
285.74	9.783
285.95	7.831
286.16	8.225
286.37	5.387
286.58	6.414
286.79	5.700
287.00	4.960
287.21	6.210
287.42	4.713
287.63	8.272
287.84	7.148
288.05	6.405
288.26	6.192
288.48	9.392
288.69	5.220
288.90	9.418
289.11	7.403
289.32	9.815
289.53	7.589
289.74	6.215
289.95	7.117
290.16	6.308
290.37	8.264
290.58	6.696
290.79	5.633
291.00	7.172
291.21	8.048
291.42	5.791
291.63	4.723
291.84	6.678
292.05	4.908
292.26	6.489
292.47	7.078
292.68	3.981
292.89	7.008
293.10	8.213
293.31	6.771
293.52	7.660
293.73	5.398
293.94	7.585
294.15	6.229
294.36	5.789
294.57	7.490
294.79	6.871
295.00	4.761
295.21	9.060
295.42	7.655
295.63	8.638
295.84	3.732
296.05	6.064
296.26	7.536
296.47	7.240
296.68	5.213
296.89	8.063
297.10	5.906
297.31	7.610
297.52	5.610
297.73	5.413
297.94	3.858
298.15	5.443
298.36	3.733
298.57	4.531
298.78	5.945
298.99	5.360
299.20	5.774
299.41	5.263
299.62	4.609
299.83	6.072
300.04	6.099
300.25	6.349
300.46	5.940
300.67	8.306
300.88	5.470
301.09	4.780
301.30	6.398
301.50	6.100
301.71	7.744
301.92	7.976
302.13	5.065
302.34	6.415
302.55	6.719
302.76	5.991
302.97	6.359
303.18	5.571
303.39	9.009
303.60	7.375
303.81	6.916
304.02	5.482
304.23	6.806
304.44	7.190
304.65	5.488
304.86	8.432
305.07	6.357
305.28	7.631
305.49	6.677
305.70	6.911
305.91	6.420
306.12	3.954
306.33	5.041
306.54	8.487
306.75	8.385
306.96	8.987
307.17	5.593
307.38	6.466
307.58	4.465
307.79	7.423
308.00	7.196
308.21	5.604
308.42	3.386
308.63	8.994
308.84	7.356
309.05	7.493
309.26	6.005
309.47	9.263
309.68	5.104
309.89	7.477
310.10	5.546
310.31	5.318
310.52	5.895
310.73	7.535
310.94	4.847
311.14	5.516
311.35	4.944
311.56	6.582
311.77	4.995
311.98	4.220
312.19	5.685
312.40	4.929
312.61	3.189
312.82	6.470
313.03	6.099
313.24	4.639
313.45	6.063
313.66	6.082
313.86	6.921
314.07	4.605
314.28	6.030
314.49	4.311
314.70	5.777
314.91	7.108
315.12	6.979
315.33	7.915
315.54	6.310
315.75	5.934
315.96	6.235
316.16	6.417
316.37	8.883
316.58	8.261
316.79	7.293
317.00	8.386
317.21	5.628
317.42	9.181
317.63	5.599
317.84	7.055
318.05	8.349
318.25	7.895
318.46	5.695
318.67	5.392
318.88	8.349
319.09	7.636
319.30	7.775
319.51	7.338
319.72	7.042
319.93	7.310
320.13	7.388
320.34	7.909
320.55	5.543
320.76	9.024
320.97	8.338
321.18	8.466
321.39	5.859
321.60	8.272
321.80	10.032
322.01	8.493
322.22	9.647
322.43	6.778
322.64	9.078
322.85	5.972
323.06	7.437
323.27	9.484
323.47	9.298
323.68	9.933
323.89	7.526
324.10	6.539
324.31	6.096
324.52	9.463
324.73	5.932
324.93	6.772
325.14	5.735
325.35	8.206
325.56	6.991
325.77	8.183
325.98	5.970
326.19	6.548
326.39	3.999
326.60	4.997
326.81	4.059
327.02	6.351
327.23	6.715
327.44	10.278
327.64	6.112
327.85	6.817
328.06	5.680
328.27	9.503
328.48	7.990
328.69	4.566
328.90	5.899
329.10	6.053
329.31	5.482
329.52	7.514
329.73	8.319
329.94	7.045
330.15	8.868
330.35	8.002
330.56	8.109
330.77	8.363
330.98	7.742
331.19	7.340
331.39	6.682
331.60	8.530
331.81	6.925
332.02	7.207
332.23	7.527
332.44	6.660
332.64	8.718
332.85	7.148
333.06	9.864
333.27	7.754
333.48	7.148
333.68	7.359
333.89	8.065
334.10	6.981
334.31	9.008
334.52	9.336
334.72	8.124
334.93	8.554
335.14	6.537
335.35	7.995
335.56	9.302
335.76	7.108
335.97	9.915
336.18	7.209
336.39	10.997
336.60	10.535
336.80	8.891
337.01	9.294
337.22	9.608
337.43	10.144
337.64	11.482
337.84	10.541
338.05	8.818
338.26	11.456
338.47	11.730
338.68	8.183
338.88	11.373
339.09	11.746
339.30	12.065
339.51	10.592
339.71	13.867
339.92	9.588
340.13	12.458
340.34	11.615
340.55	11.749
340.75	12.049
340.96	11.162
341.17	13.946
341.38	12.854
341.58	14.479
341.79	16.832
342.00	11.305
342.21	14.601
342.41	12.392
342.62	16.509
342.83	15.799
343.04	11.560
343.24	17.659
343.45	19.178
343.66	16.861
343.87	17.192
344.07	16.298
344.28	21.381
344.49	19.221
344.70	22.490
344.90	17.664
345.11	15.822
345.32	19.859
345.53	20.769
345.73	21.158
345.94	23.891
346.15	23.576
346.36	23.095
346.56	22.141
346.77	26.556
346.98	24.827
347.19	24.177
347.39	24.473
347.60	25.225
347.81	25.474
348.02	26.985
348.22	22.238
348.43	25.253
348.64	26.608
348.84	28.270
349.05	26.621
349.26	28.322
349.47	24.565
349.67	27.809
349.88	27.860
350.09	28.229
350.30	32.525
350.50	30.279
350.71	31.841
350.92	30.012
351.12	28.358
351.33	28.905
351.54	29.051
351.74	30.008
351.95	26.940
352.16	30.798
352.37	31.062
352.57	31.668
352.78	29.626
352.99	31.634
353.19	29.779
353.40	33.112
353.61	34.349
353.82	33.431
354.02	32.859
354.23	33.749
354.44	36.051
354.64	32.322
354.85	33.919
355.06	35.640
355.26	30.720
355.47	35.282
355.68	35.354
355.88	35.375
356.09	32.612
356.30	33.477
356.51	33.369
356.71	33.726
356.92	33.745
357.13	35.546
357.33	37.060
357.54	33.715
357.75	30.791
357.95	35.434
358.16	32.932
358.37	35.725
358.57	32.096
358.78	37.281
358.99	35.479
359.19	32.347
359.40	36.767
359.61	35.276
359.81	35.600
360.02	36.923
360.23	33.755
360.43	35.877
360.64	34.924
360.85	35.218
361.05	32.968
361.26	36.018
361.47	34.303
361.67	35.757
361.88	31.986
362.09	35.668
362.29	31.548
362.50	34.260
362.70	33.108
362.91	33.650
363.12	34.128
363.32	34.623
363.53	34.562
363.74	36.302
363.94	32.887
364.15	36.169
364.36	35.365
364.56	33.770
364.77	34.557
364.98	37.152
365.18	33.310
365.39	36.063
365.59	31.812
365.80	33.503
366.01	31.870
366.21	34.215
366.42	32.927
366.63	35.163
366.83	33.847
367.04	31.011
367.24	33.319
367.45	34.423
367.66	32.187
367.86	33.283
368.07	32.993
368.28	33.343
368.48	32.647
368.69	31.403
368.89	33.022
369.10	33.842
369.31	31.849
369.51	34.956
369.72	32.963
369.92	35.585
370.13	30.256
370.34	33.207
370.54	27.894
370.75	32.179
370.95	29.389
371.16	32.857
371.37	30.939
371.57	32.047
371.78	31.163
371.98	30.693
372.19	31.887
372.40	32.088
372.60	30.380
372.81	31.106
373.01	30.097
373.22	30.994
373.43	31.041
373.63	31.519
373.84	32.291
374.04	30.890
374.25	30.807
374.46	32.137
374.66	31.485
374.87	32.249
375.07	28.204
375.28	30.182
375.48	30.215
375.69	31.658
375.90	27.363
376.10	28.021
376.31	28.986
376.51	29.298
376.72	28.475
376.92	28.803
377.13	30.028
377.34	29.444
377.54	28.038
377.75	29.031
377.95	28.127
378.16	28.619
378.36	28.325
378.57	30.574
378.77	28.689
378.98	29.191
379.19	28.285
379.39	28.428
379.60	28.661
379.80	28.336
380.01	28.129
380.21	28.723
380.42	28.612
380.62	28.843
380.83	28.664
381.04	27.740
381.24	28.658
381.45	29.371
381.65	27.605
381.86	28.183
382.06	28.916
382.27	26.235
382.47	26.732
382.68	28.602
382.88	25.964
383.09	26.240
383.29	27.757
383.50	28.096
383.71	26.149
383.91	28.207
384.12	25.968
384.32	27.580
384.53	25.670
384.73	25.649
384.94	25.177
385.14	25.998
385.35	25.129
385.55	27.177
385.76	25.704
385.96	26.474
386.17	25.968
386.37	27.288
386.58	26.349
386.78	27.782
386.99	25.728
387.19	27.490
387.40	25.008
387.60	27.858
387.81	25.210
388.01	25.796
388.22	26.787
388.42	27.731
388.63	26.874
388.83	27.066
389.04	24.485
389.24	27.103
389.45	25.222
389.65	24.496
389.86	25.008
390.06	24.583
390.27	24.351
390.47	25.988
390.68	24.604
390.88	27.427
391.09	25.691
391.29	26.852
391.50	24.760
391.70	25.639
391.91	24.702
392.11	25.353
392.32	25.059
392.52	24.714
392.73	24.818
392.93	26.117
393.14	25.522
393.34	25.558
393.55	25.531
393.75	25.143
393.95	25.060
394.16	26.398
394.36	24.735
394.57	25.449
394.77	25.051
394.98	24.867
395.18	25.677
395.39	24.339
395.59	23.912
395.80	26.072
396.00	23.466
396.21	25.860
396.41	23.980
396.61	25.652
396.82	24.856
397.02	25.844
397.23	25.165
397.43	24.797
397.64	22.463
397.84	25.730
398.05	21.842
398.25	24.876
398.45	22.770
398.66	24.790
398.86	24.062
399.07	26.341
399.27	22.221
399.48	23.508
399.68	23.640
399.89	22.983
400.09	23.444
400.29	23.248
400.50	22.903
400.70	23.811
400.91	23.104
401.11	23.049
401.32	24.863
401.52	23.722
401.72	23.166
401.93	23.973
402.13	23.422
402.34	24.277
402.54	22.857
402.75	26.183
402.95	21.537
403.15	24.642
403.36	22.391
403.56	23.739
403.77	21.533
403.97	22.741
404.17	20.681
404.38	23.643
404.58	22.068
404.79	23.442
404.99	23.221
405.19	22.722
405.40	22.295
405.60	23.481
405.81	22.922
406.01	22.911
406.21	21.659
406.42	21.887
406.62	22.262
406.83	22.505
407.03	22.162
407.23	21.680
407.44	21.921
407.64	21.824
407.85	20.899
408.05	21.997
408.25	22.243
408.46	23.029
408.66	22.139
408.87	22.335
409.07	21.240
409.27	20.436
409.48	20.499
409.68	21.815
409.88	20.543
410.09	21.082
410.29	21.775
410.50	23.047
410.70	20.212
410.90	21.370
411.11	20.190
411.31	22.299
411.51	21.453
411.72	21.558
411.92	21.287
412.12	21.355
412.33	20.523
412.53	20.682
412.74	19.537
412.94	20.785
413.14	20.352
413.35	20.458
413.55	20.729
413.75	21.237
413.96	20.131
414.16	20.529
414.36	20.953
414.57	21.368
414.77	19.856
414.97	20.858
415.18	19.984
415.38	20.777
415.58	20.257
415.79	19.984
415.99	19.119
416.19	20.852
416.40	19.465
416.60	21.631
416.80	19.379
417.01	20.130
417.21	19.053
417.41	21.605
417.62	20.711
417.82	20.299
418.02	19.206
418.23	20.424
418.43	19.932
418.63	20.633
418.84	20.428
419.04	19.351
419.24	20.244
419.45	20.154
419.65	20.466
419.85	20.314
420.06	19.884
420.26	20.389
420.46	19.661
420.67	20.410
420.87	19.834
421.07	20.441
421.28	20.005
421.48	19.402
421.68	19.696
421.88	20.101
422.09	20.165
422.29	19.794
422.49	20.311
422.70	19.976
422.90	19.817
423.10	19.500
423.31	20.106
423.51	19.715
423.71	19.555
423.91	19.866
424.12	19.961
424.32	19.819
424.52	19.574
424.73	19.380
424.93	19.868
425.13	19.502
425.33	19.136
425.54	19.026
425.74	19.511
425.94	19.526
426.15	19.290
426.35	19.617
426.55	20.010
426.75	19.894
426.96	19.529
427.16	19.777
427.36	19.911
427.57	20.493
427.77	19.782
427.97	19.777
428.17	19.982
428.38	19.814
428.58	18.671
428.78	20.306
428.98	18.386
429.19	19.571
429.39	18.256
429.59	19.431
429.79	19.033
430.00	18.682
430.20	18.020
430.40	19.015
430.60	18.496
430.81	18.220
431.01	17.853
431.21	18.704
431.41	17.990
431.62	18.410
431.82	18.353
432.02	18.837
432.22	18.740
432.43	18.152
432.63	18.273
432.83	18.898
433.03	17.853
433.24	18.016
433.44	18.398
433.64	18.239
433.84	18.490
434.05	18.531
434.25	18.833
434.45	18.297
434.65	18.478
434.85	18.801
435.06	18.403
435.26	18.977
435.46	18.136
435.66	18.704
435.87	18.463
436.07	18.699
436.27	18.451
436.47	18.717
436.67	18.752
436.88	18.846
437.08	18.984
437.28	18.778
437.48	18.661
437.69	18.960
437.89	18.197
438.09	18.541
438.29	18.257
438.49	18.806
438.70	18.100
438.90	18.285
439.10	18.104
439.30	18.256
439.50	17.898
439.71	18.245
439.91	17.831
440.11	18.540
440.31	18.088
440.51	18.163
440.72	18.087
440.92	18.706
441.12	17.781
441.32	18.835
441.52	18.198
441.72	18.539
441.93	18.375
442.13	18.636
442.33	18.131
442.53	18.617
442.73	18.282
442.94	18.143
443.14	18.045
443.34	18.807
443.54	18.543
443.74	18.886
443.94	18.602
444.15	18.770
444.35	18.270
444.55	18.536
444.75	17.965
444.95	18.511
445.15	17.802
445.36	18.212
445.56	17.356
445.76	17.852
445.96	17.813
446.16	17.905
446.36	17.478
446.57	18.062
446.77	17.885
446.97	17.978
447.17	17.936
447.37	17.990
447.57	18.210
447.77	18.092
447.98	18.133
448.18	18.251
448.38	18.469
448.58	18.275
448.78	18.370
448.98	18.222
449.18	18.275
449.39	18.558
449.59	18.245
449.79	18.777
449.99	18.574
450.19	18.780
450.39	18.686
450.59	18.704
450.79	18.379
451.00	18.453
451.20	18.923
451.40	18.425
451.60	18.145
451.80	18.404
452.00	18.124
452.20	18.364
452.40	17.678
452.61	18.252
452.81	17.504
453.01	17.504
453.21	18.175
453.41	18.356
453.61	17.908
453.81	17.878
454.01	18.295
454.21	17.879
454.42	17.648
454.62	17.626
454.82	18.203
455.02	18.107
455.22	17.870
455.42	18.012
455.62	17.889
455.82	17.708
456.02	17.182
456.23	18.540
456.43	18.031
456.63	18.152
456.83	17.205
457.03	18.671
457.23	17.466
457.43	18.204
457.63	16.929
457.83	18.086
458.03	16.941
458.23	18.059
458.43	17.274
458.64	17.716
458.84	17.917
459.04	17.755
459.24	17.868
459.44	17.512
459.64	17.291
459.84	17.474
460.04	17.014
460.24	16.994
460.44	17.159
460.64	17.799
460.84	17.285
461.04	17.308
461.24	17.426
461.45	18.057
461.65	17.553
461.85	17.685
462.05	17.559
462.25	18.298
462.45	17.977
462.65	17.807
462.85	17.246
463.05	17.754
463.25	17.297
463.45	18.027
463.65	17.992
463.85	17.932
464.05	18.011
464.25	17.607
464.45	18.081
464.65	17.785
464.85	17.293
465.05	17.354
465.26	17.125
465.46	17.524
465.66	17.780
465.86	17.715
466.06	17.143
466.26	17.237
466.46	16.501
466.66	17.593
466.86	16.958
467.06	16.934
467.26	16.637
467.46	17.942
467.66	17.495
467.86	17.153
468.06	17.116
468.26	17.328
468.46	17.348
468.66	18.031
468.86	16.959
469.06	18.284
469.26	17.145
469.46	17.805
469.66	16.830
469.86	17.591
470.06	17.095
470.26	17.381
470.46	16.832
470.66	17.867
470.86	17.170
471.06	17.132
471.26	16.647
471.46	17.006
471.66	17.336
471.86	17.098
472.06	17.125
472.26	18.058
472.46	17.021
472.66	17.297
472.86	17.159
473.06	17.664
473.26	16.860
473.46	17.056
473.66	17.269
473.86	17.421
474.06	17.283
474.26	17.015
474.46	16.964
474.66	17.674
474.86	17.284
475.06	17.517
475.26	16.959
475.46	17.539
475.66	17.216
475.86	17.262
476.06	18.119
476.26	17.615
476.46	17.287
476.66	17.563
476.86	16.773
477.06	17.214
477.26	17.219
477.46	17.391
477.65	17.146
477.85	18.162
478.05	17.072
478.25	17.845
478.45	17.292
478.65	17.570
478.85	17.093
479.05	17.383
479.25	17.245
479.45	17.495
479.65	17.140
479.85	17.480
480.05	17.598
480.25	17.410
480.45	16.891
480.65	17.722
480.85	17.670
481.05	18.017
481.25	17.929
481.44	17.978
481.64	17.001
481.84	17.750
482.04	17.804
482.24	17.595
482.44	17.409
482.64	17.392
482.84	17.188
483.04	17.306
483.24	16.987
483.44	17.116
483.64	16.544
483.84	16.676
484.04	16.861
484.23	16.942
484.43	16.907
484.63	17.170
484.83	17.140
485.03	17.388
485.23	17.701
485.43	17.535
485.63	17.769
485.83	17.969
486.03	18.006
486.23	18.106
486.42	18.131
486.62	17.992
486.82	17.827
487.02	17.881
487.22	17.458
487.42	17.307
487.62	17.247
487.82	17.333
488.02	17.141
488.22	17.216
488.41	17.291
488.61	17.419
488.81	17.238
489.01	17.555
489.21	17.727
489.41	17.649
489.61	17.752
489.81	18.050
490.01	18.017
490.20	17.944
490.40	17.828
490.60	17.781
490.80	17.770
491.00	17.895
491.20	17.577
491.40	17.210
491.60	17.122
491.79	17.082
491.99	16.963
492.19	17.597
492.39	17.648
492.59	17.276
492.79	17.297
492.99	17.467
493.19	17.937
493.38	17.920
493.58	17.645
493.78	18.026
493.98	18.259
494.18	18.413
494.38	18.007
494.58	18.267
494.77	17.936
494.97	18.073
495.17	17.852
495.37	17.782
495.57	17.835
495.77	18.022
495.96	18.139
496.16	17.814
496.36	18.062
496.56	17.776
496.76	17.585
496.96	17.982
497.15	17.639
497.35	17.629
497.55	17.699
497.75	18.001
497.95	17.860
498.15	17.454
498.34	17.646
498.54	17.850
498.74	17.845
498.94	18.255
499.14	17.863
499.34	17.833
499.53	18.005
499.73	17.984
499.93	17.714
500.13	17.817
500.33	17.815
500.52	18.315
500.72	17.944
500.92	18.234
501.12	18.169
501.32	17.900
501.52	18.311
501.71	18.459
501.91	18.019
502.11	18.174
502.31	18.275
502.51	18.160
502.70	18.421
502.90	17.778
503.10	17.971
503.30	18.297
503.50	17.676
503.69	18.782
503.89	18.515
504.09	18.226
504.29	18.397
504.48	18.395
504.68	17.830
504.88	18.675
505.08	18.290
505.28	18.556
505.47	18.259
505.67	18.455
505.87	18.555
506.07	18.271
506.27	18.761
506.46	18.189
506.66	18.326
506.86	18.372
507.06	18.644
507.25	18.508
507.45	18.694
507.65	18.523
507.85	18.163
508.04	18.948
508.24	18.260
508.44	18.359
508.64	18.258
508.83	18.765
509.03	18.009
509.23	18.810
509.43	18.553
509.63	18.363
509.82	18.679
510.02	18.756
510.22	18.262
510.42	19.270
510.61	18.660
510.81	18.541
511.01	18.572
511.21	19.029
511.40	18.996
511.60	18.809
511.80	19.324
511.99	19.040
512.19	18.782
512.39	18.734
512.59	18.508
512.78	18.924
512.98	18.865
513.18	19.021
513.38	19.073
513.57	18.996
513.77	19.206
513.97	19.147
514.17	18.862
514.36	19.254
514.56	18.835
514.76	19.182
514.95	19.098
515.15	19.051
515.35	19.056
515.55	19.130
515.74	19.186
515.94	19.286
516.14	19.052
516.33	19.005
516.53	19.327
516.73	19.046
516.93	19.328
517.12	19.120
517.32	18.908
517.52	19.106
517.71	19.035
517.91	18.872
518.11	19.033
518.30	18.995
518.50	18.788
518.70	18.973
518.90	19.339
519.09	18.691
519.29	19.008
519.49	19.123
519.68	18.935
519.88	19.181
520.08	19.007
520.27	19.067
520.47	19.412
520.67	19.409
520.86	19.540
521.06	19.759
521.26	19.531
521.45	19.936
521.65	19.714
521.85	19.794
522.04	19.070
522.24	19.201
522.44	19.577
522.63	19.489
522.83	19.278
523.03	19.602
523.22	19.673
523.42	19.972
523.62	19.776
523.81	19.488
524.01	19.444
524.21	19.839
524.40	19.372
524.60	19.377
524.80	19.466
524.99	19.594
525.19	19.614
525.39	19.038
525.58	19.460
525.78	19.349
525.98	19.290
526.17	19.427
526.37	19.641
526.57	19.582
526.76	19.474
526.96	19.187
527.15	19.886
527.35	19.910
527.55	19.775
527.74	19.788
527.94	19.409
528.14	19.039
528.33	19.027
528.53	18.974
528.72	18.950
528.92	19.360
529.12	19.455
529.31	19.288
529.51	19.409
529.71	19.439
529.90	19.926
530.10	19.954
530.29	19.897
530.49	19.848
530.69	20.230
530.88	20.308
531.08	20.380
531.28	20.501
531.47	20.283
531.67	20.186
531.86	19.981
532.06	20.367
532.26	20.073
532.45	20.099
532.65	20.133
532.84	19.678
533.04	19.811
533.24	19.925
533.43	19.449
533.63	20.103
533.82	20.302
534.02	19.884
534.22	20.211
534.41	20.247
534.61	20.434
534.80	20.265
535.00	20.390
535.19	20.521
535.39	20.551
535.59	20.662
535.78	20.476
535.98	20.613
536.17	20.970
536.37	20.362
536.57	20.605
536.76	20.542
536.96	20.357
537.15	20.574
537.35	20.391
537.54	20.523
537.74	20.746
537.93	21.076
538.13	20.672
538.33	20.927
538.52	21.140
538.72	21.446
538.91	21.497
539.11	21.262
539.30	21.173
539.50	21.521
539.70	20.870
539.89	21.075
540.09	21.047
540.28	20.793
540.48	20.815
540.67	20.937
540.87	21.262
541.06	20.971
541.26	20.646
541.45	20.942
541.65	21.024
541.85	21.241
542.04	20.957
542.24	21.037
542.43	21.270
542.63	21.119
542.82	21.264
543.02	21.672
543.21	21.894
543.41	21.772
543.60	22.114
543.80	22.225
543.99	22.074
544.19	22.251
544.38	21.990
544.58	22.067
544.77	22.062
544.97	22.446
545.16	22.345
545.36	21.857
545.56	22.495
545.75	22.533
545.95	22.841
546.14	22.860
546.34	22.583
546.53	22.363
546.73	22.523
546.92	22.669
547.12	22.557
547.31	22.600
547.51	22.623
547.70	22.936
547.90	22.917
548.09	23.108
548.29	22.794
548.48	22.878
548.68	23.451
548.87	23.951
549.07	24.025
549.26	23.958
549.46	23.685
549.65	23.780
549.84	24.060
550.04	24.048
550.23	24.206
550.43	24.300
550.62	24.586
550.82	24.486
551.01	24.147
551.21	24.439
551.40	24.169
551.60	24.085
551.79	24.384
551.99	24.644
552.18	23.860
552.38	24.989
552.57	24.511
552.77	25.471
552.96	25.022
553.16	24.796
553.35	24.633
553.54	25.143
553.74	25.101
553.93	25.602
554.13	25.699
554.32	25.368
554.52	26.078
554.71	25.965
554.91	25.253
555.10	26.651
555.29	26.581
555.49	26.775
555.68	25.941
555.88	26.243
556.07	26.394
556.27	26.098
556.46	26.772
556.66	26.600
556.85	26.844
557.04	26.951
557.24	26.751
557.43	26.636
557.63	26.632
557.82	27.639
558.02	27.173
558.21	27.416
558.40	28.123
558.60	28.011
558.79	27.155
558.99	27.827
559.18	28.119
559.38	27.633
559.57	28.450
559.76	28.399
559.96	28.470
560.15	28.533
560.35	28.210
560.54	28.613
560.73	28.891
560.93	28.722
561.12	28.877
561.32	29.160
561.51	30.141
561.70	29.244
561.90	29.474
562.09	28.961
562.29	29.511
562.48	29.722
562.67	29.569
562.87	30.194
563.06	30.155
563.26	30.961
563.45	30.288
563.64	30.302
563.84	30.520
564.03	30.682
564.23	30.659
564.42	31.343
564.61	30.729
564.81	32.004
565.00	31.282
565.20	31.742
565.39	31.694
565.58	30.877
565.78	30.979
565.97	31.734
566.16	31.392
566.36	31.192
566.55	31.363
566.74	31.792
566.94	32.217
567.13	31.430
567.33	31.995
567.52	31.958
567.71	32.593
567.91	32.758
568.10	32.609
568.29	31.997
568.49	32.836
568.68	33.729
568.87	33.656
569.07	33.134
569.26	33.378
569.45	32.842
569.65	32.947
569.84	33.493
570.04	33.570
570.23	33.237
570.42	33.399
570.62	33.282
570.81	33.418
571.00	33.164
571.20	33.699
571.39	33.829
571.58	33.741
571.78	34.109
571.97	34.218
572.16	33.625
572.36	33.596
572.55	33.412
572.74	34.538
572.94	34.212
573.13	34.038
573.32	34.513
573.51	34.053
573.71	34.676
573.90	34.661
574.09	34.312
574.29	33.933
574.48	34.678
574.67	34.373
574.87	34.732
575.06	34.259
575.25	34.621
575.45	34.880
575.64	34.541
575.83	34.255
576.03	34.927
576.22	34.837
576.41	35.333
576.60	35.241
576.80	34.986
576.99	35.354
577.18	35.374
577.38	35.382
577.57	35.743
577.76	34.908
577.95	35.901
578.15	35.286
578.34	36.219
578.53	35.744
578.73	34.735
578.92	35.704
579.11	35.392
579.30	35.173
579.50	35.161
579.69	35.363
579.88	34.825
580.08	35.523
580.27	36.192
580.46	35.632
580.65	35.585
580.85	35.691
581.04	35.646
581.23	34.943
581.42	35.677
581.62	35.512
581.81	35.769
582.00	35.149
582.19	34.976
582.39	35.276
582.58	35.829
582.77	35.954
582.96	35.038
583.16	34.735
583.35	35.708
583.54	35.621
583.73	35.586
583.93	35.624
584.12	34.921
584.31	35.235
584.50	35.118
584.70	35.325
584.89	35.422
585.08	35.001
585.27	35.936
585.47	34.846
585.66	34.987
585.85	34.964
586.04	36.071
586.24	35.581
586.43	34.274
586.62	34.490
586.81	34.534
587.00	34.613
587.20	35.070
587.39	34.072
587.58	34.052
587.77	35.355
587.97	34.701
588.16	35.512
588.35	35.100
588.54	35.230
588.73	34.295
588.93	35.153
589.12	34.162
589.31	35.558
589.50	34.428
589.69	34.889
589.89	34.797
590.08	33.955
590.27	34.929
590.46	34.787
590.65	34.545
590.85	34.153
591.04	34.331
591.23	34.889
591.42	34.337
591.61	34.739
591.81	34.698
592.00	34.732
592.19	34.994
592.38	34.418
592.57	34.694
592.77	34.856
592.96	35.136
593.15	35.295
593.34	34.966
593.53	34.667
593.72	34.810
593.92	34.460
594.11	34.645
594.30	33.980
594.49	34.360
594.68	34.471
594.87	34.754
595.07	34.782
595.26	34.308
595.45	34.331
595.64	35.050
595.83	36.278
596.02	35.374
596.22	34.976
596.41	34.974
596.60	35.359
596.79	34.701
596.98	34.697
597.17	34.934
597.37	35.033
597.56	35.401
597.75	34.714
597.94	35.235
598.13	35.952
598.32	35.598
598.51	35.863
598.71	35.550
598.90	35.667
599.09	35.911
599.28	36.809
599.47	36.310
599.66	36.297
599.85	36.061
600.05	36.668
600.24	36.455
600.43	37.532
600.62	36.358
600.81	36.653
601.00	37.366
601.19	36.638
601.38	36.537
601.58	37.083
601.77	37.309
601.96	36.615
602.15	36.954
602.34	37.249
602.53	37.352
602.72	36.366
602.91	36.888
603.10	37.713
603.30	37.010
603.49	36.953
603.68	36.283
603.87	36.363
604.06	36.967
604.25	37.424
604.44	37.047
604.63	36.191
604.82	36.395
605.01	37.085
605.21	37.225
605.40	36.478
605.59	36.911
605.78	37.023
605.97	36.820
606.16	36.487
606.35	37.199
606.54	37.837
606.73	36.775
606.92	36.994
607.11	37.733
607.30	37.104
607.50	37.392
607.69	36.943
607.88	36.371
608.07	37.487
608.26	36.654
608.45	36.908
608.64	37.331
608.83	36.049
609.02	37.199
609.21	35.480
609.40	36.444
609.59	36.238
609.78	35.744
609.97	36.208
610.16	35.742
610.35	36.016
610.55	36.061
610.74	35.903
610.93	35.585
611.12	35.563
611.31	36.574
611.50	36.507
611.69	36.601
611.88	35.859
612.07	35.985
612.26	36.273
612.45	36.388
612.64	35.842
612.83	35.891
613.02	36.302
613.21	35.161
613.40	35.307
613.59	36.410
613.78	35.061
613.97	35.527
614.16	35.111
614.35	35.752
614.54	35.181
614.73	35.010
614.92	34.552
615.11	34.800
615.30	34.796
615.49	34.747
615.68	34.657
615.87	34.962
616.07	33.652
616.26	34.123
616.45	34.251
616.64	34.080
616.83	34.827
617.02	34.773
617.21	34.204
617.40	34.086
617.59	33.614
617.78	34.004
617.97	33.802
618.16	33.824
618.35	32.515
618.54	33.333
618.73	32.905
618.92	33.765
619.11	32.599
619.30	33.130
619.49	31.984
619.68	33.099
619.86	32.979
620.05	32.696
620.24	33.110
620.43	32.951
620.62	32.243
620.81	32.536
621.00	33.126
621.19	32.918
621.38	31.985
621.57	32.869
621.76	32.469
621.95	32.275
622.14	32.050
622.33	32.536
622.52	32.328
622.71	32.108
622.90	32.052
623.09	32.464
623.28	31.110
623.47	33.356
623.66	32.375
623.85	31.740
624.04	32.030
624.23	32.374
624.42	31.310
624.61	31.334
624.80	32.192
624.99	31.686
625.18	31.492
625.36	32.604
625.55	32.195
625.74	32.288
625.93	30.791
626.12	31.530
626.31	31.765
626.50	32.188
626.69	31.290
626.88	31.674
627.07	30.553
627.26	31.999
627.45	31.417
627.64	30.911
627.83	31.112
628.02	30.678
628.20	31.132
628.39	31.783
628.58	31.107
628.77	31.596
628.96	30.979
629.15	30.592
629.34	30.826
629.53	31.251
629.72	30.117
629.91	32.065
630.10	31.299
630.29	31.016
630.47	31.078
630.66	30.992
630.85	30.701
631.04	31.448
631.23	30.944
631.42	31.281
631.61	30.769
631.80	30.460
631.99	31.168
632.18	30.257
632.36	30.485
632.55	31.496
632.74	30.351
632.93	30.348
633.12	30.685
633.31	30.277
633.50	30.767
633.69	31.071
633.88	30.561
634.06	30.908
634.25	30.459
634.44	29.806
634.63	30.329
634.82	29.926
635.01	30.505
635.20	28.988
635.39	30.565
635.57	30.300
635.76	30.605
635.95	30.571
636.14	30.025
636.33	30.431
636.52	29.430
636.71	30.036
636.89	29.213
637.08	31.158
637.27	29.545
637.46	30.638
637.65	30.511
637.84	30.812
638.03	29.512
638.21	31.162
638.40	29.575
638.59	30.860
638.78	29.317
638.97	30.716
639.16	30.022
639.34	30.350
639.53	29.347
639.72	29.602
639.91	29.687
640.10	29.746
640.29	31.337
640.47	31.529
640.66	29.164
640.85	31.111
641.04	29.825
641.23	29.881
641.42	29.228
641.60	30.091
641.79	30.010
641.98	30.140
642.17	29.188
642.36	30.431
642.54	29.230
642.73	30.167
642.92	29.195
643.11	30.746
643.30	28.481
643.49	30.971
643.67	28.294
643.86	29.146
644.05	28.515
644.24	29.172
644.43	29.389
644.61	30.237
644.80	29.675
644.99	30.502
645.18	30.050
645.37	30.081
645.55	28.653
645.74	29.943
645.93	28.504
646.12	29.731
646.31	29.426
646.49	28.656
646.68	29.593
646.87	28.820
647.06	29.499
647.24	29.905
647.43	29.001
647.62	29.578
647.81	28.783
648.00	28.488
648.18	29.202
648.37	28.700
648.56	28.618
648.75	30.066
648.93	28.324
649.12	29.621
649.31	28.486
649.50	29.454
649.68	28.497
649.87	28.745
650.06	27.483
650.25	28.696
650.43	28.060
650.62	28.863
650.81	27.548
651.00	28.092
651.18	28.206
651.37	29.018
651.56	28.472
651.75	29.889
651.93	27.399
652.12	29.387
652.31	27.669
652.50	28.050
652.68	28.632
652.87	29.711
653.06	28.047
653.25	29.026
653.43	27.445
653.62	28.234
653.81	26.115
654.00	29.247
654.18	26.743
654.37	28.338
654.56	27.087
654.74	26.972
654.93	27.309
655.12	28.245
655.31	26.628
655.49	28.677
655.68	26.224
655.87	26.361
656.05	24.516
656.24	26.822
656.43	24.788
656.62	25.891
656.80	25.268
656.99	26.016
657.18	25.120
657.36	27.198
657.55	24.668
657.74	26.309
657.93	25.294
658.11	27.036
658.30	24.829
658.49	24.802
658.67	24.844
658.86	23.907
659.05	23.450
659.23	24.170
659.42	23.733
659.61	24.591
659.79	22.870
659.98	24.435
660.17	24.404
660.35	24.038
660.54	23.997
660.73	24.901
660.91	23.082
661.10	23.676
661.29	22.217
661.47	21.641
661.66	21.865
661.85	22.389
662.03	22.151
662.22	21.403
662.41	19.752
662.59	21.992
662.78	21.305
662.97	21.535
663.15	20.277
663.34	19.869
663.53	19.451
663.71	21.138
663.90	19.673
664.09	21.330
664.27	19.639
664.46	18.855
664.65	18.966
664.83	18.669
665.02	18.092
665.21	18.711
665.39	16.004
665.58	19.300
665.77	17.890
665.95	18.586
666.14	17.254
666.32	18.411
666.51	17.719
666.70	16.931
666.88	17.242
667.07	18.739
667.26	16.272
667.44	17.834
667.63	16.649
667.81	15.694
668.00	18.256
668.19	18.893
668.37	16.230
668.56	17.692
668.75	13.992
668.93	18.045
669.12	15.525
669.30	18.052
669.49	15.556
669.68	18.249
669.86	18.032
670.05	16.565
670.23	16.463
670.42	16.782
670.61	17.237
670.79	18.044
670.98	16.317
671.16	18.220
671.35	16.137
671.54	17.296
671.72	16.697
671.91	17.452
672.09	14.806
672.28	19.471
672.46	16.863
672.65	18.754
672.84	18.526
673.02	19.391
673.21	15.576
673.39	17.537
673.58	18.598
673.77	17.956
673.95	17.322
674.14	18.861
674.32	17.411
674.51	20.175
674.69	18.575
674.88	20.065
675.07	17.434
675.25	21.976
675.44	17.728
675.62	18.405
675.81	17.858
675.99	21.915
676.18	18.578
676.36	18.033
676.55	17.665
676.74	21.380
676.92	20.958
677.11	19.846
677.29	18.177
677.48	22.623
677.66	20.426
677.85	20.506
678.03	19.446
678.22	21.131
678.40	21.448
678.59	20.139
678.78	17.955
678.96	20.363
679.15	19.216
679.33	22.224
679.52	20.807
679.70	20.904
679.89	20.810
680.07	20.532
680.26	19.426
680.44	20.938
680.63	20.313
680.81	21.679
681.00	19.462
681.18	21.865
681.37	19.654
681.55	22.228
681.74	22.499
681.92	21.358
682.11	22.512
682.29	21.887
682.48	20.670
682.66	22.721
682.85	21.158
683.03	23.103
683.22	23.713
683.40	24.698
683.59	23.725
683.77	23.943
683.96	21.715
684.14	24.934
684.33	21.455
684.51	26.537
684.70	24.100
684.88	26.773
685.07	24.815
685.25	26.247
685.44	24.341
685.62	26.211
685.81	25.022
685.99	26.167
686.18	24.074
686.36	26.980
686.55	24.446
686.73	28.488
686.92	27.880
687.10	28.731
687.29	29.446
687.47	28.920
687.65	29.808
687.84	30.231
688.02	30.688
688.21	31.500
688.39	28.643
688.58	31.775
688.76	30.371
688.95	29.624
689.13	28.847
689.32	31.594
689.50	33.080
689.68	34.339
689.87	33.047
690.05	35.444
690.24	34.074
690.42	35.036
690.61	36.802
690.79	36.349
690.98	37.145
691.16	36.963
691.34	35.642
691.53	36.418
691.71	36.678
691.90	39.926
692.08	39.373
692.27	40.605
692.45	41.611
692.63	40.888
692.82	42.727
693.00	44.324
693.19	41.653
693.37	43.003
693.56	41.932
693.74	43.940
693.92	45.118
694.11	47.748
694.29	45.098
694.48	46.894
694.66	46.557
694.84	47.516
695.03	46.315
695.21	49.250
695.40	48.458
695.58	48.932
695.76	48.785
695.95	52.192
696.13	49.644
696.32	51.359
696.50	51.444
696.68	52.150
696.87	50.964
697.05	52.909
697.24	52.498
697.42	54.877
697.60	54.363
697.79	54.086
697.97	56.022
698.16	54.485
698.34	54.423
698.52	54.617
698.71	55.510
698.89	54.249
699.07	53.538
699.26	55.638
699.44	54.718
699.63	55.548
699.81	55.813
699.99	56.295
700.18	55.821
700.36	57.229
700.54	58.034
700.73	59.915
700.91	58.129
701.09	59.205
701.28	59.720
701.46	59.729
701.64	59.561
701.83	60.054
702.01	61.891
702.20	63.342
702.38	63.116
702.56	62.093
702.75	62.464
702.93	62.231
703.11	64.460
703.30	65.652
703.48	65.420
703.66	67.827
703.85	66.183
704.03	65.408
704.21	66.265
704.40	68.452
704.58	63.970
704.76	67.694
704.95	66.916
705.13	67.077
705.31	69.097
705.50	69.816
705.68	68.531
705.86	71.208
706.04	67.529
706.23	70.129
706.41	68.840
706.59	68.303
706.78	69.538
706.96	68.225
707.14	69.395
707.33	69.708
707.51	68.088
707.69	71.349
707.88	70.731
708.06	69.200
708.24	71.228
708.42	70.827
708.61	69.969
708.79	71.168
708.97	71.732
709.16	69.073
709.34	71.860
709.52	69.518
709.71	70.763
709.89	68.693
710.07	71.988
710.25	70.876
710.44	73.787
710.62	71.698
710.80	71.632
710.98	72.603
711.17	72.827
711.35	73.541
711.53	71.878
711.72	69.725
711.90	72.878
712.08	72.437
712.26	67.905
712.45	73.768
712.63	71.110
712.81	71.664
712.99	72.536
713.18	71.522
713.36	73.012
713.54	72.531
713.72	72.464
713.91	72.643
714.09	71.371
714.27	72.624
714.45	74.492
714.64	70.321
714.82	73.958
715.00	73.201
715.18	71.342
715.37	70.181
715.55	71.763
715.73	73.534
715.91	70.913
716.10	73.858
716.28	71.119
716.46	71.702
716.64	71.519
716.83	74.856
717.01	72.365
717.19	73.863
717.37	72.528
717.55	72.047
717.74	72.939
717.92	73.971
718.10	70.787
718.28	71.481
718.47	72.489
718.65	74.366
718.83	70.912
719.01	73.993
719.19	69.795
719.38	71.966
719.56	73.115
719.74	72.024
719.92	71.153
720.10	74.193
720.29	74.335
720.47	73.309
720.65	73.740
720.83	73.740
721.01	73.478
721.20	74.646
721.38	76.614
721.56	76.595
721.74	76.535
721.92	79.397
722.11	76.703
722.29	74.351
722.47	77.159
722.65	78.723
722.83	77.689
723.01	75.220
723.20	76.155
723.38	77.315
723.56	75.410
723.74	74.046
723.92	76.454
724.10	76.781
724.29	75.904
724.47	77.213
724.65	76.708
724.83	76.642
725.01	72.510
725.19	74.082
725.38	73.648
725.56	77.755
725.74	76.050
725.92	79.045
726.10	76.167
726.28	75.648
726.46	77.245
726.65	79.280
726.83	74.349
727.01	77.550
727.19	74.932
727.37	76.701
727.55	75.195
727.73	77.805
727.92	76.089
728.10	74.506
728.28	73.027
728.46	76.696
728.64	75.402
728.82	74.965
729.00	75.352
729.19	75.082
729.37	75.837
729.55	77.621
729.73	73.617
729.91	76.546
730.09	71.478
730.27	78.063
730.45	74.799
730.63	75.515
730.82	74.273
731.00	75.445
731.18	75.868
731.36	77.012
731.54	76.242
731.72	74.587
731.90	77.728
732.08	75.818
732.26	78.397
732.45	76.881
732.63	77.254
732.81	74.729
732.99	77.983
733.17	77.760
733.35	76.721
733.53	78.201
733.71	75.661
733.89	78.349
734.07	76.147
734.25	77.915
734.44	76.394
734.62	76.539
734.80	76.148
734.98	78.588
735.16	75.311
735.34	77.138
735.52	76.435
735.70	78.780
735.88	77.270
736.06	79.797
736.24	78.983
736.42	80.367
736.60	78.698
736.78	81.911
736.97	79.576
737.15	83.495
737.33	81.102
737.51	79.415
737.69	78.541
737.87	80.676
738.05	77.023
738.23	79.573
738.41	80.717
738.59	79.801
738.77	80.751
738.95	80.870
739.13	83.114
739.31	83.055
739.49	84.536
739.67	80.852
739.85	80.786
740.03	80.272
740.21	82.759
740.39	81.650
740.57	79.647
740.75	79.263
740.93	78.423
741.11	83.597
741.30	78.871
741.48	83.731
741.66	81.106
741.84	82.319
742.02	80.514
742.20	81.015
742.38	75.197
742.56	85.870
742.74	78.543
742.92	84.241
743.10	78.143
743.28	84.356
743.46	77.971
743.64	86.572
743.82	81.976
744.00	84.990
744.18	84.083
744.36	80.849
744.54	81.037
744.72	83.440
744.90	85.499
745.08	83.853
745.26	81.638
745.44	81.100
745.62	82.627
745.80	82.823
745.98	83.423
746.16	82.332
746.34	82.514
746.52	80.921
746.70	79.612
746.87	87.774
747.05	87.052
747.23	82.199
747.41	83.883
747.59	84.343
747.77	80.318
747.95	81.951
748.13	82.856
748.31	85.361
748.49	82.987
748.67	83.421
748.85	83.765
749.03	82.512
749.21	79.800
749.39	84.419
749.57	81.385
749.75	79.634
749.93	83.379
750.11	85.625
750.29	79.959
750.47	83.412
750.65	85.832
750.83	81.436
751.01	76.197
751.18	80.588
751.36	80.856
751.54	87.088
751.72	86.750
751.90	82.728
752.08	82.902
752.26	81.227
752.44	83.147
752.62	83.881
752.80	83.043
752.98	84.036
753.16	83.208
753.34	77.766
753.52	81.721
753.69	81.882
753.87	81.052
754.05	80.715
754.23	83.142
754.41	84.212
754.59	81.825
754.77	84.804
754.95	81.138
755.13	81.140
755.31	87.016
755.49	82.066
755.66	80.344
755.84	78.892
756.02	80.188
756.20	82.059
756.38	81.460
756.56	84.395
756.74	79.679
756.92	80.917
757.10	83.804
757.28	83.913
757.45	84.716
757.63	87.135
757.81	81.623
757.99	85.185
758.17	79.540
758.35	84.646
758.53	81.688
758.71	81.121
758.88	79.451
759.06	81.683
759.24	76.679
759.42	74.785
759.60	72.142
759.78	76.216
759.96	69.717
760.13	76.271
760.31	68.882
760.49	75.034
760.67	67.725
760.85	71.267
761.03	65.656
761.21	69.486
761.38	63.929
761.56	72.756
761.74	67.644
761.92	70.663
762.10	66.967
762.28	74.688
762.46	65.040
762.63	69.001
762.81	70.059
762.99	70.620
763.17	67.023
763.35	68.496
763.53	69.110
763.70	71.000
763.88	70.894
764.06	69.449
764.24	68.618
764.42	69.272
764.60	70.283
764.77	69.473
764.95	70.266
765.13	70.296
765.31	69.976
765.49	67.918
765.66	69.691
765.84	72.651
766.02	71.541
766.20	75.955
766.38	72.025
766.56	74.211
766.73	71.083
766.91	74.186
767.09	74.282
767.27	75.526
767.45	77.217
767.62	77.812
767.80	77.990
767.98	77.933
768.16	72.135
768.33	78.293
768.51	72.480
768.69	79.576
768.87	81.272
769.05	80.451
769.22	77.993
769.40	80.649
769.58	83.111
769.76	84.599
769.94	83.831
770.11	80.316
770.29	82.768
770.47	81.461
770.65	81.385
770.82	79.368
771.00	81.063
771.18	82.816
771.36	79.882
771.53	81.656
771.71	73.171
771.89	84.782
772.07	77.727
772.25	84.343
772.42	76.688
772.60	81.710
772.78	85.988
772.96	81.060
773.13	82.977
773.31	81.635
773.49	78.849
773.67	78.338
773.84	77.111
774.02	81.837
774.20	76.071
774.37	82.859
774.55	79.012
774.73	82.434
774.91	80.725
775.08	85.154
775.26	90.466
775.44	85.124
775.62	83.607
775.79	85.345
775.97	83.259
776.15	80.732
776.32	75.515
776.50	85.090
776.68	82.316
776.86	84.451
777.03	79.574
777.21	84.936
777.39	78.465
777.56	85.872
777.74	80.591
777.92	80.638
778.10	79.504
778.27	86.092
778.45	85.453
778.63	78.299
778.80	82.272
778.98	80.750
779.16	83.630
779.34	87.945
779.51	80.979
779.69	79.158
779.87	79.472
780.04	84.446
780.22	77.619
780.40	81.601
780.57	85.688
780.75	83.984
780.93	79.841
781.10	81.153
781.28	86.760
781.46	81.257
781.63	84.779
781.81	80.502
781.99	76.014
782.16	80.362
782.34	79.419
782.52	80.833
782.69	82.488
782.87	88.409
783.05	76.959
783.22	82.476
783.40	77.812
783.58	82.750
783.75	80.039
783.93	85.474
784.11	78.847
784.28	84.731
784.46	76.988
784.64	85.589
784.81	75.075
784.99	90.733
785.17	80.635
785.34	77.791
785.52	79.624
785.69	80.380
785.87	79.017
786.05	83.615
786.22	82.666
786.40	89.726
786.58	88.400
786.75	84.098
786.93	82.600
787.11	75.973
787.28	81.314
787.46	79.650
787.63	76.845
787.81	77.680
787.99	74.777
788.16	77.270
788.34	74.007
788.51	78.546
788.69	70.752
788.87	80.459
789.04	78.469
789.22	78.889
789.39	73.875
789.57	73.776
789.75	69.906
789.92	79.021
790.10	70.335
790.27	80.629
790.45	67.798
790.63	77.878
790.80	72.238
790.98	76.228
791.15	76.620
791.33	74.865
791.51	75.887
791.68	76.665
791.86	75.238
792.03	76.048
792.21	63.961
792.39	76.874
792.56	74.474
792.74	81.447
792.91	81.859
793.09	72.458
793.26	70.573
793.44	83.473
793.62	76.107
793.79	78.133
793.97	76.865
794.14	79.593
794.32	77.755
794.49	79.819
794.67	73.232
794.84	76.590
795.02	66.938
795.20	75.829
795.37	75.690
795.55	77.763
795.72	76.766
795.90	77.012
796.07	73.094
796.25	75.657
796.42	75.858
796.60	76.331
796.77	71.725
796.95	69.939
797.13	66.567
797.30	76.439
797.48	77.125
797.65	73.014
797.83	71.976
798.00	73.988
798.18	69.309
798.35	81.830
798.53	72.246
798.70	76.402
798.88	70.260
799.05	74.525
799.23	72.307
799.40	77.522
799.58	68.283
799.75	74.420
799.93	72.169
800.10	76.393
800.28	76.672
800.45	72.336
800.63	71.735
800.80	78.604
800.98	73.984
801.15	70.055
801.33	74.963
801.50	74.024
801.68	64.892
801.85	67.222
802.03	67.950
802.20	79.219
802.38	75.086
802.55	67.138
802.73	70.642
802.90	72.576
803.08	65.479
803.25	78.245
803.43	69.710
803.60	67.301
803.78	68.413
803.95	65.657
804.13	69.309
804.30	67.645
804.48	63.271
804.65	71.836
804.83	68.153
805.00	71.306
805.17	75.109
805.35	76.621
805.52	66.066
805.70	69.438
805.87	73.460
806.05	70.763
806.22	68.958
806.40	69.751
806.57	66.494
806.75	78.494
806.92	76.338
807.09	75.568
807.27	73.254
807.44	73.966
807.62	70.066
807.79	70.563
807.97	63.974
808.14	74.703
808.31	68.988
808.49	72.471
808.66	66.240
808.84	64.944
809.01	69.287
809.19	68.300
809.36	81.305
809.53	68.035
809.71	67.570
809.88	72.506
810.06	78.620
810.23	68.785
810.41	71.251
810.58	73.891
810.75	63.308
810.93	68.170
811.10	68.133
811.28	71.011
811.45	70.780
811.62	65.947
811.80	63.724
811.97	71.503
812.15	67.568
812.32	61.821
812.49	67.425
812.67	67.496
812.84	69.266
813.02	71.057
813.19	61.645
813.36	64.914
813.54	54.107
813.71	64.092
813.89	63.283
814.06	67.350
814.23	67.294
814.41	65.460
814.58	68.719
814.75	69.319
814.93	59.574
815.10	72.958
815.28	62.768
815.45	61.923
815.62	65.154
815.80	57.230
815.97	61.746
816.14	68.384
816.32	65.050
816.49	63.144
816.66	64.033
816.84	68.629
817.01	54.399
817.18	63.477
817.36	59.744
817.53	66.427
817.71	51.727
817.88	66.972
818.05	55.446
818.23	60.982
818.40	53.548
818.57	61.706
818.75	53.470
818.92	57.980
819.09	58.794
819.27	60.516
819.44	60.522
819.61	61.526
819.79	60.160
819.96	66.594
820.13	57.295
820.31	66.381
820.48	68.213
820.65	68.655
820.82	59.544
821.00	67.674
821.17	57.539
821.34	58.114
821.52	60.481
821.69	62.390
821.86	63.200
822.04	64.124
822.21	67.065
822.38	66.615
822.56	64.301
822.73	65.918
822.90	64.168
823.07	66.007
823.25	63.884
823.42	61.538
823.59	64.704
823.77	64.205
823.94	65.996
824.11	64.831
824.29	64.752
824.46	64.986
824.63	66.447
824.80	66.923
824.98	64.312
825.15	65.531
825.32	65.320
825.49	68.063
825.67	65.399
825.84	69.474
826.01	64.261
826.19	68.328
826.36	64.753
826.53	71.045
826.70	65.343
826.88	64.147
827.05	63.400
827.22	66.953
827.39	65.736
827.57	60.114
827.74	64.017
827.91	67.352
828.08	62.078
828.26	64.465
828.43	64.155
828.60	66.365
828.77	61.713
828.95	66.638
829.12	58.510
829.29	60.366
829.46	61.282
829.64	63.868
829.81	57.934
829.98	67.586
830.15	59.654
830.32	70.863
830.50	53.793
830.67	68.714
830.84	54.745
831.01	54.668
831.19	51.650
831.36	57.554
831.53	61.479
831.70	66.031
831.87	53.046
832.05	65.267
832.22	61.981
832.39	56.543
832.56	55.857
832.74	53.133
832.91	51.360
833.08	60.859
833.25	54.573
833.42	61.351
833.60	54.881
833.77	54.891
833.94	57.012
834.11	60.641
834.28	54.744
834.45	62.351
834.63	59.696
834.80	63.545
834.97	60.710
835.14	60.087
835.31	58.700
835.49	61.576
835.66	58.606
835.83	59.526
836.00	58.644
836.17	59.844
836.34	57.993
836.52	56.367
836.69	64.846
836.86	59.952
837.03	61.719
837.20	59.443
837.37	52.319
837.55	53.641
837.72	62.104
837.89	66.065
838.06	62.749
838.23	64.171
838.40	66.866
838.58	55.657
838.75	61.475
838.92	62.938
839.09	75.270
839.26	66.204
839.43	59.382
839.60	69.847
839.78	64.875
839.95	68.128
840.12	65.311
840.29	72.596
840.46	56.025
840.63	64.018
840.80	66.809
840.98	64.901
841.15	55.208
841.32	57.978
841.49	59.435
841.66	70.684
841.83	56.375
842.00	55.482
842.17	77.346
842.34	64.263
842.52	64.750
842.69	64.304
842.86	68.449
843.03	83.863
843.20	66.260
843.37	70.079
843.54	61.957
843.71	66.232
843.88	71.405
844.06	82.087
844.23	80.179
844.40	69.113
844.57	61.833
844.74	83.948
844.91	81.144
845.08	85.362
845.25	87.549
845.42	74.952
845.59	80.000
845.76	74.855
845.94	113.043
846.11	85.532
846.28	100.543
846.45	77.264
846.62	94.413
846.79	76.482
846.96	64.170
847.13	84.866
847.30	77.350
847.47	72.394
847.64	85.232
847.81	100.436
847.98	102.231
848.15	89.817
848.32	86.041
848.50	86.321
848.67	65.727
848.84	88.808
849.01	84.746
849.18	92.500
849.35	100.484
849.52	86.762
849.69	105.185
849.86	106.295
850.03	89.485
850.20	100.441
850.37	86.897
850.54	97.805
850.71	96.045
850.88	103.540
851.05	90.670
851.22	102.228
851.39	95.032
851.56	73.267
851.73	105.114
851.90	88.449
852.07	93.264
852.24	78.995
852.41	74.573
852.58	97.382
852.75	90.433
852.92	73.201
853.09	100.000
853.26	95.238
853.43	96.594
853.60	114.826
853.77	75.676
853.94	93.789
854.11	109.091
854.28	96.419
854.45	75.107
854.62	84.476
854.79	98.895
854.96	87.097
855.13	87.050
855.30	76.027
855.47	113.415
855.64	78.193
855.81	67.627
855.98	90.000
856.15	98.698
856.32	103.704
856.49	84.359
856.66	112.179
856.83	76.642
857.00	86.612
857.17	93.280
857.34	100.798
857.51	89.516
857.68	105.573
857.85	94.556
858.02	95.392
858.19	119.231
858.36	95.172
858.53	75.449
858.70	84.974
858.87	114.198
859.04	88.611
859.21	80.403
859.38	102.638
859.55	94.072
859.72	91.713
859.89	110.335
860.05	71.007
860.22	104.487
860.39	103.659
860.56	92.097
860.73	102.353
860.90	99.060
861.07	100.282
861.24	83.771
861.41	83.378
861.58	94.118
861.75	87.107
861.92	98.551
862.09	86.269
862.26	91.148
862.43	95.622
862.59	94.265
862.76	78.261
862.93	104.865
863.10	94.493
863.27	76.271
863.44	77.725
863.61	98.773
863.78	86.712
863.95	71.204
864.12	80.230
864.29	102.204
864.45	90.625
864.62	86.472
864.79	93.059
864.96	79.419
865.13	81.044
865.30	84.938
865.47	86.266
865.64	93.158
865.81	77.212
865.97	86.435
866.14	95.526
866.31	94.531
866.48	102.716
866.65	78.740
866.82	89.696
866.99	112.537
867.16	94.737
867.33	100.627
867.49	113.469
867.66	81.818
867.83	91.644
868.00	77.284
868.17	80.051
868.34	102.198
868.51	73.987
868.67	87.683
868.84	93.122
869.01	113.226
869.18	105.980
869.35	87.634
869.52	71.866
869.69	106.877
869.85	74.352
870.02	103.691
870.19	106.390
870.36	89.231
870.53	78.638
870.70	112.397
870.86	97.879
871.03	96.739
871.20	89.344
871.37	113.291
871.54	88.218
871.71	72.236
871.87	91.870
872.04	93.750
872.21	76.437
872.38	116.369
872.55	118.592
872.72	77.112
872.88	99.504
873.05	69.869
873.22	99.149
873.39	90.107
873.56	109.855
873.72	51.571
873.89	97.403
874.06	76.540
874.23	65.589
874.40	88.344
874.56	106.886
874.73	95.970
874.90	67.775
875.07	109.091
875.24	85.063
875.40	71.461
875.57	80.899
875.74	64.225
875.91	76.642
876.08	87.164
876.24	99.729
876.41	94.334
876.58	97.321
876.75	80.563
876.92	91.503
877.08	79.699
877.25	85.279
877.42	75.072
877.59	71.513
877.75	104.624
877.92	84.309
878.09	80.679
878.26	88.251
878.42	82.941
878.59	84.085
878.76	71.820
878.93	94.673
879.09	78.442
879.26	79.891
879.43	82.432
879.60	79.494
879.76	66.600
879.93	72.846
880.10	79.065
880.27	58.317
880.43	53.689
880.60	62.392
880.77	46.103
880.94	51.847
881.10	50.690
881.27	47.985
881.44	43.522
881.61	51.088
881.77	59.763
881.94	53.358
882.11	44.259
882.28	44.808
882.44	48.419
882.61	55.377
882.78	51.733
882.94	57.339
883.11	55.328
883.28	57.670
883.45	54.549
883.61	55.938
883.78	55.250
883.95	58.323
884.11	59.545
884.28	57.599
>>>>>End Processed Spectral Data<<<<<
