SpectraSuite Data File
++++++++++++++++++++++++++++++++++++
Date: Mon Sep 23 04:10:47 EST 2019
User: sgrac
Dark Spectrum Present: Yes
Reference Spectrum Present: Yes
Number of Sampled Component Spectra: 1
Spectrometers: USB4E01596
Integration Time (usec): 100000 (USB4E01596)
Spectra Averaged: 3 (USB4E01596)
Boxcar Smoothing: 0 (USB4E01596)
Correct for Electrical Dark: No (USB4E01596)
Strobe/Lamp Enabled: Yes (USB4E01596)
Correct for Detector Non-linearity: No (USB4E01596)
Correct for Stray Light: No (USB4E01596)
Number of Pixels in Processed Spectrum: 3648
>>>>>Begin Processed Spectral Data<<<<<
178.44	869.231
178.66	869.231
178.87	869.231
179.09	8966.667
179.30	-7575.000
179.52	-706.452
179.74	-473.585
179.95	636.364
180.17	-666.667
180.38	512.281
180.60	-2981.818
180.82	775.556
181.03	4700.000
181.25	-2325.000
181.46	-1144.000
181.68	1183.333
181.89	-702.273
182.11	-1981.250
182.33	-2143.750
182.54	685.417
182.76	5500.000
182.97	-551.064
183.19	1515.000
183.40	285.124
183.62	406.410
183.84	296.364
184.05	4157.143
184.27	513.636
184.48	416.667
184.70	1870.588
184.91	1852.381
185.13	2510.000
185.34	-13450.000
185.56	1207.692
185.78	383.333
185.99	797.222
186.21	417.045
186.42	-6775.000
186.64	1890.000
186.85	-6800.000
187.07	588.000
187.28	382.895
187.50	425.455
187.72	406.410
187.93	810.909
188.15	414.583
188.36	510.526
188.58	612.245
188.79	287.500
189.01	490.141
189.22	905.405
189.44	-857.576
189.65	312.712
189.87	-6950.000
190.09	563.492
190.30	752.381
190.52	603.333
190.73	802.174
190.95	-4416.667
191.16	369.048
191.38	521.622
191.59	507.353
191.81	646.774
192.02	1980.000
192.24	978.125
192.45	850.000
192.67	-1631.250
192.88	450.943
193.10	585.246
193.31	767.500
193.53	230.645
193.74	409.333
193.96	2171.429
194.18	1046.154
194.39	2260.000
194.61	543.836
194.82	1518.182
195.04	385.366
195.25	-426.316
195.47	-387.037
195.68	3933.333
195.90	580.000
196.11	410.448
196.33	28200.000
196.54	831.707
196.76	1842.857
196.97	437.662
197.19	956.757
197.40	2557.143
197.62	292.661
197.83	1141.935
198.05	605.455
198.26	1034.483
198.48	440.845
198.69	510.000
198.91	1850.000
199.12	820.930
199.34	760.870
199.55	392.857
199.77	1889.474
199.98	852.941
200.20	380.263
200.41	572.581
200.63	346.903
200.84	1742.857
201.06	2266.667
201.27	751.220
201.49	502.817
201.70	-980.000
201.91	458.333
202.13	481.356
202.34	468.966
202.56	-1104.000
202.77	653.333
202.99	5066.667
203.20	-3762.500
203.42	2368.750
203.63	335.526
203.85	5816.667
204.06	668.000
204.28	311.111
204.49	511.111
204.71	535.593
204.92	1173.077
205.14	0.000
205.35	900.000
205.56	-1160.000
205.78	6000.000
205.99	-2242.857
206.21	14150.000
206.42	602.273
206.64	922.581
206.85	970.370
207.07	-2544.444
207.28	494.828
207.50	615.217
207.71	912.903
207.93	344.578
208.14	-1185.185
208.35	489.091
208.57	1204.000
208.78	-3866.667
209.00	378.723
209.21	-11900.000
209.43	-9133.333
209.64	-2233.333
209.86	283.505
210.07	418.605
210.28	488.732
210.50	1327.586
210.71	611.765
210.93	251.471
211.14	424.719
211.36	1768.750
211.57	400.000
211.78	445.714
212.00	357.647
212.21	467.143
212.43	1033.333
212.64	448.936
212.86	404.054
213.07	375.229
213.29	-866.667
213.50	322.826
213.71	318.391
213.93	475.610
214.14	1600.000
214.36	408.824
214.57	406.329
214.78	671.111
215.00	327.083
215.21	886.667
215.43	1018.919
215.64	412.698
215.86	383.750
216.07	874.286
216.28	707.895
216.50	307.500
216.71	28600.000
216.93	607.576
217.14	1694.444
217.35	269.697
217.57	309.910
217.78	387.654
218.00	331.313
218.21	1173.913
218.42	706.383
218.64	485.714
218.85	646.000
219.07	1460.000
219.28	331.776
219.49	550.980
219.71	443.077
219.92	243.284
220.14	352.577
220.35	437.333
220.56	345.977
220.78	269.231
220.99	253.226
221.21	229.032
221.42	386.420
221.63	189.017
221.85	421.538
222.06	412.857
222.28	506.154
222.49	264.865
222.70	271.654
222.92	695.918
223.13	560.656
223.34	158.156
223.56	342.857
223.77	376.250
223.99	302.105
224.20	480.357
224.41	405.479
224.63	326.136
224.84	227.027
225.05	139.316
225.27	283.478
225.48	321.569
225.69	208.271
225.91	425.676
226.12	256.589
226.34	209.396
226.55	152.518
226.76	241.250
226.98	175.294
227.19	125.000
227.40	262.500
227.62	142.328
227.83	152.361
228.04	129.050
228.26	71.465
228.47	87.535
228.69	62.183
228.90	39.872
229.11	58.773
229.33	50.627
229.54	39.768
229.75	41.418
229.97	34.724
230.18	45.506
230.39	31.858
230.61	39.004
230.82	36.766
231.03	38.604
231.25	38.939
231.46	38.462
231.67	41.415
231.89	56.407
232.10	44.055
232.31	57.854
232.53	52.801
232.74	56.636
232.95	56.806
233.17	56.600
233.38	49.160
233.59	42.672
233.81	54.891
234.02	65.932
234.23	67.908
234.45	57.639
234.66	63.053
234.87	55.738
235.09	56.752
235.30	48.687
235.51	58.719
235.73	37.477
235.94	52.540
236.15	55.344
236.36	58.318
236.58	47.894
236.79	38.791
237.00	54.692
237.22	54.762
237.43	52.585
237.64	52.598
237.86	48.120
238.07	53.952
238.28	48.710
238.50	46.791
238.71	51.799
238.92	58.438
239.13	44.746
239.35	47.589
239.56	56.714
239.77	58.870
239.99	36.530
240.20	48.753
240.41	40.316
240.63	35.984
240.84	36.318
241.05	32.044
241.26	36.676
241.48	26.016
241.69	21.448
241.90	24.582
242.12	18.401
242.33	20.448
242.54	17.335
242.75	19.449
242.97	19.233
243.18	14.008
243.39	12.902
243.61	18.073
243.82	15.686
244.03	16.555
244.24	14.634
244.46	17.226
244.67	18.724
244.88	14.637
245.09	19.476
245.31	20.510
245.52	21.820
245.73	13.785
245.95	33.593
246.16	19.272
246.37	16.579
246.58	19.700
246.80	13.543
247.01	17.175
247.22	14.081
247.43	11.093
247.65	10.048
247.86	12.448
248.07	8.989
248.28	10.203
248.50	10.661
248.71	8.858
248.92	7.385
249.13	6.842
249.35	8.689
249.56	9.273
249.77	9.839
249.98	10.261
250.20	13.573
250.41	12.447
250.62	12.996
250.83	16.285
251.05	19.045
251.26	19.711
251.47	16.782
251.68	18.916
251.90	19.756
252.11	16.910
252.32	18.078
252.53	17.792
252.75	16.273
252.96	17.535
253.17	14.299
253.38	16.025
253.59	18.150
253.81	15.381
254.02	13.093
254.23	12.712
254.44	14.769
254.66	10.219
254.87	17.348
255.08	20.478
255.29	21.106
255.50	14.975
255.72	22.786
255.93	21.001
256.14	22.265
256.35	25.039
256.57	27.611
256.78	23.642
256.99	23.423
257.20	27.843
257.41	18.709
257.63	22.453
257.84	22.026
258.05	16.044
258.26	17.291
258.47	17.483
258.69	16.780
258.90	11.440
259.11	14.991
259.32	14.124
259.53	13.861
259.75	11.207
259.96	9.848
260.17	9.327
260.38	7.160
260.59	6.690
260.81	5.877
261.02	6.056
261.23	6.593
261.44	7.287
261.65	5.132
261.87	4.680
262.08	5.604
262.29	6.721
262.50	7.796
262.71	9.909
262.92	7.896
263.14	8.291
263.35	10.874
263.56	10.596
263.77	11.563
263.98	15.179
264.20	12.661
264.41	12.261
264.62	10.420
264.83	13.290
265.04	17.764
265.25	18.016
265.47	12.555
265.68	15.008
265.89	17.147
266.10	8.845
266.31	15.072
266.52	14.478
266.74	14.923
266.95	11.616
267.16	13.068
267.37	8.554
267.58	13.918
267.79	9.438
268.01	8.980
268.22	11.658
268.43	12.743
268.64	11.302
268.85	12.556
269.06	9.471
269.27	11.876
269.49	7.451
269.70	9.810
269.91	10.330
270.12	9.247
270.33	10.810
270.54	8.476
270.75	10.638
270.97	10.489
271.18	11.293
271.39	8.916
271.60	8.745
271.81	8.890
272.02	7.478
272.23	9.155
272.45	11.724
272.66	6.998
272.87	7.209
273.08	6.153
273.29	8.726
273.50	6.895
273.71	7.910
273.92	6.169
274.14	6.842
274.35	7.672
274.56	7.250
274.77	7.506
274.98	8.135
275.19	8.561
275.40	9.410
275.61	9.908
275.83	13.815
276.04	9.599
276.25	13.857
276.46	10.759
276.67	11.330
276.88	8.336
277.09	8.395
277.30	11.407
277.51	11.365
277.73	8.983
277.94	9.303
278.15	12.050
278.36	9.013
278.57	7.771
278.78	7.477
278.99	9.895
279.20	9.891
279.41	11.094
279.62	7.855
279.84	10.987
280.05	9.688
280.26	9.504
280.47	8.898
280.68	9.589
280.89	9.809
281.10	9.286
281.31	8.449
281.52	11.258
281.73	6.883
281.94	8.541
282.16	8.620
282.37	6.311
282.58	8.372
282.79	10.546
283.00	9.149
283.21	7.998
283.42	8.488
283.63	8.547
283.84	8.393
284.05	8.060
284.26	8.270
284.47	6.897
284.68	7.681
284.89	7.575
285.11	9.066
285.32	5.825
285.53	8.144
285.74	8.267
285.95	6.219
286.16	5.237
286.37	5.835
286.58	6.873
286.79	5.970
287.00	6.541
287.21	6.489
287.42	7.157
287.63	7.415
287.84	7.345
288.05	7.192
288.26	5.894
288.48	7.327
288.69	5.685
288.90	7.373
289.11	8.633
289.32	7.979
289.53	8.777
289.74	6.217
289.95	7.795
290.16	7.578
290.37	6.433
290.58	5.864
290.79	5.686
291.00	5.466
291.21	5.737
291.42	6.660
291.63	7.943
291.84	7.635
292.05	5.888
292.26	5.219
292.47	6.761
292.68	5.203
292.89	6.193
293.10	9.327
293.31	7.403
293.52	6.500
293.73	8.868
293.94	7.059
294.15	6.515
294.36	9.150
294.57	7.429
294.79	7.010
295.00	5.185
295.21	9.065
295.42	7.679
295.63	9.354
295.84	7.199
296.05	5.946
296.26	6.826
296.47	6.577
296.68	6.879
296.89	10.689
297.10	6.579
297.31	8.157
297.52	5.530
297.73	8.208
297.94	7.310
298.15	7.034
298.36	7.734
298.57	6.519
298.78	8.301
298.99	7.092
299.20	8.740
299.41	8.362
299.62	9.037
299.83	6.879
300.04	8.590
300.25	9.059
300.46	10.488
300.67	10.984
300.88	8.946
301.09	7.314
301.30	9.740
301.50	9.747
301.71	12.336
301.92	12.601
302.13	9.891
302.34	9.392
302.55	8.605
302.76	9.100
302.97	9.859
303.18	10.771
303.39	9.502
303.60	10.175
303.81	10.804
304.02	8.094
304.23	10.479
304.44	8.852
304.65	8.433
304.86	11.419
305.07	10.245
305.28	8.480
305.49	12.216
305.70	13.261
305.91	11.289
306.12	11.081
306.33	10.461
306.54	11.433
306.75	11.950
306.96	16.094
307.17	12.573
307.38	11.331
307.58	11.274
307.79	11.782
308.00	10.314
308.21	10.431
308.42	11.568
308.63	11.150
308.84	11.965
309.05	11.396
309.26	9.166
309.47	12.331
309.68	11.260
309.89	12.596
310.10	10.988
310.31	11.012
310.52	11.003
310.73	13.355
310.94	9.063
311.14	10.880
311.35	10.683
311.56	11.414
311.77	9.965
311.98	10.211
312.19	11.327
312.40	8.113
312.61	10.509
312.82	12.977
313.03	11.679
313.24	11.251
313.45	12.990
313.66	11.583
313.86	14.352
314.07	12.444
314.28	13.955
314.49	9.632
314.70	13.561
314.91	14.608
315.12	11.891
315.33	14.387
315.54	12.516
315.75	11.848
315.96	10.419
316.16	10.817
316.37	12.681
316.58	10.770
316.79	12.440
317.00	13.891
317.21	12.025
317.42	14.035
317.63	12.838
317.84	13.220
318.05	13.762
318.25	12.701
318.46	12.418
318.67	13.250
318.88	15.156
319.09	15.098
319.30	12.624
319.51	12.860
319.72	15.175
319.93	11.502
320.13	11.456
320.34	15.627
320.55	13.957
320.76	13.888
320.97	15.276
321.18	16.254
321.39	12.468
321.60	13.818
321.80	18.036
322.01	14.174
322.22	14.216
322.43	12.239
322.64	11.534
322.85	15.117
323.06	15.965
323.27	15.660
323.47	15.769
323.68	15.758
323.89	14.411
324.10	16.807
324.31	13.708
324.52	15.651
324.73	17.326
324.93	15.486
325.14	15.393
325.35	14.939
325.56	13.364
325.77	16.717
325.98	17.594
326.19	15.940
326.39	11.707
326.60	15.778
326.81	14.531
327.02	13.147
327.23	14.820
327.44	17.708
327.64	13.444
327.85	12.217
328.06	20.131
328.27	20.581
328.48	19.322
328.69	14.693
328.90	16.670
329.10	16.001
329.31	18.315
329.52	16.697
329.73	20.042
329.94	14.819
330.15	19.818
330.35	20.476
330.56	17.239
330.77	17.697
330.98	15.608
331.19	17.394
331.39	17.607
331.60	17.106
331.81	17.989
332.02	18.265
332.23	17.980
332.44	17.371
332.64	18.700
332.85	16.604
333.06	20.941
333.27	13.095
333.48	20.830
333.68	17.547
333.89	17.941
334.10	15.481
334.31	20.790
334.52	17.406
334.72	17.861
334.93	19.091
335.14	17.355
335.35	16.209
335.56	20.739
335.76	15.526
335.97	19.967
336.18	16.676
336.39	22.332
336.60	17.782
336.80	18.600
337.01	16.952
337.22	17.632
337.43	19.324
337.64	23.155
337.84	20.109
338.05	19.545
338.26	21.714
338.47	23.223
338.68	14.810
338.88	21.151
339.09	18.011
339.30	21.355
339.51	20.925
339.71	20.841
339.92	18.364
340.13	20.897
340.34	19.287
340.55	19.464
340.75	19.505
340.96	17.404
341.17	21.032
341.38	19.055
341.58	19.285
341.79	20.312
342.00	16.837
342.21	20.272
342.41	16.551
342.62	20.746
342.83	20.299
343.04	17.308
343.24	20.587
343.45	20.859
343.66	17.645
343.87	20.569
344.07	17.179
344.28	20.514
344.49	19.540
344.70	21.600
344.90	17.950
345.11	18.580
345.32	19.557
345.53	19.828
345.73	19.213
345.94	23.363
346.15	20.859
346.36	19.922
346.56	19.054
346.77	21.882
346.98	18.505
347.19	21.197
347.39	20.208
347.60	20.699
347.81	20.525
348.02	21.460
348.22	17.051
348.43	19.095
348.64	19.013
348.84	20.933
349.05	20.080
349.26	23.671
349.47	17.713
349.67	19.155
349.88	21.037
350.09	20.393
350.30	21.655
350.50	20.775
350.71	20.516
350.92	20.686
351.12	19.828
351.33	19.654
351.54	18.014
351.74	19.366
351.95	18.002
352.16	21.833
352.37	18.985
352.57	19.882
352.78	18.977
352.99	19.703
353.19	19.228
353.40	19.552
353.61	20.810
353.82	21.800
354.02	21.852
354.23	19.278
354.44	21.766
354.64	19.788
354.85	19.184
355.06	19.162
355.26	19.132
355.47	19.482
355.68	21.182
355.88	20.670
356.09	19.952
356.30	19.130
356.51	20.229
356.71	21.006
356.92	16.505
357.13	21.374
357.33	20.614
357.54	19.882
357.75	17.114
357.95	20.911
358.16	17.750
358.37	21.730
358.57	16.996
358.78	21.342
358.99	19.430
359.19	19.077
359.40	21.271
359.61	19.191
359.81	21.350
360.02	21.387
360.23	18.233
360.43	18.957
360.64	18.312
360.85	19.311
361.05	17.150
361.26	19.895
361.47	18.350
361.67	20.440
361.88	17.259
362.09	19.574
362.29	17.038
362.50	18.223
362.70	17.034
362.91	19.314
363.12	17.831
363.32	19.751
363.53	18.437
363.74	20.086
363.94	17.400
364.15	20.677
364.36	19.124
364.56	18.174
364.77	18.855
364.98	20.659
365.18	17.964
365.39	20.762
365.59	16.585
365.80	18.905
366.01	19.454
366.21	18.121
366.42	17.050
366.63	19.521
366.83	17.497
367.04	15.573
367.24	19.144
367.45	17.862
367.66	16.032
367.86	18.966
368.07	17.389
368.28	17.669
368.48	17.626
368.69	16.460
368.89	16.922
369.10	17.230
369.31	17.448
369.51	17.853
369.72	19.646
369.92	19.988
370.13	14.696
370.34	17.957
370.54	13.434
370.75	17.822
370.95	14.771
371.16	17.288
371.37	16.020
371.57	17.016
371.78	16.138
371.98	18.128
372.19	16.787
372.40	18.494
372.60	17.922
372.81	17.806
373.01	14.883
373.22	15.966
373.43	15.616
373.63	17.237
373.84	16.632
374.04	16.823
374.25	15.320
374.46	17.913
374.66	16.216
374.87	17.331
375.07	13.906
375.28	15.076
375.48	15.992
375.69	17.164
375.90	13.150
376.10	14.526
376.31	15.680
376.51	14.682
376.72	14.601
376.92	14.143
377.13	16.029
377.34	15.399
377.54	14.524
377.75	16.704
377.95	14.247
378.16	16.533
378.36	15.552
378.57	16.395
378.77	15.275
378.98	16.469
379.19	14.615
379.39	14.138
379.60	14.555
379.80	14.767
380.01	15.641
380.21	14.255
380.42	15.227
380.62	15.399
380.83	14.894
381.04	15.171
381.24	15.587
381.45	14.734
381.65	12.713
381.86	14.808
382.06	15.268
382.27	13.300
382.47	13.703
382.68	15.783
382.88	13.092
383.09	13.719
383.29	14.090
383.50	15.079
383.71	13.399
383.91	14.669
384.12	13.011
384.32	14.722
384.53	13.438
384.73	13.046
384.94	12.933
385.14	13.068
385.35	13.033
385.55	15.009
385.76	13.300
385.96	13.548
386.17	13.438
386.37	15.010
386.58	14.172
386.78	14.789
386.99	12.470
387.19	15.118
387.40	12.564
387.60	15.210
387.81	13.232
388.01	13.349
388.22	14.458
388.42	14.449
388.63	14.438
388.83	14.785
389.04	11.321
389.24	14.208
389.45	13.523
389.65	13.052
389.86	12.931
390.06	12.598
390.27	12.945
390.47	12.833
390.68	12.929
390.88	14.951
391.09	14.210
391.29	13.741
391.50	13.087
391.70	13.763
391.91	13.576
392.11	12.864
392.32	13.226
392.52	13.633
392.73	12.828
392.93	13.620
393.14	12.875
393.34	12.819
393.55	13.209
393.75	13.657
393.95	12.598
394.16	13.895
394.36	13.985
394.57	13.674
394.77	12.256
394.98	12.816
395.18	12.999
395.39	13.280
395.59	13.055
395.80	13.039
396.00	14.021
396.21	13.566
396.41	12.073
396.61	13.247
396.82	12.474
397.02	14.590
397.23	13.386
397.43	12.459
397.64	11.196
397.84	13.522
398.05	10.998
398.25	13.378
398.45	12.736
398.66	12.503
398.86	12.173
399.07	13.910
399.27	12.325
399.48	12.713
399.68	11.856
399.89	12.092
400.09	12.692
400.29	11.635
400.50	11.704
400.70	12.969
400.91	11.315
401.11	12.011
401.32	12.542
401.52	10.682
401.72	11.796
401.93	13.936
402.13	11.947
402.34	12.092
402.54	10.812
402.75	14.022
402.95	10.324
403.15	12.912
403.36	10.295
403.56	13.071
403.77	10.970
403.97	11.390
404.17	10.188
404.38	12.967
404.58	10.587
404.79	11.932
404.99	11.996
405.19	11.582
405.40	10.821
405.60	11.823
405.81	11.648
406.01	11.447
406.21	11.088
406.42	11.916
406.62	11.399
406.83	11.671
407.03	12.282
407.23	11.284
407.44	11.173
407.64	13.189
407.85	11.326
408.05	11.296
408.25	11.102
408.46	13.030
408.66	11.778
408.87	11.266
409.07	10.891
409.27	10.393
409.48	10.357
409.68	11.950
409.88	9.177
410.09	11.316
410.29	10.618
410.50	11.873
410.70	9.781
410.90	10.581
411.11	10.434
411.31	10.490
411.51	11.302
411.72	11.963
411.92	10.172
412.12	10.576
412.33	9.770
412.53	10.576
412.74	8.648
412.94	10.919
413.14	10.548
413.35	10.828
413.55	10.538
413.75	11.732
413.96	10.158
414.16	10.918
414.36	9.898
414.57	11.381
414.77	9.695
414.97	10.380
415.18	10.136
415.38	11.300
415.58	10.300
415.79	10.147
415.99	9.747
416.19	11.331
416.40	10.525
416.60	10.348
416.80	10.343
417.01	10.693
417.21	8.927
417.41	11.181
417.62	9.896
417.82	11.033
418.02	9.378
418.23	10.932
418.43	9.795
418.63	10.935
418.84	10.841
419.04	10.534
419.24	10.732
419.45	10.979
419.65	10.858
419.85	11.046
420.06	10.638
420.26	10.854
420.46	10.688
420.67	10.920
420.87	10.749
421.07	10.624
421.28	10.506
421.48	10.828
421.68	10.451
421.88	11.027
422.09	10.866
422.29	10.693
422.49	10.431
422.70	10.499
422.90	10.405
423.10	10.995
423.31	11.177
423.51	10.891
423.71	10.118
423.91	11.079
424.12	10.778
424.32	10.978
424.52	10.924
424.73	10.424
424.93	10.643
425.13	10.374
425.33	10.049
425.54	10.505
425.74	10.470
425.94	11.369
426.15	10.860
426.35	10.856
426.55	10.696
426.75	10.854
426.96	10.663
427.16	10.448
427.36	10.665
427.57	11.115
427.77	10.423
427.97	10.922
428.17	10.558
428.38	10.717
428.58	9.509
428.78	10.491
428.98	9.658
429.19	9.695
429.39	9.376
429.59	10.948
429.79	8.992
430.00	9.452
430.20	8.875
430.40	10.211
430.60	9.837
430.81	10.110
431.01	9.443
431.21	10.026
431.41	9.311
431.62	10.346
431.82	9.028
432.02	10.112
432.22	9.429
432.43	10.070
432.63	9.330
432.83	9.779
433.03	9.382
433.24	9.594
433.44	9.154
433.64	10.127
433.84	9.141
434.05	10.222
434.25	9.860
434.45	10.223
434.65	10.343
434.85	10.461
435.06	10.016
435.26	9.882
435.46	9.725
435.66	10.065
435.87	9.977
436.07	9.728
436.27	9.886
436.47	9.383
436.67	9.584
436.88	10.623
437.08	9.859
437.28	9.596
437.48	9.864
437.69	10.681
437.89	9.847
438.09	10.387
438.29	9.877
438.49	10.297
438.70	9.828
438.90	9.881
439.10	9.548
439.30	9.972
439.50	9.167
439.71	10.239
439.91	9.607
440.11	10.305
440.31	9.651
440.51	9.723
440.72	9.464
440.92	9.638
441.12	9.830
441.32	10.517
441.52	9.915
441.72	10.255
441.93	9.869
442.13	10.557
442.33	9.637
442.53	10.540
442.73	9.576
442.94	9.944
443.14	10.008
443.34	10.779
443.54	9.840
443.74	10.729
443.94	10.217
444.15	9.566
444.35	9.563
444.55	10.280
444.75	9.664
444.95	10.124
445.15	9.791
445.36	9.783
445.56	9.339
445.76	9.447
445.96	9.303
446.16	9.448
446.36	9.427
446.57	9.877
446.77	9.561
446.97	9.923
447.17	10.003
447.37	10.016
447.57	9.938
447.77	10.024
447.98	9.736
448.18	10.041
448.38	9.832
448.58	10.089
448.78	10.099
448.98	9.852
449.18	9.891
449.39	10.198
449.59	9.818
449.79	10.047
449.99	9.717
450.19	10.365
450.39	9.417
450.59	10.218
450.79	9.836
451.00	9.829
451.20	10.989
451.40	10.224
451.60	9.668
451.80	10.010
452.00	9.614
452.20	9.714
452.40	9.801
452.61	9.645
452.81	9.364
453.01	9.804
453.21	9.159
453.41	9.789
453.61	9.554
453.81	9.440
454.01	9.268
454.21	9.955
454.42	10.192
454.62	9.518
454.82	9.479
455.02	9.697
455.22	9.314
455.42	9.845
455.62	9.296
455.82	9.591
456.02	9.143
456.23	9.843
456.43	8.809
456.63	9.766
456.83	8.754
457.03	9.900
457.23	8.992
457.43	9.927
457.63	8.599
457.83	9.524
458.03	9.015
458.23	9.106
458.43	8.585
458.64	9.530
458.84	9.433
459.04	9.082
459.24	9.476
459.44	9.140
459.64	9.312
459.84	8.892
460.04	9.435
460.24	9.420
460.44	9.119
460.64	9.383
460.84	9.470
461.04	9.668
461.24	9.653
461.45	9.805
461.65	9.593
461.85	10.078
462.05	9.703
462.25	9.857
462.45	9.947
462.65	9.580
462.85	9.052
463.05	9.701
463.25	8.617
463.45	10.003
463.65	9.201
463.85	9.669
464.05	9.066
464.25	9.402
464.45	9.452
464.65	9.428
464.85	8.580
465.05	9.295
465.26	9.412
465.46	9.379
465.66	9.160
465.86	9.733
466.06	9.501
466.26	9.125
466.46	8.838
466.66	9.118
466.86	9.063
467.06	9.249
467.26	9.267
467.46	9.557
467.66	9.369
467.86	9.030
468.06	8.845
468.26	9.133
468.46	9.508
468.66	9.581
468.86	9.005
469.06	9.616
469.26	8.652
469.46	9.368
469.66	8.083
469.86	9.432
470.06	8.889
470.26	9.825
470.46	8.660
470.66	9.992
470.86	8.704
471.06	9.619
471.26	8.706
471.46	8.924
471.66	8.772
471.86	9.619
472.06	8.660
472.26	9.745
472.46	9.881
472.66	9.616
472.86	8.879
473.06	9.653
473.26	8.936
473.46	9.632
473.66	8.615
473.86	9.513
474.06	8.782
474.26	9.529
474.46	8.731
474.66	9.641
474.86	9.381
475.06	9.387
475.26	8.766
475.46	9.760
475.66	8.643
475.86	9.218
476.06	9.699
476.26	9.449
476.46	8.919
476.66	9.081
476.86	8.855
477.06	9.148
477.26	8.707
477.46	9.424
477.65	8.684
477.85	9.387
478.05	8.663
478.25	9.792
478.45	9.374
478.65	9.193
478.85	9.172
479.05	9.571
479.25	9.495
479.45	9.669
479.65	9.137
479.85	9.350
480.05	9.249
480.25	9.645
480.45	9.432
480.65	9.773
480.85	9.508
481.05	9.742
481.25	9.887
481.44	10.095
481.64	9.200
481.84	9.486
482.04	9.516
482.24	9.987
482.44	9.050
482.64	9.429
482.84	9.346
483.04	9.134
483.24	9.040
483.44	9.261
483.64	9.034
483.84	9.016
484.04	9.155
484.23	9.241
484.43	9.440
484.63	9.392
484.83	9.786
485.03	10.248
485.23	10.159
485.43	10.079
485.63	10.023
485.83	9.968
486.03	9.987
486.23	10.021
486.42	10.064
486.62	9.907
486.82	9.773
487.02	9.869
487.22	9.634
487.42	9.467
487.62	9.507
487.82	9.520
488.02	9.327
488.22	9.358
488.41	9.732
488.61	9.455
488.81	9.556
489.01	9.704
489.21	9.876
489.41	9.951
489.61	9.834
489.81	10.213
490.01	10.021
490.20	10.103
490.40	9.896
490.60	10.435
490.80	9.940
491.00	10.266
491.20	9.830
491.40	9.437
491.60	9.553
491.79	9.485
491.99	9.632
492.19	9.641
492.39	9.743
492.59	9.664
492.79	9.787
492.99	9.910
493.19	9.844
493.38	10.113
493.58	10.306
493.78	10.294
493.98	10.378
494.18	10.624
494.38	10.257
494.58	10.572
494.77	10.414
494.97	9.952
495.17	10.304
495.37	10.506
495.57	10.421
495.77	10.065
495.96	10.207
496.16	10.315
496.36	9.734
496.56	10.050
496.76	10.466
496.96	9.905
497.15	10.199
497.35	10.136
497.55	10.011
497.75	10.149
497.95	10.074
498.15	10.359
498.34	10.322
498.54	10.191
498.74	10.545
498.94	10.284
499.14	10.331
499.34	10.892
499.53	10.329
499.73	10.187
499.93	10.147
500.13	10.601
500.33	9.633
500.52	10.436
500.72	10.048
500.92	10.356
501.12	10.054
501.32	10.245
501.52	10.416
501.71	10.425
501.91	9.919
502.11	10.491
502.31	9.751
502.51	10.608
502.70	10.306
502.90	10.253
503.10	9.993
503.30	10.737
503.50	10.337
503.69	10.326
503.89	10.238
504.09	10.623
504.29	10.248
504.48	10.480
504.68	10.492
504.88	10.360
505.08	10.153
505.28	10.272
505.47	10.138
505.67	10.791
505.87	10.523
506.07	10.461
506.27	10.493
506.46	10.604
506.66	10.319
506.86	10.618
507.06	10.750
507.25	10.806
507.45	10.700
507.65	10.459
507.85	10.302
508.04	10.521
508.24	10.594
508.44	10.651
508.64	10.181
508.83	10.438
509.03	10.190
509.23	10.431
509.43	10.247
509.63	10.396
509.82	10.158
510.02	10.694
510.22	10.349
510.42	10.443
510.61	10.222
510.81	10.152
511.01	10.782
511.21	10.454
511.40	10.216
511.60	10.521
511.80	10.460
511.99	10.709
512.19	10.789
512.39	10.869
512.59	10.646
512.78	10.877
512.98	10.694
513.18	10.726
513.38	10.765
513.57	10.622
513.77	10.643
513.97	10.661
514.17	10.467
514.36	10.716
514.56	10.639
514.76	11.054
514.95	10.519
515.15	10.924
515.35	10.595
515.55	10.708
515.74	10.910
515.94	10.895
516.14	10.464
516.33	11.072
516.53	10.707
516.73	10.852
516.93	10.601
517.12	10.851
517.32	10.224
517.52	10.595
517.71	10.272
517.91	10.575
518.11	10.656
518.30	10.726
518.50	10.132
518.70	10.842
518.90	10.590
519.09	10.198
519.29	10.576
519.49	10.632
519.68	10.418
519.88	10.800
520.08	10.314
520.27	10.779
520.47	11.149
520.67	10.661
520.86	10.795
521.06	10.818
521.26	10.938
521.45	10.926
521.65	10.927
521.85	10.866
522.04	10.534
522.24	10.725
522.44	10.796
522.63	11.199
522.83	10.794
523.03	10.934
523.22	11.075
523.42	11.473
523.62	10.657
523.81	10.714
524.01	11.223
524.21	10.823
524.40	10.927
524.60	11.176
524.80	10.536
524.99	10.836
525.19	10.626
525.39	10.641
525.58	10.699
525.78	10.481
525.98	10.753
526.17	10.436
526.37	10.476
526.57	10.554
526.76	10.865
526.96	10.602
527.15	10.493
527.35	10.743
527.55	10.618
527.74	10.930
527.94	10.543
528.14	10.461
528.33	10.235
528.53	10.220
528.72	10.327
528.92	10.397
529.12	10.439
529.31	10.545
529.51	10.750
529.71	10.727
529.90	10.555
530.10	10.808
530.29	10.929
530.49	11.091
530.69	11.196
530.88	11.183
531.08	11.196
531.28	11.218
531.47	11.128
531.67	11.130
531.86	11.240
532.06	10.934
532.26	10.778
532.45	10.879
532.65	10.910
532.84	10.644
533.04	10.826
533.24	10.471
533.43	10.500
533.63	10.482
533.82	10.941
534.02	10.994
534.22	10.835
534.41	10.779
534.61	10.954
534.80	10.943
535.00	10.994
535.19	11.246
535.39	11.540
535.59	11.366
535.78	11.241
535.98	11.269
536.17	11.098
536.37	10.900
536.57	11.150
536.76	10.840
536.96	11.150
537.15	11.057
537.35	11.089
537.54	11.041
537.74	11.012
537.93	11.172
538.13	11.593
538.33	11.400
538.52	11.464
538.72	11.756
538.91	11.357
539.11	11.605
539.30	11.530
539.50	11.586
539.70	11.328
539.89	11.497
540.09	11.195
540.28	11.060
540.48	10.861
540.67	11.371
540.87	10.916
541.06	10.861
541.26	10.890
541.45	10.982
541.65	11.213
541.85	10.924
542.04	10.996
542.24	11.029
542.43	11.304
542.63	11.202
542.82	11.396
543.02	11.472
543.21	11.631
543.41	11.623
543.60	11.584
543.80	11.760
543.99	11.646
544.19	11.689
544.38	11.808
544.58	11.904
544.77	11.865
544.97	12.080
545.16	11.862
545.36	11.639
545.56	11.904
545.75	11.696
545.95	12.137
546.14	11.956
546.34	11.801
546.53	11.863
546.73	11.374
546.92	11.949
547.12	11.711
547.31	11.962
547.51	12.120
547.70	11.741
547.90	12.067
548.09	12.236
548.29	12.032
548.48	12.329
548.68	12.225
548.87	12.461
549.07	12.128
549.26	12.241
549.46	12.303
549.65	12.384
549.84	12.655
550.04	12.807
550.23	12.322
550.43	12.414
550.62	12.503
550.82	12.858
551.01	12.623
551.21	12.890
551.40	12.247
551.60	12.983
551.79	12.428
551.99	12.772
552.18	12.685
552.38	12.998
552.57	12.521
552.77	12.702
552.96	12.739
553.16	12.944
553.35	12.972
553.54	12.550
553.74	12.738
553.93	12.964
554.13	13.297
554.32	13.144
554.52	13.243
554.71	13.140
554.91	13.162
555.10	13.343
555.29	12.538
555.49	13.371
555.68	13.079
555.88	13.399
556.07	12.959
556.27	13.278
556.46	13.298
556.66	13.410
556.85	13.695
557.04	13.575
557.24	13.081
557.43	13.668
557.63	13.750
557.82	13.258
558.02	13.274
558.21	14.271
558.40	13.765
558.60	14.062
558.79	13.476
558.99	14.047
559.18	13.451
559.38	13.930
559.57	13.905
559.76	14.263
559.96	14.896
560.15	14.417
560.35	13.985
560.54	14.001
560.73	13.419
560.93	14.032
561.12	14.101
561.32	14.254
561.51	14.255
561.70	14.957
561.90	14.042
562.09	14.894
562.29	14.584
562.48	14.690
562.67	14.350
562.87	14.825
563.06	14.299
563.26	14.681
563.45	14.761
563.64	15.126
563.84	14.417
564.03	14.169
564.23	14.452
564.42	15.410
564.61	14.603
564.81	14.783
565.00	14.517
565.20	14.647
565.39	14.686
565.58	15.000
565.78	14.956
565.97	14.784
566.16	14.932
566.36	15.484
566.55	14.669
566.74	15.307
566.94	15.544
567.13	15.261
567.33	14.607
567.52	15.476
567.71	15.517
567.91	15.385
568.10	15.581
568.29	15.366
568.49	15.727
568.68	15.619
568.87	15.489
569.07	15.747
569.26	15.278
569.45	15.776
569.65	15.790
569.84	15.872
570.04	15.447
570.23	15.822
570.42	15.438
570.62	15.967
570.81	15.619
571.00	15.498
571.20	15.675
571.39	16.024
571.58	15.277
571.78	15.724
571.97	15.685
572.16	15.648
572.36	15.446
572.55	15.730
572.74	15.522
572.94	15.810
573.13	15.646
573.32	16.099
573.51	15.955
573.71	16.162
573.90	15.653
574.09	15.678
574.29	15.653
574.48	16.072
574.67	15.678
574.87	16.086
575.06	15.907
575.25	15.596
575.45	15.896
575.64	15.690
575.83	15.736
576.03	16.915
576.22	15.664
576.41	16.251
576.60	15.722
576.80	15.760
576.99	16.273
577.18	16.420
577.38	16.590
577.57	16.213
577.76	16.351
577.95	16.354
578.15	16.181
578.34	16.314
578.53	15.782
578.73	16.545
578.92	16.121
579.11	16.077
579.30	16.427
579.50	16.487
579.69	16.568
579.88	16.123
580.08	15.432
580.27	15.564
580.46	15.838
580.65	15.936
580.85	16.380
581.04	16.261
581.23	16.062
581.42	15.895
581.62	15.935
581.81	16.228
582.00	16.577
582.19	16.018
582.39	15.842
582.58	16.079
582.77	16.700
582.96	16.525
583.16	15.763
583.35	16.178
583.54	16.199
583.73	16.333
583.93	16.002
584.12	16.011
584.31	16.100
584.50	15.275
584.70	16.077
584.89	15.709
585.08	15.932
585.27	16.239
585.47	15.528
585.66	16.285
585.85	16.016
586.04	15.484
586.24	16.141
586.43	15.464
586.62	16.290
586.81	16.183
587.00	16.069
587.20	15.906
587.39	15.153
587.58	16.035
587.77	16.032
587.97	16.118
588.16	15.909
588.35	16.113
588.54	14.751
588.73	15.554
588.93	15.703
589.12	15.847
589.31	16.025
589.50	15.433
589.69	15.341
589.89	15.352
590.08	15.749
590.27	15.488
590.46	15.440
590.65	15.415
590.85	14.861
591.04	15.985
591.23	15.363
591.42	15.796
591.61	15.317
591.81	15.669
592.00	15.745
592.19	15.995
592.38	15.381
592.57	15.923
592.77	15.783
592.96	15.656
593.15	16.363
593.34	14.956
593.53	15.811
593.72	15.965
593.92	15.398
594.11	16.142
594.30	15.812
594.49	15.475
594.68	15.207
594.87	15.334
595.07	14.703
595.26	15.655
595.45	15.210
595.64	15.526
595.83	15.452
596.02	15.444
596.22	15.361
596.41	15.912
596.60	15.502
596.79	16.185
596.98	15.451
597.17	15.568
597.37	15.807
597.56	15.896
597.75	15.328
597.94	15.531
598.13	16.122
598.32	15.655
598.51	15.619
598.71	16.438
598.90	15.897
599.09	16.377
599.28	15.707
599.47	16.152
599.66	15.559
599.85	16.026
600.05	15.729
600.24	16.066
600.43	16.215
600.62	16.514
600.81	15.855
601.00	16.586
601.19	16.234
601.38	16.785
601.58	16.391
601.77	17.280
601.96	16.335
602.15	16.391
602.34	16.320
602.53	17.161
602.72	15.923
602.91	16.590
603.10	16.343
603.30	16.603
603.49	15.663
603.68	15.793
603.87	16.018
604.06	15.842
604.25	16.272
604.44	15.899
604.63	16.368
604.82	16.133
605.01	16.559
605.21	16.096
605.40	15.966
605.59	16.334
605.78	15.815
605.97	16.289
606.16	15.953
606.35	16.027
606.54	16.498
606.73	16.487
606.92	16.531
607.11	16.386
607.30	16.401
607.50	16.351
607.69	16.689
607.88	16.021
608.07	16.270
608.26	16.620
608.45	16.310
608.64	16.325
608.83	15.850
609.02	16.011
609.21	15.351
609.40	15.888
609.59	15.905
609.78	16.080
609.97	15.367
610.16	16.123
610.35	16.268
610.55	15.660
610.74	16.063
610.93	15.798
611.12	15.424
611.31	15.713
611.50	15.880
611.69	15.762
611.88	15.808
612.07	16.564
612.26	15.283
612.45	15.831
612.64	16.098
612.83	15.964
613.02	15.577
613.21	15.794
613.40	15.114
613.59	16.605
613.78	14.550
613.97	16.274
614.16	15.141
614.35	15.528
614.54	14.736
614.73	15.300
614.92	15.740
615.11	15.714
615.30	15.791
615.49	14.134
615.68	15.066
615.87	15.720
616.07	14.462
616.26	15.585
616.45	15.305
616.64	15.734
616.83	14.352
617.02	15.145
617.21	14.499
617.40	14.236
617.59	15.160
617.78	15.199
617.97	15.414
618.16	14.225
618.35	13.614
618.54	14.610
618.73	14.721
618.92	14.669
619.11	14.441
619.30	14.526
619.49	14.085
619.68	14.764
619.86	15.132
620.05	15.066
620.24	13.937
620.43	14.589
620.62	13.214
620.81	14.692
621.00	14.832
621.19	14.564
621.38	14.913
621.57	14.338
621.76	13.851
621.95	14.081
622.14	15.053
622.33	15.361
622.52	13.632
622.71	15.191
622.90	13.284
623.09	14.161
623.28	13.531
623.47	14.434
623.66	14.521
623.85	14.219
624.04	13.976
624.23	14.164
624.42	13.833
624.61	13.971
624.80	13.257
624.99	14.261
625.18	13.657
625.36	14.377
625.55	14.213
625.74	13.316
625.93	13.207
626.12	14.577
626.31	14.089
626.50	14.603
626.69	13.275
626.88	14.612
627.07	14.097
627.26	14.097
627.45	13.221
627.64	13.869
627.83	13.211
628.02	14.032
628.20	13.807
628.39	13.626
628.58	13.660
628.77	13.841
628.96	13.204
629.15	14.525
629.34	13.840
629.53	13.888
629.72	13.480
629.91	14.801
630.10	13.220
630.29	14.002
630.47	14.023
630.66	13.921
630.85	13.736
631.04	14.088
631.23	13.719
631.42	13.784
631.61	13.536
631.80	14.415
631.99	12.953
632.18	14.132
632.36	12.882
632.55	14.522
632.74	13.666
632.93	13.529
633.12	13.628
633.31	13.585
633.50	13.951
633.69	13.535
633.88	12.953
634.06	13.454
634.25	14.009
634.44	13.812
634.63	14.021
634.82	14.095
635.01	13.038
635.20	13.740
635.39	12.806
635.57	13.942
635.76	13.679
635.95	14.063
636.14	13.007
636.33	13.972
636.52	12.832
636.71	13.586
636.89	13.720
637.08	13.662
637.27	11.801
637.46	12.858
637.65	13.451
637.84	13.183
638.03	13.426
638.21	13.925
638.40	12.993
638.59	12.902
638.78	12.120
638.97	13.803
639.16	13.257
639.34	13.677
639.53	12.545
639.72	12.954
639.91	12.793
640.10	12.943
640.29	13.803
640.47	12.998
640.66	12.858
640.85	14.537
641.04	12.079
641.23	14.108
641.42	12.454
641.60	13.213
641.79	13.099
641.98	13.197
642.17	12.333
642.36	13.185
642.54	12.860
642.73	12.987
642.92	12.402
643.11	13.457
643.30	12.650
643.49	13.544
643.67	12.143
643.86	13.887
644.05	11.749
644.24	12.410
644.43	11.552
644.61	12.348
644.80	12.885
644.99	13.115
645.18	13.301
645.37	13.138
645.55	12.465
645.74	12.489
645.93	11.908
646.12	12.684
646.31	12.573
646.49	13.022
646.68	12.570
646.87	12.535
647.06	12.308
647.24	12.818
647.43	11.630
647.62	13.584
647.81	12.168
648.00	13.355
648.18	11.511
648.37	12.366
648.56	12.693
648.75	12.372
648.93	12.141
649.12	13.292
649.31	13.528
649.50	12.894
649.68	11.758
649.87	12.238
650.06	11.321
650.25	12.832
650.43	12.381
650.62	12.122
650.81	12.110
651.00	12.200
651.18	11.789
651.37	13.754
651.56	11.898
651.75	12.611
651.93	11.956
652.12	11.613
652.31	11.361
652.50	12.579
652.68	12.433
652.87	13.744
653.06	12.818
653.25	12.987
653.43	12.698
653.62	12.561
653.81	12.198
654.00	13.241
654.18	11.182
654.37	12.898
654.56	11.399
654.74	10.663
654.93	12.062
655.12	11.987
655.31	12.904
655.49	12.028
655.68	11.236
655.87	11.209
656.05	10.490
656.24	11.894
656.43	10.467
656.62	11.213
656.80	10.874
656.99	11.094
657.18	11.199
657.36	10.944
657.55	11.657
657.74	10.754
657.93	11.574
658.11	12.905
658.30	11.095
658.49	11.036
658.67	10.889
658.86	10.581
659.05	10.603
659.23	11.085
659.42	10.014
659.61	10.315
659.79	11.130
659.98	11.071
660.17	11.047
660.35	10.823
660.54	10.929
660.73	11.657
660.91	10.763
661.10	11.077
661.29	9.382
661.47	9.522
661.66	9.925
661.85	10.671
662.03	10.989
662.22	9.812
662.41	9.136
662.59	9.174
662.78	9.206
662.97	8.399
663.15	9.689
663.34	9.312
663.53	9.188
663.71	10.104
663.90	9.786
664.09	10.731
664.27	9.621
664.46	8.979
664.65	9.250
664.83	9.526
665.02	8.664
665.21	8.356
665.39	8.375
665.58	10.016
665.77	9.438
665.95	9.329
666.14	8.490
666.32	8.988
666.51	8.384
666.70	8.265
666.88	8.195
667.07	8.162
667.26	8.331
667.44	9.246
667.63	9.173
667.81	7.792
668.00	8.076
668.19	9.853
668.37	8.080
668.56	10.217
668.75	8.741
668.93	10.861
669.12	7.894
669.30	8.203
669.49	7.987
669.68	9.895
669.86	9.722
670.05	8.369
670.23	8.262
670.42	8.644
670.61	8.984
670.79	8.424
670.98	9.203
671.16	9.491
671.35	8.561
671.54	9.299
671.72	7.940
671.91	10.999
672.09	7.841
672.28	10.569
672.46	9.611
672.65	9.479
672.84	8.818
673.02	11.310
673.21	7.865
673.39	9.329
673.58	8.945
673.77	9.716
673.95	9.701
674.14	9.797
674.32	8.741
674.51	11.045
674.69	8.712
674.88	8.808
675.07	9.560
675.25	11.444
675.44	10.161
675.62	9.854
675.81	8.947
675.99	12.245
676.18	11.314
676.36	9.536
676.55	9.341
676.74	10.792
676.92	11.216
677.11	10.178
677.29	9.970
677.48	12.216
677.66	10.669
677.85	10.573
678.03	10.464
678.22	11.362
678.40	10.276
678.59	9.458
678.78	9.112
678.96	10.090
679.15	10.499
679.33	11.830
679.52	11.361
679.70	10.176
679.89	10.539
680.07	10.571
680.26	9.749
680.44	11.437
680.63	10.746
680.81	11.039
681.00	9.082
681.18	11.158
681.37	10.228
681.55	12.179
681.74	11.184
681.92	11.413
682.11	11.077
682.29	10.968
682.48	10.898
682.66	11.552
682.85	10.239
683.03	10.887
683.22	11.600
683.40	13.202
683.59	11.694
683.77	12.855
683.96	10.724
684.14	12.935
684.33	9.988
684.51	13.637
684.70	11.800
684.88	12.893
685.07	11.924
685.25	13.482
685.44	12.361
685.62	12.694
685.81	11.444
685.99	13.693
686.18	11.995
686.36	13.304
686.55	11.512
686.73	13.179
686.92	12.918
687.10	13.505
687.29	14.297
687.47	14.749
687.65	13.764
687.84	13.138
688.02	14.912
688.21	14.799
688.39	12.163
688.58	14.393
688.76	13.846
688.95	15.362
689.13	13.631
689.32	15.565
689.50	14.921
689.68	15.528
689.87	14.059
690.05	15.621
690.24	14.596
690.42	15.288
690.61	15.711
690.79	17.517
690.98	14.840
691.16	14.865
691.34	15.047
691.53	16.759
691.71	14.042
691.90	15.988
692.08	14.290
692.27	18.489
692.45	17.368
692.63	16.074
692.82	16.866
693.00	17.152
693.19	15.464
693.37	17.417
693.56	16.564
693.74	17.674
693.92	17.115
694.11	18.791
694.29	17.921
694.48	19.019
694.66	18.331
694.84	17.117
695.03	18.553
695.21	19.151
695.40	20.371
695.58	19.717
695.76	18.792
695.95	20.333
696.13	18.815
696.32	21.179
696.50	21.336
696.68	20.679
696.87	19.250
697.05	20.845
697.24	20.726
697.42	20.627
697.60	20.196
697.79	21.347
697.97	21.114
698.16	21.665
698.34	19.283
698.52	21.219
698.71	20.634
698.89	21.949
699.07	20.558
699.26	21.914
699.44	20.493
699.63	22.148
699.81	21.218
699.99	21.967
700.18	21.197
700.36	21.478
700.54	21.968
700.73	21.704
700.91	21.340
701.09	23.138
701.28	23.465
701.46	23.693
701.64	22.886
701.83	23.538
702.01	22.927
702.20	23.844
702.38	23.029
702.56	23.589
702.75	23.505
702.93	24.033
703.11	22.350
703.30	23.976
703.48	23.906
703.66	24.691
703.85	22.702
704.03	25.617
704.21	24.031
704.40	26.606
704.58	23.523
704.76	27.050
704.95	25.310
705.13	26.286
705.31	24.854
705.50	26.421
705.68	24.139
705.86	26.070
706.04	26.653
706.23	27.098
706.41	25.946
706.59	24.005
706.78	25.858
706.96	25.368
707.14	25.589
707.33	27.500
707.51	26.579
707.69	27.219
707.88	26.486
708.06	27.838
708.24	27.633
708.42	28.074
708.61	27.463
708.79	28.078
708.97	27.101
709.16	26.295
709.34	28.738
709.52	28.135
709.71	28.006
709.89	27.016
710.07	24.905
710.25	28.367
710.44	26.364
710.62	26.672
710.80	27.765
710.98	26.817
711.17	25.581
711.35	27.711
711.53	27.027
711.72	27.379
711.90	27.421
712.08	26.205
712.26	26.788
712.45	27.256
712.63	26.884
712.81	28.854
712.99	26.688
713.18	28.070
713.36	27.131
713.54	27.410
713.72	25.645
713.91	28.234
714.09	26.202
714.27	26.568
714.45	28.373
714.64	28.046
714.82	26.985
715.00	28.157
715.18	28.022
715.37	27.477
715.55	27.549
715.73	28.285
715.91	27.846
716.10	27.067
716.28	24.937
716.46	28.257
716.64	26.648
716.83	27.968
717.01	25.893
717.19	27.602
717.37	25.999
717.55	27.014
717.74	27.212
717.92	26.771
718.10	23.472
718.28	26.743
718.47	25.520
718.65	29.798
718.83	26.185
719.01	27.760
719.19	26.003
719.38	27.649
719.56	26.010
719.74	26.789
719.92	24.220
720.10	26.566
720.29	27.101
720.47	28.195
720.65	27.801
720.83	28.030
721.01	26.137
721.20	27.277
721.38	27.298
721.56	27.872
721.74	27.585
721.92	27.433
722.11	29.389
722.29	27.172
722.47	28.013
722.65	30.319
722.83	27.926
723.01	27.430
723.20	29.892
723.38	27.265
723.56	26.623
723.74	29.879
723.92	28.296
724.10	30.095
724.29	27.723
724.47	27.522
724.65	27.787
724.83	28.788
725.01	26.222
725.19	28.760
725.38	28.243
725.56	27.696
725.74	29.071
725.92	30.820
726.10	29.581
726.28	29.109
726.46	30.388
726.65	29.777
726.83	27.172
727.01	29.453
727.19	29.965
727.37	27.061
727.55	28.565
727.73	28.431
727.92	28.158
728.10	28.816
728.28	27.890
728.46	30.439
728.64	26.650
728.82	28.458
729.00	27.879
729.19	28.975
729.37	27.904
729.55	29.676
729.73	25.774
729.91	29.755
730.09	30.025
730.27	29.581
730.45	27.513
730.63	28.709
730.82	28.297
731.00	26.518
731.18	29.258
731.36	30.071
731.54	26.701
731.72	30.803
731.90	27.322
732.08	27.686
732.26	28.907
732.45	29.383
732.63	29.064
732.81	30.519
732.99	27.890
733.17	28.633
733.35	29.806
733.53	30.611
733.71	28.173
733.89	29.634
734.07	29.374
734.25	29.979
734.44	28.965
734.62	27.972
734.80	29.553
734.98	29.617
735.16	30.183
735.34	31.125
735.52	29.994
735.70	31.121
735.88	30.993
736.06	30.604
736.24	31.466
736.42	31.357
736.60	31.443
736.78	31.325
736.97	31.827
737.15	35.723
737.33	27.752
737.51	31.998
737.69	32.060
737.87	33.646
738.05	30.341
738.23	31.962
738.41	29.662
738.59	31.933
738.77	31.133
738.95	33.089
739.13	30.918
739.31	32.660
739.49	31.768
739.67	32.906
739.85	30.132
740.03	32.292
740.21	32.278
740.39	34.134
740.57	33.317
740.75	32.026
740.93	32.795
741.11	32.111
741.30	32.104
741.48	34.658
741.66	33.712
741.84	32.533
742.02	30.767
742.20	31.285
742.38	33.854
742.56	35.675
742.74	32.087
742.92	34.512
743.10	32.384
743.28	33.991
743.46	33.557
743.64	30.416
743.82	32.313
744.00	34.438
744.18	31.392
744.36	35.942
744.54	34.104
744.72	38.196
744.90	38.113
745.08	35.904
745.26	33.567
745.44	36.159
745.62	35.352
745.80	32.717
745.98	32.920
746.16	34.405
746.34	35.352
746.52	34.968
746.70	34.012
746.87	33.811
747.05	33.125
747.23	34.015
747.41	32.079
747.59	35.500
747.77	34.397
747.95	35.357
748.13	33.854
748.31	38.493
748.49	33.958
748.67	33.313
748.85	32.327
749.03	36.571
749.21	33.116
749.39	35.442
749.57	31.453
749.75	33.749
749.93	34.377
750.11	35.635
750.29	32.654
750.47	33.232
750.65	32.879
750.83	32.252
751.01	32.097
751.18	34.783
751.36	30.689
751.54	36.991
751.72	35.703
751.90	32.977
752.08	31.262
752.26	33.446
752.44	35.149
752.62	34.231
752.80	35.981
752.98	35.503
753.16	35.061
753.34	35.278
753.52	36.001
753.69	35.453
753.87	34.541
754.05	35.501
754.23	33.426
754.41	34.713
754.59	33.911
754.77	35.184
754.95	33.746
755.13	33.009
755.31	33.640
755.49	34.199
755.66	32.500
755.84	33.517
756.02	29.968
756.20	34.734
756.38	35.153
756.56	35.195
756.74	34.606
756.92	33.066
757.10	32.347
757.28	34.430
757.45	40.792
757.63	34.679
757.81	30.103
757.99	38.185
758.17	35.139
758.35	35.307
758.53	34.948
758.71	31.794
758.88	33.746
759.06	34.642
759.24	30.439
759.42	32.406
759.60	29.897
759.78	30.116
759.96	29.054
760.13	31.153
760.31	27.127
760.49	27.973
760.67	26.669
760.85	27.185
761.03	25.791
761.21	23.259
761.38	22.769
761.56	23.677
761.74	23.610
761.92	26.550
762.10	21.506
762.28	28.353
762.46	21.888
762.63	25.872
762.81	22.222
762.99	24.081
763.17	24.948
763.35	23.534
763.53	24.071
763.70	25.411
763.88	24.478
764.06	24.422
764.24	24.915
764.42	24.632
764.60	25.598
764.77	24.835
764.95	25.822
765.13	25.443
765.31	25.767
765.49	25.961
765.66	23.957
765.84	27.765
766.02	25.636
766.20	27.238
766.38	26.155
766.56	27.279
766.73	27.664
766.91	28.773
767.09	29.896
767.27	32.105
767.45	28.554
767.62	30.269
767.80	28.676
767.98	31.991
768.16	28.779
768.33	32.576
768.51	33.197
768.69	33.713
768.87	31.751
769.05	31.898
769.22	31.601
769.40	35.506
769.58	33.519
769.76	37.437
769.94	32.780
770.11	32.963
770.29	34.694
770.47	34.173
770.65	35.584
770.82	36.305
771.00	37.221
771.18	39.816
771.36	37.028
771.53	32.656
771.71	32.951
771.89	38.878
772.07	39.968
772.25	35.198
772.42	33.684
772.60	34.670
772.78	34.586
772.96	35.367
773.13	34.545
773.31	38.660
773.49	35.254
773.67	36.312
773.84	35.510
774.02	37.043
774.20	38.245
774.37	38.754
774.55	33.934
774.73	38.525
774.91	36.540
775.08	39.023
775.26	39.522
775.44	37.494
775.62	36.995
775.79	33.626
775.97	34.875
776.15	38.927
776.32	34.723
776.50	40.265
776.68	41.779
776.86	39.478
777.03	33.591
777.21	36.987
777.39	32.192
777.56	41.429
777.74	30.469
777.92	34.964
778.10	34.589
778.27	37.148
778.45	36.479
778.63	37.752
778.80	37.221
778.98	35.603
779.16	39.226
779.34	35.291
779.51	39.891
779.69	40.009
779.87	38.344
780.04	36.438
780.22	35.588
780.40	40.028
780.57	35.446
780.75	35.624
780.93	35.377
781.10	34.640
781.28	46.486
781.46	37.447
781.63	38.927
781.81	40.859
781.99	35.271
782.16	35.005
782.34	36.749
782.52	35.596
782.69	39.609
782.87	38.636
783.05	35.439
783.22	40.149
783.40	35.288
783.58	42.691
783.75	36.546
783.93	39.376
784.11	35.718
784.28	38.642
784.46	36.327
784.64	37.534
784.81	41.134
784.99	44.578
785.17	40.809
785.34	33.560
785.52	33.929
785.69	36.026
785.87	32.299
786.05	38.561
786.22	38.755
786.40	42.280
786.58	35.284
786.75	42.367
786.93	38.531
787.11	39.936
787.28	38.388
787.46	42.943
787.63	42.018
787.81	38.597
787.99	39.607
788.16	30.168
788.34	35.859
788.51	35.650
788.69	32.780
788.87	33.926
789.04	35.425
789.22	32.901
789.39	34.174
789.57	34.021
789.75	32.250
789.92	35.303
790.10	34.236
790.27	33.522
790.45	29.818
790.63	33.946
790.80	32.548
790.98	34.116
791.15	34.151
791.33	36.271
791.51	33.496
791.68	34.301
791.86	36.339
792.03	37.387
792.21	37.536
792.39	37.065
792.56	34.622
792.74	39.294
792.91	39.359
793.09	33.918
793.26	32.204
793.44	38.872
793.62	35.167
793.79	37.824
793.97	38.250
794.14	37.331
794.32	33.830
794.49	36.164
794.67	33.713
794.84	35.727
795.02	38.331
795.20	37.433
795.37	32.996
795.55	35.512
795.72	34.629
795.90	35.257
796.07	34.915
796.25	35.523
796.42	35.830
796.60	34.826
796.77	31.360
796.95	34.736
797.13	33.202
797.30	38.568
797.48	36.636
797.65	33.905
797.83	36.597
798.00	36.675
798.18	32.662
798.35	37.877
798.53	35.064
798.70	35.019
798.88	35.930
799.05	33.451
799.23	35.589
799.40	35.773
799.58	33.450
799.75	35.517
799.93	28.859
800.10	36.702
800.28	40.201
800.45	37.620
800.63	33.353
800.80	39.383
800.98	40.119
801.15	36.743
801.33	35.329
801.50	35.762
801.68	31.932
801.85	35.137
802.03	34.099
802.20	34.884
802.38	33.736
802.55	42.605
802.73	35.473
802.90	33.312
803.08	31.643
803.25	44.108
803.43	35.341
803.60	41.994
803.78	38.346
803.95	38.923
804.13	35.365
804.30	36.429
804.48	39.498
804.65	37.406
804.83	36.685
805.00	35.204
805.17	39.669
805.35	42.119
805.52	34.852
805.70	34.758
805.87	37.850
806.05	35.286
806.22	34.483
806.40	37.347
806.57	37.240
806.75	38.922
806.92	39.919
807.09	31.136
807.27	35.597
807.44	34.812
807.62	36.129
807.79	37.367
807.97	37.458
808.14	35.030
808.31	35.368
808.49	39.629
808.66	35.085
808.84	34.348
809.01	43.041
809.19	40.606
809.36	38.376
809.53	40.753
809.71	41.769
809.88	44.535
810.06	37.391
810.23	37.631
810.41	42.835
810.58	40.457
810.75	36.497
810.93	39.550
811.10	38.496
811.28	36.634
811.45	41.930
811.62	40.549
811.80	35.810
811.97	35.008
812.15	44.183
812.32	38.084
812.49	38.834
812.67	38.944
812.84	35.537
813.02	38.956
813.19	33.433
813.36	37.394
813.54	40.260
813.71	37.817
813.89	35.023
814.06	41.232
814.23	34.699
814.41	40.774
814.58	39.955
814.75	37.378
814.93	42.150
815.10	41.062
815.28	36.617
815.45	30.576
815.62	36.847
815.80	32.893
815.97	37.886
816.14	37.722
816.32	39.300
816.49	37.654
816.66	38.382
816.84	32.788
817.01	32.962
817.18	39.555
817.36	36.721
817.53	33.621
817.71	33.625
817.88	30.502
818.05	32.974
818.23	34.600
818.40	33.984
818.57	25.080
818.75	32.717
818.92	33.357
819.09	30.441
819.27	28.832
819.44	33.359
819.61	33.428
819.79	33.381
819.96	38.716
820.13	32.876
820.31	35.809
820.48	29.309
820.65	30.519
820.82	25.910
821.00	32.287
821.17	27.421
821.34	27.699
821.52	26.267
821.69	23.664
821.86	22.930
822.04	24.081
822.21	21.672
822.38	22.476
822.56	20.690
822.73	22.215
822.90	21.119
823.07	22.452
823.25	21.172
823.42	21.663
823.59	20.478
823.77	21.897
823.94	21.577
824.11	21.380
824.29	20.195
824.46	22.235
824.63	22.685
824.80	22.727
824.98	21.069
825.15	23.519
825.32	20.615
825.49	23.808
825.67	20.908
825.84	22.997
826.01	21.166
826.19	24.208
826.36	19.696
826.53	26.495
826.70	22.773
826.88	24.192
827.05	20.366
827.22	21.074
827.39	22.342
827.57	19.948
827.74	18.441
827.91	22.200
828.08	21.086
828.26	22.350
828.43	20.634
828.60	24.009
828.77	19.990
828.95	19.830
829.12	19.823
829.29	19.034
829.46	21.200
829.64	23.158
829.81	21.558
829.98	23.974
830.15	25.068
830.32	23.588
830.50	25.621
830.67	27.522
830.84	27.756
831.01	24.723
831.19	25.987
831.36	25.571
831.53	32.207
831.70	29.416
831.87	27.834
832.05	32.777
832.22	38.073
832.39	32.103
832.56	32.074
832.74	31.656
832.91	29.544
833.08	37.914
833.25	28.073
833.42	29.107
833.60	26.939
833.77	22.192
833.94	20.584
834.11	22.285
834.28	21.626
834.45	25.972
834.63	19.144
834.80	23.797
834.97	20.634
835.14	22.773
835.31	22.341
835.49	23.679
835.66	25.461
835.83	22.439
836.00	23.566
836.17	25.612
836.34	23.356
836.52	21.919
836.69	29.615
836.86	26.230
837.03	31.864
837.20	24.689
837.37	28.350
837.55	23.414
837.72	29.285
837.89	31.758
838.06	29.902
838.23	31.355
838.40	41.284
838.58	35.593
838.75	43.159
838.92	39.551
839.09	45.903
839.26	39.638
839.43	46.546
839.60	40.276
839.78	47.260
839.95	58.157
840.12	44.914
840.29	50.801
840.46	42.455
840.63	42.126
840.80	41.264
840.98	40.807
841.15	41.221
841.32	36.460
841.49	42.339
841.66	43.738
841.83	39.643
842.00	37.896
842.17	51.734
842.34	39.648
842.52	44.729
842.69	46.512
842.86	50.000
843.03	53.028
843.20	49.182
843.37	53.538
843.54	44.164
843.71	51.319
843.88	44.924
844.06	59.722
844.23	47.861
844.40	50.452
844.57	62.267
844.74	70.678
844.91	69.018
845.08	66.210
845.25	66.891
845.42	64.973
845.59	66.988
845.76	62.615
845.94	68.085
846.11	75.336
846.28	72.125
846.45	88.719
846.62	74.728
846.79	68.182
846.96	72.447
847.13	72.486
847.30	70.996
847.47	54.175
847.64	55.403
847.81	63.107
847.98	70.747
848.15	61.263
848.32	76.236
848.50	84.585
848.67	57.404
848.84	82.389
849.01	83.333
849.18	65.235
849.35	88.142
849.52	80.990
849.69	78.422
849.86	96.833
850.03	62.763
850.20	76.173
850.37	73.502
850.54	83.689
850.71	79.601
850.88	72.822
851.05	78.542
851.22	91.262
851.39	76.471
851.56	72.234
851.73	79.765
851.90	73.624
852.07	94.005
852.24	72.798
852.41	73.662
852.58	71.905
852.75	74.419
852.92	61.569
853.09	90.169
853.26	88.842
853.43	84.444
853.60	72.557
853.77	92.075
853.94	73.511
854.11	85.151
854.28	94.146
854.45	72.000
854.62	82.857
854.79	72.345
854.96	77.296
855.13	75.174
855.30	71.500
855.47	91.327
855.64	80.401
855.81	77.033
855.98	84.553
856.15	72.561
856.32	62.213
856.49	79.433
856.66	79.343
856.83	82.974
857.00	70.293
857.17	85.655
857.34	75.219
857.51	85.275
857.68	76.850
857.85	95.254
858.02	71.883
858.19	73.185
858.36	82.716
858.53	95.075
858.70	85.307
858.87	104.167
859.04	58.597
859.21	83.190
859.38	75.833
859.55	83.455
859.72	97.399
859.89	98.251
860.05	81.618
860.22	96.579
860.39	78.912
860.56	75.758
860.73	86.874
860.90	82.420
861.07	103.196
861.24	76.659
861.41	99.471
861.58	90.118
861.75	86.874
861.92	82.057
862.09	78.228
862.26	91.253
862.43	96.694
862.59	78.241
862.76	81.316
862.93	102.432
863.10	64.678
863.27	94.690
863.44	75.000
863.61	97.045
863.78	84.478
863.95	101.663
864.12	77.259
864.29	108.815
864.45	62.720
864.62	77.749
864.79	90.099
864.96	76.675
865.13	79.157
865.30	77.143
865.47	91.922
865.64	81.132
865.81	91.736
865.97	77.458
866.14	80.401
866.31	61.502
866.48	74.242
866.65	73.958
866.82	89.448
866.99	95.251
867.16	97.644
867.33	75.529
867.49	80.685
867.66	72.048
867.83	82.159
868.00	74.822
868.17	80.747
868.34	89.732
868.51	64.976
868.67	76.777
868.84	65.287
869.01	97.465
869.18	88.537
869.35	85.872
869.52	78.500
869.69	86.890
869.85	78.272
870.02	83.252
870.19	105.024
870.36	92.857
870.53	66.667
870.70	86.809
870.86	80.570
871.03	88.631
871.20	88.366
871.37	91.512
871.54	78.533
871.71	85.437
871.87	81.793
872.04	83.168
872.21	77.704
872.38	89.487
872.55	78.228
872.72	76.577
872.88	103.380
873.05	73.699
873.22	80.730
873.39	71.868
873.56	76.993
873.72	86.538
873.89	74.709
874.06	76.804
874.23	75.654
874.40	75.723
874.56	87.110
874.73	83.495
874.90	77.005
875.07	64.629
875.24	63.962
875.40	64.045
875.57	75.682
875.74	98.780
875.91	107.046
876.08	72.907
876.24	82.851
876.41	92.640
876.58	80.191
876.75	90.083
876.92	69.420
877.08	74.805
877.25	68.299
877.42	89.228
877.59	90.520
877.75	74.542
877.92	66.730
878.09	86.775
878.26	81.928
878.42	75.798
878.59	86.947
878.76	73.320
878.93	80.317
879.09	80.786
879.26	68.841
879.43	75.506
879.60	71.834
879.76	64.947
879.93	53.713
880.10	64.419
880.27	54.808
880.43	61.897
880.60	50.470
880.77	41.846
880.94	45.943
881.10	45.552
881.27	39.311
881.44	28.773
881.61	36.687
881.77	27.146
881.94	23.904
882.11	23.718
882.28	16.539
882.44	24.405
882.61	20.523
882.78	20.892
882.94	24.056
883.11	19.488
883.28	20.999
883.45	20.281
883.61	18.480
883.78	18.524
883.95	21.730
884.11	18.182
884.28	20.952
>>>>>End Processed Spectral Data<<<<<
