SpectraSuite Data File
++++++++++++++++++++++++++++++++++++
Date: Sun Sep 22 03:08:22 EST 2019
User: sgrac
Dark Spectrum Present: Yes
Reference Spectrum Present: Yes
Number of Sampled Component Spectra: 1
Spectrometers: USB4E01596
Integration Time (usec): 100000 (USB4E01596)
Spectra Averaged: 1 (USB4E01596)
Boxcar Smoothing: 0 (USB4E01596)
Correct for Electrical Dark: No (USB4E01596)
Strobe/Lamp Enabled: Yes (USB4E01596)
Correct for Detector Non-linearity: No (USB4E01596)
Correct for Stray Light: No (USB4E01596)
Number of Pixels in Processed Spectrum: 3648
>>>>>Begin Processed Spectral Data<<<<<
178.44	807.143
178.66	807.143
178.87	807.143
179.09	-77.778
179.30	-66.667
179.52	167.742
179.74	8100.000
179.95	1077.778
180.17	8700.000
180.38	248.148
180.60	-468.750
180.82	2875.000
181.03	-200.000
181.25	391.304
181.46	-114.286
181.68	-325.000
181.89	341.176
182.11	328.571
182.33	1014.286
182.54	179.310
182.76	727.273
182.97	-528.571
183.19	225.641
183.40	-376.190
183.62	292.593
183.84	217.143
184.05	6600.000
184.27	187.500
184.48	161.702
184.70	482.143
184.91	466.667
185.13	-6050.000
185.34	942.857
185.56	-557.143
185.78	320.000
185.99	311.765
186.21	234.783
186.42	1100.000
186.64	84.211
186.85	-304.167
187.07	281.250
187.28	-2050.000
187.50	457.143
187.72	881.818
187.93	-581.250
188.15	390.909
188.36	300.000
188.58	166.154
188.79	122.581
189.01	469.231
189.22	-1170.000
189.44	180.822
189.65	4550.000
189.87	1940.000
190.09	0.000
190.30	575.000
190.52	-350.000
190.73	491.304
190.95	428.571
191.16	370.000
191.38	-661.538
191.59	6800.000
191.81	182.456
192.02	740.000
192.24	-5400.000
192.45	-500.000
192.67	281.250
192.88	177.273
193.10	8400.000
193.31	-535.714
193.53	1100.000
193.74	192.308
193.96	224.490
194.18	184.211
194.39	-1750.000
194.61	650.000
194.82	232.727
195.04	1114.286
195.25	630.000
195.47	-388.235
195.68	-342.857
195.90	293.750
196.11	800.000
196.33	287.037
196.54	396.970
196.76	766.667
196.97	-400.000
197.19	800.000
197.40	406.061
197.62	218.182
197.83	-1337.500
198.05	1733.333
198.26	168.657
198.48	573.333
198.69	-418.182
198.91	-1733.333
199.12	265.714
199.34	112.963
199.55	273.684
199.77	-400.000
199.98	-561.538
200.20	171.111
200.41	339.474
200.63	177.551
200.84	-562.500
201.06	2040.000
201.27	454.167
201.49	-1085.714
201.70	0.000
201.91	545.000
202.13	162.500
202.34	200.000
202.56	690.909
202.77	286.207
202.99	-416.667
203.20	-1022.222
203.42	134.211
203.63	252.778
203.85	186.792
204.06	507.692
204.28	580.000
204.49	-8000.000
204.71	213.514
204.92	256.667
205.14	354.545
205.35	285.714
205.56	165.306
205.78	720.000
205.99	5200.000
206.21	500.000
206.42	198.333
206.64	3466.667
206.85	156.250
207.07	211.667
207.28	165.574
207.50	425.000
207.71	352.000
207.93	404.348
208.14	-760.000
208.35	-3366.667
208.57	1160.000
208.78	263.043
209.00	175.758
209.21	236.364
209.43	143.478
209.64	800.000
209.86	278.788
210.07	623.077
210.28	500.000
210.50	257.500
210.71	170.213
210.93	581.250
211.14	-6100.000
211.36	276.667
211.57	-6100.000
211.78	-2225.000
212.00	273.684
212.21	970.000
212.43	217.021
212.64	809.091
212.86	248.276
213.07	-2600.000
213.29	139.583
213.50	-515.789
213.71	145.902
213.93	980.000
214.14	850.000
214.36	523.077
214.57	377.273
214.78	177.922
215.00	137.143
215.21	488.889
215.43	412.000
215.64	-7100.000
215.86	550.000
216.07	-823.077
216.28	540.000
216.50	-273.077
216.71	880.000
216.93	441.176
217.14	-304.762
217.35	137.500
217.57	513.333
217.78	547.059
218.00	1733.333
218.21	183.019
218.42	1144.444
218.64	1566.667
218.85	1566.667
219.07	-888.889
219.28	-200.000
219.49	259.259
219.71	166.667
219.92	300.000
220.14	373.913
220.35	3800.000
220.56	170.175
220.78	240.000
220.99	-1033.333
221.21	0.000
221.42	355.172
221.63	790.909
221.85	183.051
222.06	167.347
222.28	186.207
222.49	357.692
222.70	1050.000
222.92	286.000
223.13	161.667
223.34	-716.667
223.56	136.364
223.77	157.447
223.99	558.333
224.20	207.317
224.41	227.273
224.63	94.667
224.84	358.621
225.05	180.952
225.27	123.188
225.48	186.000
225.69	142.857
225.91	101.235
226.12	156.338
226.34	91.262
226.55	102.899
226.76	138.596
226.98	125.000
227.19	195.161
227.40	121.875
227.62	67.000
227.83	81.081
228.04	83.505
228.26	44.628
228.47	95.122
228.69	48.521
228.90	37.647
229.11	39.749
229.33	34.034
229.54	39.223
229.75	34.328
229.97	34.535
230.18	21.053
230.39	27.576
230.61	17.445
230.82	39.349
231.03	18.098
231.25	32.404
231.46	35.599
231.67	30.195
231.89	44.815
232.10	33.209
232.31	8.475
232.53	34.615
232.74	23.750
232.95	46.798
233.17	46.484
233.38	28.177
233.59	44.103
233.81	57.000
234.02	56.667
234.23	21.560
234.45	63.102
234.66	32.243
234.87	43.379
235.09	33.166
235.30	38.537
235.51	37.069
235.73	43.462
235.94	27.861
236.15	47.791
236.36	52.788
236.58	29.496
236.79	39.147
237.00	37.456
237.22	49.020
237.43	33.628
237.64	33.186
237.86	20.796
238.07	29.930
238.28	40.553
238.50	40.794
238.71	12.568
238.92	48.780
239.13	40.239
239.35	42.807
239.56	44.118
239.77	41.667
239.99	31.481
240.20	13.081
240.41	7.018
240.63	34.320
240.84	37.798
241.05	21.148
241.26	17.429
241.48	18.269
241.69	20.635
241.90	16.627
242.12	23.368
242.33	12.681
242.54	10.544
242.75	12.987
242.97	11.019
243.18	13.215
243.39	10.805
243.61	10.035
243.82	13.278
244.03	10.045
244.24	11.301
244.46	11.640
244.67	13.607
244.88	12.991
245.09	13.624
245.31	12.542
245.52	13.467
245.73	18.868
245.95	20.814
246.16	18.692
246.37	13.462
246.58	14.093
246.80	10.807
247.01	11.818
247.22	7.732
247.43	8.108
247.65	11.678
247.86	9.070
248.07	8.638
248.28	4.765
248.50	8.035
248.71	6.296
248.92	4.031
249.13	8.944
249.35	8.724
249.56	7.556
249.77	7.997
249.98	9.211
250.20	8.202
250.41	11.384
250.62	15.711
250.83	9.282
251.05	17.350
251.26	14.607
251.47	13.778
251.68	12.500
251.90	11.816
252.11	16.290
252.32	20.654
252.53	12.188
252.75	10.852
252.96	13.106
253.17	8.554
253.38	14.150
253.59	11.688
253.81	6.941
254.02	7.820
254.23	14.248
254.44	11.335
254.66	6.443
254.87	14.155
255.08	21.531
255.29	16.105
255.50	16.357
255.72	21.260
255.93	9.108
256.14	13.221
256.35	10.176
256.57	18.675
256.78	5.970
256.99	14.717
257.20	23.274
257.41	16.764
257.63	9.903
257.84	15.707
258.05	15.969
258.26	19.410
258.47	9.662
258.69	10.014
258.90	6.069
259.11	14.637
259.32	9.477
259.53	9.825
259.75	8.077
259.96	1.698
260.17	8.699
260.38	7.692
260.59	6.895
260.81	6.811
261.02	4.390
261.23	5.358
261.44	6.137
261.65	6.253
261.87	5.319
262.08	4.933
262.29	8.075
262.50	4.972
262.71	9.328
262.92	5.982
263.14	4.415
263.35	8.469
263.56	4.822
263.77	10.928
263.98	10.108
264.20	13.184
264.41	15.761
264.62	15.523
264.83	7.903
265.04	12.358
265.25	12.343
265.47	10.929
265.68	11.808
265.89	5.422
266.10	6.117
266.31	8.908
266.52	16.052
266.74	7.957
266.95	10.000
267.16	12.818
267.37	7.708
267.58	9.273
267.79	7.077
268.01	2.855
268.22	11.595
268.43	6.754
268.64	7.066
268.85	10.912
269.06	8.443
269.27	9.343
269.49	6.550
269.70	8.758
269.91	10.424
270.12	4.355
270.33	10.823
270.54	6.818
270.75	11.301
270.97	6.854
271.18	7.666
271.39	8.671
271.60	6.406
271.81	4.964
272.02	6.407
272.23	6.633
272.45	8.640
272.66	6.911
272.87	6.913
273.08	3.766
273.29	5.609
273.50	6.278
273.71	4.619
273.92	3.198
274.14	6.014
274.35	4.554
274.56	5.765
274.77	3.739
274.98	6.416
275.19	7.006
275.40	5.599
275.61	6.620
275.83	8.855
276.04	7.754
276.25	9.236
276.46	6.185
276.67	10.640
276.88	8.110
277.09	7.871
277.30	5.319
277.51	8.100
277.73	10.085
277.94	7.789
278.15	5.726
278.36	8.571
278.57	4.800
278.78	4.854
278.99	4.373
279.20	11.037
279.41	13.396
279.62	5.455
279.84	9.840
280.05	10.438
280.26	10.868
280.47	6.784
280.68	12.000
280.89	9.595
281.10	6.927
281.31	9.232
281.52	5.765
281.73	6.547
281.94	5.699
282.16	9.454
282.37	7.843
282.58	7.021
282.79	4.223
283.00	6.242
283.21	8.468
283.42	5.903
283.63	7.329
283.84	8.440
284.05	6.576
284.26	6.645
284.47	6.992
284.68	6.752
284.89	5.935
285.11	6.852
285.32	4.110
285.53	5.251
285.74	3.427
285.95	4.167
286.16	4.297
286.37	6.823
286.58	3.616
286.79	5.734
287.00	6.987
287.21	4.119
287.42	3.856
287.63	3.848
287.84	4.939
288.05	7.007
288.26	4.004
288.48	8.009
288.69	5.325
288.90	5.211
289.11	8.578
289.32	9.330
289.53	5.851
289.74	5.377
289.95	5.336
290.16	3.029
290.37	7.277
290.58	6.751
290.79	6.039
291.00	5.474
291.21	4.686
291.42	6.134
291.63	6.933
291.84	6.070
292.05	3.834
292.26	6.233
292.47	4.591
292.68	7.088
292.89	6.010
293.10	7.733
293.31	5.820
293.52	9.053
293.73	7.208
293.94	5.992
294.15	5.552
294.36	6.504
294.57	9.564
294.79	6.843
295.00	4.908
295.21	5.857
295.42	5.363
295.63	5.084
295.84	5.428
296.05	7.000
296.26	4.784
296.47	4.006
296.68	4.702
296.89	5.561
297.10	6.772
297.31	6.649
297.52	5.059
297.73	6.431
297.94	4.327
298.15	2.831
298.36	5.257
298.57	4.585
298.78	5.338
298.99	4.469
299.20	3.916
299.41	4.820
299.62	4.841
299.83	5.099
300.04	2.633
300.25	5.990
300.46	7.015
300.67	4.679
300.88	6.199
301.09	5.389
301.30	7.797
301.50	3.717
301.71	8.681
301.92	9.741
302.13	4.288
302.34	5.988
302.55	5.638
302.76	5.748
302.97	4.892
303.18	7.367
303.39	7.191
303.60	5.879
303.81	7.790
304.02	6.437
304.23	5.153
304.44	7.053
304.65	5.980
304.86	5.588
305.07	6.427
305.28	6.328
305.49	6.285
305.70	8.628
305.91	5.666
306.12	4.651
306.33	6.353
306.54	6.579
306.75	5.494
306.96	8.490
307.17	5.353
307.38	7.410
307.58	7.160
307.79	6.616
308.00	4.340
308.21	9.048
308.42	5.049
308.63	7.100
308.84	6.690
309.05	7.155
309.26	6.202
309.47	4.830
309.68	5.684
309.89	6.346
310.10	5.013
310.31	5.908
310.52	5.311
310.73	6.618
310.94	2.440
311.14	4.797
311.35	5.410
311.56	8.245
311.77	6.991
311.98	3.121
312.19	5.098
312.40	5.282
312.61	5.086
312.82	5.177
313.03	5.653
313.24	4.680
313.45	5.314
313.66	4.346
313.86	2.981
314.07	6.131
314.28	5.129
314.49	7.214
314.70	6.322
314.91	5.892
315.12	4.338
315.33	5.951
315.54	7.280
315.75	3.170
315.96	3.608
316.16	6.206
316.37	7.178
316.58	4.601
316.79	6.667
317.00	5.288
317.21	5.232
317.42	7.092
317.63	3.706
317.84	4.727
318.05	5.310
318.25	7.674
318.46	6.618
318.67	7.531
318.88	5.896
319.09	5.034
319.30	3.368
319.51	7.383
319.72	6.551
319.93	6.577
320.13	7.011
320.34	7.364
320.55	7.424
320.76	10.466
320.97	3.797
321.18	8.192
321.39	6.250
321.60	4.144
321.80	4.950
322.01	8.215
322.22	6.577
322.43	7.776
322.64	7.344
322.85	7.726
323.06	9.921
323.27	6.484
323.47	6.392
323.68	4.773
323.89	4.328
324.10	7.758
324.31	4.576
324.52	6.574
324.73	5.579
324.93	5.727
325.14	6.348
325.35	5.181
325.56	3.844
325.77	7.074
325.98	4.227
326.19	3.266
326.39	3.988
326.60	5.860
326.81	4.824
327.02	5.580
327.23	2.374
327.44	5.278
327.64	5.966
327.85	5.029
328.06	5.448
328.27	7.227
328.48	5.662
328.69	3.566
328.90	3.874
329.10	3.927
329.31	4.598
329.52	6.990
329.73	5.648
329.94	5.790
330.15	6.644
330.35	4.069
330.56	6.776
330.77	5.062
330.98	6.206
331.19	5.804
331.39	5.075
331.60	7.352
331.81	5.504
332.02	6.982
332.23	6.982
332.44	4.619
332.64	4.378
332.85	5.904
333.06	7.926
333.27	5.520
333.48	6.167
333.68	6.191
333.89	4.228
334.10	3.738
334.31	8.552
334.52	5.664
334.72	4.938
334.93	4.487
335.14	4.893
335.35	5.862
335.56	6.228
335.76	4.929
335.97	4.423
336.18	4.122
336.39	7.798
336.60	6.428
336.80	5.614
337.01	3.173
337.22	6.462
337.43	6.893
337.64	6.024
337.84	5.028
338.05	5.351
338.26	9.157
338.47	6.316
338.68	6.241
338.88	5.429
339.09	6.286
339.30	5.384
339.51	3.493
339.71	5.595
339.92	5.910
340.13	6.455
340.34	5.540
340.55	5.134
340.75	6.739
340.96	3.240
341.17	7.146
341.38	5.597
341.58	8.128
341.79	6.957
342.00	7.656
342.21	5.675
342.41	4.518
342.62	4.649
342.83	6.241
343.04	2.969
343.24	7.001
343.45	7.837
343.66	6.842
343.87	7.877
344.07	5.216
344.28	4.430
344.49	6.705
344.70	8.159
344.90	4.768
345.11	6.962
345.32	7.032
345.53	3.843
345.73	8.499
345.94	6.367
346.15	8.701
346.36	7.759
346.56	5.998
346.77	9.020
346.98	7.943
347.19	8.829
347.39	5.681
347.60	5.828
347.81	8.274
348.02	9.343
348.22	5.454
348.43	7.396
348.64	4.747
348.84	8.627
349.05	6.754
349.26	9.079
349.47	6.355
349.67	7.823
349.88	9.239
350.09	7.238
350.30	11.382
350.50	8.228
350.71	8.926
350.92	8.568
351.12	9.891
351.33	9.797
351.54	9.302
351.74	9.180
351.95	7.550
352.16	10.832
352.37	10.296
352.57	7.486
352.78	8.604
352.99	12.169
353.19	8.240
353.40	10.004
353.61	11.371
353.82	12.797
354.02	10.060
354.23	10.644
354.44	13.339
354.64	10.958
354.85	11.487
355.06	12.311
355.26	9.157
355.47	11.872
355.68	12.995
355.88	15.768
356.09	13.402
356.30	8.797
356.51	12.799
356.71	11.420
356.92	9.493
357.13	15.102
357.33	14.254
357.54	14.157
357.75	8.654
357.95	14.562
358.16	11.136
358.37	17.054
358.57	9.763
358.78	16.261
358.99	13.331
359.19	14.643
359.40	14.351
359.61	14.587
359.81	17.044
360.02	17.666
360.23	11.574
360.43	13.971
360.64	11.963
360.85	14.290
361.05	9.097
361.26	18.079
361.47	16.335
361.67	18.063
361.88	10.926
362.09	16.765
362.29	12.819
362.50	14.835
362.70	10.727
362.91	17.864
363.12	13.652
363.32	15.938
363.53	15.863
363.74	16.089
363.94	12.581
364.15	17.700
364.36	15.232
364.56	14.574
364.77	16.505
364.98	19.434
365.18	13.703
365.39	17.505
365.59	11.800
365.80	13.765
366.01	14.238
366.21	12.485
366.42	12.508
366.63	16.652
366.83	13.810
367.04	11.860
367.24	16.022
367.45	12.631
367.66	10.584
367.86	16.234
368.07	13.341
368.28	13.036
368.48	12.534
368.69	11.308
368.89	12.763
369.10	15.018
369.31	11.677
369.51	14.332
369.72	15.788
369.92	18.138
370.13	13.020
370.34	16.539
370.54	7.316
370.75	15.788
370.95	10.961
371.16	14.007
371.37	12.686
371.57	11.505
371.78	11.481
371.98	13.779
372.19	14.367
372.40	15.004
372.60	11.145
372.81	12.832
373.01	10.797
373.22	11.907
373.43	13.919
373.63	15.163
373.84	12.452
374.04	13.256
374.25	13.631
374.46	15.276
374.66	12.822
374.87	14.037
375.07	8.483
375.28	11.286
375.48	12.292
375.69	15.732
375.90	10.317
376.10	9.315
376.31	10.867
376.51	11.685
376.72	11.625
376.92	10.460
377.13	13.490
377.34	14.786
377.54	13.321
377.75	16.002
377.95	12.019
378.16	16.168
378.36	13.519
378.57	13.945
378.77	13.646
378.98	16.157
379.19	12.621
379.39	13.391
379.60	12.015
379.80	13.254
380.01	12.503
380.21	12.348
380.42	14.315
380.62	12.402
380.83	14.330
381.04	11.420
381.24	12.653
381.45	13.471
381.65	9.990
381.86	12.887
382.06	13.180
382.27	9.808
382.47	11.477
382.68	14.102
382.88	9.274
383.09	10.870
383.29	11.021
383.50	14.917
383.71	10.341
383.91	13.275
384.12	10.211
384.32	13.084
384.53	10.504
384.73	8.182
384.94	9.658
385.14	11.077
385.35	8.992
385.55	12.330
385.76	9.860
385.96	10.700
386.17	13.508
386.37	13.962
386.58	10.341
386.78	13.527
386.99	8.923
387.19	13.400
387.40	9.580
387.60	15.028
387.81	11.013
388.01	11.804
388.22	11.494
388.42	13.380
388.63	12.844
388.83	13.619
389.04	9.012
389.24	11.378
389.45	11.009
389.65	10.778
389.86	10.202
390.06	10.434
390.27	9.972
390.47	12.942
390.68	9.225
390.88	13.976
391.09	12.135
391.29	13.132
391.50	11.497
391.70	14.063
391.91	9.934
392.11	12.261
392.32	11.780
392.52	14.072
392.73	11.668
392.93	12.300
393.14	11.111
393.34	12.618
393.55	12.146
393.75	12.873
393.95	10.992
394.16	11.827
394.36	12.185
394.57	14.089
394.77	11.663
394.98	11.615
395.18	12.360
395.39	12.170
395.59	12.340
395.80	11.405
396.00	11.124
396.21	12.999
396.41	9.834
396.61	13.660
396.82	11.690
397.02	14.334
397.23	12.977
397.43	10.991
397.64	8.548
397.84	13.940
398.05	7.696
398.25	12.177
398.45	9.615
398.66	11.854
398.86	10.463
399.07	13.763
399.27	9.275
399.48	12.988
399.68	9.768
399.89	11.607
400.09	11.417
400.29	10.683
400.50	10.968
400.70	11.599
400.91	8.543
401.11	11.612
401.32	10.530
401.52	9.110
401.72	10.613
401.93	13.053
402.13	9.525
402.34	11.284
402.54	9.501
402.75	12.940
402.95	7.286
403.15	13.029
403.36	8.886
403.56	11.272
403.77	9.370
403.97	11.474
404.17	8.381
404.38	12.703
404.58	9.583
404.79	11.242
404.99	11.547
405.19	10.438
405.40	10.861
405.60	12.173
405.81	10.997
406.01	12.335
406.21	10.200
406.42	11.439
406.62	10.916
406.83	11.670
407.03	11.875
407.23	9.763
407.44	10.369
407.64	11.806
407.85	9.130
408.05	10.579
408.25	10.348
408.46	12.193
408.66	10.802
408.87	9.309
409.07	10.337
409.27	9.557
409.48	8.839
409.68	11.113
409.88	7.366
410.09	11.418
410.29	10.592
410.50	12.420
410.70	7.945
410.90	11.588
411.11	9.365
411.31	10.581
411.51	10.708
411.72	12.430
411.92	9.725
412.12	10.620
412.33	9.317
412.53	10.102
412.74	7.234
412.94	11.122
413.14	9.652
413.35	10.789
413.55	9.752
413.75	12.944
413.96	8.714
414.16	9.933
414.36	9.102
414.57	9.829
414.77	8.131
414.97	10.797
415.18	8.665
415.38	10.129
415.58	9.410
415.79	9.009
415.99	9.695
416.19	11.005
416.40	10.249
416.60	9.459
416.80	9.920
417.01	10.874
417.21	8.704
417.41	12.504
417.62	10.661
417.82	12.557
418.02	9.648
418.23	11.873
418.43	10.461
418.63	12.155
418.84	11.163
419.04	11.749
419.24	12.373
419.45	12.768
419.65	12.841
419.85	12.739
420.06	12.677
420.26	13.538
420.46	11.848
420.67	13.087
420.87	12.780
421.07	13.140
421.28	12.409
421.48	13.093
421.68	12.691
421.88	13.538
422.09	13.099
422.29	12.993
422.49	12.660
422.70	13.888
422.90	13.163
423.10	13.217
423.31	12.780
423.51	13.927
423.71	12.075
423.91	12.829
424.12	11.914
424.32	13.168
424.52	13.255
424.73	12.913
424.93	12.691
425.13	13.091
425.33	12.587
425.54	12.813
425.74	12.331
425.94	13.010
426.15	13.068
426.35	12.273
426.55	12.245
426.75	12.453
426.96	12.335
427.16	12.366
427.36	12.033
427.57	12.809
427.77	11.542
427.97	12.920
428.17	11.662
428.38	12.429
428.58	10.247
428.78	12.126
428.98	10.866
429.19	10.222
429.39	9.716
429.59	11.445
429.79	9.569
430.00	10.133
430.20	9.109
430.40	11.291
430.60	9.485
430.81	11.226
431.01	9.814
431.21	11.517
431.41	9.515
431.62	11.264
431.82	9.013
432.02	12.055
432.22	8.822
432.43	9.692
432.63	8.765
432.83	11.829
433.03	10.103
433.24	11.024
433.44	10.562
433.64	11.951
433.84	10.882
434.05	11.533
434.25	10.401
434.45	12.440
434.65	11.963
434.85	12.281
435.06	11.572
435.26	11.617
435.46	11.441
435.66	12.124
435.87	10.424
436.07	11.586
436.27	10.689
436.47	11.708
436.67	9.606
436.88	11.525
437.08	10.848
437.28	11.847
437.48	10.842
437.69	11.963
437.89	10.518
438.09	12.677
438.29	9.349
438.49	11.581
438.70	10.584
438.90	10.818
439.10	10.755
439.30	11.065
439.50	9.937
439.71	11.446
439.91	10.834
440.11	12.430
440.31	10.971
440.51	11.277
440.72	10.754
440.92	12.190
441.12	11.382
441.32	11.917
441.52	11.847
441.72	12.504
441.93	12.065
442.13	12.634
442.33	11.716
442.53	12.828
442.73	10.978
442.94	12.736
443.14	11.566
443.34	13.242
443.54	11.580
443.74	11.808
443.94	11.586
444.15	11.461
444.35	10.846
444.55	12.462
444.75	11.292
444.95	11.872
445.15	11.193
445.36	11.846
445.56	10.348
445.76	11.511
445.96	11.144
446.16	11.371
446.36	10.762
446.57	12.613
446.77	11.339
446.97	11.453
447.17	12.354
447.37	12.266
447.57	12.027
447.77	12.128
447.98	11.618
448.18	12.603
448.38	11.826
448.58	12.016
448.78	11.759
448.98	11.716
449.18	11.318
449.39	12.053
449.59	11.504
449.79	11.706
449.99	10.628
450.19	12.376
450.39	11.547
450.59	11.366
450.79	10.221
451.00	11.848
451.20	12.237
451.40	11.128
451.60	9.802
451.80	11.978
452.00	9.945
452.20	11.740
452.40	10.308
452.61	11.118
452.81	10.247
453.01	11.943
453.21	10.170
453.41	11.276
453.61	10.602
453.81	10.645
454.01	10.773
454.21	11.281
454.42	11.161
454.62	10.845
454.82	10.454
455.02	10.748
455.22	9.115
455.42	10.266
455.62	9.295
455.82	11.074
456.02	8.941
456.23	10.838
456.43	9.709
456.63	10.554
456.83	8.124
457.03	11.005
457.23	9.044
457.43	11.114
457.63	10.237
457.83	11.247
458.03	9.529
458.23	10.577
458.43	8.416
458.64	10.352
458.84	9.197
459.04	10.923
459.24	10.955
459.44	10.515
459.64	10.361
459.84	11.440
460.04	10.848
460.24	11.572
460.44	11.287
460.64	12.279
460.84	11.665
461.04	11.994
461.24	12.002
461.45	11.830
461.65	12.192
461.85	12.417
462.05	11.582
462.25	12.499
462.45	11.507
462.65	11.612
462.85	9.820
463.05	11.806
463.25	9.487
463.45	11.444
463.65	10.263
463.85	11.944
464.05	10.173
464.25	10.757
464.45	10.195
464.65	9.658
464.85	9.104
465.05	10.051
465.26	9.760
465.46	12.071
465.66	10.571
465.86	11.195
466.06	9.632
466.26	11.447
466.46	9.257
466.66	10.631
466.86	10.656
467.06	10.760
467.26	9.599
467.46	10.894
467.66	10.197
467.86	10.848
468.06	10.120
468.26	10.644
468.46	10.466
468.66	10.570
468.86	8.763
469.06	11.452
469.26	9.806
469.46	9.849
469.66	9.612
469.86	11.055
470.06	10.098
470.26	11.175
470.46	8.367
470.66	11.200
470.86	9.185
471.06	10.706
471.26	7.942
471.46	9.896
471.66	9.486
471.86	10.344
472.06	9.446
472.26	11.556
472.46	10.743
472.66	10.795
472.86	9.261
473.06	10.330
473.26	9.274
473.46	10.265
473.66	9.706
473.86	10.405
474.06	9.736
474.26	10.850
474.46	8.502
474.66	10.851
474.86	10.334
475.06	11.181
475.26	8.841
475.46	11.568
475.66	9.208
475.86	10.563
476.06	10.944
476.26	10.964
476.46	9.650
476.66	10.797
476.86	8.597
477.06	10.363
477.26	9.285
477.46	10.549
477.65	10.014
477.85	10.876
478.05	8.658
478.25	11.836
478.45	9.886
478.65	11.453
478.85	10.187
479.05	11.622
479.25	10.596
479.45	11.852
479.65	10.035
479.85	11.197
480.05	9.842
480.25	11.707
480.45	10.870
480.65	11.497
480.85	10.176
481.05	11.851
481.25	11.322
481.44	11.784
481.64	10.113
481.84	11.751
482.04	11.335
482.24	11.714
482.44	11.298
482.64	11.668
482.84	11.450
483.04	11.720
483.24	11.276
483.44	11.484
483.64	11.425
483.84	11.160
484.04	11.668
484.23	11.539
484.43	11.864
484.63	12.681
484.83	13.485
485.03	14.089
485.23	13.951
485.43	13.511
485.63	13.481
485.83	12.817
486.03	12.213
486.23	12.421
486.42	12.277
486.62	12.193
486.82	11.645
487.02	12.419
487.22	11.848
487.42	11.869
487.62	11.893
487.82	11.905
488.02	11.969
488.22	12.193
488.41	11.725
488.61	12.258
488.81	11.961
489.01	11.879
489.21	12.334
489.41	12.260
489.61	12.139
489.81	12.455
490.01	12.534
490.20	12.440
490.40	12.335
490.60	12.059
490.80	12.160
491.00	12.144
491.20	11.501
491.40	11.865
491.60	11.578
491.79	11.835
491.99	11.635
492.19	11.926
492.39	11.601
492.59	11.897
492.79	12.044
492.99	11.929
493.19	12.181
493.38	12.411
493.58	12.633
493.78	12.357
493.98	12.283
494.18	12.545
494.38	11.959
494.58	12.321
494.77	11.408
494.97	11.967
495.17	11.368
495.37	12.416
495.57	11.449
495.77	11.814
495.96	11.297
496.16	11.445
496.36	11.655
496.56	12.169
496.76	10.493
496.96	11.918
497.15	11.090
497.35	11.921
497.55	11.219
497.75	11.895
497.95	11.416
498.15	12.131
498.34	11.309
498.54	12.298
498.74	11.904
498.94	12.175
499.14	11.226
499.34	12.359
499.53	11.446
499.73	11.715
499.93	11.168
500.13	12.322
500.33	10.864
500.52	11.772
500.72	11.695
500.92	11.586
501.12	10.788
501.32	12.010
501.52	11.393
501.71	12.318
501.91	10.846
502.11	11.160
502.31	10.485
502.51	11.492
502.70	10.593
502.90	12.020
503.10	10.805
503.30	11.848
503.50	11.171
503.69	11.174
503.89	11.100
504.09	11.627
504.29	10.529
504.48	11.451
504.68	11.082
504.88	11.911
505.08	10.549
505.28	11.880
505.47	11.178
505.67	11.888
505.87	11.166
506.07	11.923
506.27	11.234
506.46	11.575
506.66	11.391
506.86	11.293
507.06	11.804
507.25	11.444
507.45	11.284
507.65	11.700
507.85	10.964
508.04	11.985
508.24	11.613
508.44	11.972
508.64	11.641
508.83	12.031
509.03	11.715
509.23	12.135
509.43	11.691
509.63	12.407
509.82	12.112
510.02	12.012
510.22	11.632
510.42	12.872
510.61	12.318
510.81	12.523
511.01	12.173
511.21	12.161
511.40	11.347
511.60	12.719
511.80	12.209
511.99	12.264
512.19	11.880
512.39	12.925
512.59	11.973
512.78	12.258
512.98	12.449
513.18	12.564
513.38	11.591
513.57	12.974
513.77	12.105
513.97	12.843
514.17	12.063
514.36	12.456
514.56	12.175
514.76	12.335
514.95	11.430
515.15	12.145
515.35	11.908
515.55	11.863
515.74	12.216
515.94	12.635
516.14	11.864
516.33	12.041
516.53	11.822
516.73	12.152
516.93	11.136
517.12	12.377
517.32	11.791
517.52	12.515
517.71	11.813
517.91	12.310
518.11	12.581
518.30	11.980
518.50	12.295
518.70	12.484
518.90	12.608
519.09	12.919
519.29	12.898
519.49	12.971
519.68	12.340
519.88	12.913
520.08	12.862
520.27	12.784
520.47	12.932
520.67	13.295
520.86	13.414
521.06	13.094
521.26	12.756
521.45	12.780
521.65	12.368
521.85	13.289
522.04	12.592
522.24	12.403
522.44	12.801
522.63	13.524
522.83	12.349
523.03	12.896
523.22	12.397
523.42	13.007
523.62	13.049
523.81	13.034
524.01	12.943
524.21	13.039
524.40	12.299
524.60	13.136
524.80	12.060
524.99	12.767
525.19	12.082
525.39	12.707
525.58	12.653
525.78	12.818
525.98	12.584
526.17	13.012
526.37	13.016
526.57	13.337
526.76	13.237
526.96	13.224
527.15	12.698
527.35	12.897
527.55	13.245
527.74	13.224
527.94	12.966
528.14	12.531
528.33	12.277
528.53	13.001
528.72	12.711
528.92	12.932
529.12	12.942
529.31	13.168
529.51	13.118
529.71	13.290
529.90	13.688
530.10	13.731
530.29	13.477
530.49	13.707
530.69	13.595
530.88	13.834
531.08	13.716
531.28	13.681
531.47	13.540
531.67	13.654
531.86	13.419
532.06	13.341
532.26	13.355
532.45	13.219
532.65	13.198
532.84	13.186
533.04	13.180
533.24	13.258
533.43	13.212
533.63	13.491
533.82	13.151
534.02	13.457
534.22	13.165
534.41	13.543
534.61	13.607
534.80	13.404
535.00	13.688
535.19	13.856
535.39	14.262
535.59	14.001
535.78	14.128
535.98	13.437
536.17	13.648
536.37	13.343
536.57	13.227
536.76	13.935
536.96	13.362
537.15	14.041
537.35	13.731
537.54	13.991
537.74	14.480
537.93	13.898
538.13	13.966
538.33	14.082
538.52	14.129
538.72	14.333
538.91	14.053
539.11	14.182
539.30	13.934
539.50	14.611
539.70	14.304
539.89	13.568
540.09	13.958
540.28	14.034
540.48	13.144
540.67	13.320
540.87	13.788
541.06	13.854
541.26	14.035
541.45	13.398
541.65	14.368
541.85	14.063
542.04	14.198
542.24	14.229
542.43	14.143
542.63	14.280
542.82	14.671
543.02	14.677
543.21	14.729
543.41	14.701
543.60	14.541
543.80	14.869
543.99	14.767
544.19	14.472
544.38	14.905
544.58	14.917
544.77	15.019
544.97	14.777
545.16	14.788
545.36	14.831
545.56	14.654
545.75	15.060
545.95	14.323
546.14	15.315
546.34	14.997
546.53	14.980
546.73	14.862
546.92	15.380
547.12	14.779
547.31	15.339
547.51	14.648
547.70	15.479
547.90	15.322
548.09	15.217
548.29	15.647
548.48	15.731
548.68	15.450
548.87	15.296
549.07	15.483
549.26	15.744
549.46	15.321
549.65	15.770
549.84	15.682
550.04	15.388
550.23	14.914
550.43	14.770
550.62	15.036
550.82	15.899
551.01	14.492
551.21	15.925
551.40	15.206
551.60	15.838
551.79	14.689
551.99	15.751
552.18	14.825
552.38	16.005
552.57	15.423
552.77	15.471
552.96	15.807
553.16	16.884
553.35	15.499
553.54	16.920
553.74	16.284
553.93	16.479
554.13	15.785
554.32	16.639
554.52	16.663
554.71	16.957
554.91	17.003
555.10	17.103
555.29	16.015
555.49	17.028
555.68	16.517
555.88	17.328
556.07	15.506
556.27	17.015
556.46	16.907
556.66	17.517
556.85	16.345
557.04	17.414
557.24	15.969
557.43	18.191
557.63	17.947
557.82	17.870
558.02	15.961
558.21	17.950
558.40	16.641
558.60	17.992
558.79	17.158
558.99	17.596
559.18	16.842
559.38	17.286
559.57	18.264
559.76	17.776
559.96	18.097
560.15	18.901
560.35	16.488
560.54	18.606
560.73	17.069
560.93	17.775
561.12	17.843
561.32	19.000
561.51	17.934
561.70	18.943
561.90	18.241
562.09	19.307
562.29	19.037
562.48	19.364
562.67	19.478
562.87	19.844
563.06	18.828
563.26	19.467
563.45	19.900
563.64	20.576
563.84	19.323
564.03	19.405
564.23	19.951
564.42	19.963
564.61	19.690
564.81	20.329
565.00	20.271
565.20	20.420
565.39	20.958
565.58	20.456
565.78	19.555
565.97	20.776
566.16	20.320
566.36	20.593
566.55	20.674
566.74	20.633
566.94	20.397
567.13	21.153
567.33	21.124
567.52	20.479
567.71	20.908
567.91	21.443
568.10	21.435
568.29	21.369
568.49	22.136
568.68	22.473
568.87	20.430
569.07	22.002
569.26	22.333
569.45	21.646
569.65	21.455
569.84	22.251
570.04	21.372
570.23	21.569
570.42	21.422
570.62	22.231
570.81	21.799
571.00	21.836
571.20	21.668
571.39	22.246
571.58	21.910
571.78	22.243
571.97	22.676
572.16	22.208
572.36	22.035
572.55	22.991
572.74	23.116
572.94	22.406
573.13	22.336
573.32	22.906
573.51	22.666
573.71	22.868
573.90	22.298
574.09	22.926
574.29	22.706
574.48	23.885
574.67	22.204
574.87	23.295
575.06	21.971
575.25	22.605
575.45	22.869
575.64	23.906
575.83	22.842
576.03	23.591
576.22	22.151
576.41	23.182
576.60	22.405
576.80	22.755
576.99	23.684
577.18	23.910
577.38	22.488
577.57	23.490
577.76	23.461
577.95	24.025
578.15	22.602
578.34	23.239
578.53	22.782
578.73	23.968
578.92	22.995
579.11	23.144
579.30	23.554
579.50	23.203
579.69	22.319
579.88	24.123
580.08	23.040
580.27	24.541
580.46	23.179
580.65	22.440
580.85	22.345
581.04	23.006
581.23	22.045
581.42	23.704
581.62	23.181
581.81	22.663
582.00	23.150
582.19	22.683
582.39	22.527
582.58	22.851
582.77	23.611
582.96	22.546
583.16	21.668
583.35	24.137
583.54	22.943
583.73	23.242
583.93	23.344
584.12	23.671
584.31	21.953
584.50	23.283
584.70	21.644
584.89	22.753
585.08	22.406
585.27	23.125
585.47	22.222
585.66	22.782
585.85	20.466
586.04	22.386
586.24	22.780
586.43	22.179
586.62	21.852
586.81	23.039
587.00	22.070
587.20	22.739
587.39	21.659
587.58	22.815
587.77	22.631
587.97	22.547
588.16	21.369
588.35	23.135
588.54	21.012
588.73	22.122
588.93	22.314
589.12	22.092
589.31	21.899
589.50	22.148
589.69	21.375
589.89	22.410
590.08	21.886
590.27	22.072
590.46	21.544
590.65	22.853
590.85	21.573
591.04	23.152
591.23	21.735
591.42	22.319
591.61	21.442
591.81	22.603
592.00	22.474
592.19	22.249
592.38	21.501
592.57	23.416
592.77	21.195
592.96	22.018
593.15	22.611
593.34	22.387
593.53	22.204
593.72	22.515
593.92	22.767
594.11	22.496
594.30	21.406
594.49	22.485
594.68	22.119
594.87	23.008
595.07	22.219
595.26	22.693
595.45	23.222
595.64	24.746
595.83	22.858
596.02	22.898
596.22	22.632
596.41	22.529
596.60	23.032
596.79	22.868
596.98	23.008
597.17	23.512
597.37	23.144
597.56	23.727
597.75	23.623
597.94	23.430
598.13	23.202
598.32	23.396
598.51	22.779
598.71	23.250
598.90	23.451
599.09	23.522
599.28	23.126
599.47	23.872
599.66	22.831
599.85	23.638
600.05	22.337
600.24	24.511
600.43	23.108
600.62	23.005
600.81	23.538
601.00	23.547
601.19	22.365
601.38	23.810
601.58	23.447
601.77	23.301
601.96	22.883
602.15	24.676
602.34	22.999
602.53	22.980
602.72	23.067
602.91	24.564
603.10	23.219
603.30	23.980
603.49	23.265
603.68	24.259
603.87	24.737
604.06	23.823
604.25	24.162
604.44	24.167
604.63	23.866
604.82	25.094
605.01	23.693
605.21	24.883
605.40	24.281
605.59	24.510
605.78	23.943
605.97	24.305
606.16	23.903
606.35	24.354
606.54	23.706
606.73	25.298
606.92	23.977
607.11	24.264
607.30	24.447
607.50	24.092
607.69	23.357
607.88	24.061
608.07	23.141
608.26	24.169
608.45	23.646
608.64	24.260
608.83	22.299
609.02	23.955
609.21	22.224
609.40	24.379
609.59	22.829
609.78	23.110
609.97	24.057
610.16	23.436
610.35	23.502
610.55	22.781
610.74	23.931
610.93	23.363
611.12	23.384
611.31	24.227
611.50	23.026
611.69	24.143
611.88	23.625
612.07	23.507
612.26	23.801
612.45	23.516
612.64	21.868
612.83	23.084
613.02	21.188
613.21	22.224
613.40	24.308
613.59	23.922
613.78	19.699
613.97	22.919
614.16	21.562
614.35	23.479
614.54	21.475
614.73	20.790
614.92	21.059
615.11	21.853
615.30	20.690
615.49	20.411
615.68	19.782
615.87	22.193
616.07	19.831
616.26	20.756
616.45	20.347
616.64	22.990
616.83	20.183
617.02	21.130
617.21	19.801
617.40	19.038
617.59	21.265
617.78	20.979
617.97	19.280
618.16	20.147
618.35	17.949
618.54	20.726
618.73	20.695
618.92	21.232
619.11	20.302
619.30	21.569
619.49	18.819
619.68	21.574
619.86	19.175
620.05	21.567
620.24	19.119
620.43	20.522
620.62	18.045
620.81	19.616
621.00	19.163
621.19	21.354
621.38	19.554
621.57	21.714
621.76	19.615
621.95	21.139
622.14	19.178
622.33	21.060
622.52	17.984
622.71	20.158
622.90	18.040
623.09	19.640
623.28	18.637
623.47	20.215
623.66	19.043
623.85	19.453
624.04	18.505
624.23	18.384
624.42	18.954
624.61	19.194
624.80	17.500
624.99	19.290
625.18	18.191
625.36	19.239
625.55	18.006
625.74	19.676
625.93	18.737
626.12	20.381
626.31	19.473
626.50	20.767
626.69	19.522
626.88	19.799
627.07	20.162
627.26	21.165
627.45	20.989
627.64	19.454
627.83	19.439
628.02	20.108
628.20	20.282
628.39	21.241
628.58	19.697
628.77	21.859
628.96	19.864
629.15	19.955
629.34	18.240
629.53	19.398
629.72	18.495
629.91	20.085
630.10	17.903
630.29	20.552
630.47	19.059
630.66	19.252
630.85	18.258
631.04	19.111
631.23	19.215
631.42	18.709
631.61	18.967
631.80	21.139
631.99	18.089
632.18	18.570
632.36	17.770
632.55	19.988
632.74	17.240
632.93	17.527
633.12	17.169
633.31	18.824
633.50	17.241
633.69	18.884
633.88	16.717
634.06	19.040
634.25	16.971
634.44	18.657
634.63	18.269
634.82	19.821
635.01	17.061
635.20	18.930
635.39	17.028
635.57	19.206
635.76	17.659
635.95	17.869
636.14	16.343
636.33	19.569
636.52	17.274
636.71	17.264
636.89	17.328
637.08	16.750
637.27	16.984
637.46	16.716
637.65	17.386
637.84	18.456
638.03	15.178
638.21	18.962
638.40	17.522
638.59	17.633
638.78	16.247
638.97	17.136
639.16	17.697
639.34	17.597
639.53	17.047
639.72	17.939
639.91	14.695
640.10	14.865
640.29	17.400
640.47	18.456
640.66	17.158
640.85	19.209
641.04	13.877
641.23	17.282
641.42	14.645
641.60	16.553
641.79	15.463
641.98	16.562
642.17	16.577
642.36	16.558
642.54	15.778
642.73	17.402
642.92	12.969
643.11	15.771
643.30	14.614
643.49	16.696
643.67	13.506
643.86	16.428
644.05	14.078
644.24	16.671
644.43	13.702
644.61	16.454
644.80	14.908
644.99	15.623
645.18	16.303
645.37	15.971
645.55	14.410
645.74	15.324
645.93	15.062
646.12	16.359
646.31	15.355
646.49	16.864
646.68	15.743
646.87	16.035
647.06	13.719
647.24	15.315
647.43	13.615
647.62	17.264
647.81	13.459
648.00	16.116
648.18	14.172
648.37	15.308
648.56	13.992
648.75	16.515
648.93	15.700
649.12	16.311
649.31	13.382
649.50	14.632
649.68	14.102
649.87	16.404
650.06	14.573
650.25	16.662
650.43	12.320
650.62	14.514
650.81	14.918
651.00	14.715
651.18	14.058
651.37	16.722
651.56	12.805
651.75	16.247
651.93	14.143
652.12	18.358
652.31	14.058
652.50	17.086
652.68	15.524
652.87	16.428
653.06	15.850
653.25	15.674
653.43	14.075
653.62	15.704
653.81	14.435
654.00	16.581
654.18	12.904
654.37	16.576
654.56	15.180
654.74	12.185
654.93	12.486
655.12	13.928
655.31	12.046
655.49	14.270
655.68	11.665
655.87	13.502
656.05	10.448
656.24	13.283
656.43	11.152
656.62	13.803
656.80	14.022
656.99	10.899
657.18	10.259
657.36	13.259
657.55	12.120
657.74	13.670
657.93	12.497
658.11	14.663
658.30	12.809
658.49	13.163
658.67	11.491
658.86	12.531
659.05	11.459
659.23	14.407
659.42	12.368
659.61	14.261
659.79	11.507
659.98	14.195
660.17	13.111
660.35	13.597
660.54	13.139
660.73	15.794
660.91	14.030
661.10	14.289
661.29	9.969
661.47	12.142
661.66	10.406
661.85	11.337
662.03	12.288
662.22	10.701
662.41	8.781
662.59	10.753
662.78	9.183
662.97	10.589
663.15	8.280
663.34	9.652
663.53	7.464
663.71	9.411
663.90	8.443
664.09	10.523
664.27	8.390
664.46	8.848
664.65	8.292
664.83	9.498
665.02	7.640
665.21	7.331
665.39	6.174
665.58	10.465
665.77	8.027
665.95	8.527
666.14	7.997
666.32	7.882
666.51	7.411
666.70	6.365
666.88	6.387
667.07	7.527
667.26	5.163
667.44	7.221
667.63	6.762
667.81	6.537
668.00	7.858
668.19	10.181
668.37	7.743
668.56	10.375
668.75	6.447
668.93	9.375
669.12	6.008
669.30	8.090
669.49	7.353
669.68	9.186
669.86	7.993
670.05	6.582
670.23	7.360
670.42	6.689
670.61	7.737
670.79	9.545
670.98	8.167
671.16	11.822
671.35	6.528
671.54	8.800
671.72	6.291
671.91	8.415
672.09	5.892
672.28	10.155
672.46	10.562
672.65	10.242
672.84	7.961
673.02	9.124
673.21	6.754
673.39	7.209
673.58	7.634
673.77	9.235
673.95	8.193
674.14	9.103
674.32	7.428
674.51	10.758
674.69	8.116
674.88	8.202
675.07	4.913
675.25	11.333
675.44	9.287
675.62	8.414
675.81	8.919
675.99	12.937
676.18	8.312
676.36	8.782
676.55	8.274
676.74	10.177
676.92	8.376
677.11	10.713
677.29	6.351
677.48	12.548
677.66	9.596
677.85	8.943
678.03	9.162
678.22	11.126
678.40	6.886
678.59	7.834
678.78	6.838
678.96	8.322
679.15	9.894
679.33	10.009
679.52	10.168
679.70	10.927
679.89	9.330
680.07	10.979
680.26	9.724
680.44	9.675
680.63	9.506
680.81	10.324
681.00	7.447
681.18	9.937
681.37	8.547
681.55	12.186
681.74	11.175
681.92	13.600
682.11	11.279
682.29	9.537
682.48	11.798
682.66	10.923
682.85	10.549
683.03	12.804
683.22	10.770
683.40	13.514
683.59	11.893
683.77	12.305
683.96	9.059
684.14	12.673
684.33	7.991
684.51	16.161
684.70	12.267
684.88	15.770
685.07	11.219
685.25	12.909
685.44	9.688
685.62	13.675
685.81	10.209
685.99	13.013
686.18	10.142
686.36	13.624
686.55	10.096
686.73	12.907
686.92	13.690
687.10	14.777
687.29	14.517
687.47	14.731
687.65	15.012
687.84	12.964
688.02	15.800
688.21	18.657
688.39	12.606
688.58	17.842
688.76	13.280
688.95	14.166
689.13	12.478
689.32	17.686
689.50	14.900
689.68	16.824
689.87	14.996
690.05	17.736
690.24	16.526
690.42	18.496
690.61	15.600
690.79	19.380
690.98	16.477
691.16	17.501
691.34	15.944
691.53	18.158
691.71	15.509
691.90	20.392
692.08	15.370
692.27	19.204
692.45	18.978
692.63	17.450
692.82	18.696
693.00	20.903
693.19	17.049
693.37	22.593
693.56	18.849
693.74	24.149
693.92	19.917
694.11	23.609
694.29	21.595
694.48	24.876
694.66	18.533
694.84	25.361
695.03	19.895
695.21	26.248
695.40	22.486
695.58	24.340
695.76	21.811
695.95	26.822
696.13	22.321
696.32	28.139
696.50	32.478
696.68	26.112
696.87	22.231
697.05	30.163
697.24	24.892
697.42	31.518
697.60	24.897
697.79	28.836
697.97	29.399
698.16	30.880
698.34	26.202
698.52	31.267
698.71	27.826
698.89	32.032
699.07	30.466
699.26	32.522
699.44	32.740
699.63	33.876
699.81	30.267
699.99	33.138
700.18	32.358
700.36	32.916
700.54	32.651
700.73	32.702
700.91	31.736
701.09	33.853
701.28	34.256
701.46	35.612
701.64	29.573
701.83	34.122
702.01	30.637
702.20	37.458
702.38	31.207
702.56	34.708
702.75	30.159
702.93	34.090
703.11	33.361
703.30	35.965
703.48	29.493
703.66	31.966
703.85	29.546
704.03	35.680
704.21	32.539
704.40	36.535
704.58	33.110
704.76	34.194
704.95	29.132
705.13	36.293
705.31	31.829
705.50	34.755
705.68	32.004
705.86	35.690
706.04	29.955
706.23	37.066
706.41	31.626
706.59	33.511
706.78	31.616
706.96	35.728
707.14	34.119
707.33	38.218
707.51	34.663
707.69	33.798
707.88	32.288
708.06	37.064
708.24	35.365
708.42	38.058
708.61	35.007
708.79	39.900
708.97	35.857
709.16	36.570
709.34	35.154
709.52	36.334
709.71	36.097
709.89	36.355
710.07	32.999
710.25	38.996
710.44	35.659
710.62	37.097
710.80	38.171
710.98	38.082
711.17	35.090
711.35	40.927
711.53	33.245
711.72	40.676
711.90	37.906
712.08	39.795
712.26	33.172
712.45	38.950
712.63	38.510
712.81	38.992
712.99	35.530
713.18	41.344
713.36	35.800
713.54	37.455
713.72	35.841
713.91	37.558
714.09	33.077
714.27	39.332
714.45	37.711
714.64	40.073
714.82	37.233
715.00	40.923
715.18	35.352
715.37	39.881
715.55	37.405
715.73	40.787
715.91	38.313
716.10	39.265
716.28	30.845
716.46	38.020
716.64	34.121
716.83	37.822
717.01	34.105
717.19	40.886
717.37	35.278
717.55	35.786
717.74	33.470
717.92	39.286
718.10	32.499
718.28	37.765
718.47	31.313
718.65	40.101
718.83	32.988
719.01	39.948
719.19	36.013
719.38	34.877
719.56	31.346
719.74	33.676
719.92	26.202
720.10	31.806
720.29	32.788
720.47	37.521
720.65	33.754
720.83	38.600
721.01	29.776
721.20	33.732
721.38	35.225
721.56	35.986
721.74	35.535
721.92	35.998
722.11	32.050
722.29	36.931
722.47	36.091
722.65	33.457
722.83	34.963
723.01	33.659
723.20	33.094
723.38	35.650
723.56	32.848
723.74	39.536
723.92	31.085
724.10	34.593
724.29	29.555
724.47	37.698
724.65	31.397
724.83	35.398
725.01	30.025
725.19	37.827
725.38	30.343
725.56	35.376
725.74	33.439
725.92	39.004
726.10	31.470
726.28	36.879
726.46	34.399
726.65	36.132
726.83	33.162
727.01	34.412
727.19	35.761
727.37	36.864
727.55	34.731
727.73	33.076
727.92	32.992
728.10	34.232
728.28	31.217
728.46	39.371
728.64	34.129
728.82	38.230
729.00	36.231
729.19	37.280
729.37	32.153
729.55	35.137
729.73	31.688
729.91	36.248
730.09	34.703
730.27	36.251
730.45	30.290
730.63	40.117
730.82	34.163
731.00	34.132
731.18	35.287
731.36	41.570
731.54	32.594
731.72	39.125
731.90	37.283
732.08	37.249
732.26	37.493
732.45	39.019
732.63	37.084
732.81	37.848
732.99	35.751
733.17	38.914
733.35	35.984
733.53	38.807
733.71	35.378
733.89	38.697
734.07	40.091
734.25	41.759
734.44	38.279
734.62	39.954
734.80	36.726
734.98	40.800
735.16	37.046
735.34	42.564
735.52	36.623
735.70	39.709
735.88	34.660
736.06	35.883
736.24	37.869
736.42	38.269
736.60	40.337
736.78	40.876
736.97	34.194
737.15	41.816
737.33	33.608
737.51	38.964
737.69	34.592
737.87	38.885
738.05	36.605
738.23	40.282
738.41	38.508
738.59	37.206
738.77	38.010
738.95	48.003
739.13	36.426
739.31	41.509
739.49	36.500
739.67	41.498
739.85	38.249
740.03	43.527
740.21	42.065
740.39	42.098
740.57	38.830
740.75	36.853
740.93	40.863
741.11	38.179
741.30	37.892
741.48	41.342
741.66	36.627
741.84	40.411
742.02	35.246
742.20	41.159
742.38	37.344
742.56	43.121
742.74	36.024
742.92	37.875
743.10	33.410
743.28	41.808
743.46	36.529
743.64	39.499
743.82	33.753
744.00	42.177
744.18	43.777
744.36	42.160
744.54	37.242
744.72	45.477
744.90	38.659
745.08	45.194
745.26	36.076
745.44	39.928
745.62	36.987
745.80	40.712
745.98	39.367
746.16	40.682
746.34	35.857
746.52	34.747
746.70	35.891
746.87	41.007
747.05	38.689
747.23	43.176
747.41	36.332
747.59	40.106
747.77	33.595
747.95	38.469
748.13	36.429
748.31	42.197
748.49	38.255
748.67	35.689
748.85	36.570
749.03	42.070
749.21	35.392
749.39	39.624
749.57	32.327
749.75	34.286
749.93	36.998
750.11	40.750
750.29	34.395
750.47	43.086
750.65	37.807
750.83	37.622
751.01	38.000
751.18	38.576
751.36	35.108
751.54	44.762
751.72	36.249
751.90	37.795
752.08	35.236
752.26	39.009
752.44	33.141
752.62	35.319
752.80	34.760
752.98	40.766
753.16	37.364
753.34	39.068
753.52	37.801
753.69	39.189
753.87	40.198
754.05	41.079
754.23	36.294
754.41	41.695
754.59	38.672
754.77	37.945
754.95	38.190
755.13	38.792
755.31	38.475
755.49	36.989
755.66	35.364
755.84	42.421
756.02	29.900
756.20	44.969
756.38	37.500
756.56	38.536
756.74	35.849
756.92	40.516
757.10	33.061
757.28	42.792
757.45	41.324
757.63	38.238
757.81	30.199
757.99	45.528
758.17	36.182
758.35	36.690
758.53	36.213
758.71	43.985
758.88	30.450
759.06	35.464
759.24	31.648
759.42	34.370
759.60	30.648
759.78	32.048
759.96	25.673
760.13	35.500
760.31	28.399
760.49	26.761
760.67	20.115
760.85	26.586
761.03	24.051
761.21	22.267
761.38	19.274
761.56	27.610
761.74	22.061
761.92	30.106
762.10	20.730
762.28	28.830
762.46	17.128
762.63	24.721
762.81	26.155
762.99	25.666
763.17	29.394
763.35	26.629
763.53	24.795
763.70	30.664
763.88	30.788
764.06	29.296
764.24	25.627
764.42	34.177
764.60	30.415
764.77	26.037
764.95	30.753
765.13	34.265
765.31	31.289
765.49	36.877
765.66	28.606
765.84	32.349
766.02	30.219
766.20	32.271
766.38	33.217
766.56	34.725
766.73	31.032
766.91	34.630
767.09	32.037
767.27	33.657
767.45	29.177
767.62	35.111
767.80	29.292
767.98	37.320
768.16	27.502
768.33	37.746
768.51	32.815
768.69	36.881
768.87	29.530
769.05	33.400
769.22	29.769
769.40	37.004
769.58	32.438
769.76	42.484
769.94	32.035
770.11	34.103
770.29	39.193
770.47	37.124
770.65	37.371
770.82	40.000
771.00	32.544
771.18	37.220
771.36	30.430
771.53	32.000
771.71	33.257
771.89	36.211
772.07	34.793
772.25	43.200
772.42	25.481
772.60	38.768
772.78	34.510
772.96	47.763
773.13	34.814
773.31	33.140
773.49	38.985
773.67	32.752
773.84	33.294
774.02	39.899
774.20	33.376
774.37	34.587
774.55	28.264
774.73	38.379
774.91	28.553
775.08	35.523
775.26	36.981
775.44	40.305
775.62	33.586
775.79	36.534
775.97	28.516
776.15	31.191
776.32	28.762
776.50	37.536
776.68	38.889
776.86	38.867
777.03	34.273
777.21	38.603
777.39	32.723
777.56	34.415
777.74	31.169
777.92	31.258
778.10	28.995
778.27	34.925
778.45	33.423
778.63	38.450
778.80	33.023
778.98	41.987
779.16	36.940
779.34	32.517
779.51	40.078
779.69	38.639
779.87	29.396
780.04	36.262
780.22	30.478
780.40	36.340
780.57	34.857
780.75	37.112
780.93	40.611
781.10	39.106
781.28	39.013
781.46	38.109
781.63	32.951
781.81	40.459
781.99	37.087
782.16	33.281
782.34	29.247
782.52	30.491
782.69	35.111
782.87	31.383
783.05	29.827
783.22	38.427
783.40	36.865
783.58	37.223
783.75	30.486
783.93	41.729
784.11	26.176
784.28	38.855
784.46	33.754
784.64	36.613
784.81	26.406
784.99	39.097
785.17	37.014
785.34	33.333
785.52	28.275
785.69	36.622
785.87	27.556
786.05	38.961
786.22	32.932
786.40	33.494
786.58	36.940
786.75	40.513
786.93	29.042
787.11	28.323
787.28	33.042
787.46	35.407
787.63	32.602
787.81	31.704
787.99	40.501
788.16	34.243
788.34	29.265
788.51	33.427
788.69	28.895
788.87	37.618
789.04	29.719
789.22	28.457
789.39	36.680
789.57	27.030
789.75	31.390
789.92	35.419
790.10	22.739
790.27	37.887
790.45	23.174
790.63	33.236
790.80	29.023
790.98	24.412
791.15	33.568
791.33	31.223
791.51	28.275
791.68	38.609
791.86	36.738
792.03	40.836
792.21	24.564
792.39	33.914
792.56	27.822
792.74	32.258
792.91	36.717
793.09	26.923
793.26	30.609
793.44	27.169
793.62	32.998
793.79	35.241
793.97	36.928
794.14	32.807
794.32	36.394
794.49	38.447
794.67	30.809
794.84	31.250
795.02	37.919
795.20	36.289
795.37	33.274
795.55	30.849
795.72	27.303
795.90	28.393
796.07	33.224
796.25	37.829
796.42	26.418
796.60	24.176
796.77	26.391
796.95	28.125
797.13	25.738
797.30	36.819
797.48	28.526
797.65	32.253
797.83	21.713
798.00	31.125
798.18	32.701
798.35	30.365
798.53	21.053
798.70	24.615
798.88	30.783
799.05	34.704
799.23	28.419
799.40	26.256
799.58	30.695
799.75	30.718
799.93	30.981
800.10	26.316
800.28	29.983
800.45	32.269
800.63	30.259
800.80	30.122
800.98	35.798
801.15	39.339
801.33	25.172
801.50	31.894
801.68	32.353
801.85	30.556
802.03	28.986
802.20	41.852
802.38	31.130
802.55	29.153
802.73	35.169
802.90	21.025
803.08	30.741
803.25	36.023
803.43	37.944
803.60	35.649
803.78	31.156
803.95	31.842
804.13	35.605
804.30	35.227
804.48	24.151
804.65	30.512
804.83	32.359
805.00	22.862
805.17	32.172
805.35	37.692
805.52	36.022
805.70	42.553
805.87	36.444
806.05	39.130
806.22	33.650
806.40	27.624
806.57	27.458
806.75	30.597
806.92	36.213
807.09	31.359
807.27	34.160
807.44	31.250
807.62	32.122
807.79	29.668
807.97	26.654
808.14	31.130
808.31	32.634
808.49	30.159
808.66	32.200
808.84	30.502
809.01	29.389
809.19	28.261
809.36	29.072
809.53	28.983
809.71	27.129
809.88	38.776
810.06	38.404
810.23	32.158
810.41	31.087
810.58	32.054
810.75	30.350
810.93	29.596
811.10	31.002
811.28	41.714
811.45	23.663
811.62	30.254
811.80	30.405
811.97	28.027
812.15	38.646
812.32	31.410
812.49	37.238
812.67	23.014
812.84	26.681
813.02	32.927
813.19	25.898
813.36	33.259
813.54	18.486
813.71	28.230
813.89	36.550
814.06	40.173
814.23	37.969
814.41	30.000
814.58	32.489
814.75	30.193
814.93	28.348
815.10	43.602
815.28	31.971
815.45	25.355
815.62	41.176
815.80	33.036
815.97	26.683
816.14	32.536
816.32	28.784
816.49	24.018
816.66	28.711
816.84	26.096
817.01	27.679
817.18	27.152
817.36	32.468
817.53	34.278
817.71	32.477
817.88	30.252
818.05	30.752
818.23	26.932
818.40	22.521
818.57	31.347
818.75	28.184
818.92	33.054
819.09	17.422
819.27	34.058
819.44	27.862
819.61	26.616
819.79	31.157
819.96	33.388
820.13	20.037
820.31	28.096
820.48	31.349
820.65	28.595
820.82	29.385
821.00	27.035
821.17	19.945
821.34	27.529
821.52	23.703
821.69	24.230
821.86	21.372
822.04	23.475
822.21	24.197
822.38	28.323
822.56	25.561
822.73	34.845
822.90	30.608
823.07	34.794
823.25	33.558
823.42	32.354
823.59	30.387
823.77	33.857
823.94	32.212
824.11	34.079
824.29	32.088
824.46	32.398
824.63	33.229
824.80	30.214
824.98	28.617
825.15	31.324
825.32	23.681
825.49	28.478
825.67	26.103
825.84	30.198
826.01	22.811
826.19	26.770
826.36	21.229
826.53	28.882
826.70	23.322
826.88	26.879
827.05	23.172
827.22	27.409
827.39	23.626
827.57	23.860
827.74	23.396
827.91	32.086
828.08	16.958
828.26	23.822
828.43	19.155
828.60	33.357
828.77	22.413
828.95	28.315
829.12	19.259
829.29	19.727
829.46	25.086
829.64	20.821
829.81	18.788
829.98	29.673
830.15	25.562
830.32	22.155
830.50	19.522
830.67	23.511
830.84	19.583
831.01	23.486
831.19	27.700
831.36	30.421
831.53	30.627
831.70	25.421
831.87	21.260
832.05	30.625
832.22	40.710
832.39	19.104
832.56	29.241
832.74	20.264
832.91	21.188
833.08	26.190
833.25	17.308
833.42	25.216
833.60	19.608
833.77	12.991
833.94	16.667
834.11	18.428
834.28	17.880
834.45	26.807
834.63	18.374
834.80	19.897
834.97	19.310
835.14	24.796
835.31	20.448
835.49	25.677
835.66	25.372
835.83	22.669
836.00	23.905
836.17	21.130
836.34	19.144
836.52	24.044
836.69	22.761
836.86	27.054
837.03	19.485
837.20	26.116
837.37	24.403
837.55	24.663
837.72	26.916
837.89	17.595
838.06	27.549
838.23	27.295
838.40	33.594
838.58	31.771
838.75	37.500
838.92	30.448
839.09	50.592
839.26	35.333
839.43	32.399
839.60	43.226
839.78	49.189
839.95	37.113
840.12	34.024
840.29	30.278
840.46	42.632
840.63	36.528
840.80	31.202
840.98	33.171
841.15	36.802
841.32	23.747
841.49	31.139
841.66	29.670
841.83	37.129
842.00	47.445
842.17	36.760
842.34	37.598
842.52	29.721
842.69	32.877
842.86	31.908
843.03	39.655
843.20	47.347
843.37	38.253
843.54	31.225
843.71	34.675
843.88	51.341
844.06	50.000
844.23	50.424
844.40	44.578
844.57	68.015
844.74	51.149
844.91	39.744
845.08	41.627
845.25	31.604
845.42	58.190
845.59	52.137
845.76	49.590
845.94	63.590
846.11	22.500
846.28	46.635
846.45	80.488
846.62	69.192
846.79	61.364
846.96	37.374
847.13	49.733
847.30	39.583
847.47	57.229
847.64	58.549
847.81	37.073
847.98	51.872
848.15	48.077
848.32	53.297
848.50	79.687
848.67	49.479
848.84	44.693
849.01	61.481
849.18	63.136
849.35	86.452
849.52	26.316
849.69	70.690
849.86	69.388
850.03	60.227
850.20	93.038
850.37	40.698
850.54	41.667
850.71	75.460
850.88	61.143
851.05	63.399
851.22	60.588
851.39	58.824
851.56	80.667
851.73	64.249
851.90	78.182
852.07	64.063
852.24	57.803
852.41	75.912
852.58	65.363
852.75	49.398
852.92	27.692
853.09	65.934
853.26	86.111
853.43	76.503
853.60	49.624
853.77	71.429
853.94	50.968
854.11	64.835
854.28	59.596
854.45	63.975
854.62	42.453
854.79	56.805
854.96	78.125
855.13	67.039
855.30	75.796
855.47	60.769
855.64	59.722
855.81	54.545
855.98	51.376
856.15	76.796
856.32	84.615
856.49	55.705
856.66	72.414
856.83	74.809
857.00	70.060
857.17	87.059
857.34	85.616
857.51	63.717
857.68	75.862
857.85	53.226
858.02	69.945
858.19	70.345
858.36	81.818
858.53	61.644
858.70	59.504
858.87	82.813
859.04	52.903
859.21	48.701
859.38	51.429
859.55	65.734
859.72	56.604
859.89	86.567
860.05	62.025
860.22	53.005
860.39	43.750
860.56	65.829
860.73	52.601
860.90	91.096
861.07	61.029
861.24	55.039
861.41	77.228
861.58	52.486
861.75	52.756
861.92	64.238
862.09	48.485
862.26	91.026
862.43	74.847
862.59	75.543
862.76	81.818
862.93	97.531
863.10	66.364
863.27	50.000
863.44	52.525
863.61	58.904
863.78	88.281
863.95	68.718
864.12	79.444
864.29	49.721
864.45	64.596
864.62	59.429
864.79	63.121
864.96	118.750
865.13	35.465
865.30	95.238
865.47	88.462
865.64	106.931
865.81	65.193
865.97	63.934
866.14	72.396
866.31	66.316
866.48	64.925
866.65	35.507
866.82	98.000
866.99	80.822
867.16	66.387
867.33	54.930
867.49	52.047
867.66	55.901
867.83	57.432
868.00	54.774
868.17	75.806
868.34	85.616
868.51	119.048
868.67	77.778
868.84	100.826
869.01	55.000
869.18	56.250
869.35	60.736
869.52	46.875
869.69	34.911
869.85	54.645
870.02	51.351
870.19	68.085
870.36	78.261
870.53	67.769
870.70	65.833
870.86	82.143
871.03	62.420
871.20	53.465
871.37	87.097
871.54	87.963
871.71	52.907
871.87	46.565
872.04	63.819
872.21	71.676
872.38	78.571
872.55	98.582
872.72	46.860
872.88	62.893
873.05	73.585
873.22	35.714
873.39	46.875
873.56	71.345
873.72	79.832
873.89	80.120
874.06	83.117
874.23	63.924
874.40	99.083
874.56	60.326
874.73	70.339
874.90	74.074
875.07	62.745
875.24	35.088
875.40	97.692
875.57	44.030
875.74	76.923
875.91	75.735
876.08	91.837
876.24	73.636
876.41	81.500
876.58	45.614
876.75	44.961
876.92	42.236
877.08	76.023
877.25	46.000
877.42	81.208
877.59	68.072
877.75	60.963
877.92	65.289
878.09	96.800
878.26	72.308
878.42	61.688
878.59	74.719
878.76	58.523
878.93	71.839
879.09	52.542
879.26	78.322
879.43	65.174
879.60	49.505
879.76	48.969
879.93	60.000
880.10	42.929
880.27	41.702
880.43	26.887
880.60	50.000
880.77	24.424
880.94	45.033
881.10	31.773
881.27	35.362
881.44	26.566
881.61	27.706
881.77	24.551
881.94	22.330
882.11	14.660
882.28	18.812
882.44	19.041
882.61	18.635
882.78	23.593
882.94	27.549
883.11	20.270
883.28	22.439
883.45	20.256
883.61	19.880
883.78	18.228
883.95	23.017
884.11	15.351
884.28	17.491
>>>>>End Processed Spectral Data<<<<<
