SpectraSuite Data File
++++++++++++++++++++++++++++++++++++
Date: Sun Sep 22 03:15:18 EST 2019
User: sgrac
Dark Spectrum Present: Yes
Reference Spectrum Present: Yes
Number of Sampled Component Spectra: 1
Spectrometers: USB4E01596
Integration Time (usec): 100000 (USB4E01596)
Spectra Averaged: 1 (USB4E01596)
Boxcar Smoothing: 0 (USB4E01596)
Correct for Electrical Dark: No (USB4E01596)
Strobe/Lamp Enabled: Yes (USB4E01596)
Correct for Detector Non-linearity: No (USB4E01596)
Correct for Stray Light: No (USB4E01596)
Number of Pixels in Processed Spectrum: 3648
>>>>>Begin Processed Spectral Data<<<<<
178.44	721.429
178.66	721.429
178.87	721.429
179.09	-127.778
179.30	-433.333
179.52	187.097
179.74	7900.000
179.95	1066.667
180.17	10300.000
180.38	272.222
180.60	-681.250
180.82	3225.000
181.03	-200.000
181.25	556.522
181.46	-192.857
181.68	-310.000
181.89	344.118
182.11	471.429
182.33	1614.286
182.54	262.069
182.76	763.636
182.97	-507.143
183.19	235.897
183.40	-395.238
183.62	359.259
183.84	268.571
184.05	12600.000
184.27	212.500
184.48	217.021
184.70	535.714
184.91	686.667
185.13	-7550.000
185.34	871.429
185.56	-328.571
185.78	226.667
185.99	164.706
186.21	171.739
186.42	2000.000
186.64	85.526
186.85	-433.333
187.07	384.375
187.28	-1450.000
187.50	728.571
187.72	790.909
187.93	-718.750
188.15	475.758
188.36	286.486
188.58	160.000
188.79	309.677
189.01	300.000
189.22	-930.000
189.44	178.082
189.65	3000.000
189.87	2280.000
190.09	0.000
190.30	633.333
190.52	-288.462
190.73	504.348
190.95	296.429
191.16	740.000
191.38	-569.231
191.59	8600.000
191.81	221.053
192.02	460.000
192.24	-6850.000
192.45	-680.000
192.67	297.917
192.88	165.152
193.10	10700.000
193.31	-642.857
193.53	1000.000
193.74	243.590
193.96	189.796
194.18	181.579
194.39	-2000.000
194.61	908.333
194.82	174.545
195.04	1200.000
195.25	940.000
195.47	-505.882
195.68	-182.143
195.90	215.625
196.11	646.154
196.33	250.000
196.54	287.879
196.76	1883.333
196.97	-625.000
197.19	778.571
197.40	312.121
197.62	242.424
197.83	-887.500
198.05	1800.000
198.26	192.537
198.48	580.000
198.69	-190.909
198.91	-3100.000
199.12	282.857
199.34	272.222
199.55	531.579
199.77	-500.000
199.98	-938.462
200.20	246.667
200.41	310.526
200.63	210.204
200.84	-700.000
201.06	2040.000
201.27	450.000
201.49	-1514.286
201.70	0.000
201.91	550.000
202.13	197.917
202.34	277.778
202.56	1000.000
202.77	237.931
202.99	-816.667
203.20	-1077.778
203.42	172.368
203.63	325.000
203.85	175.472
204.06	469.231
204.28	473.333
204.49	-7900.000
204.71	305.405
204.92	423.333
205.14	459.091
205.35	457.143
205.56	187.755
205.78	880.000
205.99	8100.000
206.21	617.647
206.42	195.000
206.64	3933.333
206.85	235.417
207.07	183.333
207.28	134.426
207.50	360.714
207.71	340.000
207.93	434.783
208.14	-1000.000
208.35	-2366.667
208.57	1020.000
208.78	258.696
209.00	150.000
209.21	190.909
209.43	165.217
209.64	1275.000
209.86	227.273
210.07	600.000
210.28	641.667
210.50	277.500
210.71	270.213
210.93	556.250
211.14	-9700.000
211.36	260.000
211.57	-9700.000
211.78	-2375.000
212.00	278.947
212.21	1080.000
212.43	265.957
212.64	672.727
212.86	255.172
213.07	-2950.000
213.29	206.250
213.50	-631.579
213.71	196.721
213.93	1200.000
214.14	728.571
214.36	684.615
214.57	350.000
214.78	192.208
215.00	197.143
215.21	444.444
215.43	436.000
215.64	-7800.000
215.86	933.333
216.07	-723.077
216.28	900.000
216.50	-323.077
216.71	1800.000
216.93	770.588
217.14	-361.905
217.35	204.687
217.57	766.667
217.78	382.353
218.00	1966.667
218.21	194.340
218.42	1333.333
218.64	2233.333
218.85	933.333
219.07	-577.778
219.28	-359.259
219.49	344.444
219.71	360.000
219.92	223.077
220.14	356.522
220.35	5100.000
220.56	221.053
220.78	320.000
220.99	-1283.333
221.21	0.000
221.42	200.000
221.63	800.000
221.85	194.915
222.06	179.592
222.28	279.310
222.49	250.000
222.70	1080.000
222.92	298.000
223.13	176.667
223.34	-650.000
223.56	140.260
223.77	197.872
223.99	525.000
224.20	170.732
224.41	336.364
224.63	158.667
224.84	289.655
225.05	166.667
225.27	124.638
225.48	192.000
225.69	238.095
225.91	114.815
226.12	195.775
226.34	89.320
226.55	144.928
226.76	194.737
226.98	115.789
227.19	161.290
227.40	225.000
227.62	134.000
227.83	100.676
228.04	97.938
228.26	78.512
228.47	90.244
228.69	50.888
228.90	60.000
229.11	43.096
229.33	39.496
229.54	38.516
229.75	32.836
229.97	38.438
230.18	32.133
230.39	25.758
230.61	18.380
230.82	45.562
231.03	14.417
231.25	43.554
231.46	43.042
231.67	29.870
231.89	51.481
232.10	38.806
232.31	22.881
232.53	27.350
232.74	31.250
232.95	44.335
233.17	49.609
233.38	37.569
233.59	49.744
233.81	32.500
234.02	45.238
234.23	17.890
234.45	52.406
234.66	26.168
234.87	47.489
235.09	72.864
235.30	39.512
235.51	45.690
235.73	42.308
235.94	35.821
236.15	55.422
236.36	48.327
236.58	26.978
236.79	33.333
237.00	52.650
237.22	37.908
237.43	35.841
237.64	27.876
237.86	34.956
238.07	41.901
238.28	41.935
238.50	45.848
238.71	48.087
238.92	41.812
239.13	48.606
239.35	40.702
239.56	44.118
239.77	42.045
239.99	29.259
240.20	39.826
240.41	25.439
240.63	36.095
240.84	36.012
241.05	24.169
241.26	28.000
241.48	18.750
241.69	24.943
241.90	15.914
242.12	20.421
242.33	14.493
242.54	23.558
242.75	16.450
242.97	17.355
243.18	14.104
243.39	14.483
243.61	15.225
243.82	14.354
244.03	14.221
244.24	9.703
244.46	11.772
244.67	16.560
244.88	16.103
245.09	12.219
245.31	16.221
245.52	8.669
245.73	24.214
245.95	27.074
246.16	14.019
246.37	22.115
246.58	17.841
246.80	13.680
247.01	9.659
247.22	12.268
247.43	10.438
247.65	8.059
247.86	10.155
248.07	9.369
248.28	7.115
248.50	9.040
248.71	7.457
248.92	5.332
249.13	10.110
249.35	9.385
249.56	8.936
249.77	10.164
249.98	7.648
250.20	10.191
250.41	10.304
250.62	13.376
250.83	12.995
251.05	17.760
251.26	19.382
251.47	12.000
251.68	10.691
251.90	14.697
252.11	19.608
252.32	16.345
252.53	16.740
252.75	14.835
252.96	12.975
253.17	10.000
253.38	18.193
253.59	11.806
253.81	13.368
254.02	9.597
254.23	7.520
254.44	14.861
254.66	9.944
254.87	12.329
255.08	19.139
255.29	15.169
255.50	17.658
255.72	17.913
255.93	20.260
256.14	14.423
256.35	22.309
256.57	22.892
256.78	7.676
256.99	17.925
257.20	29.783
257.41	19.298
257.63	12.233
257.84	21.291
258.05	25.891
258.26	17.081
258.47	14.332
258.69	13.213
258.90	5.673
259.11	17.213
259.32	12.854
259.53	7.782
259.75	12.555
259.96	4.446
260.17	7.383
260.38	6.649
260.59	7.189
260.81	9.240
261.02	7.490
261.23	6.089
261.44	6.590
261.65	5.740
261.87	4.423
262.08	4.765
262.29	6.606
262.50	7.363
262.71	8.098
262.92	5.061
263.14	6.214
263.35	10.522
263.56	11.740
263.77	10.309
263.98	12.688
264.20	15.084
264.41	11.821
264.62	17.435
264.83	9.111
265.04	14.880
265.25	14.232
265.47	14.208
265.68	9.913
265.89	10.845
266.10	10.811
266.31	12.798
266.52	14.982
266.74	9.620
266.95	9.556
267.16	13.453
267.37	9.375
267.58	10.899
267.79	9.099
268.01	5.249
268.22	10.898
268.43	8.158
268.64	7.692
268.85	10.912
269.06	10.000
269.27	7.612
269.49	12.085
269.70	9.920
269.91	6.272
270.12	6.917
270.33	9.660
270.54	5.455
270.75	11.681
270.97	9.754
271.18	9.819
271.39	10.735
271.60	7.321
271.81	6.405
272.02	6.813
272.23	7.945
272.45	7.436
272.66	6.773
272.87	9.358
273.08	6.254
273.29	3.215
273.50	10.019
273.71	6.701
273.92	4.243
274.14	6.959
274.35	5.440
274.56	7.886
274.77	7.478
274.98	7.531
275.19	7.965
275.40	6.532
275.61	6.620
275.83	7.067
276.04	10.072
276.25	9.873
276.46	9.799
276.67	10.240
276.88	6.126
277.09	10.936
277.30	9.493
277.51	8.645
277.73	11.171
277.94	8.124
278.15	7.718
278.36	7.731
278.57	3.822
278.78	7.029
278.99	8.747
279.20	14.632
279.41	11.519
279.62	7.603
279.84	8.495
280.05	10.185
280.26	10.381
280.47	6.784
280.68	13.920
280.89	11.497
281.10	8.150
281.31	10.085
281.52	8.762
281.73	7.950
281.94	3.201
282.16	7.840
282.37	5.274
282.58	8.156
282.79	5.440
283.00	9.883
283.21	7.124
283.42	7.138
283.63	7.516
283.84	8.376
284.05	5.211
284.26	7.231
284.47	8.531
284.68	7.203
284.89	7.722
285.11	9.506
285.32	4.981
285.53	7.935
285.74	5.825
285.95	6.279
286.16	4.743
286.37	6.314
286.58	4.874
286.79	4.399
287.00	7.327
287.21	3.176
287.42	4.993
287.63	3.643
287.84	4.430
288.05	7.316
288.26	4.723
288.48	7.154
288.69	5.998
288.90	6.747
289.11	8.931
289.32	7.596
289.53	8.000
289.74	7.130
289.95	4.976
290.16	3.385
290.37	8.710
290.58	9.983
290.79	5.985
291.00	2.257
291.21	4.579
291.42	6.234
291.63	6.692
291.84	6.070
292.05	4.050
292.26	5.799
292.47	5.008
292.68	7.088
292.89	5.843
293.10	7.093
293.31	5.115
293.52	6.746
293.73	3.831
293.94	5.735
294.15	7.403
294.36	5.754
294.57	8.898
294.79	8.076
295.00	5.767
295.21	8.031
295.42	6.863
295.63	5.142
295.84	5.428
296.05	7.474
296.26	6.760
296.47	5.444
296.68	3.134
296.89	5.362
297.10	6.865
297.31	7.181
297.52	3.751
297.73	5.576
297.94	5.378
298.15	4.266
298.36	4.158
298.57	5.502
298.78	4.255
298.99	4.743
299.20	3.875
299.41	5.184
299.62	4.242
299.83	4.527
300.04	4.434
300.25	5.121
300.46	5.920
300.67	5.296
300.88	6.609
301.09	4.899
301.30	7.906
301.50	2.868
301.71	8.792
301.92	9.910
302.13	5.553
302.34	6.435
302.55	6.378
302.76	4.989
302.97	4.485
303.18	5.905
303.39	8.751
303.60	4.199
303.81	4.097
304.02	5.251
304.23	6.569
304.44	6.365
304.65	6.786
304.86	8.265
305.07	8.987
305.28	5.237
305.49	6.229
305.70	7.135
305.91	8.365
306.12	6.353
306.33	7.147
306.54	6.922
306.75	6.838
306.96	8.604
307.17	4.706
307.38	7.410
307.58	6.739
307.79	7.084
308.00	4.279
308.21	9.577
308.42	5.049
308.63	5.728
308.84	7.728
309.05	7.269
309.26	5.049
309.47	5.284
309.68	6.434
309.89	5.885
310.10	3.969
310.31	6.499
310.52	5.885
310.73	5.588
310.94	2.901
311.14	4.979
311.35	4.664
311.56	6.934
311.77	7.478
311.98	4.421
312.19	5.438
312.40	2.974
312.61	7.253
312.82	4.071
313.03	5.910
313.24	3.915
313.45	5.403
313.66	5.224
313.86	4.448
314.07	5.109
314.28	3.835
314.49	6.477
314.70	4.578
314.91	8.979
315.12	3.350
315.33	6.285
315.54	5.361
315.75	3.493
315.96	2.818
316.16	5.770
316.37	6.692
316.58	4.013
316.79	5.493
317.00	6.517
317.21	4.905
317.42	9.731
317.63	6.471
317.84	6.584
318.05	5.087
318.25	6.105
318.46	5.204
318.67	7.644
318.88	4.350
319.09	7.047
319.30	4.852
319.51	6.615
319.72	6.551
319.93	6.239
320.13	6.149
320.34	7.949
320.55	7.255
320.76	10.011
320.97	5.082
321.18	6.905
321.39	4.928
321.60	7.617
321.80	4.579
322.01	7.659
322.22	6.699
322.43	7.776
322.64	7.638
322.85	7.664
323.06	8.227
323.27	4.381
323.47	8.065
323.68	6.932
323.89	4.157
324.10	6.589
324.31	3.914
324.52	7.191
324.73	6.429
324.93	5.329
325.14	6.805
325.35	8.113
325.56	5.668
325.77	8.091
325.98	5.026
326.19	3.216
326.39	5.718
326.60	6.140
326.81	3.417
327.02	4.552
327.23	3.682
327.44	6.562
327.64	5.523
327.85	3.209
328.06	4.656
328.27	6.836
328.48	5.966
328.69	3.918
328.90	5.320
329.10	4.734
329.31	4.810
329.52	3.682
329.73	5.426
329.94	6.331
330.15	6.924
330.35	6.049
330.56	6.300
330.77	3.543
330.98	7.771
331.19	5.860
331.39	5.449
331.60	6.446
331.81	4.348
332.02	6.069
332.23	6.157
332.44	2.309
332.64	5.499
332.85	7.407
333.06	8.275
333.27	4.234
333.48	5.810
333.68	6.556
333.89	5.655
334.10	3.842
334.31	7.289
334.52	5.149
334.72	4.554
334.93	6.929
335.14	5.392
335.35	6.417
335.56	6.673
335.76	2.998
335.97	7.420
336.18	5.808
336.39	5.150
336.60	6.820
336.80	3.949
337.01	3.798
337.22	6.702
337.43	4.978
337.64	5.318
337.84	3.771
338.05	3.598
338.26	7.453
338.47	6.682
338.68	5.678
338.88	7.007
339.09	5.077
339.30	3.090
339.51	2.701
339.71	5.690
339.92	7.129
340.13	5.332
340.34	5.587
340.55	4.051
340.75	6.786
340.96	2.700
341.17	6.417
341.38	4.563
341.58	8.079
341.79	5.159
342.00	5.182
342.21	7.015
342.41	3.866
342.62	5.965
342.83	6.834
343.04	3.509
343.24	4.976
343.45	4.926
343.66	4.803
343.87	7.663
344.07	4.993
344.28	5.470
344.49	4.338
344.70	5.885
344.90	4.559
345.11	3.629
345.32	6.572
345.53	4.782
345.73	6.235
345.94	7.299
346.15	5.287
346.36	5.503
346.56	5.449
346.77	7.888
346.98	5.584
347.19	7.157
347.39	3.505
347.60	4.492
347.81	7.056
348.02	6.325
348.22	4.005
348.43	5.969
348.64	4.658
348.84	5.652
349.05	4.227
349.26	6.497
349.47	6.269
349.67	4.216
349.88	6.658
350.09	5.011
350.30	9.655
350.50	5.035
350.71	5.711
350.92	7.246
351.12	6.019
351.33	4.815
351.54	8.935
351.74	6.490
351.95	6.242
352.16	6.775
352.37	8.670
352.57	4.414
352.78	5.351
352.99	8.866
353.19	7.124
353.40	3.757
353.61	8.776
353.82	7.878
354.02	5.073
354.23	7.043
354.44	7.513
354.64	8.249
354.85	8.143
355.06	6.951
355.26	5.486
355.47	7.927
355.68	6.711
355.88	9.166
356.09	7.669
356.30	5.644
356.51	8.246
356.71	5.271
356.92	4.495
357.13	7.803
357.33	8.501
357.54	6.457
357.75	5.240
357.95	7.916
358.16	6.707
358.37	9.493
358.57	5.986
358.78	10.051
358.99	5.236
359.19	7.829
359.40	8.168
359.61	7.164
359.81	9.097
360.02	9.642
360.23	6.689
360.43	6.386
360.64	5.670
360.85	7.586
361.05	4.564
361.26	10.259
361.47	7.001
361.67	8.459
361.88	6.144
362.09	8.677
362.29	4.959
362.50	5.992
362.70	4.470
362.91	8.516
363.12	7.071
363.32	6.356
363.53	7.920
363.74	7.935
363.94	6.366
364.15	8.824
364.36	7.815
364.56	6.184
364.77	8.352
364.98	11.089
365.18	7.442
365.39	7.967
365.59	4.552
365.80	5.453
366.01	8.318
366.21	7.382
366.42	5.610
366.63	10.482
366.83	8.757
367.04	5.179
367.24	7.859
367.45	5.791
367.66	4.835
367.86	6.397
368.07	7.732
368.28	6.138
368.48	6.132
368.69	6.766
368.89	7.931
369.10	7.312
369.31	5.344
369.51	6.797
369.72	8.693
369.92	9.406
370.13	7.606
370.34	8.700
370.54	3.269
370.75	7.624
370.95	6.044
371.16	7.885
371.37	6.514
371.57	5.873
371.78	5.511
371.98	6.630
372.19	8.343
372.40	9.360
372.60	5.600
372.81	6.416
373.01	4.927
373.22	6.766
373.43	7.444
373.63	6.534
373.84	6.622
374.04	6.223
374.25	7.531
374.46	7.808
374.66	7.579
374.87	7.976
375.07	4.372
375.28	4.945
375.48	7.151
375.69	8.835
375.90	4.062
376.10	4.587
376.31	5.462
376.51	5.359
376.72	6.200
376.92	4.759
377.13	6.434
377.34	8.161
377.54	5.909
377.75	9.048
377.95	5.922
378.16	6.516
378.36	7.231
378.57	7.776
378.77	6.641
378.98	6.235
379.19	6.322
379.39	6.486
379.60	5.583
379.80	6.956
380.01	6.938
380.21	5.996
380.42	8.012
380.62	6.384
380.83	6.843
381.04	4.801
381.24	7.157
381.45	5.727
381.65	4.072
381.86	6.038
382.06	5.914
382.27	3.555
382.47	5.752
382.68	6.382
382.88	5.089
383.09	4.488
383.29	5.589
383.50	7.588
383.71	6.139
383.91	5.878
384.12	4.312
384.32	6.554
384.53	5.978
384.73	2.959
384.94	3.974
385.14	5.031
385.35	3.549
385.55	5.831
385.76	4.136
385.96	4.837
386.17	6.487
386.37	6.449
386.58	5.582
386.78	6.537
386.99	3.400
387.19	6.156
387.40	3.734
387.60	6.073
387.81	4.717
388.01	4.851
388.22	6.043
388.42	7.633
388.63	6.081
388.83	6.399
389.04	4.284
389.24	4.645
389.45	5.447
389.65	5.950
389.86	5.324
390.06	5.494
390.27	4.825
390.47	6.171
390.68	4.059
390.88	5.951
391.09	6.013
391.29	6.998
391.50	5.017
391.70	6.253
391.91	4.690
392.11	4.991
392.32	5.413
392.52	6.536
392.73	5.249
392.93	5.154
393.14	4.573
393.34	5.197
393.55	5.700
393.75	5.050
393.95	5.992
394.16	6.083
394.36	5.496
394.57	6.926
394.77	5.516
394.98	4.712
395.18	5.697
395.39	5.444
395.59	6.026
395.80	5.027
396.00	4.929
396.21	6.295
396.41	4.438
396.61	5.529
396.82	5.567
397.02	7.386
397.23	5.962
397.43	5.636
397.64	4.010
397.84	6.852
398.05	3.457
398.25	6.590
398.45	4.004
398.66	6.689
398.86	5.837
399.07	7.149
399.27	4.606
399.48	6.247
399.68	4.914
399.89	4.209
400.09	6.273
400.29	4.969
400.50	4.765
400.70	6.344
400.91	3.835
401.11	4.607
401.32	4.461
401.52	3.938
401.72	5.116
401.93	5.933
402.13	5.891
402.34	4.497
402.54	4.816
402.75	6.940
402.95	4.263
403.15	6.461
403.36	5.504
403.56	5.086
403.77	4.007
403.97	5.663
404.17	4.643
404.38	5.540
404.58	3.909
404.79	5.498
404.99	5.707
405.19	4.473
405.40	5.053
405.60	5.406
405.81	3.990
406.01	4.699
406.21	4.565
406.42	4.684
406.62	5.503
406.83	5.259
407.03	5.743
407.23	3.540
407.44	4.797
407.64	4.169
407.85	4.811
408.05	4.977
408.25	4.462
408.46	5.498
408.66	4.513
408.87	3.947
409.07	5.086
409.27	4.613
409.48	4.336
409.68	5.476
409.88	3.560
410.09	4.611
410.29	5.737
410.50	6.140
410.70	3.489
410.90	4.816
411.11	4.463
411.31	3.871
411.51	5.272
411.72	5.766
411.92	3.361
412.12	3.546
412.33	4.830
412.53	4.274
412.74	3.213
412.94	3.793
413.14	4.867
413.35	4.879
413.55	4.935
413.75	6.382
413.96	4.206
414.16	5.050
414.36	4.733
414.57	4.953
414.77	3.742
414.97	4.054
415.18	3.568
415.38	2.888
415.58	4.873
415.79	3.886
415.99	4.044
416.19	4.450
416.40	4.971
416.60	3.644
416.80	4.618
417.01	5.057
417.21	4.319
417.41	5.830
417.62	4.457
417.82	4.822
418.02	3.732
418.23	5.642
418.43	4.474
418.63	4.659
418.84	5.273
419.04	4.485
419.24	5.739
419.45	6.171
419.65	6.113
419.85	5.579
420.06	5.657
420.26	5.896
420.46	5.110
420.67	6.413
420.87	5.809
421.07	6.556
421.28	5.249
421.48	6.880
421.68	5.767
421.88	6.826
422.09	5.924
422.29	6.318
422.49	5.265
422.70	6.053
422.90	5.821
423.10	6.363
423.31	5.618
423.51	7.289
423.71	4.989
423.91	6.268
424.12	6.074
424.32	6.688
424.52	5.709
424.73	6.193
424.93	5.659
425.13	5.785
425.33	5.499
425.54	6.608
425.74	5.847
425.94	6.764
426.15	6.033
426.35	5.521
426.55	6.005
426.75	6.082
426.96	5.297
427.16	5.645
427.36	5.890
427.57	6.500
427.77	4.982
427.97	5.757
428.17	5.308
428.38	5.472
428.58	3.403
428.78	5.169
428.98	4.316
429.19	4.799
429.39	3.064
429.59	4.662
429.79	4.025
430.00	3.821
430.20	3.553
430.40	4.505
430.60	3.852
430.81	4.680
431.01	4.194
431.21	4.992
431.41	3.748
431.62	4.222
431.82	3.652
432.02	6.021
432.22	3.913
432.43	4.043
432.63	2.900
432.83	4.564
433.03	4.372
433.24	3.890
433.44	4.225
433.64	5.163
433.84	4.015
434.05	4.797
434.25	4.311
434.45	5.204
434.65	5.819
434.85	5.479
435.06	5.474
435.26	5.076
435.46	4.922
435.66	5.212
435.87	3.889
436.07	4.916
436.27	4.157
436.47	4.202
436.67	3.771
436.88	4.591
437.08	4.382
437.28	4.811
437.48	4.136
437.69	5.854
437.89	4.052
438.09	6.176
438.29	4.216
438.49	5.791
438.70	4.610
438.90	4.273
439.10	4.116
439.30	4.380
439.50	3.309
439.71	5.086
439.91	4.800
440.11	5.612
440.31	4.798
440.51	4.858
440.72	4.296
440.92	5.860
441.12	4.684
441.32	6.581
441.52	5.589
441.72	5.785
441.93	5.457
442.13	6.164
442.33	4.976
442.53	6.602
442.73	4.237
442.94	6.016
443.14	4.644
443.34	6.280
443.54	5.625
443.74	5.858
443.94	5.126
444.15	4.833
444.35	3.825
444.55	5.448
444.75	4.940
444.95	5.567
445.15	4.302
445.36	4.498
445.56	3.767
445.76	5.153
445.96	4.812
446.16	4.629
446.36	4.093
446.57	6.032
446.77	4.034
446.97	5.844
447.17	5.876
447.37	5.643
447.57	5.439
447.77	5.230
447.98	5.129
448.18	5.933
448.38	5.182
448.58	5.635
448.78	5.509
448.98	5.807
449.18	4.116
449.39	4.946
449.59	5.247
449.79	4.731
449.99	4.379
450.19	5.035
450.39	5.077
450.59	5.240
450.79	4.424
451.00	5.718
451.20	5.739
451.40	4.053
451.60	3.595
451.80	5.289
452.00	4.580
452.20	4.839
452.40	3.925
452.61	5.160
452.81	4.099
453.01	4.739
453.21	4.114
453.41	4.862
453.61	4.143
453.81	4.530
454.01	4.073
454.21	5.134
454.42	4.774
454.62	4.910
454.82	4.665
455.02	3.891
455.22	3.247
455.42	4.385
455.62	3.270
455.82	4.418
456.02	4.399
456.23	4.396
456.43	4.429
456.63	4.106
456.83	2.930
457.03	4.851
457.23	3.933
457.43	4.234
457.63	3.786
457.83	4.232
458.03	3.324
458.23	4.241
458.43	3.195
458.64	4.199
458.84	3.522
459.04	4.400
459.24	4.454
459.44	4.103
459.64	4.905
459.84	5.376
460.04	4.665
460.24	5.443
460.44	5.262
460.64	5.613
460.84	4.618
461.04	6.148
461.24	5.723
461.45	6.275
461.65	6.053
461.85	6.183
462.05	5.035
462.25	5.646
462.45	5.680
462.65	4.801
462.85	3.373
463.05	5.301
463.25	3.382
463.45	4.848
463.65	3.975
463.85	5.166
464.05	4.739
464.25	4.402
464.45	5.027
464.65	3.729
464.85	3.533
465.05	4.420
465.26	4.469
465.46	5.293
465.66	5.141
465.86	4.664
466.06	4.166
466.26	4.561
466.46	4.209
466.66	4.020
466.86	4.043
467.06	4.548
467.26	4.088
467.46	4.839
467.66	4.407
467.86	4.681
468.06	5.001
468.26	4.151
468.46	4.265
468.66	4.474
468.86	3.437
469.06	4.968
469.26	3.663
469.46	4.043
469.66	3.912
469.86	4.684
470.06	4.426
470.26	5.538
470.46	3.409
470.66	5.784
470.86	3.942
471.06	4.000
471.26	3.386
471.46	3.459
471.66	4.165
471.86	3.846
472.06	4.018
472.26	5.352
472.46	4.959
472.66	4.672
472.86	3.737
473.06	4.214
473.26	3.725
473.46	3.864
473.66	3.863
473.86	4.890
474.06	3.815
474.26	4.903
474.46	3.513
474.66	4.554
474.86	4.940
475.06	4.537
475.26	2.716
475.46	4.964
475.66	3.244
475.86	4.558
476.06	4.562
476.26	4.673
476.46	4.284
476.66	4.847
476.86	3.125
477.06	4.647
477.26	3.649
477.46	4.220
477.65	3.666
477.85	5.238
478.05	3.154
478.25	5.540
478.45	3.720
478.65	4.494
478.85	4.438
479.05	4.686
479.25	4.041
479.45	5.435
479.65	3.906
479.85	4.640
480.05	3.995
480.25	5.452
480.45	4.680
480.65	5.505
480.85	4.280
481.05	6.470
481.25	5.502
481.44	5.313
481.64	3.588
481.84	6.081
482.04	5.015
482.24	5.865
482.44	4.039
482.64	5.463
482.84	5.638
483.04	6.221
483.24	5.781
483.44	6.535
483.64	6.077
483.84	6.457
484.04	6.644
484.23	6.594
484.43	6.764
484.63	7.566
484.83	7.629
485.03	8.215
485.23	7.670
485.43	7.894
485.63	7.794
485.83	7.470
486.03	7.237
486.23	7.302
486.42	7.085
486.62	7.183
486.82	6.904
487.02	7.060
487.22	6.496
487.42	7.156
487.62	6.663
487.82	7.100
488.02	6.837
488.22	7.060
488.41	6.547
488.61	6.941
488.81	6.776
489.01	7.062
489.21	7.064
489.41	7.285
489.61	6.972
489.81	7.402
490.01	7.041
490.20	7.215
490.40	6.862
490.60	6.970
490.80	6.585
491.00	6.876
491.20	6.311
491.40	6.822
491.60	6.187
491.79	6.460
491.99	6.515
492.19	6.552
492.39	6.533
492.59	6.932
492.79	6.842
492.99	6.759
493.19	6.902
493.38	7.048
493.58	7.025
493.78	6.859
493.98	7.163
494.18	7.154
494.38	6.167
494.58	6.924
494.77	4.897
494.97	6.191
495.17	5.127
495.37	5.888
495.57	5.525
495.77	5.814
495.96	5.497
496.16	5.313
496.36	5.086
496.56	6.106
496.76	4.219
496.96	5.120
497.15	5.424
497.35	6.082
497.55	5.625
497.75	5.553
497.95	5.053
498.15	6.256
498.34	5.984
498.54	6.052
498.74	5.838
498.94	6.161
499.14	5.347
499.34	6.903
499.53	5.920
499.73	6.269
499.93	5.287
500.13	5.926
500.33	4.646
500.52	5.479
500.72	5.583
500.92	4.951
501.12	4.816
501.32	5.244
501.52	5.531
501.71	5.555
501.91	4.405
502.11	5.133
502.31	4.538
502.51	5.628
502.70	4.536
502.90	5.300
503.10	4.370
503.30	6.044
503.50	5.266
503.69	5.538
503.89	5.441
504.09	5.887
504.29	5.038
504.48	5.764
504.68	5.932
504.88	5.895
505.08	4.288
505.28	5.959
505.47	5.013
505.67	7.098
505.87	5.288
506.07	5.582
506.27	5.305
506.46	6.148
506.66	5.155
506.86	5.680
507.06	6.656
507.25	6.010
507.45	5.283
507.65	6.338
507.85	4.900
508.04	6.267
508.24	6.047
508.44	6.182
508.64	5.174
508.83	6.680
509.03	5.690
509.23	6.529
509.43	5.854
509.63	6.796
509.82	5.865
510.02	6.416
510.22	6.300
510.42	7.102
510.61	6.644
510.81	6.784
511.01	6.747
511.21	6.621
511.40	6.069
511.60	7.263
511.80	6.431
511.99	7.083
512.19	6.369
512.39	7.475
512.59	6.646
512.78	7.101
512.98	6.671
513.18	6.965
513.38	6.220
513.57	7.136
513.77	6.771
513.97	7.243
514.17	6.297
514.36	6.877
514.56	6.522
514.76	7.108
514.95	5.499
515.15	7.124
515.35	5.415
515.55	6.587
515.74	6.662
515.94	7.529
516.14	5.983
516.33	7.890
516.53	6.090
516.73	5.978
516.93	6.074
517.12	7.490
517.32	5.778
517.52	7.336
517.71	6.369
517.91	6.797
518.11	6.984
518.30	7.078
518.50	6.319
518.70	7.811
518.90	7.327
519.09	7.734
519.29	7.546
519.49	8.154
519.68	6.901
519.88	8.278
520.08	7.858
520.27	7.653
520.47	7.223
520.67	8.231
520.86	7.995
521.06	8.732
521.26	6.434
521.45	7.801
521.65	7.406
521.85	7.310
522.04	7.044
522.24	7.981
522.44	6.879
522.63	7.685
522.83	6.791
523.03	7.379
523.22	6.725
523.42	8.109
523.62	7.299
523.81	7.761
524.01	7.716
524.21	7.339
524.40	6.623
524.60	7.479
524.80	6.600
524.99	8.147
525.19	7.092
525.39	8.062
525.58	7.220
525.78	8.390
525.98	7.893
526.17	8.501
526.37	7.806
526.57	8.309
526.76	7.975
526.96	8.475
527.15	8.273
527.35	8.260
527.55	8.213
527.74	8.583
527.94	8.313
528.14	8.177
528.33	8.253
528.53	8.344
528.72	8.237
528.92	8.401
529.12	8.696
529.31	8.623
529.51	8.774
529.71	9.043
529.90	9.083
530.10	8.991
530.29	8.896
530.49	9.247
530.69	9.000
530.88	9.177
531.08	9.111
531.28	9.161
531.47	9.162
531.67	9.008
531.86	8.618
532.06	9.059
532.26	8.375
532.45	9.082
532.65	8.741
532.84	8.749
533.04	8.562
533.24	8.305
533.43	8.615
533.63	8.688
533.82	8.742
534.02	8.828
534.22	8.817
534.41	8.822
534.61	9.029
534.80	8.970
535.00	9.045
535.19	9.539
535.39	9.521
535.59	9.460
535.78	9.039
535.98	9.074
536.17	8.754
536.37	8.879
536.57	8.443
536.76	9.469
536.96	8.963
537.15	9.395
537.35	8.557
537.54	9.266
537.74	9.043
537.93	9.543
538.13	8.707
538.33	9.277
538.52	9.293
538.72	10.005
538.91	8.763
539.11	9.224
539.30	8.961
539.50	9.588
539.70	9.380
539.89	9.797
540.09	8.683
540.28	9.280
540.48	8.307
540.67	9.606
540.87	8.833
541.06	9.523
541.26	8.960
541.45	9.300
541.65	9.588
541.85	9.521
542.04	9.558
542.24	10.091
542.43	9.680
542.63	9.858
542.82	10.095
543.02	10.026
543.21	9.824
543.41	10.388
543.60	10.121
543.80	10.387
543.99	10.507
544.19	10.063
544.38	9.866
544.58	10.185
544.77	9.803
544.97	10.603
545.16	9.456
545.36	10.606
545.56	10.295
545.75	10.032
545.95	9.301
546.14	10.703
546.34	9.574
546.53	9.888
546.73	10.051
546.92	10.266
547.12	9.570
547.31	10.272
547.51	9.848
547.70	10.665
547.90	10.083
548.09	10.582
548.29	10.687
548.48	10.895
548.68	10.729
548.87	11.164
549.07	11.031
549.26	10.866
549.46	10.365
549.65	11.474
549.84	10.195
550.04	10.308
550.23	9.633
550.43	9.705
550.62	10.246
550.82	10.528
551.01	8.804
551.21	10.873
551.40	9.497
551.60	10.547
551.79	9.168
551.99	10.981
552.18	9.756
552.38	11.198
552.57	10.182
552.77	11.103
552.96	10.125
553.16	11.826
553.35	10.835
553.54	11.534
553.74	11.221
553.93	11.344
554.13	11.060
554.32	12.289
554.52	11.343
554.71	11.974
554.91	11.332
555.10	11.864
555.29	10.928
555.49	11.448
555.68	10.676
555.88	12.171
556.07	10.294
556.27	12.132
556.46	11.092
556.66	11.498
556.85	11.682
557.04	12.583
557.24	11.570
557.43	13.149
557.63	11.700
557.82	12.474
558.02	11.566
558.21	12.691
558.40	11.708
558.60	13.407
558.79	11.589
558.99	13.160
559.18	12.470
559.38	13.252
559.57	12.543
559.76	13.023
559.96	14.014
560.15	13.179
560.35	11.641
560.54	13.368
560.73	12.021
560.93	14.241
561.12	13.051
561.32	14.442
561.51	13.948
561.70	14.374
561.90	13.519
562.09	14.636
562.29	13.847
562.48	15.383
562.67	13.183
562.87	14.744
563.06	13.357
563.26	14.210
563.45	14.083
563.64	14.370
563.84	14.422
564.03	15.278
564.23	15.219
564.42	16.089
564.61	14.735
564.81	14.610
565.00	15.728
565.20	15.551
565.39	15.906
565.58	15.616
565.78	15.654
565.97	16.357
566.16	16.276
566.36	16.398
566.55	16.401
566.74	15.703
566.94	16.416
567.13	16.742
567.33	15.916
567.52	16.288
567.71	17.199
567.91	16.801
568.10	16.815
568.29	17.498
568.49	16.476
568.68	17.208
568.87	16.711
569.07	18.314
569.26	16.458
569.45	17.049
569.65	16.913
569.84	16.563
570.04	17.363
570.23	16.871
570.42	16.635
570.62	16.932
570.81	16.504
571.00	18.278
571.20	17.497
571.39	18.233
571.58	17.808
571.78	17.777
571.97	17.953
572.16	17.909
572.36	17.689
572.55	17.515
572.74	17.746
572.94	17.592
573.13	18.614
573.32	18.266
573.51	18.458
573.71	18.527
573.90	18.082
574.09	18.092
574.29	18.342
574.48	17.553
574.67	17.580
574.87	18.256
575.06	17.700
575.25	18.396
575.45	17.975
575.64	18.519
575.83	17.463
576.03	18.877
576.22	17.911
576.41	18.736
576.60	18.183
576.80	18.149
576.99	18.241
577.18	19.125
577.38	18.049
577.57	18.516
577.76	18.907
577.95	19.037
578.15	17.597
578.34	18.394
578.53	16.807
578.73	18.688
578.92	17.483
579.11	18.427
579.30	18.522
579.50	17.427
579.69	18.111
579.88	18.556
580.08	16.985
580.27	19.008
580.46	17.985
580.65	18.969
580.85	17.048
581.04	18.252
581.23	16.849
581.42	18.176
581.62	17.823
581.81	17.491
582.00	16.949
582.19	18.426
582.39	18.093
582.58	17.161
582.77	17.255
582.96	17.248
583.16	16.846
583.35	18.107
583.54	18.522
583.73	17.901
583.93	18.383
584.12	18.369
584.31	16.072
584.50	18.502
584.70	16.786
584.89	17.080
585.08	16.129
585.27	17.544
585.47	16.413
585.66	18.182
585.85	16.198
586.04	17.237
586.24	17.272
586.43	16.135
586.62	15.131
586.81	18.454
587.00	16.460
587.20	16.922
587.39	15.703
587.58	17.083
587.77	16.473
587.97	17.221
588.16	16.912
588.35	17.683
588.54	16.893
588.73	17.097
588.93	16.040
589.12	16.752
589.31	16.386
589.50	15.972
589.69	16.537
589.89	17.388
590.08	16.362
590.27	17.755
590.46	16.778
590.65	17.114
590.85	16.291
591.04	18.123
591.23	15.782
591.42	17.529
591.61	16.253
591.81	17.877
592.00	15.642
592.19	16.969
592.38	16.988
592.57	17.479
592.77	16.011
592.96	16.747
593.15	16.983
593.34	17.306
593.53	16.293
593.72	16.776
593.92	16.412
594.11	17.847
594.30	15.981
594.49	17.948
594.68	17.437
594.87	18.203
595.07	15.772
595.26	17.499
595.45	17.289
595.64	18.313
595.83	16.694
596.02	18.451
596.22	17.102
596.41	17.887
596.60	17.558
596.79	18.346
596.98	17.711
597.17	18.655
597.37	17.834
597.56	17.674
597.75	17.485
597.94	18.476
598.13	19.038
598.32	18.235
598.51	17.308
598.71	19.109
598.90	17.604
599.09	18.696
599.28	17.387
599.47	18.638
599.66	17.562
599.85	17.965
600.05	17.316
600.24	19.059
600.43	17.966
600.62	18.129
600.81	18.186
601.00	17.736
601.19	17.205
601.38	17.086
601.58	18.984
601.77	17.885
601.96	18.581
602.15	19.004
602.34	19.007
602.53	18.725
602.72	17.824
602.91	19.491
603.10	18.727
603.30	18.369
603.49	17.995
603.68	19.584
603.87	18.266
604.06	18.835
604.25	18.440
604.44	18.703
604.63	18.514
604.82	18.979
605.01	19.427
605.21	19.317
605.40	18.936
605.59	19.979
605.78	19.185
605.97	19.007
606.16	19.804
606.35	19.539
606.54	19.517
606.73	20.273
606.92	17.816
607.11	20.694
607.30	18.795
607.50	19.203
607.69	18.532
607.88	19.648
608.07	19.138
608.26	19.289
608.45	18.278
608.64	19.463
608.83	16.994
609.02	19.027
609.21	18.671
609.40	19.557
609.59	18.316
609.78	18.483
609.97	17.875
610.16	19.444
610.35	18.608
610.55	18.975
610.74	18.346
610.93	18.691
611.12	17.500
611.31	18.675
611.50	16.550
611.69	18.525
611.88	17.923
612.07	18.938
612.26	15.867
612.45	18.414
612.64	16.874
612.83	18.008
613.02	16.238
613.21	16.537
613.40	16.523
613.59	17.084
613.78	14.827
613.97	16.903
614.16	15.219
614.35	17.374
614.54	13.666
614.73	15.929
614.92	16.086
615.11	16.294
615.30	13.793
615.49	16.036
615.68	14.776
615.87	15.936
616.07	15.362
616.26	14.915
616.45	15.755
616.64	15.434
616.83	15.528
617.02	16.613
617.21	12.394
617.40	14.674
617.59	15.309
617.78	16.288
617.97	14.292
618.16	14.243
618.35	12.612
618.54	14.622
618.73	14.622
618.92	14.792
619.11	12.742
619.30	15.855
619.49	12.752
619.68	15.209
619.86	11.881
620.05	14.163
620.24	12.964
620.43	13.592
620.62	12.104
620.81	14.383
621.00	13.754
621.19	15.010
621.38	13.509
621.57	15.060
621.76	13.377
621.95	14.741
622.14	13.210
622.33	16.505
622.52	11.429
622.71	14.434
622.90	12.122
623.09	14.490
623.28	12.294
623.47	15.078
623.66	12.859
623.85	12.523
624.04	12.510
624.23	13.140
624.42	12.836
624.61	12.956
624.80	11.839
624.99	14.595
625.18	12.320
625.36	13.866
625.55	12.722
625.74	12.913
625.93	12.208
626.12	13.987
626.31	14.843
626.50	14.083
626.69	13.056
626.88	14.862
627.07	13.666
627.26	14.231
627.45	14.538
627.64	13.613
627.83	14.499
628.02	13.922
628.20	12.461
628.39	14.954
628.58	12.889
628.77	14.423
628.96	13.135
629.15	14.180
629.34	12.777
629.53	14.177
629.72	12.384
629.91	14.207
630.10	11.880
630.29	13.658
630.47	12.202
630.66	12.816
630.85	12.440
631.04	13.418
631.23	12.454
631.42	14.126
631.61	12.276
631.80	15.925
631.99	11.569
632.18	12.278
632.36	10.633
632.55	13.545
632.74	11.543
632.93	13.002
633.12	11.715
633.31	13.009
633.50	12.402
633.69	12.563
633.88	10.306
634.06	12.601
634.25	10.973
634.44	11.807
634.63	12.003
634.82	13.233
635.01	10.797
635.20	13.483
635.39	10.604
635.57	12.495
635.76	11.885
635.95	11.202
636.14	9.682
636.33	13.019
636.52	11.910
636.71	11.111
636.89	11.642
637.08	12.282
637.27	11.464
637.46	11.560
637.65	11.598
637.84	12.099
638.03	10.556
638.21	12.802
638.40	12.322
638.59	11.480
638.78	10.655
638.97	12.153
639.16	12.555
639.34	12.267
639.53	9.711
639.72	11.876
639.91	9.295
640.10	10.176
640.29	11.686
640.47	13.614
640.66	10.670
640.85	13.370
641.04	8.584
641.23	11.803
641.42	10.845
641.60	10.840
641.79	10.917
641.98	10.248
642.17	9.664
642.36	11.014
642.54	9.940
642.73	9.998
642.92	8.246
643.11	8.637
643.30	9.406
643.49	11.105
643.67	8.943
643.86	10.492
644.05	10.630
644.24	10.831
644.43	9.695
644.61	11.838
644.80	8.863
644.99	11.463
645.18	11.882
645.37	11.103
645.55	9.273
645.74	11.992
645.93	10.432
646.12	11.170
646.31	10.245
646.49	10.874
646.68	10.461
646.87	11.423
647.06	9.913
647.24	10.476
647.43	8.051
647.62	11.293
647.81	8.318
648.00	11.026
648.18	9.002
648.37	10.120
648.56	8.843
648.75	11.045
648.93	9.688
649.12	10.798
649.31	10.575
649.50	8.878
649.68	8.697
649.87	10.608
650.06	10.015
650.25	10.378
650.43	8.755
650.62	9.179
650.81	10.179
651.00	9.534
651.18	8.894
651.37	12.700
651.56	8.605
651.75	11.411
651.93	8.221
652.12	11.346
652.31	9.938
652.50	9.990
652.68	10.963
652.87	11.574
653.06	10.751
653.25	10.253
653.43	10.315
653.62	10.060
653.81	9.882
654.00	11.046
654.18	9.036
654.37	10.578
654.56	10.092
654.74	6.649
654.93	9.188
655.12	7.939
655.31	7.771
655.49	9.457
655.68	7.155
655.87	8.463
656.05	6.566
656.24	6.458
656.43	7.812
656.62	8.270
656.80	8.312
656.99	7.107
657.18	6.990
657.36	8.189
657.55	7.694
657.74	8.593
657.93	7.957
658.11	10.477
658.30	8.212
658.49	7.264
658.67	7.635
658.86	5.618
659.05	6.931
659.23	7.767
659.42	6.397
659.61	9.819
659.79	7.425
659.98	7.627
660.17	8.590
660.35	9.023
660.54	8.189
660.73	9.052
660.91	8.677
661.10	8.608
661.29	6.253
661.47	7.513
661.66	5.726
661.85	6.840
662.03	7.363
662.22	5.096
662.41	5.553
662.59	6.819
662.78	6.521
662.97	6.163
663.15	5.158
663.34	5.246
663.53	5.470
663.71	5.687
663.90	6.108
664.09	6.194
664.27	4.969
664.46	6.606
664.65	6.157
664.83	5.080
665.02	5.155
665.21	5.281
665.39	4.262
665.58	6.411
665.77	4.695
665.95	5.054
666.14	4.941
666.32	5.943
666.51	6.027
666.70	4.468
666.88	4.978
667.07	4.292
667.26	4.130
667.44	4.320
667.63	5.742
667.81	3.890
668.00	5.452
668.19	7.318
668.37	4.520
668.56	6.281
668.75	4.904
668.93	6.280
669.12	4.181
669.30	5.522
669.49	4.862
669.68	6.575
669.86	4.790
670.05	4.155
670.23	4.836
670.42	3.762
670.61	5.138
670.79	4.970
670.98	6.080
671.16	6.764
671.35	4.873
671.54	6.774
671.72	6.418
671.91	5.957
672.09	4.255
672.28	7.115
672.46	6.597
672.65	6.994
672.84	4.927
673.02	6.579
673.21	3.797
673.39	5.324
673.58	5.594
673.77	5.865
673.95	6.351
674.14	7.269
674.32	3.819
674.51	8.254
674.69	5.240
674.88	5.994
675.07	5.125
675.25	7.337
675.44	7.642
675.62	6.925
675.81	5.969
675.99	8.820
676.18	7.543
676.36	5.449
676.55	8.345
676.74	8.238
676.92	7.791
677.11	6.448
677.29	6.316
677.48	8.146
677.66	7.909
677.85	7.453
678.03	7.595
678.22	6.271
678.40	6.004
678.59	4.905
678.78	5.720
678.96	4.888
679.15	7.099
679.33	7.280
679.52	7.392
679.70	7.704
679.89	6.549
680.07	7.058
680.26	6.522
680.44	6.307
680.63	6.023
680.81	5.723
681.00	5.145
681.18	5.475
681.37	6.472
681.55	7.376
681.74	6.421
681.92	8.007
682.11	7.548
682.29	6.693
682.48	8.072
682.66	8.564
682.85	7.072
683.03	8.803
683.22	8.592
683.40	9.060
683.59	8.499
683.77	8.151
683.96	5.524
684.14	9.585
684.33	6.068
684.51	12.129
684.70	7.567
684.88	11.894
685.07	8.043
685.25	8.572
685.44	7.155
685.62	9.292
685.81	7.282
685.99	8.805
686.18	7.438
686.36	8.146
686.55	6.399
686.73	9.255
686.92	10.563
687.10	10.811
687.29	12.232
687.47	11.542
687.65	10.103
687.84	9.705
688.02	11.689
688.21	14.389
688.39	9.085
688.58	12.430
688.76	10.992
688.95	10.423
689.13	10.264
689.32	12.926
689.50	12.187
689.68	12.837
689.87	12.123
690.05	13.039
690.24	14.401
690.42	14.430
690.61	13.047
690.79	15.176
690.98	12.740
691.16	12.824
691.34	10.382
691.53	14.460
691.71	12.264
691.90	14.926
692.08	12.079
692.27	17.024
692.45	15.713
692.63	13.028
692.82	16.917
693.00	17.142
693.19	16.434
693.37	19.992
693.56	18.156
693.74	19.206
693.92	16.175
694.11	19.873
694.29	17.989
694.48	19.536
694.66	19.381
694.84	20.900
695.03	18.193
695.21	23.835
695.40	21.096
695.58	25.346
695.76	19.705
695.95	25.171
696.13	20.923
696.32	25.955
696.50	28.382
696.68	25.337
696.87	22.312
697.05	27.696
697.24	27.219
697.42	30.166
697.60	24.108
697.79	28.291
697.97	28.780
698.16	29.940
698.34	27.428
698.52	31.822
698.71	29.575
698.89	31.946
699.07	31.707
699.26	31.914
699.44	32.713
699.63	33.901
699.81	32.636
699.99	34.283
700.18	34.705
700.36	33.836
700.54	33.109
700.73	34.039
700.91	31.823
701.09	34.062
701.28	35.451
701.46	33.409
701.64	32.205
701.83	34.087
702.01	33.933
702.20	37.533
702.38	33.613
702.56	35.370
702.75	32.325
702.93	35.906
703.11	32.273
703.30	34.825
703.48	33.496
703.66	37.919
703.85	33.349
704.03	38.010
704.21	37.214
704.40	37.571
704.58	34.643
704.76	36.727
704.95	35.046
705.13	39.592
705.31	35.670
705.50	40.378
705.68	36.977
705.86	41.567
706.04	38.599
706.23	39.296
706.41	34.187
706.59	39.670
706.78	34.688
706.96	41.865
707.14	40.648
707.33	39.825
707.51	39.808
707.69	41.394
707.88	40.251
708.06	39.220
708.24	39.042
708.42	43.541
708.61	40.174
708.79	41.811
708.97	42.952
709.16	41.544
709.34	44.181
709.52	42.659
709.71	40.522
709.89	41.636
710.07	38.704
710.25	43.595
710.44	40.779
710.62	41.244
710.80	40.131
710.98	42.462
711.17	39.789
711.35	44.993
711.53	40.829
711.72	41.246
711.90	44.743
712.08	45.869
712.26	40.837
712.45	46.521
712.63	42.436
712.81	42.352
712.99	42.348
713.18	44.947
713.36	42.711
713.54	42.652
713.72	41.640
713.91	44.194
714.09	42.048
714.27	44.339
714.45	43.912
714.64	46.328
714.82	40.715
715.00	45.677
715.18	44.574
715.37	46.551
715.55	41.626
715.73	44.902
715.91	42.707
716.10	46.302
716.28	39.511
716.46	44.350
716.64	41.570
716.83	44.381
717.01	43.144
717.19	44.906
717.37	43.492
717.55	43.101
717.74	38.290
717.92	43.819
718.10	41.791
718.28	44.944
718.47	39.683
718.65	44.874
718.83	41.975
719.01	44.910
719.19	42.236
719.38	39.183
719.56	36.105
719.74	42.466
719.92	38.640
720.10	41.193
720.29	40.858
720.47	41.976
720.65	40.356
720.83	44.524
721.01	38.443
721.20	41.806
721.38	39.835
721.56	44.364
721.74	44.717
721.92	46.091
722.11	39.874
722.29	41.176
722.47	39.032
722.65	43.476
722.83	45.232
723.01	40.915
723.20	44.524
723.38	45.416
723.56	43.354
723.74	46.366
723.92	43.545
724.10	46.381
724.29	37.946
724.47	45.128
724.65	41.253
724.83	48.040
725.01	37.745
725.19	45.942
725.38	37.321
725.56	44.157
725.74	41.195
725.92	45.684
726.10	38.578
726.28	42.747
726.46	43.159
726.65	46.565
726.83	39.192
727.01	43.559
727.19	39.076
727.37	45.325
727.55	42.646
727.73	43.646
727.92	44.612
728.10	42.661
728.28	38.507
728.46	44.057
728.64	43.914
728.82	45.575
729.00	42.940
729.19	46.629
729.37	42.832
729.55	44.618
729.73	39.380
729.91	46.541
730.09	43.642
730.27	45.680
730.45	41.771
730.63	47.251
730.82	42.965
731.00	48.402
731.18	42.221
731.36	47.907
731.54	40.330
731.72	45.202
731.90	45.277
732.08	43.263
732.26	46.181
732.45	46.990
732.63	43.801
732.81	49.164
732.99	46.742
733.17	47.173
733.35	46.281
733.53	47.783
733.71	45.599
733.89	48.725
734.07	48.041
734.25	47.069
734.44	45.130
734.62	50.290
734.80	44.534
734.98	52.205
735.16	45.801
735.34	49.658
735.52	50.260
735.70	47.688
735.88	47.304
736.06	46.590
736.24	48.391
736.42	46.859
736.60	50.668
736.78	47.518
736.97	45.819
737.15	51.100
737.33	43.039
737.51	48.190
737.69	46.671
737.87	45.296
738.05	47.350
738.23	48.190
738.41	46.640
738.59	46.279
738.77	47.173
738.95	55.291
739.13	46.862
739.31	48.637
739.49	47.027
739.67	52.294
739.85	44.452
740.03	53.604
740.21	48.947
740.39	52.051
740.57	48.132
740.75	49.894
740.93	47.626
741.11	46.154
741.30	48.860
741.48	52.814
741.66	47.325
741.84	53.343
742.02	49.329
742.20	50.797
742.38	53.828
742.56	57.264
742.74	49.124
742.92	46.497
743.10	41.648
743.28	50.077
743.46	49.683
743.64	55.493
743.82	47.364
744.00	53.468
744.18	52.446
744.36	48.720
744.54	47.399
744.72	55.021
744.90	51.987
745.08	55.902
745.26	47.797
745.44	52.394
745.62	48.870
745.80	52.778
745.98	53.163
746.16	53.631
746.34	48.042
746.52	54.654
746.70	48.854
746.87	52.518
747.05	48.564
747.23	52.721
747.41	51.703
747.59	55.145
747.77	46.684
747.95	54.059
748.13	47.232
748.31	54.926
748.49	49.760
748.67	51.521
748.85	46.019
749.03	56.997
749.21	49.082
749.39	54.056
749.57	41.208
749.75	51.775
749.93	47.644
750.11	52.269
750.29	44.690
750.47	52.867
750.65	49.123
750.83	48.453
751.01	47.167
751.18	51.054
751.36	41.015
751.54	56.190
751.72	49.324
751.90	47.332
752.08	49.420
752.26	49.640
752.44	46.135
752.62	49.916
752.80	47.260
752.98	52.596
753.16	51.385
753.34	53.226
753.52	48.110
753.69	50.929
753.87	49.910
754.05	52.219
754.23	49.408
754.41	49.831
754.59	46.224
754.77	53.107
754.95	48.534
755.13	52.277
755.31	46.356
755.49	48.118
755.66	48.091
755.84	54.898
756.02	44.941
756.20	56.518
756.38	48.125
756.56	48.765
756.74	51.038
756.92	51.113
757.10	47.956
757.28	55.666
757.45	53.131
757.63	49.692
757.81	49.096
757.99	53.026
758.17	49.818
758.35	53.152
758.53	44.435
758.71	52.525
758.88	42.162
759.06	48.511
759.24	47.951
759.42	46.028
759.60	38.704
759.78	42.329
759.96	38.600
760.13	43.583
760.31	33.993
760.49	36.620
760.67	30.131
760.85	32.932
761.03	30.970
761.21	34.494
761.38	24.839
761.56	33.643
761.74	32.206
761.92	39.544
762.10	27.280
762.28	35.832
762.46	25.945
762.63	29.506
762.81	36.335
762.99	32.445
763.17	33.358
763.35	34.490
763.53	29.932
763.70	40.534
763.88	40.195
764.06	40.451
764.24	36.546
764.42	40.506
764.60	36.839
764.77	39.212
764.95	37.291
765.13	44.702
765.31	40.229
765.49	43.189
765.66	38.081
765.84	38.693
766.02	40.464
766.20	48.000
766.38	40.529
766.56	46.007
766.73	35.320
766.91	43.680
767.09	43.546
767.27	47.868
767.45	43.392
767.62	47.378
767.80	40.277
767.98	43.003
768.16	39.339
768.33	49.016
768.51	42.779
768.69	48.273
768.87	41.707
769.05	47.316
769.22	43.256
769.40	52.282
769.58	42.189
769.76	51.566
769.94	41.870
770.11	47.415
770.29	45.812
770.47	41.309
770.65	48.344
770.82	48.901
771.00	47.580
771.18	48.430
771.36	47.172
771.53	48.778
771.71	49.089
771.89	53.357
772.07	43.088
772.25	52.457
772.42	43.510
772.60	53.017
772.78	50.683
772.96	54.172
773.13	49.100
773.31	50.290
773.49	50.495
773.67	44.956
773.84	53.341
774.02	49.621
774.20	51.229
774.37	47.937
774.55	44.487
774.73	50.060
774.91	44.589
775.08	46.594
775.26	49.560
775.44	50.000
775.62	44.192
775.79	48.254
775.97	39.583
776.15	44.578
776.32	51.664
776.50	53.009
776.68	44.167
776.86	51.647
777.03	48.220
777.21	52.306
777.39	50.000
777.56	45.839
777.74	46.465
777.92	52.318
778.10	46.005
778.27	47.476
778.45	49.730
778.63	50.373
778.80	45.140
778.98	54.702
779.16	46.891
779.34	46.803
779.51	48.379
779.69	54.558
779.87	46.566
780.04	46.444
780.22	46.629
780.40	46.154
780.57	50.857
780.75	52.640
780.93	52.693
781.10	50.140
781.28	57.848
781.46	46.233
781.63	47.851
781.81	55.093
781.99	48.799
782.16	47.567
782.34	36.484
782.52	45.087
782.69	45.185
782.87	43.484
783.05	44.813
783.22	46.899
783.40	46.154
783.58	52.880
783.75	49.926
783.93	46.498
784.11	47.179
784.28	47.741
784.46	45.238
784.64	47.742
784.81	40.156
784.99	58.255
785.17	46.034
785.34	44.343
785.52	40.735
785.69	45.441
785.87	42.114
786.05	45.743
786.22	42.556
786.40	53.140
786.58	53.787
786.75	52.308
786.93	45.210
787.11	44.462
787.28	46.288
787.46	51.556
787.63	45.455
787.81	42.667
787.99	41.679
788.16	46.112
788.34	36.324
788.51	46.434
788.69	48.300
788.87	40.189
789.04	40.161
789.22	35.239
789.39	42.303
789.57	37.437
789.75	43.946
789.92	41.278
790.10	40.439
790.27	46.263
790.45	35.112
790.63	46.559
790.80	36.207
790.98	38.824
791.15	44.006
791.33	42.590
791.51	35.623
791.68	52.515
791.86	41.311
792.03	41.640
792.21	34.012
792.39	42.789
792.56	45.946
792.74	40.323
792.91	42.809
793.09	42.147
793.26	44.391
793.44	54.173
793.62	42.379
793.79	40.361
793.97	47.876
794.14	48.246
794.32	43.239
794.49	53.598
794.67	28.916
794.84	42.399
795.02	43.289
795.20	50.575
795.37	39.893
795.55	38.475
795.72	45.888
795.90	44.930
796.07	45.172
796.25	45.559
796.42	38.358
796.60	32.810
796.77	46.582
796.95	39.205
797.13	42.787
797.30	40.206
797.48	34.231
797.65	40.206
797.83	35.303
798.00	43.143
798.18	36.335
798.35	36.350
798.53	35.993
798.70	38.154
798.88	45.391
799.05	43.914
799.23	38.298
799.40	34.522
799.58	45.396
799.75	40.234
799.93	39.071
800.10	42.817
800.28	46.734
800.45	43.193
800.63	44.498
800.80	44.648
800.98	39.664
801.15	39.669
801.33	37.586
801.50	44.020
801.68	42.215
801.85	40.972
802.03	43.841
802.20	48.148
802.38	39.478
802.55	42.997
802.73	47.602
802.90	29.329
803.08	40.687
803.25	45.403
803.43	43.925
803.60	45.521
803.78	40.536
803.95	34.251
804.13	40.034
804.30	43.182
804.48	35.094
804.65	48.031
804.83	34.893
805.00	38.394
805.17	41.598
805.35	43.462
805.52	43.190
805.70	40.957
805.87	43.838
806.05	44.522
806.22	39.163
806.40	37.385
806.57	37.106
806.75	52.612
806.92	43.199
807.09	42.857
807.27	35.687
807.44	47.426
807.62	39.197
807.79	38.220
807.97	40.832
808.14	41.217
808.31	36.450
808.49	38.889
808.66	46.154
808.84	33.398
809.01	47.140
809.19	37.747
809.36	48.247
809.53	42.418
809.71	40.198
809.88	50.835
810.06	48.609
810.23	42.324
810.41	41.957
810.58	41.651
810.75	37.938
810.93	34.978
811.10	37.996
811.28	53.143
811.45	42.387
811.62	36.028
811.80	38.964
811.97	41.928
812.15	46.943
812.32	44.444
812.49	41.841
812.67	35.234
812.84	33.403
813.02	30.000
813.19	37.996
813.36	50.893
813.54	36.303
813.71	42.344
813.89	40.246
814.06	51.188
814.23	43.488
814.41	37.111
814.58	45.570
814.75	52.899
814.93	41.071
815.10	39.810
815.28	44.231
815.45	39.573
815.62	41.176
815.80	30.357
815.97	36.160
816.14	41.627
816.32	40.447
816.49	31.178
816.66	39.258
816.84	34.064
817.01	35.491
817.18	31.347
817.36	33.117
817.53	50.773
817.71	36.682
817.88	31.723
818.05	26.327
818.23	30.243
818.40	31.818
818.57	34.437
818.75	39.666
818.92	36.611
819.09	30.072
819.27	33.092
819.44	33.693
819.61	28.517
819.79	38.060
819.96	40.165
820.13	27.341
820.31	33.272
820.48	28.371
820.65	34.114
820.82	34.000
821.00	31.395
821.17	27.701
821.34	35.339
821.52	30.189
821.69	31.456
821.86	25.348
822.04	36.017
822.21	33.014
822.38	36.766
822.56	33.732
822.73	39.919
822.90	35.821
823.07	39.584
823.25	37.987
823.42	37.186
823.59	36.478
823.77	39.390
823.94	40.400
824.11	41.375
824.29	36.990
824.46	40.270
824.63	38.610
824.80	39.872
824.98	36.951
825.15	35.637
825.32	32.806
825.49	39.171
825.67	34.556
825.84	37.376
826.01	29.167
826.19	32.891
826.36	24.022
826.53	35.479
826.70	32.886
826.88	33.905
827.05	30.238
827.22	31.517
827.39	29.121
827.57	33.262
827.74	30.113
827.91	34.748
828.08	24.899
828.26	32.503
828.43	27.746
828.60	35.340
828.77	29.541
828.95	34.669
829.12	28.667
829.29	25.822
829.46	34.828
829.64	25.883
829.81	27.273
829.98	37.276
830.15	33.231
830.32	27.361
830.50	30.943
830.67	36.364
830.84	28.571
831.01	29.838
831.19	36.760
831.36	30.906
831.53	25.277
831.70	33.458
831.87	32.480
832.05	38.125
832.22	36.743
832.39	31.840
832.56	36.830
832.74	27.533
832.91	31.089
833.08	32.738
833.25	20.192
833.42	30.397
833.60	29.085
833.77	20.544
833.94	25.956
834.11	23.035
834.28	31.801
834.45	28.788
834.63	25.056
834.80	25.026
834.97	27.094
835.14	30.918
835.31	27.751
835.49	30.491
835.66	26.752
835.83	29.449
836.00	33.609
836.17	27.345
836.34	29.132
836.52	29.781
836.69	28.047
836.86	36.969
837.03	33.011
837.20	34.380
837.37	31.229
837.55	30.443
837.72	38.900
837.89	29.176
838.06	39.696
838.23	38.958
838.40	38.802
838.58	27.604
838.75	40.057
838.92	43.284
839.09	55.030
839.26	55.667
839.43	45.171
839.60	49.355
839.78	49.730
839.95	61.598
840.12	45.266
840.29	37.778
840.46	47.368
840.63	36.010
840.80	34.783
840.98	43.902
841.15	48.223
841.32	33.773
841.49	34.684
841.66	51.099
841.83	41.832
842.00	40.633
842.17	46.729
842.34	37.859
842.52	48.607
842.69	45.548
842.86	21.711
843.03	36.897
843.20	43.673
843.37	41.265
843.54	53.755
843.71	39.009
843.88	46.360
844.06	62.931
844.23	61.017
844.40	50.602
844.57	59.926
844.74	66.092
844.91	67.521
845.08	52.632
845.25	56.132
845.42	73.707
845.59	59.402
845.76	41.393
845.94	69.231
846.11	38.000
846.28	63.942
846.45	85.976
846.62	65.152
846.79	62.273
846.96	59.596
847.13	65.775
847.30	60.417
847.47	93.976
847.64	67.358
847.81	47.317
847.98	82.353
848.15	76.282
848.32	87.912
848.50	66.406
848.67	76.042
848.84	73.184
849.01	59.259
849.18	51.695
849.35	88.387
849.52	57.310
849.69	66.667
849.86	74.490
850.03	68.750
850.20	106.329
850.37	51.163
850.54	61.905
850.71	77.301
850.88	63.429
851.05	91.503
851.22	81.176
851.39	68.627
851.56	52.667
851.73	64.249
851.90	92.727
852.07	82.031
852.24	67.052
852.41	81.752
852.58	75.419
852.75	59.036
852.92	72.308
853.09	89.560
853.26	93.056
853.43	74.863
853.60	66.165
853.77	79.699
853.94	80.000
854.11	70.330
854.28	77.778
854.45	77.640
854.62	81.132
854.79	68.047
854.96	113.750
855.13	50.279
855.30	70.701
855.47	62.308
855.64	55.556
855.81	66.667
855.98	69.725
856.15	62.983
856.32	80.769
856.49	101.342
856.66	93.966
856.83	88.550
857.00	55.689
857.17	117.647
857.34	73.973
857.51	102.655
857.68	78.161
857.85	67.204
858.02	76.503
858.19	74.483
858.36	80.114
858.53	74.658
858.70	91.736
858.87	65.625
859.04	71.613
859.21	83.766
859.38	61.714
859.55	70.629
859.72	74.843
859.89	102.239
860.05	98.101
860.22	55.191
860.39	85.417
860.56	95.980
860.73	65.318
860.90	89.041
861.07	94.853
861.24	89.147
861.41	86.634
861.58	61.326
861.75	84.252
861.92	74.834
862.09	62.879
862.26	98.718
862.43	77.301
862.59	61.957
862.76	104.545
862.93	113.580
863.10	78.182
863.27	73.377
863.44	104.040
863.61	54.110
863.78	95.313
863.95	74.872
864.12	83.333
864.29	72.626
864.45	77.640
864.62	61.714
864.79	60.284
864.96	104.464
865.13	77.907
865.30	79.048
865.47	78.462
865.64	133.663
865.81	61.878
865.97	46.448
866.14	81.771
866.31	60.526
866.48	62.687
866.65	53.623
866.82	90.000
866.99	84.475
867.16	116.807
867.33	90.141
867.49	77.778
867.66	85.093
867.83	75.000
868.00	49.749
868.17	98.387
868.34	113.014
868.51	87.619
868.67	90.196
868.84	112.397
869.01	67.778
869.18	75.000
869.35	92.025
869.52	53.125
869.69	75.148
869.85	65.027
870.02	62.162
870.19	96.454
870.36	60.870
870.53	67.769
870.70	109.167
870.86	98.214
871.03	71.975
871.20	67.822
871.37	83.226
871.54	92.593
871.71	29.070
871.87	66.412
872.04	71.859
872.21	83.815
872.38	109.286
872.55	104.255
872.72	48.792
872.88	55.975
873.05	59.119
873.22	55.952
873.39	58.125
873.56	72.515
873.72	63.866
873.89	104.819
874.06	83.117
874.23	63.924
874.40	101.835
874.56	62.500
874.73	100.847
874.90	50.000
875.07	80.392
875.24	47.953
875.40	100.769
875.57	64.925
875.74	96.795
875.91	57.353
876.08	75.510
876.24	67.273
876.41	84.000
876.58	70.175
876.75	34.884
876.92	77.019
877.08	85.380
877.25	49.333
877.42	71.812
877.59	90.964
877.75	82.353
877.92	100.826
878.09	90.400
878.26	63.077
878.42	63.636
878.59	67.416
878.76	62.500
878.93	86.782
879.09	73.446
879.26	60.140
879.43	70.647
879.60	74.257
879.76	66.495
879.93	66.275
880.10	31.818
880.27	37.872
880.43	37.736
880.60	53.409
880.77	24.424
880.94	52.649
881.10	36.120
881.27	37.101
881.44	29.574
881.61	35.931
881.77	29.940
881.94	34.951
882.11	17.901
882.28	17.256
882.44	22.668
882.61	23.510
882.78	27.597
882.94	30.911
883.11	29.938
883.28	25.463
883.45	27.827
883.61	26.174
883.78	23.218
883.95	23.464
884.11	21.382
884.28	23.040
>>>>>End Processed Spectral Data<<<<<
