SpectraSuite Data File
++++++++++++++++++++++++++++++++++++
Date: Sun Sep 22 03:22:33 EST 2019
User: sgrac
Dark Spectrum Present: Yes
Reference Spectrum Present: Yes
Number of Sampled Component Spectra: 1
Spectrometers: USB4E01596
Integration Time (usec): 100000 (USB4E01596)
Spectra Averaged: 1 (USB4E01596)
Boxcar Smoothing: 0 (USB4E01596)
Correct for Electrical Dark: No (USB4E01596)
Strobe/Lamp Enabled: Yes (USB4E01596)
Correct for Detector Non-linearity: No (USB4E01596)
Correct for Stray Light: No (USB4E01596)
Number of Pixels in Processed Spectrum: 3648
>>>>>Begin Processed Spectral Data<<<<<
178.44	835.714
178.66	835.714
178.87	835.714
179.09	-180.556
179.30	-555.556
179.52	254.839
179.74	10900.000
179.95	866.667
180.17	7200.000
180.38	214.815
180.60	-587.500
180.82	3150.000
181.03	-186.667
181.25	391.304
181.46	-207.143
181.68	-355.000
181.89	429.412
182.11	500.000
182.33	1385.714
182.54	279.310
182.76	800.000
182.97	-685.714
183.19	348.718
183.40	-328.571
183.62	237.037
183.84	328.571
184.05	11200.000
184.27	280.000
184.48	200.000
184.70	453.571
184.91	620.000
185.13	-5950.000
185.34	864.286
185.56	-528.571
185.78	323.333
185.99	258.824
186.21	326.087
186.42	2100.000
186.64	80.263
186.85	-433.333
187.07	346.875
187.28	-2350.000
187.50	928.571
187.72	772.727
187.93	-368.750
188.15	363.636
188.36	389.189
188.58	181.538
188.79	280.645
189.01	553.846
189.22	-1050.000
189.44	213.699
189.65	6550.000
189.87	2320.000
190.09	0.000
190.30	1200.000
190.52	-334.615
190.73	504.348
190.95	446.429
191.16	720.000
191.38	-969.231
191.59	9700.000
191.81	242.105
192.02	513.333
192.24	-4300.000
192.45	-606.667
192.67	322.917
192.88	134.848
193.10	7200.000
193.31	-378.571
193.53	1160.000
193.74	241.026
193.96	224.490
194.18	321.053
194.39	-1900.000
194.61	741.667
194.82	269.091
195.04	714.286
195.25	1110.000
195.47	-423.529
195.68	-364.286
195.90	221.875
196.11	730.769
196.33	207.407
196.54	342.424
196.76	1133.333
196.97	-700.000
197.19	807.143
197.40	433.333
197.62	339.394
197.83	-1137.500
198.05	2100.000
198.26	223.881
198.48	833.333
198.69	-463.636
198.91	-3266.667
199.12	422.857
199.34	175.926
199.55	647.368
199.77	-452.632
199.98	-953.846
200.20	228.889
200.41	286.842
200.63	293.878
200.84	-712.500
201.06	1960.000
201.27	545.833
201.49	-1342.857
201.70	0.000
201.91	525.000
202.13	285.417
202.34	344.444
202.56	818.182
202.77	282.759
202.99	-766.667
203.20	-788.889
203.42	182.895
203.63	302.778
203.85	201.887
204.06	500.000
204.28	733.333
204.49	-11400.000
204.71	305.405
204.92	403.333
205.14	495.455
205.35	390.476
205.56	165.306
205.78	1120.000
205.99	11600.000
206.21	823.529
206.42	186.667
206.64	2733.333
206.85	164.583
207.07	206.667
207.28	214.754
207.50	514.286
207.71	404.000
207.93	469.565
208.14	-840.000
208.35	-3200.000
208.57	1340.000
208.78	332.609
209.00	243.939
209.21	263.636
209.43	160.870
209.64	1262.500
209.86	272.727
210.07	653.846
210.28	475.000
210.50	282.500
210.71	297.872
210.93	656.250
211.14	-9600.000
211.36	270.000
211.57	-11500.000
211.78	-2875.000
212.00	415.789
212.21	910.000
212.43	191.489
212.64	672.727
212.86	393.103
213.07	-3650.000
213.29	258.333
213.50	-547.368
213.71	150.820
213.93	1180.000
214.14	657.143
214.36	923.077
214.57	504.545
214.78	188.312
215.00	174.286
215.21	472.222
215.43	472.000
215.64	-7200.000
215.86	1175.000
216.07	-892.308
216.28	840.000
216.50	-300.000
216.71	1960.000
216.93	588.235
217.14	-500.000
217.35	218.750
217.57	673.333
217.78	317.647
218.00	3766.667
218.21	190.566
218.42	1188.889
218.64	3166.667
218.85	1366.667
219.07	-777.778
219.28	-370.370
219.49	159.259
219.71	215.556
219.92	302.564
220.14	452.174
220.35	5650.000
220.56	200.000
220.78	250.000
220.99	-1566.667
221.21	0.000
221.42	389.655
221.63	1081.818
221.85	206.780
222.06	214.286
222.28	310.345
222.49	350.000
222.70	1120.000
222.92	314.000
223.13	138.333
223.34	-741.667
223.56	209.091
223.77	234.043
223.99	608.333
224.20	173.171
224.41	320.455
224.63	150.667
224.84	334.483
225.05	225.397
225.27	210.145
225.48	174.000
225.69	200.000
225.91	144.444
226.12	195.775
226.34	85.437
226.55	110.145
226.76	77.193
226.98	153.947
227.19	172.581
227.40	284.375
227.62	120.000
227.83	86.486
228.04	93.814
228.26	78.512
228.47	120.732
228.69	66.864
228.90	38.824
229.11	56.904
229.33	57.143
229.54	23.322
229.75	46.269
229.97	36.036
230.18	33.795
230.39	22.424
230.61	31.153
230.82	44.970
231.03	22.086
231.25	39.721
231.46	38.835
231.67	40.909
231.89	24.444
232.10	36.194
232.31	35.593
232.53	44.872
232.74	37.917
232.95	46.305
233.17	44.141
233.38	33.702
233.59	58.462
233.81	42.000
234.02	52.381
234.23	22.477
234.45	70.053
234.66	41.121
234.87	50.685
235.09	65.327
235.30	41.463
235.51	50.431
235.73	47.308
235.94	44.776
236.15	57.430
236.36	58.736
236.58	30.216
236.79	42.248
237.00	37.809
237.22	45.752
237.43	41.150
237.64	41.593
237.86	22.124
238.07	45.775
238.28	64.516
238.50	39.711
238.71	53.552
238.92	43.554
239.13	33.466
239.35	57.895
239.56	42.017
239.77	42.424
239.99	39.259
240.20	36.337
240.41	21.930
240.63	36.095
240.84	44.643
241.05	32.024
241.26	30.000
241.48	22.115
241.69	28.345
241.90	20.665
242.12	25.053
242.33	20.471
242.54	18.122
242.75	19.336
242.97	15.565
243.18	15.756
243.39	13.908
243.61	14.533
243.82	16.627
244.03	14.447
244.24	12.900
244.46	16.534
244.67	15.918
244.88	18.268
245.09	16.152
245.31	21.405
245.52	18.576
245.73	16.195
245.95	25.352
246.16	21.028
246.37	19.551
246.58	17.091
246.80	15.869
247.01	11.705
247.22	9.794
247.43	9.133
247.65	9.539
247.86	13.256
248.07	8.704
248.28	5.744
248.50	8.349
248.71	8.374
248.92	6.827
249.13	10.110
249.35	9.055
249.56	8.081
249.77	7.549
249.98	9.622
250.20	10.356
250.41	10.010
250.62	17.410
250.83	16.213
251.05	15.847
251.26	17.697
251.47	19.704
251.68	19.079
251.90	15.562
252.11	16.893
252.32	15.750
252.53	16.740
252.75	12.500
252.96	15.334
253.17	12.651
253.38	14.625
253.59	9.445
253.81	14.010
254.02	10.427
254.23	15.963
254.44	13.476
254.66	10.224
254.87	15.068
255.08	21.531
255.29	25.655
255.50	25.465
255.72	14.370
255.93	19.331
256.14	8.894
256.35	24.266
256.57	24.900
256.78	14.925
256.99	30.566
257.20	34.517
257.41	22.612
257.63	13.981
257.84	23.037
258.05	24.961
258.26	15.373
258.47	12.882
258.69	10.570
258.90	13.061
259.11	11.593
259.32	13.508
259.53	6.907
259.75	11.765
259.96	5.982
260.17	8.260
260.38	9.257
260.59	9.428
260.81	8.184
261.02	6.508
261.23	5.699
261.44	7.093
261.65	7.186
261.87	3.844
262.08	4.372
262.29	5.872
262.50	6.545
262.71	8.026
262.92	9.356
263.14	8.504
263.35	10.009
263.56	7.128
263.77	13.608
263.98	12.043
264.20	14.078
264.41	10.011
264.62	11.136
264.83	18.002
265.04	7.440
265.25	19.144
265.47	11.475
265.68	12.682
265.89	9.710
266.10	13.371
266.31	15.182
266.52	19.501
266.74	11.164
266.95	13.444
267.16	13.347
267.37	10.521
267.58	10.134
267.79	7.261
268.01	7.274
268.22	11.247
268.43	9.298
268.64	9.123
268.85	8.876
269.06	7.623
269.27	10.381
269.49	6.458
269.70	9.741
269.91	6.714
270.12	8.284
270.33	8.408
270.54	9.364
270.75	11.396
270.97	10.457
271.18	13.178
271.39	4.955
271.60	8.319
271.81	6.245
272.02	9.002
272.23	9.111
272.45	9.348
272.66	6.496
272.87	8.450
273.08	3.833
273.29	5.677
273.50	6.214
273.71	5.791
273.92	3.851
274.14	9.527
274.35	6.578
274.56	6.030
274.77	5.982
274.98	7.113
275.19	7.006
275.40	10.886
275.61	5.620
275.83	11.048
276.04	10.871
276.25	12.739
276.46	5.301
276.67	10.080
276.88	7.334
277.09	7.374
277.30	7.447
277.51	8.411
277.73	11.171
277.94	6.616
278.15	6.556
278.36	11.008
278.57	8.622
278.78	8.703
278.99	9.083
279.20	11.120
279.41	15.444
279.62	3.636
279.84	11.943
280.05	9.596
280.26	11.030
280.47	9.129
280.68	13.600
280.89	9.098
281.10	9.291
281.31	11.094
281.52	10.838
281.73	8.028
281.94	5.621
282.16	7.763
282.37	9.939
282.58	7.872
282.79	8.948
283.00	10.988
283.21	9.476
283.42	9.677
283.63	10.186
283.84	7.289
284.05	6.762
284.26	8.078
284.47	7.248
284.68	7.846
284.89	8.934
285.11	8.519
285.32	8.593
285.53	7.176
285.74	5.654
285.95	7.420
286.16	5.357
286.37	7.179
286.58	6.080
286.79	3.658
287.00	6.502
287.21	4.516
287.42	4.202
287.63	4.977
287.84	5.652
288.05	7.110
288.26	6.674
288.48	9.076
288.69	8.464
288.90	5.431
289.11	7.638
289.32	8.373
289.53	5.493
289.74	7.247
289.95	4.976
290.16	4.097
290.37	8.545
290.58	7.905
290.79	4.842
291.00	4.233
291.21	5.325
291.42	7.944
291.63	6.548
291.84	5.857
292.05	4.806
292.26	5.908
292.47	4.538
292.68	7.143
292.89	5.398
293.10	7.326
293.31	8.524
293.52	8.935
293.73	7.532
293.94	4.704
294.15	6.416
294.36	7.380
294.57	11.804
294.79	6.720
295.00	4.969
295.21	5.737
295.42	6.055
295.63	4.448
295.84	4.496
296.05	7.684
296.26	4.836
296.47	4.160
296.68	4.297
296.89	5.114
297.10	5.659
297.31	7.181
297.52	4.143
297.73	4.558
297.94	4.286
298.15	4.386
298.36	4.668
298.57	5.808
298.78	4.952
298.99	4.469
299.20	2.844
299.41	3.321
299.62	3.770
299.83	5.275
300.04	3.095
300.25	5.024
300.46	4.527
300.67	5.861
300.88	5.328
301.09	4.464
301.30	6.434
301.50	5.682
301.71	7.624
301.92	9.291
302.13	4.948
302.34	7.443
302.55	3.815
302.76	7.430
302.97	3.320
303.18	7.096
303.39	7.079
303.60	5.039
303.81	5.943
304.02	5.138
304.23	5.889
304.44	5.447
304.65	6.210
304.86	8.847
305.07	7.789
305.28	6.819
305.49	7.008
305.70	6.914
305.91	4.533
306.12	4.651
306.33	5.672
306.54	5.034
306.75	5.786
306.96	8.148
307.17	6.529
307.38	6.663
307.58	6.137
307.79	5.913
308.00	3.362
308.21	7.344
308.42	6.752
308.63	8.294
308.84	4.383
309.05	6.644
309.26	6.641
309.47	4.205
309.68	7.614
309.89	5.015
310.10	7.154
310.31	6.893
310.52	6.316
310.73	4.657
310.94	3.913
311.14	5.208
311.35	3.731
311.56	6.469
311.77	5.575
311.98	3.034
312.19	5.523
312.40	4.039
312.61	5.175
312.82	3.319
313.03	7.281
313.24	6.121
313.45	5.403
313.66	4.993
313.86	3.226
314.07	6.131
314.28	6.723
314.49	6.688
314.70	3.869
314.91	4.826
315.12	5.546
315.33	6.285
315.54	5.418
315.75	4.030
315.96	3.495
316.16	5.171
316.37	6.476
316.58	5.832
316.79	6.720
317.00	7.372
317.21	5.286
317.42	8.136
317.63	5.918
317.84	5.346
318.05	7.434
318.25	7.733
318.46	5.656
318.67	5.493
318.88	4.121
319.09	3.915
319.30	5.251
319.51	8.860
319.72	5.487
319.93	4.328
320.13	7.299
320.34	7.013
320.55	6.299
320.76	9.044
320.97	6.250
321.18	7.782
321.39	6.550
321.60	3.108
321.80	5.446
322.01	6.794
322.22	6.822
322.43	8.019
322.64	8.284
322.85	6.675
323.06	6.534
323.27	4.965
323.47	8.542
323.68	6.818
323.89	5.638
324.10	7.811
324.31	4.906
324.52	6.215
324.73	6.004
324.93	6.673
325.14	6.399
325.35	7.136
325.56	5.569
325.77	7.849
325.98	5.589
326.19	2.714
326.39	5.286
326.60	6.140
326.81	3.216
327.02	4.552
327.23	4.748
327.44	5.231
327.64	4.586
327.85	3.640
328.06	3.467
328.27	7.275
328.48	5.814
328.69	5.123
328.90	6.973
329.10	5.487
329.31	4.598
329.52	5.176
329.73	5.316
329.94	5.519
330.15	7.929
330.35	4.283
330.56	6.035
330.77	3.937
330.98	7.933
331.19	4.865
331.39	7.479
331.60	7.032
331.81	5.669
332.02	6.498
332.23	6.927
332.44	4.458
332.64	5.659
332.85	5.046
333.06	6.780
333.27	5.788
333.48	6.728
333.68	5.619
333.89	4.534
334.10	4.206
334.31	6.803
334.52	5.407
334.72	4.986
334.93	4.935
335.14	6.091
335.35	5.205
335.56	3.856
335.76	3.506
335.97	4.324
336.18	5.855
336.39	4.757
336.60	4.760
336.80	5.233
337.01	3.365
337.22	6.127
337.43	5.697
337.64	3.388
337.84	4.795
338.05	6.873
338.26	7.404
338.47	5.721
338.68	4.130
338.88	5.615
339.09	5.126
339.30	5.290
339.51	2.189
339.71	5.073
339.92	5.675
340.13	5.893
340.34	5.253
340.55	5.605
340.75	5.090
340.96	3.780
341.17	7.389
341.38	4.374
341.58	6.289
341.79	4.591
342.00	5.229
342.21	8.177
342.41	3.959
342.62	5.658
342.83	3.098
343.04	2.474
343.24	4.359
343.45	6.359
343.66	6.842
343.87	5.608
344.07	5.662
344.28	3.752
344.49	4.382
344.70	4.949
344.90	4.684
345.11	6.245
345.32	4.730
345.53	4.697
345.73	6.751
345.94	6.407
346.15	4.080
346.36	5.107
346.56	6.076
346.77	5.428
346.98	6.292
347.19	5.718
347.39	3.586
347.60	4.978
347.81	6.426
348.02	5.622
348.22	3.749
348.43	4.239
348.64	3.682
348.84	5.992
349.05	4.793
349.26	6.756
349.47	6.784
349.67	6.519
349.88	4.801
350.09	5.182
350.30	7.174
350.50	5.731
350.71	5.076
350.92	4.902
351.12	6.566
351.33	5.064
351.54	6.814
351.74	5.465
351.95	5.188
352.16	5.061
352.37	6.294
352.57	5.971
352.78	5.265
352.99	5.997
353.19	3.691
353.40	4.854
353.61	7.047
353.82	6.711
354.02	4.213
354.23	3.241
354.44	6.027
354.64	5.782
354.85	4.052
355.06	5.398
355.26	3.146
355.47	5.568
355.68	5.935
355.88	6.903
356.09	6.340
356.30	4.204
356.51	5.336
356.71	4.173
356.92	3.812
357.13	6.437
357.33	5.277
357.54	5.180
357.75	3.144
357.95	5.344
358.16	5.680
358.37	6.350
358.57	4.706
358.78	6.210
358.99	4.497
359.19	5.864
359.40	5.076
359.61	4.765
359.81	6.305
360.02	5.201
360.23	4.885
360.43	4.895
360.64	4.922
360.85	4.060
361.05	3.757
361.26	6.007
361.47	4.553
361.67	5.667
361.88	3.753
362.09	4.658
362.29	4.017
362.50	3.527
362.70	3.382
362.91	4.781
363.12	4.061
363.32	4.659
363.53	4.626
363.74	5.640
363.94	3.609
364.15	5.969
364.36	5.245
364.56	4.113
364.77	5.929
364.98	6.259
365.18	5.021
365.39	5.845
365.59	3.714
365.80	3.879
366.01	6.618
366.21	4.344
366.42	3.617
366.63	5.900
366.83	5.901
367.04	4.566
367.24	5.574
367.45	4.290
367.66	5.513
367.86	5.733
368.07	5.761
368.28	4.224
368.48	4.786
368.69	4.663
368.89	4.957
369.10	5.218
369.31	3.336
369.51	4.713
369.72	8.182
369.92	5.618
370.13	5.350
370.34	7.070
370.54	3.643
370.75	6.766
370.95	4.792
371.16	4.762
371.37	5.180
371.57	3.966
371.78	5.195
371.98	3.949
372.19	5.204
372.40	5.057
372.60	4.392
372.81	4.591
373.01	3.123
373.22	5.274
373.43	4.392
373.63	4.636
373.84	4.893
374.04	4.891
374.25	6.363
374.46	4.922
374.66	5.782
374.87	6.206
375.07	2.982
375.28	4.596
375.48	5.141
375.69	5.518
375.90	3.113
376.10	3.916
376.31	4.167
376.51	4.807
376.72	3.608
376.92	4.329
377.13	5.001
377.34	5.475
377.54	4.687
377.75	5.583
377.95	3.748
378.16	4.425
378.36	4.281
378.57	4.798
378.77	5.716
378.98	5.143
379.19	4.537
379.39	3.699
379.60	3.568
379.80	3.905
380.01	5.191
380.21	3.557
380.42	5.180
380.62	4.299
380.83	5.583
381.04	4.620
381.24	6.058
381.45	4.617
381.65	4.047
381.86	4.262
382.06	4.800
382.27	1.894
382.47	3.477
382.68	4.889
382.88	4.030
383.09	3.889
383.29	3.630
383.50	5.639
383.71	4.636
383.91	3.263
384.12	3.151
384.32	4.647
384.53	4.256
384.73	3.656
384.94	3.420
385.14	3.708
385.35	1.278
385.55	3.734
385.76	3.668
385.96	3.468
386.17	4.418
386.37	3.969
386.58	2.654
386.78	4.448
386.99	2.967
387.19	4.422
387.40	3.134
387.60	4.048
387.81	3.322
388.01	3.957
388.22	4.105
388.42	3.975
388.63	4.486
388.83	3.696
389.04	2.996
389.24	2.738
389.45	4.120
389.65	3.570
389.86	3.494
390.06	3.278
390.27	4.063
390.47	4.691
390.68	3.598
390.88	4.628
391.09	4.067
391.29	4.903
391.50	4.254
391.70	3.874
391.91	3.667
392.11	2.465
392.32	4.225
392.52	4.095
392.73	4.078
392.93	3.319
393.14	3.347
393.34	3.445
393.55	3.675
393.75	3.531
393.95	3.424
394.16	3.829
394.36	3.110
394.57	3.994
394.77	3.999
394.98	3.296
395.18	3.706
395.39	3.140
395.59	3.826
395.80	3.149
396.00	4.162
396.21	3.157
396.41	3.324
396.61	3.370
396.82	4.095
397.02	4.687
397.23	4.908
397.43	2.731
397.64	3.503
397.84	4.647
398.05	3.000
398.25	4.180
398.45	2.805
398.66	3.704
398.86	3.238
399.07	4.880
399.27	3.497
399.48	3.628
399.68	2.753
399.89	3.104
400.09	4.558
400.29	2.583
400.50	3.992
400.70	3.634
400.91	3.771
401.11	3.285
401.32	3.517
401.52	2.895
401.72	4.165
401.93	4.229
402.13	2.795
402.34	3.446
402.54	3.601
402.75	4.634
402.95	3.610
403.15	5.087
403.36	3.050
403.56	3.944
403.77	3.569
403.97	3.095
404.17	3.205
404.38	3.572
404.58	2.540
404.79	4.284
404.99	3.337
405.19	2.721
405.40	3.453
405.60	3.530
405.81	3.034
406.01	3.845
406.21	2.871
406.42	2.737
406.62	3.388
406.83	2.935
407.03	3.724
407.23	1.953
407.44	3.653
407.64	2.669
407.85	3.299
408.05	2.914
408.25	3.116
408.46	4.163
408.66	4.200
408.87	2.808
409.07	3.101
409.27	3.075
409.48	3.231
409.68	3.529
409.88	3.233
410.09	2.845
410.29	3.852
410.50	3.980
410.70	3.223
410.90	2.734
411.11	3.414
411.31	3.571
411.51	3.588
411.72	3.482
411.92	3.075
412.12	3.453
412.33	3.290
412.53	2.454
412.74	2.543
412.94	2.509
413.14	3.238
413.35	3.033
413.55	3.264
413.75	4.906
413.96	2.495
414.16	3.589
414.36	2.953
414.57	3.322
414.77	2.469
414.97	3.243
415.18	2.823
415.38	2.498
415.58	2.624
415.79	3.127
415.99	3.832
416.19	3.372
416.40	3.229
416.60	2.104
416.80	3.401
417.01	2.495
417.21	2.454
417.41	3.939
417.62	3.481
417.82	3.014
418.02	2.668
418.23	3.602
418.43	2.257
418.63	3.514
418.84	3.048
419.04	2.688
419.24	3.359
419.45	3.353
419.65	3.493
419.85	2.685
420.06	3.083
420.26	3.752
420.46	2.669
420.67	3.382
420.87	3.133
421.07	3.712
421.28	2.811
421.48	3.323
421.68	2.777
421.88	3.864
422.09	3.302
422.29	3.329
422.49	2.334
422.70	3.085
422.90	3.398
423.10	2.988
423.31	2.922
423.51	3.610
423.71	2.481
423.91	3.085
424.12	2.947
424.32	3.217
424.52	3.708
424.73	3.071
424.93	3.592
425.13	2.859
425.33	2.637
425.54	3.014
425.74	2.961
425.94	3.399
426.15	2.867
426.35	2.543
426.55	2.556
426.75	2.868
426.96	3.062
427.16	2.843
427.36	3.219
427.57	3.812
427.77	2.570
427.97	3.087
428.17	3.312
428.38	2.868
428.58	2.485
428.78	2.730
428.98	3.015
429.19	2.302
429.39	2.936
429.59	2.640
429.79	2.048
430.00	3.006
430.20	2.848
430.40	3.372
430.60	2.357
430.81	3.322
431.01	2.572
431.21	2.963
431.41	2.744
431.62	3.356
431.82	2.489
432.02	3.572
432.22	2.628
432.43	1.995
432.63	2.627
432.83	2.935
433.03	2.119
433.24	2.960
433.44	2.652
433.64	2.713
433.84	2.747
434.05	2.956
434.25	2.198
434.45	3.444
434.65	2.852
434.85	2.939
435.06	2.954
435.26	2.795
435.46	2.781
435.66	2.828
435.87	2.329
436.07	2.576
436.27	2.649
436.47	2.793
436.67	1.978
436.88	2.488
437.08	2.933
437.28	2.824
437.48	2.372
437.69	2.823
437.89	1.931
438.09	3.975
438.29	2.668
438.49	3.074
438.70	3.599
438.90	2.137
439.10	2.755
439.30	2.634
439.50	2.032
439.71	3.033
439.91	2.565
440.11	3.201
440.31	2.603
440.51	2.443
440.72	2.528
440.92	2.913
441.12	2.749
441.32	3.612
441.52	2.692
441.72	3.180
441.93	3.335
442.13	2.994
442.33	2.390
442.53	3.359
442.73	1.842
442.94	3.272
443.14	2.959
443.34	3.858
443.54	2.911
443.74	3.114
443.94	2.330
444.15	2.224
444.35	2.385
444.55	2.943
444.75	3.176
444.95	2.971
445.15	3.191
445.36	2.674
445.56	1.908
445.76	2.610
445.96	2.485
446.16	2.279
446.36	2.013
446.57	2.684
446.77	2.229
446.97	2.514
447.17	3.265
447.37	2.646
447.57	3.085
447.77	2.863
447.98	2.410
448.18	3.578
448.38	2.591
448.58	2.667
448.78	2.580
448.98	2.581
449.18	2.036
449.39	2.427
449.59	3.066
449.79	2.384
449.99	2.057
450.19	2.885
450.39	3.250
450.59	3.032
450.79	2.735
451.00	3.243
451.20	3.922
451.40	2.170
451.60	2.494
451.80	2.858
452.00	2.486
452.20	2.232
452.40	2.586
452.61	3.348
452.81	1.776
453.01	2.814
453.21	2.506
453.41	2.943
453.61	3.056
453.81	2.071
454.01	2.638
454.21	2.765
454.42	2.741
454.62	2.813
454.82	2.327
455.02	2.332
455.22	1.693
455.42	2.792
455.62	1.964
455.82	2.502
456.02	2.628
456.23	2.549
456.43	2.725
456.63	2.717
456.83	2.073
457.03	2.702
457.23	2.593
457.43	2.670
457.63	2.130
457.83	1.935
458.03	2.195
458.23	2.408
458.43	1.713
458.64	2.198
458.84	2.329
459.04	2.579
459.24	2.775
459.44	2.131
459.64	2.624
459.84	2.304
460.04	2.289
460.24	2.848
460.44	2.624
460.64	2.855
460.84	2.189
461.04	3.113
461.24	2.693
461.45	3.630
461.65	3.420
461.85	2.805
462.05	2.521
462.25	2.939
462.45	2.913
462.65	2.328
462.85	1.923
463.05	2.553
463.25	2.516
463.45	2.477
463.65	2.202
463.85	3.193
464.05	2.346
464.25	2.675
464.45	2.806
464.65	2.235
464.85	2.426
465.05	2.181
465.26	2.804
465.46	3.109
465.66	3.015
465.86	2.954
466.06	2.344
466.26	2.677
466.46	2.058
466.66	1.854
466.86	2.759
467.06	2.181
467.26	2.591
467.46	2.696
467.66	2.579
467.86	2.583
468.06	2.757
468.26	2.114
468.46	2.508
468.66	2.167
468.86	2.021
469.06	2.968
469.26	2.281
469.46	2.391
469.66	2.383
469.86	2.781
470.06	2.276
470.26	3.046
470.46	1.861
470.66	3.272
470.86	2.342
471.06	2.424
471.26	1.681
471.46	1.409
471.66	2.076
471.86	2.250
472.06	2.481
472.26	3.611
472.46	3.537
472.66	2.728
472.86	2.483
473.06	2.499
473.26	2.242
473.46	2.073
473.66	2.575
473.86	3.175
474.06	2.351
474.26	2.871
474.46	2.058
474.66	2.013
474.86	3.282
475.06	2.607
475.26	2.046
475.46	3.038
475.66	1.651
475.86	2.193
476.06	2.947
476.26	3.145
476.46	2.415
476.66	2.485
476.86	2.058
477.06	2.738
477.26	2.505
477.46	1.619
477.65	2.140
477.85	2.183
478.05	2.129
478.25	3.281
478.45	2.039
478.65	2.425
478.85	2.297
479.05	2.240
479.25	2.289
479.45	3.218
479.65	2.145
479.85	2.023
480.05	2.040
480.25	3.186
480.45	2.601
480.65	2.857
480.85	2.173
481.05	3.352
481.25	2.983
481.44	2.447
481.64	1.900
481.84	3.506
482.04	2.627
482.24	3.145
482.44	2.016
482.64	2.589
482.84	2.843
483.04	3.316
483.24	3.104
483.44	3.521
483.64	3.264
483.84	3.691
484.04	3.714
484.23	4.011
484.43	3.992
484.63	4.746
484.83	4.569
485.03	5.218
485.23	5.026
485.43	5.363
485.63	4.792
485.83	4.828
486.03	4.214
486.23	4.830
486.42	4.125
486.62	4.579
486.82	3.168
487.02	4.027
487.22	3.109
487.42	4.336
487.62	3.763
487.82	3.833
488.02	3.594
488.22	4.565
488.41	3.751
488.61	4.218
488.81	3.906
489.01	4.331
489.21	4.246
489.41	4.515
489.61	4.210
489.81	4.701
490.01	4.230
490.20	4.131
490.40	3.873
490.60	4.059
490.80	3.633
491.00	4.248
491.20	3.229
491.40	3.335
491.60	3.346
491.79	3.540
491.99	3.610
492.19	3.660
492.39	3.747
492.59	4.128
492.79	4.076
492.99	4.083
493.19	3.844
493.38	4.143
493.58	3.698
493.78	3.877
493.98	4.210
494.18	3.810
494.38	3.653
494.58	3.962
494.77	2.356
494.97	3.292
495.17	2.210
495.37	2.982
495.57	3.057
495.77	2.722
495.96	3.230
496.16	2.561
496.36	2.912
496.56	3.474
496.76	2.204
496.96	2.898
497.15	2.728
497.35	3.437
497.55	2.770
497.75	2.914
497.95	2.297
498.15	3.363
498.34	2.857
498.54	2.610
498.74	3.439
498.94	3.234
499.14	2.287
499.34	3.308
499.53	2.638
499.73	3.163
499.93	2.710
500.13	3.038
500.33	2.293
500.52	3.069
500.72	2.859
500.92	2.494
501.12	2.604
501.32	2.324
501.52	2.959
501.71	3.139
501.91	2.621
502.11	2.566
502.31	2.709
502.51	2.848
502.70	2.606
502.90	2.680
503.10	2.536
503.30	3.271
503.50	3.621
503.69	2.808
503.89	2.894
504.09	2.894
504.29	2.861
504.48	2.597
504.68	3.319
504.88	3.436
505.08	1.869
505.28	2.363
505.47	2.927
505.67	3.767
505.87	2.553
506.07	2.270
506.27	2.772
506.46	3.203
506.66	3.032
506.86	2.619
507.06	3.737
507.25	3.068
507.45	3.127
507.65	3.742
507.85	2.346
508.04	3.390
508.24	3.251
508.44	3.474
508.64	2.640
508.83	3.292
509.03	2.909
509.23	3.150
509.43	2.873
509.63	3.312
509.82	2.866
510.02	2.798
510.22	3.134
510.42	4.266
510.61	3.359
510.81	3.604
511.01	3.710
511.21	3.618
511.40	2.705
511.60	3.615
511.80	3.417
511.99	4.345
512.19	3.268
512.39	4.090
512.59	3.290
512.78	3.912
512.98	4.042
513.18	3.461
513.38	3.073
513.57	3.667
513.77	3.076
513.97	3.786
514.17	2.642
514.36	3.754
514.56	3.361
514.76	3.977
514.95	2.786
515.15	3.154
515.35	2.703
515.55	3.201
515.74	3.634
515.94	4.259
516.14	2.700
516.33	3.767
516.53	3.097
516.73	2.858
516.93	2.641
517.12	3.722
517.32	2.416
517.52	3.568
517.71	3.065
517.91	3.692
518.11	3.555
518.30	3.466
518.50	3.043
518.70	3.937
518.90	3.979
519.09	4.384
519.29	4.172
519.49	5.107
519.68	3.890
519.88	4.584
520.08	4.494
520.27	4.322
520.47	3.615
520.67	4.373
520.86	4.743
521.06	4.993
521.26	3.435
521.45	4.673
521.65	3.711
521.85	3.844
522.04	3.416
522.24	3.681
522.44	3.111
522.63	4.373
522.83	3.439
523.03	4.371
523.22	3.600
523.42	4.607
523.62	4.270
523.81	4.356
524.01	3.884
524.21	3.406
524.40	3.591
524.60	3.697
524.80	3.129
524.99	4.212
525.19	3.960
525.39	4.565
525.58	3.490
525.78	4.286
525.98	3.884
526.17	4.881
526.37	4.142
526.57	5.244
526.76	4.910
526.96	5.232
527.15	4.315
527.35	4.841
527.55	4.196
527.74	5.236
527.94	4.933
528.14	5.116
528.33	4.752
528.53	5.328
528.72	5.106
528.92	5.466
529.12	5.324
529.31	5.669
529.51	5.580
529.71	5.903
529.90	5.834
530.10	5.790
530.29	5.865
530.49	5.920
530.69	5.608
530.88	6.350
531.08	5.542
531.28	5.975
531.47	5.299
531.67	5.827
531.86	5.139
532.06	5.552
532.26	4.610
532.45	5.435
532.65	5.130
532.84	5.867
533.04	5.236
533.24	5.447
533.43	4.838
533.63	5.623
533.82	5.231
534.02	5.579
534.22	5.183
534.41	5.994
534.61	5.789
534.80	5.909
535.00	5.934
535.19	6.102
535.39	5.922
535.59	5.954
535.78	5.160
535.98	5.799
536.17	4.813
536.37	5.530
536.57	4.897
536.76	5.930
536.96	5.428
537.15	5.753
537.35	4.848
537.54	5.682
537.74	5.153
537.93	5.951
538.13	5.002
538.33	5.725
538.52	5.060
538.72	5.815
538.91	5.254
539.11	5.405
539.30	4.624
539.50	5.904
539.70	5.035
539.89	5.954
540.09	4.564
540.28	5.691
540.48	4.554
540.67	5.512
540.87	5.208
541.06	5.920
541.26	4.761
541.45	5.735
541.65	6.151
541.85	6.054
542.04	6.040
542.24	6.445
542.43	6.539
542.63	6.541
542.82	6.481
543.02	6.703
543.21	6.476
543.41	6.605
543.60	6.228
543.80	6.626
543.99	6.453
544.19	6.520
544.38	6.070
544.58	6.577
544.77	6.037
544.97	6.532
545.16	5.121
545.36	6.656
545.56	5.829
545.75	6.490
545.95	5.499
546.14	6.675
546.34	5.377
546.53	6.686
546.73	5.904
546.92	6.020
547.12	6.102
547.31	6.656
547.51	5.707
547.70	6.507
547.90	5.477
548.09	6.498
548.29	5.742
548.48	6.934
548.68	5.893
548.87	6.641
549.07	6.048
549.26	6.079
549.46	6.366
549.65	6.389
549.84	5.949
550.04	5.969
550.23	5.119
550.43	5.088
550.62	5.445
550.82	5.405
551.01	5.007
551.21	5.914
551.40	4.929
551.60	6.220
551.79	5.369
551.99	5.274
552.18	5.613
552.38	6.040
552.57	6.114
552.77	6.308
552.96	6.227
553.16	7.135
553.35	5.593
553.54	7.179
553.74	6.303
553.93	7.215
554.13	6.888
554.32	7.629
554.52	5.959
554.71	7.079
554.91	6.022
555.10	7.121
555.29	5.487
555.49	6.237
555.68	6.062
555.88	6.953
556.07	5.440
556.27	7.128
556.46	6.505
556.66	6.728
556.85	6.109
557.04	7.015
557.24	6.428
557.43	8.272
557.63	7.680
557.82	6.837
558.02	6.005
558.21	7.959
558.40	6.122
558.60	7.962
558.79	7.106
558.99	7.613
559.18	6.913
559.38	7.872
559.57	6.875
559.76	7.853
559.96	7.804
560.15	7.723
560.35	6.171
560.54	7.165
560.73	6.406
560.93	8.364
561.12	7.588
561.32	8.266
561.51	8.277
561.70	7.665
561.90	7.413
562.09	8.994
562.29	7.938
562.48	9.207
562.67	8.452
562.87	9.292
563.06	8.087
563.26	8.851
563.45	8.292
563.64	9.226
563.84	9.044
564.03	9.637
564.23	8.624
564.42	10.444
564.61	9.052
564.81	9.623
565.00	9.112
565.20	10.418
565.39	10.905
565.58	9.850
565.78	9.159
565.97	10.675
566.16	10.351
566.36	11.576
566.55	10.225
566.74	10.062
566.94	10.156
567.13	11.650
567.33	10.500
567.52	11.380
567.71	10.879
567.91	10.952
568.10	11.167
568.29	11.570
568.49	10.883
568.68	11.598
568.87	10.338
569.07	12.237
569.26	11.593
569.45	12.452
569.65	11.366
569.84	12.060
570.04	10.807
570.23	11.935
570.42	9.742
570.62	12.060
570.81	11.447
571.00	11.612
571.20	11.722
571.39	11.881
571.58	11.353
571.78	12.413
571.97	11.699
572.16	12.258
572.36	12.212
572.55	13.205
572.74	12.069
572.94	12.454
573.13	12.345
573.32	12.613
573.51	11.982
573.71	13.717
573.90	11.796
574.09	12.961
574.29	12.995
574.48	13.278
574.67	11.720
574.87	13.217
575.06	11.934
575.25	12.661
575.45	12.473
575.64	12.740
575.83	12.104
576.03	12.985
576.22	11.675
576.41	13.152
576.60	12.238
576.80	12.940
576.99	12.888
577.18	13.805
577.38	11.466
577.57	12.083
577.76	13.023
577.95	13.058
578.15	11.111
578.34	12.962
578.53	10.521
578.73	12.807
578.92	11.090
579.11	12.249
579.30	12.421
579.50	11.832
579.69	12.243
579.88	12.658
580.08	10.571
580.27	12.946
580.46	11.396
580.65	12.714
580.85	11.202
581.04	12.079
581.23	10.574
581.42	12.366
581.62	10.167
581.81	11.821
582.00	10.959
582.19	12.387
582.39	11.488
582.58	10.967
582.77	12.174
582.96	10.444
583.16	10.311
583.35	12.356
583.54	11.395
583.73	12.296
583.93	10.754
584.12	11.137
584.31	9.922
584.50	10.777
584.70	10.495
584.89	11.531
585.08	10.742
585.27	11.147
585.47	9.892
585.66	10.588
585.85	9.344
586.04	10.837
586.24	10.402
586.43	11.267
586.62	9.696
586.81	11.448
587.00	9.661
587.20	11.841
587.39	8.616
587.58	11.718
587.77	10.719
587.97	10.272
588.16	10.212
588.35	12.500
588.54	9.931
588.73	11.014
588.93	11.009
589.12	11.070
589.31	10.582
589.50	10.131
589.69	9.856
589.89	10.406
590.08	9.740
590.27	10.977
590.46	10.111
590.65	11.186
590.85	9.733
591.04	12.287
591.23	10.441
591.42	11.064
591.61	9.963
591.81	11.730
592.00	9.221
592.19	11.293
592.38	10.077
592.57	11.351
592.77	10.828
592.96	9.933
593.15	10.798
593.34	10.115
593.53	9.808
593.72	10.709
593.92	9.670
594.11	11.903
594.30	9.713
594.49	11.821
594.68	10.344
594.87	12.120
595.07	9.130
595.26	11.681
595.45	10.460
595.64	12.090
595.83	9.669
596.02	12.009
596.22	10.127
596.41	12.632
596.60	11.225
596.79	12.280
596.98	11.697
597.17	12.651
597.37	10.868
597.56	11.864
597.75	11.443
597.94	13.238
598.13	12.493
598.32	11.997
598.51	11.111
598.71	13.318
598.90	12.511
599.09	13.137
599.28	11.180
599.47	11.433
599.66	10.913
599.85	12.712
600.05	10.684
600.24	13.019
600.43	11.966
600.62	12.622
600.81	11.133
601.00	12.464
601.19	10.695
601.38	11.914
601.58	10.917
601.77	11.395
601.96	11.947
602.15	12.796
602.34	11.977
602.53	13.328
602.72	11.228
602.91	12.178
603.10	11.078
603.30	13.079
603.49	11.780
603.68	12.933
603.87	10.900
604.06	12.896
604.25	12.637
604.44	13.303
604.63	12.693
604.82	14.180
605.01	12.500
605.21	14.593
605.40	12.395
605.59	13.711
605.78	12.970
605.97	12.948
606.16	13.033
606.35	14.455
606.54	13.100
606.73	14.399
606.92	11.370
607.11	14.167
607.30	12.470
607.50	13.165
607.69	11.647
607.88	12.982
608.07	10.985
608.26	12.787
608.45	12.333
608.64	14.163
608.83	10.145
609.02	13.069
609.21	11.735
609.40	13.986
609.59	12.162
609.78	11.709
609.97	12.169
610.16	12.836
610.35	13.004
610.55	12.402
610.74	11.439
610.93	13.322
611.12	11.713
611.31	12.601
611.50	10.834
611.69	12.448
611.88	11.557
612.07	12.746
612.26	9.688
612.45	12.594
612.64	11.386
612.83	12.307
613.02	9.703
613.21	9.944
613.40	9.874
613.59	11.622
613.78	8.070
613.97	11.120
614.16	9.657
614.35	12.090
614.54	8.125
614.73	8.947
614.92	9.644
615.11	9.084
615.30	8.220
615.49	7.672
615.68	9.810
615.87	9.920
616.07	9.061
616.26	8.589
616.45	9.612
616.64	10.182
616.83	8.882
617.02	10.616
617.21	7.304
617.40	8.626
617.59	9.578
617.78	10.804
617.97	7.504
618.16	8.261
618.35	6.476
618.54	8.051
618.73	9.029
618.92	9.881
619.11	7.641
619.30	8.753
619.49	6.486
619.68	9.360
619.86	7.113
620.05	8.678
620.24	6.552
620.43	7.794
620.62	6.945
620.81	7.970
621.00	8.023
621.19	9.636
621.38	8.377
621.57	8.407
621.76	8.813
621.95	9.379
622.14	7.992
622.33	10.419
622.52	6.804
622.71	9.135
622.90	7.130
623.09	8.604
623.28	7.475
623.47	9.282
623.66	8.381
623.85	7.259
624.04	7.806
624.23	7.567
624.42	6.366
624.61	7.300
624.80	6.095
624.99	7.308
625.18	6.428
625.36	8.332
625.55	7.617
625.74	7.435
625.93	6.780
626.12	8.849
626.31	8.831
626.50	8.708
626.69	7.626
626.88	8.495
627.07	9.313
627.26	8.125
627.45	8.775
627.64	8.825
627.83	8.276
628.02	7.309
628.20	7.318
628.39	8.587
628.58	7.186
628.77	8.747
628.96	6.951
629.15	7.992
629.34	7.417
629.53	7.699
629.72	6.165
629.91	9.235
630.10	7.620
630.29	7.458
630.47	7.386
630.66	7.227
630.85	6.775
631.04	7.380
631.23	8.354
631.42	7.889
631.61	6.490
631.80	8.383
631.99	7.103
632.18	7.967
632.36	6.561
632.55	8.280
632.74	7.069
632.93	6.245
633.12	6.219
633.31	6.782
633.50	6.997
633.69	7.181
633.88	5.600
634.06	7.466
634.25	6.568
634.44	7.502
634.63	5.972
634.82	9.530
635.01	6.167
635.20	7.302
635.39	5.495
635.57	7.086
635.76	6.250
635.95	6.745
636.14	6.361
636.33	8.231
636.52	7.581
636.71	6.234
636.89	7.341
637.08	6.505
637.27	6.937
637.46	6.551
637.65	7.240
637.84	7.442
638.03	5.311
638.21	7.413
638.40	7.845
638.59	6.531
638.78	5.820
638.97	7.463
639.16	7.783
639.34	7.167
639.53	5.408
639.72	7.613
639.91	6.022
640.10	5.416
640.29	7.166
640.47	8.982
640.66	6.820
640.85	8.746
641.04	6.462
641.23	6.050
641.42	7.286
641.60	5.933
641.79	6.070
641.98	6.465
642.17	6.256
642.36	7.068
642.54	6.215
642.73	5.809
642.92	5.565
643.11	5.682
643.30	6.220
643.49	7.690
643.67	5.822
643.86	6.587
644.05	5.937
644.24	7.795
644.43	5.920
644.61	7.171
644.80	5.840
644.99	7.408
645.18	7.774
645.37	6.595
645.55	6.718
645.74	7.295
645.93	7.284
646.12	6.902
646.31	7.221
646.49	6.401
646.68	8.353
646.87	7.395
647.06	6.397
647.24	7.445
647.43	5.692
647.62	7.762
647.81	5.632
648.00	6.655
648.18	6.173
648.37	5.392
648.56	6.216
648.75	6.590
648.93	7.062
649.12	7.088
649.31	5.983
649.50	5.728
649.68	5.486
649.87	6.805
650.06	5.252
650.25	6.441
650.43	6.239
650.62	6.433
650.81	5.983
651.00	5.959
651.18	4.877
651.37	7.534
651.56	5.881
651.75	7.783
651.93	5.923
652.12	7.420
652.31	6.540
652.50	6.920
652.68	7.888
652.87	7.793
653.06	6.531
653.25	5.190
653.43	7.342
653.62	6.062
653.81	5.919
654.00	7.381
654.18	6.306
654.37	6.434
654.56	6.937
654.74	4.803
654.93	6.298
655.12	6.435
655.31	5.773
655.49	6.305
655.68	4.844
655.87	4.955
656.05	3.055
656.24	4.230
656.43	6.680
656.62	6.426
656.80	6.801
656.99	4.663
657.18	3.974
657.36	4.708
657.55	6.370
657.74	6.636
657.93	6.207
658.11	7.945
658.30	4.863
658.49	4.482
658.67	4.571
658.86	3.420
659.05	4.014
659.23	5.469
659.42	3.457
659.61	5.748
659.79	5.341
659.98	4.089
660.17	4.456
660.35	5.464
660.54	4.682
660.73	5.088
660.91	5.720
661.10	5.178
661.29	4.606
661.47	4.955
661.66	4.086
661.85	4.284
662.03	7.510
662.22	5.376
662.41	5.398
662.59	4.065
662.78	5.057
662.97	5.023
663.15	3.624
663.34	3.913
663.53	4.615
663.71	4.706
663.90	5.030
664.09	4.600
664.27	4.641
664.46	5.545
664.65	3.744
664.83	3.907
665.02	3.323
665.21	4.908
665.39	4.356
665.58	4.777
665.77	4.949
665.95	3.504
666.14	4.681
666.32	4.473
666.51	4.674
666.70	2.507
666.88	4.415
667.07	4.132
667.26	2.323
667.44	3.675
667.63	5.614
667.81	2.487
668.00	5.196
668.19	5.536
668.37	4.109
668.56	5.094
668.75	3.516
668.93	3.996
669.12	3.221
669.30	4.418
669.49	3.331
669.68	4.593
669.86	4.545
670.05	3.973
670.23	3.995
670.42	2.687
670.61	5.352
670.79	4.636
670.98	6.171
671.16	4.723
671.35	4.045
671.54	4.812
671.72	4.489
671.91	3.971
672.09	4.255
672.28	5.724
672.46	3.672
672.65	6.099
672.84	3.817
673.02	5.653
673.21	3.461
673.39	3.935
673.58	4.738
673.77	4.786
673.95	5.133
674.14	3.531
674.32	3.714
674.51	6.055
674.69	6.438
674.88	4.276
675.07	4.560
675.25	5.890
675.44	6.203
675.62	4.675
675.81	6.320
675.99	5.604
676.18	5.016
676.36	4.686
676.55	6.570
676.74	6.127
676.92	4.426
677.11	3.719
677.29	3.754
677.48	5.511
677.66	4.675
677.85	5.454
678.03	6.029
678.22	6.001
678.40	4.410
678.59	4.019
678.78	4.865
678.96	3.897
679.15	6.810
679.33	5.836
679.52	4.648
679.70	6.292
679.89	4.575
680.07	5.838
680.26	5.523
680.44	4.309
680.63	4.482
680.81	4.814
681.00	3.710
681.18	2.190
681.37	5.653
681.55	4.436
681.74	4.536
681.92	5.676
682.11	6.038
682.29	4.434
682.48	5.707
682.66	5.768
682.85	4.793
683.03	5.839
683.22	5.769
683.40	6.010
683.59	5.853
683.77	6.184
683.96	3.725
684.14	6.111
684.33	4.178
684.51	9.065
684.70	4.907
684.88	7.384
685.07	5.557
685.25	6.137
685.44	5.067
685.62	6.487
685.81	5.889
685.99	6.294
686.18	4.128
686.36	6.917
686.55	6.434
686.73	7.375
686.92	6.498
687.10	7.231
687.29	8.366
687.47	8.527
687.65	5.941
687.84	7.626
688.02	8.631
688.21	8.709
688.39	5.634
688.58	7.786
688.76	8.599
688.95	5.701
689.13	6.221
689.32	9.034
689.50	7.221
689.68	7.555
689.87	7.113
690.05	7.326
690.24	8.904
690.42	8.924
690.61	8.290
690.79	10.331
690.98	7.651
691.16	7.271
691.34	7.527
691.53	9.209
691.71	8.415
691.90	8.632
692.08	7.240
692.27	11.171
692.45	11.833
692.63	8.054
692.82	10.988
693.00	9.937
693.19	9.303
693.37	12.073
693.56	10.812
693.74	11.426
693.92	10.769
694.11	14.587
694.29	13.449
694.48	12.417
694.66	10.814
694.84	12.970
695.03	10.981
695.21	16.930
695.40	14.473
695.58	14.956
695.76	13.895
695.95	16.875
696.13	15.332
696.32	18.354
696.50	21.266
696.68	16.320
696.87	12.773
697.05	19.339
697.24	16.095
697.42	18.076
697.60	17.161
697.79	19.055
697.97	19.454
698.16	22.917
698.34	16.651
698.52	21.924
698.71	18.561
698.89	22.628
699.07	20.652
699.26	22.766
699.44	22.132
699.63	24.797
699.81	22.303
699.99	24.771
700.18	25.369
700.36	25.051
700.54	25.458
700.73	24.373
700.91	23.897
701.09	24.955
701.28	25.260
701.46	25.308
701.64	22.462
701.83	26.087
702.01	22.884
702.20	28.909
702.38	26.318
702.56	26.809
702.75	23.743
702.93	24.267
703.11	25.450
703.30	28.026
703.48	23.932
703.66	26.411
703.85	23.500
704.03	32.282
704.21	26.508
704.40	30.508
704.58	28.126
704.76	27.813
704.95	25.788
705.13	29.646
705.31	26.692
705.50	29.375
705.68	26.933
705.86	31.964
706.04	30.849
706.23	30.476
706.41	26.108
706.59	29.631
706.78	28.733
706.96	31.066
707.14	31.321
707.33	32.376
707.51	30.192
707.69	31.154
707.88	29.971
708.06	30.505
708.24	28.786
708.42	35.734
708.61	29.792
708.79	33.758
708.97	31.619
709.16	33.254
709.34	31.306
709.52	32.872
709.71	31.626
709.89	34.766
710.07	31.492
710.25	34.256
710.44	30.992
710.62	33.613
710.80	32.944
710.98	32.457
711.17	32.191
711.35	34.324
711.53	29.850
711.72	34.664
711.90	35.482
712.08	34.837
712.26	32.203
712.45	36.761
712.63	35.118
712.81	33.820
712.99	34.492
713.18	36.248
713.36	32.501
713.54	34.498
713.72	35.841
713.91	38.940
714.09	32.170
714.27	36.536
714.45	34.975
714.64	38.622
714.82	31.616
715.00	36.940
715.18	33.815
715.37	36.455
715.55	32.914
715.73	35.242
715.91	34.490
716.10	36.620
716.28	30.931
716.46	32.328
716.64	34.255
716.83	33.800
717.01	32.969
717.19	36.135
717.37	32.855
717.55	33.640
717.74	31.105
717.92	35.440
718.10	29.369
718.28	36.754
718.47	32.371
718.65	36.131
718.83	32.593
719.01	35.039
719.19	34.802
719.38	31.335
719.56	32.713
719.74	33.790
719.92	29.574
720.10	30.536
720.29	31.377
720.47	34.266
720.65	30.999
720.83	36.744
721.01	28.420
721.20	31.818
721.38	30.556
721.56	35.142
721.74	32.138
721.92	36.173
722.11	30.662
722.29	35.840
722.47	31.924
722.65	37.229
722.83	35.758
723.01	35.976
723.20	30.820
723.38	36.848
723.56	31.076
723.74	34.712
723.92	31.150
724.10	34.081
724.29	29.743
724.47	32.217
724.65	29.830
724.83	36.346
725.01	31.189
725.19	38.482
725.38	32.087
725.56	37.524
725.74	31.405
725.92	37.240
726.10	31.531
726.28	32.882
726.46	35.038
726.65	35.751
726.83	30.853
727.01	35.968
727.19	33.925
727.37	37.396
727.55	35.145
727.73	32.601
727.92	35.400
728.10	34.232
728.28	30.276
728.46	38.229
728.64	33.413
728.82	36.958
729.00	32.905
729.19	36.941
729.37	32.734
729.55	36.531
729.73	32.549
729.91	35.086
730.09	36.258
730.27	35.855
730.45	33.461
730.63	37.310
730.82	36.190
731.00	33.961
731.18	30.609
731.36	38.779
731.54	29.977
731.72	35.491
731.90	38.345
732.08	36.080
732.26	33.703
732.45	36.845
732.63	35.445
732.81	37.960
732.99	33.428
733.17	38.692
733.35	40.103
733.53	39.245
733.71	34.583
733.89	38.924
734.07	39.069
734.25	41.482
734.44	35.844
734.62	38.153
734.80	33.892
734.98	42.916
735.16	36.629
735.34	42.626
735.52	38.636
735.70	39.519
735.88	39.859
736.06	39.452
736.24	36.930
736.42	41.346
736.60	41.602
736.78	40.146
736.97	39.565
737.15	42.366
737.33	36.003
737.51	39.106
737.69	39.808
737.87	41.533
738.05	39.040
738.23	37.198
738.41	35.954
738.59	39.034
738.77	37.795
738.95	46.181
739.13	39.086
739.31	40.811
739.49	37.526
739.67	38.327
739.85	39.835
740.03	44.227
740.21	38.483
740.39	44.183
740.57	41.438
740.75	37.845
740.93	36.906
741.11	37.403
741.30	41.239
741.48	39.466
741.66	38.484
741.84	41.073
742.02	42.250
742.20	42.464
742.38	41.797
742.56	44.274
742.74	38.919
742.92	37.490
743.10	35.774
743.28	43.122
743.46	42.155
743.64	40.549
743.82	41.935
744.00	44.355
744.18	47.039
744.36	36.720
744.54	39.554
744.72	44.232
744.90	37.583
745.08	45.363
745.26	40.067
745.44	43.180
745.62	35.732
745.80	45.920
745.98	41.476
746.16	44.969
746.34	35.944
746.52	42.304
746.70	43.386
746.87	40.647
747.05	41.741
747.23	45.406
747.41	41.921
747.59	43.975
747.77	39.180
747.95	42.897
748.13	40.804
748.31	50.044
748.49	43.145
748.67	44.275
748.85	44.269
749.03	44.953
749.21	44.407
749.39	41.674
749.57	33.215
749.75	40.866
749.93	41.972
750.11	41.274
750.29	40.523
750.47	41.568
750.65	39.123
750.83	39.902
751.01	39.333
751.18	45.255
751.36	37.687
751.54	45.628
751.72	46.348
751.90	40.157
752.08	39.340
752.26	43.333
752.44	40.049
752.62	43.876
752.80	37.928
752.98	46.383
753.16	35.852
753.34	43.907
753.52	40.636
753.69	42.061
753.87	41.367
754.05	42.994
754.23	41.963
754.41	42.627
754.59	41.219
754.77	43.745
754.95	43.276
755.13	40.105
755.31	37.797
755.49	46.481
755.66	41.182
755.84	47.782
756.02	36.098
756.20	45.757
756.38	41.786
756.56	40.829
756.74	40.660
756.92	43.544
757.10	39.600
757.28	45.240
757.45	40.966
757.63	41.410
757.81	39.964
757.99	47.606
758.17	44.273
758.35	45.096
758.53	39.286
758.71	42.700
758.88	37.658
759.06	39.930
759.24	37.140
759.42	42.314
759.60	31.524
759.78	31.807
759.96	30.251
760.13	35.250
760.31	26.076
760.49	29.246
760.67	25.698
760.85	26.988
761.03	24.304
761.21	23.806
761.38	20.806
761.56	29.234
761.74	23.994
761.92	31.082
762.10	23.300
762.28	28.418
762.46	19.647
762.63	29.266
762.81	25.059
762.99	28.637
763.17	29.394
763.35	27.762
763.53	23.767
763.70	31.285
763.88	30.055
764.06	28.563
764.24	28.301
764.42	32.911
764.60	28.549
764.77	29.876
764.95	29.341
765.13	32.261
765.31	31.809
765.49	32.171
765.66	29.768
765.84	35.113
766.02	31.250
766.20	35.729
766.38	33.008
766.56	37.729
766.73	32.485
766.91	33.882
767.09	37.092
767.27	36.948
767.45	29.011
767.62	39.200
767.80	33.686
767.98	36.132
768.16	32.724
768.33	40.698
768.51	32.724
768.69	38.189
768.87	32.694
769.05	43.042
769.22	37.861
769.40	43.849
769.58	36.716
769.76	44.468
769.94	38.851
770.11	41.914
770.29	44.364
770.47	37.983
770.65	42.961
770.82	41.868
771.00	41.401
771.18	41.816
771.36	39.932
771.53	40.667
771.71	47.608
771.89	48.321
772.07	38.594
772.25	46.400
772.42	40.865
772.60	50.193
772.78	43.394
772.96	50.302
773.13	44.058
773.31	40.556
773.49	38.490
773.67	42.590
773.84	40.811
774.02	40.152
774.20	42.044
774.37	43.689
774.55	37.516
774.73	46.961
774.91	42.764
775.08	47.689
775.26	40.755
775.44	47.922
775.62	39.394
775.79	48.753
775.97	34.766
776.15	43.507
776.32	43.542
776.50	43.840
776.68	41.667
776.86	44.532
777.03	40.059
777.21	44.269
777.39	42.539
777.56	41.608
777.74	47.619
777.92	42.914
778.10	38.789
778.27	44.611
778.45	46.765
778.63	40.238
778.80	43.675
778.98	40.927
779.16	44.776
779.34	46.259
779.51	38.781
779.69	38.639
779.87	42.033
780.04	46.583
780.22	43.539
780.40	40.318
780.57	43.000
780.75	40.839
780.93	41.194
781.10	43.715
781.28	48.281
781.46	39.734
781.63	40.688
781.81	48.494
781.99	37.688
782.16	37.991
782.34	36.337
782.52	41.185
782.69	44.593
782.87	38.830
783.05	35.303
783.22	45.688
783.40	39.768
783.58	48.744
783.75	38.881
783.93	38.897
784.11	33.856
784.28	45.331
784.46	42.437
784.64	38.387
784.81	30.938
784.99	41.745
785.17	47.900
785.34	35.780
785.52	44.089
785.69	44.096
785.87	42.634
786.05	47.763
786.22	42.857
786.40	49.919
786.58	52.241
786.75	47.863
786.93	30.689
787.11	35.285
787.28	42.213
787.46	46.370
787.63	40.909
787.81	41.185
787.99	41.237
788.16	38.063
788.34	33.676
788.51	41.818
788.69	45.467
788.87	41.949
789.04	37.751
789.22	34.441
789.39	41.098
789.57	32.360
789.75	38.266
789.92	37.550
790.10	33.850
790.27	39.175
790.45	34.410
790.63	38.214
790.80	35.632
790.98	32.794
791.15	32.722
791.33	42.158
791.51	32.907
791.68	41.124
791.86	35.823
792.03	38.424
792.21	36.047
792.39	40.412
792.56	38.951
792.74	41.290
792.91	41.794
793.09	37.981
793.26	37.019
793.44	39.935
793.62	42.881
793.79	36.596
793.97	44.444
794.14	37.193
794.32	47.412
794.49	36.742
794.67	32.530
794.84	41.047
795.02	38.087
795.20	44.171
795.37	42.218
795.55	42.634
795.72	31.086
795.90	31.825
796.07	41.244
796.25	42.270
796.42	35.821
796.60	36.264
796.77	35.771
796.95	37.926
797.13	33.279
797.30	42.121
797.48	35.341
797.65	39.323
797.83	32.201
798.00	39.599
798.18	38.705
798.35	36.350
798.53	35.144
798.70	43.692
798.88	43.826
799.05	38.487
799.23	34.802
799.40	35.981
799.58	38.934
799.75	38.564
799.93	38.382
800.10	37.980
800.28	35.678
800.45	36.639
800.63	41.262
800.80	38.379
800.98	39.832
801.15	41.818
801.33	30.517
801.50	41.694
801.68	43.080
801.85	36.806
802.03	35.145
802.20	38.519
802.38	38.435
802.55	31.596
802.73	39.432
802.90	23.852
803.08	35.262
803.25	42.777
803.43	44.112
803.60	46.618
803.78	43.216
803.95	40.792
804.13	38.160
804.30	37.311
804.48	36.604
804.65	36.614
804.83	36.842
805.00	37.347
805.17	34.221
805.35	44.423
805.52	39.606
805.70	40.957
805.87	38.204
806.05	36.696
806.22	33.650
806.40	32.413
806.57	32.468
806.75	44.963
806.92	40.993
807.09	37.282
807.27	39.122
807.44	43.934
807.62	36.711
807.79	34.729
807.97	36.862
808.14	34.957
808.31	39.885
808.49	34.921
808.66	38.283
808.84	34.749
809.01	45.365
809.19	36.166
809.36	40.206
809.53	37.428
809.71	38.020
809.88	51.391
810.06	41.002
810.23	34.025
810.41	46.087
810.58	37.428
810.75	33.463
810.93	41.928
811.10	39.319
811.28	44.571
811.45	33.539
811.62	35.104
811.80	36.036
811.97	27.578
812.15	49.127
812.32	38.248
812.49	43.096
812.67	37.882
812.84	34.244
813.02	38.293
813.19	32.703
813.36	41.295
813.54	33.630
813.71	43.301
813.89	43.943
814.06	35.421
814.23	45.033
814.41	39.778
814.58	45.781
814.75	44.444
814.93	37.277
815.10	51.185
815.28	46.875
815.45	37.204
815.62	41.176
815.80	35.045
815.97	35.411
816.14	44.258
816.32	40.199
816.49	26.790
816.66	27.148
816.84	35.657
817.01	36.830
817.18	28.035
817.36	39.610
817.53	39.948
817.71	32.477
817.88	32.563
818.05	29.204
818.23	29.360
818.40	30.579
818.57	37.969
818.75	35.282
818.92	40.586
819.09	34.606
819.27	48.068
819.44	27.430
819.61	33.460
819.79	36.567
819.96	37.190
820.13	31.648
820.31	34.011
820.48	32.925
820.65	28.763
820.82	34.462
821.00	30.814
821.17	25.900
821.34	32.394
821.52	27.476
821.69	23.061
821.86	28.032
822.04	26.525
822.21	24.060
822.38	28.204
822.56	22.172
822.73	29.906
822.90	28.081
823.07	32.566
823.25	29.802
823.42	29.807
823.59	29.593
823.77	32.065
823.94	31.070
824.11	32.977
824.29	30.511
824.46	32.872
824.63	29.576
824.80	31.026
824.98	28.068
825.15	28.824
825.32	25.475
825.49	30.769
825.67	23.741
825.84	32.364
826.01	25.636
826.19	28.024
826.36	24.022
826.53	27.031
826.70	20.554
826.88	33.415
827.05	26.048
827.22	24.250
827.39	24.097
827.57	22.365
827.74	25.660
827.91	26.835
828.08	19.448
828.26	21.602
828.43	20.563
828.60	27.550
828.77	22.344
828.95	26.657
829.12	20.148
829.29	20.369
829.46	27.500
829.64	24.069
829.81	20.505
829.98	29.356
830.15	27.301
830.32	22.155
830.50	25.232
830.67	28.997
830.84	23.435
831.01	24.077
831.19	31.010
831.36	30.744
831.53	23.616
831.70	29.533
831.87	33.661
832.05	38.125
832.22	39.666
832.39	30.896
832.56	32.812
832.74	26.211
832.91	25.941
833.08	37.897
833.25	24.808
833.42	30.915
833.60	27.778
833.77	13.142
833.94	23.907
834.11	20.732
834.28	22.222
834.45	25.524
834.63	22.494
834.80	22.974
834.97	23.448
835.14	24.388
835.31	22.785
835.49	25.978
835.66	24.310
835.83	26.377
836.00	22.130
836.17	20.000
836.34	22.117
836.52	24.590
836.69	31.865
836.86	35.552
837.03	30.274
837.20	33.388
837.37	23.549
837.55	27.553
837.72	36.346
837.89	33.185
838.06	32.755
838.23	39.454
838.40	32.813
838.58	24.740
838.75	44.034
838.92	45.075
839.09	51.775
839.26	47.000
839.43	46.417
839.60	37.419
839.78	45.405
839.95	38.918
840.12	41.124
840.29	41.944
840.46	51.053
840.63	41.969
840.80	40.409
840.98	45.854
841.15	41.371
841.32	34.037
841.49	31.646
841.66	42.033
841.83	50.990
842.00	44.039
842.17	42.368
842.34	39.164
842.52	42.415
842.69	46.233
842.86	18.421
843.03	58.621
843.20	48.980
843.37	49.096
843.54	47.431
843.71	49.226
843.88	53.257
844.06	55.172
844.23	47.034
844.40	48.996
844.57	72.059
844.74	89.080
844.91	49.145
845.08	67.464
845.25	63.679
845.42	65.086
845.59	53.419
845.76	52.459
845.94	68.205
846.11	49.500
846.28	59.615
846.45	79.268
846.62	77.273
846.79	67.273
846.96	57.576
847.13	67.914
847.30	54.167
847.47	96.386
847.64	67.876
847.81	57.561
847.98	79.679
848.15	66.667
848.32	79.670
848.50	68.750
848.67	76.042
848.84	98.324
849.01	72.593
849.18	70.763
849.35	92.903
849.52	57.310
849.69	90.805
849.86	85.714
850.03	65.909
850.20	93.038
850.37	56.977
850.54	57.143
850.71	65.644
850.88	90.857
851.05	58.170
851.22	65.294
851.39	101.961
851.56	68.000
851.73	80.311
851.90	90.303
852.07	55.469
852.24	71.098
852.41	91.971
852.58	96.648
852.75	62.048
852.92	85.385
853.09	76.374
853.26	99.306
853.43	61.749
853.60	81.203
853.77	36.090
853.94	83.871
854.11	67.582
854.28	67.677
854.45	69.565
854.62	76.415
854.79	95.266
854.96	81.875
855.13	54.749
855.30	71.975
855.47	69.231
855.64	68.056
855.81	83.030
855.98	88.073
856.15	78.453
856.32	73.077
856.49	75.839
856.66	93.966
856.83	77.863
857.00	64.671
857.17	102.353
857.34	93.836
857.51	87.611
857.68	85.057
857.85	72.581
858.02	72.131
858.19	67.586
858.36	92.045
858.53	89.041
858.70	96.694
858.87	74.219
859.04	78.065
859.21	77.273
859.38	70.857
859.55	106.294
859.72	74.214
859.89	85.075
860.05	87.342
860.22	83.060
860.39	93.750
860.56	92.965
860.73	96.532
860.90	118.493
861.07	113.235
861.24	95.349
861.41	77.228
861.58	73.481
861.75	66.929
861.92	74.834
862.09	87.121
862.26	71.795
862.43	61.350
862.59	59.783
862.76	123.636
862.93	118.519
863.10	95.455
863.27	95.455
863.44	73.737
863.61	93.836
863.78	75.000
863.95	84.615
864.12	77.222
864.29	92.179
864.45	84.472
864.62	64.000
864.79	89.362
864.96	78.571
865.13	69.767
865.30	89.524
865.47	91.538
865.64	137.624
865.81	65.746
865.97	45.355
866.14	85.938
866.31	66.842
866.48	86.567
866.65	66.667
866.82	88.000
866.99	89.954
867.16	67.227
867.33	88.732
867.49	61.988
867.66	54.658
867.83	67.568
868.00	65.829
868.17	91.935
868.34	100.685
868.51	116.190
868.67	98.039
868.84	101.653
869.01	91.667
869.18	78.125
869.35	88.344
869.52	94.375
869.69	80.473
869.85	74.863
870.02	58.559
870.19	99.291
870.36	102.174
870.53	79.339
870.70	141.667
870.86	85.714
871.03	66.242
871.20	75.248
871.37	95.484
871.54	107.407
871.71	79.070
871.87	67.176
872.04	72.864
872.21	77.457
872.38	83.571
872.55	115.603
872.72	56.522
872.88	79.874
873.05	85.535
873.22	60.119
873.39	64.375
873.56	59.064
873.72	84.874
873.89	85.542
874.06	70.779
874.23	71.519
874.40	101.835
874.56	59.783
874.73	96.610
874.90	63.580
875.07	56.863
875.24	50.877
875.40	85.385
875.57	64.925
875.74	100.641
875.91	59.559
876.08	91.837
876.24	83.636
876.41	70.500
876.58	67.836
876.75	62.791
876.92	59.627
877.08	92.982
877.25	76.000
877.42	89.262
877.59	79.518
877.75	85.027
877.92	104.132
878.09	80.800
878.26	76.923
878.42	59.740
878.59	69.663
878.76	67.614
878.93	33.908
879.09	66.102
879.26	72.028
879.43	61.692
879.60	73.267
879.76	53.608
879.93	65.490
880.10	61.111
880.27	46.383
880.43	36.321
880.60	64.773
880.77	36.406
880.94	51.656
881.10	37.458
881.27	36.812
881.44	34.085
881.61	31.169
881.77	36.327
881.94	22.654
882.11	16.975
882.28	24.187
882.44	21.503
882.61	19.610
882.78	25.108
882.94	24.512
883.11	20.686
883.28	22.146
883.45	20.944
883.61	20.779
883.78	20.876
883.95	19.888
884.11	23.246
884.28	18.577
>>>>>End Processed Spectral Data<<<<<
