SpectraSuite Data File
++++++++++++++++++++++++++++++++++++
Date: Sun Sep 22 03:31:07 EST 2019
User: sgrac
Dark Spectrum Present: Yes
Reference Spectrum Present: Yes
Number of Sampled Component Spectra: 1
Spectrometers: USB4E01596
Integration Time (usec): 100000 (USB4E01596)
Spectra Averaged: 3 (USB4E01596)
Boxcar Smoothing: 0 (USB4E01596)
Correct for Electrical Dark: No (USB4E01596)
Strobe/Lamp Enabled: Yes (USB4E01596)
Correct for Detector Non-linearity: No (USB4E01596)
Correct for Stray Light: No (USB4E01596)
Number of Pixels in Processed Spectrum: 3648
>>>>>Begin Processed Spectral Data<<<<<
178.44	597.619
178.66	597.619
178.87	597.619
179.09	-134.259
179.30	-331.481
179.52	246.237
179.74	12266.667
179.95	1133.333
180.17	10766.667
180.38	293.210
180.60	-647.917
180.82	3158.333
181.03	-210.000
181.25	469.565
181.46	-185.119
181.68	-473.333
181.89	445.098
182.11	523.810
182.33	1661.905
182.54	313.793
182.76	927.273
182.97	-550.000
183.19	335.897
183.40	-346.032
183.62	244.444
183.84	270.476
184.05	10666.667
184.27	298.333
184.48	237.589
184.70	527.381
184.91	791.111
185.13	-6850.000
185.34	1019.048
185.56	-721.429
185.78	373.333
185.99	293.137
186.21	253.623
186.42	2258.333
186.64	127.193
186.85	-431.944
187.07	370.833
187.28	-2308.333
187.50	1409.524
187.72	963.636
187.93	-641.667
188.15	432.323
188.36	379.279
188.58	147.692
188.79	386.022
189.01	523.077
189.22	-1143.333
189.44	180.365
189.65	4600.000
189.87	2286.667
190.09	0.000
190.30	925.000
190.52	-398.718
190.73	591.304
190.95	490.476
191.16	656.667
191.38	-1012.821
191.59	10500.000
191.81	222.807
192.02	737.778
192.24	-6483.333
192.45	-628.889
192.67	284.722
192.88	190.404
193.10	9366.667
193.31	-716.667
193.53	1080.000
193.74	282.051
193.96	232.653
194.18	315.789
194.39	-2111.111
194.61	936.111
194.82	263.636
195.04	1090.476
195.25	1106.667
195.47	-596.078
195.68	-254.762
195.90	329.167
196.11	705.128
196.33	309.259
196.54	376.768
196.76	1538.889
196.97	-606.250
197.19	828.571
197.40	485.859
197.62	328.283
197.83	-1408.333
198.05	2216.667
198.26	179.104
198.48	797.778
198.69	-366.667
198.91	-3511.111
199.12	395.238
199.34	209.259
199.55	512.281
199.77	-624.561
199.98	-794.872
200.20	274.074
200.41	363.158
200.63	231.293
200.84	-1179.167
201.06	2446.667
201.27	491.667
201.49	-1752.381
201.70	0.000
201.91	541.667
202.13	259.028
202.34	343.210
202.56	954.545
202.77	293.103
202.99	-608.333
203.20	-1055.556
203.42	189.035
203.63	306.481
203.85	239.623
204.06	835.897
204.28	564.444
204.49	-9633.333
204.71	381.081
204.92	417.778
205.14	531.818
205.35	514.286
205.56	246.259
205.78	1180.000
205.99	9366.667
206.21	780.392
206.42	239.444
206.64	3188.889
206.85	201.389
207.07	211.667
207.28	208.197
207.50	551.190
207.71	414.667
207.93	417.391
208.14	-920.000
208.35	-2455.556
208.57	1106.667
208.78	297.101
209.00	191.919
209.21	328.283
209.43	137.681
209.64	1412.500
209.86	333.333
210.07	694.872
210.28	777.778
210.50	254.167
210.71	303.546
210.93	689.583
211.14	-10266.667
211.36	377.778
211.57	-12633.333
211.78	-2575.000
212.00	405.263
212.21	1350.000
212.43	265.957
212.64	790.909
212.86	465.517
213.07	-3425.000
213.29	245.139
213.50	-475.439
213.71	204.372
213.93	1243.333
214.14	864.286
214.36	866.667
214.57	583.333
214.78	178.355
215.00	195.714
215.21	661.111
215.43	382.667
215.64	-8000.000
215.86	908.333
216.07	-858.974
216.28	986.667
216.50	-366.667
216.71	1946.667
216.93	578.431
217.14	-388.889
217.35	171.354
217.57	940.000
217.78	688.235
218.00	2800.000
218.21	264.151
218.42	1614.815
218.64	2333.333
218.85	1527.778
219.07	-966.667
219.28	-404.938
219.49	383.951
219.71	346.667
219.92	354.701
220.14	455.072
220.35	4333.333
220.56	225.146
220.78	326.667
220.99	-1788.889
221.21	0.000
221.42	374.713
221.63	872.727
221.85	252.542
222.06	174.830
222.28	310.345
222.49	474.359
222.70	1043.333
222.92	262.667
223.13	213.333
223.34	-877.778
223.56	164.502
223.77	236.170
223.99	913.889
224.20	278.049
224.41	279.545
224.63	158.667
224.84	408.046
225.05	207.937
225.27	164.734
225.48	222.000
225.69	243.651
225.91	121.399
226.12	204.695
226.34	100.324
226.55	143.478
226.76	159.649
226.98	164.035
227.19	176.344
227.40	308.333
227.62	120.333
227.83	99.324
228.04	104.124
228.26	76.309
228.47	120.325
228.69	71.992
228.90	61.176
229.11	54.812
229.33	43.978
229.54	42.285
229.75	47.388
229.97	39.239
230.18	35.826
230.39	31.818
230.61	28.453
230.82	55.128
231.03	21.166
231.25	42.741
231.46	43.150
231.67	37.879
231.89	52.593
232.10	38.930
232.31	36.723
232.53	44.587
232.74	42.083
232.95	49.261
233.17	53.255
233.38	46.777
233.59	64.615
233.81	58.333
234.02	46.984
234.23	39.144
234.45	51.515
234.66	46.106
234.87	65.449
235.09	64.657
235.30	49.593
235.51	53.161
235.73	55.641
235.94	44.610
236.15	61.981
236.36	55.019
236.58	44.484
236.79	37.726
237.00	55.948
237.22	53.704
237.43	45.133
237.64	55.900
237.86	57.080
238.07	64.906
238.28	60.061
238.50	46.089
238.71	55.191
238.92	59.930
239.13	44.223
239.35	55.789
239.56	56.303
239.77	50.379
239.99	44.815
240.20	44.380
240.41	31.871
240.63	43.886
240.84	40.774
241.05	25.881
241.26	32.190
241.48	25.160
241.69	27.891
241.90	20.269
242.12	22.316
242.33	16.667
242.54	22.625
242.75	18.567
242.97	21.855
243.18	17.323
243.39	14.483
243.61	20.531
243.82	18.102
244.03	17.231
244.24	13.546
244.46	22.222
244.67	19.255
244.88	21.335
245.09	17.463
245.31	23.857
245.52	18.576
245.73	25.157
245.95	31.247
246.16	24.922
246.37	22.596
246.58	23.388
246.80	16.735
247.01	15.038
247.22	13.918
247.43	11.991
247.65	13.542
247.86	14.522
248.07	12.337
248.28	11.619
248.50	13.266
248.71	10.513
248.92	10.620
249.13	14.128
249.35	14.100
249.56	13.513
249.77	11.584
249.98	11.924
250.20	12.897
250.41	19.267
250.62	20.665
250.83	17.368
251.05	21.494
251.26	19.054
251.47	20.790
251.68	17.763
251.90	14.793
252.11	21.770
252.32	21.100
252.53	22.271
252.75	17.720
252.96	19.004
253.17	12.731
253.38	15.616
253.59	13.538
253.81	11.654
254.02	13.231
254.23	14.468
254.44	18.136
254.66	13.819
254.87	16.185
255.08	22.701
255.29	26.654
255.50	22.553
255.72	23.491
255.93	18.463
256.14	18.510
256.35	23.353
256.57	23.494
256.78	17.271
256.99	21.950
257.20	31.295
257.41	21.248
257.63	17.217
257.84	23.851
258.05	24.961
258.26	17.547
258.47	13.849
258.69	11.868
258.90	11.566
259.11	18.735
259.32	16.558
259.53	10.149
259.75	14.252
259.96	8.569
260.17	11.257
260.38	11.408
260.59	10.784
260.81	10.401
261.02	9.573
261.23	10.034
261.44	10.060
261.65	9.862
261.87	8.812
262.08	9.735
262.29	9.693
262.50	9.817
262.71	10.870
262.92	12.040
263.14	10.657
263.35	12.660
263.56	11.985
263.77	14.639
263.98	15.806
264.20	16.760
264.41	14.058
264.62	16.723
264.83	12.148
265.04	16.898
265.25	14.777
265.47	15.346
265.68	14.966
265.89	12.778
266.10	15.173
266.31	18.904
266.52	19.620
266.74	11.876
266.95	10.481
267.16	17.549
267.37	11.979
267.58	13.799
267.79	10.846
268.01	13.198
268.22	14.443
268.43	10.643
268.64	12.075
268.85	12.866
269.06	10.683
269.27	14.014
269.49	10.578
269.70	12.988
269.91	12.191
270.12	12.126
270.33	11.986
270.54	12.879
270.75	12.124
270.97	11.541
271.18	13.178
271.39	8.615
271.60	14.143
271.81	8.940
272.02	11.895
272.23	10.398
272.45	10.175
272.66	8.731
272.87	11.196
273.08	9.482
273.29	9.052
273.50	10.294
273.71	9.673
273.92	6.897
274.14	10.698
274.35	7.906
274.56	10.316
274.77	10.900
274.98	10.739
275.19	10.497
275.40	11.457
275.61	8.981
275.83	12.321
276.04	13.163
276.25	15.234
276.46	10.442
276.67	15.573
276.88	12.626
277.09	11.378
277.30	11.429
277.51	12.954
277.73	15.878
277.94	11.167
278.15	11.093
278.36	14.818
278.57	8.593
278.78	10.990
278.99	11.410
279.20	13.099
279.41	15.586
279.62	9.366
279.84	11.522
280.05	13.496
280.26	12.787
280.47	11.949
280.68	16.480
280.89	13.565
281.10	12.823
281.31	14.637
281.52	15.117
281.73	9.145
281.94	8.977
282.16	10.505
282.37	12.193
282.58	8.251
282.79	12.360
283.00	12.007
283.21	12.366
283.42	11.027
283.63	12.257
283.84	10.656
284.05	9.739
284.26	8.773
284.47	9.686
284.68	11.297
284.89	11.061
285.11	10.679
285.32	9.610
285.53	11.669
285.74	10.546
285.95	10.236
286.16	9.673
286.37	9.555
286.58	8.753
286.79	7.316
287.00	11.079
287.21	6.882
287.42	8.832
287.63	7.320
287.84	8.758
288.05	12.811
288.26	9.155
288.48	12.653
288.69	9.660
288.90	9.782
289.11	12.045
289.32	11.583
289.53	9.751
289.74	9.429
289.95	7.614
290.16	9.244
290.37	12.110
290.58	10.060
290.79	8.778
291.00	6.076
291.21	6.887
291.42	9.519
291.63	10.079
291.84	9.691
292.05	6.551
292.26	9.268
292.47	8.451
292.68	10.723
292.89	10.666
293.10	11.919
293.31	10.680
293.52	9.744
293.73	8.896
293.94	8.376
294.15	9.418
294.36	9.485
294.57	12.954
294.79	10.851
295.00	7.444
295.21	10.225
295.42	10.784
295.63	10.610
295.84	8.808
296.05	10.211
296.26	8.216
296.47	7.824
296.68	9.100
296.89	9.500
297.10	11.209
297.31	11.451
297.52	8.039
297.73	9.619
297.94	9.125
298.15	9.809
298.36	8.670
298.57	9.489
298.78	11.115
298.99	8.794
299.20	9.137
299.41	11.179
299.62	9.397
299.83	8.190
300.04	8.945
300.25	9.871
300.46	12.371
300.67	9.871
300.88	12.107
301.09	6.932
301.30	11.759
301.50	7.736
301.71	13.615
301.92	13.607
302.13	8.411
302.34	11.061
302.55	10.004
302.76	9.490
302.97	8.426
303.18	10.690
303.39	10.888
303.60	9.278
303.81	10.964
304.02	8.470
304.23	10.098
304.44	8.658
304.65	9.622
304.86	13.019
305.07	10.694
305.28	8.729
305.49	12.143
305.70	11.338
305.91	9.678
306.12	9.340
306.33	9.718
306.54	10.412
306.75	9.176
306.96	15.366
307.17	9.784
307.38	9.248
307.58	9.286
307.79	9.895
308.00	9.454
308.21	10.674
308.42	9.307
308.63	9.606
308.84	11.015
309.05	11.244
309.26	8.617
309.47	9.394
309.68	8.686
309.89	10.116
310.10	8.895
310.31	9.486
310.52	9.011
310.73	11.585
310.94	6.476
311.14	7.705
311.35	7.572
311.56	10.388
311.77	8.997
311.98	7.181
312.19	8.963
312.40	6.628
312.61	9.376
312.82	8.555
313.03	8.551
313.24	8.236
313.45	9.404
313.66	7.859
313.86	9.091
314.07	10.187
314.28	9.778
314.49	10.725
314.70	8.156
314.91	10.774
315.12	7.505
315.33	9.455
315.54	7.901
315.75	6.860
315.96	4.942
316.16	8.674
316.37	10.991
316.58	7.669
316.79	9.244
317.00	10.986
317.21	9.428
317.42	11.417
317.63	8.776
317.84	8.535
318.05	9.335
318.25	11.512
318.46	9.163
318.67	9.721
318.88	9.979
319.09	8.837
319.30	6.792
319.51	9.825
319.72	9.388
319.93	9.200
320.13	9.732
320.34	10.501
320.55	9.918
320.76	11.794
320.97	8.509
321.18	11.371
321.39	10.797
321.60	7.049
321.80	10.128
322.01	10.912
322.22	9.568
322.43	8.485
322.64	8.069
322.85	11.001
323.06	10.708
323.27	9.015
323.47	9.936
323.68	9.205
323.89	8.011
324.10	10.237
324.31	7.424
324.52	10.067
324.73	9.865
324.93	7.918
325.14	10.868
325.35	10.916
325.56	8.264
325.77	11.224
325.98	7.249
326.19	6.365
326.39	6.583
326.60	10.140
326.81	9.631
327.02	5.629
327.23	6.670
327.44	9.875
327.64	5.572
327.85	6.178
328.06	10.170
328.27	11.198
328.48	11.257
328.69	7.283
328.90	7.886
329.10	8.033
329.31	8.192
329.52	9.498
329.73	9.561
329.94	7.468
330.15	11.521
330.35	8.315
330.56	9.352
330.77	7.218
330.98	10.757
331.19	7.665
331.39	8.725
331.60	10.318
331.81	9.558
332.02	11.475
332.23	10.299
332.44	6.463
332.64	8.720
332.85	9.877
333.06	10.967
333.27	7.413
333.48	9.990
333.68	8.793
333.89	6.894
334.10	7.719
334.31	12.213
334.52	8.599
334.72	8.869
334.93	8.209
335.14	9.186
335.35	9.011
335.56	10.677
335.76	6.504
335.97	9.304
336.18	9.696
336.39	10.316
336.60	10.599
336.80	9.531
337.01	6.907
337.22	10.069
337.43	9.335
337.64	9.773
337.84	9.078
338.05	8.764
338.26	12.762
338.47	11.838
338.68	8.822
338.88	11.307
339.09	9.059
339.30	9.738
339.51	7.918
339.71	10.874
339.92	9.834
340.13	10.727
340.34	9.599
340.55	8.793
340.75	11.719
340.96	7.626
341.17	10.873
341.38	8.200
341.58	10.982
341.79	9.623
342.00	9.648
342.21	10.515
342.41	6.955
342.62	9.532
342.83	10.235
343.04	6.448
343.24	10.480
343.45	11.464
343.66	10.240
343.87	10.788
344.07	9.362
344.28	10.277
344.49	9.977
344.70	12.602
344.90	9.661
345.11	9.648
345.32	9.725
345.53	9.479
345.73	11.464
345.94	14.423
346.15	11.810
346.36	11.613
346.56	11.577
346.77	12.547
346.98	11.967
347.19	13.976
347.39	10.113
347.60	11.466
347.81	12.124
348.02	12.898
348.22	10.169
348.43	12.067
348.64	10.825
348.84	12.877
349.05	12.767
349.26	14.515
349.47	11.350
349.67	11.560
349.88	14.583
350.09	11.963
350.30	16.740
350.50	13.904
350.71	12.380
350.92	14.834
351.12	13.370
351.33	13.367
351.54	13.056
351.74	14.916
351.95	13.974
352.16	15.015
352.37	14.756
352.57	14.640
352.78	13.057
352.99	16.935
353.19	13.319
353.40	14.169
353.61	15.752
353.82	18.035
354.02	14.374
354.23	14.232
354.44	17.316
354.64	15.137
354.85	15.945
355.06	16.453
355.26	13.204
355.47	17.144
355.68	17.455
355.88	18.748
356.09	16.945
356.30	15.726
356.51	18.470
356.71	16.618
356.92	14.323
357.13	18.710
357.33	19.580
357.54	18.094
357.75	13.500
357.95	18.181
358.16	15.308
358.37	19.967
358.57	15.216
358.78	19.910
358.99	17.679
359.19	18.521
359.40	18.039
359.61	18.142
359.81	20.317
360.02	19.516
360.23	17.158
360.43	17.904
360.64	16.220
360.85	17.858
361.05	15.885
361.26	21.608
361.47	19.048
361.67	19.905
361.88	15.800
362.09	19.486
362.29	16.464
362.50	18.249
362.70	16.276
362.91	20.298
363.12	18.343
363.32	18.949
363.53	19.020
363.74	19.946
363.94	17.034
364.15	20.382
364.36	19.673
364.56	18.070
364.77	19.878
364.98	21.139
365.18	18.389
365.39	19.327
365.59	15.643
365.80	18.820
366.01	20.320
366.21	17.953
366.42	18.363
366.63	19.996
366.83	19.784
367.04	16.815
367.24	19.586
367.45	17.622
367.66	17.129
367.86	19.312
368.07	18.678
368.28	18.292
368.48	16.771
368.69	16.977
368.89	18.030
369.10	18.558
369.31	16.404
369.51	17.933
369.72	20.209
369.92	19.176
370.13	18.165
370.34	19.541
370.54	14.010
370.75	18.573
370.95	16.307
371.16	18.749
371.37	16.729
371.57	17.247
371.78	16.523
371.98	18.199
372.19	18.778
372.40	19.251
372.60	17.312
372.81	18.427
373.01	15.688
373.22	17.714
373.43	18.321
373.63	18.673
373.84	17.492
374.04	17.356
374.25	17.970
374.46	17.926
374.66	17.785
374.87	19.200
375.07	14.389
375.28	17.433
375.48	17.184
375.69	18.804
375.90	14.962
376.10	16.233
376.31	15.569
376.51	17.394
376.72	15.901
376.92	15.829
377.13	17.662
377.34	18.897
377.54	17.422
377.75	18.827
377.95	16.333
378.16	17.327
378.36	17.848
378.57	17.435
378.77	17.092
378.98	18.397
379.19	16.522
379.39	17.139
379.60	16.748
379.80	18.021
380.01	17.336
380.21	16.506
380.42	17.921
380.62	18.256
380.83	17.709
381.04	16.463
381.24	17.834
381.45	18.458
381.65	15.503
381.86	17.817
382.06	17.582
382.27	15.992
382.47	15.495
382.68	18.442
382.88	15.508
383.09	16.837
383.29	15.322
383.50	18.590
383.71	16.319
383.91	16.779
384.12	15.612
384.32	17.527
384.53	16.236
384.73	15.502
384.94	15.165
385.14	16.029
385.35	15.744
385.55	16.079
385.76	15.444
385.96	16.070
386.17	17.267
386.37	17.553
386.58	16.129
386.78	17.476
386.99	14.917
387.19	17.148
387.40	14.781
387.60	17.829
387.81	15.644
388.01	16.454
388.22	16.534
388.42	17.848
388.63	16.921
388.83	16.861
389.04	15.512
389.24	17.130
389.45	15.930
389.65	16.148
389.86	15.947
390.06	15.859
390.27	15.482
390.47	16.416
390.68	15.852
390.88	17.320
391.09	16.166
391.29	17.473
391.50	15.627
391.70	16.582
391.91	15.441
392.11	16.020
392.32	16.284
392.52	16.942
392.73	16.046
392.93	16.881
393.14	16.333
393.34	16.070
393.55	17.348
393.75	16.948
393.95	15.953
394.16	16.726
394.36	16.839
394.57	17.480
394.77	16.443
394.98	15.603
395.18	16.374
395.39	16.140
395.59	17.225
395.80	15.486
396.00	16.398
396.21	16.722
396.41	15.112
396.61	16.727
396.82	16.441
397.02	17.137
397.23	17.316
397.43	16.909
397.64	15.077
397.84	17.951
398.05	14.268
398.25	16.684
398.45	15.468
398.66	17.097
398.86	16.278
399.07	17.673
399.27	14.726
399.48	16.803
399.68	15.559
399.89	15.568
400.09	16.084
400.29	15.900
400.50	15.125
400.70	16.923
400.91	14.913
401.11	15.992
401.32	15.727
401.52	14.907
401.72	15.856
401.93	16.670
402.13	15.545
402.34	15.739
402.54	15.546
402.75	16.912
402.95	14.151
403.15	17.300
403.36	14.795
403.56	16.358
403.77	14.387
403.97	15.789
404.17	14.517
404.38	16.301
404.58	14.669
404.79	15.671
404.99	15.997
405.19	15.278
405.40	14.931
405.60	15.559
405.81	15.520
406.01	15.628
406.21	14.788
406.42	16.105
406.62	15.720
406.83	15.793
407.03	16.037
407.23	14.970
407.44	15.597
407.64	15.813
407.85	15.394
408.05	15.922
408.25	14.798
408.46	16.173
408.66	15.434
408.87	15.181
409.07	14.513
409.27	15.569
409.48	14.488
409.68	15.636
409.88	14.249
410.09	14.904
410.29	15.400
410.50	16.640
410.70	13.778
410.90	14.883
411.11	14.101
411.31	14.941
411.51	15.401
411.72	16.018
411.92	14.283
412.12	15.491
412.33	14.134
412.53	14.574
412.74	13.398
412.94	15.001
413.14	14.973
413.35	15.338
413.55	14.884
413.75	15.995
413.96	13.611
414.16	14.684
414.36	14.422
414.57	15.184
414.77	14.022
414.97	14.864
415.18	14.350
415.38	14.344
415.58	14.614
415.79	14.538
415.99	14.274
416.19	14.650
416.40	14.588
416.60	14.044
416.80	14.283
417.01	14.962
417.21	13.553
417.41	15.666
417.62	14.380
417.82	14.954
418.02	14.356
418.23	15.557
418.43	13.594
418.63	14.975
418.84	14.442
419.04	14.070
419.24	14.975
419.45	15.494
419.65	14.965
419.85	14.827
420.06	14.858
420.26	15.311
420.46	14.755
420.67	15.391
420.87	14.354
421.07	15.014
421.28	14.568
421.48	15.025
421.68	14.528
421.88	15.048
422.09	14.472
422.29	15.160
422.49	14.824
422.70	15.107
422.90	14.835
423.10	14.747
423.31	14.827
423.51	15.243
423.71	14.610
423.91	14.907
424.12	14.396
424.32	15.105
424.52	14.764
424.73	14.705
424.93	14.504
425.13	14.920
425.33	14.637
425.54	14.691
425.74	14.678
425.94	14.912
426.15	14.811
426.35	14.722
426.55	14.722
426.75	14.695
426.96	14.600
427.16	15.343
427.36	15.337
427.57	14.976
427.77	14.754
427.97	14.617
428.17	15.005
428.38	14.576
428.58	14.088
428.78	15.045
428.98	14.031
429.19	15.183
429.39	13.745
429.59	14.563
429.79	13.121
430.00	14.050
430.20	13.715
430.40	15.144
430.60	13.735
430.81	14.218
431.01	13.621
431.21	14.013
431.41	13.611
431.62	13.882
431.82	13.831
432.02	15.077
432.22	13.476
432.43	13.976
432.63	13.342
432.83	14.587
433.03	13.458
433.24	13.832
433.44	14.114
433.64	14.164
433.84	14.351
434.05	14.100
434.25	13.825
434.45	14.320
434.65	14.367
434.85	14.513
435.06	14.681
435.26	14.136
435.46	14.479
435.66	14.656
435.87	13.812
436.07	14.648
436.27	13.791
436.47	14.197
436.67	13.772
436.88	14.341
437.08	13.929
437.28	14.188
437.48	13.657
437.69	14.819
437.89	13.664
438.09	14.752
438.29	13.521
438.49	14.459
438.70	14.371
438.90	14.133
439.10	14.088
439.30	13.966
439.50	13.723
439.71	13.745
439.91	13.594
440.11	14.477
440.31	13.834
440.51	13.886
440.72	13.641
440.92	14.094
441.12	13.602
441.32	13.852
441.52	13.765
441.72	13.687
441.93	14.449
442.13	14.341
442.33	14.040
442.53	14.476
442.73	14.175
442.94	14.627
443.14	14.124
443.34	14.741
443.54	14.112
443.74	14.507
443.94	14.313
444.15	13.813
444.35	13.588
444.55	14.216
444.75	14.110
444.95	14.572
445.15	14.268
445.36	13.915
445.56	13.287
445.76	13.972
445.96	13.650
446.16	13.369
446.36	13.776
446.57	13.769
446.77	13.578
446.97	13.351
447.17	14.213
447.37	14.191
447.57	13.524
447.77	13.881
447.98	13.768
448.18	13.920
448.38	13.947
448.58	13.963
448.78	14.061
448.98	13.999
449.18	13.832
449.39	14.688
449.59	14.361
449.79	14.415
449.99	13.439
450.19	14.678
450.39	14.329
450.59	14.415
450.79	13.614
451.00	14.549
451.20	14.989
451.40	14.059
451.60	13.913
451.80	14.080
452.00	13.653
452.20	13.661
452.40	13.652
452.61	14.539
452.81	13.223
453.01	13.886
453.21	13.912
453.41	14.176
453.61	13.905
453.81	13.754
454.01	13.882
454.21	14.113
454.42	13.788
454.62	14.309
454.82	13.734
455.02	14.104
455.22	12.934
455.42	14.092
455.62	13.443
455.82	14.099
456.02	13.704
456.23	13.730
456.43	13.534
456.63	13.919
456.83	13.508
457.03	13.911
457.23	12.902
457.43	13.661
457.63	13.039
457.83	13.319
458.03	13.335
458.23	13.620
458.43	12.688
458.64	13.474
458.84	13.570
459.04	13.412
459.24	13.765
459.44	12.948
459.64	13.127
459.84	13.595
460.04	13.184
460.24	13.707
460.44	13.748
460.64	13.908
460.84	13.282
461.04	13.663
461.24	13.556
461.45	13.671
461.65	14.263
461.85	14.094
462.05	13.916
462.25	14.076
462.45	13.990
462.65	13.947
462.85	13.104
463.05	14.373
463.25	13.506
463.45	14.143
463.65	13.666
463.85	13.826
464.05	13.757
464.25	13.728
464.45	13.714
464.65	13.144
464.85	13.159
465.05	13.151
465.26	13.701
465.46	14.380
465.66	13.738
465.86	13.973
466.06	13.601
466.26	13.977
466.46	12.971
466.66	13.568
466.86	13.526
467.06	13.366
467.26	13.049
467.46	13.785
467.66	13.585
467.86	14.000
468.06	13.546
468.26	13.184
468.46	13.785
468.66	13.841
468.86	12.863
469.06	13.753
469.26	13.597
469.46	13.180
469.66	13.030
469.86	13.984
470.06	13.362
470.26	13.726
470.46	13.063
470.66	13.765
470.86	13.310
471.06	13.600
471.26	12.800
471.46	13.114
471.66	13.292
471.86	13.245
472.06	13.308
472.26	13.983
472.46	13.189
472.66	13.418
472.86	13.299
473.06	13.235
473.26	13.017
473.46	12.981
473.66	13.690
473.86	13.830
474.06	13.092
474.26	13.786
474.46	12.981
474.66	13.921
474.86	13.432
475.06	13.881
475.26	13.155
475.46	14.076
475.66	12.685
475.86	13.666
476.06	13.470
476.26	13.705
476.46	13.608
476.66	13.322
476.86	12.935
477.06	13.749
477.26	13.500
477.46	13.780
477.65	13.165
477.85	13.555
478.05	13.031
478.25	14.157
478.45	13.191
478.65	13.463
478.85	12.878
479.05	13.207
479.25	13.532
479.45	13.795
479.65	13.381
479.85	13.575
480.05	13.214
480.25	13.983
480.45	13.534
480.65	13.714
480.85	13.120
481.05	14.014
481.25	13.502
481.44	13.801
481.64	12.608
481.84	14.075
482.04	13.606
482.24	14.074
482.44	13.354
482.64	13.090
482.84	13.311
483.04	13.309
483.24	12.685
483.44	12.859
483.64	12.653
483.84	12.529
484.04	12.745
484.23	13.177
484.43	13.446
484.63	14.650
484.83	14.993
485.03	15.825
485.23	15.635
485.43	15.611
485.63	15.240
485.83	14.717
486.03	13.746
486.23	14.029
486.42	13.934
486.62	14.037
486.82	13.480
487.02	13.711
487.22	13.394
487.42	13.617
487.62	13.302
487.82	13.330
488.02	13.425
488.22	13.418
488.41	13.392
488.61	13.675
488.81	13.633
489.01	13.869
489.21	14.015
489.41	13.957
489.61	13.774
489.81	14.213
490.01	14.116
490.20	14.250
490.40	14.005
490.60	13.792
490.80	13.520
491.00	13.602
491.20	13.391
491.40	13.528
491.60	13.169
491.79	13.192
491.99	13.209
492.19	13.471
492.39	13.226
492.59	13.699
492.79	13.668
492.99	13.851
493.19	13.664
493.38	14.053
493.58	14.149
493.78	14.269
493.98	14.102
494.18	14.303
494.38	14.157
494.58	13.817
494.77	14.231
494.97	14.005
495.17	13.908
495.37	14.224
495.57	14.087
495.77	13.646
495.96	13.781
496.16	13.939
496.36	13.876
496.56	13.707
496.76	13.316
496.96	13.725
497.15	13.703
497.35	13.875
497.55	13.655
497.75	13.583
497.95	13.742
498.15	13.704
498.34	13.608
498.54	13.903
498.74	13.807
498.94	14.129
499.14	13.692
499.34	13.825
499.53	13.664
499.73	14.205
499.93	13.797
500.13	14.031
500.33	13.552
500.52	14.239
500.72	13.896
500.92	14.238
501.12	13.708
501.32	14.203
501.52	14.015
501.71	14.620
501.91	13.548
502.11	14.066
502.31	13.908
502.51	13.571
502.70	14.256
502.90	14.043
503.10	13.698
503.30	13.979
503.50	14.250
503.69	13.741
503.89	13.964
504.09	13.955
504.29	13.862
504.48	13.836
504.68	13.912
504.88	14.373
505.08	13.398
505.28	13.891
505.47	13.900
505.67	14.279
505.87	13.964
506.07	13.662
506.27	13.933
506.46	13.909
506.66	13.775
506.86	13.954
507.06	14.500
507.25	14.386
507.45	14.362
507.65	14.178
507.85	13.688
508.04	14.168
508.24	14.435
508.44	14.498
508.64	14.080
508.83	14.153
509.03	13.892
509.23	14.119
509.43	13.812
509.63	14.190
509.82	14.343
510.02	13.916
510.22	14.251
510.42	14.624
510.61	13.972
510.81	14.374
511.01	14.583
511.21	14.085
511.40	13.804
511.60	14.573
511.80	14.548
511.99	14.002
512.19	14.082
512.39	14.872
512.59	14.238
512.78	14.337
512.98	14.276
513.18	14.548
513.38	14.331
513.57	14.155
513.77	14.449
513.97	14.886
514.17	14.233
514.36	14.653
514.56	14.483
514.76	14.575
514.95	14.551
515.15	14.774
515.35	14.135
515.55	14.536
515.74	14.719
515.94	14.828
516.14	14.093
516.33	14.390
516.53	14.282
516.73	14.391
516.93	13.936
517.12	14.537
517.32	14.129
517.52	14.369
517.71	14.130
517.91	14.288
518.11	14.554
518.30	14.049
518.50	14.060
518.70	14.035
518.90	14.259
519.09	14.462
519.29	14.637
519.49	14.348
519.68	14.168
519.88	14.662
520.08	14.620
520.27	14.600
520.47	14.776
520.67	14.888
520.86	14.655
521.06	15.058
521.26	14.701
521.45	14.656
521.65	14.921
521.85	14.901
522.04	14.598
522.24	14.676
522.44	14.752
522.63	14.863
522.83	14.781
523.03	14.568
523.22	14.605
523.42	15.171
523.62	14.784
523.81	14.960
524.01	14.966
524.21	14.893
524.40	14.811
524.60	14.868
524.80	14.458
524.99	14.604
525.19	14.329
525.39	14.614
525.58	14.422
525.78	14.389
525.98	14.322
526.17	14.920
526.37	14.388
526.57	14.804
526.76	14.818
526.96	14.660
527.15	14.666
527.35	14.772
527.55	14.565
527.74	14.846
527.94	14.567
528.14	14.410
528.33	13.736
528.53	14.158
528.72	14.205
528.92	14.535
529.12	14.580
529.31	14.803
529.51	14.741
529.71	14.966
529.90	15.154
530.10	15.406
530.29	14.998
530.49	15.423
530.69	15.330
530.88	15.707
531.08	15.321
531.28	15.347
531.47	15.067
531.67	15.398
531.86	15.107
532.06	15.236
532.26	14.833
532.45	15.100
532.65	14.879
532.84	14.901
533.04	14.797
533.24	14.505
533.43	14.768
533.63	14.896
533.82	14.937
534.02	14.652
534.22	14.962
534.41	15.071
534.61	15.062
534.80	15.239
535.00	15.288
535.19	15.590
535.39	15.673
535.59	15.530
535.78	15.455
535.98	15.077
536.17	15.366
536.37	15.020
536.57	15.004
536.76	15.256
536.96	15.114
537.15	15.628
537.35	15.446
537.54	15.519
537.74	15.547
537.93	15.490
538.13	15.317
538.33	15.791
538.52	15.579
538.72	16.239
538.91	15.991
539.11	15.981
539.30	15.767
539.50	16.046
539.70	15.898
539.89	15.924
540.09	15.369
540.28	15.697
540.48	15.452
540.67	15.379
540.87	15.181
541.06	15.263
541.26	14.849
541.45	15.073
541.65	15.497
541.85	15.593
542.04	15.621
542.24	15.789
542.43	15.433
542.63	15.751
542.82	15.885
543.02	16.335
543.21	16.285
543.41	16.337
543.60	16.425
543.80	16.142
543.99	16.249
544.19	16.031
544.38	16.213
544.58	16.411
544.77	16.068
544.97	16.317
545.16	16.495
545.36	16.677
545.56	16.631
545.75	16.311
545.95	16.347
546.14	16.461
546.34	16.734
546.53	16.241
546.73	16.186
546.92	16.540
547.12	16.557
547.31	16.607
547.51	16.577
547.70	17.108
547.90	16.509
548.09	17.132
548.29	16.948
548.48	17.362
548.68	17.307
548.87	17.379
549.07	17.191
549.26	17.185
549.46	17.871
549.65	17.741
549.84	17.723
550.04	17.624
550.23	17.775
550.43	17.279
550.62	17.755
550.82	17.562
551.01	17.342
551.21	17.631
551.40	17.144
551.60	18.005
551.79	17.601
551.99	17.731
552.18	17.656
552.38	18.060
552.57	17.951
552.77	17.549
552.96	17.729
553.16	17.870
553.35	17.766
553.54	18.108
553.74	18.217
553.93	18.099
554.13	18.259
554.32	18.643
554.52	18.919
554.71	18.236
554.91	18.133
555.10	18.318
555.29	18.701
555.49	19.003
555.68	18.526
555.88	18.740
556.07	18.558
556.27	19.378
556.46	19.526
556.66	18.654
556.85	19.054
557.04	19.149
557.24	18.864
557.43	19.829
557.63	19.914
557.82	19.413
558.02	18.905
558.21	20.063
558.40	19.129
558.60	20.016
558.79	19.621
558.99	19.758
559.18	19.581
559.38	20.113
559.57	19.773
559.76	20.311
559.96	21.184
560.15	20.186
560.35	19.737
560.54	19.693
560.73	19.889
560.93	20.524
561.12	20.472
561.32	21.037
561.51	20.748
561.70	20.185
561.90	20.115
562.09	20.769
562.29	21.150
562.48	20.765
562.67	21.664
562.87	21.388
563.06	20.932
563.26	20.804
563.45	20.687
563.64	21.574
563.84	21.648
564.03	21.685
564.23	21.472
564.42	21.386
564.61	21.095
564.81	21.826
565.00	21.739
565.20	21.347
565.39	22.307
565.58	21.915
565.78	20.967
565.97	22.051
566.16	21.228
566.36	22.153
566.55	21.868
566.74	22.149
566.94	21.822
567.13	22.241
567.33	22.220
567.52	22.081
567.71	22.502
567.91	22.731
568.10	22.469
568.29	23.024
568.49	22.896
568.68	22.852
568.87	22.777
569.07	23.396
569.26	22.874
569.45	23.500
569.65	22.653
569.84	23.461
570.04	22.829
570.23	23.008
570.42	22.323
570.62	22.976
570.81	23.084
571.00	23.220
571.20	22.639
571.39	23.223
571.58	23.490
571.78	23.281
571.97	23.467
572.16	23.222
572.36	22.704
572.55	23.721
572.74	23.011
572.94	23.368
573.13	23.312
573.32	22.896
573.51	23.606
573.71	23.457
573.90	23.619
574.09	23.453
574.29	24.157
574.48	24.090
574.67	23.366
574.87	23.612
575.06	23.004
575.25	23.887
575.45	23.543
575.64	23.920
575.83	23.171
576.03	24.366
576.22	23.392
576.41	24.425
576.60	23.801
576.80	23.943
576.99	23.381
577.18	24.134
577.38	24.120
577.57	24.249
577.76	24.360
577.95	24.473
578.15	23.707
578.34	24.236
578.53	24.120
578.73	23.711
578.92	23.524
579.11	24.171
579.30	24.038
579.50	24.019
579.69	24.120
579.88	24.664
580.08	24.004
580.27	25.006
580.46	24.534
580.65	24.345
580.85	24.189
581.04	24.222
581.23	23.453
581.42	24.349
581.62	24.708
581.81	24.321
582.00	23.565
582.19	24.271
582.39	23.767
582.58	23.483
582.77	24.327
582.96	23.796
583.16	23.452
583.35	24.816
583.54	23.774
583.73	24.546
583.93	23.464
584.12	24.021
584.31	24.457
584.50	24.202
584.70	23.658
584.89	23.621
585.08	24.058
585.27	24.468
585.47	23.483
585.66	24.505
585.85	23.262
586.04	23.896
586.24	24.438
586.43	24.393
586.62	23.707
586.81	23.856
587.00	22.960
587.20	24.134
587.39	23.146
587.58	23.531
587.77	23.705
587.97	23.634
588.16	23.774
588.35	24.078
588.54	23.588
588.73	23.787
588.93	23.613
589.12	23.572
589.31	23.430
589.50	23.055
589.69	22.479
589.89	23.013
590.08	23.722
590.27	24.095
590.46	23.281
590.65	23.564
590.85	23.412
591.04	24.438
591.23	23.505
591.42	23.455
591.61	23.029
591.81	23.872
592.00	23.250
592.19	23.714
592.38	24.437
592.57	24.475
592.77	23.478
592.96	23.702
593.15	23.707
593.34	23.650
593.53	23.372
593.72	23.466
593.92	24.194
594.11	23.718
594.30	23.049
594.49	24.126
594.68	23.114
594.87	24.194
595.07	23.718
595.26	23.637
595.45	23.745
595.64	24.781
595.83	23.719
596.02	23.577
596.22	24.588
596.41	23.635
596.60	24.122
596.79	24.352
596.98	24.540
597.17	23.907
597.37	23.638
597.56	23.333
597.75	23.956
597.94	24.563
598.13	23.589
598.32	24.246
598.51	23.767
598.71	24.291
598.90	25.196
599.09	24.422
599.28	24.472
599.47	24.142
599.66	24.232
599.85	24.428
600.05	24.073
600.24	25.423
600.43	24.439
600.62	24.659
600.81	24.838
601.00	24.900
601.19	24.677
601.38	24.954
601.58	25.386
601.77	24.834
601.96	24.814
602.15	25.373
602.34	25.070
602.53	25.083
602.72	24.314
602.91	25.119
603.10	24.430
603.30	24.451
603.49	24.742
603.68	25.350
603.87	24.733
604.06	24.792
604.25	24.546
604.44	24.801
604.63	24.628
604.82	24.956
605.01	24.758
605.21	25.292
605.40	24.688
605.59	25.132
605.78	24.824
605.97	24.578
606.16	24.749
606.35	24.603
606.54	24.837
606.73	25.656
606.92	24.802
607.11	25.545
607.30	24.636
607.50	25.384
607.69	25.244
607.88	25.739
608.07	24.676
608.26	25.900
608.45	25.413
608.64	25.003
608.83	23.199
609.02	24.938
609.21	24.408
609.40	24.623
609.59	24.254
609.78	24.251
609.97	24.623
610.16	24.581
610.35	24.132
610.55	24.529
610.74	24.408
610.93	24.238
611.12	24.220
611.31	25.437
611.50	23.962
611.69	24.492
611.88	24.645
612.07	24.321
612.26	24.370
612.45	24.971
612.64	24.107
612.83	25.233
613.02	24.242
613.21	23.909
613.40	24.089
613.59	24.355
613.78	23.322
613.97	24.284
614.16	23.790
614.35	24.166
614.54	24.183
614.73	23.739
614.92	23.582
615.11	24.122
615.30	22.848
615.49	23.484
615.68	22.480
615.87	24.158
616.07	23.092
616.26	22.602
616.45	23.095
616.64	24.593
616.83	23.537
617.02	23.427
617.21	23.119
617.40	22.921
617.59	23.032
617.78	24.398
617.97	23.138
618.16	23.343
618.35	22.080
618.54	23.680
618.73	23.225
618.92	23.747
619.11	23.313
619.30	22.911
619.49	22.377
619.68	23.319
619.86	22.013
620.05	22.671
620.24	21.455
620.43	22.681
620.62	21.812
620.81	21.781
621.00	21.429
621.19	22.633
621.38	22.610
621.57	22.950
621.76	22.050
621.95	22.795
622.14	22.419
622.33	22.847
622.52	21.344
622.71	22.892
622.90	21.998
623.09	22.488
623.28	21.472
623.47	22.339
623.66	21.919
623.85	22.243
624.04	22.502
624.23	22.380
624.42	22.110
624.61	22.062
624.80	21.433
624.99	22.304
625.18	21.920
625.36	21.627
625.55	21.030
625.74	22.405
625.93	20.810
626.12	22.544
626.31	21.826
626.50	22.487
626.69	22.205
626.88	22.307
627.07	22.563
627.26	21.584
627.45	22.615
627.64	21.380
627.83	21.871
628.02	20.883
628.20	21.667
628.39	22.367
628.58	21.614
628.77	22.224
628.96	21.652
629.15	21.250
629.34	21.075
629.53	22.301
629.72	21.505
629.91	21.985
630.10	21.386
630.29	21.949
630.47	21.823
630.66	21.231
630.85	21.965
631.04	20.893
631.23	21.385
631.42	21.365
631.61	21.198
631.80	22.042
631.99	21.335
632.18	21.566
632.36	20.341
632.55	22.080
632.74	20.715
632.93	20.905
633.12	20.145
633.31	21.839
633.50	21.288
633.69	19.904
633.88	20.680
634.06	21.134
634.25	21.010
634.44	21.415
634.63	20.691
634.82	22.361
635.01	20.967
635.20	21.029
635.39	20.711
635.57	21.398
635.76	21.276
635.95	20.476
636.14	20.231
636.33	21.956
636.52	21.002
636.71	21.008
636.89	21.099
637.08	20.511
637.27	21.834
637.46	21.260
637.65	20.967
637.84	22.135
638.03	20.326
638.21	21.931
638.40	21.584
638.59	21.326
638.78	20.822
638.97	21.436
639.16	20.771
639.34	21.518
639.53	20.825
639.72	21.252
639.91	20.454
640.10	20.508
640.29	21.608
640.47	21.942
640.66	20.920
640.85	22.140
641.04	20.426
641.23	20.605
641.42	21.278
641.60	20.630
641.79	20.218
641.98	20.989
642.17	20.967
642.36	20.355
642.54	21.095
642.73	20.219
642.92	19.207
643.11	21.028
643.30	19.680
643.49	21.132
643.67	19.154
643.86	20.637
644.05	21.251
644.24	21.267
644.43	20.140
644.61	21.130
644.80	20.304
644.99	21.619
645.18	20.844
645.37	20.840
645.55	20.293
645.74	21.569
645.93	20.933
646.12	21.707
646.31	21.177
646.49	20.797
646.68	21.181
646.87	21.062
647.06	20.028
647.24	21.484
647.43	19.393
647.62	21.348
647.81	19.470
648.00	20.247
648.18	19.770
648.37	20.351
648.56	21.387
648.75	21.047
648.93	20.198
649.12	20.774
649.31	20.406
649.50	20.108
649.68	20.078
649.87	20.862
650.06	19.911
650.25	20.374
650.43	19.380
650.62	20.197
650.81	20.970
651.00	20.397
651.18	20.292
651.37	22.143
651.56	18.949
651.75	21.150
651.93	19.428
652.12	21.809
652.31	20.168
652.50	21.288
652.68	21.262
652.87	22.211
653.06	20.246
653.25	20.097
653.43	19.614
653.62	20.965
653.81	20.844
654.00	21.109
654.18	19.078
654.37	19.829
654.56	20.856
654.74	18.634
654.93	19.575
655.12	19.564
655.31	18.651
655.49	20.612
655.68	18.365
655.87	18.430
656.05	16.900
656.24	18.848
656.43	17.766
656.62	19.559
656.80	18.854
656.99	17.940
657.18	17.183
657.36	19.081
657.55	18.649
657.74	20.023
657.93	18.658
658.11	20.243
658.30	17.300
658.49	16.993
658.67	17.833
658.86	17.025
659.05	16.305
659.23	18.199
659.42	16.581
659.61	18.361
659.79	17.716
659.98	17.564
660.17	17.510
660.35	19.047
660.54	17.966
660.73	17.073
660.91	17.886
661.10	17.704
661.29	16.096
661.47	17.787
661.66	16.488
661.85	16.821
662.03	17.779
662.22	16.323
662.41	14.945
662.59	15.631
662.78	15.553
662.97	16.309
663.15	14.961
663.34	15.585
663.53	14.834
663.71	14.732
663.90	14.222
664.09	16.526
664.27	14.311
664.46	14.596
664.65	15.027
664.83	14.187
665.02	13.064
665.21	12.851
665.39	12.890
665.58	15.787
665.77	13.357
665.95	13.871
666.14	13.362
666.32	13.481
666.51	12.577
666.70	13.104
666.88	13.379
667.07	14.222
667.26	11.197
667.44	13.862
667.63	13.589
667.81	12.904
668.00	13.759
668.19	16.099
668.37	13.295
668.56	14.812
668.75	11.886
668.93	14.423
669.12	12.254
669.30	13.841
669.49	12.695
669.68	14.670
669.86	13.463
670.05	12.931
670.23	11.485
670.42	12.014
670.61	13.527
670.79	14.717
670.98	14.690
671.16	15.509
671.35	11.860
671.54	14.372
671.72	12.741
671.91	13.468
672.09	11.740
672.28	14.381
672.46	14.343
672.65	15.114
672.84	13.235
673.02	14.369
673.21	10.876
673.39	12.809
673.58	13.985
673.77	13.111
673.95	13.480
674.14	15.149
674.32	11.843
674.51	16.249
674.69	13.059
674.88	15.013
675.07	12.136
675.25	16.420
675.44	14.668
675.62	14.324
675.81	13.928
675.99	15.877
676.18	14.549
676.36	12.901
676.55	14.086
676.74	16.499
676.92	15.338
677.11	13.943
677.29	12.772
677.48	16.464
677.66	14.423
677.85	14.623
678.03	14.759
678.22	16.127
678.40	14.643
678.59	13.896
678.78	14.114
678.96	12.990
679.15	14.605
679.33	15.218
679.52	15.128
679.70	15.480
679.89	15.251
680.07	15.936
680.26	14.297
680.44	14.526
680.63	14.797
680.81	15.414
681.00	13.747
681.18	13.852
681.37	14.664
681.55	16.765
681.74	16.220
681.92	16.616
682.11	16.776
682.29	15.375
682.48	17.169
682.66	17.099
682.85	15.098
683.03	16.617
683.22	16.549
683.40	17.073
683.59	16.563
683.77	16.365
683.96	13.647
684.14	18.538
684.33	14.147
684.51	20.183
684.70	17.623
684.88	18.744
685.07	17.041
685.25	18.223
685.44	15.805
685.62	19.612
685.81	15.935
685.99	19.331
686.18	15.836
686.36	18.001
686.55	15.760
686.73	18.968
686.92	18.485
687.10	19.001
687.29	19.414
687.47	20.081
687.65	18.677
687.84	17.909
688.02	19.402
688.21	22.639
688.39	18.521
688.58	20.635
688.76	20.227
688.95	19.261
689.13	19.742
689.32	22.099
689.50	20.289
689.68	22.222
689.87	20.790
690.05	23.461
690.24	22.157
690.42	23.318
690.61	21.418
690.79	22.325
690.98	22.681
691.16	22.933
691.34	23.174
691.53	25.690
691.71	23.421
691.90	24.601
692.08	23.371
692.27	26.741
692.45	25.394
692.63	25.135
692.82	27.431
693.00	27.290
693.19	25.287
693.37	27.860
693.56	28.029
693.74	28.566
693.92	28.898
694.11	30.922
694.29	28.468
694.48	28.463
694.66	29.856
694.84	29.891
695.03	28.390
695.21	33.472
695.40	28.959
695.58	32.509
695.76	29.642
695.95	31.669
696.13	32.980
696.32	33.627
696.50	35.940
696.68	32.572
696.87	31.393
697.05	34.381
697.24	33.978
697.42	34.943
697.60	32.970
697.79	34.412
697.97	36.151
698.16	35.831
698.34	33.548
698.52	35.965
698.71	33.848
698.89	35.613
699.07	34.502
699.26	34.955
699.44	35.411
699.63	36.487
699.81	35.509
699.99	36.055
700.18	36.911
700.36	37.555
700.54	37.733
700.73	36.351
700.91	35.434
701.09	36.908
701.28	37.360
701.46	38.918
701.64	36.889
701.83	37.496
702.01	37.503
702.20	40.595
702.38	39.776
702.56	39.909
702.75	40.376
702.93	39.290
703.11	39.793
703.30	40.585
703.48	40.644
703.66	40.535
703.85	41.029
704.03	42.346
704.21	41.686
704.40	42.498
704.58	40.441
704.76	42.296
704.95	41.348
705.13	43.442
705.31	40.166
705.50	43.836
705.68	41.310
705.86	43.606
706.04	43.699
706.23	42.649
706.41	41.888
706.59	43.631
706.78	40.532
706.96	44.323
707.14	43.528
707.33	44.255
707.51	42.596
707.69	42.436
707.88	42.503
708.06	43.823
708.24	43.299
708.42	47.181
708.61	43.860
708.79	45.132
708.97	43.540
709.16	45.192
709.34	44.671
709.52	43.490
709.71	43.177
709.89	44.315
710.07	43.161
710.25	44.987
710.44	43.891
710.62	43.185
710.80	45.279
710.98	43.015
711.17	42.468
711.35	45.708
711.53	43.901
711.72	44.683
711.90	45.334
712.08	45.869
712.26	42.952
712.45	45.718
712.63	45.575
712.81	44.091
712.99	43.491
713.18	46.178
713.36	43.796
713.54	45.131
713.72	44.842
713.91	45.499
714.09	44.903
714.27	45.572
714.45	44.779
714.64	46.358
714.82	47.292
715.00	46.175
715.18	44.108
715.37	45.759
715.55	44.469
715.73	47.108
715.91	44.200
716.10	46.989
716.28	41.870
716.46	43.784
716.64	44.544
716.83	44.177
717.01	43.319
717.19	47.008
717.37	44.988
717.55	43.714
717.74	43.444
717.92	44.429
718.10	42.369
718.28	45.214
718.47	42.665
718.65	45.678
718.83	43.523
719.01	45.271
719.19	46.861
719.38	44.305
719.56	41.977
719.74	46.157
719.92	43.781
720.10	45.297
720.29	43.491
720.47	47.040
720.65	43.647
720.83	49.372
721.01	43.475
721.20	44.518
721.38	45.173
721.56	45.690
721.74	45.262
721.92	46.305
722.11	45.846
722.29	44.633
722.47	44.669
722.65	47.660
722.83	45.823
723.01	44.878
723.20	43.188
723.38	46.675
723.56	46.287
723.74	47.285
723.92	46.029
724.10	46.423
724.29	43.895
724.47	47.747
724.65	44.865
724.83	47.092
725.01	43.137
725.19	46.575
725.38	44.652
725.56	47.378
725.74	47.298
725.92	47.637
726.10	44.026
726.28	45.476
726.46	47.975
726.65	48.431
726.83	44.858
727.01	45.820
727.19	45.372
727.37	46.844
727.55	47.214
727.73	45.210
727.92	46.297
728.10	44.018
728.28	43.680
728.46	48.210
728.64	46.500
728.82	46.404
729.00	47.141
729.19	46.138
729.37	43.606
729.55	47.853
729.73	46.364
729.91	45.896
730.09	43.365
730.27	46.452
730.45	42.373
730.63	47.388
730.82	47.906
731.00	45.586
731.18	41.977
731.36	49.922
731.54	44.312
731.72	45.580
731.90	46.991
732.08	44.506
732.26	45.364
732.45	47.046
732.63	46.750
732.81	45.857
732.99	45.722
733.17	45.695
733.35	49.943
733.53	47.765
733.71	46.224
733.89	47.517
734.07	50.445
734.25	49.207
734.44	46.131
734.62	49.961
734.80	45.942
734.98	50.911
735.16	46.218
735.34	51.276
735.52	48.658
735.70	46.422
735.88	47.818
736.06	48.290
736.24	48.749
736.42	50.192
736.60	50.527
736.78	49.367
736.97	48.357
737.15	51.009
737.33	50.674
737.51	51.762
737.69	48.273
737.87	49.895
738.05	51.528
738.23	49.508
738.41	47.558
738.59	48.803
738.77	48.676
738.95	53.679
739.13	49.090
739.31	51.549
739.49	50.353
739.67	49.910
739.85	48.151
740.03	53.464
740.21	50.866
740.39	51.289
740.57	50.411
740.75	48.901
740.93	48.993
741.11	47.895
741.30	49.739
741.48	51.780
741.66	52.526
741.84	50.674
742.02	48.584
742.20	51.763
742.38	50.885
742.56	54.958
742.74	50.343
742.92	48.832
743.10	47.089
743.28	53.272
743.46	50.449
743.64	51.804
743.82	49.987
744.00	53.118
744.18	52.532
744.36	49.307
744.54	49.381
744.72	54.246
744.90	52.815
745.08	56.802
745.26	50.873
745.44	56.128
745.62	45.969
745.80	51.562
745.98	51.670
746.16	57.422
746.34	51.407
746.52	51.398
746.70	52.352
746.87	54.616
747.05	54.817
747.23	54.773
747.41	53.042
747.59	57.139
747.77	49.506
747.95	53.444
748.13	50.149
748.31	56.844
748.49	52.413
748.67	51.044
748.85	50.860
749.03	55.556
749.21	51.224
749.39	53.032
749.57	48.342
749.75	51.544
749.93	49.767
750.11	52.734
750.29	49.564
750.47	50.759
750.65	51.023
750.83	51.384
751.01	50.361
751.18	52.255
751.36	47.476
751.54	52.439
751.72	54.253
751.90	51.677
752.08	50.223
752.26	53.664
752.44	48.684
752.62	49.860
752.80	49.315
752.98	50.752
753.16	51.721
753.34	54.898
753.52	51.231
753.69	50.225
753.87	50.030
754.05	50.827
754.23	53.158
754.41	52.232
754.59	50.804
754.77	52.057
754.95	50.833
755.13	47.957
755.31	49.802
755.49	51.118
755.66	50.182
755.84	56.038
756.02	46.703
756.20	54.127
756.38	50.952
756.56	50.764
756.74	53.994
756.92	55.180
757.10	50.257
757.28	52.554
757.45	54.800
757.63	51.865
757.81	50.633
757.99	58.747
758.17	50.333
758.35	53.094
758.53	49.336
758.71	55.464
758.88	49.550
759.06	48.832
759.24	45.684
759.42	50.806
759.60	44.104
759.78	46.319
759.96	44.704
760.13	47.139
760.31	42.283
760.49	42.640
760.67	36.371
760.85	43.373
761.03	37.271
761.21	36.194
761.38	34.543
761.56	42.021
761.74	38.701
761.92	42.257
762.10	37.424
762.28	42.806
762.46	37.280
762.63	41.228
762.81	43.513
762.99	40.670
763.17	43.206
763.35	39.920
763.53	39.315
763.70	43.803
763.88	43.922
764.06	41.653
764.24	41.356
764.42	44.392
764.60	41.710
764.77	43.119
764.95	41.440
765.13	45.528
765.31	41.545
765.49	44.149
765.66	43.174
765.84	44.682
766.02	42.139
766.20	45.469
766.38	47.284
766.56	47.228
766.73	43.677
766.91	47.295
767.09	47.978
767.27	47.145
767.45	46.384
767.62	50.222
767.80	43.369
767.98	46.339
768.16	43.052
768.33	52.177
768.51	45.460
768.69	47.712
768.87	46.053
769.05	52.916
769.22	49.743
769.40	55.721
769.58	50.614
769.76	53.479
769.94	50.276
770.11	52.549
770.29	47.604
770.47	49.607
770.65	54.451
770.82	56.850
771.00	51.631
771.18	49.813
771.36	46.946
771.53	49.407
771.71	53.075
771.89	58.593
772.07	52.611
772.25	56.190
772.42	50.040
772.60	60.933
772.78	51.025
772.96	57.719
773.13	52.381
773.31	49.594
773.49	52.186
773.67	49.357
773.84	55.410
774.02	54.293
774.20	53.816
774.37	50.930
774.55	51.627
774.73	54.509
774.91	49.804
775.08	54.461
775.26	53.711
775.44	52.678
775.62	51.978
775.79	54.073
775.97	47.873
776.15	55.109
776.32	53.262
776.50	57.402
776.68	54.074
776.86	51.164
777.03	57.023
777.21	59.069
777.39	50.524
777.56	52.797
777.74	56.902
777.92	54.437
778.10	47.809
778.27	52.296
778.45	51.258
778.63	58.172
778.80	47.137
778.98	54.658
779.16	50.415
779.34	51.474
779.51	53.653
779.69	54.422
779.87	53.571
780.04	56.904
780.22	56.461
780.40	50.796
780.57	54.095
780.75	54.451
780.93	53.906
781.10	56.285
781.28	58.994
781.46	58.641
781.63	50.239
781.81	62.793
781.99	51.401
782.16	50.759
782.34	49.532
782.52	54.865
782.69	51.358
782.87	46.498
783.05	49.952
783.22	51.336
783.40	49.927
783.58	55.490
783.75	51.399
783.93	56.880
784.11	51.463
784.28	52.359
784.46	49.533
784.64	51.667
784.81	46.250
784.99	50.675
785.17	53.084
785.34	50.765
785.52	51.757
785.69	50.473
785.87	46.563
786.05	54.930
786.22	50.376
786.40	59.313
786.58	58.166
786.75	54.815
786.93	49.701
787.11	49.736
787.28	51.480
787.46	60.049
787.63	52.403
787.81	48.444
787.99	52.135
788.16	47.931
788.34	42.304
788.51	52.960
788.69	49.717
788.87	47.452
789.04	51.093
789.22	44.415
789.39	47.880
789.57	44.374
789.75	50.523
789.92	52.020
790.10	43.798
790.27	54.381
790.45	40.403
790.63	51.977
790.80	45.785
790.98	49.167
791.15	48.472
791.33	50.072
791.51	52.716
791.68	56.903
791.86	52.033
792.03	48.071
792.21	40.988
792.39	48.125
792.56	45.204
792.74	50.269
792.91	52.905
793.09	39.370
793.26	48.558
793.44	53.792
793.62	51.926
793.79	48.193
793.97	55.991
794.14	53.158
794.32	50.250
794.49	49.116
794.67	43.488
794.84	51.520
795.02	48.434
795.20	56.431
795.37	49.553
795.55	52.109
795.72	45.943
795.90	49.870
796.07	52.319
796.25	52.412
796.42	50.249
796.60	45.003
796.77	49.020
796.95	44.271
797.13	44.426
797.30	53.608
797.48	48.389
797.65	51.497
797.83	44.165
798.00	47.149
798.18	46.867
798.35	42.871
798.53	46.350
798.70	48.667
798.88	53.565
799.05	54.331
799.23	48.683
799.40	40.573
799.58	51.966
799.75	50.529
799.93	50.775
800.10	44.761
800.28	47.627
800.45	52.045
800.63	45.523
800.80	46.993
800.98	48.571
801.15	48.981
801.33	42.414
801.50	47.065
801.68	50.115
801.85	44.329
802.03	48.490
802.20	55.185
802.38	49.275
802.55	43.105
802.73	51.095
802.90	42.344
803.08	44.907
803.25	56.348
803.43	54.953
803.60	51.676
803.78	48.855
803.95	48.824
804.13	48.041
804.30	53.851
804.48	46.604
804.65	50.919
804.83	45.874
805.00	40.896
805.17	48.975
805.35	51.026
805.52	56.691
805.70	49.941
805.87	54.225
806.05	48.522
806.22	46.831
806.40	48.373
806.57	40.445
806.75	50.995
806.92	49.632
807.09	50.058
807.27	49.746
807.44	53.860
807.62	49.012
807.79	43.223
807.97	45.810
808.14	48.812
808.31	46.883
808.49	47.553
808.66	47.108
808.84	45.882
809.01	49.441
809.19	51.252
809.36	56.907
809.53	46.897
809.71	42.178
809.88	54.855
810.06	54.113
810.23	51.798
810.41	55.072
810.58	51.631
810.75	40.337
810.93	49.776
811.10	51.166
811.28	55.365
811.45	43.073
811.62	49.192
811.80	46.396
811.97	52.840
812.15	59.243
812.32	47.080
812.49	55.370
812.67	46.164
812.84	36.275
813.02	49.593
813.19	42.722
813.36	55.952
813.54	38.159
813.71	55.423
813.89	50.034
814.06	53.564
814.23	54.084
814.41	45.481
814.58	46.132
814.75	54.589
814.93	40.625
815.10	57.109
815.28	55.769
815.45	42.338
815.62	45.626
815.80	43.229
815.97	37.157
816.14	55.343
816.32	46.816
816.49	40.647
816.66	38.411
816.84	43.293
817.01	43.973
817.18	42.311
817.36	45.960
817.53	52.234
817.71	42.445
817.88	43.487
818.05	37.094
818.23	42.090
818.40	44.008
818.57	46.799
818.75	39.944
818.92	47.699
819.09	35.481
819.27	49.034
819.44	38.589
819.61	36.629
819.79	38.308
819.96	47.218
820.13	45.506
820.31	44.054
820.48	40.572
820.65	42.419
820.82	42.718
821.00	38.760
821.17	32.595
821.34	44.900
821.52	36.242
821.69	37.372
821.86	40.391
822.04	40.989
822.21	38.050
822.38	40.140
822.56	41.040
822.73	40.712
822.90	38.639
823.07	41.589
823.25	39.747
823.42	38.524
823.59	40.483
823.77	39.285
823.94	39.025
824.11	41.126
824.29	39.401
824.46	40.002
824.63	39.866
824.80	39.487
824.98	38.813
825.15	37.059
825.32	35.918
825.49	40.153
825.67	36.275
825.84	41.089
826.01	36.817
826.19	37.414
826.36	36.393
826.53	39.260
826.70	37.360
826.88	41.803
827.05	37.031
827.22	40.548
827.39	37.049
827.57	36.135
827.74	38.013
827.91	41.079
828.08	33.468
828.26	36.676
828.43	35.540
828.60	40.746
828.77	36.623
828.95	40.861
829.12	33.926
829.29	33.948
829.46	38.736
829.64	36.008
829.81	33.906
829.98	37.240
830.15	36.878
830.32	35.956
830.50	35.635
830.67	43.156
830.84	40.449
831.01	33.973
831.19	41.405
831.36	41.586
831.53	46.002
831.70	41.059
831.87	35.958
832.05	44.653
832.22	43.493
832.39	33.176
832.56	43.676
832.74	39.354
832.91	34.125
833.08	46.561
833.25	32.756
833.42	41.278
833.60	32.571
833.77	28.046
833.94	33.015
834.11	35.050
834.28	35.419
834.45	38.539
834.63	35.115
834.80	35.658
834.97	34.187
835.14	37.381
835.31	34.112
835.49	38.449
835.66	37.792
835.83	36.229
836.00	35.819
836.17	34.953
836.34	33.016
836.52	33.925
836.69	37.249
836.86	37.158
837.03	35.856
837.20	38.512
837.37	32.537
837.55	36.994
837.72	38.965
837.89	32.220
838.06	43.239
838.23	45.492
838.40	51.302
838.58	43.750
838.75	51.799
838.92	48.856
839.09	65.385
839.26	57.889
839.43	43.821
839.60	54.946
839.78	61.171
839.95	61.254
840.12	51.183
840.29	55.185
840.46	53.070
840.63	53.454
840.80	47.229
840.98	52.033
841.15	47.547
841.32	38.259
841.49	38.312
841.66	57.601
841.83	48.845
842.00	50.365
842.17	53.583
842.34	47.694
842.52	52.322
842.69	55.023
842.86	45.066
843.03	71.954
843.20	53.333
843.37	49.699
843.54	59.552
843.71	58.720
843.88	60.281
844.06	65.086
844.23	66.102
844.40	64.123
844.57	67.034
844.74	86.207
844.91	57.550
845.08	78.628
845.25	57.704
845.42	77.586
845.59	68.519
845.76	58.880
845.94	68.547
846.11	53.500
846.28	77.564
846.45	84.350
846.62	76.094
846.79	65.000
846.96	75.758
847.13	78.788
847.30	68.056
847.47	97.189
847.64	65.976
847.81	73.659
847.98	83.422
848.15	75.855
848.32	89.744
848.50	112.760
848.67	88.715
848.84	77.840
849.01	88.148
849.18	71.751
849.35	102.151
849.52	73.684
849.69	91.379
849.86	93.027
850.03	72.348
850.20	102.743
850.37	68.023
850.54	87.302
850.71	87.526
850.88	75.429
851.05	94.118
851.22	58.235
851.39	90.196
851.56	98.444
851.73	90.846
851.90	91.919
852.07	83.333
852.24	70.520
852.41	92.944
852.58	99.255
852.75	77.711
852.92	94.103
853.09	88.828
853.26	113.657
853.43	75.774
853.60	94.486
853.77	82.206
853.94	84.086
854.11	84.249
854.28	77.104
854.45	73.706
854.62	89.308
854.79	89.744
854.96	94.167
855.13	89.385
855.30	85.987
855.47	97.179
855.64	76.852
855.81	82.020
855.98	100.917
856.15	96.685
856.32	83.590
856.49	95.302
856.66	107.471
856.83	96.438
857.00	75.050
857.17	109.216
857.34	92.466
857.51	117.699
857.68	81.801
857.85	70.609
858.02	90.346
858.19	80.000
858.36	96.970
858.53	86.986
858.70	103.030
858.87	99.479
859.04	85.376
859.21	85.065
859.38	76.381
859.55	80.186
859.72	79.245
859.89	100.746
860.05	95.781
860.22	84.335
860.39	78.704
860.56	87.772
860.73	95.954
860.90	125.799
861.07	109.804
861.24	82.429
861.41	86.799
861.58	65.193
861.75	109.449
861.92	83.664
862.09	83.081
862.26	125.641
862.43	82.209
862.59	72.101
862.76	107.273
862.93	128.395
863.10	102.121
863.27	68.615
863.44	99.327
863.61	88.584
863.78	121.615
863.95	93.333
864.12	95.000
864.29	86.034
864.45	93.582
864.62	76.000
864.79	80.851
864.96	114.881
865.13	72.674
865.30	116.508
865.47	98.462
865.64	123.432
865.81	88.950
865.97	60.838
866.14	85.417
866.31	80.702
866.48	90.050
866.65	62.560
866.82	112.333
866.99	85.693
867.16	96.078
867.33	65.728
867.49	70.175
867.66	80.745
867.83	84.234
868.00	74.539
868.17	103.763
868.34	104.795
868.51	122.222
868.67	89.760
868.84	119.008
869.01	82.222
869.18	75.417
869.35	104.294
869.52	80.208
869.69	87.179
869.85	67.031
870.02	84.384
870.19	106.619
870.36	101.208
870.53	81.543
870.70	136.944
870.86	116.369
871.03	85.987
871.20	82.508
871.37	96.559
871.54	96.296
871.71	61.822
871.87	69.975
872.04	78.224
872.21	84.200
872.38	103.810
872.55	93.381
872.72	75.845
872.88	74.004
873.05	77.149
873.22	52.976
873.39	79.583
873.56	70.175
873.72	92.717
873.89	94.779
874.06	80.087
874.23	82.700
874.40	129.664
874.56	80.072
874.73	110.734
874.90	77.778
875.07	102.614
875.24	72.320
875.40	103.333
875.57	95.274
875.74	97.222
875.91	89.951
876.08	95.238
876.24	85.455
876.41	79.833
876.58	69.591
876.75	78.811
876.92	73.499
877.08	91.618
877.25	68.889
877.42	93.512
877.59	90.361
877.75	78.788
877.92	94.215
878.09	84.267
878.26	95.897
878.42	82.900
878.59	80.899
878.76	72.538
878.93	77.586
879.09	88.512
879.26	90.909
879.43	69.154
879.60	83.498
879.76	76.289
879.93	75.686
880.10	49.495
880.27	58.723
880.43	49.057
880.60	71.465
880.77	39.478
880.94	54.636
881.10	51.282
881.27	42.029
881.44	35.004
881.61	41.414
881.77	39.388
881.94	32.093
882.11	27.006
882.28	27.016
882.44	28.756
882.61	31.239
882.78	33.045
882.94	37.672
883.11	36.660
883.28	33.951
883.45	32.874
883.61	31.535
883.78	28.683
883.95	35.978
884.11	32.566
884.28	31.966
>>>>>End Processed Spectral Data<<<<<
