SpectraSuite Data File
++++++++++++++++++++++++++++++++++++
Date: Sun Sep 22 03:38:30 EST 2019
User: sgrac
Dark Spectrum Present: Yes
Reference Spectrum Present: Yes
Number of Sampled Component Spectra: 1
Spectrometers: USB4E01596
Integration Time (usec): 100000 (USB4E01596)
Spectra Averaged: 3 (USB4E01596)
Boxcar Smoothing: 0 (USB4E01596)
Correct for Electrical Dark: No (USB4E01596)
Strobe/Lamp Enabled: Yes (USB4E01596)
Correct for Detector Non-linearity: No (USB4E01596)
Correct for Stray Light: No (USB4E01596)
Number of Pixels in Processed Spectrum: 3648
>>>>>Begin Processed Spectral Data<<<<<
178.44	707.143
178.66	707.143
178.87	707.143
179.09	-181.481
179.30	-318.519
179.52	222.581
179.74	9433.333
179.95	1174.074
180.17	11300.000
180.38	290.123
180.60	-627.083
180.82	3541.667
181.03	-328.889
181.25	481.159
181.46	-225.595
181.68	-493.333
181.89	445.098
182.11	568.254
182.33	1657.143
182.54	322.989
182.76	890.909
182.97	-569.048
183.19	417.094
183.40	-420.635
183.62	306.173
183.84	350.476
184.05	10500.000
184.27	332.500
184.48	251.064
184.70	579.762
184.91	813.333
185.13	-7383.333
185.34	978.571
185.56	-673.810
185.78	406.667
185.99	343.137
186.21	244.203
186.42	2933.333
186.64	142.544
186.85	-437.500
187.07	442.708
187.28	-2225.000
187.50	1209.524
187.72	1039.394
187.93	-595.833
188.15	465.657
188.36	382.883
188.58	205.641
188.79	324.731
189.01	605.128
189.22	-1076.667
189.44	256.621
189.65	5050.000
189.87	2620.000
190.09	0.000
190.30	933.333
190.52	-414.103
190.73	682.609
190.95	521.429
191.16	833.333
191.38	-858.974
191.59	10933.333
191.81	237.427
192.02	737.778
192.24	-5733.333
192.45	-557.778
192.67	306.944
192.88	208.586
193.10	11033.333
193.31	-883.333
193.53	1453.333
193.74	309.402
193.96	263.946
194.18	314.035
194.39	-2172.222
194.61	875.000
194.82	269.091
195.04	1261.905
195.25	1090.000
195.47	-474.510
195.68	-353.571
195.90	278.125
196.11	889.744
196.33	282.716
196.54	415.152
196.76	1677.778
196.97	-533.333
197.19	788.095
197.40	529.293
197.62	320.202
197.83	-1087.500
198.05	1977.778
198.26	223.383
198.48	746.667
198.69	-439.394
198.91	-3288.889
199.12	391.429
199.34	222.222
199.55	582.456
199.77	-647.368
199.98	-830.769
200.20	310.370
200.41	354.386
200.63	276.190
200.84	-1404.167
201.06	2726.667
201.27	491.667
201.49	-1533.333
201.70	0.000
201.91	613.333
202.13	240.278
202.34	355.556
202.56	969.697
202.77	441.379
202.99	-913.889
203.20	-1066.667
203.42	183.333
203.63	361.111
203.85	300.629
204.06	838.462
204.28	624.444
204.49	-9666.667
204.71	396.396
204.92	386.667
205.14	537.879
205.35	592.063
205.56	249.660
205.78	1500.000
205.99	11066.667
206.21	747.059
206.42	238.333
206.64	4411.111
206.85	212.500
207.07	207.222
207.28	203.825
207.50	466.667
207.71	454.667
207.93	544.928
208.14	-1053.333
208.35	-2677.778
208.57	1033.333
208.78	265.942
209.00	225.758
209.21	298.990
209.43	176.329
209.64	1516.667
209.86	341.414
210.07	743.590
210.28	963.889
210.50	287.500
210.71	299.291
210.93	743.750
211.14	-11633.333
211.36	298.889
211.57	-11133.333
211.78	-3250.000
212.00	354.386
212.21	1113.333
212.43	287.234
212.64	878.788
212.86	405.747
213.07	-3333.333
213.29	260.417
213.50	-557.895
213.71	253.552
213.93	1343.333
214.14	814.286
214.36	989.744
214.57	518.182
214.78	196.104
215.00	215.714
215.21	444.444
215.43	520.000
215.64	-10033.333
215.86	916.667
216.07	-820.513
216.28	896.667
216.50	-421.795
216.71	1800.000
216.93	676.471
217.14	-509.524
217.35	173.958
217.57	846.667
217.78	658.824
218.00	3377.778
218.21	266.038
218.42	1381.481
218.64	2977.778
218.85	1488.889
219.07	-807.407
219.28	-413.580
219.49	367.901
219.71	313.333
219.92	328.205
220.14	457.971
220.35	5366.667
220.56	245.029
220.78	361.111
220.99	-1938.889
221.21	0.000
221.42	370.115
221.63	1036.364
221.85	251.977
222.06	205.442
222.28	295.402
222.49	350.000
222.70	1020.000
222.92	296.000
223.13	195.000
223.34	-797.222
223.56	195.671
223.77	229.787
223.99	841.667
224.20	226.016
224.41	300.758
224.63	163.556
224.84	377.011
225.05	187.302
225.27	169.082
225.48	255.333
225.69	247.619
225.91	116.461
226.12	225.352
226.34	110.032
226.55	131.401
226.76	169.006
226.98	171.491
227.19	170.968
227.40	246.875
227.62	121.667
227.83	92.793
228.04	123.024
228.26	82.369
228.47	174.797
228.69	71.006
228.90	57.843
229.11	56.067
229.33	51.681
229.54	43.934
229.75	44.652
229.97	42.242
230.18	31.948
230.39	29.293
230.61	31.049
230.82	51.183
231.03	24.949
231.25	37.515
231.46	41.640
231.67	36.255
231.89	50.123
232.10	48.881
232.31	28.249
232.53	37.607
232.74	44.306
232.95	50.739
233.17	58.073
233.38	34.991
233.59	68.376
233.81	55.500
234.02	60.476
234.23	36.850
234.45	64.349
234.66	42.056
234.87	60.883
235.09	73.032
235.30	46.341
235.51	48.132
235.73	51.026
235.94	47.761
236.15	64.793
236.36	48.823
236.58	39.089
236.79	42.636
237.00	54.888
237.22	48.911
237.43	39.823
237.64	54.720
237.86	43.510
238.07	60.329
238.28	54.378
238.50	45.728
238.71	46.995
238.92	55.633
239.13	49.668
239.35	56.725
239.56	54.062
239.77	49.874
239.99	42.222
240.20	32.364
240.41	38.158
240.63	42.702
240.84	50.794
241.05	35.549
241.26	31.333
241.48	25.160
241.69	29.403
241.90	19.082
242.12	23.930
242.33	17.452
242.54	21.582
242.75	20.106
242.97	20.202
243.18	18.213
243.39	14.176
243.61	18.954
243.82	18.900
244.03	17.193
244.24	13.470
244.46	16.799
244.67	16.046
244.88	17.366
245.09	16.667
245.31	19.175
245.52	20.433
245.73	20.493
245.95	33.438
246.16	26.064
246.37	19.124
246.58	18.341
246.80	20.201
247.01	12.879
247.22	14.261
247.43	10.314
247.65	13.487
247.86	11.860
248.07	11.584
248.28	7.528
248.50	10.965
248.71	9.963
248.92	6.827
249.13	10.693
249.35	10.751
249.56	9.812
249.77	10.762
249.98	10.197
250.20	12.566
250.41	15.407
250.62	17.056
250.83	15.140
251.05	17.168
251.26	22.472
251.47	21.383
251.68	17.599
251.90	18.060
252.11	23.177
252.32	23.972
252.53	21.831
252.75	17.308
252.96	16.820
253.17	12.129
253.38	13.714
253.59	11.492
253.81	11.525
254.02	14.060
254.23	15.040
254.44	17.003
254.66	12.792
254.87	14.815
255.08	21.159
255.29	24.032
255.50	20.198
255.72	19.554
255.93	19.950
256.14	22.356
256.35	24.918
256.57	24.096
256.78	17.555
256.99	17.107
257.20	28.797
257.41	21.442
257.63	17.476
257.84	20.826
258.05	24.910
258.26	17.391
258.47	15.459
258.69	14.094
258.90	13.017
259.11	17.057
259.32	15.723
259.53	11.576
259.75	13.199
259.96	5.874
260.17	10.015
260.38	10.104
260.59	8.819
260.81	8.096
261.02	7.541
261.23	6.689
261.44	8.182
261.65	7.684
261.87	7.285
262.08	5.531
262.29	6.908
262.50	7.510
262.71	12.099
262.92	11.810
263.14	8.095
263.35	10.208
263.56	11.006
263.77	13.436
263.98	13.835
264.20	16.015
264.41	14.803
264.62	16.760
264.83	15.258
265.04	17.150
265.25	13.644
265.47	16.166
265.68	11.467
265.89	10.635
266.10	13.087
266.31	16.437
266.52	15.299
266.74	10.253
266.95	15.000
267.16	15.713
267.37	10.903
267.58	14.786
267.79	9.865
268.01	11.357
268.22	11.363
268.43	9.708
268.64	11.330
268.85	9.663
269.06	11.284
269.27	11.534
269.49	10.916
269.70	10.605
269.91	9.982
270.12	10.134
270.33	10.167
270.54	13.000
270.75	12.631
270.97	12.127
271.18	12.432
271.39	8.588
271.60	10.122
271.81	8.247
272.02	9.786
272.23	10.569
272.45	10.104
272.66	8.385
272.87	9.707
273.08	7.106
273.29	7.228
273.50	8.476
273.71	8.219
273.92	4.395
274.14	8.266
274.35	7.443
274.56	8.460
274.77	9.676
274.98	9.135
275.19	10.497
275.40	8.735
275.61	10.906
275.83	11.806
276.04	11.591
276.25	13.376
276.46	10.040
276.67	13.040
276.88	11.102
277.09	11.516
277.30	11.675
277.51	9.709
277.73	14.559
277.94	11.865
278.15	9.378
278.36	9.944
278.57	8.444
278.78	10.739
278.99	9.223
279.20	11.678
279.41	15.387
279.62	7.273
279.84	10.064
280.05	11.055
280.26	11.706
280.47	10.664
280.68	14.827
280.89	12.600
281.10	11.763
281.31	11.792
281.52	11.197
281.73	8.210
281.94	8.015
282.16	9.915
282.37	11.269
282.58	7.400
282.79	9.186
283.00	10.728
283.21	10.260
283.42	9.174
283.63	10.248
283.84	9.037
284.05	7.940
284.26	8.187
284.47	8.018
284.68	8.617
284.89	10.040
285.11	8.519
285.32	8.344
285.53	9.646
285.74	7.862
285.95	8.904
286.16	6.938
286.37	7.604
286.58	6.237
286.79	6.179
287.00	8.798
287.21	5.227
287.42	6.426
287.63	5.695
287.84	7.094
288.05	9.394
288.26	7.734
288.48	11.443
288.69	8.053
288.90	8.502
289.11	9.283
289.32	9.091
289.53	9.234
289.74	7.247
289.95	6.934
290.16	6.710
290.37	10.364
290.58	8.675
290.79	7.816
291.00	6.151
291.21	5.254
291.42	7.776
291.63	8.891
291.84	8.324
292.05	5.634
292.26	8.871
292.47	6.729
292.68	10.560
292.89	7.216
293.10	8.372
293.31	8.681
293.52	9.921
293.73	8.615
293.94	7.603
294.15	8.513
294.36	8.985
294.57	10.775
294.79	10.275
295.00	6.626
295.21	9.964
295.42	9.400
295.63	8.126
295.84	6.853
296.05	7.965
296.26	8.528
296.47	7.447
296.68	6.454
296.89	7.746
297.10	9.045
297.31	9.456
297.52	6.091
297.73	7.502
297.94	6.793
298.15	7.709
298.36	7.232
298.57	6.929
298.78	7.995
298.99	6.037
299.20	7.736
299.41	8.451
299.62	6.527
299.83	6.725
300.04	7.483
300.25	8.261
300.46	8.806
300.67	7.524
300.88	9.358
301.09	6.823
301.30	9.960
301.50	7.045
301.71	12.577
301.92	12.031
302.13	7.971
302.34	8.767
302.55	9.017
302.76	9.020
302.97	6.795
303.18	9.209
303.39	8.417
303.60	6.179
303.81	8.598
304.02	6.155
304.23	8.211
304.44	8.238
304.65	8.472
304.86	9.430
305.07	8.860
305.28	8.220
305.49	11.309
305.70	11.412
305.91	8.005
306.12	8.414
306.33	7.676
306.54	8.867
306.75	7.793
306.96	13.314
307.17	8.333
307.38	10.071
307.58	9.487
307.79	9.387
308.00	9.230
308.21	11.105
308.42	8.536
308.63	8.433
308.84	9.343
309.05	9.256
309.26	7.611
309.47	7.633
309.68	7.560
309.89	7.796
310.10	8.303
310.31	8.518
310.52	8.820
310.73	9.526
310.94	4.497
311.14	6.411
311.35	6.405
311.56	9.415
311.77	8.392
311.98	5.317
312.19	7.505
312.40	6.480
312.61	6.502
312.82	6.254
313.03	8.294
313.24	7.021
313.45	7.160
313.66	7.089
313.86	7.576
314.07	8.564
314.28	8.914
314.49	9.637
314.70	8.283
314.91	9.596
315.12	5.363
315.33	9.047
315.54	8.258
315.75	7.326
315.96	6.144
316.16	7.911
316.37	9.750
316.58	7.152
316.79	7.324
317.00	8.885
317.21	7.193
317.42	10.207
317.63	9.108
317.84	6.378
318.05	8.291
318.25	9.767
318.46	7.975
318.67	9.758
318.88	7.479
319.09	7.606
319.30	7.211
319.51	9.746
319.72	7.708
319.93	7.589
320.13	8.257
320.34	9.605
320.55	8.718
320.76	11.585
320.97	6.854
321.18	10.025
321.39	9.075
321.60	6.906
321.80	10.375
322.01	9.841
322.22	8.277
322.43	9.113
322.64	9.381
322.85	9.848
323.06	9.538
323.27	6.931
323.47	9.956
323.68	8.977
323.89	6.872
324.10	8.165
324.31	7.424
324.52	8.697
324.73	8.572
324.93	6.823
325.14	9.633
325.35	9.172
325.56	8.428
325.77	9.254
325.98	6.169
326.19	5.427
326.39	6.407
326.60	9.612
326.81	6.432
327.02	6.428
327.23	6.008
327.44	8.654
327.64	6.903
327.85	5.859
328.06	8.189
328.27	10.986
328.48	9.555
328.69	6.462
328.90	8.196
329.10	6.778
329.31	7.294
329.52	8.662
329.73	9.044
329.94	8.081
330.15	9.436
330.35	6.941
330.56	8.594
330.77	8.680
330.98	8.293
331.19	7.831
331.39	9.170
331.60	10.247
331.81	10.530
332.02	9.488
332.23	9.694
332.44	6.391
332.64	7.297
332.85	8.427
333.06	8.990
333.27	8.432
333.48	9.531
333.68	9.140
333.89	8.592
334.10	7.079
334.31	11.646
334.52	7.947
334.72	9.028
334.93	9.372
335.14	7.555
335.35	8.557
335.56	8.881
335.76	5.945
335.97	9.320
336.18	8.962
336.39	10.773
336.60	9.290
336.80	8.960
337.01	7.212
337.22	10.404
337.43	9.319
337.64	8.988
337.84	8.628
338.05	8.456
338.26	13.022
338.47	10.999
338.68	8.337
338.88	10.565
339.09	9.349
339.30	8.911
339.51	8.772
339.71	9.973
339.92	10.194
340.13	9.542
340.34	9.153
340.55	8.431
340.75	11.200
340.96	7.184
341.17	10.274
341.38	8.122
341.58	11.095
341.79	7.604
342.00	9.446
342.21	10.783
342.41	7.639
342.62	10.029
342.83	10.220
343.04	7.482
343.24	11.052
343.45	11.703
343.66	10.769
343.87	11.687
344.07	10.373
344.28	11.468
344.49	10.809
344.70	13.271
344.90	9.271
345.11	10.563
345.32	11.106
345.53	9.365
345.73	12.166
345.94	14.977
346.15	12.157
346.36	12.827
346.56	13.119
346.77	14.916
346.98	13.789
347.19	14.638
347.39	11.899
347.60	12.573
347.81	14.182
348.02	14.882
348.22	11.376
348.43	14.028
348.64	10.988
348.84	15.045
349.05	13.333
349.26	15.835
349.47	13.368
349.67	13.965
349.88	17.059
350.09	15.203
350.30	18.881
350.50	15.705
350.71	15.017
350.92	17.278
351.12	17.312
351.33	15.663
351.54	17.231
351.74	17.805
351.95	15.479
352.16	16.423
352.37	18.188
352.57	17.265
352.78	17.323
352.99	19.557
353.19	16.552
353.40	17.799
353.61	20.248
353.82	21.995
354.02	18.974
354.23	17.447
354.44	19.459
354.64	19.100
354.85	18.594
355.06	19.560
355.26	17.789
355.47	19.580
355.68	21.011
355.88	22.004
356.09	21.121
356.30	19.787
356.51	20.311
356.71	20.656
356.92	18.914
357.13	23.301
357.33	22.695
357.54	21.052
357.75	16.937
357.95	22.712
358.16	19.608
358.37	24.888
358.57	20.369
358.78	23.175
358.99	21.951
359.19	23.222
359.40	22.681
359.61	21.934
359.81	24.215
360.02	23.565
360.23	21.104
360.43	22.075
360.64	20.758
360.85	21.803
361.05	19.373
361.26	23.858
361.47	22.007
361.67	23.627
361.88	19.748
362.09	22.421
362.29	20.316
362.50	21.809
362.70	20.335
362.91	23.303
363.12	22.178
363.32	22.644
363.53	22.620
363.74	23.120
363.94	21.520
364.15	23.670
364.36	22.093
364.56	22.673
364.77	23.318
364.98	24.731
365.18	22.002
365.39	23.883
365.59	20.485
365.80	21.911
366.01	23.882
366.21	21.476
366.42	22.297
366.63	23.051
366.83	22.264
367.04	20.523
367.24	22.916
367.45	21.152
367.66	19.025
367.86	22.169
368.07	21.528
368.28	21.189
368.48	20.770
368.69	19.902
368.89	21.365
369.10	21.309
369.31	20.317
369.51	21.919
369.72	23.639
369.92	22.333
370.13	21.721
370.34	22.984
370.54	17.601
370.75	22.342
370.95	18.280
371.16	20.604
371.37	20.668
371.57	19.397
371.78	19.097
371.98	21.332
372.19	21.672
372.40	21.542
372.60	20.725
372.81	21.700
373.01	18.246
373.22	19.970
373.43	20.660
373.63	21.372
373.84	19.699
374.04	20.589
374.25	20.870
374.46	20.471
374.66	21.530
374.87	21.007
375.07	18.105
375.28	20.719
375.48	20.496
375.69	22.150
375.90	18.263
376.10	18.340
376.31	18.637
376.51	19.503
376.72	18.778
376.92	18.293
377.13	20.249
377.34	20.773
377.54	19.002
377.75	22.026
377.95	19.149
378.16	19.345
378.36	19.863
378.57	19.593
378.77	19.849
378.98	19.764
379.19	18.637
379.39	19.277
379.60	18.867
379.80	19.771
380.01	18.925
380.21	19.072
380.42	19.801
380.62	19.811
380.83	19.630
381.04	19.405
381.24	20.024
381.45	19.450
381.65	17.383
381.86	19.829
382.06	19.933
382.27	17.670
382.47	17.603
382.68	20.484
382.88	17.334
383.09	18.250
383.29	17.855
383.50	19.906
383.71	18.560
383.91	18.348
384.12	17.579
384.32	19.687
384.53	17.729
384.73	17.044
384.94	16.767
385.14	18.068
385.35	16.517
385.55	17.800
385.76	17.843
385.96	17.233
386.17	18.097
386.37	19.001
386.58	17.860
386.78	19.511
386.99	16.545
387.19	17.948
387.40	16.426
387.60	19.428
387.81	17.155
388.01	18.086
388.22	17.834
388.42	19.325
388.63	18.530
388.83	18.029
389.04	16.339
389.24	17.452
389.45	17.067
389.65	18.741
389.86	17.120
390.06	16.713
390.27	15.713
390.47	18.173
390.68	16.336
390.88	17.989
391.09	17.435
391.29	18.956
391.50	17.045
391.70	17.789
391.91	16.187
392.11	17.943
392.32	17.575
392.52	17.942
392.73	17.132
392.93	17.181
393.14	16.436
393.34	17.185
393.55	16.929
393.75	17.708
393.95	17.568
394.16	18.282
394.36	16.592
394.57	17.513
394.77	16.936
394.98	17.116
395.18	17.610
395.39	17.373
395.59	17.588
395.80	17.051
396.00	16.948
396.21	17.462
396.41	16.285
396.61	18.113
396.82	17.495
397.02	18.156
397.23	17.569
397.43	17.053
397.64	15.260
397.84	18.023
398.05	14.899
398.25	17.651
398.45	16.039
398.66	17.309
398.86	16.608
399.07	18.108
399.27	15.508
399.48	17.096
399.68	16.402
399.89	16.709
400.09	16.981
400.29	16.185
400.50	15.876
400.70	17.553
400.91	15.800
401.11	16.556
401.32	16.005
401.52	15.162
401.72	16.286
401.93	16.872
402.13	16.190
402.34	16.411
402.54	15.568
402.75	17.759
402.95	14.862
403.15	17.801
403.36	16.062
403.56	16.595
403.77	14.826
403.97	15.937
404.17	14.797
404.38	16.307
404.58	15.185
404.79	16.581
404.99	16.389
405.19	15.850
405.40	16.088
405.60	16.707
405.81	15.833
406.01	16.299
406.21	14.230
406.42	15.953
406.62	15.947
406.83	15.875
407.03	16.741
407.23	15.164
407.44	14.969
407.64	16.436
407.85	15.773
408.05	16.162
408.25	15.400
408.46	16.441
408.66	16.109
408.87	15.226
409.07	15.574
409.27	14.745
409.48	14.773
409.68	16.035
409.88	13.512
410.09	15.329
410.29	15.366
410.50	16.440
410.70	13.633
410.90	15.185
411.11	14.400
411.31	15.210
411.51	15.517
411.72	16.224
411.92	14.396
412.12	15.305
412.33	14.832
412.53	15.226
412.74	13.463
412.94	14.810
413.14	15.340
413.35	15.241
413.55	15.087
413.75	15.829
413.96	14.208
414.16	15.185
414.36	14.172
414.57	15.559
414.77	14.596
414.97	14.838
415.18	14.030
415.38	14.234
415.58	14.102
415.79	14.232
415.99	14.421
416.19	14.787
416.40	14.651
416.60	14.061
416.80	14.599
417.01	14.697
417.21	13.122
417.41	15.072
417.62	14.812
417.82	14.251
418.02	13.444
418.23	15.169
418.43	13.797
418.63	14.428
418.84	13.940
419.04	14.337
419.24	14.866
419.45	14.901
419.65	14.836
419.85	14.249
420.06	14.559
420.26	14.814
420.46	14.176
420.67	14.851
420.87	13.986
421.07	14.184
421.28	14.362
421.48	14.450
421.68	14.240
421.88	14.569
422.09	14.064
422.29	14.818
422.49	14.136
422.70	14.617
422.90	14.436
423.10	14.187
423.31	14.246
423.51	14.794
423.71	14.039
423.91	14.032
424.12	14.590
424.32	14.707
424.52	14.123
424.73	14.186
424.93	13.803
425.13	14.064
425.33	13.979
425.54	13.759
425.74	14.217
425.94	14.333
426.15	14.229
426.35	14.101
426.55	14.250
426.75	14.144
426.96	13.958
427.16	14.485
427.36	14.471
427.57	14.672
427.77	14.228
427.97	14.493
428.17	14.218
428.38	14.065
428.58	13.340
428.78	14.177
428.98	13.565
429.19	14.096
429.39	12.960
429.59	13.921
429.79	13.174
430.00	13.835
430.20	13.513
430.40	14.152
430.60	13.634
430.81	13.681
431.01	13.332
431.21	13.687
431.41	12.961
431.62	13.529
431.82	13.717
432.02	13.936
432.22	13.288
432.43	13.735
432.63	13.021
432.83	13.415
433.03	12.919
433.24	13.423
433.44	12.906
433.64	13.526
433.84	13.606
434.05	13.476
434.25	13.064
434.45	13.744
434.65	13.822
434.85	14.027
435.06	13.563
435.26	13.339
435.46	13.519
435.66	13.728
435.87	13.412
436.07	13.907
436.27	13.254
436.47	13.914
436.67	13.129
436.88	13.869
437.08	13.837
437.28	13.659
437.48	12.800
437.69	14.052
437.89	13.190
438.09	13.931
438.29	12.770
438.49	13.592
438.70	13.678
438.90	12.813
439.10	13.057
439.30	12.909
439.50	12.483
439.71	12.717
439.91	13.314
440.11	13.535
440.31	13.289
440.51	12.817
440.72	12.994
440.92	13.367
441.12	13.162
441.32	13.028
441.52	13.068
441.72	13.124
441.93	13.739
442.13	13.389
442.33	13.404
442.53	13.613
442.73	13.234
442.94	13.608
443.14	13.402
443.34	13.818
443.54	13.383
443.74	13.534
443.94	12.637
444.15	13.112
444.35	12.819
444.55	13.666
444.75	13.327
444.95	13.662
445.15	13.150
445.36	12.996
445.56	12.327
445.76	13.020
445.96	12.649
446.16	12.731
446.36	12.838
446.57	12.770
446.77	12.619
446.97	12.518
447.17	13.205
447.37	13.080
447.57	12.954
447.77	12.965
447.98	13.096
448.18	12.892
448.38	13.152
448.58	13.217
448.78	13.289
448.98	13.037
449.18	13.258
449.39	13.427
449.59	13.580
449.79	13.283
449.99	12.927
450.19	13.744
450.39	13.958
450.59	13.112
450.79	12.655
451.00	13.390
451.20	14.273
451.40	13.221
451.60	12.687
451.80	13.204
452.00	12.872
452.20	12.901
452.40	12.513
452.61	13.169
452.81	12.361
453.01	13.335
453.21	12.840
453.41	13.242
453.61	12.730
453.81	12.675
454.01	13.013
454.21	13.356
454.42	12.896
454.62	13.213
454.82	12.406
455.02	12.967
455.22	12.119
455.42	13.074
455.62	12.357
455.82	12.566
456.02	13.023
456.23	12.931
456.43	13.051
456.63	12.977
456.83	12.182
457.03	13.342
457.23	12.521
457.43	13.013
457.63	12.121
457.83	12.920
458.03	11.851
458.23	12.833
458.43	12.206
458.64	12.396
458.84	12.376
459.04	12.469
459.24	12.536
459.44	12.139
459.64	11.961
459.84	12.130
460.04	12.233
460.24	12.498
460.44	12.604
460.64	12.949
460.84	12.647
461.04	12.414
461.24	12.744
461.45	12.488
461.65	13.032
461.85	13.030
462.05	12.646
462.25	13.148
462.45	13.007
462.65	12.962
462.85	12.401
463.05	13.172
463.25	12.028
463.45	13.345
463.65	12.377
463.85	12.980
464.05	12.947
464.25	12.647
464.45	12.561
464.65	12.108
464.85	12.146
465.05	12.309
465.26	12.465
465.46	13.325
465.66	12.717
465.86	12.750
466.06	12.123
466.26	12.912
466.46	11.952
466.66	12.578
466.86	12.439
467.06	12.372
467.26	12.027
467.46	12.673
467.66	12.653
467.86	12.548
468.06	12.513
468.26	12.472
468.46	12.268
468.66	12.645
468.86	11.754
469.06	12.864
469.26	12.190
469.46	11.858
469.66	11.939
469.86	12.522
470.06	12.393
470.26	12.943
470.46	11.996
470.66	12.533
470.86	12.011
471.06	12.153
471.26	11.830
471.46	12.041
471.66	12.278
471.86	12.277
472.06	12.435
472.26	13.196
472.46	12.588
472.66	12.188
472.86	12.050
473.06	12.416
473.26	12.112
473.46	11.863
473.66	12.212
473.86	12.940
474.06	11.810
474.26	12.674
474.46	11.970
474.66	12.549
474.86	12.183
475.06	12.435
475.26	11.942
475.46	12.952
475.66	11.797
475.86	12.549
476.06	12.590
476.26	12.787
476.46	12.339
476.66	12.100
476.86	11.775
477.06	12.272
477.26	12.056
477.46	12.095
477.65	11.632
477.85	12.653
478.05	11.809
478.25	12.946
478.45	11.726
478.65	12.466
478.85	12.109
479.05	12.536
479.25	12.288
479.45	12.883
479.65	12.226
479.85	12.319
480.05	11.993
480.25	13.047
480.45	12.528
480.65	12.994
480.85	12.320
481.05	12.881
481.25	12.468
481.44	12.297
481.64	11.992
481.84	12.492
482.04	12.134
482.24	12.805
482.44	12.005
482.64	12.032
482.84	12.160
483.04	12.069
483.24	11.862
483.44	11.778
483.64	11.452
483.84	11.370
484.04	11.784
484.23	11.974
484.43	12.294
484.63	13.245
484.83	13.764
485.03	14.346
485.23	14.247
485.43	14.272
485.63	14.031
485.83	13.487
486.03	12.565
486.23	13.082
486.42	13.119
486.62	13.037
486.82	12.816
487.02	12.608
487.22	12.482
487.42	12.355
487.62	12.453
487.82	12.188
488.02	12.350
488.22	12.434
488.41	12.269
488.61	12.560
488.81	12.583
489.01	12.774
489.21	13.056
489.41	12.931
489.61	12.963
489.81	12.963
490.01	13.001
490.20	13.032
490.40	13.038
490.60	12.748
490.80	12.780
491.00	12.761
491.20	12.435
491.40	12.389
491.60	12.188
491.79	11.957
491.99	12.285
492.19	12.203
492.39	12.337
492.59	12.491
492.79	12.659
492.99	12.579
493.19	12.657
493.38	12.827
493.58	13.098
493.78	12.995
493.98	13.400
494.18	13.253
494.38	13.209
494.58	13.145
494.77	13.107
494.97	13.237
495.17	12.643
495.37	13.031
495.57	12.895
495.77	12.978
495.96	12.423
496.16	12.505
496.36	12.877
496.56	12.691
496.76	12.265
496.96	12.697
497.15	12.880
497.35	12.989
497.55	13.001
497.75	12.417
497.95	12.590
498.15	12.886
498.34	13.038
498.54	13.061
498.74	12.959
498.94	12.851
499.14	12.711
499.34	13.159
499.53	12.755
499.73	12.976
499.93	12.632
500.13	12.736
500.33	12.126
500.52	12.948
500.72	13.308
500.92	13.000
501.12	12.743
501.32	13.223
501.52	12.748
501.71	13.548
501.91	13.230
502.11	12.948
502.31	12.996
502.51	12.949
502.70	13.202
502.90	12.957
503.10	12.933
503.30	12.895
503.50	13.133
503.69	13.086
503.89	13.638
504.09	13.206
504.29	12.902
504.48	12.967
504.68	12.844
504.88	13.491
505.08	12.570
505.28	13.048
505.47	13.287
505.67	13.250
505.87	13.402
506.07	12.802
506.27	13.344
506.46	13.060
506.66	13.201
506.86	12.982
507.06	13.462
507.25	13.629
507.45	13.423
507.65	13.705
507.85	12.783
508.04	13.140
508.24	13.802
508.44	13.674
508.64	13.002
508.83	13.285
509.03	13.237
509.23	13.442
509.43	13.186
509.63	13.301
509.82	13.528
510.02	12.832
510.22	13.169
510.42	13.983
510.61	13.250
510.81	13.662
511.01	13.806
511.21	13.389
511.40	13.521
511.60	13.732
511.80	13.814
511.99	13.614
512.19	13.426
512.39	14.034
512.59	13.738
512.78	13.689
512.98	13.766
513.18	13.793
513.38	13.480
513.57	13.360
513.77	13.610
513.97	14.068
514.17	13.909
514.36	14.105
514.56	13.631
514.76	13.951
514.95	13.781
515.15	13.952
515.35	13.947
515.55	13.835
515.74	13.676
515.94	14.532
516.14	13.510
516.33	13.942
516.53	14.053
516.73	13.808
516.93	13.740
517.12	14.021
517.32	13.597
517.52	14.224
517.71	13.605
517.91	13.888
518.11	13.934
518.30	13.723
518.50	13.524
518.70	13.616
518.90	13.611
519.09	13.744
519.29	14.189
519.49	13.920
519.68	13.791
519.88	14.289
520.08	14.018
520.27	13.838
520.47	14.350
520.67	14.402
520.86	14.632
521.06	14.355
521.26	14.279
521.45	14.200
521.65	14.072
521.85	14.707
522.04	14.205
522.24	14.750
522.44	14.411
522.63	14.476
522.83	14.381
523.03	14.469
523.22	14.021
523.42	14.944
523.62	14.385
523.81	14.634
524.01	14.385
524.21	14.384
524.40	14.351
524.60	14.519
524.80	14.013
524.99	14.449
525.19	14.058
525.39	14.165
525.58	13.897
525.78	13.784
525.98	14.311
526.17	14.386
526.37	14.235
526.57	14.299
526.76	14.613
526.96	14.279
527.15	14.219
527.35	14.418
527.55	14.615
527.74	14.398
527.94	14.250
528.14	13.940
528.33	13.343
528.53	13.473
528.72	13.886
528.92	14.128
529.12	14.191
529.31	14.688
529.51	14.442
529.71	14.625
529.90	14.717
530.10	14.910
530.29	14.986
530.49	15.080
530.69	15.242
530.88	15.331
531.08	15.012
531.28	15.034
531.47	15.120
531.67	15.053
531.86	14.636
532.06	14.996
532.26	14.515
532.45	14.573
532.65	14.664
532.84	14.827
533.04	14.509
533.24	14.306
533.43	14.593
533.63	14.526
533.82	14.672
534.02	14.625
534.22	14.849
534.41	14.918
534.61	14.809
534.80	15.141
535.00	15.139
535.19	15.299
535.39	15.371
535.59	15.346
535.78	15.119
535.98	15.013
536.17	15.420
536.37	14.813
536.57	14.931
536.76	15.143
536.96	14.954
537.15	15.275
537.35	15.382
537.54	15.083
537.74	15.424
537.93	15.269
538.13	15.405
538.33	15.367
538.52	15.789
538.72	16.150
538.91	15.967
539.11	15.335
539.30	15.713
539.50	15.996
539.70	15.961
539.89	15.638
540.09	15.740
540.28	15.721
540.48	15.394
540.67	15.350
540.87	15.104
541.06	15.158
541.26	15.152
541.45	14.924
541.65	15.474
541.85	15.521
542.04	15.561
542.24	15.833
542.43	15.642
542.63	15.829
542.82	15.940
543.02	16.111
543.21	16.359
543.41	16.441
543.60	16.255
543.80	16.482
543.99	16.729
544.19	16.508
544.38	16.590
544.58	16.438
544.77	16.418
544.97	16.543
545.16	16.477
545.36	17.048
545.56	16.993
545.75	16.694
545.95	16.441
546.14	16.822
546.34	16.744
546.53	16.668
546.73	16.678
546.92	16.751
547.12	16.297
547.31	16.880
547.51	16.937
547.70	17.275
547.90	16.882
548.09	17.115
548.29	17.469
548.48	17.573
548.68	17.581
548.87	17.535
549.07	17.809
549.26	17.871
549.46	17.987
549.65	17.889
549.84	18.769
550.04	17.882
550.23	18.204
550.43	17.575
550.62	18.534
550.82	18.088
551.01	17.703
551.21	18.510
551.40	17.906
551.60	18.679
551.79	18.429
551.99	18.368
552.18	18.350
552.38	18.478
552.57	18.552
552.77	18.213
552.96	18.513
553.16	18.744
553.35	18.684
553.54	19.355
553.74	18.961
553.93	18.593
554.13	19.062
554.32	19.667
554.52	19.728
554.71	19.543
554.91	19.808
555.10	19.015
555.29	19.441
555.49	19.587
555.68	19.807
555.88	19.888
556.07	19.888
556.27	20.306
556.46	20.320
556.66	19.609
556.85	19.644
557.04	19.885
557.24	19.952
557.43	21.366
557.63	21.070
557.82	20.344
558.02	20.497
558.21	21.311
558.40	20.893
558.60	21.082
558.79	20.741
558.99	21.126
559.18	20.999
559.38	21.422
559.57	21.303
559.76	21.114
559.96	22.210
560.15	21.844
560.35	20.704
560.54	21.690
560.73	20.887
560.93	22.186
561.12	22.112
561.32	22.203
561.51	22.183
561.70	22.429
561.90	22.320
562.09	22.123
562.29	23.191
562.48	23.169
562.67	22.981
562.87	23.088
563.06	22.471
563.26	22.739
563.45	22.966
563.64	22.913
563.84	23.260
564.03	23.339
564.23	23.407
564.42	23.832
564.61	22.959
564.81	23.880
565.00	24.038
565.20	23.536
565.39	24.354
565.58	23.666
565.78	23.385
565.97	23.688
566.16	23.606
566.36	23.969
566.55	24.252
566.74	24.164
566.94	23.944
567.13	24.244
567.33	24.201
567.52	23.999
567.71	24.165
567.91	24.705
568.10	24.951
568.29	25.033
568.49	25.314
568.68	25.162
568.87	24.516
569.07	25.550
569.26	25.176
569.45	25.278
569.65	24.743
569.84	25.401
570.04	24.700
570.23	25.090
570.42	24.497
570.62	25.075
570.81	25.290
571.00	25.050
571.20	25.049
571.39	24.945
571.58	25.612
571.78	25.675
571.97	26.138
572.16	25.616
572.36	24.921
572.55	26.089
572.74	25.587
572.94	25.838
573.13	25.700
573.32	25.446
573.51	25.982
573.71	25.598
573.90	25.466
574.09	26.092
574.29	26.182
574.48	26.143
574.67	26.165
574.87	26.161
575.06	25.396
575.25	26.371
575.45	26.247
575.64	26.375
575.83	25.274
576.03	26.752
576.22	25.755
576.41	26.422
576.60	26.195
576.80	25.840
576.99	25.772
577.18	27.407
577.38	25.677
577.57	26.409
577.76	26.395
577.95	26.682
578.15	25.918
578.34	26.350
578.53	25.938
578.73	26.660
578.92	26.140
579.11	26.485
579.30	26.328
579.50	26.350
579.69	26.311
579.88	26.937
580.08	26.554
580.27	27.325
580.46	26.839
580.65	26.464
580.85	26.302
581.04	26.019
581.23	26.345
581.42	26.569
581.62	26.839
581.81	25.890
582.00	25.457
582.19	26.710
582.39	26.320
582.58	26.068
582.77	26.548
582.96	26.238
583.16	25.368
583.35	26.401
583.54	25.446
583.73	27.196
583.93	25.903
584.12	25.783
584.31	25.900
584.50	26.247
584.70	24.966
584.89	25.641
585.08	26.310
585.27	26.654
585.47	25.383
585.66	26.039
585.85	25.515
586.04	25.824
586.24	26.383
586.43	26.966
586.62	24.843
586.81	25.559
587.00	25.639
587.20	25.988
587.39	25.333
587.58	25.283
587.77	25.231
587.97	25.738
588.16	25.767
588.35	25.901
588.54	25.339
588.73	25.939
588.93	25.673
589.12	25.352
589.31	25.426
589.50	24.982
589.69	25.075
589.89	25.170
590.08	25.370
590.27	25.613
590.46	25.692
590.65	25.243
590.85	25.391
591.04	25.689
591.23	25.201
591.42	25.404
591.61	25.631
591.81	25.524
592.00	25.259
592.19	25.556
592.38	26.020
592.57	25.930
592.77	25.856
592.96	25.708
593.15	26.303
593.34	25.216
593.53	24.802
593.72	25.557
593.92	26.018
594.11	25.450
594.30	24.784
594.49	25.478
594.68	25.515
594.87	25.933
595.07	24.928
595.26	25.683
595.45	25.613
595.64	26.368
595.83	25.546
596.02	25.371
596.22	25.993
596.41	25.406
596.60	25.919
596.79	26.311
596.98	26.359
597.17	25.547
597.37	25.721
597.56	25.173
597.75	25.681
597.94	26.057
598.13	25.982
598.32	25.986
598.51	25.886
598.71	26.473
598.90	26.976
599.09	26.333
599.28	26.480
599.47	26.345
599.66	26.073
599.85	26.565
600.05	26.430
600.24	27.033
600.43	26.817
600.62	27.346
600.81	27.717
601.00	27.118
601.19	27.074
601.38	27.224
601.58	27.383
601.77	26.634
601.96	27.225
602.15	27.016
602.34	27.271
602.53	27.108
602.72	27.117
602.91	27.039
603.10	27.318
603.30	26.863
603.49	26.228
603.68	27.474
603.87	27.197
604.06	26.934
604.25	27.231
604.44	26.895
604.63	27.047
604.82	27.352
605.01	26.846
605.21	28.091
605.40	26.675
605.59	27.061
605.78	26.837
605.97	27.093
606.16	27.699
606.35	27.069
606.54	27.667
606.73	28.003
606.92	27.404
607.11	27.326
607.30	27.053
607.50	27.336
607.69	27.135
607.88	27.615
608.07	27.356
608.26	27.450
608.45	28.130
608.64	27.908
608.83	25.418
609.02	27.282
609.21	26.920
609.40	27.034
609.59	26.562
609.78	26.102
609.97	26.183
610.16	26.620
610.35	26.286
610.55	26.037
610.74	25.959
610.93	26.643
611.12	25.906
611.31	26.783
611.50	26.160
611.69	26.759
611.88	26.751
612.07	26.627
612.26	26.376
612.45	27.480
612.64	26.180
612.83	26.827
613.02	26.889
613.21	26.269
613.40	25.621
613.59	25.868
613.78	25.155
613.97	26.522
614.16	25.606
614.35	26.061
614.54	25.084
614.73	25.465
614.92	25.542
615.11	24.935
615.30	24.973
615.49	25.193
615.68	24.061
615.87	25.064
616.07	25.014
616.26	23.673
616.45	25.599
616.64	25.825
616.83	25.210
617.02	25.290
617.21	25.236
617.40	24.410
617.59	24.703
617.78	24.878
617.97	24.951
618.16	24.617
618.35	23.186
618.54	24.194
618.73	24.124
618.92	24.512
619.11	23.548
619.30	23.796
619.49	23.615
619.68	24.185
619.86	23.636
620.05	23.546
620.24	22.341
620.43	24.333
620.62	22.528
620.81	23.505
621.00	24.646
621.19	24.155
621.38	23.725
621.57	23.770
621.76	24.304
621.95	24.831
622.14	23.484
622.33	24.083
622.52	22.692
622.71	24.435
622.90	23.170
623.09	22.774
623.28	22.117
623.47	23.632
623.66	23.055
623.85	23.093
624.04	23.314
624.23	23.264
624.42	22.750
624.61	23.218
624.80	22.748
624.99	22.692
625.18	22.916
625.36	22.486
625.55	22.140
625.74	22.477
625.93	22.201
626.12	24.142
626.31	23.376
626.50	23.908
626.69	22.872
626.88	23.085
627.07	23.025
627.26	23.239
627.45	23.172
627.64	22.524
627.83	23.213
628.02	21.848
628.20	22.603
628.39	22.705
628.58	22.004
628.77	23.441
628.96	22.731
629.15	22.671
629.34	21.940
629.53	22.785
629.72	22.617
629.91	22.891
630.10	21.906
630.29	22.237
630.47	22.409
630.66	22.015
630.85	21.978
631.04	22.005
631.23	22.291
631.42	22.034
631.61	22.028
631.80	22.817
631.99	21.999
632.18	21.968
632.36	21.466
632.55	23.284
632.74	21.376
632.93	22.209
633.12	20.764
633.31	21.893
633.50	22.007
633.69	21.891
633.88	21.052
634.06	22.424
634.25	21.514
634.44	21.830
634.63	22.361
634.82	23.121
635.01	20.935
635.20	21.544
635.39	20.866
635.57	22.463
635.76	22.368
635.95	21.277
636.14	21.138
636.33	22.424
636.52	21.500
636.71	20.502
636.89	21.754
637.08	20.774
637.27	22.011
637.46	21.696
637.65	21.337
637.84	22.440
638.03	20.815
638.21	22.386
638.40	22.722
638.59	21.222
638.78	21.265
638.97	22.292
639.16	21.929
639.34	21.939
639.53	21.005
639.72	22.324
639.91	20.781
640.10	20.508
640.29	21.647
640.47	22.947
640.66	21.625
640.85	21.624
641.04	20.060
641.23	21.084
641.42	20.512
641.60	21.208
641.79	20.718
641.98	21.473
642.17	20.562
642.36	21.545
642.54	20.659
642.73	21.017
642.92	20.100
643.11	20.637
643.30	20.059
643.49	21.730
643.67	19.687
643.86	21.756
644.05	21.260
644.24	21.516
644.43	19.872
644.61	21.304
644.80	20.509
644.99	21.896
645.18	20.818
645.37	21.029
645.55	20.451
645.74	21.350
645.93	21.202
646.12	21.365
646.31	20.603
646.49	21.320
646.68	21.147
646.87	21.212
647.06	20.337
647.24	21.120
647.43	19.863
647.62	21.859
647.81	19.203
648.00	20.677
648.18	19.427
648.37	19.797
648.56	20.945
648.75	20.813
648.93	20.819
649.12	21.130
649.31	20.546
649.50	20.793
649.68	20.212
649.87	22.027
650.06	19.525
650.25	20.400
650.43	19.685
650.62	20.397
650.81	20.599
651.00	19.663
651.18	19.831
651.37	21.329
651.56	18.372
651.75	20.697
651.93	20.126
652.12	22.030
652.31	19.198
652.50	20.735
652.68	21.253
652.87	21.291
653.06	19.811
653.25	20.242
653.43	20.003
653.62	20.077
653.81	19.604
654.00	20.178
654.18	19.069
654.37	20.974
654.56	20.076
654.74	18.245
654.93	19.475
655.12	20.065
655.31	18.087
655.49	19.852
655.68	17.984
655.87	18.458
656.05	16.652
656.24	18.970
656.43	17.313
656.62	18.786
656.80	17.884
656.99	18.511
657.18	16.516
657.36	18.264
657.55	18.170
657.74	19.692
657.93	18.048
658.11	19.870
658.30	18.319
658.49	17.594
658.67	17.050
658.86	15.771
659.05	16.453
659.23	18.206
659.42	15.773
659.61	18.267
659.79	16.240
659.98	17.168
660.17	17.366
660.35	17.515
660.54	16.962
660.73	17.554
660.91	16.980
661.10	17.632
661.29	15.636
661.47	17.105
661.66	15.087
661.85	16.576
662.03	16.244
662.22	14.701
662.41	13.895
662.59	15.063
662.78	14.648
662.97	14.933
663.15	13.298
663.34	13.952
663.53	13.191
663.71	14.213
663.90	13.752
664.09	14.301
664.27	14.609
664.46	14.414
664.65	12.737
664.83	12.995
665.02	11.480
665.21	11.836
665.39	11.104
665.58	14.006
665.77	13.060
665.95	13.561
666.14	12.625
666.32	12.783
666.51	12.085
666.70	12.429
666.88	11.689
667.07	11.392
667.26	9.304
667.44	12.379
667.63	12.621
667.81	11.065
668.00	11.899
668.19	13.851
668.37	12.400
668.56	13.531
668.75	10.919
668.93	13.642
669.12	11.211
669.30	12.796
669.49	11.214
669.68	12.329
669.86	12.264
670.05	12.395
670.23	11.835
670.42	11.844
670.61	12.477
670.79	14.465
670.98	13.652
671.16	14.788
671.35	11.033
671.54	13.127
671.72	11.666
671.91	13.174
672.09	10.998
672.28	14.705
672.46	13.725
672.65	13.601
672.84	12.452
673.02	13.565
673.21	10.069
673.39	12.445
673.58	12.877
673.77	13.605
673.95	12.493
674.14	14.688
674.32	11.282
674.51	15.934
674.69	13.767
674.88	14.464
675.07	11.064
675.25	15.961
675.44	15.433
675.62	14.358
675.81	13.167
675.99	16.972
676.18	14.232
676.36	13.421
676.55	13.767
676.74	15.969
676.92	15.326
677.11	14.182
677.29	12.550
677.48	16.626
677.66	14.400
677.85	14.815
678.03	15.497
678.22	16.228
678.40	14.530
678.59	14.305
678.78	13.807
678.96	13.276
679.15	15.344
679.33	15.814
679.52	15.783
679.70	16.247
679.89	15.281
680.07	16.081
680.26	15.208
680.44	15.192
680.63	15.577
680.81	14.915
681.00	13.539
681.18	14.399
681.37	15.292
681.55	16.658
681.74	15.829
681.92	16.370
682.11	16.899
682.29	14.910
682.48	16.795
682.66	16.914
682.85	16.374
683.03	18.583
683.22	17.091
683.40	16.921
683.59	17.154
683.77	18.811
683.96	14.720
684.14	18.387
684.33	14.733
684.51	20.495
684.70	18.625
684.88	21.005
685.07	17.673
685.25	19.780
685.44	17.426
685.62	20.535
685.81	16.539
685.99	20.698
686.18	17.058
686.36	19.698
686.55	17.621
686.73	21.656
686.92	20.199
687.10	20.393
687.29	21.125
687.47	21.837
687.65	20.740
687.84	19.838
688.02	21.022
688.21	24.372
688.39	19.953
688.58	23.464
688.76	22.538
688.95	21.476
689.13	21.910
689.32	24.763
689.50	22.097
689.68	25.615
689.87	23.651
690.05	24.956
690.24	25.345
690.42	25.309
690.61	24.729
690.79	26.921
690.98	26.026
691.16	26.245
691.34	25.127
691.53	27.761
691.71	25.723
691.90	29.087
692.08	27.087
692.27	30.094
692.45	29.492
692.63	28.333
692.82	30.198
693.00	30.681
693.19	30.792
693.37	31.573
693.56	31.049
693.74	32.955
693.92	31.337
694.11	34.340
694.29	34.337
694.48	33.333
694.66	34.521
694.84	34.738
695.03	33.401
695.21	38.422
695.40	36.032
695.58	37.453
695.76	35.551
695.95	36.743
696.13	37.781
696.32	39.003
696.50	41.856
696.68	39.045
696.87	37.968
697.05	40.191
697.24	39.803
697.42	42.655
697.60	38.803
697.79	40.630
697.97	41.979
698.16	41.062
698.34	38.432
698.52	42.060
698.71	40.861
698.89	41.731
699.07	40.487
699.26	40.587
699.44	42.020
699.63	41.556
699.81	41.364
699.99	42.913
700.18	43.838
700.36	44.042
700.54	43.876
700.73	41.857
700.91	43.535
701.09	43.629
701.28	44.574
701.46	44.945
701.64	44.262
701.83	46.296
702.01	45.855
702.20	47.382
702.38	46.460
702.56	47.938
702.75	46.274
702.93	48.562
703.11	47.482
703.30	48.889
703.48	48.161
703.66	49.103
703.85	49.076
704.03	52.201
704.21	48.901
704.40	51.224
704.58	49.305
704.76	50.365
704.95	50.671
705.13	52.661
705.31	49.000
705.50	51.947
705.68	51.748
705.86	51.648
706.04	52.376
706.23	52.610
706.41	51.281
706.59	52.845
706.78	47.038
706.96	51.855
707.14	54.786
707.33	53.311
707.51	52.724
707.69	51.314
707.88	51.609
708.06	51.865
708.24	51.121
708.42	53.779
708.61	54.627
708.79	54.534
708.97	53.444
709.16	53.466
709.34	56.326
709.52	53.540
709.71	55.799
709.89	55.187
710.07	52.077
710.25	55.483
710.44	52.409
710.62	52.389
710.80	53.554
710.98	54.449
711.17	51.618
711.35	55.808
711.53	53.792
711.72	55.375
711.90	55.892
712.08	54.295
712.26	52.100
712.45	57.068
712.63	54.767
712.81	52.726
712.99	54.823
713.18	55.507
713.36	53.203
713.54	54.600
713.72	55.596
713.91	54.885
714.09	54.372
714.27	54.458
714.45	55.206
714.64	55.938
714.82	55.587
715.00	56.104
715.18	55.333
715.37	55.733
715.55	55.037
715.73	55.083
715.91	54.848
716.10	56.492
716.28	53.411
716.46	53.781
716.64	54.312
716.83	54.482
717.01	54.221
717.19	57.545
717.37	54.174
717.55	54.022
717.74	54.964
717.92	54.548
718.10	54.710
718.28	56.859
718.47	54.529
718.65	57.705
718.83	53.893
719.01	57.382
719.19	58.884
719.38	55.749
719.56	55.142
719.74	57.059
719.92	54.487
720.10	55.936
720.29	56.132
720.47	57.777
720.65	54.344
720.83	59.246
721.01	54.481
721.20	55.901
721.38	55.930
721.56	57.967
721.74	57.610
721.92	59.218
722.11	58.086
722.29	55.913
722.47	55.923
722.65	59.493
722.83	58.619
723.01	55.122
723.20	54.319
723.38	58.139
723.56	56.266
723.74	61.028
723.92	57.632
724.10	56.609
724.29	53.830
724.47	58.668
724.65	56.158
724.83	60.177
725.01	53.227
725.19	59.184
725.38	55.119
725.56	58.181
725.74	58.339
725.92	60.597
726.10	57.594
726.28	58.543
726.46	60.486
726.65	61.111
726.83	58.071
727.01	58.058
727.19	57.411
727.37	56.233
727.55	58.043
727.73	57.146
727.92	59.763
728.10	57.167
728.28	55.869
728.46	59.276
728.64	59.288
728.82	59.746
729.00	59.724
729.19	58.886
729.37	56.936
729.55	56.999
729.73	56.621
729.91	57.720
730.09	58.338
730.27	57.199
730.45	55.586
730.63	58.538
730.82	57.460
731.00	58.048
731.18	56.915
731.36	61.202
731.54	55.044
731.72	58.281
731.90	57.183
732.08	56.756
732.26	58.192
732.45	58.751
732.63	58.311
732.81	58.640
732.99	56.034
733.17	56.726
733.35	58.371
733.53	59.953
733.71	56.294
733.89	58.206
734.07	62.711
734.25	59.771
734.44	58.626
734.62	61.537
734.80	57.451
734.98	60.533
735.16	59.400
735.34	63.514
735.52	61.082
735.70	60.988
735.88	60.740
736.06	57.893
736.24	60.858
736.42	62.436
736.60	62.942
736.78	61.484
736.97	58.872
737.15	61.807
737.33	60.704
737.51	61.084
737.69	59.025
737.87	60.209
738.05	61.461
738.23	61.707
738.41	58.401
738.59	58.812
738.77	62.252
738.95	65.686
739.13	60.732
739.31	63.778
739.49	60.834
739.67	60.954
739.85	59.040
740.03	65.174
740.21	63.717
740.39	61.354
740.57	60.395
740.75	60.737
740.93	60.624
741.11	57.822
741.30	61.752
741.48	62.266
741.66	61.813
741.84	64.169
742.02	61.277
742.20	63.261
742.38	62.292
742.56	63.387
742.74	59.101
742.92	59.456
743.10	56.954
743.28	62.133
743.46	62.837
743.64	62.359
743.82	60.399
744.00	63.737
744.18	64.549
744.36	60.667
744.54	59.427
744.72	65.533
744.90	62.776
745.08	66.386
745.26	59.989
745.44	65.884
745.62	58.075
745.80	64.902
745.98	62.830
746.16	63.080
746.34	61.329
746.52	63.533
746.70	60.994
746.87	64.928
747.05	62.627
747.23	64.288
747.41	63.610
747.59	66.110
747.77	56.545
747.95	65.252
748.13	58.095
748.31	66.347
748.49	64.845
748.67	59.302
748.85	61.534
749.03	66.158
749.21	58.152
749.39	63.564
749.57	56.572
749.75	62.049
749.93	60.180
750.11	61.489
750.29	58.715
750.47	63.266
750.65	61.637
750.83	60.749
751.01	60.111
751.18	64.587
751.36	55.879
751.54	66.696
751.72	61.437
751.90	61.213
752.08	59.233
752.26	62.553
752.44	55.126
752.62	61.577
752.80	60.131
752.98	61.901
753.16	62.497
753.34	66.159
753.52	60.195
753.69	62.500
753.87	64.898
754.05	64.810
754.23	62.267
754.41	62.034
754.59	62.147
754.77	62.055
754.95	60.718
755.13	61.529
755.31	58.559
755.49	59.302
755.66	63.212
755.84	64.849
756.02	59.222
756.20	62.409
756.38	61.369
756.56	63.286
756.74	62.421
756.92	67.706
757.10	59.946
757.28	62.950
757.45	62.403
757.63	62.261
757.81	58.017
757.99	65.191
758.17	60.394
758.35	62.814
758.53	60.576
758.71	64.157
758.88	58.979
759.06	58.961
759.24	59.082
759.42	61.255
759.60	56.392
759.78	53.842
759.96	55.326
760.13	59.222
760.31	52.926
760.49	55.454
760.67	47.646
760.85	53.119
761.03	48.917
761.21	50.472
761.38	47.151
761.56	51.895
761.74	49.490
761.92	56.062
762.10	49.889
762.28	52.636
762.46	47.915
762.63	53.615
762.81	54.424
762.99	52.018
763.17	55.622
763.35	54.108
763.53	53.105
763.70	56.321
763.88	56.099
764.06	53.239
764.24	52.739
764.42	54.905
764.60	51.641
764.77	53.181
764.95	52.406
765.13	56.563
765.31	53.015
765.49	53.968
765.66	55.012
765.84	55.946
766.02	54.489
766.20	56.768
766.38	56.105
766.56	55.995
766.73	54.821
766.91	57.891
767.09	61.042
767.27	56.769
767.45	56.996
767.62	62.963
767.80	53.539
767.98	59.768
768.16	53.728
768.33	59.660
768.51	53.778
768.69	60.380
768.87	53.979
769.05	60.239
769.22	59.955
769.40	63.360
769.58	57.512
769.76	64.544
769.94	58.423
770.11	63.403
770.29	58.049
770.47	59.335
770.65	60.835
770.82	63.333
771.00	58.359
771.18	61.921
771.36	57.692
771.53	59.926
771.71	60.137
771.89	66.627
772.07	60.599
772.25	64.990
772.42	58.373
772.60	67.651
772.78	56.644
772.96	67.674
773.13	61.184
773.31	60.294
773.49	62.005
773.67	58.655
773.84	62.132
774.02	61.700
774.20	59.724
774.37	56.513
774.55	57.372
774.73	61.422
774.91	59.539
775.08	57.826
775.26	58.532
775.44	66.205
775.62	57.534
775.79	65.212
775.97	52.734
776.15	61.847
776.32	56.502
776.50	64.183
776.68	64.213
776.86	66.227
777.03	64.045
777.21	65.393
777.39	59.075
777.56	60.790
777.74	62.001
777.92	62.472
778.10	53.393
778.27	63.211
778.45	59.838
778.63	63.934
778.80	54.993
778.98	61.634
779.16	59.867
779.34	62.041
779.51	63.856
779.69	65.624
779.87	59.982
780.04	66.527
780.22	57.537
780.40	55.305
780.57	61.667
780.75	67.443
780.93	62.931
781.10	57.635
781.28	71.300
781.46	62.088
781.63	58.214
781.81	68.197
781.99	57.357
782.16	60.806
782.34	54.013
782.52	64.644
782.69	58.568
782.87	55.452
783.05	51.153
783.22	62.582
783.40	59.507
783.58	62.678
783.75	54.639
783.93	64.779
784.11	56.061
784.28	60.693
784.46	55.789
784.64	60.430
784.81	51.146
784.99	62.098
785.17	65.008
785.34	58.359
785.52	55.751
785.69	59.392
785.87	54.073
786.05	63.492
786.22	61.855
786.40	66.559
786.58	64.812
786.75	65.242
786.93	52.295
787.11	52.901
787.28	57.690
787.46	64.198
787.63	61.076
787.81	53.432
787.99	55.425
788.16	57.435
788.34	49.363
788.51	61.259
788.69	59.632
788.87	59.630
789.04	58.724
789.22	55.585
789.39	54.128
789.57	54.780
789.75	59.392
789.92	60.320
790.10	50.603
790.27	61.254
790.45	52.107
790.63	58.419
790.80	52.203
790.98	52.696
791.15	56.182
791.33	54.484
791.51	54.686
791.68	62.722
791.86	58.638
792.03	63.666
792.21	45.930
792.39	61.226
792.56	56.969
792.74	57.043
792.91	59.673
793.09	54.006
793.26	55.182
793.44	60.993
793.62	57.901
793.79	54.418
793.97	55.664
794.14	63.918
794.32	60.378
794.49	57.008
794.67	53.987
794.84	58.446
795.02	57.550
795.20	61.576
795.37	55.337
795.55	65.858
795.72	54.879
795.90	56.942
796.07	63.011
796.25	55.428
796.42	50.498
796.60	51.282
796.77	57.552
796.95	51.799
797.13	49.508
797.30	60.383
797.48	49.868
797.65	59.450
797.83	49.188
798.00	60.452
798.18	52.343
798.35	52.895
798.53	54.216
798.70	55.231
798.88	61.797
799.05	56.908
799.23	56.535
799.40	55.267
799.58	54.873
799.75	56.149
799.93	57.372
800.10	55.808
800.28	53.601
800.45	56.527
800.63	53.991
800.80	58.155
800.98	54.678
801.15	55.868
801.33	51.494
801.50	56.977
801.68	57.670
801.85	51.447
802.03	59.300
802.20	57.654
802.38	56.812
802.55	53.529
802.73	60.332
802.90	47.703
803.08	51.236
803.25	66.104
803.43	60.062
803.60	62.706
803.78	56.226
803.95	54.389
804.13	57.638
804.30	61.364
804.48	51.572
804.65	55.643
804.83	51.267
805.00	48.807
805.17	55.874
805.35	61.154
805.52	61.171
805.70	56.856
805.87	61.268
806.05	56.522
806.22	50.824
806.40	54.144
806.57	47.805
806.75	66.231
806.92	57.966
807.09	51.626
807.27	55.407
807.44	62.500
807.62	55.131
807.79	51.891
807.97	48.141
808.14	55.884
808.31	50.000
808.49	53.902
808.66	56.768
808.84	48.198
809.01	56.410
809.19	59.354
809.36	62.199
809.53	49.904
809.71	51.485
809.88	61.843
810.06	56.401
810.23	60.373
810.41	62.536
810.58	56.942
810.75	49.027
810.93	51.420
811.10	52.741
811.28	62.667
811.45	50.892
811.62	54.196
811.80	49.474
811.97	56.951
812.15	66.303
812.32	50.855
812.49	58.577
812.67	49.016
812.84	45.378
813.02	57.886
813.19	47.826
813.36	61.458
813.54	45.583
813.71	56.300
813.89	56.810
814.06	55.364
814.23	58.499
814.41	51.630
814.58	57.665
814.75	60.225
814.93	44.271
815.10	67.615
815.28	53.446
815.45	51.343
815.62	58.145
815.80	48.884
815.97	46.883
816.14	61.244
816.32	55.252
816.49	45.497
816.66	45.313
816.84	45.418
817.01	49.851
817.18	45.254
817.36	55.483
817.53	63.660
817.71	44.159
817.88	47.829
818.05	44.764
818.23	48.418
818.40	45.937
818.57	51.950
818.75	51.496
818.92	51.046
819.09	43.039
819.27	53.704
819.44	46.292
819.61	42.269
819.79	48.197
819.96	58.182
820.13	46.692
820.31	54.344
820.48	51.839
820.65	52.397
820.82	51.897
821.00	52.180
821.17	42.151
821.34	52.241
821.52	44.536
821.69	44.775
821.86	45.461
822.04	49.124
822.21	49.465
822.38	52.236
822.56	50.573
822.73	51.310
822.90	49.039
823.07	50.959
823.25	49.882
823.42	47.415
823.59	48.913
823.77	48.978
823.94	50.069
824.11	51.924
824.29	50.257
824.46	50.437
824.63	50.327
824.80	51.353
824.98	52.411
825.15	49.085
825.32	49.086
825.49	54.392
825.67	51.958
825.84	54.538
826.01	51.436
826.19	52.827
826.36	48.125
826.53	55.109
826.70	47.707
826.88	55.556
827.05	50.288
827.22	52.396
827.39	50.785
827.57	47.578
827.74	48.679
827.91	52.278
828.08	45.581
828.26	46.635
828.43	47.277
828.60	54.037
828.77	48.435
828.95	50.944
829.12	45.407
829.29	45.309
829.46	50.259
829.64	45.559
829.81	46.027
829.98	54.241
830.15	46.524
830.32	46.691
830.50	46.481
830.67	52.874
830.84	46.763
831.01	40.916
831.19	52.729
831.36	45.200
831.53	48.462
831.70	55.202
831.87	47.244
832.05	51.667
832.22	53.723
832.39	38.994
832.56	49.182
832.74	40.896
832.91	44.950
833.08	54.894
833.25	43.718
833.42	48.417
833.60	43.845
833.77	33.837
833.94	42.714
834.11	42.954
834.28	42.529
834.45	50.078
834.63	43.096
834.80	44.991
834.97	44.171
835.14	47.551
835.31	42.454
835.49	50.585
835.66	44.975
835.83	46.504
836.00	47.890
836.17	47.307
836.34	42.449
836.52	44.308
836.69	43.906
836.86	50.755
837.03	52.550
837.20	47.438
837.37	44.539
837.55	46.885
837.72	49.181
837.89	46.102
838.06	43.673
838.23	57.568
838.40	57.552
838.58	44.358
838.75	62.595
838.92	48.856
839.09	59.961
839.26	62.889
839.43	63.863
839.60	53.333
839.78	69.009
839.95	61.856
840.12	57.396
840.29	62.130
840.46	59.561
840.63	55.527
840.80	48.167
840.98	56.504
841.15	51.438
841.32	47.581
841.49	45.823
841.66	56.136
841.83	47.360
842.00	60.178
842.17	56.386
842.34	51.958
842.52	64.706
842.69	64.954
842.86	50.658
843.03	68.966
843.20	63.401
843.37	54.719
843.54	57.444
843.71	60.578
843.88	68.327
844.06	70.115
844.23	69.068
844.40	63.186
844.57	84.069
844.74	92.529
844.91	68.661
845.08	74.960
845.25	66.509
845.42	82.328
845.59	73.932
845.76	65.984
845.94	77.094
846.11	51.167
846.28	71.154
846.45	94.309
846.62	85.185
846.79	63.939
846.96	75.589
847.13	82.888
847.30	68.750
847.47	98.996
847.64	77.893
847.81	77.561
847.98	86.453
848.15	83.120
848.32	85.165
848.50	114.323
848.67	80.208
848.84	91.061
849.01	66.420
849.18	74.011
849.35	107.742
849.52	85.185
849.69	89.847
849.86	95.068
850.03	82.197
850.20	117.511
850.37	64.922
850.54	116.270
850.71	107.771
850.88	78.095
851.05	92.375
851.22	60.588
851.39	105.229
851.56	71.111
851.73	94.128
851.90	92.323
852.07	98.958
852.24	65.703
852.41	111.679
852.58	94.227
852.75	87.751
852.92	105.897
853.09	99.267
853.26	115.972
853.43	76.138
853.60	88.722
853.77	77.694
853.94	100.860
854.11	84.432
854.28	85.017
854.45	85.921
854.62	86.478
854.79	90.335
854.96	106.250
855.13	89.944
855.30	83.015
855.47	86.667
855.64	84.028
855.81	82.222
855.98	122.018
856.15	89.871
856.32	96.667
856.49	95.526
856.66	130.747
856.83	89.059
857.00	83.832
857.17	109.412
857.34	91.096
857.51	111.209
857.68	83.525
857.85	76.523
858.02	86.703
858.19	96.322
858.36	103.977
858.53	93.607
858.70	87.603
858.87	95.052
859.04	84.086
859.21	89.610
859.38	82.667
859.55	103.497
859.72	83.229
859.89	105.721
860.05	106.329
860.22	78.142
860.39	92.130
860.56	89.782
860.73	96.917
860.90	110.502
861.07	120.343
861.24	70.543
861.41	90.429
861.58	74.954
861.75	95.276
861.92	102.870
862.09	89.141
862.26	157.692
862.43	97.342
862.59	84.783
862.76	94.545
862.93	123.868
863.10	122.424
863.27	72.727
863.44	110.438
863.61	89.269
863.78	118.229
863.95	97.094
864.12	90.185
864.29	80.261
864.45	103.106
864.62	97.714
864.79	99.764
864.96	107.738
865.13	74.806
865.30	102.222
865.47	94.872
865.64	118.152
865.81	77.348
865.97	73.406
866.14	93.924
866.31	67.719
866.48	83.333
866.65	74.879
866.82	124.333
866.99	83.105
867.16	105.322
867.33	80.516
867.49	79.727
867.66	84.058
867.83	90.991
868.00	77.554
868.17	102.151
868.34	118.493
868.51	115.238
868.67	91.939
868.84	101.377
869.01	95.370
869.18	74.375
869.35	92.229
869.52	91.875
869.69	77.909
869.85	85.610
870.02	88.288
870.19	110.875
870.36	108.937
870.53	84.298
870.70	144.167
870.86	96.429
871.03	88.960
871.20	78.548
871.37	109.032
871.54	116.358
871.71	71.318
871.87	79.389
872.04	89.447
872.21	72.254
872.38	105.714
872.55	101.182
872.72	70.531
872.88	93.291
873.05	89.518
873.22	61.111
873.39	85.208
873.56	86.355
873.72	94.398
873.89	98.996
874.06	93.506
874.23	80.802
874.40	139.144
874.56	90.761
874.73	120.621
874.90	83.951
875.07	97.386
875.24	73.489
875.40	106.410
875.57	95.274
875.74	102.137
875.91	94.363
876.08	115.646
876.24	116.061
876.41	89.667
876.58	92.593
876.75	82.946
876.92	81.366
877.08	92.982
877.25	77.333
877.42	101.566
877.59	93.976
877.75	87.166
877.92	75.758
878.09	100.800
878.26	93.333
878.42	94.589
878.59	99.251
878.76	89.583
878.93	82.567
879.09	87.947
879.26	89.977
879.43	84.245
879.60	91.254
879.76	74.055
879.93	77.647
880.10	49.327
880.27	57.021
880.43	54.717
880.60	73.990
880.77	45.008
880.94	58.940
881.10	51.059
881.27	47.150
881.44	41.186
881.61	45.960
881.77	47.705
881.94	35.868
882.11	36.214
882.28	35.738
882.44	37.176
882.61	39.148
882.78	44.913
882.94	46.240
883.11	48.129
883.28	45.171
883.45	43.265
883.61	42.191
883.78	37.441
883.95	48.976
884.11	43.202
884.28	40.410
>>>>>End Processed Spectral Data<<<<<
