SpectraSuite Data File
++++++++++++++++++++++++++++++++++++
Date: Mon Sep 23 03:27:32 EST 2019
User: sgrac
Dark Spectrum Present: Yes
Reference Spectrum Present: Yes
Number of Sampled Component Spectra: 1
Spectrometers: USB4E01596
Integration Time (usec): 100000 (USB4E01596)
Spectra Averaged: 3 (USB4E01596)
Boxcar Smoothing: 0 (USB4E01596)
Correct for Electrical Dark: No (USB4E01596)
Strobe/Lamp Enabled: Yes (USB4E01596)
Correct for Detector Non-linearity: No (USB4E01596)
Correct for Stray Light: No (USB4E01596)
Number of Pixels in Processed Spectrum: 3648
>>>>>Begin Processed Spectral Data<<<<<
178.44	1692.308
178.66	1692.308
178.87	1692.308
179.09	6700.000
179.30	-5700.000
179.52	-551.613
179.74	-377.358
179.95	618.182
180.17	-436.111
180.38	457.895
180.60	-2281.818
180.82	666.667
181.03	3633.333
181.25	-2250.000
181.46	-1104.000
181.68	1162.500
181.89	-509.091
182.11	-1743.750
182.33	-1500.000
182.54	602.083
182.76	3500.000
182.97	-444.681
183.19	1220.000
183.40	247.934
183.62	384.615
183.84	277.273
184.05	3585.714
184.27	383.333
184.48	433.333
184.70	1176.471
184.91	980.952
185.13	1610.000
185.34	-9650.000
185.56	984.615
185.78	393.056
185.99	783.333
186.21	322.727
186.42	-4775.000
186.64	1670.000
186.85	-4460.000
187.07	558.000
187.28	438.158
187.50	370.909
187.72	280.769
187.93	761.818
188.15	285.417
188.36	427.632
188.58	455.102
188.79	289.423
189.01	402.817
189.22	678.378
189.44	-815.152
189.65	261.017
189.87	-5375.000
190.09	346.032
190.30	838.095
190.52	356.667
190.73	586.957
190.95	-4333.333
191.16	326.190
191.38	429.730
191.59	358.824
191.81	408.065
192.02	1406.667
192.24	740.625
192.45	814.706
192.67	-1506.250
192.88	426.415
193.10	459.016
193.31	742.500
193.53	240.323
193.74	281.333
193.96	1835.714
194.18	734.615
194.39	1720.000
194.61	349.315
194.82	1077.273
195.04	263.415
195.25	-357.895
195.47	-379.630
195.68	4466.667
195.90	485.455
196.11	283.582
196.33	21800.000
196.54	670.732
196.76	1392.857
196.97	354.545
197.19	683.784
197.40	1807.143
197.62	197.248
197.83	900.000
198.05	480.000
198.26	813.793
198.48	429.577
198.69	428.333
198.91	1005.556
199.12	467.442
199.34	528.261
199.55	388.571
199.77	1626.316
199.98	858.824
200.20	339.474
200.41	458.065
200.63	292.035
200.84	1842.857
201.06	2166.667
201.27	660.976
201.49	336.620
201.70	-663.333
201.91	298.611
202.13	376.271
202.34	360.345
202.56	-960.000
202.77	382.222
202.99	4400.000
203.20	-3212.500
203.42	1481.250
203.63	306.579
203.85	4533.333
204.06	470.000
204.28	256.566
204.49	466.667
204.71	344.068
204.92	630.769
205.14	0.000
205.35	493.333
205.56	-1090.000
205.78	5320.000
205.99	-1521.429
206.21	9400.000
206.42	618.182
206.64	796.774
206.85	744.444
207.07	-1944.444
207.28	358.621
207.50	586.957
207.71	893.548
207.93	215.663
208.14	-1040.741
208.35	332.727
208.57	744.000
208.78	-2666.667
209.00	255.319
209.21	-12650.000
209.43	-7700.000
209.64	-1326.667
209.86	237.113
210.07	358.140
210.28	405.634
210.50	924.138
210.71	480.392
210.93	236.765
211.14	305.618
211.36	1118.750
211.57	374.242
211.78	358.571
212.00	338.824
212.21	422.857
212.43	741.026
212.64	335.106
212.86	386.486
213.07	305.505
213.29	-558.333
213.50	278.261
213.71	314.943
213.93	302.439
214.14	990.909
214.36	263.235
214.57	321.519
214.78	573.333
215.00	298.958
215.21	960.000
215.43	783.784
215.64	304.762
215.86	308.750
216.07	654.286
216.28	721.053
216.50	241.667
216.71	23100.000
216.93	433.333
217.14	1077.778
217.35	233.333
217.57	258.559
217.78	322.222
218.00	254.545
218.21	1126.087
218.42	623.404
218.64	419.643
218.85	444.000
219.07	770.000
219.28	296.262
219.49	386.275
219.71	435.385
219.92	202.985
220.14	294.845
220.35	358.667
220.56	227.586
220.78	187.500
220.99	209.677
221.21	276.344
221.42	249.383
221.63	155.491
221.85	336.923
222.06	301.429
222.28	353.846
222.49	254.955
222.70	224.409
222.92	640.816
223.13	363.934
223.34	221.986
223.56	227.381
223.77	232.500
223.99	342.105
224.20	375.000
224.41	232.877
224.63	206.818
224.84	231.081
225.05	120.085
225.27	234.783
225.48	157.843
225.69	222.556
225.91	290.541
226.12	203.101
226.34	161.745
226.55	130.935
226.76	203.750
226.98	149.412
227.19	95.312
227.40	200.000
227.62	128.042
227.83	105.150
228.04	82.123
228.26	72.751
228.47	79.887
228.69	57.868
228.90	39.019
229.11	48.722
229.33	40.282
229.54	33.977
229.75	27.801
229.97	28.937
230.18	35.169
230.39	35.951
230.61	37.344
230.82	35.928
231.03	29.771
231.25	29.366
231.46	34.163
231.67	39.843
231.89	45.682
232.10	43.930
232.31	43.079
232.53	55.857
232.74	61.869
232.95	41.379
233.17	31.600
233.38	44.538
233.59	60.297
233.81	56.341
234.02	41.283
234.23	61.702
234.45	53.472
234.66	52.876
234.87	47.336
235.09	52.090
235.30	44.834
235.51	51.246
235.73	46.939
235.94	43.541
236.15	52.269
236.36	44.673
236.58	36.817
236.79	45.723
237.00	45.308
237.22	32.823
237.43	56.573
237.64	47.559
237.86	45.489
238.07	49.141
238.28	39.194
238.50	38.176
238.71	36.511
238.92	47.656
239.13	49.153
239.35	45.879
239.56	43.640
239.77	41.601
239.99	35.825
240.20	47.507
240.41	31.851
240.63	32.075
240.84	40.174
241.05	34.825
241.26	30.088
241.48	26.829
241.69	23.682
241.90	22.991
242.12	20.453
242.33	24.650
242.54	16.947
242.75	18.629
242.97	17.919
243.18	13.709
243.39	13.315
243.61	18.119
243.82	23.529
244.03	19.336
244.24	17.206
244.46	18.512
244.67	24.453
244.88	22.256
245.09	21.737
245.31	24.565
245.52	20.976
245.73	16.505
245.95	35.608
246.16	23.352
246.37	16.637
246.58	16.593
246.80	16.992
247.01	21.480
247.22	15.551
247.43	16.456
247.65	16.070
247.86	18.197
248.07	12.133
248.28	15.023
248.50	17.010
248.71	14.601
248.92	15.255
249.13	13.346
249.35	17.403
249.56	15.244
249.77	17.156
249.98	14.815
250.20	22.219
250.41	16.827
250.62	19.645
250.83	18.170
251.05	16.210
251.26	17.234
251.47	15.232
251.68	16.770
251.90	17.647
252.11	20.560
252.32	22.392
252.53	19.185
252.75	15.298
252.96	21.166
253.17	16.619
253.38	16.252
253.59	16.230
253.81	16.489
254.02	13.276
254.23	18.678
254.44	13.521
254.66	15.410
254.87	16.409
255.08	21.295
255.29	22.425
255.50	14.615
255.72	18.786
255.93	20.478
256.14	22.727
256.35	19.337
256.57	25.639
256.78	19.663
256.99	18.243
257.20	25.406
257.41	19.499
257.63	25.536
257.84	15.796
258.05	19.072
258.26	16.808
258.47	19.042
258.69	18.395
258.90	11.340
259.11	15.575
259.32	16.263
259.53	14.158
259.75	12.642
259.96	11.910
260.17	12.268
260.38	10.531
260.59	13.228
260.81	12.669
261.02	11.693
261.23	12.836
261.44	14.291
261.65	13.221
261.87	12.524
262.08	14.977
262.29	14.658
262.50	12.803
262.71	12.881
262.92	16.421
263.14	11.917
263.35	13.923
263.56	14.018
263.77	15.706
263.98	12.216
264.20	16.743
264.41	14.219
264.62	13.310
264.83	13.247
265.04	18.575
265.25	15.349
265.47	15.027
265.68	18.159
265.89	13.672
266.10	8.256
266.31	18.406
266.52	13.579
266.74	11.565
266.95	14.352
267.16	16.135
267.37	12.888
267.58	12.561
267.79	13.998
268.01	13.201
268.22	12.931
268.43	15.143
268.64	14.177
268.85	12.299
269.06	11.435
269.27	15.098
269.49	11.732
269.70	12.238
269.91	14.024
270.12	11.518
270.33	15.202
270.54	10.663
270.75	9.986
270.97	15.080
271.18	10.972
271.39	11.603
271.60	12.843
271.81	10.454
272.02	12.474
272.23	15.906
272.45	11.831
272.66	9.027
272.87	12.102
273.08	10.330
273.29	13.297
273.50	12.369
273.71	11.103
273.92	9.952
274.14	9.139
274.35	12.006
274.56	13.409
274.77	12.569
274.98	11.212
275.19	12.104
275.40	12.897
275.61	12.068
275.83	15.983
276.04	12.636
276.25	14.102
276.46	13.532
276.67	15.150
276.88	17.880
277.09	13.519
277.30	14.383
277.51	15.063
277.73	10.235
277.94	10.961
278.15	16.184
278.36	13.749
278.57	10.700
278.78	11.970
278.99	13.933
279.20	12.107
279.41	18.744
279.62	10.971
279.84	10.738
280.05	12.375
280.26	9.837
280.47	13.806
280.68	12.420
280.89	10.657
281.10	11.726
281.31	12.066
281.52	14.237
281.73	8.567
281.94	10.081
282.16	11.556
282.37	9.665
282.58	11.492
282.79	16.600
283.00	15.544
283.21	10.664
283.42	11.417
283.63	12.941
283.84	10.396
284.05	12.835
284.26	9.628
284.47	12.329
284.68	12.418
284.89	12.580
285.11	12.204
285.32	9.484
285.53	11.940
285.74	15.216
285.95	10.529
286.16	13.879
286.37	10.201
286.58	11.793
286.79	10.488
287.00	10.114
287.21	10.528
287.42	10.592
287.63	11.584
287.84	9.781
288.05	12.055
288.26	9.223
288.48	13.333
288.69	9.148
288.90	11.980
289.11	13.132
289.32	14.393
289.53	11.534
289.74	8.438
289.95	10.797
290.16	11.050
290.37	9.723
290.58	8.347
290.79	8.204
291.00	9.312
291.21	7.883
291.42	8.156
291.63	10.442
291.84	13.173
292.05	7.680
292.26	10.558
292.47	9.659
292.68	7.495
292.89	11.017
293.10	11.926
293.31	10.666
293.52	8.795
293.73	10.930
293.94	10.168
294.15	10.091
294.36	11.658
294.57	11.855
294.79	9.718
295.00	7.441
295.21	11.612
295.42	11.142
295.63	10.989
295.84	9.695
296.05	9.028
296.26	9.393
296.47	9.026
296.68	10.271
296.89	13.684
297.10	11.076
297.31	10.304
297.52	7.558
297.73	10.970
297.94	10.792
298.15	10.281
298.36	10.853
298.57	9.737
298.78	11.135
298.99	8.923
299.20	10.899
299.41	12.536
299.62	12.462
299.83	8.909
300.04	9.645
300.25	12.640
300.46	13.336
300.67	13.256
300.88	11.953
301.09	9.544
301.30	10.163
301.50	9.708
301.71	14.362
301.92	11.836
302.13	11.865
302.34	9.816
302.55	9.527
302.76	10.139
302.97	9.467
303.18	11.104
303.39	8.116
303.60	9.907
303.81	12.133
304.02	7.884
304.23	11.667
304.44	8.455
304.65	8.667
304.86	10.230
305.07	10.471
305.28	9.665
305.49	12.919
305.70	10.360
305.91	9.540
306.12	10.578
306.33	9.397
306.54	10.468
306.75	10.713
306.96	15.524
307.17	11.663
307.38	10.460
307.58	10.362
307.79	11.406
308.00	9.077
308.21	9.264
308.42	10.007
308.63	9.429
308.84	10.197
309.05	10.208
309.26	8.564
309.47	11.707
309.68	9.620
309.89	11.749
310.10	9.807
310.31	9.089
310.52	8.194
310.73	12.830
310.94	8.153
311.14	8.941
311.35	9.285
311.56	10.594
311.77	8.208
311.98	8.798
312.19	10.142
312.40	8.113
312.61	8.957
312.82	10.489
313.03	8.147
313.24	9.988
313.45	10.501
313.66	9.212
313.86	12.118
314.07	10.097
314.28	11.452
314.49	8.712
314.70	13.070
314.91	11.791
315.12	9.670
315.33	11.181
315.54	8.413
315.75	8.078
315.96	8.057
316.16	8.271
316.37	11.878
316.58	8.727
316.79	8.920
317.00	11.104
317.21	9.504
317.42	11.283
317.63	9.542
317.84	10.967
318.05	9.210
318.25	11.677
318.46	9.872
318.67	8.656
318.88	11.006
319.09	12.096
319.30	8.254
319.51	9.064
319.72	9.717
319.93	8.108
320.13	9.894
320.34	12.412
320.55	11.930
320.76	10.632
320.97	10.693
321.18	11.625
321.39	8.526
321.60	10.675
321.80	12.605
322.01	9.610
322.22	9.113
322.43	7.958
322.64	8.989
322.85	13.037
323.06	11.980
323.27	11.060
323.47	9.848
323.68	10.670
323.89	9.933
324.10	9.504
324.31	8.714
324.52	9.285
324.73	10.988
324.93	9.839
325.14	10.356
325.35	10.644
325.56	8.682
325.77	10.491
325.98	10.345
326.19	10.458
326.39	7.894
326.60	9.322
326.81	9.965
327.02	6.592
327.23	8.284
327.44	12.279
327.64	7.485
327.85	7.177
328.06	11.873
328.27	15.029
328.48	10.689
328.69	8.354
328.90	10.211
329.10	9.869
329.31	10.387
329.52	10.002
329.73	12.712
329.94	9.196
330.15	11.538
330.35	12.170
330.56	11.286
330.77	11.494
330.98	8.232
331.19	8.887
331.39	11.604
331.60	10.231
331.81	9.524
332.02	10.639
332.23	8.710
332.44	9.314
332.64	11.000
332.85	9.084
333.06	10.644
333.27	8.045
333.48	10.639
333.68	9.022
333.89	8.706
334.10	8.602
334.31	10.768
334.52	11.297
334.72	8.563
334.93	9.388
335.14	8.594
335.35	9.136
335.56	11.289
335.76	8.517
335.97	11.251
336.18	8.365
336.39	12.578
336.60	9.469
336.80	8.421
337.01	9.089
337.22	10.686
337.43	10.056
337.64	12.751
337.84	11.142
338.05	11.066
338.26	13.391
338.47	13.148
338.68	8.025
338.88	10.187
339.09	9.681
339.30	11.893
339.51	10.810
339.71	12.294
339.92	9.504
340.13	10.981
340.34	10.139
340.55	11.445
340.75	10.774
340.96	8.554
341.17	11.159
341.38	11.053
341.58	9.981
341.79	11.827
342.00	8.588
342.21	10.366
342.41	8.094
342.62	9.813
342.83	11.433
343.04	7.700
343.24	11.053
343.45	12.152
343.66	8.055
343.87	11.137
344.07	8.082
344.28	10.997
344.49	10.596
344.70	12.938
344.90	9.584
345.11	8.680
345.32	10.265
345.53	10.680
345.73	10.533
345.94	13.216
346.15	12.137
346.36	10.651
346.56	10.625
346.77	11.912
346.98	10.560
347.19	11.562
347.39	10.480
347.60	10.327
347.81	12.217
348.02	12.533
348.22	9.329
348.43	12.038
348.64	10.956
348.84	11.685
349.05	11.633
349.26	13.238
349.47	8.673
349.67	10.822
349.88	12.622
350.09	11.060
350.30	12.320
350.50	10.946
350.71	13.253
350.92	11.384
351.12	12.521
351.33	10.538
351.54	10.892
351.74	11.819
351.95	10.962
352.16	13.372
352.37	12.443
352.57	11.392
352.78	10.700
352.99	11.227
353.19	10.702
353.40	11.614
353.61	12.793
353.82	12.938
354.02	14.023
354.23	12.043
354.44	14.430
354.64	12.079
354.85	12.026
355.06	11.871
355.26	9.326
355.47	10.662
355.68	12.317
355.88	13.351
356.09	13.306
356.30	11.691
356.51	12.851
356.71	12.484
356.92	9.077
357.13	12.726
357.33	14.811
357.54	13.674
357.75	10.054
357.95	13.083
358.16	10.643
358.37	14.104
358.57	11.969
358.78	14.228
358.99	11.846
359.19	11.692
359.40	13.021
359.61	11.439
359.81	13.339
360.02	15.143
360.23	10.804
360.43	12.099
360.64	11.004
360.85	11.614
361.05	10.975
361.26	12.989
361.47	11.716
361.67	13.740
361.88	10.481
362.09	13.385
362.29	10.247
362.50	12.008
362.70	11.278
362.91	13.013
363.12	11.193
363.32	12.732
363.53	12.176
363.74	12.935
363.94	10.495
364.15	14.288
364.36	12.935
364.56	10.922
364.77	12.052
364.98	13.666
365.18	12.332
365.39	13.501
365.59	10.761
365.80	11.452
366.01	12.903
366.21	11.179
366.42	10.423
366.63	13.717
366.83	11.012
367.04	9.535
367.24	13.223
367.45	11.294
367.66	10.363
367.86	12.303
368.07	11.348
368.28	10.965
368.48	11.894
368.69	9.840
368.89	10.722
369.10	11.743
369.31	11.361
369.51	11.466
369.72	12.510
369.92	13.208
370.13	9.655
370.34	11.455
370.54	6.830
370.75	11.161
370.95	9.448
371.16	11.287
371.37	10.925
371.57	11.091
371.78	10.874
371.98	11.492
372.19	12.032
372.40	12.486
372.60	11.855
372.81	11.638
373.01	9.096
373.22	10.160
373.43	11.388
373.63	11.784
373.84	11.229
374.04	11.463
374.25	9.827
374.46	12.116
374.66	11.650
374.87	12.184
375.07	8.819
375.28	9.210
375.48	10.505
375.69	11.244
375.90	8.609
376.10	9.103
376.31	9.561
376.51	9.282
376.72	10.081
376.92	9.532
377.13	10.377
377.34	11.011
377.54	10.431
377.75	12.084
377.95	10.102
378.16	11.365
378.36	10.484
378.57	11.668
378.77	10.538
378.98	9.851
379.19	9.631
379.39	9.171
379.60	11.155
379.80	9.987
380.01	11.495
380.21	9.883
380.42	10.335
380.62	10.735
380.83	11.087
381.04	10.058
381.24	10.332
381.45	11.037
381.65	8.845
381.86	10.601
382.06	10.723
382.27	8.454
382.47	8.909
382.68	10.769
382.88	8.568
383.09	8.771
383.29	9.853
383.50	11.069
383.71	9.571
383.91	10.386
384.12	9.054
384.32	10.573
384.53	9.447
384.73	8.533
384.94	8.515
385.14	9.363
385.35	8.857
385.55	9.852
385.76	8.906
385.96	8.943
386.17	9.609
386.37	10.776
386.58	9.360
386.78	10.821
386.99	8.611
387.19	10.173
387.40	8.422
387.60	11.724
387.81	8.747
388.01	8.780
388.22	9.703
388.42	10.128
388.63	10.305
388.83	11.119
389.04	8.394
389.24	9.324
389.45	9.516
389.65	9.357
389.86	9.049
390.06	7.749
390.27	8.517
390.47	8.515
390.68	8.851
390.88	10.553
391.09	10.111
391.29	10.307
391.50	9.585
391.70	9.942
391.91	9.337
392.11	9.379
392.32	9.622
392.52	10.264
392.73	9.256
392.93	9.453
393.14	9.431
393.34	8.974
393.55	9.659
393.75	9.332
393.95	8.738
394.16	10.425
394.36	10.807
394.57	11.011
394.77	9.069
394.98	9.495
395.18	9.736
395.39	9.547
395.59	9.459
395.80	9.603
396.00	9.567
396.21	10.711
396.41	8.287
396.61	10.313
396.82	9.420
397.02	11.126
397.23	10.298
397.43	9.149
397.64	8.488
397.84	10.778
398.05	7.667
398.25	9.708
398.45	9.082
398.66	9.276
398.86	9.039
399.07	10.482
399.27	8.613
399.48	9.722
399.68	8.261
399.89	9.413
400.09	9.362
400.29	7.951
400.50	8.524
400.70	9.853
400.91	8.904
401.11	8.724
401.32	8.672
401.52	7.409
401.72	8.907
401.93	10.130
402.13	8.842
402.34	8.566
402.54	8.265
402.75	10.343
402.95	7.415
403.15	10.573
403.36	7.832
403.56	10.034
403.77	8.257
403.97	8.772
404.17	8.895
404.38	9.405
404.58	8.457
404.79	9.899
404.99	9.539
405.19	8.875
405.40	8.367
405.60	9.487
405.81	8.403
406.01	8.202
406.21	8.809
406.42	9.446
406.62	8.396
406.83	9.816
407.03	10.017
407.23	8.084
407.44	7.764
407.64	9.656
407.85	8.973
408.05	8.567
408.25	8.470
408.46	9.887
408.66	9.466
408.87	8.987
409.07	8.380
409.27	8.283
409.48	7.649
409.68	8.852
409.88	6.715
410.09	8.050
410.29	8.843
410.50	10.355
410.70	7.643
410.90	8.873
411.11	7.469
411.31	8.872
411.51	8.780
411.72	10.079
411.92	7.802
412.12	9.012
412.33	8.015
412.53	7.971
412.74	7.376
412.94	8.535
413.14	8.709
413.35	8.995
413.55	8.993
413.75	9.820
413.96	8.362
414.16	7.979
414.36	8.354
414.57	9.205
414.77	7.651
414.97	8.518
415.18	8.057
415.38	8.842
415.58	8.354
415.79	7.617
415.99	7.604
416.19	9.449
416.40	8.927
416.60	8.771
416.80	7.947
417.01	8.575
417.21	6.633
417.41	9.188
417.62	8.647
417.82	9.244
418.02	7.585
418.23	8.987
418.43	8.262
418.63	8.923
418.84	9.168
419.04	8.634
419.24	9.166
419.45	9.428
419.65	9.225
419.85	9.382
420.06	9.156
420.26	9.247
420.46	9.150
420.67	9.575
420.87	9.171
421.07	9.440
421.28	9.457
421.48	9.463
421.68	9.408
421.88	9.583
422.09	9.625
422.29	9.417
422.49	8.992
422.70	9.191
422.90	9.460
423.10	9.557
423.31	9.465
423.51	9.302
423.71	9.257
423.91	9.386
424.12	9.339
424.32	9.551
424.52	9.190
424.73	9.508
424.93	9.437
425.13	9.328
425.33	9.154
425.54	9.450
425.74	9.200
425.94	9.527
426.15	9.752
426.35	9.532
426.55	9.161
426.75	9.919
426.96	9.310
427.16	8.994
427.36	9.407
427.57	9.420
427.77	9.157
427.97	8.961
428.17	9.032
428.38	9.238
428.58	8.110
428.78	9.782
428.98	8.157
429.19	8.319
429.39	7.689
429.59	9.058
429.79	7.765
430.00	7.662
430.20	7.518
430.40	8.499
430.60	7.976
430.81	8.585
431.01	8.161
431.21	8.761
431.41	7.579
431.62	8.760
431.82	7.832
432.02	8.646
432.22	8.192
432.43	8.333
432.63	8.013
432.83	8.895
433.03	8.325
433.24	8.060
433.44	7.923
433.64	8.594
433.84	8.033
434.05	8.850
434.25	8.513
434.45	9.150
434.65	9.035
434.85	9.166
435.06	8.836
435.26	8.605
435.46	8.374
435.66	9.125
435.87	8.505
436.07	8.617
436.27	8.611
436.47	7.940
436.67	7.762
436.88	8.667
437.08	8.088
437.28	8.578
437.48	8.181
437.69	8.628
437.89	8.124
438.09	9.076
438.29	7.953
438.49	8.809
438.70	8.318
438.90	8.346
439.10	7.911
439.30	8.633
439.50	7.796
439.71	8.796
439.91	8.533
440.11	8.964
440.31	8.492
440.51	8.282
440.72	8.345
440.92	8.557
441.12	9.247
441.32	9.316
441.52	9.119
441.72	8.993
441.93	8.850
442.13	9.266
442.33	8.846
442.53	9.097
442.73	8.250
442.94	8.510
443.14	8.168
443.34	9.114
443.54	8.431
443.74	8.790
443.94	8.293
444.15	8.141
444.35	8.560
444.55	8.625
444.75	7.865
444.95	8.396
445.15	8.224
445.36	8.535
445.56	7.833
445.76	8.610
445.96	8.564
446.16	8.589
446.36	8.001
446.57	8.888
446.77	8.160
446.97	8.662
447.17	8.827
447.37	8.717
447.57	8.646
447.77	8.688
447.98	8.867
448.18	8.948
448.38	8.431
448.58	8.978
448.78	8.885
448.98	8.785
449.18	8.241
449.39	8.766
449.59	8.008
449.79	8.349
449.99	7.798
450.19	8.791
450.39	7.780
450.59	8.283
450.79	7.809
451.00	8.212
451.20	9.211
451.40	8.044
451.60	7.561
451.80	8.407
452.00	7.699
452.20	8.414
452.40	8.055
452.61	8.023
452.81	8.159
453.01	8.406
453.21	8.012
453.41	8.238
453.61	7.946
453.81	8.280
454.01	8.119
454.21	7.859
454.42	8.622
454.62	8.184
454.82	7.866
455.02	8.354
455.22	7.393
455.42	8.268
455.62	7.387
455.82	8.047
456.02	7.854
456.23	7.974
456.43	7.195
456.63	7.992
456.83	7.073
457.03	8.268
457.23	8.103
457.43	8.449
457.63	7.301
457.83	8.526
458.03	7.578
458.23	7.572
458.43	6.938
458.64	7.694
458.84	7.833
459.04	8.132
459.24	8.327
459.44	8.071
459.64	8.404
459.84	8.061
460.04	8.454
460.24	8.434
460.44	8.226
460.64	8.722
460.84	8.235
461.04	8.699
461.24	8.649
461.45	8.623
461.65	8.744
461.85	8.643
462.05	8.421
462.25	8.590
462.45	8.821
462.65	8.639
462.85	7.497
463.05	8.259
463.25	7.027
463.45	8.344
463.65	7.702
463.85	8.158
464.05	8.109
464.25	8.018
464.45	8.078
464.65	8.035
464.85	7.337
465.05	7.895
465.26	8.378
465.46	8.221
465.66	7.813
465.86	8.071
466.06	7.918
466.26	8.190
466.46	6.937
466.66	8.122
466.86	7.406
467.06	7.975
467.26	7.881
467.46	8.133
467.66	7.677
467.86	7.771
468.06	7.970
468.26	7.847
468.46	7.727
468.66	7.879
468.86	6.750
469.06	7.998
469.26	7.022
469.46	8.017
469.66	7.226
469.86	8.123
470.06	7.429
470.26	8.035
470.46	7.181
470.66	8.454
470.86	7.193
471.06	7.304
471.26	6.981
471.46	7.575
471.66	7.544
471.86	7.980
472.06	7.309
472.26	8.422
472.46	8.393
472.66	8.029
472.86	7.166
473.06	7.849
473.26	8.028
473.46	8.138
473.66	7.364
473.86	8.072
474.06	7.265
474.26	7.937
474.46	6.866
474.66	8.369
474.86	7.668
475.06	7.924
475.26	6.868
475.46	7.835
475.66	7.191
475.86	7.745
476.06	7.805
476.26	8.122
476.46	7.478
476.66	8.123
476.86	6.898
477.06	7.585
477.26	7.161
477.46	7.548
477.65	7.554
477.85	7.705
478.05	7.449
478.25	8.545
478.45	7.489
478.65	7.951
478.85	7.565
479.05	7.979
479.25	7.538
479.45	8.113
479.65	7.368
479.85	8.063
480.05	7.987
480.25	8.138
480.45	7.809
480.65	8.105
480.85	7.756
481.05	8.232
481.25	8.051
481.44	7.855
481.64	7.014
481.84	8.119
482.04	7.877
482.24	8.317
482.44	7.613
482.64	8.091
482.84	7.920
483.04	7.926
483.24	7.839
483.44	7.988
483.64	8.009
483.84	7.861
484.04	8.270
484.23	8.057
484.43	8.423
484.63	8.403
484.83	8.771
485.03	8.971
485.23	8.795
485.43	8.778
485.63	8.970
485.83	8.622
486.03	8.854
486.23	8.660
486.42	8.696
486.62	8.600
486.82	8.452
487.02	8.445
487.22	8.307
487.42	8.125
487.62	8.305
487.82	8.203
488.02	8.178
488.22	8.279
488.41	8.426
488.61	8.259
488.81	8.212
489.01	8.445
489.21	8.655
489.41	8.573
489.61	8.625
489.81	8.501
490.01	8.620
490.20	8.773
490.40	8.530
490.60	8.867
490.80	8.226
491.00	8.386
491.20	8.327
491.40	8.205
491.60	8.037
491.79	8.286
491.99	8.168
492.19	8.161
492.39	8.488
492.59	8.455
492.79	8.608
492.99	8.312
493.19	8.557
493.38	8.449
493.58	8.579
493.78	8.623
493.98	8.568
494.18	8.484
494.38	8.354
494.58	8.450
494.77	7.846
494.97	8.268
495.17	7.895
495.37	8.300
495.57	8.353
495.77	8.568
495.96	8.126
496.16	7.882
496.36	7.704
496.56	8.083
496.76	7.909
496.96	7.906
497.15	7.922
497.35	7.870
497.55	8.076
497.75	8.095
497.95	8.223
498.15	8.415
498.34	8.099
498.54	8.080
498.74	8.515
498.94	8.089
499.14	8.098
499.34	8.600
499.53	8.064
499.73	8.293
499.93	7.795
500.13	8.120
500.33	8.004
500.52	8.195
500.72	7.945
500.92	8.016
501.12	7.741
501.32	7.962
501.52	8.006
501.71	7.614
501.91	7.637
502.11	8.179
502.31	7.654
502.51	8.148
502.70	7.505
502.90	7.826
503.10	7.687
503.30	8.237
503.50	8.120
503.69	7.616
503.89	7.695
504.09	8.038
504.29	7.658
504.48	8.111
504.68	7.774
504.88	8.220
505.08	7.367
505.28	7.950
505.47	7.578
505.67	8.241
505.87	7.735
506.07	8.119
506.27	7.939
506.46	8.355
506.66	7.472
506.86	8.016
507.06	8.233
507.25	7.807
507.45	8.033
507.65	8.414
507.85	7.512
508.04	8.330
508.24	8.185
508.44	7.860
508.64	7.705
508.83	8.199
509.03	7.751
509.23	8.103
509.43	7.572
509.63	8.185
509.82	7.804
510.02	8.169
510.22	8.014
510.42	8.052
510.61	7.901
510.81	8.000
511.01	8.142
511.21	8.245
511.40	7.853
511.60	8.111
511.80	7.945
511.99	8.229
512.19	7.859
512.39	8.435
512.59	7.931
512.78	8.407
512.98	8.118
513.18	8.105
513.38	7.761
513.57	8.541
513.77	8.164
513.97	8.106
514.17	7.842
514.36	8.225
514.56	8.307
514.76	8.366
514.95	7.529
515.15	7.967
515.35	7.502
515.55	7.762
515.74	7.792
515.94	8.191
516.14	7.530
516.33	8.070
516.53	7.367
516.73	7.516
516.93	8.030
517.12	8.040
517.32	7.392
517.52	7.937
517.71	7.357
517.91	7.692
518.11	7.783
518.30	8.092
518.50	7.847
518.70	8.149
518.90	8.113
519.09	7.965
519.29	8.375
519.49	8.207
519.68	8.024
519.88	8.282
520.08	8.143
520.27	8.280
520.47	8.544
520.67	8.226
520.86	8.306
521.06	8.555
521.26	7.988
521.45	8.513
521.65	7.853
521.85	8.027
522.04	7.988
522.24	7.862
522.44	7.805
522.63	8.029
522.83	7.652
523.03	8.039
523.22	7.971
523.42	8.401
523.62	8.044
523.81	8.050
524.01	8.107
524.21	7.737
524.40	7.957
524.60	8.292
524.80	7.388
524.99	7.813
525.19	7.794
525.39	8.379
525.58	8.073
525.78	7.796
525.98	7.878
526.17	8.378
526.37	8.033
526.57	8.172
526.76	8.286
526.96	8.216
527.15	8.200
527.35	8.146
527.55	8.057
527.74	8.211
527.94	8.240
528.14	7.924
528.33	8.082
528.53	8.138
528.72	8.287
528.92	8.154
529.12	8.325
529.31	8.343
529.51	8.602
529.71	8.391
529.90	8.669
530.10	8.383
530.29	8.657
530.49	8.637
530.69	8.771
530.88	8.753
531.08	8.700
531.28	8.544
531.47	8.593
531.67	8.598
531.86	8.384
532.06	8.405
532.26	8.232
532.45	8.194
532.65	8.277
532.84	8.307
533.04	8.090
533.24	8.426
533.43	8.121
533.63	8.323
533.82	8.439
534.02	8.457
534.22	8.590
534.41	8.345
534.61	8.380
534.80	8.527
535.00	8.668
535.19	8.540
535.39	8.594
535.59	8.562
535.78	8.285
535.98	8.267
536.17	8.144
536.37	8.148
536.57	8.310
536.76	8.264
536.96	7.942
537.15	8.684
537.35	8.188
537.54	8.313
537.74	8.406
537.93	8.376
538.13	8.566
538.33	8.259
538.52	8.196
538.72	8.492
538.91	8.303
539.11	8.546
539.30	8.502
539.50	8.387
539.70	8.091
539.89	8.352
540.09	7.890
540.28	8.408
540.48	7.764
540.67	8.494
540.87	8.032
541.06	8.219
541.26	8.107
541.45	8.552
541.65	8.463
541.85	8.561
542.04	8.490
542.24	8.515
542.43	8.664
542.63	8.701
542.82	8.734
543.02	8.741
543.21	8.794
543.41	8.707
543.60	8.683
543.80	8.778
543.99	8.706
544.19	8.785
544.38	8.553
544.58	8.608
544.77	8.516
544.97	8.629
545.16	8.563
545.36	8.767
545.56	8.414
545.75	8.454
545.95	8.434
546.14	8.555
546.34	8.221
546.53	8.520
546.73	8.427
546.92	8.668
547.12	8.557
547.31	8.585
547.51	8.551
547.70	8.808
547.90	8.506
548.09	8.654
548.29	8.782
548.48	8.726
548.68	8.199
548.87	8.566
549.07	8.781
549.26	8.559
549.46	8.499
549.65	8.339
549.84	7.890
550.04	8.745
550.23	7.895
550.43	8.223
550.62	8.081
550.82	8.319
551.01	7.799
551.21	8.306
551.40	7.769
551.60	8.740
551.79	7.722
551.99	8.097
552.18	7.666
552.38	8.333
552.57	7.993
552.77	8.431
552.96	8.336
553.16	8.494
553.35	8.153
553.54	8.971
553.74	8.581
553.93	8.970
554.13	9.172
554.32	8.933
554.52	8.629
554.71	9.084
554.91	7.903
555.10	8.781
555.29	7.814
555.49	8.610
555.68	8.147
555.88	8.693
556.07	8.173
556.27	8.593
556.46	8.198
556.66	8.373
556.85	8.768
557.04	8.668
557.24	7.958
557.43	9.156
557.63	8.820
557.82	7.766
558.02	8.502
558.21	9.162
558.40	7.978
558.60	8.917
558.79	8.766
558.99	8.968
559.18	8.613
559.38	8.540
559.57	8.709
559.76	8.961
559.96	9.375
560.15	9.197
560.35	8.541
560.54	8.689
560.73	7.902
560.93	8.932
561.12	8.380
561.32	8.782
561.51	8.420
561.70	8.927
561.90	9.173
562.09	9.439
562.29	9.160
562.48	9.697
562.67	8.783
562.87	9.479
563.06	8.640
563.26	9.263
563.45	9.185
563.64	9.744
563.84	9.141
564.03	9.167
564.23	8.755
564.42	10.302
564.61	8.932
564.81	9.363
565.00	9.713
565.20	9.366
565.39	9.782
565.58	10.014
565.78	9.676
565.97	10.385
566.16	10.406
566.36	10.394
566.55	10.200
566.74	10.184
566.94	10.547
567.13	10.531
567.33	9.955
567.52	10.362
567.71	10.477
567.91	10.297
568.10	10.381
568.29	10.500
568.49	10.222
568.68	10.313
568.87	9.926
569.07	10.772
569.26	10.103
569.45	10.814
569.65	10.622
569.84	10.478
570.04	10.129
570.23	10.483
570.42	9.871
570.62	10.720
570.81	10.058
571.00	10.915
571.20	10.944
571.39	10.834
571.58	10.853
571.78	10.987
571.97	10.621
572.16	10.934
572.36	11.007
572.55	11.180
572.74	10.966
572.94	10.722
573.13	11.214
573.32	11.420
573.51	10.628
573.71	11.188
573.90	10.486
574.09	11.423
574.29	11.060
574.48	11.474
574.67	10.596
574.87	11.099
575.06	10.741
575.25	10.969
575.45	10.665
575.64	10.473
575.83	10.973
576.03	11.935
576.22	11.282
576.41	11.170
576.60	10.577
576.80	10.617
576.99	10.792
577.18	11.881
577.38	10.947
577.57	11.183
577.76	11.483
577.95	11.108
578.15	10.402
578.34	11.355
578.53	10.271
578.73	11.167
578.92	10.499
579.11	10.906
579.30	11.106
579.50	11.007
579.69	11.196
579.88	11.013
580.08	10.091
580.27	10.712
580.46	10.737
580.65	10.803
580.85	9.992
581.04	10.928
581.23	9.828
581.42	10.984
581.62	10.639
581.81	10.704
582.00	10.602
582.19	10.579
582.39	10.618
582.58	10.792
582.77	10.694
582.96	9.887
583.16	9.918
583.35	10.925
583.54	10.338
583.73	11.169
583.93	9.801
584.12	10.143
584.31	9.595
584.50	10.237
584.70	10.175
584.89	10.682
585.08	10.089
585.27	11.307
585.47	10.021
585.66	10.267
585.85	10.217
586.04	9.964
586.24	10.952
586.43	10.321
586.62	10.309
586.81	10.861
587.00	10.278
587.20	10.058
587.39	9.649
587.58	10.749
587.77	10.324
587.97	10.199
588.16	10.503
588.35	11.099
588.54	9.448
588.73	10.420
588.93	10.378
589.12	10.711
589.31	10.329
589.50	10.433
589.69	10.782
589.89	10.827
590.08	10.552
590.27	10.090
590.46	10.209
590.65	10.589
590.85	9.581
591.04	10.023
591.23	10.679
591.42	10.590
591.61	10.255
591.81	10.512
592.00	10.136
592.19	10.656
592.38	9.937
592.57	10.985
592.77	10.153
592.96	10.404
593.15	11.613
593.34	10.220
593.53	10.109
593.72	10.101
593.92	9.753
594.11	10.893
594.30	10.430
594.49	11.487
594.68	10.175
594.87	10.782
595.07	9.853
595.26	10.857
595.45	9.806
595.64	10.501
595.83	9.940
596.02	10.990
596.22	10.348
596.41	10.435
596.60	10.419
596.79	11.376
596.98	10.613
597.17	11.309
597.37	10.927
597.56	11.509
597.75	10.283
597.94	11.874
598.13	11.650
598.32	11.279
598.51	11.210
598.71	11.825
598.90	11.051
599.09	11.921
599.28	10.108
599.47	11.166
599.66	10.616
599.85	12.022
600.05	10.060
600.24	11.238
600.43	10.804
600.62	10.910
600.81	10.937
601.00	10.816
601.19	10.280
601.38	11.091
601.58	10.615
601.77	10.342
601.96	10.229
602.15	11.465
602.34	11.501
602.53	11.733
602.72	10.119
602.91	11.889
603.10	10.377
603.30	11.025
603.49	10.492
603.68	11.395
603.87	10.828
604.06	11.335
604.25	11.305
604.44	11.336
604.63	11.510
604.82	11.968
605.01	11.772
605.21	11.791
605.40	11.146
605.59	12.093
605.78	11.907
605.97	11.660
606.16	11.749
606.35	11.862
606.54	11.288
606.73	12.152
606.92	11.435
607.11	11.713
607.30	11.437
607.50	11.629
607.69	10.913
607.88	11.575
608.07	10.438
608.26	10.802
608.45	10.596
608.64	11.548
608.83	10.336
609.02	10.879
609.21	10.897
609.40	11.171
609.59	10.480
609.78	11.577
609.97	11.131
610.16	11.238
610.35	11.512
610.55	10.984
610.74	11.040
610.93	11.558
611.12	11.312
611.31	11.451
611.50	11.019
611.69	10.861
611.88	11.398
612.07	11.075
612.26	9.825
612.45	10.603
612.64	10.704
612.83	10.717
613.02	9.856
613.21	10.146
613.40	10.193
613.59	10.759
613.78	9.190
613.97	10.827
614.16	10.034
614.35	9.761
614.54	8.541
614.73	9.662
614.92	9.615
615.11	9.900
615.30	9.709
615.49	8.292
615.68	9.034
615.87	9.908
616.07	9.274
616.26	9.564
616.45	9.970
616.64	9.290
616.83	9.015
617.02	9.511
617.21	8.705
617.40	7.930
617.59	9.387
617.78	9.917
617.97	8.507
618.16	8.495
618.35	8.112
618.54	9.773
618.73	8.412
618.92	8.906
619.11	8.169
619.30	9.357
619.49	7.564
619.68	9.458
619.86	9.417
620.05	9.380
620.24	8.328
620.43	8.982
620.62	7.912
620.81	9.156
621.00	9.140
621.19	9.949
621.38	8.942
621.57	9.677
621.76	8.644
621.95	9.358
622.14	9.100
622.33	10.776
622.52	8.093
622.71	9.590
622.90	7.929
623.09	9.717
623.28	8.822
623.47	9.826
623.66	9.010
623.85	9.110
624.04	8.084
624.23	8.468
624.42	8.750
624.61	8.032
624.80	8.136
624.99	9.536
625.18	7.841
625.36	8.506
625.55	9.500
625.74	8.887
625.93	8.071
626.12	8.858
626.31	9.732
626.50	9.856
626.69	8.321
626.88	10.440
627.07	9.783
627.26	9.614
627.45	9.049
627.64	9.452
627.83	9.314
628.02	10.126
628.20	9.335
628.39	9.816
628.58	9.388
628.77	9.247
628.96	8.713
629.15	9.103
629.34	9.618
629.53	8.682
629.72	7.993
629.91	10.034
630.10	7.672
630.29	7.788
630.47	8.428
630.66	7.959
630.85	7.876
631.04	8.574
631.23	8.819
631.42	8.149
631.61	7.262
631.80	9.535
631.99	7.468
632.18	7.322
632.36	6.773
632.55	8.814
632.74	8.120
632.93	7.972
633.12	7.650
633.31	8.338
633.50	7.436
633.69	8.701
633.88	7.310
634.06	7.843
634.25	8.073
634.44	8.220
634.63	8.512
634.82	9.311
635.01	7.135
635.20	8.162
635.39	7.431
635.57	9.188
635.76	7.969
635.95	8.312
636.14	7.418
636.33	8.797
636.52	7.629
636.71	7.722
636.89	7.547
637.08	7.956
637.27	6.622
637.46	7.768
637.65	7.481
637.84	8.340
638.03	8.109
638.21	9.185
638.40	7.882
638.59	7.673
638.78	7.296
638.97	9.184
639.16	9.458
639.34	8.516
639.53	7.676
639.72	8.183
639.91	7.579
640.10	6.835
640.29	8.986
640.47	8.748
640.66	8.278
640.85	9.717
641.04	6.858
641.23	8.123
641.42	8.032
641.60	7.933
641.79	7.272
641.98	8.519
642.17	7.541
642.36	8.760
642.54	7.197
642.73	7.383
642.92	7.362
643.11	6.701
643.30	7.131
643.49	7.914
643.67	5.177
643.86	8.408
644.05	6.514
644.24	7.641
644.43	7.362
644.61	8.099
644.80	8.072
644.99	7.572
645.18	8.807
645.37	8.977
645.55	6.628
645.74	8.119
645.93	7.857
646.12	6.902
646.31	8.209
646.49	8.644
646.68	8.280
646.87	7.749
647.06	7.622
647.24	8.273
647.43	5.820
647.62	8.644
647.81	6.144
648.00	9.102
648.18	5.770
648.37	7.300
648.56	7.462
648.75	7.367
648.93	7.998
649.12	7.745
649.31	7.850
649.50	7.219
649.68	7.244
649.87	7.306
650.06	6.095
650.25	7.801
650.43	7.350
650.62	6.403
650.81	7.080
651.00	7.498
651.18	6.759
651.37	8.958
651.56	7.304
651.75	9.018
651.93	6.898
652.12	8.629
652.31	7.211
652.50	8.297
652.68	8.192
652.87	9.130
653.06	8.778
653.25	8.456
653.43	7.539
653.62	8.884
653.81	7.274
654.00	8.664
654.18	7.474
654.37	9.167
654.56	7.251
654.74	6.088
654.93	7.308
655.12	7.485
655.31	7.863
655.49	8.042
655.68	6.230
655.87	5.395
656.05	6.328
656.24	7.922
656.43	6.138
656.62	7.809
656.80	6.444
656.99	6.069
657.18	6.846
657.36	6.663
657.55	7.428
657.74	7.653
657.93	7.838
658.11	8.603
658.30	7.952
658.49	7.450
658.67	7.405
658.86	7.045
659.05	6.660
659.23	8.395
659.42	7.170
659.61	7.242
659.79	8.159
659.98	7.403
660.17	8.399
660.35	7.359
660.54	8.566
660.73	8.720
660.91	8.223
661.10	8.020
661.29	6.521
661.47	6.841
661.66	7.167
661.85	7.211
662.03	7.951
662.22	6.054
662.41	6.532
662.59	7.663
662.78	6.770
662.97	6.025
663.15	6.225
663.34	6.117
663.53	6.579
663.71	7.339
663.90	6.440
664.09	7.481
664.27	7.597
664.46	6.856
664.65	7.149
664.83	7.362
665.02	6.028
665.21	5.173
665.39	5.454
665.58	7.442
665.77	6.645
665.95	6.589
666.14	5.754
666.32	6.913
666.51	5.533
666.70	6.523
666.88	6.450
667.07	5.642
667.26	4.901
667.44	6.765
667.63	7.015
667.81	5.416
668.00	6.834
668.19	8.762
668.37	6.782
668.56	8.176
668.75	6.119
668.93	8.535
669.12	7.218
669.30	6.923
669.49	6.682
669.68	7.977
669.86	7.622
670.05	7.495
670.23	6.515
670.42	6.750
670.61	7.159
670.79	7.013
670.98	7.089
671.16	8.679
671.35	6.307
671.54	6.980
671.72	6.518
671.91	8.300
672.09	6.876
672.28	8.838
672.46	8.959
672.65	8.301
672.84	7.948
673.02	9.274
673.21	5.815
673.39	7.650
673.58	7.993
673.77	7.335
673.95	7.398
674.14	8.863
674.32	7.162
674.51	9.194
674.69	7.313
674.88	7.745
675.07	7.568
675.25	10.095
675.44	8.658
675.62	7.688
675.81	6.873
675.99	11.537
676.18	9.727
676.36	8.214
676.55	8.326
676.74	9.973
676.92	9.560
677.11	9.151
677.29	8.377
677.48	10.016
677.66	9.266
677.85	8.520
678.03	8.667
678.22	10.801
678.40	8.380
678.59	8.671
678.78	8.900
678.96	8.981
679.15	7.340
679.33	10.731
679.52	10.410
679.70	9.140
679.89	9.018
680.07	9.976
680.26	7.751
680.44	10.446
680.63	9.522
680.81	9.459
681.00	8.023
681.18	8.625
681.37	9.381
681.55	11.306
681.74	9.875
681.92	10.017
682.11	9.517
682.29	9.189
682.48	10.077
682.66	10.601
682.85	9.039
683.03	9.935
683.22	10.004
683.40	11.782
683.59	10.004
683.77	9.919
683.96	9.299
684.14	10.886
684.33	7.215
684.51	11.248
684.70	9.023
684.88	11.441
685.07	9.827
685.25	11.631
685.44	9.804
685.62	10.381
685.81	8.685
685.99	11.326
686.18	7.768
686.36	10.699
686.55	9.202
686.73	9.313
686.92	10.806
687.10	11.220
687.29	11.089
687.47	11.991
687.65	11.634
687.84	10.218
688.02	12.866
688.21	12.140
688.39	9.837
688.58	11.936
688.76	11.108
688.95	10.736
689.13	9.794
689.32	12.921
689.50	11.751
689.68	12.938
689.87	11.121
690.05	11.499
690.24	11.024
690.42	11.665
690.61	12.766
690.79	13.471
690.98	10.706
691.16	11.084
691.34	10.668
691.53	11.686
691.71	9.837
691.90	11.981
692.08	9.617
692.27	14.423
692.45	14.085
692.63	11.116
692.82	13.991
693.00	12.195
693.19	9.722
693.37	13.614
693.56	10.935
693.74	13.518
693.92	11.367
694.11	13.801
694.29	13.945
694.48	14.072
694.66	13.469
694.84	14.443
695.03	13.156
695.21	15.539
695.40	15.256
695.58	17.413
695.76	13.375
695.95	15.866
696.13	13.792
696.32	15.870
696.50	18.189
696.68	15.168
696.87	14.039
697.05	15.574
697.24	16.057
697.42	17.114
697.60	15.119
697.79	17.094
697.97	17.969
698.16	18.841
698.34	15.766
698.52	19.853
698.71	17.684
698.89	19.543
699.07	18.423
699.26	19.592
699.44	18.731
699.63	19.874
699.81	18.088
699.99	20.149
700.18	20.624
700.36	19.504
700.54	19.806
700.73	19.432
700.91	18.777
701.09	21.133
701.28	21.020
701.46	21.927
701.64	20.588
701.83	21.791
702.01	20.228
702.20	22.989
702.38	21.249
702.56	21.846
702.75	22.096
702.93	20.332
703.11	20.453
703.30	23.258
703.48	22.852
703.66	22.974
703.85	20.362
704.03	24.383
704.21	21.161
704.40	25.247
704.58	23.286
704.76	22.858
704.95	21.200
705.13	22.805
705.31	21.358
705.50	23.435
705.68	19.248
705.86	23.228
706.04	23.724
706.23	25.101
706.41	22.264
706.59	22.953
706.78	22.755
706.96	23.170
707.14	23.741
707.33	26.123
707.51	23.832
707.69	26.658
707.88	24.379
708.06	25.568
708.24	25.240
708.42	26.896
708.61	24.845
708.79	26.979
708.97	25.974
709.16	24.617
709.34	26.903
709.52	26.291
709.71	25.961
709.89	26.600
710.07	23.068
710.25	28.531
710.44	26.154
710.62	27.390
710.80	27.862
710.98	27.119
711.17	26.822
711.35	26.650
711.53	26.345
711.72	29.457
711.90	27.421
712.08	27.476
712.26	26.203
712.45	26.863
712.63	26.759
712.81	28.870
712.99	26.830
713.18	28.520
713.36	27.572
713.54	28.697
713.72	26.342
713.91	27.837
714.09	24.626
714.27	28.307
714.45	29.649
714.64	29.499
714.82	28.203
715.00	28.810
715.18	27.289
715.37	30.270
715.55	28.029
715.73	28.444
715.91	28.928
716.10	29.874
716.28	25.988
716.46	30.023
716.64	28.514
716.83	29.376
717.01	27.662
717.19	29.702
717.37	28.297
717.55	30.262
717.74	29.011
717.92	29.324
718.10	26.723
718.28	28.788
718.47	27.404
718.65	30.624
718.83	28.537
719.01	31.373
719.19	27.906
719.38	29.618
719.56	28.516
719.74	28.793
719.92	25.830
720.10	30.259
720.29	28.612
720.47	30.582
720.65	29.270
720.83	32.269
721.01	26.349
721.20	30.089
721.38	27.212
721.56	31.380
721.74	29.979
721.92	29.452
722.11	29.280
722.29	31.187
722.47	27.183
722.65	30.586
722.83	31.509
723.01	29.460
723.20	29.103
723.38	29.635
723.56	27.028
723.74	32.840
723.92	30.227
724.10	31.284
724.29	29.249
724.47	32.131
724.65	30.076
724.83	31.779
725.01	27.579
725.19	34.382
725.38	30.279
725.56	31.709
725.74	32.138
725.92	32.661
726.10	30.994
726.28	30.027
726.46	30.160
726.65	31.434
726.83	29.312
727.01	30.661
727.19	31.804
727.37	30.644
727.55	31.846
727.73	32.546
727.92	31.008
728.10	31.068
728.28	28.692
728.46	33.835
728.64	29.040
728.82	32.980
729.00	30.558
729.19	31.144
729.37	32.394
729.55	33.199
729.73	27.825
729.91	32.464
730.09	31.539
730.27	33.164
730.45	30.093
730.63	33.460
730.82	31.335
731.00	31.564
731.18	33.119
731.36	32.801
731.54	28.643
731.72	33.973
731.90	31.684
732.08	36.058
732.26	30.792
732.45	34.156
732.63	31.967
732.81	34.829
732.99	31.635
733.17	33.294
733.35	31.664
733.53	35.956
733.71	31.317
733.89	34.134
734.07	32.123
734.25	35.349
734.44	31.519
734.62	33.012
734.80	33.114
734.98	34.533
735.16	32.317
735.34	34.939
735.52	32.044
735.70	34.396
735.88	34.733
736.06	34.058
736.24	35.444
736.42	33.478
736.60	35.367
736.78	35.108
736.97	34.479
737.15	35.529
737.33	31.316
737.51	33.267
737.69	33.216
737.87	36.186
738.05	34.654
738.23	36.792
738.41	33.661
738.59	39.302
738.77	34.321
738.95	35.702
739.13	34.094
739.31	34.218
739.49	37.193
739.67	39.438
739.85	32.491
740.03	35.204
740.21	34.925
740.39	37.209
740.57	34.741
740.75	33.506
740.93	35.042
741.11	35.852
741.30	34.642
741.48	39.205
741.66	37.599
741.84	37.781
742.02	32.653
742.20	36.323
742.38	34.851
742.56	38.764
742.74	33.104
742.92	39.362
743.10	34.181
743.28	37.458
743.46	34.228
743.64	34.468
743.82	33.829
744.00	37.296
744.18	36.181
744.36	36.209
744.54	35.625
744.72	38.756
744.90	37.233
745.08	36.442
745.26	37.405
745.44	37.331
745.62	33.517
745.80	34.721
745.98	34.966
746.16	38.300
746.34	35.057
746.52	35.368
746.70	33.269
746.87	34.963
747.05	36.130
747.23	36.092
747.41	37.626
747.59	38.018
747.77	32.555
747.95	35.942
748.13	35.767
748.31	36.352
748.49	34.689
748.67	32.663
748.85	32.078
749.03	34.073
749.21	34.172
749.39	37.181
749.57	32.980
749.75	33.810
749.93	37.568
750.11	35.851
750.29	37.478
750.47	34.265
750.65	34.769
750.83	35.132
751.01	33.484
751.18	36.558
751.36	34.766
751.54	34.988
751.72	37.685
751.90	37.035
752.08	32.261
752.26	38.585
752.44	33.487
752.62	37.232
752.80	36.332
752.98	37.261
753.16	37.729
753.34	35.464
753.52	37.309
753.69	39.171
753.87	38.004
754.05	35.501
754.23	34.625
754.41	38.671
754.59	32.457
754.77	35.810
754.95	34.350
755.13	37.150
755.31	36.280
755.49	34.902
755.66	35.250
755.84	36.823
756.02	31.582
756.20	40.944
756.38	35.808
756.56	36.694
756.74	34.926
756.92	37.039
757.10	33.468
757.28	39.209
757.45	39.975
757.63	37.404
757.81	33.097
757.99	39.393
758.17	36.217
758.35	35.687
758.53	35.703
758.71	35.118
758.88	35.079
759.06	36.175
759.24	31.160
759.42	34.725
759.60	33.759
759.78	34.677
759.96	30.808
760.13	36.900
760.31	29.488
760.49	32.419
760.67	28.864
760.85	31.736
761.03	28.597
761.21	27.776
761.38	27.995
761.56	31.219
761.74	25.164
761.92	30.234
762.10	24.612
762.28	34.012
762.46	25.100
762.63	30.849
762.81	28.941
762.99	32.062
763.17	28.782
763.35	31.188
763.53	29.178
763.70	33.151
763.88	31.099
764.06	32.818
764.24	31.209
764.42	33.302
764.60	32.102
764.77	32.295
764.95	32.542
765.13	32.791
765.31	31.236
765.49	33.223
765.66	30.963
765.84	33.987
766.02	32.068
766.20	31.976
766.38	30.974
766.56	33.144
766.73	31.391
766.91	32.820
767.09	32.005
767.27	34.344
767.45	33.273
767.62	35.493
767.80	31.622
767.98	35.095
768.16	28.903
768.33	35.939
768.51	33.984
768.69	33.388
768.87	33.944
769.05	33.186
769.22	32.444
769.40	37.306
769.58	31.331
769.76	36.137
769.94	34.882
770.11	34.739
770.29	30.946
770.47	32.274
770.65	35.807
770.82	36.076
771.00	34.409
771.18	35.942
771.36	33.810
771.53	35.407
771.71	35.448
771.89	38.317
772.07	37.530
772.25	33.646
772.42	31.200
772.60	37.655
772.78	29.291
772.96	36.184
773.13	36.537
773.31	34.321
773.49	31.022
773.67	36.922
773.84	32.066
774.02	34.852
774.20	33.094
774.37	34.812
774.55	32.796
774.73	37.260
774.91	35.305
775.08	33.513
775.26	32.249
775.44	36.609
775.62	32.254
775.79	35.196
775.97	32.129
776.15	36.176
776.32	27.897
776.50	37.207
776.68	37.435
776.86	39.332
777.03	28.654
777.21	35.828
777.39	28.669
777.56	33.462
777.74	31.299
777.92	31.235
778.10	31.751
778.27	35.272
778.45	34.805
778.63	36.426
778.80	32.575
778.98	36.041
779.16	37.414
779.34	35.095
779.51	32.489
779.69	34.353
779.87	30.508
780.04	34.315
780.22	35.017
780.40	33.571
780.57	35.544
780.75	31.871
780.93	36.683
781.10	33.660
781.28	42.068
781.46	33.318
781.63	35.902
781.81	40.657
781.99	26.793
782.16	32.547
782.34	32.206
782.52	33.458
782.69	36.780
782.87	34.957
783.05	30.508
783.22	36.528
783.40	33.742
783.58	33.140
783.75	29.433
783.93	28.039
784.11	25.316
784.28	34.313
784.46	30.591
784.64	37.105
784.81	33.756
784.99	37.785
785.17	33.353
785.34	28.410
785.52	31.529
785.69	37.301
785.87	31.357
786.05	33.821
786.22	36.736
786.40	40.595
786.58	27.815
786.75	35.066
786.93	33.955
787.11	33.686
787.28	32.358
787.46	35.503
787.63	32.650
787.81	35.861
787.99	37.480
788.16	29.696
788.34	30.191
788.51	32.912
788.69	30.244
788.87	31.475
789.04	33.004
789.22	31.460
789.39	30.985
789.57	31.026
789.75	29.431
789.92	31.748
790.10	28.585
790.27	30.406
790.45	27.844
790.63	30.976
790.80	29.602
790.98	32.342
791.15	31.175
791.33	34.605
791.51	28.030
791.68	32.876
791.86	33.005
792.03	29.448
792.21	27.851
792.39	32.174
792.56	30.017
792.74	34.966
792.91	36.213
793.09	29.049
793.26	25.488
793.44	33.947
793.62	31.026
793.79	29.045
793.97	30.932
794.14	29.213
794.32	31.161
794.49	28.325
794.67	28.554
794.84	32.496
795.02	31.097
795.20	28.914
795.37	28.954
795.55	31.331
795.72	29.306
795.90	30.108
796.07	34.915
796.25	32.405
796.42	30.408
796.60	27.212
796.77	28.838
796.95	33.279
797.13	28.571
797.30	32.785
797.48	28.793
797.65	33.957
797.83	28.429
798.00	28.831
798.18	28.960
798.35	29.741
798.53	31.379
798.70	32.652
798.88	28.908
799.05	27.278
799.23	30.805
799.40	30.710
799.58	29.408
799.75	31.034
799.93	30.810
800.10	30.096
800.28	32.113
800.45	30.742
800.63	26.027
800.80	36.358
800.98	29.910
801.15	35.038
801.33	31.138
801.50	33.576
801.68	24.010
801.85	30.224
802.03	27.516
802.20	35.449
802.38	30.432
802.55	32.197
802.73	30.973
802.90	31.497
803.08	23.171
803.25	35.418
803.43	37.416
803.60	32.862
803.78	32.552
803.95	34.276
804.13	35.901
804.30	30.974
804.48	32.978
804.65	35.848
804.83	32.455
805.00	29.847
805.17	27.204
805.35	37.961
805.52	28.778
805.70	30.610
805.87	31.448
806.05	24.347
806.22	22.989
806.40	27.495
806.57	30.246
806.75	34.864
806.92	30.988
807.09	27.279
807.27	31.195
807.44	37.363
807.62	31.613
807.79	32.539
807.97	31.037
808.14	32.783
808.31	31.188
808.49	28.503
808.66	26.826
808.84	28.855
809.01	34.547
809.19	34.343
809.36	32.678
809.53	28.071
809.71	28.716
809.88	36.728
810.06	31.778
810.23	34.913
810.41	34.832
810.58	36.598
810.75	28.330
810.93	29.608
811.10	29.351
811.28	39.166
811.45	35.199
811.62	32.987
811.80	29.644
811.97	35.566
812.15	39.544
812.32	28.054
812.49	33.005
812.67	32.441
812.84	26.897
813.02	34.039
813.19	32.090
813.36	31.380
813.54	33.442
813.71	30.795
813.89	35.100
814.06	33.478
814.23	33.612
814.41	27.478
814.58	36.846
814.75	29.560
814.93	36.945
815.10	30.185
815.28	27.504
815.45	27.818
815.62	38.618
815.80	28.305
815.97	30.407
816.14	34.168
816.32	37.821
816.49	35.193
816.66	33.862
816.84	26.764
817.01	31.678
817.18	34.075
817.36	39.590
817.53	31.426
817.71	25.835
817.88	26.375
818.05	25.352
818.23	27.851
818.40	28.516
818.57	27.787
818.75	28.329
818.92	28.165
819.09	28.082
819.27	28.300
819.44	31.221
819.61	24.840
819.79	31.396
819.96	35.156
820.13	25.556
820.31	30.857
820.48	32.492
820.65	25.662
820.82	31.135
821.00	29.147
821.17	23.904
821.34	25.467
821.52	22.765
821.69	23.624
821.86	23.382
822.04	26.632
822.21	27.127
822.38	31.039
822.56	28.352
822.73	30.117
822.90	28.859
823.07	31.650
823.25	31.893
823.42	31.647
823.59	30.208
823.77	31.303
823.94	30.660
824.11	31.256
824.29	31.263
824.46	30.666
824.63	31.187
824.80	29.868
824.98	28.434
825.15	30.352
825.32	27.008
825.49	31.311
825.67	24.731
825.84	30.522
826.01	24.082
826.19	28.933
826.36	21.923
826.53	28.591
826.70	26.231
826.88	31.027
827.05	24.288
827.22	24.408
827.39	26.945
827.57	26.632
827.74	23.894
827.91	30.494
828.08	25.416
828.26	27.626
828.43	24.502
828.60	30.268
828.77	25.940
828.95	26.849
829.12	21.774
829.29	21.570
829.46	26.297
829.64	26.662
829.81	22.467
829.98	28.405
830.15	26.501
830.32	26.348
830.50	26.507
830.67	28.312
830.84	25.720
831.01	21.666
831.19	23.469
831.36	26.065
831.53	30.055
831.70	30.810
831.87	27.331
832.05	27.266
832.22	37.538
832.39	27.368
832.56	25.752
832.74	34.242
832.91	27.719
833.08	34.945
833.25	23.184
833.42	18.435
833.60	26.706
833.77	20.239
833.94	25.180
834.11	26.270
834.28	20.495
834.45	25.972
834.63	25.105
834.80	26.388
834.97	22.090
835.14	26.185
835.31	24.697
835.49	26.426
835.66	28.961
835.83	25.076
836.00	26.608
836.17	26.427
836.34	22.621
836.52	25.071
836.69	27.375
836.86	27.234
837.03	28.136
837.20	24.311
837.37	27.854
837.55	19.906
837.72	25.978
837.89	29.911
838.06	29.657
838.23	32.692
838.40	32.360
838.58	30.603
838.75	29.779
838.92	30.664
839.09	39.601
839.26	36.018
839.43	44.208
839.60	36.344
839.78	44.157
839.95	34.247
840.12	36.660
840.29	42.130
840.46	33.784
840.63	36.710
840.80	38.941
840.98	30.582
841.15	31.011
841.32	34.043
841.49	30.372
841.66	32.897
841.83	30.000
842.00	30.796
842.17	42.486
842.34	30.176
842.52	40.737
842.69	35.327
842.86	40.304
843.03	51.792
843.20	35.975
843.37	41.745
843.54	28.249
843.71	42.744
843.88	40.473
844.06	48.611
844.23	47.460
844.40	35.090
844.57	47.981
844.74	53.220
844.91	48.926
845.08	43.379
845.25	55.126
845.42	50.998
845.59	59.266
845.76	44.936
845.94	52.660
846.11	54.530
846.28	45.224
846.45	57.170
846.62	61.438
846.79	63.799
846.96	50.674
847.13	53.890
847.30	55.872
847.47	31.772
847.64	39.686
847.81	44.013
847.98	63.071
848.15	49.474
848.32	57.795
848.50	64.822
848.67	44.973
848.84	53.036
849.01	54.472
849.18	55.010
849.35	66.403
849.52	66.535
849.69	55.916
849.86	68.552
850.03	58.782
850.20	42.964
850.37	56.682
850.54	58.641
850.71	66.297
850.88	53.112
851.05	57.708
851.22	71.068
851.39	66.224
851.56	47.072
851.73	47.059
851.90	63.073
852.07	64.988
852.24	45.597
852.41	69.165
852.58	60.952
852.75	40.465
852.92	54.125
853.09	70.506
853.26	66.105
853.43	58.889
853.60	46.154
853.77	61.305
853.94	57.906
854.11	63.573
854.28	70.976
854.45	54.889
854.62	64.156
854.79	53.761
854.96	61.735
855.13	62.877
855.30	68.750
855.47	72.959
855.64	47.439
855.81	61.244
855.98	81.843
856.15	59.146
856.32	43.006
856.49	62.175
856.66	60.329
856.83	68.103
857.00	53.347
857.17	66.112
857.34	58.553
857.51	65.495
857.68	59.666
857.85	68.814
858.02	75.550
858.19	56.653
858.36	66.667
858.53	58.672
858.70	50.877
858.87	55.833
859.04	63.801
859.21	52.155
859.38	67.708
859.55	71.046
859.72	76.012
859.89	89.796
860.05	57.353
860.22	83.421
860.39	71.202
860.56	67.424
860.73	64.678
860.90	63.699
861.07	81.963
861.24	63.616
861.41	64.021
861.58	62.824
861.75	57.041
861.92	52.298
862.09	89.873
862.26	71.868
862.43	58.402
862.59	53.935
862.76	52.442
862.93	60.811
863.10	68.496
863.27	56.637
863.44	55.392
863.61	62.955
863.78	68.060
863.95	77.910
864.12	86.604
864.29	80.547
864.45	63.224
864.62	62.827
864.79	76.238
864.96	67.246
865.13	65.188
865.30	68.095
865.47	81.337
865.64	59.434
865.81	73.554
865.97	68.345
866.14	64.365
866.31	49.061
866.48	63.853
866.65	46.615
866.82	68.825
866.99	87.863
867.16	71.990
867.33	63.294
867.49	65.770
867.66	75.663
867.83	65.859
868.00	53.444
868.17	86.207
868.34	53.571
868.51	49.034
868.67	66.588
868.84	62.529
869.01	88.479
869.18	70.488
869.35	64.459
869.52	70.000
869.69	70.732
869.85	63.704
870.02	56.311
870.19	72.488
870.36	72.222
870.53	40.093
870.70	77.660
870.86	61.658
871.03	76.566
871.20	61.386
871.37	73.475
871.54	54.620
871.71	69.175
871.87	57.880
872.04	72.937
872.21	57.174
872.38	57.457
872.55	54.684
872.72	53.604
872.88	61.127
873.05	41.644
873.22	53.753
873.39	59.338
873.56	60.364
873.72	55.529
873.89	79.360
874.06	60.309
874.23	62.304
874.40	65.896
874.56	72.141
874.73	70.874
874.90	53.209
875.07	58.952
875.24	55.131
875.40	49.888
875.57	77.273
875.74	85.854
875.91	82.656
876.08	68.062
876.24	65.289
876.41	78.173
876.58	71.360
876.75	78.512
876.92	67.857
877.08	62.305
877.25	55.155
877.42	56.301
877.59	92.049
877.75	64.766
877.92	44.867
878.09	62.181
878.26	70.482
878.42	66.489
878.59	56.416
878.76	72.727
878.93	74.434
879.09	54.803
879.26	71.981
879.43	55.955
879.60	52.174
879.76	48.399
879.93	59.406
880.10	47.209
880.27	40.064
880.43	47.588
880.60	40.909
880.77	38.615
880.94	38.951
881.10	30.724
881.27	39.007
881.44	20.724
881.61	31.424
881.77	27.634
881.94	23.286
882.11	20.849
882.28	17.563
882.44	23.977
882.61	24.793
882.78	21.346
882.94	30.249
883.11	25.334
883.28	24.780
883.45	27.319
883.61	20.621
883.78	22.579
883.95	27.217
884.11	24.153
884.28	20.952
>>>>>End Processed Spectral Data<<<<<
