SpectraSuite Data File
++++++++++++++++++++++++++++++++++++
Date: Mon Sep 23 02:59:30 EST 2019
User: sgrac
Dark Spectrum Present: Yes
Reference Spectrum Present: Yes
Number of Sampled Component Spectra: 1
Spectrometers: USB4E01596
Integration Time (usec): 100000 (USB4E01596)
Spectra Averaged: 3 (USB4E01596)
Boxcar Smoothing: 0 (USB4E01596)
Correct for Electrical Dark: No (USB4E01596)
Strobe/Lamp Enabled: Yes (USB4E01596)
Correct for Detector Non-linearity: No (USB4E01596)
Correct for Stray Light: No (USB4E01596)
Number of Pixels in Processed Spectrum: 3648
>>>>>Begin Processed Spectral Data<<<<<
178.44	415.385
178.66	415.385
178.87	415.385
179.09	1700.000
179.30	-3000.000
179.52	125.806
179.74	-9.434
179.95	225.000
180.17	-97.222
180.38	78.947
180.60	-663.636
180.82	48.889
181.03	1250.000
181.25	-100.000
181.46	-296.000
181.68	491.667
181.89	-50.000
182.11	-387.500
182.33	-187.500
182.54	283.333
182.76	483.333
182.97	-68.085
183.19	90.000
183.40	71.901
183.62	101.282
183.84	117.273
184.05	142.857
184.27	63.636
184.48	124.242
184.70	29.412
184.91	414.286
185.13	80.000
185.34	-3850.000
185.56	192.308
185.78	84.722
185.99	194.444
186.21	81.818
186.42	1625.000
186.64	-150.000
186.85	-440.000
187.07	102.000
187.28	111.842
187.50	-1.818
187.72	-35.897
187.93	283.636
188.15	38.542
188.36	53.947
188.58	73.469
188.79	88.462
189.01	87.324
189.22	243.243
189.44	-66.667
189.65	106.780
189.87	-275.000
190.09	-4.762
190.30	150.000
190.52	55.000
190.73	200.000
190.95	-416.667
191.16	80.952
191.38	140.541
191.59	54.412
191.81	116.129
192.02	-180.000
192.24	159.375
192.45	273.529
192.67	175.000
192.88	-5.660
193.10	73.770
193.31	137.500
193.53	53.226
193.74	100.000
193.96	142.857
194.18	142.308
194.39	226.667
194.61	60.274
194.82	286.364
195.04	18.293
195.25	-119.298
195.47	-40.741
195.68	116.667
195.90	27.273
196.11	-11.940
196.33	7400.000
196.54	270.732
196.76	328.571
196.97	155.844
197.19	70.270
197.40	471.429
197.62	55.963
197.83	45.161
198.05	169.091
198.26	-200.000
198.48	147.887
198.69	70.000
198.91	16.667
199.12	134.884
199.34	228.261
199.55	115.714
199.77	568.421
199.98	-67.647
200.20	77.632
200.41	24.194
200.63	107.080
200.84	492.857
201.06	688.889
201.27	102.439
201.49	35.211
201.70	-116.667
201.91	75.000
202.13	100.000
202.34	139.655
202.56	-12.000
202.77	88.889
202.99	750.000
203.20	300.000
203.42	437.500
203.63	92.105
203.85	700.000
204.06	82.000
204.28	27.273
204.49	122.222
204.71	49.153
204.92	-46.154
205.14	0.000
205.35	-3.333
205.56	-150.000
205.78	800.000
205.99	164.286
206.21	650.000
206.42	106.818
206.64	119.355
206.85	62.963
207.07	11.111
207.28	70.690
207.50	97.826
207.71	206.452
207.93	25.301
208.14	77.778
208.35	43.636
208.57	96.000
208.78	-466.667
209.00	136.170
209.21	-850.000
209.43	-1300.000
209.64	-253.333
209.86	86.598
210.07	84.884
210.28	157.746
210.50	231.034
210.71	115.686
210.93	52.206
211.14	108.989
211.36	318.750
211.57	122.727
211.78	95.714
212.00	117.647
212.21	10.000
212.43	148.718
212.64	122.340
212.86	71.622
213.07	115.596
213.29	-211.111
213.50	92.391
213.71	86.207
213.93	89.024
214.14	-490.909
214.36	67.647
214.57	162.025
214.78	186.667
215.00	58.333
215.21	0.000
215.43	181.081
215.64	71.429
215.86	112.500
216.07	117.143
216.28	-21.053
216.50	101.667
216.71	700.000
216.93	128.788
217.14	166.667
217.35	87.879
217.57	111.712
217.78	79.012
218.00	44.444
218.21	217.391
218.42	112.766
218.64	-7.143
218.85	68.000
219.07	15.000
219.28	43.925
219.49	-7.843
219.71	29.231
219.92	69.403
220.14	68.041
220.35	82.667
220.56	25.287
220.78	63.462
220.99	103.226
221.21	103.226
221.42	72.840
221.63	84.971
221.85	76.923
222.06	97.143
222.28	75.385
222.49	11.712
222.70	70.079
222.92	134.694
223.13	32.787
223.34	81.560
223.56	52.381
223.77	113.750
223.99	70.526
224.20	28.571
224.41	6.849
224.63	29.545
224.84	36.486
225.05	41.453
225.27	4.348
225.48	-27.451
225.69	44.361
225.91	117.568
226.12	58.140
226.34	35.570
226.55	0.719
226.76	53.125
226.98	34.118
227.19	16.406
227.40	71.875
227.62	24.868
227.83	29.614
228.04	28.212
228.26	37.018
228.47	13.314
228.69	6.091
228.90	5.117
229.11	25.043
229.33	8.934
229.54	16.216
229.75	7.234
229.97	2.692
230.18	5.618
230.39	15.708
230.61	10.477
230.82	7.784
231.03	9.160
231.25	-4.140
231.46	16.968
231.67	2.490
231.89	10.446
232.10	18.023
232.31	1.089
232.53	7.131
232.74	24.299
232.95	5.989
233.17	8.200
233.38	3.361
233.59	12.801
233.81	19.746
234.02	15.431
234.23	25.177
234.45	17.882
234.66	9.956
234.87	8.402
235.09	14.148
235.30	17.863
235.51	17.438
235.73	6.308
235.94	20.174
236.15	21.083
236.36	-4.860
236.58	6.708
236.79	4.720
237.00	12.317
237.22	8.503
237.43	15.362
237.64	12.598
237.86	-0.188
238.07	8.935
238.28	10.323
238.50	4.899
238.71	14.748
238.92	14.063
239.13	6.271
239.35	13.219
239.56	13.958
239.77	12.245
239.99	14.528
240.20	9.418
240.41	15.925
240.63	4.178
240.84	5.473
241.05	7.618
241.26	4.130
241.48	9.451
241.69	5.719
241.90	4.455
242.12	8.280
242.33	5.812
242.54	3.816
242.75	4.511
242.97	4.519
243.18	2.393
243.39	3.030
243.61	6.178
243.82	5.649
244.03	2.916
244.24	3.592
244.46	4.869
244.67	5.636
244.88	4.712
245.09	6.475
245.31	7.474
245.52	0.844
245.73	0.786
245.95	6.043
246.16	2.448
246.37	2.226
246.58	5.605
246.80	4.148
247.01	4.709
247.22	3.172
247.43	6.596
247.65	6.307
247.86	5.805
248.07	2.494
248.28	5.114
248.50	2.707
248.71	3.023
248.92	4.454
249.13	3.589
249.35	4.572
249.56	3.540
249.77	5.432
249.98	4.189
250.20	5.976
250.41	5.033
250.62	4.609
250.83	5.473
251.05	4.679
251.26	6.502
251.47	1.924
251.68	6.663
251.90	5.494
252.11	2.555
252.32	4.642
252.53	3.644
252.75	7.803
252.96	6.976
253.17	4.261
253.38	7.651
253.59	2.618
253.81	1.241
254.02	4.243
254.23	4.176
254.44	-0.520
254.66	1.366
254.87	2.597
255.08	4.609
255.29	1.822
255.50	-0.432
255.72	6.429
255.93	9.268
256.14	4.700
256.35	3.005
256.57	3.214
256.78	5.126
256.99	5.631
257.20	8.863
257.41	6.126
257.63	6.367
257.84	4.909
258.05	1.997
258.26	3.990
258.47	2.728
258.69	5.159
258.90	-1.355
259.11	4.219
259.32	3.309
259.53	3.084
259.75	3.502
259.96	3.092
260.17	2.517
260.38	1.083
260.59	4.778
260.81	0.872
261.02	2.311
261.23	2.873
261.44	3.728
261.65	2.811
261.87	2.723
262.08	3.104
262.29	0.818
262.50	1.463
262.71	2.439
262.92	2.377
263.14	3.031
263.35	4.539
263.56	2.097
263.77	3.013
263.98	2.435
264.20	2.582
264.41	2.086
264.62	1.007
264.83	4.172
265.04	3.787
265.25	4.071
265.47	4.072
265.68	5.053
265.89	4.664
266.10	-0.786
266.31	4.155
266.52	1.933
266.74	3.359
266.95	3.325
267.16	3.904
267.37	3.299
267.58	3.410
267.79	4.242
268.01	3.140
268.22	1.876
268.43	3.534
268.64	2.445
268.85	3.992
269.06	4.150
269.27	3.853
269.49	3.007
269.70	1.640
269.91	4.119
270.12	0.389
270.33	5.662
270.54	-0.505
270.75	1.304
270.97	3.117
271.18	1.668
271.39	2.308
271.60	2.581
271.81	2.514
272.02	2.154
272.23	3.079
272.45	4.556
272.66	1.327
272.87	0.710
273.08	1.426
273.29	4.595
273.50	3.657
273.71	1.451
273.92	1.663
274.14	1.692
274.35	2.179
274.56	3.516
274.77	0.252
274.98	2.783
275.19	1.664
275.40	3.175
275.61	4.551
275.83	5.751
276.04	2.550
276.25	2.851
276.46	2.438
276.67	2.769
276.88	3.967
277.09	2.469
277.30	1.767
277.51	3.187
277.73	-0.244
277.94	2.303
278.15	6.586
278.36	3.422
278.57	2.220
278.78	1.351
278.99	5.487
279.20	2.730
279.41	3.414
279.62	0.829
279.84	1.836
280.05	2.469
280.26	4.298
280.47	3.483
280.68	3.653
280.89	3.421
281.10	1.131
281.31	2.575
281.52	2.607
281.73	0.236
281.94	2.757
282.16	3.149
282.37	1.320
282.58	1.950
282.79	3.424
283.00	2.779
283.21	4.266
283.42	1.737
283.63	3.818
283.84	1.454
284.05	3.424
284.26	3.074
284.47	2.504
284.68	2.474
284.89	2.593
285.11	2.720
285.32	0.915
285.53	3.311
285.74	4.290
285.95	3.333
286.16	3.524
286.37	1.509
286.58	3.042
286.79	1.742
287.00	3.005
287.21	2.157
287.42	1.682
287.63	3.408
287.84	1.785
288.05	1.703
288.26	1.339
288.48	3.163
288.69	1.202
288.90	1.884
289.11	2.734
289.32	3.968
289.53	3.611
289.74	1.517
289.95	1.814
290.16	2.162
290.37	1.333
290.58	0.668
290.79	1.217
291.00	1.356
291.21	0.312
291.42	2.213
291.63	1.678
291.84	2.712
292.05	1.595
292.26	1.546
292.47	3.785
292.68	1.549
292.89	3.392
293.10	3.375
293.31	1.730
293.52	1.864
293.73	3.987
293.94	1.683
294.15	1.754
294.36	2.671
294.57	1.376
294.79	1.320
295.00	0.443
295.21	0.755
295.42	1.291
295.63	0.849
295.84	1.073
296.05	0.948
296.26	0.219
296.47	1.871
296.68	1.621
296.89	3.641
297.10	2.940
297.31	1.849
297.52	1.297
297.73	2.685
297.94	1.816
298.15	1.550
298.36	2.493
298.57	2.271
298.78	2.054
298.99	2.523
299.20	2.438
299.41	2.884
299.62	2.859
299.83	1.337
300.04	2.328
300.25	3.138
300.46	3.767
300.67	2.610
300.88	2.569
301.09	2.793
301.30	2.158
301.50	2.918
301.71	2.189
301.92	2.520
302.13	2.297
302.34	1.818
302.55	1.639
302.76	0.665
302.97	3.183
303.18	3.188
303.39	1.427
303.60	2.122
303.81	2.258
304.02	1.265
304.23	2.667
304.44	2.067
304.65	0.681
304.86	2.973
305.07	0.638
305.28	0.306
305.49	2.592
305.70	2.370
305.91	3.083
306.12	1.571
306.33	1.858
306.54	1.330
306.75	2.411
306.96	3.766
307.17	3.252
307.38	2.027
307.58	1.534
307.79	2.166
308.00	1.413
308.21	0.606
308.42	1.364
308.63	1.437
308.84	1.850
309.05	2.207
309.26	0.000
309.47	2.337
309.68	2.860
309.89	2.851
310.10	1.763
310.31	1.792
310.52	1.423
310.73	2.389
310.94	0.429
311.14	2.437
311.35	1.294
311.56	2.525
311.77	1.078
311.98	1.713
312.19	2.227
312.40	0.896
312.61	1.180
312.82	1.538
313.03	1.035
313.24	2.055
313.45	2.967
313.66	1.518
313.86	2.681
314.07	0.447
314.28	3.157
314.49	1.077
314.70	3.007
314.91	2.178
315.12	1.631
315.33	2.354
315.54	0.979
315.75	0.911
315.96	0.556
316.16	2.954
316.37	1.826
316.58	1.919
316.79	2.240
317.00	2.454
317.21	0.971
317.42	0.953
317.63	1.648
317.84	2.189
318.05	1.651
318.25	3.321
318.46	1.137
318.67	0.723
318.88	0.888
319.09	2.939
319.30	1.140
319.51	2.794
319.72	3.204
319.93	1.383
320.13	2.145
320.34	3.215
320.55	3.927
320.76	1.574
320.97	1.970
321.18	2.654
321.39	0.940
321.60	2.117
321.80	2.964
322.01	1.835
322.22	1.225
322.43	1.726
322.64	3.004
322.85	3.411
323.06	3.162
323.27	3.229
323.47	2.982
323.68	1.395
323.89	2.228
324.10	2.571
324.31	1.152
324.52	2.880
324.73	3.043
324.93	2.493
325.14	3.408
325.35	1.814
325.56	0.719
325.77	2.016
325.98	4.009
326.19	3.050
326.39	1.728
326.60	1.124
326.81	1.575
327.02	1.562
327.23	2.272
327.44	2.915
327.64	1.052
327.85	-0.292
328.06	2.995
328.27	4.255
328.48	2.073
328.69	1.081
328.90	1.195
329.10	1.800
329.31	1.639
329.52	2.444
329.73	2.836
329.94	2.842
330.15	3.158
330.35	3.885
330.56	2.417
330.77	2.372
330.98	-0.376
331.19	1.681
331.39	1.551
331.60	3.558
331.81	1.648
332.02	1.072
332.23	0.477
332.44	1.775
332.64	1.827
332.85	0.891
333.06	2.939
333.27	2.212
333.48	3.104
333.68	1.755
333.89	2.366
334.10	2.953
334.31	1.490
334.52	2.143
334.72	2.114
334.93	2.366
335.14	2.871
335.35	1.271
335.56	2.128
335.76	1.545
335.97	2.753
336.18	2.596
336.39	1.595
336.60	1.957
336.80	2.434
337.01	1.677
337.22	1.655
337.43	4.100
337.64	3.521
337.84	3.071
338.05	3.147
338.26	4.188
338.47	3.931
338.68	1.774
338.88	2.348
339.09	2.666
339.30	3.268
339.51	2.815
339.71	2.942
339.92	1.503
340.13	2.706
340.34	3.350
340.55	1.287
340.75	3.406
340.96	2.108
341.17	4.160
341.38	3.644
341.58	3.715
341.79	2.926
342.00	3.452
342.21	2.723
342.41	2.162
342.62	2.775
342.83	3.767
343.04	1.610
343.24	4.843
343.45	3.296
343.66	1.968
343.87	3.508
344.07	1.865
344.28	3.433
344.49	2.868
344.70	4.807
344.90	4.678
345.11	2.362
345.32	3.736
345.53	3.938
345.73	4.069
345.94	4.694
346.15	5.441
346.36	4.545
346.56	3.846
346.77	5.237
346.98	3.172
347.19	5.752
347.39	5.029
347.60	4.968
347.81	5.080
348.02	4.771
348.22	4.789
348.43	5.532
348.64	4.934
348.84	5.038
349.05	5.615
349.26	7.825
349.47	3.785
349.67	6.262
349.88	6.271
350.09	6.394
350.30	6.513
350.50	6.775
350.71	6.186
350.92	7.360
351.12	7.400
351.33	6.474
351.54	5.244
351.74	7.930
351.95	6.346
352.16	8.905
352.37	6.526
352.57	6.627
352.78	6.798
352.99	7.628
353.19	6.542
353.40	7.369
353.61	8.397
353.82	8.492
354.02	9.228
354.23	8.928
354.44	10.754
354.64	7.238
354.85	7.598
355.06	8.045
355.26	6.623
355.47	8.374
355.68	8.777
355.88	9.409
356.09	10.803
356.30	9.327
356.51	11.192
356.71	8.175
356.92	7.169
357.13	10.253
357.33	11.485
357.54	10.191
357.75	7.047
357.95	11.062
358.16	9.073
358.37	12.347
358.57	9.175
358.78	12.652
358.99	9.179
359.19	10.568
359.40	11.849
359.61	9.893
359.81	11.518
360.02	13.118
360.23	8.710
360.43	10.269
360.64	9.102
360.85	11.418
361.05	9.009
361.26	11.704
361.47	10.721
361.67	12.586
361.88	9.365
362.09	12.999
362.29	9.329
362.50	10.770
362.70	10.014
362.91	12.461
363.12	9.766
363.32	11.755
363.53	10.893
363.74	12.042
363.94	8.557
364.15	13.034
364.36	12.616
364.56	11.003
364.77	10.690
364.98	12.301
365.18	10.203
365.39	11.515
365.59	8.670
365.80	10.939
366.01	10.804
366.21	9.327
366.42	8.376
366.63	11.774
366.83	9.287
367.04	8.136
367.24	10.977
367.45	10.026
367.66	8.342
367.86	10.857
368.07	8.887
368.28	9.191
368.48	9.799
368.69	8.473
368.89	10.208
369.10	10.827
369.31	9.343
369.51	11.053
369.72	11.131
369.92	11.519
370.13	9.299
370.34	10.630
370.54	5.197
370.75	9.440
370.95	6.856
371.16	9.925
371.37	9.743
371.57	9.677
371.78	8.903
371.98	11.024
372.19	10.261
372.40	10.963
372.60	11.127
372.81	11.279
373.01	8.983
373.22	9.230
373.43	11.535
373.63	10.619
373.84	9.773
374.04	10.440
374.25	8.441
374.46	10.940
374.66	9.362
374.87	11.065
375.07	7.195
375.28	8.573
375.48	9.861
375.69	11.158
375.90	8.326
376.10	8.526
376.31	9.364
376.51	8.258
376.72	9.869
376.92	9.043
377.13	9.548
377.34	11.213
377.54	9.479
377.75	12.215
377.95	9.703
378.16	11.711
378.36	10.404
378.57	12.420
378.77	10.367
378.98	9.986
379.19	10.033
379.39	9.942
379.60	10.064
379.80	9.568
380.01	9.992
380.21	9.064
380.42	10.456
380.62	9.839
380.83	9.799
381.04	8.901
381.24	9.967
381.45	10.275
381.65	8.419
381.86	9.433
382.06	10.664
382.27	7.445
382.47	8.667
382.68	10.751
382.88	7.826
383.09	8.771
383.29	10.033
383.50	11.254
383.71	9.667
383.91	9.959
384.12	9.509
384.32	10.364
384.53	9.795
384.73	8.999
384.94	8.767
385.14	9.892
385.35	9.075
385.55	10.254
385.76	8.279
385.96	9.738
386.17	9.738
386.37	10.638
386.58	9.360
386.78	11.123
386.99	8.678
387.19	10.922
387.40	8.808
387.60	11.644
387.81	9.091
388.01	10.063
388.22	9.946
388.42	11.697
388.63	11.334
388.83	11.613
389.04	8.478
389.24	10.924
389.45	9.380
389.65	9.899
389.86	9.296
390.06	8.933
390.27	9.717
390.47	9.288
390.68	9.392
390.88	11.304
391.09	10.235
391.29	10.813
391.50	10.268
391.70	10.884
391.91	10.373
392.11	10.868
392.32	9.724
392.52	11.297
392.73	9.564
392.93	11.751
393.14	10.632
393.34	10.810
393.55	10.969
393.75	10.732
393.95	9.981
394.16	10.957
394.36	11.274
394.57	11.742
394.77	10.604
394.98	10.681
395.18	10.841
395.39	10.919
395.59	10.394
395.80	10.780
396.00	10.211
396.21	11.548
396.41	8.966
396.61	11.404
396.82	10.384
397.02	11.928
397.23	9.910
397.43	9.993
397.64	8.158
397.84	11.398
398.05	8.530
398.25	10.415
398.45	10.002
398.66	10.326
398.86	10.252
399.07	11.141
399.27	8.994
399.48	11.142
399.68	8.512
399.89	10.412
400.09	9.215
400.29	9.163
400.50	9.531
400.70	10.076
400.91	8.751
401.11	9.794
401.32	9.212
401.52	7.947
401.72	8.837
401.93	11.866
402.13	8.987
402.34	9.957
402.54	8.250
402.75	11.503
402.95	7.136
403.15	11.020
403.36	8.425
403.56	10.449
403.77	9.119
403.97	9.544
404.17	9.076
404.38	10.759
404.58	8.773
404.79	10.593
404.99	10.108
405.19	10.636
405.40	9.657
405.60	10.361
405.81	9.033
406.01	10.253
406.21	8.876
406.42	10.310
406.62	9.116
406.83	10.560
407.03	10.024
407.23	8.914
407.44	7.987
407.64	10.298
407.85	10.046
408.05	9.237
408.25	8.809
408.46	10.411
408.66	8.287
408.87	8.749
409.07	8.121
409.27	8.537
409.48	8.309
409.68	9.234
409.88	6.450
410.09	8.845
410.29	9.067
410.50	10.363
410.70	7.521
410.90	9.049
411.11	7.835
411.31	9.058
411.51	9.065
411.72	9.956
411.92	8.549
412.12	9.101
412.33	7.482
412.53	8.462
412.74	6.978
412.94	8.413
413.14	8.292
413.35	9.150
413.55	8.374
413.75	9.361
413.96	8.003
414.16	8.115
414.36	8.145
414.57	8.267
414.77	8.571
414.97	8.910
415.18	7.962
415.38	9.198
415.58	8.388
415.79	7.914
415.99	7.896
416.19	9.790
416.40	8.630
416.60	8.593
416.80	8.828
417.01	9.285
417.21	7.133
417.41	10.090
417.62	8.792
417.82	9.849
418.02	8.399
418.23	9.924
418.43	8.763
418.63	9.515
418.84	9.821
419.04	9.138
419.24	9.840
419.45	10.175
419.65	10.008
419.85	10.311
420.06	9.631
420.26	10.431
420.46	9.614
420.67	10.476
420.87	10.183
421.07	10.298
421.28	9.846
421.48	10.295
421.68	9.989
421.88	10.451
422.09	10.263
422.29	10.263
422.49	9.794
422.70	10.332
422.90	10.126
423.10	10.563
423.31	10.151
423.51	10.396
423.71	9.818
423.91	10.621
424.12	10.532
424.32	10.315
424.52	10.003
424.73	10.374
424.93	10.115
425.13	10.095
425.33	9.871
425.54	10.237
425.74	9.926
425.94	10.323
426.15	9.930
426.35	10.210
426.55	10.023
426.75	10.412
426.96	9.948
427.16	9.685
427.36	10.001
427.57	9.998
427.77	9.186
427.97	9.810
428.17	9.323
428.38	9.303
428.58	8.124
428.78	9.953
428.98	8.233
429.19	8.715
429.39	8.150
429.59	9.099
429.79	7.424
430.00	8.416
430.20	7.674
430.40	8.613
430.60	8.338
430.81	8.675
431.01	8.207
431.21	8.979
431.41	7.821
431.62	9.201
431.82	8.278
432.02	9.235
432.22	8.134
432.43	8.909
432.63	8.032
432.83	9.012
433.03	8.943
433.24	8.692
433.44	8.194
433.64	9.735
433.84	8.549
434.05	10.146
434.25	9.669
434.45	9.989
434.65	9.612
434.85	10.362
435.06	9.471
435.26	9.417
435.46	9.600
435.66	10.040
435.87	9.206
436.07	9.891
436.27	9.622
436.47	8.703
436.67	8.440
436.88	9.800
437.08	9.241
437.28	9.339
437.48	9.279
437.69	10.112
437.89	9.187
438.09	10.136
438.29	8.660
438.49	9.978
438.70	9.657
438.90	9.570
439.10	9.232
439.30	9.992
439.50	9.272
439.71	9.801
439.91	9.719
440.11	10.592
440.31	10.023
440.51	9.824
440.72	9.864
440.92	10.218
441.12	10.587
441.32	10.761
441.52	10.323
441.72	10.315
441.93	10.275
442.13	10.627
442.33	10.049
442.53	10.599
442.73	9.942
442.94	10.364
443.14	10.220
443.34	10.333
443.54	9.928
443.74	10.449
443.94	9.574
444.15	9.798
444.35	9.502
444.55	10.227
444.75	9.369
444.95	10.075
445.15	10.147
445.36	10.452
445.56	9.619
445.76	10.280
445.96	9.974
446.16	10.358
446.36	9.961
446.57	11.001
446.77	10.259
446.97	10.783
447.17	11.072
447.37	11.050
447.57	10.502
447.77	10.690
447.98	10.592
448.18	10.633
448.38	10.300
448.58	10.809
448.78	10.552
448.98	10.486
449.18	10.414
449.39	10.807
449.59	10.137
449.79	10.149
449.99	10.051
450.19	10.403
450.39	10.245
450.59	10.108
450.79	10.060
451.00	10.147
451.20	9.959
451.40	10.082
451.60	9.300
451.80	10.354
452.00	9.224
452.20	10.339
452.40	9.441
452.61	9.919
452.81	10.141
453.01	9.976
453.21	9.491
453.41	10.034
453.61	10.060
453.81	9.973
454.01	9.746
454.21	10.050
454.42	10.144
454.62	10.293
454.82	9.599
455.02	10.099
455.22	9.473
455.42	9.559
455.62	9.405
455.82	9.966
456.02	9.373
456.23	9.703
456.43	8.924
456.63	9.875
456.83	8.780
457.03	9.976
457.23	9.263
457.43	9.802
457.63	9.303
457.83	9.542
458.03	9.392
458.23	9.751
458.43	9.069
458.64	9.678
458.84	9.463
459.04	9.742
459.24	9.957
459.44	10.116
459.64	9.824
459.84	10.125
460.04	10.580
460.24	10.285
460.44	10.259
460.64	10.353
460.84	10.495
461.04	10.460
461.24	10.473
461.45	10.514
461.65	10.424
461.85	10.477
462.05	9.945
462.25	10.362
462.45	10.364
462.65	10.002
462.85	9.223
463.05	10.016
463.25	8.873
463.45	9.900
463.65	9.678
463.85	9.761
464.05	8.992
464.25	9.785
464.45	9.461
464.65	9.727
464.85	9.130
465.05	9.761
465.26	9.111
465.46	10.092
465.66	9.542
465.86	9.738
466.06	9.084
466.26	9.910
466.46	8.647
466.66	9.946
466.86	8.997
467.06	9.881
467.26	9.495
467.46	9.545
467.66	9.322
467.86	9.700
468.06	9.752
468.26	9.221
468.46	9.773
468.66	9.686
468.86	9.292
469.06	9.648
469.26	9.257
469.46	9.750
469.66	8.662
469.86	9.956
470.06	9.260
470.26	10.171
470.46	8.894
470.66	9.792
470.86	9.014
471.06	9.327
471.26	9.019
471.46	9.466
471.66	9.537
471.86	9.627
472.06	8.806
472.26	10.337
472.46	9.916
472.66	9.941
472.86	9.253
473.06	10.014
473.26	9.239
473.46	10.099
473.66	8.727
473.86	9.630
474.06	9.108
474.26	10.420
474.46	9.206
474.66	10.067
474.86	9.244
475.06	9.946
475.26	8.809
475.46	10.074
475.66	8.767
475.86	9.698
476.06	10.054
476.26	10.004
476.46	9.243
476.66	10.015
476.86	9.141
477.06	10.064
477.26	9.436
477.46	10.281
477.65	9.915
477.85	10.255
478.05	9.850
478.25	11.006
478.45	10.014
478.65	10.642
478.85	9.615
479.05	10.298
479.25	10.163
479.45	10.517
479.65	9.973
479.85	10.408
480.05	9.827
480.25	10.791
480.45	10.652
480.65	10.653
480.85	10.061
481.05	11.058
481.25	10.914
481.44	10.975
481.64	10.213
481.84	10.912
482.04	10.642
482.24	11.394
482.44	10.781
482.64	11.129
482.84	11.299
483.04	11.285
483.24	10.999
483.44	11.204
483.64	11.269
483.84	11.321
484.04	11.471
484.23	11.542
484.43	11.428
484.63	11.747
484.83	11.809
485.03	12.071
485.23	12.234
485.43	12.128
485.63	11.839
485.83	11.628
486.03	11.459
486.23	11.440
486.42	11.566
486.62	11.358
486.82	11.378
487.02	11.611
487.22	11.418
487.42	11.381
487.62	11.564
487.82	11.551
488.02	11.630
488.22	11.395
488.41	11.478
488.61	11.525
488.81	11.531
489.01	11.563
489.21	11.629
489.41	11.587
489.61	11.508
489.81	11.532
490.01	11.706
490.20	11.733
490.40	11.544
490.60	11.798
490.80	11.208
491.00	11.712
491.20	11.497
491.40	11.558
491.60	11.516
491.79	11.700
491.99	11.528
492.19	11.601
492.39	11.570
492.59	11.612
492.79	11.664
492.99	11.689
493.19	11.727
493.38	11.747
493.58	11.657
493.78	11.738
493.98	11.334
494.18	11.653
494.38	11.561
494.58	11.962
494.77	11.543
494.97	11.707
495.17	11.437
495.37	11.628
495.57	11.665
495.77	11.987
495.96	11.389
496.16	11.825
496.36	11.446
496.56	11.859
496.76	11.648
496.96	11.453
497.15	11.800
497.35	11.857
497.55	11.390
497.75	11.779
497.95	11.766
498.15	12.272
498.34	11.663
498.54	12.256
498.74	12.189
498.94	12.073
499.14	12.038
499.34	12.341
499.53	12.057
499.73	11.941
499.93	12.181
500.13	12.045
500.33	11.951
500.52	12.194
500.72	11.696
500.92	12.187
501.12	11.836
501.32	12.054
501.52	12.359
501.71	12.621
501.91	11.703
502.11	12.379
502.31	11.678
502.51	12.405
502.70	12.040
502.90	12.553
503.10	11.932
503.30	12.922
503.50	12.388
503.69	12.510
503.89	12.363
504.09	12.612
504.29	12.448
504.48	12.635
504.68	12.490
504.88	12.961
505.08	12.465
505.28	12.546
505.47	12.391
505.67	12.626
505.87	12.327
506.07	12.848
506.27	12.605
506.46	12.700
506.66	12.392
506.86	12.903
507.06	12.915
507.25	12.618
507.45	12.245
507.65	13.024
507.85	12.403
508.04	12.941
508.24	12.656
508.44	12.635
508.64	12.802
508.83	12.771
509.03	12.780
509.23	12.825
509.43	12.123
509.63	12.667
509.82	12.693
510.02	12.764
510.22	12.461
510.42	12.682
510.61	12.369
510.81	13.150
511.01	12.762
511.21	12.968
511.40	12.740
511.60	13.181
511.80	12.861
511.99	13.043
512.19	12.943
512.39	12.907
512.59	12.822
512.78	13.102
512.98	12.803
513.18	12.624
513.38	12.861
513.57	12.888
513.77	13.057
513.97	12.843
514.17	12.784
514.36	12.820
514.56	12.876
514.76	13.109
514.95	12.700
515.15	13.342
515.35	12.738
515.55	12.833
515.74	12.654
515.94	12.914
516.14	12.993
516.33	12.747
516.53	12.968
516.73	12.797
516.93	12.563
517.12	13.226
517.32	12.803
517.52	13.209
517.71	12.362
517.91	12.951
518.11	12.752
518.30	13.128
518.50	13.189
518.70	13.107
518.90	13.045
519.09	12.531
519.29	12.967
519.49	13.395
519.68	13.054
519.88	13.104
520.08	13.065
520.27	12.999
520.47	13.355
520.67	13.113
520.86	13.233
521.06	13.126
521.26	12.763
521.45	13.146
521.65	13.116
521.85	13.148
522.04	13.058
522.24	13.075
522.44	13.023
522.63	13.147
522.83	12.923
523.03	13.543
523.22	13.283
523.42	13.455
523.62	12.754
523.81	13.305
524.01	13.025
524.21	13.008
524.40	13.135
524.60	13.375
524.80	12.655
524.99	13.222
525.19	13.027
525.39	13.272
525.58	13.039
525.78	13.051
525.98	13.264
526.17	13.294
526.37	13.182
526.57	13.018
526.76	13.151
526.96	13.291
527.15	13.277
527.35	13.521
527.55	13.334
527.74	12.972
527.94	13.617
528.14	13.315
528.33	13.266
528.53	13.475
528.72	13.506
528.92	13.501
529.12	13.681
529.31	13.527
529.51	13.662
529.71	13.874
529.90	13.576
530.10	13.541
530.29	13.698
530.49	13.464
530.69	13.344
530.88	13.510
531.08	13.496
531.28	13.511
531.47	13.367
531.67	13.644
531.86	13.178
532.06	13.338
532.26	13.530
532.45	13.535
532.65	13.388
532.84	13.662
533.04	13.529
533.24	13.514
533.43	13.570
533.63	13.478
533.82	13.691
534.02	13.835
534.22	13.491
534.41	13.556
534.61	13.675
534.80	13.800
535.00	13.958
535.19	13.555
535.39	13.824
535.59	13.717
535.78	13.816
535.98	13.319
536.17	13.562
536.37	13.668
536.57	13.689
536.76	13.640
536.96	13.796
537.15	13.760
537.35	13.617
537.54	13.662
537.74	13.923
537.93	14.048
538.13	13.853
538.33	13.757
538.52	13.637
538.72	13.954
538.91	13.899
539.11	14.008
539.30	13.856
539.50	13.873
539.70	13.964
539.89	13.945
540.09	13.750
540.28	14.158
540.48	13.763
540.67	13.776
540.87	14.154
541.06	14.037
541.26	14.322
541.45	14.372
541.65	14.186
541.85	14.125
542.04	14.290
542.24	14.152
542.43	14.364
542.63	14.400
542.82	14.367
543.02	14.553
543.21	14.476
543.41	14.410
543.60	14.439
543.80	14.251
543.99	14.055
544.19	14.425
544.38	14.380
544.58	14.419
544.77	14.305
544.97	14.584
545.16	14.533
545.36	14.448
545.56	14.387
545.75	14.259
545.95	14.563
546.14	14.220
546.34	14.699
546.53	14.410
546.73	14.391
546.92	14.529
547.12	14.636
547.31	14.410
547.51	14.646
547.70	14.827
547.90	14.922
548.09	14.974
548.29	14.596
548.48	14.726
548.68	14.541
548.87	14.641
549.07	14.348
549.26	14.580
549.46	14.857
549.65	14.588
549.84	14.450
550.04	14.706
550.23	14.172
550.43	14.705
550.62	14.376
550.82	15.190
551.01	14.209
551.21	14.652
551.40	14.393
551.60	14.879
551.79	14.873
551.99	14.897
552.18	14.837
552.38	15.455
552.57	14.926
552.77	15.187
552.96	15.183
553.16	15.566
553.35	14.944
553.54	15.307
553.74	15.404
553.93	15.631
554.13	15.761
554.32	15.947
554.52	15.487
554.71	15.833
554.91	15.338
555.10	15.830
555.29	14.896
555.49	15.407
555.68	15.133
555.88	15.905
556.07	15.195
556.27	15.136
556.46	15.711
556.66	15.603
556.85	15.428
557.04	16.003
557.24	15.177
557.43	16.134
557.63	15.617
557.82	15.986
558.02	15.214
558.21	16.091
558.40	15.810
558.60	16.618
558.79	16.134
558.99	16.240
559.18	16.101
559.38	16.218
559.57	15.817
559.76	16.272
559.96	16.614
560.15	16.840
560.35	15.891
560.54	16.131
560.73	15.565
560.93	16.424
561.12	16.008
561.32	16.324
561.51	16.472
561.70	16.464
561.90	16.409
562.09	17.164
562.29	16.692
562.48	16.714
562.67	16.755
562.87	17.453
563.06	16.373
563.26	16.570
563.45	17.008
563.64	16.896
563.84	16.940
564.03	16.897
564.23	16.433
564.42	17.427
564.61	17.062
564.81	17.318
565.00	17.266
565.20	17.105
565.39	17.324
565.58	17.553
565.78	17.883
565.97	17.879
566.16	17.882
566.36	18.357
566.55	18.249
566.74	18.141
566.94	18.072
567.13	18.165
567.33	17.998
567.52	18.448
567.71	18.817
567.91	18.646
568.10	18.266
568.29	18.562
568.49	18.556
568.68	18.543
568.87	17.957
569.07	18.905
569.26	18.447
569.45	18.914
569.65	18.440
569.84	18.391
570.04	18.338
570.23	18.650
570.42	18.212
570.62	19.154
570.81	18.515
571.00	18.584
571.20	19.259
571.39	18.966
571.58	19.055
571.78	18.591
571.97	18.800
572.16	18.915
572.36	19.100
572.55	18.939
572.74	18.805
572.94	19.145
573.13	18.962
573.32	19.445
573.51	19.512
573.71	19.111
573.90	18.981
574.09	19.374
574.29	19.063
574.48	19.070
574.67	18.729
574.87	19.051
575.06	19.131
575.25	19.251
575.45	19.115
575.64	19.264
575.83	18.802
576.03	19.847
576.22	19.071
576.41	19.012
576.60	18.833
576.80	19.334
576.99	19.168
577.18	19.413
577.38	19.177
577.57	19.298
577.76	19.221
577.95	18.987
578.15	19.263
578.34	19.049
578.53	18.601
578.73	19.122
578.92	18.936
579.11	18.593
579.30	19.009
579.50	19.266
579.69	18.887
579.88	18.786
580.08	18.590
580.27	18.272
580.46	18.522
580.65	18.507
580.85	18.423
581.04	18.871
581.23	18.428
581.42	18.568
581.62	17.950
581.81	18.251
582.00	18.518
582.19	18.488
582.39	18.425
582.58	18.862
582.77	18.514
582.96	18.353
583.16	18.362
583.35	18.558
583.54	19.124
583.73	18.733
583.93	18.204
584.12	18.445
584.31	17.525
584.50	18.236
584.70	18.597
584.89	18.178
585.08	18.252
585.27	18.455
585.47	17.759
585.66	18.070
585.85	17.570
586.04	18.302
586.24	18.241
586.43	18.650
586.62	18.604
586.81	18.437
587.00	18.677
587.20	17.991
587.39	17.507
587.58	19.010
587.77	17.999
587.97	18.193
588.16	18.293
588.35	18.545
588.54	17.340
588.73	18.916
588.93	18.201
589.12	18.453
589.31	18.028
589.50	18.758
589.69	17.971
589.89	18.607
590.08	17.750
590.27	18.256
590.46	18.288
590.65	18.090
590.85	17.443
591.04	18.433
591.23	18.885
591.42	18.687
591.61	18.596
591.81	17.908
592.00	18.103
592.19	18.636
592.38	17.594
592.57	18.940
592.77	18.326
592.96	18.003
593.15	18.639
593.34	18.470
593.53	18.272
593.72	18.769
593.92	17.722
594.11	18.725
594.30	17.599
594.49	18.837
594.68	18.336
594.87	18.589
595.07	17.636
595.26	18.847
595.45	17.984
595.64	18.509
595.83	18.345
596.02	18.634
596.22	18.683
596.41	18.412
596.60	18.304
596.79	18.848
596.98	19.237
597.17	18.784
597.37	18.794
597.56	19.370
597.75	18.664
597.94	19.302
598.13	19.051
598.32	19.100
598.51	19.139
598.71	19.618
598.90	19.110
599.09	19.518
599.28	18.985
599.47	19.084
599.66	18.868
599.85	19.385
600.05	17.914
600.24	18.962
600.43	18.466
600.62	19.266
600.81	18.266
601.00	18.628
601.19	18.465
601.38	19.871
601.58	18.422
601.77	18.743
601.96	18.623
602.15	19.782
602.34	19.069
602.53	20.190
602.72	18.469
602.91	19.804
603.10	19.444
603.30	19.820
603.49	18.759
603.68	19.344
603.87	19.390
604.06	19.685
604.25	19.626
604.44	19.786
604.63	19.834
604.82	19.984
605.01	20.135
605.21	19.764
605.40	19.733
605.59	20.091
605.78	19.508
605.97	19.695
606.16	19.670
606.35	19.919
606.54	19.602
606.73	20.036
606.92	19.561
607.11	19.636
607.30	19.595
607.50	19.110
607.69	19.289
607.88	19.225
608.07	18.752
608.26	19.322
608.45	19.306
608.64	19.267
608.83	18.644
609.02	19.139
609.21	18.696
609.40	19.411
609.59	18.872
609.78	18.973
609.97	19.240
610.16	19.353
610.35	19.587
610.55	19.500
610.74	19.159
610.93	19.332
611.12	18.719
611.31	18.994
611.50	19.093
611.69	19.031
611.88	18.984
612.07	18.623
612.26	18.120
612.45	18.757
612.64	18.266
612.83	18.541
613.02	18.012
613.21	18.797
613.40	17.575
613.59	19.041
613.78	17.516
613.97	18.216
614.16	18.261
614.35	17.535
614.54	16.772
614.73	16.822
614.92	17.620
615.11	18.294
615.30	17.499
615.49	16.692
615.68	17.019
615.87	17.695
616.07	16.109
616.26	17.459
616.45	16.530
616.64	17.255
616.83	16.866
617.02	17.109
617.21	16.039
617.40	16.116
617.59	16.347
617.78	16.991
617.97	16.578
618.16	15.683
618.35	15.907
618.54	17.132
618.73	15.446
618.92	16.810
619.11	15.140
619.30	16.352
619.49	16.100
619.68	16.561
619.86	16.364
620.05	16.629
620.24	15.623
620.43	16.109
620.62	14.627
620.81	16.153
621.00	15.864
621.19	17.100
621.38	16.391
621.57	16.824
621.76	15.244
621.95	17.082
622.14	15.511
622.33	17.791
622.52	15.526
622.71	16.323
622.90	15.237
623.09	16.175
623.28	15.569
623.47	16.103
623.66	15.806
623.85	15.720
624.04	16.080
624.23	14.957
624.42	15.228
624.61	15.612
624.80	14.394
624.99	16.322
625.18	14.467
625.36	15.984
625.55	16.020
625.74	15.890
625.93	15.379
626.12	16.729
626.31	16.504
626.50	16.924
626.69	15.644
626.88	16.849
627.07	16.473
627.26	16.672
627.45	15.919
627.64	16.717
627.83	15.722
628.02	16.734
628.20	16.026
628.39	16.691
628.58	16.247
628.77	15.993
628.96	15.961
629.15	16.539
629.34	16.341
629.53	15.948
629.72	14.600
629.91	16.525
630.10	15.126
630.29	16.200
630.47	15.621
630.66	16.345
630.85	15.650
631.04	15.833
631.23	15.731
631.42	15.285
631.61	15.169
631.80	16.996
631.99	14.733
632.18	15.360
632.36	14.999
632.55	15.523
632.74	15.105
632.93	15.444
633.12	14.735
633.31	16.071
633.50	15.431
633.69	15.638
633.88	14.779
634.06	15.122
634.25	15.053
634.44	15.431
634.63	14.638
634.82	15.922
635.01	14.761
635.20	15.292
635.39	14.863
635.57	15.332
635.76	15.018
635.95	16.039
636.14	14.258
636.33	15.654
636.52	15.236
636.71	15.033
636.89	14.459
637.08	15.124
637.27	13.963
637.46	15.362
637.65	14.129
637.84	14.027
638.03	14.079
638.21	14.428
638.40	14.122
638.59	14.113
638.78	13.292
638.97	14.910
639.16	15.182
639.34	14.471
639.53	12.710
639.72	14.141
639.91	13.664
640.10	13.235
640.29	14.407
640.47	14.335
640.66	13.811
640.85	15.681
641.04	12.327
641.23	14.660
641.42	14.034
641.60	13.420
641.79	13.205
641.98	13.425
642.17	12.450
642.36	14.078
642.54	11.891
642.73	13.962
642.92	12.402
643.11	13.054
643.30	12.889
643.49	13.068
643.67	11.109
643.86	13.787
644.05	12.141
644.24	14.462
644.43	12.476
644.61	14.003
644.80	12.894
644.99	13.209
645.18	13.863
645.37	13.148
645.55	11.536
645.74	13.273
645.93	13.104
646.12	13.570
646.31	12.990
646.49	13.087
646.68	13.586
646.87	13.021
647.06	12.731
647.24	13.064
647.43	10.871
647.62	13.166
647.81	11.104
648.00	14.316
648.18	11.986
648.37	13.356
648.56	13.369
648.75	13.665
648.93	12.308
649.12	13.565
649.31	12.861
649.50	13.518
649.68	12.111
649.87	12.413
650.06	10.647
650.25	12.832
650.43	12.363
650.62	11.974
650.81	11.982
651.00	12.500
651.18	11.387
651.37	14.039
651.56	11.971
651.75	14.064
651.93	11.573
652.12	12.578
652.31	11.825
652.50	13.137
652.68	13.040
652.87	14.012
653.06	13.295
653.25	12.933
653.43	13.078
653.62	13.298
653.81	11.615
654.00	12.759
654.18	11.493
654.37	13.419
654.56	11.119
654.74	10.868
654.93	11.707
655.12	11.222
655.31	11.131
655.49	11.731
655.68	10.574
655.87	10.529
656.05	10.187
656.24	12.264
656.43	9.045
656.62	11.604
656.80	10.832
656.99	10.342
657.18	9.778
657.36	11.435
657.55	11.092
657.74	11.660
657.93	11.377
658.11	13.456
658.30	11.181
658.49	11.866
658.67	10.798
658.86	10.963
659.05	10.019
659.23	11.971
659.42	10.550
659.61	11.966
659.79	11.636
659.98	11.804
660.17	12.236
660.35	11.654
660.54	11.639
660.73	12.762
660.91	11.367
661.10	11.200
661.29	10.521
661.47	10.269
661.66	10.805
661.85	10.697
662.03	10.159
662.22	9.295
662.41	9.219
662.59	10.215
662.78	9.492
662.97	9.792
663.15	7.620
663.34	7.659
663.53	7.667
663.71	8.950
663.90	7.486
664.09	9.032
664.27	8.858
664.46	8.318
664.65	7.094
664.83	8.373
665.02	6.687
665.21	6.389
665.39	6.018
665.58	8.136
665.77	8.120
665.95	7.022
666.14	5.843
666.32	8.252
666.51	5.107
666.70	7.662
666.88	6.033
667.07	6.754
667.26	6.177
667.44	7.988
667.63	6.044
667.81	7.015
668.00	6.629
668.19	8.188
668.37	5.448
668.56	8.364
668.75	5.067
668.93	8.470
669.12	6.453
669.30	7.343
669.49	5.831
669.68	7.893
669.86	7.547
670.05	6.911
670.23	6.677
670.42	6.126
670.61	6.939
670.79	7.534
670.98	6.803
671.16	7.275
671.35	5.296
671.54	7.295
671.72	5.185
671.91	7.881
672.09	5.924
672.28	8.296
672.46	8.912
672.65	7.369
672.84	6.196
673.02	8.155
673.21	6.147
673.39	6.187
673.58	6.828
673.77	7.650
673.95	7.099
674.14	7.167
674.32	5.999
674.51	9.388
674.69	6.577
674.88	7.097
675.07	6.997
675.25	9.452
675.44	6.534
675.62	7.271
675.81	6.210
675.99	11.101
676.18	9.034
676.36	7.633
676.55	6.198
676.74	8.775
676.92	7.726
677.11	8.791
677.29	6.383
677.48	9.156
677.66	8.415
677.85	7.061
678.03	8.236
678.22	9.106
678.40	9.506
678.59	7.729
678.78	6.716
678.96	8.079
679.15	7.202
679.33	10.119
679.52	9.973
679.70	8.730
679.89	8.155
680.07	10.519
680.26	9.034
680.44	9.577
680.63	10.308
680.81	10.278
681.00	7.866
681.18	10.122
681.37	9.439
681.55	11.689
681.74	10.467
681.92	10.922
682.11	9.577
682.29	9.722
682.48	9.851
682.66	10.622
682.85	9.229
683.03	10.694
683.22	10.436
683.40	11.804
683.59	10.135
683.77	10.457
683.96	9.618
684.14	11.298
684.33	9.307
684.51	11.848
684.70	10.635
684.88	12.425
685.07	11.702
685.25	12.191
685.44	10.652
685.62	11.476
685.81	10.343
685.99	13.008
686.18	9.977
686.36	12.322
686.55	10.263
686.73	11.209
686.92	11.661
687.10	13.135
687.29	11.240
687.47	13.767
687.65	13.752
687.84	12.610
688.02	14.974
688.21	14.775
688.39	12.460
688.58	14.895
688.76	13.919
688.95	13.803
689.13	11.446
689.32	16.588
689.50	14.270
689.68	15.207
689.87	13.390
690.05	16.753
690.24	14.736
690.42	15.327
690.61	16.044
690.79	17.152
690.98	14.721
691.16	16.247
691.34	13.215
691.53	16.640
691.71	14.576
691.90	16.240
692.08	13.301
692.27	18.297
692.45	17.600
692.63	16.997
692.82	17.884
693.00	17.894
693.19	15.741
693.37	19.738
693.56	16.139
693.74	18.270
693.92	16.548
694.11	20.131
694.29	19.172
694.48	19.077
694.66	17.685
694.84	19.556
695.03	19.121
695.21	22.262
695.40	20.371
695.58	22.885
695.76	18.335
695.95	23.061
696.13	19.552
696.32	22.890
696.50	24.469
696.68	22.369
696.87	21.373
697.05	23.474
697.24	21.937
697.42	24.406
697.60	22.707
697.79	25.112
697.97	23.988
698.16	26.874
698.34	24.095
698.52	27.171
698.71	25.735
698.89	29.159
699.07	26.131
699.26	28.414
699.44	27.202
699.63	29.630
699.81	27.190
699.99	29.205
700.18	28.221
700.36	29.265
700.54	28.291
700.73	28.643
700.91	27.844
701.09	29.046
701.28	29.069
701.46	30.224
701.64	28.220
701.83	30.090
702.01	27.559
702.20	32.157
702.38	29.106
702.56	29.586
702.75	28.020
702.93	29.245
703.11	27.826
703.30	30.910
703.48	29.048
703.66	30.900
703.85	27.628
704.03	31.579
704.21	27.706
704.40	31.404
704.58	29.498
704.76	31.293
704.95	30.278
705.13	30.871
705.31	28.351
705.50	29.645
705.68	28.768
705.86	31.583
706.04	28.985
706.23	30.811
706.41	29.443
706.59	30.370
706.78	28.254
706.96	31.303
707.14	29.981
707.33	31.922
707.51	29.554
707.69	33.645
707.88	29.142
708.06	34.033
708.24	31.895
708.42	33.665
708.61	30.787
708.79	32.553
708.97	33.068
709.16	34.343
709.34	32.360
709.52	33.166
709.71	32.243
709.89	35.511
710.07	29.389
710.25	35.405
710.44	32.664
710.62	34.111
710.80	34.666
710.98	34.341
711.17	33.885
711.35	35.887
711.53	32.741
711.72	35.454
711.90	34.900
712.08	35.634
712.26	32.563
712.45	34.175
712.63	33.998
712.81	35.488
712.99	34.580
713.18	35.981
713.36	34.694
713.54	35.195
713.72	32.504
713.91	35.867
714.09	32.681
714.27	36.030
714.45	32.971
714.64	36.878
714.82	33.853
715.00	37.140
715.18	35.646
715.37	35.807
715.55	34.192
715.73	35.802
715.91	34.572
716.10	35.842
716.28	33.093
716.46	36.762
716.64	33.971
716.83	37.394
717.01	35.640
717.19	35.925
717.37	33.349
717.55	36.726
717.74	33.955
717.92	35.935
718.10	32.153
718.28	35.759
718.47	32.628
718.65	35.321
718.83	33.315
719.01	35.373
719.19	33.023
719.38	35.506
719.56	34.169
719.74	34.296
719.92	28.566
720.10	34.442
720.29	31.352
720.47	34.678
720.65	32.501
720.83	35.074
721.01	29.834
721.20	34.653
721.38	31.078
721.56	33.626
721.74	33.889
721.92	33.085
722.11	32.293
722.29	34.308
722.47	30.480
722.65	34.061
722.83	32.977
723.01	32.621
723.20	33.408
723.38	33.080
723.56	29.544
723.74	36.788
723.92	31.192
724.10	34.347
724.29	31.584
724.47	34.558
724.65	32.227
724.83	35.952
725.01	31.018
725.19	35.470
725.38	32.116
725.56	32.062
725.74	34.100
725.92	35.965
726.10	31.723
726.28	34.684
726.46	33.927
726.65	38.392
726.83	31.892
727.01	33.165
727.19	34.314
727.37	33.458
727.55	34.361
727.73	37.351
727.92	34.355
728.10	35.738
728.28	30.455
728.46	37.495
728.64	33.312
728.82	36.464
729.00	34.179
729.19	38.019
729.37	35.191
729.55	36.501
729.73	33.776
729.91	36.396
730.09	35.878
730.27	36.828
730.45	33.849
730.63	36.969
730.82	34.049
731.00	36.128
731.18	36.658
731.36	37.816
731.54	33.787
731.72	36.899
731.90	34.128
732.08	36.039
732.26	33.300
732.45	37.735
732.63	34.565
732.81	38.080
732.99	33.749
733.17	35.752
733.35	34.269
733.53	38.699
733.71	35.093
733.89	36.518
734.07	36.196
734.25	38.574
734.44	35.656
734.62	35.141
734.80	34.390
734.98	38.030
735.16	33.660
735.34	37.642
735.52	35.997
735.70	38.044
735.88	36.820
736.06	36.025
736.24	36.526
736.42	35.165
736.60	36.229
736.78	36.000
736.97	34.037
737.15	36.744
737.33	31.926
737.51	34.262
737.69	34.598
737.87	38.801
738.05	34.278
738.23	37.703
738.41	33.469
738.59	39.990
738.77	35.417
738.95	39.878
739.13	36.303
739.31	38.574
739.49	36.390
739.67	39.019
739.85	33.406
740.03	36.364
740.21	37.076
740.39	37.569
740.57	34.966
740.75	34.888
740.93	37.263
741.11	36.323
741.30	34.772
741.48	37.141
741.66	36.462
741.84	36.580
742.02	33.041
742.20	36.165
742.38	36.143
742.56	39.240
742.74	31.427
742.92	36.334
743.10	32.273
743.28	36.725
743.46	36.969
743.64	35.537
743.82	32.599
744.00	35.181
744.18	34.200
744.36	36.061
744.54	31.214
744.72	38.727
744.90	34.214
745.08	36.921
745.26	34.176
745.44	36.549
745.62	31.896
745.80	35.739
745.98	32.455
746.16	36.816
746.34	32.373
746.52	31.452
746.70	29.551
746.87	33.717
747.05	34.502
747.23	33.236
747.41	32.793
747.59	32.919
747.77	32.128
747.95	33.669
748.13	32.069
748.31	36.973
748.49	33.863
748.67	32.199
748.85	30.523
749.03	34.690
749.21	31.687
749.39	35.502
749.57	30.860
749.75	34.327
749.93	35.319
750.11	35.387
750.29	31.486
750.47	32.412
750.65	31.267
750.83	34.374
751.01	34.630
751.18	34.813
751.36	31.226
751.54	35.481
751.72	35.294
751.90	33.832
752.08	30.044
752.26	35.631
752.44	31.610
752.62	37.446
752.80	32.982
752.98	34.608
753.16	31.244
753.34	36.922
753.52	33.012
753.69	35.330
753.87	34.986
754.05	36.279
754.23	30.658
754.41	35.347
754.59	31.993
754.77	35.452
754.95	31.633
755.13	34.775
755.31	30.878
755.49	32.855
755.66	34.406
755.84	33.456
756.02	30.475
756.20	36.865
756.38	33.624
756.56	33.918
756.74	29.859
756.92	33.996
757.10	29.296
757.28	38.070
757.45	37.838
757.63	37.083
757.81	25.338
757.99	36.847
758.17	31.496
758.35	34.389
758.53	37.748
758.71	35.857
758.88	32.889
759.06	35.121
759.24	29.627
759.42	34.261
759.60	32.856
759.78	35.114
759.96	29.649
760.13	32.742
760.31	25.129
760.49	33.632
760.67	28.449
760.85	32.309
761.03	26.866
761.21	25.328
761.38	26.284
761.56	31.131
761.74	25.403
761.92	33.216
762.10	22.151
762.28	35.540
762.46	22.691
762.63	26.603
762.81	27.476
762.99	30.509
763.17	31.632
763.35	32.107
763.53	30.065
763.70	35.694
763.88	35.547
764.06	34.963
764.24	34.495
764.42	35.612
764.60	36.569
764.77	33.743
764.95	36.030
765.13	35.789
765.31	35.361
765.49	38.427
765.66	33.778
765.84	37.055
766.02	33.095
766.20	35.667
766.38	32.414
766.56	35.535
766.73	31.995
766.91	32.245
767.09	33.391
767.27	34.882
767.45	30.358
767.62	33.158
767.80	30.377
767.98	32.422
768.16	27.169
768.33	34.662
768.51	29.575
768.69	32.476
768.87	27.921
769.05	31.390
769.22	28.195
769.40	33.561
769.58	28.550
769.76	33.141
769.94	28.540
770.11	29.782
770.29	30.538
770.47	31.809
770.65	28.905
770.82	29.867
771.00	32.093
771.18	36.479
771.36	25.507
771.53	30.861
771.71	27.343
771.89	31.303
772.07	32.854
772.25	31.646
772.42	23.579
772.60	30.490
772.78	25.534
772.96	31.972
773.13	30.519
773.31	31.100
773.49	25.619
773.67	30.296
773.84	27.326
774.02	28.320
774.20	27.452
774.37	27.733
774.55	23.839
774.73	26.309
774.91	27.052
775.08	30.063
775.26	29.187
775.44	30.508
775.62	24.225
775.79	25.958
775.97	27.697
776.15	28.657
776.32	20.568
776.50	29.613
776.68	26.784
776.86	28.060
777.03	19.119
777.21	27.137
777.39	20.939
777.56	29.454
777.74	22.559
777.92	25.472
778.10	23.190
778.27	28.377
778.45	28.463
778.63	27.000
778.80	27.738
778.98	29.912
779.16	29.530
779.34	27.606
779.51	27.620
779.69	28.048
779.87	23.854
780.04	24.855
780.22	24.345
780.40	30.484
780.57	31.546
780.75	24.269
780.93	25.528
781.10	23.910
781.28	32.380
781.46	26.654
781.63	27.951
781.81	28.889
781.99	20.833
782.16	27.778
782.34	28.370
782.52	24.853
782.69	28.189
782.87	26.515
783.05	19.774
783.22	23.855
783.40	21.642
783.58	28.391
783.75	21.701
783.93	23.111
784.11	18.987
784.28	31.106
784.46	18.308
784.64	26.542
784.81	20.540
784.99	29.566
785.17	20.751
785.34	25.410
785.52	21.652
785.69	23.486
785.87	21.053
786.05	23.698
786.22	21.124
786.40	26.951
786.58	23.356
786.75	26.991
786.93	23.446
787.11	24.735
787.28	22.448
787.46	25.274
787.63	22.173
787.81	24.629
787.99	21.584
788.16	18.625
788.34	16.330
788.51	27.751
788.69	23.902
788.87	26.478
789.04	18.824
789.22	27.185
789.39	25.178
789.57	23.319
789.75	23.364
789.92	29.635
790.10	20.038
790.27	24.032
790.45	18.390
790.63	25.035
790.80	22.288
790.98	24.100
791.15	20.940
791.33	25.202
791.51	18.344
791.68	22.480
791.86	19.126
792.03	22.691
792.21	21.318
792.39	22.717
792.56	19.670
792.74	23.235
792.91	23.970
793.09	23.046
793.26	13.490
793.44	23.620
793.62	20.643
793.79	21.977
793.97	21.612
794.14	23.924
794.32	19.863
794.49	22.862
794.67	17.876
794.84	25.374
795.02	15.869
795.20	26.215
795.37	18.193
795.55	20.671
795.72	18.421
795.90	25.354
796.07	20.678
796.25	28.118
796.42	19.508
796.60	14.334
796.77	24.287
796.95	24.218
797.13	20.497
797.30	27.586
797.48	22.188
797.65	28.393
797.83	16.387
798.00	25.195
798.18	16.712
798.35	21.228
798.53	18.649
798.70	22.862
798.88	19.967
799.05	18.166
799.23	22.462
799.40	25.316
799.58	20.504
799.75	18.218
799.93	16.499
800.10	25.184
800.28	22.078
800.45	23.744
800.63	17.749
800.80	24.733
800.98	23.045
801.15	21.458
801.33	24.551
801.50	21.797
801.68	17.428
801.85	17.102
802.03	20.559
802.20	21.622
802.38	18.234
802.55	22.398
802.73	12.376
802.90	22.417
803.08	14.506
803.25	20.935
803.43	16.332
803.60	24.630
803.78	25.000
803.95	24.242
804.13	22.438
804.30	23.182
804.48	17.555
804.65	23.753
804.83	19.209
805.00	22.321
805.17	16.942
805.35	19.920
805.52	16.425
805.70	23.570
805.87	27.346
806.05	18.137
806.22	16.295
806.40	19.253
806.57	25.646
806.75	27.146
806.92	21.380
807.09	18.794
807.27	18.868
807.44	24.970
807.62	19.806
807.79	23.824
807.97	12.910
808.14	20.555
808.31	19.575
808.49	18.269
808.66	17.611
808.84	17.207
809.01	22.912
809.19	18.789
809.36	21.807
809.53	18.824
809.71	17.186
809.88	30.007
810.06	23.834
810.23	16.725
810.41	24.085
810.58	20.014
810.75	13.907
810.93	19.448
811.10	20.206
811.28	21.370
811.45	20.032
811.62	19.422
811.80	14.308
811.97	18.660
812.15	27.985
812.32	15.686
812.49	19.985
812.67	16.756
812.84	13.148
813.02	15.431
813.19	17.388
813.36	19.969
813.54	14.935
813.71	15.905
813.89	14.823
814.06	21.739
814.23	16.806
814.41	17.164
814.58	19.788
814.75	19.218
814.93	20.648
815.10	17.960
815.28	14.532
815.45	7.299
815.62	15.678
815.80	15.630
815.97	20.163
816.14	17.367
816.32	21.479
816.49	16.899
816.66	18.953
816.84	17.900
817.01	12.072
817.18	18.666
817.36	17.705
817.53	11.520
817.71	10.731
817.88	18.770
818.05	14.416
818.23	15.516
818.40	11.172
818.57	19.745
818.75	14.627
818.92	14.936
819.09	11.187
819.27	16.464
819.44	18.015
819.61	11.852
819.79	19.986
819.96	19.771
820.13	16.209
820.31	19.807
820.48	23.123
820.65	17.494
820.82	19.208
821.00	24.333
821.17	16.514
821.34	22.961
821.52	23.041
821.69	24.669
821.86	21.329
822.04	26.207
822.21	30.030
822.38	36.055
822.56	30.578
822.73	36.528
822.90	34.690
823.07	38.566
823.25	37.196
823.42	38.693
823.59	37.228
823.77	38.884
823.94	37.562
824.11	37.828
824.29	37.094
824.46	38.304
824.63	37.640
824.80	35.455
824.98	35.278
825.15	37.064
825.32	31.743
825.49	34.344
825.67	28.955
825.84	33.518
826.01	27.850
826.19	33.237
826.36	24.070
826.53	30.212
826.70	24.824
826.88	32.700
827.05	24.608
827.22	24.931
827.39	28.668
827.57	29.239
827.74	27.083
827.91	30.844
828.08	29.525
828.26	30.576
828.43	29.114
828.60	35.093
828.77	29.126
828.95	29.606
829.12	25.806
829.29	25.040
829.46	24.698
829.64	27.841
829.81	20.580
829.98	25.463
830.15	22.162
830.32	24.062
830.50	18.129
830.67	19.014
830.84	19.315
831.01	16.131
831.19	12.822
831.36	14.330
831.53	19.668
831.70	21.248
831.87	17.862
832.05	13.996
832.22	21.789
832.39	22.632
832.56	14.495
832.74	16.702
832.91	11.018
833.08	23.619
833.25	9.637
833.42	10.220
833.60	16.910
833.77	13.945
833.94	15.797
834.11	20.534
834.28	16.178
834.45	23.177
834.63	19.717
834.80	23.797
834.97	23.507
835.14	27.766
835.31	24.625
835.49	25.139
835.66	20.892
835.83	20.107
836.00	22.950
836.17	24.184
836.34	21.453
836.52	18.109
836.69	26.400
836.86	21.946
837.03	20.226
837.20	20.637
837.37	17.432
837.55	13.698
837.72	13.090
837.89	16.027
838.06	18.546
838.23	11.120
838.40	16.430
838.58	11.394
838.75	18.209
838.92	10.937
839.09	22.059
839.26	20.814
839.43	26.249
839.60	16.578
839.78	25.026
839.95	13.450
840.12	17.083
840.29	27.050
840.46	19.932
840.63	15.045
840.80	19.331
840.98	16.979
841.15	13.168
841.32	15.280
841.49	13.599
841.66	18.037
841.83	7.054
842.00	22.840
842.17	27.264
842.34	11.914
842.52	15.046
842.69	14.507
842.86	19.626
843.03	27.318
843.20	14.214
843.37	20.401
843.54	13.395
843.71	17.678
843.88	20.306
844.06	16.250
844.23	20.187
844.40	-3.765
844.57	26.087
844.74	21.186
844.91	18.098
845.08	20.396
845.25	15.630
845.42	17.786
845.59	11.969
845.76	13.076
845.94	17.553
846.11	29.866
846.28	14.815
846.45	21.415
846.62	12.854
846.79	31.006
846.96	16.570
847.13	5.693
847.30	14.947
847.47	13.849
847.64	16.110
847.81	10.680
847.98	4.979
848.15	20.421
848.32	28.137
848.50	25.889
848.67	11.700
848.84	13.765
849.01	19.106
849.18	11.656
849.35	27.866
849.52	34.653
849.69	13.225
849.86	26.697
850.03	21.780
850.20	25.328
850.37	8.065
850.54	13.204
850.71	16.186
850.88	18.257
851.05	12.708
851.22	20.583
851.39	19.545
851.56	30.803
851.73	19.529
851.90	19.954
852.07	19.185
852.24	17.025
852.41	7.495
852.58	4.286
852.75	-7.209
852.92	18.310
853.09	12.921
853.26	21.474
853.43	22.444
853.60	8.940
853.77	32.401
853.94	20.534
854.11	19.722
854.28	19.268
854.45	17.333
854.62	15.584
854.79	13.274
854.96	16.837
855.13	18.329
855.30	13.000
855.47	29.082
855.64	30.512
855.81	12.679
855.98	30.081
856.15	27.846
856.32	15.449
856.49	10.875
856.66	9.859
856.83	40.733
857.00	25.941
857.17	43.451
857.34	14.254
857.51	23.077
857.68	21.957
857.85	13.220
858.02	8.802
858.19	19.960
858.36	15.802
858.53	34.690
858.70	13.596
858.87	25.000
859.04	11.086
859.21	32.543
859.38	27.292
859.55	35.523
859.72	13.295
859.89	21.574
860.05	1.716
860.22	9.474
860.39	24.036
860.56	10.101
860.73	19.809
860.90	12.785
861.07	27.626
861.24	16.934
861.41	15.344
861.58	27.059
861.75	4.296
861.92	15.974
862.09	15.696
862.26	13.475
862.43	12.397
862.59	29.398
862.76	22.293
862.93	22.162
863.10	14.797
863.27	7.965
863.44	19.118
863.61	30.682
863.78	11.343
863.95	15.439
864.12	35.202
864.29	6.383
864.45	16.625
864.62	13.351
864.79	24.752
864.96	4.963
865.13	24.169
865.30	21.190
865.47	20.613
865.64	43.632
865.81	26.446
865.97	26.379
866.14	25.390
866.31	13.850
866.48	23.377
866.65	17.448
866.82	25.659
866.99	21.372
867.16	8.639
867.33	20.000
867.49	9.780
867.66	24.819
867.83	20.044
868.00	12.589
868.17	16.379
868.34	24.107
868.51	20.048
868.67	31.754
868.84	20.230
869.01	39.401
869.18	17.561
869.35	26.049
869.52	13.000
869.69	17.073
869.85	22.716
870.02	7.039
870.19	18.182
870.36	16.667
870.53	14.685
870.70	28.936
870.86	22.021
871.03	18.561
871.20	22.030
871.37	30.239
871.54	9.239
871.71	26.699
871.87	33.152
872.04	17.822
872.21	16.777
872.38	4.401
872.55	22.025
872.72	16.892
872.88	21.690
873.05	13.425
873.22	36.308
873.39	25.532
873.56	7.289
873.72	18.269
873.89	-0.872
874.06	5.412
874.23	10.995
874.40	33.911
874.56	30.353
874.73	32.039
874.90	1.604
875.07	9.825
875.24	26.730
875.40	10.112
875.57	21.818
875.74	27.561
875.91	30.894
876.08	14.978
876.24	23.554
876.41	16.244
876.58	23.389
876.75	18.457
876.92	14.063
877.08	20.703
877.25	8.763
877.42	15.447
877.59	7.034
877.75	30.754
877.92	19.772
878.09	27.842
878.26	31.124
878.42	8.245
878.59	21.903
878.76	18.972
878.93	28.507
879.09	20.087
879.26	22.464
879.43	13.708
879.60	3.781
879.76	22.064
879.93	-13.614
880.10	-1.163
880.27	11.378
880.43	13.183
880.60	22.414
880.77	10.462
880.94	11.610
881.10	2.372
881.27	23.810
881.44	8.048
881.61	19.040
881.77	16.190
881.94	13.342
882.11	12.796
882.28	11.111
882.44	14.272
882.61	18.388
882.78	19.983
882.94	27.115
883.11	24.359
883.28	24.339
883.45	24.432
883.61	21.620
883.78	20.899
883.95	23.365
884.11	19.761
884.28	18.294
>>>>>End Processed Spectral Data<<<<<
