SpectraSuite Data File
++++++++++++++++++++++++++++++++++++
Date: Mon Sep 23 03:06:27 EST 2019
User: sgrac
Dark Spectrum Present: Yes
Reference Spectrum Present: Yes
Number of Sampled Component Spectra: 1
Spectrometers: USB4E01596
Integration Time (usec): 100000 (USB4E01596)
Spectra Averaged: 3 (USB4E01596)
Boxcar Smoothing: 0 (USB4E01596)
Correct for Electrical Dark: No (USB4E01596)
Strobe/Lamp Enabled: Yes (USB4E01596)
Correct for Detector Non-linearity: No (USB4E01596)
Correct for Stray Light: No (USB4E01596)
Number of Pixels in Processed Spectrum: 3648
>>>>>Begin Processed Spectral Data<<<<<
178.44	553.846
178.66	553.846
178.87	553.846
179.09	4000.000
179.30	-2600.000
179.52	-164.516
179.74	-198.113
179.95	290.909
180.17	-130.556
180.38	259.649
180.60	-754.545
180.82	311.111
181.03	1950.000
181.25	-833.333
181.46	-840.000
181.68	862.500
181.89	-272.727
182.11	-962.500
182.33	-756.250
182.54	279.167
182.76	2450.000
182.97	-285.106
183.19	510.000
183.40	155.372
183.62	198.718
183.84	174.545
184.05	2371.429
184.27	162.121
184.48	246.970
184.70	835.294
184.91	776.190
185.13	1250.000
185.34	-4450.000
185.56	453.846
185.78	211.111
185.99	427.778
186.21	145.455
186.42	-2425.000
186.64	570.000
186.85	-1980.000
187.07	190.000
187.28	267.105
187.50	267.273
187.72	88.462
187.93	301.818
188.15	157.292
188.36	234.211
188.58	306.122
188.79	138.462
189.01	246.479
189.22	394.595
189.44	-427.273
189.65	188.983
189.87	-1900.000
190.09	247.619
190.30	307.143
190.52	265.000
190.73	304.348
190.95	-700.000
191.16	166.667
191.38	197.297
191.59	160.294
191.81	262.903
192.02	380.000
192.24	278.125
192.45	597.059
192.67	-681.250
192.88	137.736
193.10	270.492
193.31	287.500
193.53	135.484
193.74	196.000
193.96	764.286
194.18	134.615
194.39	653.333
194.61	206.849
194.82	640.909
195.04	91.463
195.25	-87.719
195.47	-168.519
195.68	1733.333
195.90	290.909
196.11	195.522
196.33	2900.000
196.54	380.488
196.76	814.286
196.97	181.818
197.19	256.757
197.40	1078.571
197.62	160.550
197.83	270.968
198.05	323.636
198.26	420.690
198.48	140.845
198.69	218.333
198.91	716.667
199.12	262.791
199.34	308.696
199.55	205.714
199.77	868.421
199.98	252.941
200.20	226.316
200.41	191.935
200.63	120.354
200.84	1035.714
201.06	1400.000
201.27	370.732
201.49	242.254
201.70	-276.667
201.91	158.333
202.13	193.220
202.34	205.172
202.56	-288.000
202.77	326.667
202.99	1500.000
203.20	-1200.000
203.42	662.500
203.63	86.842
203.85	2466.667
204.06	310.000
204.28	135.354
204.49	181.481
204.71	262.712
204.92	346.154
205.14	0.000
205.35	343.333
205.56	-420.000
205.78	3120.000
205.99	-1014.286
206.21	850.000
206.42	136.364
206.64	641.935
206.85	318.519
207.07	-466.667
207.28	253.448
207.50	236.957
207.71	193.548
207.93	213.253
208.14	-488.889
208.35	236.364
208.57	216.000
208.78	-1133.333
209.00	169.149
209.21	-5800.000
209.43	-3433.333
209.64	-833.333
209.86	132.990
210.07	197.674
210.28	219.718
210.50	420.690
210.71	150.980
210.93	103.676
211.14	174.157
211.36	618.750
211.57	237.879
211.78	201.429
212.00	189.412
212.21	210.000
212.43	482.051
212.64	179.787
212.86	110.811
213.07	180.734
213.29	-241.667
213.50	106.522
213.71	59.770
213.93	145.122
214.14	527.273
214.36	247.059
214.57	188.608
214.78	337.778
215.00	178.125
215.21	513.333
215.43	381.081
215.64	241.270
215.86	98.750
216.07	174.286
216.28	260.526
216.50	147.500
216.71	11400.000
216.93	216.667
217.14	588.889
217.35	142.424
217.57	177.477
217.78	128.395
218.00	93.939
218.21	308.696
218.42	227.660
218.64	82.143
218.85	242.000
219.07	230.000
219.28	100.935
219.49	213.725
219.71	183.077
219.92	143.284
220.14	177.320
220.35	150.667
220.56	143.678
220.78	153.846
220.99	91.935
221.21	147.312
221.42	138.272
221.63	77.457
221.85	221.538
222.06	232.857
222.28	190.769
222.49	106.306
222.70	117.323
222.92	240.816
223.13	68.852
223.34	87.943
223.56	103.571
223.77	96.250
223.99	104.211
224.20	191.071
224.41	98.630
224.63	113.636
224.84	97.973
225.05	62.393
225.27	154.783
225.48	124.510
225.69	90.226
225.91	202.703
226.12	49.612
226.34	104.027
226.55	39.568
226.76	90.000
226.98	83.137
227.19	60.156
227.40	137.500
227.62	74.074
227.83	51.073
228.04	53.352
228.26	44.216
228.47	42.776
228.69	26.396
228.90	19.616
229.11	30.153
229.33	20.533
229.54	12.741
229.75	15.461
229.97	2.961
230.18	16.742
230.39	12.611
230.61	18.465
230.82	12.216
231.03	22.792
231.25	11.902
231.46	26.244
231.67	23.591
231.89	18.524
232.10	19.024
232.31	25.194
232.53	18.166
232.74	27.103
232.95	9.256
233.17	18.400
233.38	21.639
233.59	24.119
233.81	29.710
234.02	18.236
234.23	21.986
234.45	27.604
234.66	25.000
234.87	22.951
235.09	21.383
235.30	13.660
235.51	26.157
235.73	25.974
235.94	26.125
236.15	20.205
236.36	11.963
236.58	15.133
236.79	19.174
237.00	19.795
237.22	21.939
237.43	18.316
237.64	18.425
237.86	11.090
238.07	22.337
238.28	20.645
238.50	24.324
238.71	19.424
238.92	22.656
239.13	19.831
239.35	23.795
239.56	23.498
239.77	30.455
239.99	15.656
240.20	15.928
240.41	26.829
240.63	17.251
240.84	13.308
241.05	9.190
241.26	19.469
241.48	14.634
241.69	9.920
241.90	5.091
242.12	9.979
242.33	11.275
242.54	5.175
242.75	10.135
242.97	6.096
243.18	3.888
243.39	8.035
243.61	10.834
243.82	5.509
244.03	7.358
244.24	5.987
244.46	8.636
244.67	8.104
244.88	5.514
245.09	11.614
245.31	13.963
245.52	12.779
245.73	7.074
245.95	9.227
246.16	7.910
246.37	5.741
246.58	12.042
246.80	6.447
247.01	5.740
247.22	8.046
247.43	7.062
247.65	4.786
247.86	6.252
248.07	3.222
248.28	5.212
248.50	4.312
248.71	3.209
248.92	5.077
249.13	3.975
249.35	3.309
249.56	4.624
249.77	6.014
249.98	4.918
250.20	7.184
250.41	6.416
250.62	7.669
250.83	10.094
251.05	10.066
251.26	7.843
251.47	5.933
251.68	9.712
251.90	7.658
252.11	5.839
252.32	9.394
252.53	6.913
252.75	7.649
252.96	9.460
253.17	4.403
253.38	8.103
253.59	9.555
253.81	3.280
254.02	5.383
254.23	7.205
254.44	1.560
254.66	6.885
254.87	6.188
255.08	11.610
255.29	5.905
255.50	3.240
255.72	8.143
255.93	8.221
256.14	10.786
256.35	10.709
256.57	10.446
256.78	8.569
256.99	9.535
257.20	11.891
257.41	11.265
257.63	9.182
257.84	6.797
258.05	10.052
258.26	7.255
258.47	6.514
258.69	9.588
258.90	8.731
259.11	4.578
259.32	7.950
259.53	5.797
259.75	7.372
259.96	5.296
260.17	4.213
260.38	2.239
260.59	4.648
260.81	3.136
261.02	2.052
261.23	3.702
261.44	3.239
261.65	2.394
261.87	1.707
262.08	2.641
262.29	4.024
262.50	4.138
262.71	2.566
262.92	4.563
263.14	4.903
263.35	5.081
263.56	5.482
263.77	4.482
263.98	3.653
264.20	5.123
264.41	6.088
264.62	4.860
264.83	6.495
265.04	7.214
265.25	10.482
265.47	7.465
265.68	8.804
265.89	6.813
266.10	2.211
266.31	7.971
266.52	3.103
266.74	4.039
266.95	6.860
267.16	7.530
267.37	2.225
267.58	5.846
267.79	6.787
268.01	6.043
268.22	2.982
268.43	4.864
268.64	5.717
268.85	5.538
269.06	4.466
269.27	6.064
269.49	3.464
269.70	4.888
269.91	7.159
270.12	5.159
270.33	5.079
270.54	3.935
270.75	4.084
270.97	6.468
271.18	2.952
271.39	2.245
271.60	3.130
271.81	3.801
272.02	2.872
272.23	6.076
272.45	4.663
272.66	4.318
272.87	2.684
273.08	4.002
273.29	4.155
273.50	2.376
273.71	1.984
273.92	2.482
274.14	4.352
274.35	3.363
274.56	3.613
274.77	2.166
274.98	4.335
275.19	4.509
275.40	4.620
275.61	4.061
275.83	6.012
276.04	3.725
276.25	4.660
276.46	2.926
276.67	2.419
276.88	5.206
277.09	3.395
277.30	2.139
277.51	5.743
277.73	1.069
277.94	5.434
278.15	7.206
278.36	5.102
278.57	4.780
278.78	4.273
278.99	3.668
279.20	6.294
279.41	6.279
279.62	3.745
279.84	3.268
280.05	4.219
280.26	5.539
280.47	4.117
280.68	4.170
280.89	2.634
281.10	2.351
281.31	5.150
281.52	6.732
281.73	3.575
281.94	1.757
282.16	3.656
282.37	3.248
282.58	3.718
282.79	4.938
283.00	3.960
283.21	4.193
283.42	3.897
283.63	5.162
283.84	3.290
284.05	3.401
284.26	4.409
284.47	4.440
284.68	4.171
284.89	3.776
285.11	4.068
285.32	2.879
285.53	4.149
285.74	6.028
285.95	2.314
286.16	2.489
286.37	1.932
286.58	2.141
286.79	2.032
287.00	2.803
287.21	3.363
287.42	1.897
287.63	3.118
287.84	3.459
288.05	3.350
288.26	1.894
288.48	2.242
288.69	1.447
288.90	3.154
289.11	3.875
289.32	5.041
289.53	4.355
289.74	2.564
289.95	4.297
290.16	4.149
290.37	3.144
290.58	3.130
290.79	2.203
291.00	1.619
291.21	2.010
291.42	2.792
291.63	3.692
291.84	3.519
292.05	1.851
292.26	1.405
292.47	2.661
292.68	1.466
292.89	3.539
293.10	4.087
293.31	1.796
293.52	2.955
293.73	3.918
293.94	2.641
294.15	3.417
294.36	4.900
294.57	2.706
294.79	3.505
295.00	1.644
295.21	3.820
295.42	2.990
295.63	4.450
295.84	2.867
296.05	1.620
296.26	2.189
296.47	1.138
296.68	4.429
296.89	4.788
297.10	2.415
297.31	3.946
297.52	1.654
297.73	4.373
297.94	2.437
298.15	1.082
298.36	3.532
298.57	1.992
298.78	1.851
298.99	3.157
299.20	3.290
299.41	2.595
299.62	2.446
299.83	1.804
300.04	2.863
300.25	3.794
300.46	3.997
300.67	4.318
300.88	2.703
301.09	3.275
301.30	2.400
301.50	4.066
301.71	3.539
301.92	3.945
302.13	4.331
302.34	2.040
302.55	1.188
302.76	1.808
302.97	3.059
303.18	3.646
303.39	2.977
303.60	4.428
303.81	3.060
304.02	1.813
304.23	4.625
304.44	2.380
304.65	1.001
304.86	4.039
305.07	1.893
305.28	1.778
305.49	3.597
305.70	4.046
305.91	3.874
306.12	3.959
306.33	2.631
306.54	2.660
306.75	2.347
306.96	4.817
307.17	2.753
307.38	2.746
307.58	3.202
307.79	3.095
308.00	1.590
308.21	4.060
308.42	2.815
308.63	1.916
308.84	2.940
309.05	2.886
309.26	2.058
309.47	2.216
309.68	2.240
309.89	3.409
310.10	2.644
310.31	2.986
310.52	1.855
310.73	3.384
310.94	0.978
311.14	2.145
311.35	2.382
311.56	3.296
311.77	2.404
311.98	2.129
312.19	2.038
312.40	1.908
312.61	1.180
312.82	2.275
313.03	1.133
313.24	2.964
313.45	3.000
313.66	3.019
313.86	4.075
314.07	2.180
314.28	3.848
314.49	2.584
314.70	4.992
314.91	3.357
315.12	2.044
315.33	4.221
315.54	3.519
315.75	2.051
315.96	1.687
316.16	2.770
316.37	2.689
316.58	3.012
316.79	3.520
317.00	1.352
317.21	3.079
317.42	2.498
317.63	1.445
317.84	2.062
318.05	2.689
318.25	4.366
318.46	2.378
318.67	1.553
318.88	2.375
319.09	4.568
319.30	3.082
319.51	3.370
319.72	4.362
319.93	2.493
320.13	3.791
320.34	4.394
320.55	4.096
320.76	2.135
320.97	2.745
321.18	3.181
321.39	-0.206
321.60	3.945
321.80	3.892
322.01	2.408
322.22	2.094
322.43	2.174
322.64	3.417
322.85	3.598
323.06	3.385
323.27	2.101
323.47	3.497
323.68	3.006
323.89	2.915
324.10	3.518
324.31	3.336
324.52	3.369
324.73	3.992
324.93	3.834
325.14	4.082
325.35	3.776
325.56	1.217
325.77	2.498
325.98	3.544
326.19	1.961
326.39	2.085
326.60	2.086
326.81	1.752
327.02	2.778
327.23	3.321
327.44	3.243
327.64	2.682
327.85	1.717
328.06	3.651
328.27	3.689
328.48	3.875
328.69	2.219
328.90	2.688
329.10	2.809
329.31	2.192
329.52	2.629
329.73	3.704
329.94	2.984
330.15	4.494
330.35	5.332
330.56	2.617
330.77	3.548
330.98	1.379
331.19	4.404
331.39	3.002
331.60	3.015
331.81	2.869
332.02	1.962
332.23	2.737
332.44	3.670
332.64	1.964
332.85	2.038
333.06	3.439
333.27	3.660
333.48	3.571
333.68	0.706
333.89	3.047
334.10	3.357
334.31	3.968
334.52	2.068
334.72	2.669
334.93	2.513
335.14	2.982
335.35	2.818
335.56	3.336
335.76	2.263
335.97	3.009
336.18	2.596
336.39	2.805
336.60	1.994
336.80	3.304
337.01	1.244
337.22	1.724
337.43	3.083
337.64	3.717
337.84	2.439
338.05	1.661
338.26	4.540
338.47	4.617
338.68	2.187
338.88	3.249
339.09	2.648
339.30	2.960
339.51	2.520
339.71	3.380
339.92	2.649
340.13	3.177
340.34	2.791
340.55	2.279
340.75	4.356
340.96	2.875
341.17	3.839
341.38	3.051
341.58	4.183
341.79	2.649
342.00	2.279
342.21	3.540
342.41	2.542
342.62	2.574
342.83	3.882
343.04	2.174
343.24	2.126
343.45	3.329
343.66	1.601
343.87	2.764
344.07	2.438
344.28	2.749
344.49	2.706
344.70	2.371
344.90	2.745
345.11	1.627
345.32	2.794
345.53	4.245
345.73	2.984
345.94	2.719
346.15	2.328
346.36	2.595
346.56	3.507
346.77	3.381
346.98	2.423
347.19	4.146
347.39	3.072
347.60	2.312
347.81	3.038
348.02	3.774
348.22	2.793
348.43	3.520
348.64	3.059
348.84	3.771
349.05	4.377
349.26	3.994
349.47	2.811
349.67	3.934
349.88	4.143
350.09	4.022
350.30	5.310
350.50	3.659
350.71	4.341
350.92	3.883
351.12	4.200
351.33	3.616
351.54	4.205
351.74	5.282
351.95	3.875
352.16	6.028
352.37	3.934
352.57	4.842
352.78	5.712
352.99	4.894
353.19	5.557
353.40	5.065
353.61	6.199
353.82	5.831
354.02	6.304
354.23	5.962
354.44	7.794
354.64	5.584
354.85	5.460
355.06	5.783
355.26	5.241
355.47	6.144
355.68	5.690
355.88	7.036
356.09	7.155
356.30	6.894
356.51	7.185
356.71	6.970
356.92	4.620
357.13	7.673
357.33	7.338
357.54	7.146
357.75	4.362
357.95	7.632
358.16	5.995
358.37	8.358
358.57	5.649
358.78	8.952
358.99	6.026
359.19	7.136
359.40	8.334
359.61	6.421
359.81	8.848
360.02	10.160
360.23	5.926
360.43	7.476
360.64	7.031
360.85	7.616
361.05	6.187
361.26	9.234
361.47	7.565
361.67	9.580
361.88	7.214
362.09	8.864
362.29	6.847
362.50	8.098
362.70	6.948
362.91	8.459
363.12	7.152
363.32	8.530
363.53	7.926
363.74	8.657
363.94	5.936
364.15	9.801
364.36	8.963
364.56	7.100
364.77	8.746
364.98	9.882
365.18	7.858
365.39	9.214
365.59	6.207
365.80	8.137
366.01	9.161
366.21	7.952
366.42	6.329
366.63	8.800
366.83	7.063
367.04	5.506
367.24	8.321
367.45	6.983
367.66	6.590
367.86	8.365
368.07	6.786
368.28	6.726
368.48	7.628
368.69	5.807
368.89	6.280
369.10	8.270
369.31	7.463
369.51	7.742
369.72	9.157
369.92	9.666
370.13	6.998
370.34	7.556
370.54	4.446
370.75	8.003
370.95	5.588
371.16	7.224
371.37	7.287
371.57	7.305
371.78	7.484
371.98	7.988
372.19	7.459
372.40	8.459
372.60	7.948
372.81	8.805
373.01	6.391
373.22	6.542
373.43	7.476
373.63	8.278
373.84	7.729
374.04	6.974
374.25	5.918
374.46	8.908
374.66	7.041
374.87	8.307
375.07	5.657
375.28	6.190
375.48	6.502
375.69	7.734
375.90	4.992
376.10	5.515
376.31	6.935
376.51	5.522
376.72	6.287
376.92	5.739
377.13	6.711
377.34	7.690
377.54	6.643
377.75	8.221
377.95	6.478
378.16	8.217
378.36	7.181
378.57	8.445
378.77	6.620
378.98	8.176
379.19	7.070
379.39	5.958
379.60	6.601
379.80	6.567
380.01	7.620
380.21	5.992
380.42	7.017
380.62	6.649
380.83	6.850
381.04	6.428
381.24	6.377
381.45	7.135
381.65	4.740
381.86	6.862
382.06	6.643
382.27	5.655
382.47	4.998
382.68	7.637
382.88	5.343
383.09	5.782
383.29	5.948
383.50	7.875
383.71	5.348
383.91	6.345
384.12	6.096
384.32	6.451
384.53	6.005
384.73	5.372
384.94	5.375
385.14	6.031
385.35	6.172
385.55	6.725
385.76	5.571
385.96	6.244
386.17	6.228
386.37	7.026
386.58	5.529
386.78	7.861
386.99	5.345
387.19	7.368
387.40	5.404
387.60	8.416
387.81	5.406
388.01	5.951
388.22	6.120
388.42	7.319
388.63	6.949
388.83	8.368
389.04	4.668
389.24	5.621
389.45	5.883
389.65	5.873
389.86	5.467
390.06	5.655
390.27	5.150
390.47	4.910
390.68	5.255
390.88	7.336
391.09	6.608
391.29	6.719
391.50	5.905
391.70	6.183
391.91	6.547
392.11	5.964
392.32	6.294
392.52	6.351
392.73	6.014
392.93	6.564
393.14	6.204
393.34	5.608
393.55	6.886
393.75	6.470
393.95	5.132
394.16	6.555
394.36	7.052
394.57	7.459
394.77	5.933
394.98	5.865
395.18	6.161
395.39	6.309
395.59	6.171
395.80	6.175
396.00	5.750
396.21	7.871
396.41	4.793
396.61	6.554
396.82	5.795
397.02	7.770
397.23	6.266
397.43	6.047
397.64	4.446
397.84	6.689
398.05	4.984
398.25	6.093
398.45	5.920
398.66	5.847
398.86	5.166
399.07	6.669
399.27	5.583
399.48	6.444
399.68	4.940
399.89	5.953
400.09	5.811
400.29	4.856
400.50	4.857
400.70	5.779
400.91	5.315
401.11	5.560
401.32	5.465
401.52	4.222
401.72	5.060
401.93	6.761
402.13	4.870
402.34	5.180
402.54	4.568
402.75	7.256
402.95	4.211
403.15	6.500
403.36	4.472
403.56	5.428
403.77	4.734
403.97	5.714
404.17	4.652
404.38	6.299
404.58	4.770
404.79	6.377
404.99	5.442
405.19	5.832
405.40	5.417
405.60	5.861
405.81	4.862
406.01	4.970
406.21	4.840
406.42	6.054
406.62	5.426
406.83	5.035
407.03	6.726
407.23	4.726
407.44	3.785
407.64	6.298
407.85	4.813
408.05	5.120
408.25	4.803
408.46	5.828
408.66	4.984
408.87	4.428
409.07	4.559
409.27	4.295
409.48	4.538
409.68	5.447
409.88	3.263
410.09	5.071
410.29	5.115
410.50	5.984
410.70	3.875
410.90	5.118
411.11	4.338
411.31	4.725
411.51	4.882
411.72	5.691
411.92	4.699
412.12	4.724
412.33	4.235
412.53	4.128
412.74	3.262
412.94	4.554
413.14	4.769
413.35	5.386
413.55	4.778
413.75	5.758
413.96	4.434
414.16	4.624
414.36	4.445
414.57	5.018
414.77	4.623
414.97	5.038
415.18	4.657
415.38	5.002
415.58	4.696
415.79	3.997
415.99	4.174
416.19	5.508
416.40	4.485
416.60	4.869
416.80	4.731
417.01	4.576
417.21	3.539
417.41	5.711
417.62	5.106
417.82	5.389
418.02	4.122
418.23	5.178
418.43	4.855
418.63	5.250
418.84	5.544
419.04	5.010
419.24	5.486
419.45	6.097
419.65	5.704
419.85	5.777
420.06	5.495
420.26	5.792
420.46	5.486
420.67	6.097
420.87	6.228
421.07	6.021
421.28	5.454
421.48	6.130
421.68	6.155
421.88	6.322
422.09	6.273
422.29	5.826
422.49	5.276
422.70	5.859
422.90	5.629
423.10	5.909
423.31	5.932
423.51	5.980
423.71	5.273
423.91	6.354
424.12	5.705
424.32	6.091
424.52	5.759
424.73	5.934
424.93	5.734
425.13	5.597
425.33	5.199
425.54	6.150
425.74	5.518
425.94	6.418
426.15	5.794
426.35	5.895
426.55	5.704
426.75	6.029
426.96	5.143
427.16	5.413
427.36	5.566
427.57	5.589
427.77	5.113
427.97	5.507
428.17	5.399
428.38	5.423
428.58	4.200
428.78	5.427
428.98	4.081
429.19	4.093
429.39	4.274
429.59	4.743
429.79	3.526
430.00	3.679
430.20	3.853
430.40	4.473
430.60	4.009
430.81	4.021
431.01	4.170
431.21	4.970
431.41	3.659
431.62	4.953
431.82	3.832
432.02	4.921
432.22	3.842
432.43	4.221
432.63	3.885
432.83	4.911
433.03	4.359
433.24	4.080
433.44	4.015
433.64	4.970
433.84	4.532
434.05	5.097
434.25	4.807
434.45	5.497
434.65	5.251
434.85	5.314
435.06	4.919
435.26	4.802
435.46	4.750
435.66	5.507
435.87	4.870
436.07	4.752
436.27	4.683
436.47	4.091
436.67	4.213
436.88	4.913
437.08	4.594
437.28	4.541
437.48	4.404
437.69	4.959
437.89	4.359
438.09	5.692
438.29	4.592
438.49	5.133
438.70	5.065
438.90	4.640
439.10	4.508
439.30	4.824
439.50	4.065
439.71	5.101
439.91	4.958
440.11	5.571
440.31	5.124
440.51	4.875
440.72	4.911
440.92	4.833
441.12	5.585
441.32	5.912
441.52	5.392
441.72	5.749
441.93	5.558
442.13	5.769
442.33	4.833
442.53	5.967
442.73	4.856
442.94	5.124
443.14	5.017
443.34	5.508
443.54	4.778
443.74	5.410
443.94	4.913
444.15	4.639
444.35	4.573
444.55	5.426
444.75	4.533
444.95	4.892
445.15	5.068
445.36	4.818
445.56	4.472
445.76	5.116
445.96	5.173
446.16	5.249
446.36	4.725
446.57	5.841
446.77	4.695
446.97	5.558
447.17	5.703
447.37	5.497
447.57	5.689
447.77	5.452
447.98	5.372
448.18	5.718
448.38	4.892
448.58	5.613
448.78	5.196
448.98	5.353
449.18	4.790
449.39	5.121
449.59	4.934
449.79	4.955
449.99	4.433
450.19	5.243
450.39	4.665
450.59	4.859
450.79	4.608
451.00	4.913
451.20	5.357
451.40	4.724
451.60	4.358
451.80	5.105
452.00	4.311
452.20	5.075
452.40	4.423
452.61	4.774
452.81	4.602
453.01	5.146
453.21	4.381
453.41	4.881
453.61	4.467
453.81	4.359
454.01	4.743
454.21	5.186
454.42	4.897
454.62	4.781
454.82	4.246
455.02	4.833
455.22	3.863
455.42	4.358
455.62	3.731
455.82	4.549
456.02	4.209
456.23	4.619
456.43	3.895
456.63	4.750
456.83	3.660
457.03	5.313
457.23	3.964
457.43	4.703
457.63	4.365
457.83	4.649
458.03	3.800
458.23	4.437
458.43	3.619
458.64	4.547
458.84	4.563
459.04	4.322
459.24	5.055
459.44	4.698
459.64	4.804
459.84	4.836
460.04	4.891
460.24	5.238
460.44	5.014
460.64	5.208
460.84	4.829
461.04	5.425
461.24	5.412
461.45	5.665
461.65	5.627
461.85	5.307
462.05	4.951
462.25	5.087
462.45	5.180
462.65	4.936
462.85	4.189
463.05	4.991
463.25	3.584
463.45	4.795
463.65	4.507
463.85	4.835
464.05	3.994
464.25	4.166
464.45	4.827
464.65	4.561
464.85	3.871
465.05	4.311
465.26	4.340
465.46	4.778
465.66	4.177
465.86	4.471
466.06	4.072
466.26	4.746
466.46	3.610
466.66	4.496
466.86	3.862
467.06	4.447
467.26	4.465
467.46	4.549
467.66	4.343
467.86	4.519
468.06	4.590
468.26	4.261
468.46	4.515
468.66	4.961
468.86	3.254
469.06	4.509
469.26	3.771
469.46	4.507
469.66	3.558
469.86	4.693
470.06	4.110
470.26	4.510
470.46	3.884
470.66	5.426
470.86	3.637
471.06	4.291
471.26	3.929
471.46	3.683
471.66	3.865
471.86	4.367
472.06	3.644
472.26	4.959
472.46	4.671
472.66	4.736
472.86	3.732
473.06	4.652
473.26	3.952
473.46	4.577
473.66	3.648
473.86	4.652
474.06	3.897
474.26	5.035
474.46	3.496
474.66	4.632
474.86	4.580
475.06	5.145
475.26	3.434
475.46	4.573
475.66	3.606
475.86	4.394
476.06	4.646
476.26	4.877
476.46	4.227
476.66	4.594
476.86	4.012
477.06	4.608
477.26	3.908
477.46	4.189
477.65	4.413
477.85	4.987
478.05	4.151
478.25	5.537
478.45	4.275
478.65	4.848
478.85	4.072
479.05	4.935
479.25	4.708
479.45	5.101
479.65	4.334
479.85	4.795
480.05	4.057
480.25	4.932
480.45	4.679
480.65	4.989
480.85	4.617
481.05	5.442
481.25	5.104
481.44	5.164
481.64	4.389
481.84	5.334
482.04	4.945
482.24	5.476
482.44	4.869
482.64	5.389
482.84	5.469
483.04	5.390
483.24	5.424
483.44	5.879
483.64	5.794
483.84	5.959
484.04	6.087
484.23	6.032
484.43	6.149
484.63	6.205
484.83	6.392
485.03	6.553
485.23	6.371
485.43	6.464
485.63	6.452
485.83	6.264
486.03	6.306
486.23	6.295
486.42	6.090
486.62	6.343
486.82	6.097
487.02	6.042
487.22	5.943
487.42	6.251
487.62	6.147
487.82	6.047
488.02	6.042
488.22	6.216
488.41	6.256
488.61	6.056
488.81	6.111
489.01	6.280
489.21	6.117
489.41	6.319
489.61	6.221
489.81	6.193
490.01	6.073
490.20	6.345
490.40	6.168
490.60	6.303
490.80	5.752
491.00	6.201
491.20	5.891
491.40	5.880
491.60	5.912
491.79	6.118
491.99	6.075
492.19	6.290
492.39	6.206
492.59	6.240
492.79	6.322
492.99	6.248
493.19	6.270
493.38	6.355
493.58	5.979
493.78	6.220
493.98	6.191
494.18	6.293
494.38	5.862
494.58	6.353
494.77	5.383
494.97	5.965
495.17	5.477
495.37	6.030
495.57	6.062
495.77	6.300
495.96	5.743
496.16	5.653
496.36	5.478
496.56	6.327
496.76	5.492
496.96	6.063
497.15	5.868
497.35	6.015
497.55	5.643
497.75	6.104
497.95	5.859
498.15	6.519
498.34	6.294
498.54	6.135
498.74	6.318
498.94	6.612
499.14	6.059
499.34	6.831
499.53	6.146
499.73	6.297
499.93	6.040
500.13	6.634
500.33	5.997
500.52	6.256
500.72	6.519
500.92	6.224
501.12	6.085
501.32	5.974
501.52	6.415
501.71	6.464
501.91	5.867
502.11	6.790
502.31	5.993
502.51	6.777
502.70	6.323
502.90	6.585
503.10	6.318
503.30	7.334
503.50	6.709
503.69	6.919
503.89	6.483
504.09	7.043
504.29	6.489
504.48	7.156
504.68	6.889
504.88	7.293
505.08	6.168
505.28	6.869
505.47	6.836
505.67	7.350
505.87	6.747
506.07	7.139
506.27	6.679
506.46	6.904
506.66	6.575
506.86	7.186
507.06	7.356
507.25	7.307
507.45	6.890
507.65	7.116
507.85	6.503
508.04	7.410
508.24	6.924
508.44	7.080
508.64	6.738
508.83	7.388
509.03	6.576
509.23	6.743
509.43	6.148
509.63	7.149
509.82	6.589
510.02	7.016
510.22	6.608
510.42	7.305
510.61	6.623
510.81	6.758
511.01	7.005
511.21	7.344
511.40	6.561
511.60	7.251
511.80	6.904
511.99	7.194
512.19	6.535
512.39	7.196
512.59	6.471
512.78	7.470
512.98	6.891
513.18	6.817
513.38	6.830
513.57	7.129
513.77	6.980
513.97	6.618
514.17	6.677
514.36	7.137
514.56	6.889
514.76	7.199
514.95	6.265
515.15	7.060
515.35	6.097
515.55	7.044
515.74	6.878
515.94	7.068
516.14	6.480
516.33	7.007
516.53	6.218
516.73	6.608
516.93	6.616
517.12	7.264
517.32	6.246
517.52	6.957
517.71	6.481
517.91	6.743
518.11	6.707
518.30	6.863
518.50	6.598
518.70	7.312
518.90	6.483
519.09	6.892
519.29	7.117
519.49	7.045
519.68	6.667
519.88	7.133
520.08	6.838
520.27	7.027
520.47	7.037
520.67	7.098
520.86	7.052
521.06	6.983
521.26	6.532
521.45	7.137
521.65	6.572
521.85	6.729
522.04	6.492
522.24	6.736
522.44	6.510
522.63	7.056
522.83	6.416
523.03	7.162
523.22	6.546
523.42	7.355
523.62	7.033
523.81	7.051
524.01	6.727
524.21	6.507
524.40	6.376
524.60	7.024
524.80	6.422
524.99	6.908
525.19	6.698
525.39	7.450
525.58	6.583
525.78	6.703
525.98	6.953
526.17	7.260
526.37	6.833
526.57	7.080
526.76	6.901
526.96	7.179
527.15	7.105
527.35	7.296
527.55	7.016
527.74	7.340
527.94	7.216
528.14	7.061
528.33	7.063
528.53	7.324
528.72	7.183
528.92	7.303
529.12	7.263
529.31	7.377
529.51	7.477
529.71	7.298
529.90	7.419
530.10	7.456
530.29	7.482
530.49	7.500
530.69	7.550
530.88	7.621
531.08	7.444
531.28	7.402
531.47	7.302
531.67	7.547
531.86	7.257
532.06	7.452
532.26	7.271
532.45	7.543
532.65	7.236
532.84	7.358
533.04	7.170
533.24	7.314
533.43	7.121
533.63	7.403
533.82	7.601
534.02	7.577
534.22	7.458
534.41	7.456
534.61	7.400
534.80	7.628
535.00	7.697
535.19	7.547
535.39	7.527
535.59	7.566
535.78	7.299
535.98	7.288
536.17	7.149
536.37	7.477
536.57	7.183
536.76	7.461
536.96	7.228
537.15	7.729
537.35	7.134
537.54	7.549
537.74	7.295
537.93	7.682
538.13	7.633
538.33	7.443
538.52	7.464
538.72	7.638
538.91	7.550
539.11	7.498
539.30	7.476
539.50	7.704
539.70	7.216
539.89	7.717
540.09	7.123
540.28	7.438
540.48	7.141
540.67	7.667
540.87	7.574
541.06	7.664
541.26	7.835
541.45	7.884
541.65	7.917
541.85	7.891
542.04	7.806
542.24	8.034
542.43	7.939
542.63	8.075
542.82	8.045
543.02	8.263
543.21	8.104
543.41	7.940
543.60	8.071
543.80	8.090
543.99	7.819
544.19	8.179
544.38	7.901
544.58	8.067
544.77	7.906
544.97	8.127
545.16	7.885
545.36	8.214
545.56	7.949
545.75	7.931
545.95	7.941
546.14	8.314
546.34	7.689
546.53	8.054
546.73	7.712
546.92	7.985
547.12	7.910
547.31	8.226
547.51	7.808
547.70	8.377
547.90	8.005
548.09	8.373
548.29	7.917
548.48	8.591
548.68	7.732
548.87	8.355
549.07	8.113
549.26	7.891
549.46	7.905
549.65	7.934
549.84	7.608
550.04	8.432
550.23	7.306
550.43	7.814
550.62	7.750
550.82	8.167
551.01	7.799
551.21	7.962
551.40	7.013
551.60	8.515
551.79	7.506
551.99	7.812
552.18	7.595
552.38	7.758
552.57	8.001
552.77	8.690
552.96	8.468
553.16	8.817
553.35	8.370
553.54	8.708
553.74	8.814
553.93	8.714
554.13	9.206
554.32	9.091
554.52	8.701
554.71	8.610
554.91	7.823
555.10	8.845
555.29	8.127
555.49	8.919
555.68	8.147
555.88	8.839
556.07	8.072
556.27	8.527
556.46	8.478
556.66	8.920
556.85	8.417
557.04	9.083
557.24	8.477
557.43	9.604
557.63	8.416
557.82	8.602
558.02	8.195
558.21	9.621
558.40	8.093
558.60	9.074
558.79	8.621
558.99	9.329
559.18	9.142
559.38	9.114
559.57	8.766
559.76	9.776
559.96	9.409
560.15	9.201
560.35	8.598
560.54	9.397
560.73	8.999
560.93	9.484
561.12	9.072
561.32	9.746
561.51	9.085
561.70	10.027
561.90	9.402
562.09	10.017
562.29	9.460
562.48	10.257
562.67	9.708
562.87	10.325
563.06	9.695
563.26	9.831
563.45	10.111
563.64	10.535
563.84	10.108
564.03	10.514
564.23	9.659
564.42	10.952
564.61	9.789
564.81	10.540
565.00	10.505
565.20	10.452
565.39	10.197
565.58	10.985
565.78	10.666
565.97	11.151
566.16	10.905
566.36	11.483
566.55	11.005
566.74	11.118
566.94	11.404
567.13	11.790
567.33	10.811
567.52	11.372
567.71	11.647
567.91	11.321
568.10	11.897
568.29	11.932
568.49	11.638
568.68	12.101
568.87	10.973
569.07	11.748
569.26	11.737
569.45	11.906
569.65	11.754
569.84	11.920
570.04	11.744
570.23	12.214
570.42	11.679
570.62	12.015
570.81	11.522
571.00	12.412
571.20	11.915
571.39	12.529
571.58	12.294
571.78	12.653
571.97	12.074
572.16	12.456
572.36	12.373
572.55	12.697
572.74	12.296
572.94	12.785
573.13	12.687
573.32	12.831
573.51	12.264
573.71	12.708
573.90	12.530
574.09	12.972
574.29	12.753
574.48	12.486
574.67	12.264
574.87	12.884
575.06	12.492
575.25	12.728
575.45	12.665
575.64	12.915
575.83	12.803
576.03	13.613
576.22	12.206
576.41	12.328
576.60	12.029
576.80	12.751
576.99	12.947
577.18	13.044
577.38	12.373
577.57	12.892
577.76	13.213
577.95	13.020
578.15	12.209
578.34	12.643
578.53	12.123
578.73	12.915
578.92	12.375
579.11	12.429
579.30	12.297
579.50	12.504
579.69	12.563
579.88	13.028
580.08	11.270
580.27	12.618
580.46	11.982
580.65	12.223
580.85	11.762
581.04	12.693
581.23	11.631
581.42	12.516
581.62	11.877
581.81	12.253
582.00	12.042
582.19	12.421
582.39	11.786
582.58	12.371
582.77	12.183
582.96	12.020
583.16	11.278
583.35	12.793
583.54	11.868
583.73	12.485
583.93	11.513
584.12	12.084
584.31	11.205
584.50	12.063
584.70	11.871
584.89	12.272
585.08	11.868
585.27	12.830
585.47	11.627
585.66	11.807
585.85	11.193
586.04	12.077
586.24	11.721
586.43	12.329
586.62	11.851
586.81	11.980
587.00	11.570
587.20	11.715
587.39	11.032
587.58	12.429
587.77	11.481
587.97	12.110
588.16	12.184
588.35	12.185
588.54	11.065
588.73	11.217
588.93	12.079
589.12	12.287
589.31	11.936
589.50	11.866
589.69	12.202
589.89	11.964
590.08	11.600
590.27	11.788
590.46	11.709
590.65	11.945
590.85	11.442
591.04	12.075
591.23	12.055
591.42	12.451
591.61	11.756
591.81	11.982
592.00	11.543
592.19	12.173
592.38	11.057
592.57	12.426
592.77	11.436
592.96	11.625
593.15	12.403
593.34	12.117
593.53	11.978
593.72	12.491
593.92	11.211
594.11	12.810
594.30	11.284
594.49	12.588
594.68	12.062
594.87	11.691
595.07	11.167
595.26	12.121
595.45	11.734
595.64	12.453
595.83	11.570
596.02	12.312
596.22	11.459
596.41	12.339
596.60	11.880
596.79	13.218
596.98	12.284
597.17	13.091
597.37	12.677
597.56	13.272
597.75	12.120
597.94	13.361
598.13	13.232
598.32	12.823
598.51	12.817
598.71	13.608
598.90	12.676
599.09	13.515
599.28	12.529
599.47	12.874
599.66	12.123
599.85	13.272
600.05	11.689
600.24	13.051
600.43	12.067
600.62	12.922
600.81	12.656
601.00	12.997
601.19	12.148
601.38	13.501
601.58	11.571
601.77	12.400
601.96	12.261
602.15	12.926
602.34	12.181
602.53	13.266
602.72	12.097
602.91	13.785
603.10	12.806
603.30	12.857
603.49	12.731
603.68	13.077
603.87	12.272
604.06	13.278
604.25	13.306
604.44	13.693
604.63	13.606
604.82	13.753
605.01	13.987
605.21	13.864
605.40	13.283
605.59	13.652
605.78	13.632
605.97	14.142
606.16	13.328
606.35	13.745
606.54	13.601
606.73	13.819
606.92	12.994
607.11	13.455
607.30	13.324
607.50	13.073
607.69	13.261
607.88	13.429
608.07	12.413
608.26	12.436
608.45	12.798
608.64	13.172
608.83	12.698
609.02	12.720
609.21	12.292
609.40	13.241
609.59	12.580
609.78	13.296
609.97	13.182
610.16	13.179
610.35	12.929
610.55	12.807
610.74	12.467
610.93	13.313
611.12	12.553
611.31	12.691
611.50	12.594
611.69	12.403
611.88	12.515
612.07	12.838
612.26	11.426
612.45	12.597
612.64	12.177
612.83	11.999
613.02	12.071
613.21	11.860
613.40	11.717
613.59	12.610
613.78	10.217
613.97	11.869
614.16	11.695
614.35	11.359
614.54	9.937
614.73	11.515
614.92	11.523
615.11	11.620
615.30	10.522
615.49	9.834
615.68	10.574
615.87	11.061
616.07	9.629
616.26	10.701
616.45	10.290
616.64	10.615
616.83	10.541
617.02	11.357
617.21	9.282
617.40	9.626
617.59	10.684
617.78	11.111
617.97	10.581
618.16	9.586
618.35	9.280
618.54	10.347
618.73	10.139
618.92	10.424
619.11	9.268
619.30	10.145
619.49	8.594
619.68	10.395
619.86	10.054
620.05	10.649
620.24	9.461
620.43	9.952
620.62	8.953
620.81	10.107
621.00	9.919
621.19	10.673
621.38	10.391
621.57	10.674
621.76	9.654
621.95	10.139
622.14	10.400
622.33	11.067
622.52	8.583
622.71	10.203
622.90	8.336
623.09	9.954
623.28	9.745
623.47	10.167
623.66	9.790
623.85	9.420
624.04	8.867
624.23	9.079
624.42	8.891
624.61	9.200
624.80	8.723
624.99	9.638
625.18	8.893
625.36	9.404
625.55	9.580
625.74	9.828
625.93	8.751
626.12	10.219
626.31	10.603
626.50	10.431
626.69	9.343
626.88	11.374
627.07	9.963
627.26	9.901
627.45	9.649
627.64	10.171
627.83	9.388
628.02	10.250
628.20	9.944
628.39	10.390
628.58	9.948
628.77	10.403
628.96	9.700
629.15	9.912
629.34	9.489
629.53	10.155
629.72	8.836
629.91	10.066
630.10	8.985
630.29	9.232
630.47	8.771
630.66	10.302
630.85	9.341
631.04	9.767
631.23	9.513
631.42	9.259
631.61	8.974
631.80	10.367
631.99	8.597
632.18	8.856
632.36	8.182
632.55	9.691
632.74	9.454
632.93	9.234
633.12	8.237
633.31	9.113
633.50	8.234
633.69	9.436
633.88	8.202
634.06	8.833
634.25	8.800
634.44	8.942
634.63	9.327
634.82	10.336
635.01	8.824
635.20	9.392
635.39	8.013
635.57	9.418
635.76	8.743
635.95	9.038
636.14	7.736
636.33	9.830
636.52	8.155
636.71	9.248
636.89	8.020
637.08	9.268
637.27	7.027
637.46	9.151
637.65	8.220
637.84	8.675
638.03	7.708
638.21	9.247
638.40	8.066
638.59	8.354
638.78	7.757
638.97	9.055
639.16	9.114
639.34	8.281
639.53	7.073
639.72	8.453
639.91	7.314
640.10	7.888
640.29	9.448
640.47	8.414
640.66	7.663
640.85	9.002
641.04	7.012
641.23	8.598
641.42	8.305
641.60	7.440
641.79	6.962
641.98	8.133
642.17	7.270
642.36	8.973
642.54	6.094
642.73	7.915
642.92	6.558
643.11	7.296
643.30	6.956
643.49	6.619
643.67	5.643
643.86	7.655
644.05	6.980
644.24	7.796
644.43	6.746
644.61	8.136
644.80	8.325
644.99	7.629
645.18	8.169
645.37	7.677
645.55	7.065
645.74	7.949
645.93	7.650
646.12	7.424
646.31	7.681
646.49	7.538
646.68	8.047
646.87	7.927
647.06	6.932
647.24	7.573
647.43	5.426
647.62	8.282
647.81	5.765
648.00	8.580
648.18	6.272
648.37	7.391
648.56	7.768
648.75	7.386
648.93	6.979
649.12	8.580
649.31	8.640
649.50	7.591
649.68	7.226
649.87	7.906
650.06	6.483
650.25	8.033
650.43	7.200
650.62	6.940
650.81	6.805
651.00	7.480
651.18	6.183
651.37	8.359
651.56	6.928
651.75	8.296
651.93	6.916
652.12	7.006
652.31	6.711
652.50	7.561
652.68	8.129
652.87	8.523
653.06	8.072
653.25	7.323
653.43	6.706
653.62	8.110
653.81	7.001
654.00	8.395
654.18	6.241
654.37	7.670
654.56	6.826
654.74	5.522
654.93	7.220
655.12	6.376
655.31	6.566
655.49	6.746
655.68	5.478
655.87	5.624
656.05	5.320
656.24	6.622
656.43	5.132
656.62	6.368
656.80	5.039
656.99	6.079
657.18	5.681
657.36	6.172
657.55	6.379
657.74	6.074
657.93	6.468
658.11	7.579
658.30	6.190
658.49	6.417
658.67	6.040
658.86	5.951
659.05	5.348
659.23	7.070
659.42	6.040
659.61	6.808
659.79	6.025
659.98	6.099
660.17	6.761
660.35	5.754
660.54	6.481
660.73	8.309
660.91	6.613
661.10	6.875
661.29	4.040
661.47	5.138
661.66	5.063
661.85	6.321
662.03	5.910
662.22	4.929
662.41	4.827
662.59	5.881
662.78	5.300
662.97	5.506
663.15	4.488
663.34	3.997
663.53	4.010
663.71	4.844
663.90	4.600
664.09	5.571
664.27	4.482
664.46	4.484
664.65	4.125
664.83	4.802
665.02	3.437
665.21	3.460
665.39	3.175
665.58	5.260
665.77	4.674
665.95	3.794
666.14	3.017
666.32	4.717
666.51	2.705
666.70	3.654
666.88	3.737
667.07	3.451
667.26	3.225
667.44	4.673
667.63	3.931
667.81	3.581
668.00	4.351
668.19	4.780
668.37	3.621
668.56	5.230
668.75	3.131
668.93	5.233
669.12	4.102
669.30	3.956
669.49	3.956
669.68	5.058
669.86	4.424
670.05	4.309
670.23	3.613
670.42	3.386
670.61	4.816
670.79	4.038
670.98	4.315
671.16	5.058
671.35	3.320
671.54	3.974
671.72	4.121
671.91	5.205
672.09	3.559
672.28	5.700
672.46	5.615
672.65	4.990
672.84	4.921
673.02	5.512
673.21	4.169
673.39	4.544
673.58	4.984
673.77	4.967
673.95	5.512
674.14	4.192
674.32	4.542
674.51	6.424
674.69	4.196
674.88	5.192
675.07	5.029
675.25	6.631
675.44	5.056
675.62	5.594
675.81	4.381
675.99	7.036
676.18	5.884
676.36	5.002
676.55	4.491
676.74	6.734
676.92	6.437
677.11	6.365
677.29	5.468
677.48	6.329
677.66	6.111
677.85	5.020
678.03	5.909
678.22	7.435
678.40	5.053
678.59	5.403
678.78	4.792
678.96	5.525
679.15	4.732
679.33	8.873
679.52	7.130
679.70	6.108
679.89	6.073
680.07	6.738
680.26	5.599
680.44	6.643
680.63	6.587
680.81	6.699
681.00	5.306
681.18	6.706
681.37	5.946
681.55	7.717
681.74	6.810
681.92	7.535
682.11	6.497
682.29	6.424
682.48	6.773
682.66	8.039
682.85	6.124
683.03	7.058
683.22	7.557
683.40	8.364
683.59	6.888
683.77	7.521
683.96	7.157
684.14	8.826
684.33	5.311
684.51	8.942
684.70	7.810
684.88	9.400
685.07	8.890
685.25	9.439
685.44	7.546
685.62	8.721
685.81	7.001
685.99	10.516
686.18	6.740
686.36	8.508
686.55	6.968
686.73	7.355
686.92	8.538
687.10	9.428
687.29	8.916
687.47	9.195
687.65	10.227
687.84	8.857
688.02	10.807
688.21	11.242
688.39	8.364
688.58	11.058
688.76	9.525
688.95	10.303
689.13	7.927
689.32	11.449
689.50	11.087
689.68	11.519
689.87	9.015
690.05	11.537
690.24	10.782
690.42	10.960
690.61	11.344
690.79	14.267
690.98	11.448
691.16	12.153
691.34	9.823
691.53	12.424
691.71	8.943
691.90	12.658
692.08	10.118
692.27	14.519
692.45	13.976
692.63	11.088
692.82	13.922
693.00	12.111
693.19	11.106
693.37	15.095
693.56	12.064
693.74	14.482
693.92	12.560
694.11	14.186
694.29	14.372
694.48	14.756
694.66	13.469
694.84	15.046
695.03	13.739
695.21	16.556
695.40	16.228
695.58	17.770
695.76	14.014
695.95	16.382
696.13	15.025
696.32	18.751
696.50	19.332
696.68	16.872
696.87	14.947
697.05	18.146
697.24	17.498
697.42	18.098
697.60	17.616
697.79	19.921
697.97	19.154
698.16	21.788
698.34	18.670
698.52	21.652
698.71	19.791
698.89	22.109
699.07	19.716
699.26	22.382
699.44	21.689
699.63	22.085
699.81	21.299
699.99	22.334
700.18	23.244
700.36	23.554
700.54	22.727
700.73	22.156
700.91	21.411
701.09	23.286
701.28	24.459
701.46	23.602
701.64	22.013
701.83	24.157
702.01	22.486
702.20	25.274
702.38	23.446
702.56	23.079
702.75	22.459
702.93	24.290
703.11	23.160
703.30	25.203
703.48	22.948
703.66	24.338
703.85	22.241
704.03	24.318
704.21	22.437
704.40	26.137
704.58	22.997
704.76	25.792
704.95	23.107
705.13	24.334
705.31	24.957
705.50	25.047
705.68	21.354
705.86	26.261
706.04	25.355
706.23	27.150
706.41	23.074
706.59	23.724
706.78	23.237
706.96	26.527
707.14	24.267
707.33	25.985
707.51	23.657
707.69	26.097
707.88	23.814
708.06	26.421
708.24	26.061
708.42	28.140
708.61	24.610
708.79	27.625
708.97	27.250
709.16	27.142
709.34	27.220
709.52	27.565
709.71	25.667
709.89	27.215
710.07	25.451
710.25	28.778
710.44	24.583
710.62	27.210
710.80	28.829
710.98	27.772
711.17	26.535
711.35	28.834
711.53	27.123
711.72	27.998
711.90	28.660
712.08	27.552
712.26	25.506
712.45	28.605
712.63	27.895
712.81	29.179
712.99	27.084
713.18	29.127
713.36	29.069
713.54	29.577
713.72	26.596
713.91	27.932
714.09	27.173
714.27	28.562
714.45	27.759
714.64	28.836
714.82	27.391
715.00	29.193
715.18	28.373
715.37	30.014
715.55	27.821
715.73	29.925
715.91	26.811
716.10	29.334
716.28	26.082
716.46	29.651
716.64	27.270
716.83	30.939
717.01	27.520
717.19	28.683
717.37	28.014
717.55	30.117
717.74	28.428
717.92	28.621
718.10	24.885
718.28	28.754
718.47	26.622
718.65	29.850
718.83	28.041
719.01	29.714
719.19	27.126
719.38	27.826
719.56	28.943
719.74	28.027
719.92	24.120
720.10	27.423
720.29	26.557
720.47	29.265
720.65	27.381
720.83	28.706
721.01	24.926
721.20	27.839
721.38	27.942
721.56	28.385
721.74	26.560
721.92	26.562
722.11	24.989
722.29	29.747
722.47	25.568
722.65	29.205
722.83	28.727
723.01	26.896
723.20	28.720
723.38	27.197
723.56	24.781
723.74	31.606
723.92	29.014
724.10	28.927
724.29	25.919
724.47	29.259
724.65	26.459
724.83	29.123
725.01	24.050
725.19	29.385
725.38	28.198
725.56	27.806
725.74	28.642
725.92	32.350
726.10	27.165
726.28	29.266
726.46	29.224
726.65	30.992
726.83	27.393
727.01	28.618
727.19	29.186
727.37	29.171
727.55	27.231
727.73	31.481
727.92	27.877
728.10	31.443
728.28	26.488
728.46	30.866
728.64	26.332
728.82	30.699
729.00	28.615
729.19	30.878
729.37	29.169
729.55	30.944
729.73	26.518
729.91	30.758
730.09	31.212
730.27	31.922
730.45	28.854
730.63	31.195
730.82	28.256
731.00	31.363
731.18	29.580
731.36	32.619
731.54	29.844
731.72	31.247
731.90	30.452
732.08	31.280
732.26	28.445
732.45	30.940
732.63	28.537
732.81	29.833
732.99	29.480
733.17	29.744
733.35	28.130
733.53	32.232
733.71	29.181
733.89	31.655
734.07	28.953
734.25	31.775
734.44	28.232
734.62	32.390
734.80	29.862
734.98	32.641
735.16	29.224
735.34	31.604
735.52	30.079
735.70	30.747
735.88	30.489
736.06	31.199
736.24	32.855
736.42	30.946
736.60	29.337
736.78	31.012
736.97	29.764
737.15	33.609
737.33	27.191
737.51	28.863
737.69	31.005
737.87	29.798
738.05	29.789
738.23	31.592
738.41	30.309
738.59	33.898
738.77	29.564
738.95	36.239
739.13	29.752
739.31	31.808
739.49	30.260
739.67	33.966
739.85	28.375
740.03	32.268
740.21	31.956
740.39	33.942
740.57	30.092
740.75	30.274
740.93	30.674
741.11	32.235
741.30	30.638
741.48	33.089
741.66	31.095
741.84	31.123
742.02	29.579
742.20	30.098
742.38	30.110
742.56	32.849
742.74	28.320
742.92	33.467
743.10	25.802
743.28	35.767
743.46	29.055
743.64	28.025
743.82	25.358
744.00	31.295
744.18	27.638
744.36	30.527
744.54	28.202
744.72	31.506
744.90	30.503
745.08	32.855
745.26	28.115
745.44	32.281
745.62	28.410
745.80	31.267
745.98	28.177
746.16	32.488
746.34	28.249
746.52	30.096
746.70	25.962
746.87	27.646
747.05	28.366
747.23	28.952
747.41	30.263
747.59	29.254
747.77	25.748
747.95	30.130
748.13	29.455
748.31	32.227
748.49	29.384
748.67	28.364
748.85	26.571
749.03	31.977
749.21	28.829
749.39	33.763
749.57	26.153
749.75	28.823
749.93	30.152
750.11	29.381
750.29	29.778
750.47	31.379
750.65	24.760
750.83	30.797
751.01	27.692
751.18	29.822
751.36	25.948
751.54	30.703
751.72	29.978
751.90	28.890
752.08	24.610
752.26	31.108
752.44	30.994
752.62	29.026
752.80	27.305
752.98	31.277
753.16	30.406
753.34	31.213
753.52	29.181
753.69	31.029
753.87	29.298
754.05	30.087
754.23	25.769
754.41	30.121
754.59	29.425
754.77	30.856
754.95	28.524
755.13	29.507
755.31	25.077
755.49	29.432
755.66	28.437
755.84	29.813
756.02	27.690
756.20	32.572
756.38	31.535
756.56	30.791
756.74	26.235
756.92	30.151
757.10	25.249
757.28	32.278
757.45	33.407
757.63	31.410
757.81	23.117
757.99	34.399
758.17	28.137
758.35	30.367
758.53	31.928
758.71	28.932
758.88	27.143
759.06	30.013
759.24	26.472
759.42	31.694
759.60	26.347
759.78	29.741
759.96	23.857
760.13	30.327
760.31	22.313
760.49	27.050
760.67	24.770
760.85	25.467
761.03	24.985
761.21	21.597
761.38	23.625
761.56	25.782
761.74	20.980
761.92	26.784
762.10	18.605
762.28	29.089
762.46	19.363
762.63	22.385
762.81	21.964
762.99	24.707
763.17	26.684
763.35	25.447
763.53	24.167
763.70	29.073
763.88	26.984
764.06	29.290
764.24	29.098
764.42	31.125
764.60	26.352
764.77	26.943
764.95	29.401
765.13	29.702
765.31	29.758
765.49	29.728
765.66	26.626
765.84	29.832
766.02	26.641
766.20	28.024
766.38	26.254
766.56	29.152
766.73	25.171
766.91	26.789
767.09	28.712
767.27	29.357
767.45	27.112
767.62	26.153
767.80	23.056
767.98	27.013
768.16	23.854
768.33	29.991
768.51	25.732
768.69	27.850
768.87	23.470
769.05	29.492
769.22	25.667
769.40	29.960
769.58	24.435
769.76	27.004
769.94	25.996
770.11	25.120
770.29	24.193
770.47	26.230
770.65	26.122
770.82	29.714
771.00	26.840
771.18	29.766
771.36	23.719
771.53	26.874
771.71	23.291
771.89	27.655
772.07	28.297
772.25	26.827
772.42	21.389
772.60	27.633
772.78	22.161
772.96	28.706
773.13	29.221
773.31	29.854
773.49	22.152
773.67	26.940
773.84	25.626
774.02	27.374
774.20	23.869
774.37	28.808
774.55	23.791
774.73	27.792
774.91	21.933
775.08	27.778
775.26	30.048
775.44	25.897
775.62	23.521
775.79	24.665
775.97	22.977
776.15	26.685
776.32	18.232
776.50	26.606
776.68	26.008
776.86	25.786
777.03	19.894
777.21	20.425
777.39	19.765
777.56	26.268
777.74	22.705
777.92	23.971
778.10	23.532
778.27	25.985
778.45	27.448
778.63	25.724
778.80	25.747
778.98	27.870
779.16	30.754
779.34	24.474
779.51	23.199
779.69	26.936
779.87	23.558
780.04	24.469
780.22	23.344
780.40	25.024
780.57	22.867
780.75	22.515
780.93	23.769
781.10	22.783
781.28	30.622
781.46	22.149
781.63	26.390
781.81	28.535
781.99	19.574
782.16	25.172
782.34	22.362
782.52	24.479
782.69	24.280
782.87	22.619
783.05	22.496
783.22	25.719
783.40	19.989
783.58	23.272
783.75	19.845
783.93	23.384
784.11	21.409
784.28	26.456
784.46	19.177
784.64	26.542
784.81	20.815
784.99	26.484
785.17	21.272
785.34	23.599
785.52	17.969
785.69	27.471
785.87	19.058
786.05	19.778
786.22	23.308
786.40	26.165
786.58	18.729
786.75	28.761
786.93	17.797
787.11	22.669
787.28	17.313
787.46	26.094
787.63	26.608
787.81	25.599
787.99	24.508
788.16	18.993
788.34	18.070
788.51	23.591
788.69	19.415
788.87	24.892
789.04	22.332
789.22	21.278
789.39	22.085
789.57	20.520
789.75	20.879
789.92	23.967
790.10	17.521
790.27	25.590
790.45	18.494
790.63	23.008
790.80	20.717
790.98	18.936
791.15	21.671
791.33	23.160
791.51	21.483
791.68	26.069
791.86	20.820
792.03	20.608
792.21	20.917
792.39	21.685
792.56	19.500
792.74	23.690
792.91	20.481
793.09	20.159
793.26	18.025
793.44	24.392
793.62	16.007
793.79	25.345
793.97	19.783
794.14	17.528
794.32	21.415
794.49	17.815
794.67	18.236
794.84	21.903
795.02	19.137
795.20	23.755
795.37	20.630
795.55	19.199
795.72	20.933
795.90	22.184
796.07	20.452
796.25	24.332
796.42	20.347
796.60	17.357
796.77	21.875
796.95	20.388
797.13	14.794
797.30	26.844
797.48	19.763
797.65	23.713
797.83	21.309
798.00	21.143
798.18	18.835
798.35	20.636
798.53	21.217
798.70	23.238
798.88	22.820
799.05	20.517
799.23	17.795
799.40	23.060
799.58	20.797
799.75	20.517
799.93	19.515
800.10	22.530
800.28	19.481
800.45	23.983
800.63	18.404
800.80	25.208
800.98	20.896
801.15	22.693
801.33	21.497
801.50	22.526
801.68	14.077
801.85	18.346
802.03	19.441
802.20	19.862
802.38	22.554
802.55	19.416
802.73	23.296
802.90	19.411
803.08	15.148
803.25	24.753
803.43	26.707
803.60	20.836
803.78	17.318
803.95	23.232
804.13	21.031
804.30	22.857
804.48	22.320
804.65	25.935
804.83	18.308
805.00	21.556
805.17	21.212
805.35	22.133
805.52	18.219
805.70	24.073
805.87	22.561
806.05	15.879
806.22	16.227
806.40	16.420
806.57	22.873
806.75	29.607
806.92	17.118
807.09	15.708
807.27	23.270
807.44	22.965
807.62	22.000
807.79	23.386
807.97	18.194
808.14	16.457
808.31	18.779
808.49	20.467
808.66	17.816
808.84	18.597
809.01	21.056
809.19	17.275
809.36	25.016
809.53	18.164
809.71	15.591
809.88	28.988
810.06	21.647
810.23	24.042
810.41	24.543
810.58	23.588
810.75	19.647
810.93	16.836
811.10	20.428
811.28	25.465
811.45	21.168
811.62	22.535
811.80	18.893
811.97	23.525
812.15	29.582
812.32	16.893
812.49	20.212
812.67	24.178
812.84	11.645
813.02	23.071
813.19	20.448
813.36	22.128
813.54	16.558
813.71	24.788
813.89	17.742
814.06	27.609
814.23	17.391
814.41	18.211
814.58	20.697
814.75	22.313
814.93	18.942
815.10	19.393
815.28	12.644
815.45	15.896
815.62	22.852
815.80	16.563
815.97	19.024
816.14	21.325
816.32	24.436
816.49	15.422
816.66	23.711
816.84	22.892
817.01	18.836
817.18	21.604
817.36	22.869
817.53	13.166
817.71	14.229
817.88	13.754
818.05	14.664
818.23	21.412
818.40	10.312
818.57	19.347
818.75	14.858
818.92	14.154
819.09	15.601
819.27	21.851
819.44	17.176
819.61	17.743
819.79	22.537
819.96	21.488
820.13	18.301
820.31	18.841
820.48	19.760
820.65	19.702
820.82	19.050
821.00	21.873
821.17	17.635
821.34	18.998
821.52	15.899
821.69	18.562
821.86	17.189
822.04	21.105
822.21	23.473
822.38	27.030
822.56	23.226
822.73	28.449
822.90	27.142
823.07	29.448
823.25	29.087
823.42	29.233
823.59	28.042
823.77	30.460
823.94	28.615
824.11	28.643
824.29	29.013
824.46	29.017
824.63	28.241
824.80	27.771
824.98	25.224
825.15	27.948
825.32	23.952
825.49	27.340
825.67	24.013
825.84	27.725
826.01	22.517
826.19	25.792
826.36	18.663
826.53	25.293
826.70	20.545
826.88	26.461
827.05	22.516
827.22	19.752
827.39	24.280
827.57	21.703
827.74	20.010
827.91	24.956
828.08	19.545
828.26	24.077
828.43	21.643
828.60	25.036
828.77	22.330
828.95	21.309
829.12	20.135
829.29	17.272
829.46	21.894
829.64	20.865
829.81	16.737
829.98	20.559
830.15	21.038
830.32	22.078
830.50	21.232
830.67	17.015
830.84	18.520
831.01	16.394
831.19	19.347
831.36	22.668
831.53	17.886
831.70	17.065
831.87	14.706
832.05	17.476
832.22	21.330
832.39	19.499
832.56	19.892
832.74	21.384
832.91	15.158
833.08	22.238
833.25	16.480
833.42	16.171
833.60	20.758
833.77	12.859
833.94	14.026
834.11	17.426
834.28	12.783
834.45	20.948
834.63	13.909
834.80	21.540
834.97	17.463
835.14	21.588
835.31	20.485
835.49	20.306
835.66	20.450
835.83	18.463
836.00	16.981
836.17	21.452
836.34	15.095
836.52	20.085
836.69	19.825
836.86	24.008
837.03	19.379
837.20	17.774
837.37	17.494
837.55	9.784
837.72	17.004
837.89	21.344
838.06	17.974
838.23	20.318
838.40	19.600
838.58	23.917
838.75	11.972
838.92	18.457
839.09	26.471
839.26	20.452
839.43	19.979
839.60	22.529
839.78	29.783
839.95	21.544
840.12	21.017
840.29	31.951
840.46	18.806
840.63	24.674
840.80	24.721
840.98	20.450
841.15	21.469
841.32	16.248
841.49	20.580
841.66	25.607
841.83	18.661
842.00	22.669
842.17	28.613
842.34	15.137
842.52	23.541
842.69	18.162
842.86	22.196
843.03	32.880
843.20	18.365
843.37	24.528
843.54	20.690
843.71	23.351
843.88	20.167
844.06	35.972
844.23	20.989
844.40	10.090
844.57	31.522
844.74	32.373
844.91	21.779
845.08	39.117
845.25	24.874
845.42	21.234
845.59	43.050
845.76	17.127
845.94	23.936
846.11	37.919
846.28	20.078
846.45	30.593
846.62	26.144
846.79	41.721
846.96	28.902
847.13	26.376
847.30	29.359
847.47	24.644
847.64	27.505
847.81	24.110
847.98	42.946
848.15	37.053
848.32	38.783
848.50	32.213
848.67	27.057
848.84	15.385
849.01	30.488
849.18	12.065
849.35	34.980
849.52	55.248
849.69	29.002
849.86	40.271
850.03	27.400
850.20	21.013
850.37	26.037
850.54	39.806
850.71	33.703
850.88	20.747
851.05	21.250
851.22	40.583
851.39	32.638
851.56	23.861
851.73	26.588
851.90	26.606
852.07	29.496
852.24	33.268
852.41	25.054
852.58	15.952
852.75	36.744
852.92	25.956
853.09	40.730
853.26	21.263
853.43	36.444
853.60	29.314
853.77	30.536
853.94	42.300
854.11	28.538
854.28	35.610
854.45	31.333
854.62	15.065
854.79	35.177
854.96	32.143
855.13	36.427
855.30	20.750
855.47	34.184
855.64	36.080
855.81	34.450
855.98	38.753
856.15	35.163
856.32	31.106
856.49	29.551
856.66	32.160
856.83	46.552
857.00	35.983
857.17	45.114
857.34	39.474
857.51	41.319
857.68	28.640
857.85	34.237
858.02	22.249
858.19	32.661
858.36	29.630
858.53	43.469
858.70	38.377
858.87	26.389
859.04	32.127
859.21	49.784
859.38	42.500
859.55	40.633
859.72	25.434
859.89	34.402
860.05	13.480
860.22	49.737
860.39	30.385
860.56	33.081
860.73	37.709
860.90	30.822
861.07	25.342
861.24	28.604
861.41	28.042
861.58	32.000
861.75	32.936
861.92	23.851
862.09	50.633
862.26	44.917
862.43	21.488
862.59	37.731
862.76	29.087
862.93	28.378
863.10	22.673
863.27	21.534
863.44	44.118
863.61	41.364
863.78	32.537
863.95	34.442
864.12	42.679
864.29	38.298
864.45	47.355
864.62	28.010
864.79	42.574
864.96	23.821
865.13	34.590
865.30	33.333
865.47	37.604
865.64	36.085
865.81	38.843
865.97	27.818
866.14	47.661
866.31	31.690
866.48	27.489
866.65	38.021
866.82	35.731
866.99	48.285
867.16	47.120
867.33	26.118
867.49	31.540
867.66	43.614
867.83	46.916
868.00	23.040
868.17	34.483
868.34	34.152
868.51	28.744
868.67	33.175
868.84	35.402
869.01	42.166
869.18	40.244
869.35	32.892
869.52	42.250
869.69	42.988
869.85	41.481
870.02	21.117
870.19	50.957
870.36	29.365
870.53	45.688
870.70	50.213
870.86	25.907
871.03	48.724
871.20	27.228
871.37	50.663
871.54	26.902
871.71	32.767
871.87	49.185
872.04	38.944
872.21	29.581
872.38	48.411
872.55	34.937
872.72	41.667
872.88	44.789
873.05	38.904
873.22	45.030
873.39	43.262
873.56	30.524
873.72	45.192
873.89	37.209
874.06	23.969
874.23	32.461
874.40	36.802
874.56	43.035
874.73	29.612
874.90	21.925
875.07	28.603
875.24	39.379
875.40	26.966
875.57	33.409
875.74	40.488
875.91	38.211
876.08	33.040
876.24	30.579
876.41	39.340
876.58	49.642
876.75	33.609
876.92	41.741
877.08	45.508
877.25	22.680
877.42	43.293
877.59	37.309
877.75	43.992
877.92	25.285
878.09	43.852
878.26	48.996
878.42	28.723
878.59	35.841
878.76	44.466
878.93	52.715
879.09	39.520
879.26	32.367
879.43	34.607
879.60	36.106
879.76	31.495
879.93	7.921
880.10	16.512
880.27	28.205
880.43	29.743
880.60	32.602
880.77	14.000
880.94	20.599
881.10	18.268
881.27	24.924
881.44	9.859
881.61	23.065
881.77	19.330
881.94	17.603
882.11	16.271
882.28	10.189
882.44	16.413
882.61	13.813
882.78	17.176
882.94	19.940
883.11	19.885
883.28	19.714
883.45	18.333
883.61	17.053
883.78	17.136
883.95	22.129
884.11	16.063
884.28	14.246
>>>>>End Processed Spectral Data<<<<<
