SpectraSuite Data File
++++++++++++++++++++++++++++++++++++
Date: Mon Sep 23 03:31:44 EST 2019
User: sgrac
Dark Spectrum Present: Yes
Reference Spectrum Present: Yes
Number of Sampled Component Spectra: 1
Spectrometers: USB4E01596
Integration Time (usec): 100000 (USB4E01596)
Spectra Averaged: 3 (USB4E01596)
Boxcar Smoothing: 0 (USB4E01596)
Correct for Electrical Dark: No (USB4E01596)
Strobe/Lamp Enabled: Yes (USB4E01596)
Correct for Detector Non-linearity: No (USB4E01596)
Correct for Stray Light: No (USB4E01596)
Number of Pixels in Processed Spectrum: 3648
>>>>>Begin Processed Spectral Data<<<<<
178.44	1576.923
178.66	1576.923
178.87	1576.923
179.09	5900.000
179.30	-3950.000
179.52	-445.161
179.74	-400.000
179.95	556.818
180.17	-502.778
180.38	436.842
180.60	-1827.273
180.82	742.222
181.03	3216.667
181.25	-1633.333
181.46	-1012.000
181.68	1245.833
181.89	-636.364
182.11	-1387.500
182.33	-1568.750
182.54	583.333
182.76	4683.333
182.97	-478.723
183.19	1010.000
183.40	280.992
183.62	416.667
183.84	282.727
184.05	4971.429
184.27	337.879
184.48	415.152
184.70	1588.235
184.91	1109.524
185.13	2330.000
185.34	-13500.000
185.56	938.462
185.78	356.944
185.99	805.556
186.21	312.500
186.42	-4850.000
186.64	1770.000
186.85	-4080.000
187.07	436.000
187.28	348.684
187.50	463.636
187.72	275.641
187.93	703.636
188.15	339.583
188.36	386.842
188.58	432.653
188.79	249.038
189.01	447.887
189.22	778.378
189.44	-745.455
189.65	232.203
189.87	-5875.000
190.09	500.000
190.30	850.000
190.52	483.333
190.73	695.652
190.95	-3416.667
191.16	259.524
191.38	398.649
191.59	319.118
191.81	416.129
192.02	1146.667
192.24	671.875
192.45	888.235
192.67	-1718.750
192.88	413.208
193.10	536.066
193.31	715.000
193.53	233.065
193.74	330.667
193.96	1764.286
194.18	715.385
194.39	1886.667
194.61	412.329
194.82	1290.909
195.04	248.780
195.25	-389.474
195.47	-414.815
195.68	5033.333
195.90	480.000
196.11	305.970
196.33	18100.000
196.54	578.049
196.76	1564.286
196.97	401.299
197.19	762.162
197.40	1757.143
197.62	236.697
197.83	800.000
198.05	572.727
198.26	727.586
198.48	346.479
198.69	440.000
198.91	772.222
199.12	576.744
199.34	613.043
199.55	295.714
199.77	1863.158
199.98	897.059
200.20	318.421
200.41	501.613
200.63	292.035
200.84	1707.143
201.06	2255.556
201.27	714.634
201.49	418.310
201.70	-783.333
201.91	415.278
202.13	447.458
202.34	448.276
202.56	-960.000
202.77	631.111
202.99	5650.000
203.20	-2825.000
203.42	1675.000
203.63	388.158
203.85	3550.000
204.06	490.000
204.28	202.020
204.49	498.148
204.71	391.525
204.92	826.923
205.14	0.000
205.35	890.000
205.56	-1200.000
205.78	4920.000
205.99	-1514.286
206.21	9800.000
206.42	484.091
206.64	893.548
206.85	681.481
207.07	-2177.778
207.28	377.586
207.50	665.217
207.71	770.968
207.93	349.398
208.14	-981.481
208.35	401.818
208.57	840.000
208.78	-2311.111
209.00	331.915
209.21	-10300.000
209.43	-8033.333
209.64	-1480.000
209.86	227.835
210.07	396.512
210.28	419.718
210.50	931.034
210.71	494.118
210.93	197.059
211.14	328.090
211.36	1568.750
211.57	362.121
211.78	318.571
212.00	314.118
212.21	385.714
212.43	625.641
212.64	323.404
212.86	343.243
213.07	297.248
213.29	-761.111
213.50	232.609
213.71	343.678
213.93	284.146
214.14	1545.455
214.36	402.941
214.57	402.532
214.78	697.778
215.00	335.417
215.21	890.000
215.43	610.811
215.64	387.302
215.86	245.000
216.07	694.286
216.28	631.579
216.50	266.667
216.71	20200.000
216.93	395.455
217.14	1300.000
217.35	250.758
217.57	299.099
217.78	320.988
218.00	184.848
218.21	943.478
218.42	572.340
218.64	380.357
218.85	454.000
219.07	890.000
219.28	257.009
219.49	537.255
219.71	423.077
219.92	172.388
220.14	297.938
220.35	306.667
220.56	278.161
220.78	299.038
220.99	247.581
221.21	287.097
221.42	264.198
221.63	171.098
221.85	363.077
222.06	418.571
222.28	344.615
222.49	208.108
222.70	210.236
222.92	506.122
223.13	309.836
223.34	183.688
223.56	275.000
223.77	320.000
223.99	225.263
224.20	262.500
224.41	273.973
224.63	302.273
224.84	223.649
225.05	99.145
225.27	238.261
225.48	275.490
225.69	170.677
225.91	285.135
226.12	248.837
226.34	167.785
226.55	113.669
226.76	218.125
226.98	105.882
227.19	105.859
227.40	209.375
227.62	153.439
227.83	137.768
228.04	94.972
228.26	72.237
228.47	77.620
228.69	54.569
228.90	40.725
229.11	57.411
229.33	38.088
229.54	32.561
229.75	29.787
229.97	28.937
230.18	33.371
230.39	30.420
230.61	35.062
230.82	36.048
231.03	28.135
231.25	33.506
231.46	39.140
231.67	30.275
231.89	45.543
232.10	34.418
232.31	53.499
232.53	37.012
232.74	42.991
232.95	38.294
233.17	49.000
233.38	56.303
233.59	38.590
233.81	52.717
234.02	44.489
234.23	49.113
234.45	54.687
234.66	45.133
234.87	53.484
235.09	47.588
235.30	36.602
235.51	47.687
235.73	36.549
235.94	50.508
236.15	43.192
236.36	46.729
236.58	40.562
236.79	35.988
237.00	44.282
237.22	43.197
237.43	43.722
237.64	48.031
237.86	37.594
238.07	45.189
238.28	38.387
238.50	38.514
238.71	44.964
238.92	37.656
239.13	37.627
239.35	45.412
239.56	32.686
239.77	47.567
239.99	30.183
240.20	36.150
240.41	36.872
240.63	40.027
240.84	29.353
241.05	29.625
241.26	24.287
241.48	22.154
241.69	17.516
241.90	20.684
242.12	15.357
242.33	22.479
242.54	16.559
242.75	16.989
242.97	11.929
243.18	14.656
243.39	13.682
243.61	12.218
243.82	14.519
244.03	10.767
244.24	12.373
244.46	15.250
244.67	17.000
244.88	13.734
245.09	17.112
245.31	17.439
245.52	14.647
245.73	15.175
245.95	24.366
246.16	14.375
246.37	14.177
246.58	17.869
246.80	14.443
247.01	15.830
247.22	12.224
247.43	11.659
247.65	8.685
247.86	9.796
248.07	6.833
248.28	8.221
248.50	9.008
248.71	7.463
248.92	6.624
249.13	5.613
249.35	8.361
249.56	9.194
249.77	10.698
249.98	9.654
250.20	13.382
250.41	12.908
250.62	12.467
250.83	14.625
251.05	16.115
251.26	10.991
251.47	15.820
251.68	15.528
251.90	16.149
252.11	12.165
252.32	18.624
252.53	15.541
252.75	13.604
252.96	17.296
253.17	10.180
253.38	12.721
253.59	16.056
253.81	11.569
254.02	12.318
254.23	15.053
254.44	7.748
254.66	13.169
254.87	12.597
255.08	16.978
255.29	12.123
255.50	15.263
255.72	17.571
255.93	22.422
256.14	19.492
256.35	19.954
256.57	24.909
256.78	20.505
256.99	13.063
257.20	22.526
257.41	12.978
257.63	24.397
257.84	15.544
258.05	17.461
258.26	17.836
258.47	14.310
258.69	16.467
258.90	10.587
259.11	12.792
259.32	11.703
259.53	9.216
259.75	9.406
259.96	8.417
260.17	8.400
260.38	4.774
260.59	7.385
260.81	6.189
261.02	4.801
261.23	4.494
261.44	6.138
261.65	5.350
261.87	5.524
262.08	7.297
262.29	7.606
262.50	7.316
262.71	7.647
262.92	7.842
263.14	8.618
263.35	8.130
263.56	10.338
263.77	9.266
263.98	12.054
264.20	11.079
264.41	12.559
264.62	12.434
264.83	10.022
265.04	14.653
265.25	11.979
265.47	10.228
265.68	16.958
265.89	13.214
266.10	6.978
266.31	14.396
266.52	10.387
266.74	9.056
266.95	14.015
267.16	11.912
267.37	8.132
267.58	10.090
267.79	11.347
268.01	9.926
268.22	10.251
268.43	9.403
268.64	7.171
268.85	10.818
269.06	11.498
269.27	11.244
269.49	6.699
269.70	9.186
269.91	9.611
270.12	7.949
270.33	11.496
270.54	7.938
270.75	8.202
270.97	9.953
271.18	7.571
271.39	8.505
271.60	8.551
271.81	9.473
272.02	8.495
272.23	8.453
272.45	8.127
272.66	5.853
272.87	6.788
273.08	5.728
273.29	6.893
273.50	6.196
273.71	6.265
273.92	6.506
274.14	6.770
274.35	7.412
274.56	8.220
274.77	5.970
274.98	6.931
275.19	8.669
275.40	7.766
275.61	7.028
275.83	9.884
276.04	7.736
276.25	10.454
276.46	9.509
276.67	8.275
276.88	8.894
277.09	7.407
277.30	8.277
277.51	9.591
277.73	6.874
277.94	9.180
278.15	10.543
278.36	9.196
278.57	8.942
278.78	6.755
278.99	9.402
279.20	9.923
279.41	11.125
279.62	8.320
279.84	9.617
280.05	8.594
280.26	5.962
280.47	8.930
280.68	8.432
280.89	8.084
281.10	8.720
281.31	8.999
281.52	9.940
281.73	8.272
281.94	7.081
282.16	7.553
282.37	7.341
282.58	8.606
282.79	7.395
283.00	10.108
283.21	8.095
283.42	6.404
283.63	8.451
283.84	7.177
284.05	6.732
284.26	6.053
284.47	6.944
284.68	6.880
284.89	7.325
285.11	9.066
285.32	4.865
285.53	8.519
285.74	8.602
285.95	5.901
286.16	7.507
286.37	5.855
286.58	6.347
286.79	4.464
287.00	4.635
287.21	5.721
287.42	4.902
287.63	6.236
287.84	5.448
288.05	6.491
288.26	4.631
288.48	7.127
288.69	5.134
288.90	7.045
289.11	8.095
289.32	6.650
289.53	8.186
289.74	5.918
289.95	8.011
290.16	6.093
290.37	5.955
290.58	5.718
290.79	4.910
291.00	4.899
291.21	5.288
291.42	5.842
291.63	6.116
291.84	8.154
292.05	5.258
292.26	5.058
292.47	6.702
292.68	4.770
292.89	7.963
293.10	7.210
293.31	5.519
293.52	6.136
293.73	6.599
293.94	7.270
294.15	5.535
294.36	7.292
294.57	5.962
294.79	7.487
295.00	4.384
295.21	7.749
295.42	6.582
295.63	7.347
295.84	5.837
296.05	6.085
296.26	4.279
296.47	6.557
296.68	5.993
296.89	9.218
297.10	6.019
297.31	6.754
297.52	3.730
297.73	6.428
297.94	5.434
298.15	4.665
298.36	5.626
298.57	5.391
298.78	6.001
298.99	5.449
299.20	6.713
299.41	6.921
299.62	6.774
299.83	5.848
300.04	5.208
300.25	7.250
300.46	8.154
300.67	7.154
300.88	6.604
301.09	6.811
301.30	7.663
301.50	6.342
301.71	8.838
301.92	9.068
302.13	8.602
302.34	6.039
302.55	6.986
302.76	6.524
302.97	7.152
303.18	8.333
303.39	7.198
303.60	6.777
303.81	8.103
304.02	5.860
304.23	7.125
304.44	6.681
304.65	5.771
304.86	7.052
305.07	4.999
305.28	6.498
305.49	9.403
305.70	7.683
305.91	6.894
306.12	7.960
306.33	7.455
306.54	5.899
306.75	7.725
306.96	10.466
307.17	7.522
307.38	6.581
307.58	8.717
307.79	6.631
308.00	6.846
308.21	5.720
308.42	8.225
308.63	6.860
308.84	6.970
309.05	6.091
309.26	4.427
309.47	8.362
309.68	6.060
309.89	7.396
310.10	7.200
310.31	6.551
310.52	5.294
310.73	8.560
310.94	5.699
311.14	7.088
311.35	6.196
311.56	6.937
311.77	6.069
311.98	4.906
312.19	6.319
312.40	4.281
312.61	5.077
312.82	6.006
313.03	5.256
313.24	7.697
313.45	6.924
313.66	5.937
313.86	8.811
314.07	6.427
314.28	8.220
314.49	6.226
314.70	7.822
314.91	9.053
315.12	6.702
315.33	7.041
315.54	6.601
315.75	5.365
315.96	4.247
316.16	5.908
316.37	6.461
316.58	5.612
316.79	8.300
317.00	7.153
317.21	7.107
317.42	7.536
317.63	6.389
317.84	6.440
318.05	7.389
318.25	9.129
318.46	6.062
318.67	6.742
318.88	7.929
319.09	10.404
319.30	6.988
319.51	6.675
319.72	8.559
319.93	7.186
320.13	7.019
320.34	8.210
320.55	8.742
320.76	9.187
320.97	6.708
321.18	9.256
321.39	4.767
321.60	8.513
321.80	10.726
322.01	7.982
322.22	6.506
322.43	6.546
322.64	7.108
322.85	7.804
323.06	8.974
323.27	7.211
323.47	7.938
323.68	8.008
323.89	6.476
324.10	8.805
324.31	5.702
324.52	7.933
324.73	9.089
324.93	6.799
325.14	8.333
325.35	7.867
325.56	5.641
325.77	7.029
325.98	7.947
326.19	7.081
326.39	6.076
326.60	6.529
326.81	6.619
327.02	6.428
327.23	6.484
327.44	9.364
327.64	5.416
327.85	5.880
328.06	8.347
328.27	10.226
328.48	8.075
328.69	6.191
328.90	6.664
329.10	8.010
329.31	8.348
329.52	6.593
329.73	9.896
329.94	7.734
330.15	8.785
330.35	9.613
330.56	8.929
330.77	8.980
330.98	5.098
331.19	7.686
331.39	8.582
331.60	8.422
331.81	7.692
332.02	7.180
332.23	7.818
332.44	7.679
332.64	8.682
332.85	7.303
333.06	8.646
333.27	6.381
333.48	7.872
333.68	5.989
333.89	7.702
334.10	7.043
334.31	9.296
334.52	7.970
334.72	8.080
334.93	8.132
335.14	7.205
335.35	7.589
335.56	8.855
335.76	6.365
335.97	9.245
336.18	6.833
336.39	9.223
336.60	8.108
336.80	6.982
337.01	7.863
337.22	8.239
337.43	8.304
337.64	9.977
337.84	10.809
338.05	8.287
338.26	10.804
338.47	10.127
338.68	6.268
338.88	9.128
339.09	8.032
339.30	10.558
339.51	9.281
339.71	10.140
339.92	7.142
340.13	9.253
340.34	10.211
340.55	9.776
340.75	10.290
340.96	8.502
341.17	11.266
341.38	8.525
341.58	10.154
341.79	9.368
342.00	7.653
342.21	9.549
342.41	7.091
342.62	9.261
342.83	10.923
343.04	8.331
343.24	10.429
343.45	11.332
343.66	8.322
343.87	10.657
344.07	8.606
344.28	11.014
344.49	10.936
344.70	11.970
344.90	10.006
345.11	8.539
345.32	9.857
345.53	9.485
345.73	12.101
345.94	13.930
346.15	12.409
346.36	12.001
346.56	12.172
346.77	13.192
346.98	10.457
347.19	13.226
347.39	10.947
347.60	11.948
347.81	12.755
348.02	12.717
348.22	10.983
348.43	12.117
348.64	10.828
348.84	12.352
349.05	13.113
349.26	16.368
349.47	10.765
349.67	12.283
349.88	14.782
350.09	12.742
350.30	15.014
350.50	12.806
350.71	13.416
350.92	11.666
351.12	13.302
351.33	12.639
351.54	11.761
351.74	14.835
351.95	11.688
352.16	14.749
352.37	14.598
352.57	13.674
352.78	12.557
352.99	15.049
353.19	13.322
353.40	13.887
353.61	15.607
353.82	14.585
354.02	16.019
354.23	13.841
354.44	15.345
354.64	13.566
354.85	15.044
355.06	15.278
355.26	13.501
355.47	13.683
355.68	15.038
355.88	15.343
356.09	15.413
356.30	13.145
356.51	17.645
356.71	14.771
356.92	11.653
357.13	15.452
357.33	16.655
357.54	15.268
357.75	11.345
357.95	15.987
358.16	11.805
358.37	15.935
358.57	12.640
358.78	16.317
358.99	13.574
359.19	14.154
359.40	15.243
359.61	13.222
359.81	15.754
360.02	16.695
360.23	13.995
360.43	13.513
360.64	12.979
360.85	15.036
361.05	12.571
361.26	15.909
361.47	13.824
361.67	15.857
361.88	12.815
362.09	14.610
362.29	12.149
362.50	13.398
362.70	11.736
362.91	14.444
363.12	12.894
363.32	14.100
363.53	14.278
363.74	14.906
363.94	12.385
364.15	16.561
364.36	15.880
364.56	13.643
364.77	14.112
364.98	16.576
365.18	14.300
365.39	16.193
365.59	12.698
365.80	14.532
366.01	14.757
366.21	14.007
366.42	11.883
366.63	14.294
366.83	13.756
367.04	11.533
367.24	15.082
367.45	12.732
367.66	11.553
367.86	14.283
368.07	12.116
368.28	12.259
368.48	13.679
368.69	11.658
368.89	14.101
369.10	14.312
369.31	12.897
369.51	13.387
369.72	14.603
369.92	15.015
370.13	11.766
370.34	13.427
370.54	8.928
370.75	13.097
370.95	11.453
371.16	12.822
371.37	12.750
371.57	12.171
371.78	11.654
371.98	13.090
372.19	12.171
372.40	13.424
372.60	12.322
372.81	13.639
373.01	10.571
373.22	11.622
373.43	12.642
373.63	13.454
373.84	12.458
374.04	12.055
374.25	11.138
374.46	13.827
374.66	12.937
374.87	13.595
375.07	9.561
375.28	10.655
375.48	11.792
375.69	12.054
375.90	9.291
376.10	10.103
376.31	11.256
376.51	10.194
376.72	10.797
376.92	9.682
377.13	11.545
377.34	12.339
377.54	10.326
377.75	12.561
377.95	10.474
378.16	12.357
378.36	11.550
378.57	12.987
378.77	10.772
378.98	11.786
379.19	11.313
379.39	10.823
379.60	11.633
379.80	11.337
380.01	12.335
380.21	10.872
380.42	11.984
380.62	12.219
380.83	11.306
381.04	11.215
381.24	11.417
381.45	11.446
381.65	8.874
381.86	11.246
382.06	10.839
382.27	10.244
382.47	9.113
382.68	11.164
382.88	9.492
383.09	10.290
383.29	10.651
383.50	11.846
383.71	10.254
383.91	11.027
384.12	10.044
384.32	11.510
384.53	10.170
384.73	9.583
384.94	8.732
385.14	9.667
385.35	9.188
385.55	10.589
385.76	9.465
385.96	10.086
386.17	10.126
386.37	10.819
386.58	10.410
386.78	11.182
386.99	8.427
387.19	11.322
387.40	9.373
387.60	12.120
387.81	9.323
388.01	10.513
388.22	9.971
388.42	11.327
388.63	11.376
388.83	12.584
389.04	8.613
389.24	10.019
389.45	10.509
389.65	9.077
389.86	10.018
390.06	9.217
390.27	9.395
390.47	9.116
390.68	9.088
390.88	11.448
391.09	10.591
391.29	11.074
391.50	10.059
391.70	10.668
391.91	9.267
392.11	9.241
392.32	9.847
392.52	10.788
392.73	9.161
392.93	10.823
393.14	9.884
393.34	9.489
393.55	10.559
393.75	10.126
393.95	9.562
394.16	10.765
394.36	10.837
394.57	11.250
394.77	9.297
394.98	9.725
395.18	9.838
395.39	10.000
395.59	9.345
395.80	9.367
396.00	10.304
396.21	11.166
396.41	8.820
396.61	10.468
396.82	9.464
397.02	11.562
397.23	10.249
397.43	9.603
397.64	8.414
397.84	10.269
398.05	8.306
398.25	10.605
398.45	10.236
398.66	9.533
398.86	8.645
399.07	10.670
399.27	8.859
399.48	10.217
399.68	8.748
399.89	9.452
400.09	9.264
400.29	8.331
400.50	9.251
400.70	9.585
400.91	8.952
401.11	9.150
401.32	9.850
401.52	7.867
401.72	8.165
401.93	10.966
402.13	8.866
402.34	8.807
402.54	8.218
402.75	10.540
402.95	7.317
403.15	10.668
403.36	7.585
403.56	9.915
403.77	8.488
403.97	8.718
404.17	8.608
404.38	10.375
404.58	7.654
404.79	10.232
404.99	9.367
405.19	9.046
405.40	8.499
405.60	8.810
405.81	8.215
406.01	8.614
406.21	7.931
406.42	9.017
406.62	8.264
406.83	9.639
407.03	10.236
407.23	8.390
407.44	8.168
407.64	9.733
407.85	8.638
408.05	8.132
408.25	8.658
408.46	9.800
408.66	8.595
408.87	8.655
409.07	8.768
409.27	7.938
409.48	8.022
409.68	8.897
409.88	6.579
410.09	8.344
410.29	8.821
410.50	9.334
410.70	7.335
410.90	8.053
411.11	7.799
411.31	8.100
411.51	9.235
411.72	8.796
411.92	7.694
412.12	8.374
412.33	7.653
412.53	8.078
412.74	7.092
412.94	8.292
413.14	8.541
413.35	8.558
413.55	8.488
413.75	9.512
413.96	6.764
414.16	7.616
414.36	7.690
414.57	8.468
414.77	7.545
414.97	8.385
415.18	7.161
415.38	8.764
415.58	8.243
415.79	7.359
415.99	6.848
416.19	8.698
416.40	8.074
416.60	8.021
416.80	7.676
417.01	7.568
417.21	6.523
417.41	9.101
417.62	8.024
417.82	8.458
418.02	7.168
418.23	8.768
418.43	7.469
418.63	8.315
418.84	8.319
419.04	7.683
419.24	8.314
419.45	9.057
419.65	8.551
419.85	8.696
420.06	8.422
420.26	8.470
420.46	8.657
420.67	9.046
420.87	8.743
421.07	8.883
421.28	8.251
421.48	8.900
421.68	8.798
421.88	9.007
422.09	8.878
422.29	8.528
422.49	8.408
422.70	8.654
422.90	8.567
423.10	9.288
423.31	8.987
423.51	8.997
423.71	8.481
423.91	9.257
424.12	8.820
424.32	9.043
424.52	8.494
424.73	8.562
424.93	8.585
425.13	8.502
425.33	8.344
425.54	8.834
425.74	8.358
425.94	8.909
426.15	8.667
426.35	8.786
426.55	8.639
426.75	9.277
426.96	8.786
427.16	8.455
427.36	8.574
427.57	8.760
427.77	8.506
427.97	8.688
428.17	8.856
428.38	8.788
428.58	7.420
428.78	9.325
428.98	6.966
429.19	7.999
429.39	6.935
429.59	8.389
429.79	7.088
430.00	7.212
430.20	7.024
430.40	7.518
430.60	7.487
430.81	7.599
431.01	7.802
431.21	8.128
431.41	7.163
431.62	7.999
431.82	7.259
432.02	8.153
432.22	6.929
432.43	7.433
432.63	7.094
432.83	7.768
433.03	7.326
433.24	7.121
433.44	6.891
433.64	8.115
433.84	7.054
434.05	8.254
434.25	7.818
434.45	8.718
434.65	8.434
434.85	8.461
435.06	8.151
435.26	7.972
435.46	7.826
435.66	8.413
435.87	7.747
436.07	8.118
436.27	7.872
436.47	7.338
436.67	6.965
436.88	8.200
437.08	7.746
437.28	7.885
437.48	7.665
437.69	8.465
437.89	7.853
438.09	8.153
438.29	7.254
438.49	8.512
438.70	7.576
438.90	7.649
439.10	7.142
439.30	7.944
439.50	6.896
439.71	8.097
439.91	7.669
440.11	8.400
440.31	7.646
440.51	7.557
440.72	7.763
440.92	8.047
441.12	8.028
441.32	8.532
441.52	8.473
441.72	8.188
441.93	8.094
442.13	8.308
442.33	7.987
442.53	8.583
442.73	7.818
442.94	8.103
443.14	7.974
443.34	8.660
443.54	8.135
443.74	8.628
443.94	8.021
444.15	7.645
444.35	7.533
444.55	8.337
444.75	7.590
444.95	7.999
445.15	7.634
445.36	7.892
445.56	7.044
445.76	7.752
445.96	7.387
446.16	7.660
446.36	7.244
446.57	8.391
446.77	7.169
446.97	7.897
447.17	8.114
447.37	8.385
447.57	8.145
447.77	8.019
447.98	7.942
448.18	8.308
448.38	7.796
448.58	8.374
448.78	8.196
448.98	8.531
449.18	8.016
449.39	8.039
449.59	7.805
449.79	8.127
449.99	7.500
450.19	8.260
450.39	7.696
450.59	8.034
450.79	7.496
451.00	8.090
451.20	8.768
451.40	7.918
451.60	7.083
451.80	7.838
452.00	6.859
452.20	8.189
452.40	7.230
452.61	7.513
452.81	7.475
453.01	7.366
453.21	7.052
453.41	7.729
453.61	7.384
453.81	7.293
454.01	7.255
454.21	7.784
454.42	7.844
454.62	7.784
454.82	7.314
455.02	7.768
455.22	7.010
455.42	7.265
455.62	6.531
455.82	7.855
456.02	7.203
456.23	7.549
456.43	7.155
456.63	7.529
456.83	6.827
457.03	7.994
457.23	7.397
457.43	7.700
457.63	7.070
457.83	7.478
458.03	6.913
458.23	7.637
458.43	6.544
458.64	7.144
458.84	7.431
459.04	7.261
459.24	7.305
459.44	7.538
459.64	7.767
459.84	7.165
460.04	7.546
460.24	7.702
460.44	7.494
460.64	7.890
460.84	7.614
461.04	8.336
461.24	7.908
461.45	8.374
461.65	8.275
461.85	8.043
462.05	7.771
462.25	8.244
462.45	8.631
462.65	7.907
462.85	7.214
463.05	8.184
463.25	6.589
463.45	8.138
463.65	7.309
463.85	7.705
464.05	7.087
464.25	7.390
464.45	7.041
464.65	7.519
464.85	6.797
465.05	7.437
465.26	7.201
465.46	7.462
465.66	7.449
465.86	7.117
466.06	7.233
466.26	7.280
466.46	6.281
466.66	7.362
466.86	7.022
467.06	7.451
467.26	7.853
467.46	7.433
467.66	6.942
467.86	7.309
468.06	7.314
468.26	7.333
468.46	7.265
468.66	7.511
468.86	6.244
469.06	7.620
469.26	7.177
469.46	7.703
469.66	6.426
469.86	7.582
470.06	7.263
470.26	7.957
470.46	6.714
470.66	7.918
470.86	6.404
471.06	7.231
471.26	6.616
471.46	6.874
471.66	7.021
471.86	7.100
472.06	6.422
472.26	8.076
472.46	7.797
472.66	7.837
472.86	6.817
473.06	7.620
473.26	7.516
473.46	7.418
473.66	6.930
473.86	7.318
474.06	6.452
474.26	7.391
474.46	6.620
474.66	7.634
474.86	7.258
475.06	7.732
475.26	6.961
475.46	7.793
475.66	6.750
475.86	7.199
476.06	7.471
476.26	7.387
476.46	6.872
476.66	7.838
476.86	6.251
477.06	7.236
477.26	6.900
477.46	7.070
477.65	7.151
477.85	7.443
478.05	6.729
478.25	8.447
478.45	6.987
478.65	7.531
478.85	6.678
479.05	7.668
479.25	7.277
479.45	7.757
479.65	7.148
479.85	7.370
480.05	7.099
480.25	7.721
480.45	7.289
480.65	7.724
480.85	7.045
481.05	7.728
481.25	7.938
481.44	7.630
481.64	6.840
481.84	7.710
482.04	7.488
482.24	7.974
482.44	7.152
482.64	7.694
482.84	7.517
483.04	7.838
483.24	7.294
483.44	7.494
483.64	7.378
483.84	7.392
484.04	7.549
484.23	7.674
484.43	7.750
484.63	7.900
484.83	7.956
485.03	8.365
485.23	8.421
485.43	8.385
485.63	8.328
485.83	8.316
486.03	8.454
486.23	8.398
486.42	8.573
486.62	8.339
486.82	8.238
487.02	8.158
487.22	8.009
487.42	8.103
487.62	7.878
487.82	7.807
488.02	7.761
488.22	7.717
488.41	7.898
488.61	7.931
488.81	7.936
489.01	8.125
489.21	8.202
489.41	8.388
489.61	8.271
489.81	8.343
490.01	8.450
490.20	8.537
490.40	8.350
490.60	8.475
490.80	8.099
491.00	8.229
491.20	7.938
491.40	7.817
491.60	7.821
491.79	7.816
491.99	7.776
492.19	7.666
492.39	7.898
492.59	7.899
492.79	8.003
492.99	8.093
493.19	8.159
493.38	8.420
493.58	8.214
493.78	8.368
493.98	8.604
494.18	8.514
494.38	8.094
494.58	8.944
494.77	8.093
494.97	8.192
495.17	7.732
495.37	8.016
495.57	8.246
495.77	7.954
495.96	8.069
496.16	7.609
496.36	7.679
496.56	8.213
496.76	7.512
496.96	7.767
497.15	7.770
497.35	7.951
497.55	7.720
497.75	8.132
497.95	8.035
498.15	8.270
498.34	7.752
498.54	8.096
498.74	8.548
498.94	8.589
499.14	8.229
499.34	8.755
499.53	8.141
499.73	8.542
499.93	7.901
500.13	8.468
500.33	7.878
500.52	8.739
500.72	8.223
500.92	8.221
501.12	7.962
501.32	8.327
501.52	8.643
501.71	8.699
501.91	7.964
502.11	8.267
502.31	8.055
502.51	8.861
502.70	7.792
502.90	8.624
503.10	7.858
503.30	9.017
503.50	8.258
503.69	8.312
503.89	8.366
504.09	8.581
504.29	8.286
504.48	8.692
504.68	8.453
504.88	8.653
505.08	8.309
505.28	8.601
505.47	8.497
505.67	8.847
505.87	8.733
506.07	8.629
506.27	8.436
506.46	8.785
506.66	8.047
506.86	9.016
507.06	8.794
507.25	9.329
507.45	8.765
507.65	9.112
507.85	8.209
508.04	9.158
508.24	8.364
508.44	8.603
508.64	8.255
508.83	8.747
509.03	8.012
509.23	8.434
509.43	8.057
509.63	8.708
509.82	8.402
510.02	8.894
510.22	8.235
510.42	8.837
510.61	8.550
510.81	8.776
511.01	8.778
511.21	8.904
511.40	8.390
511.60	8.976
511.80	8.441
511.99	8.751
512.19	8.504
512.39	8.911
512.59	8.617
512.78	8.804
512.98	8.892
513.18	8.912
513.38	8.722
513.57	8.873
513.77	8.824
513.97	9.006
514.17	8.714
514.36	8.812
514.56	8.878
514.76	9.148
514.95	8.043
515.15	9.017
515.35	8.316
515.55	8.633
515.74	8.584
515.94	9.039
516.14	8.414
516.33	8.943
516.53	8.343
516.73	8.587
516.93	8.299
517.12	8.935
517.32	8.509
517.52	8.814
517.71	8.389
517.91	8.662
518.11	8.463
518.30	8.509
518.50	8.245
518.70	8.572
518.90	8.353
519.09	8.655
519.29	8.591
519.49	8.665
519.68	8.530
519.88	8.952
520.08	8.834
520.27	8.861
520.47	8.897
520.67	8.745
520.86	8.731
521.06	9.046
521.26	8.451
521.45	9.031
521.65	8.781
521.85	8.863
522.04	8.408
522.24	8.961
522.44	8.271
522.63	8.373
522.83	8.352
523.03	8.979
523.22	8.411
523.42	9.382
523.62	8.377
523.81	8.754
524.01	8.887
524.21	8.664
524.40	8.360
524.60	8.730
524.80	8.069
524.99	8.476
525.19	8.412
525.39	8.336
525.58	8.083
525.78	8.302
525.98	8.383
526.17	8.649
526.37	8.189
526.57	8.682
526.76	8.412
526.96	8.627
527.15	8.490
527.35	8.846
527.55	8.405
527.74	8.922
527.94	8.566
528.14	8.270
528.33	8.418
528.53	8.310
528.72	8.199
528.92	8.383
529.12	8.428
529.31	8.493
529.51	8.672
529.71	8.657
529.90	8.691
530.10	8.710
530.29	8.783
530.49	9.055
530.69	9.012
530.88	9.291
531.08	8.888
531.28	9.184
531.47	9.213
531.67	9.179
531.86	8.982
532.06	9.063
532.26	8.591
532.45	8.542
532.65	8.713
532.84	8.651
533.04	8.361
533.24	8.533
533.43	8.434
533.63	8.715
533.82	8.515
534.02	8.930
534.22	8.856
534.41	8.815
534.61	8.759
534.80	8.907
535.00	9.102
535.19	9.082
535.39	9.078
535.59	8.919
535.78	8.937
535.98	9.076
536.17	8.936
536.37	8.750
536.57	8.593
536.76	8.818
536.96	8.351
537.15	8.928
537.35	8.522
537.54	8.922
537.74	8.783
537.93	9.055
538.13	9.040
538.33	8.969
538.52	8.939
538.72	9.248
538.91	9.139
539.11	9.291
539.30	9.163
539.50	9.393
539.70	8.767
539.89	9.095
540.09	8.687
540.28	9.146
540.48	8.328
540.67	8.932
540.87	8.585
541.06	8.738
541.26	8.629
541.45	8.846
541.65	8.904
541.85	8.753
542.04	9.031
542.24	8.907
542.43	9.016
542.63	9.238
542.82	9.192
543.02	9.303
543.21	9.418
543.41	9.545
543.60	9.559
543.80	9.604
543.99	9.617
544.19	9.525
544.38	9.591
544.58	9.701
544.77	9.453
544.97	9.681
545.16	9.294
545.36	9.457
545.56	9.460
545.75	9.478
545.95	9.518
546.14	9.435
546.34	9.407
546.53	9.676
546.73	9.226
546.92	9.758
547.12	9.365
547.31	9.597
547.51	9.591
547.70	9.597
547.90	9.707
548.09	9.984
548.29	9.572
548.48	9.854
548.68	9.604
548.87	9.706
549.07	10.133
549.26	9.710
549.46	10.090
549.65	9.775
549.84	9.722
550.04	10.230
550.23	9.395
550.43	9.689
550.62	9.587
550.82	10.196
551.01	9.535
551.21	10.039
551.40	9.064
551.60	10.352
551.79	9.344
551.99	9.828
552.18	9.506
552.38	9.934
552.57	9.717
552.77	10.082
552.96	9.817
553.16	10.361
553.35	9.855
553.54	10.547
553.74	10.321
553.93	10.680
554.13	10.762
554.32	11.147
554.52	10.543
554.71	10.794
554.91	9.983
555.10	10.984
555.29	9.880
555.49	11.104
555.68	10.394
555.88	10.937
556.07	10.382
556.27	10.556
556.46	10.437
556.66	11.024
556.85	10.843
557.04	11.025
557.24	10.560
557.43	11.550
557.63	10.899
557.82	11.279
558.02	10.755
558.21	11.611
558.40	10.673
558.60	11.348
558.79	11.072
558.99	11.606
559.18	11.063
559.38	10.828
559.57	11.436
559.76	11.364
559.96	12.018
560.15	11.923
560.35	10.827
560.54	11.361
560.73	10.901
560.93	11.853
561.12	11.180
561.32	11.867
561.51	11.392
561.70	12.263
561.90	11.868
562.09	12.268
562.29	11.309
562.48	12.169
562.67	11.553
562.87	12.274
563.06	11.746
563.26	12.310
563.45	12.157
563.64	12.713
563.84	12.430
564.03	12.395
564.23	11.604
564.42	12.931
564.61	11.866
564.81	12.359
565.00	12.803
565.20	13.020
565.39	13.259
565.58	13.227
565.78	12.693
565.97	13.143
566.16	13.249
566.36	13.184
566.55	13.094
566.74	13.281
566.94	13.304
567.13	13.446
567.33	13.420
567.52	13.644
567.71	13.547
567.91	13.778
568.10	13.868
568.29	13.762
568.49	13.671
568.68	14.405
568.87	13.960
569.07	14.411
569.26	13.982
569.45	14.256
569.65	13.869
569.84	13.534
570.04	13.711
570.23	14.227
570.42	13.452
570.62	14.360
570.81	14.146
571.00	14.321
571.20	14.220
571.39	14.772
571.58	14.286
571.78	14.476
571.97	14.350
572.16	14.413
572.36	14.289
572.55	14.747
572.74	14.399
572.94	14.652
573.13	14.632
573.32	14.813
573.51	14.489
573.71	15.152
573.90	14.194
574.09	14.961
574.29	14.709
574.48	14.701
574.67	14.749
574.87	14.712
575.06	14.411
575.25	14.993
575.45	14.783
575.64	14.657
575.83	14.372
576.03	15.604
576.22	14.697
576.41	14.712
576.60	14.802
576.80	14.914
576.99	14.865
577.18	15.379
577.38	14.652
577.57	15.040
577.76	14.598
577.95	14.754
578.15	14.915
578.34	15.098
578.53	14.914
578.73	15.668
578.92	14.735
579.11	15.017
579.30	15.387
579.50	15.237
579.69	14.532
579.88	15.219
580.08	14.520
580.27	14.777
580.46	14.462
580.65	14.805
580.85	14.883
581.04	15.170
581.23	14.330
581.42	15.312
581.62	14.438
581.81	14.919
582.00	14.679
582.19	14.766
582.39	14.357
582.58	14.778
582.77	14.929
582.96	14.300
583.16	14.299
583.35	14.827
583.54	14.966
583.73	14.989
583.93	14.385
584.12	14.428
584.31	13.408
584.50	14.685
584.70	14.209
584.89	14.612
585.08	14.405
585.27	15.580
585.47	14.146
585.66	14.819
585.85	14.220
586.04	14.173
586.24	14.349
586.43	14.770
586.62	14.454
586.81	14.600
587.00	13.834
587.20	14.567
587.39	13.672
587.58	15.187
587.77	13.777
587.97	14.908
588.16	14.274
588.35	14.554
588.54	13.569
588.73	14.400
588.93	14.068
589.12	14.447
589.31	14.132
589.50	14.498
589.69	14.444
589.89	14.597
590.08	14.130
590.27	14.028
590.46	14.108
590.65	14.321
590.85	13.695
591.04	13.778
591.23	14.469
591.42	15.065
591.61	13.973
591.81	14.792
592.00	14.092
592.19	14.621
592.38	13.777
592.57	14.994
592.77	14.449
592.96	14.543
593.15	14.859
593.34	14.365
593.53	13.813
593.72	14.653
593.92	13.928
594.11	14.716
594.30	13.903
594.49	14.723
594.68	14.363
594.87	14.535
595.07	13.943
595.26	15.020
595.45	13.962
595.64	14.584
595.83	13.917
596.02	14.781
596.22	14.000
596.41	14.737
596.60	14.110
596.79	15.204
596.98	14.531
597.17	14.757
597.37	14.660
597.56	15.635
597.75	14.291
597.94	15.114
598.13	15.153
598.32	14.813
598.51	15.205
598.71	15.732
598.90	15.195
599.09	15.984
599.28	15.089
599.47	15.567
599.66	14.916
599.85	15.393
600.05	14.473
600.24	15.516
600.43	15.168
600.62	15.273
600.81	15.452
601.00	15.880
601.19	14.729
601.38	16.302
601.58	15.056
601.77	15.725
601.96	14.780
602.15	16.330
602.34	15.950
602.53	16.289
602.72	14.895
602.91	15.593
603.10	15.269
603.30	15.202
603.49	15.019
603.68	15.474
603.87	15.230
604.06	15.649
604.25	15.557
604.44	15.520
604.63	15.663
604.82	15.895
605.01	16.146
605.21	15.592
605.40	16.102
605.59	16.371
605.78	15.911
605.97	15.688
606.16	16.069
606.35	16.466
606.54	15.987
606.73	16.319
606.92	15.896
607.11	16.833
607.30	15.867
607.50	15.648
607.69	15.910
607.88	15.335
608.07	15.482
608.26	15.091
608.45	15.265
608.64	16.090
608.83	14.559
609.02	15.278
609.21	14.236
609.40	15.370
609.59	14.279
609.78	15.270
609.97	15.243
610.16	15.023
610.35	15.491
610.55	15.256
610.74	14.883
610.93	15.697
611.12	14.917
611.31	15.136
611.50	15.012
611.69	15.088
611.88	15.133
612.07	15.209
612.26	14.054
612.45	14.267
612.64	14.491
612.83	14.353
613.02	13.720
613.21	13.753
613.40	13.181
613.59	14.527
613.78	12.618
613.97	14.190
614.16	13.397
614.35	14.014
614.54	11.875
614.73	13.495
614.92	13.518
615.11	13.248
615.30	12.332
615.49	12.161
615.68	12.889
615.87	13.196
616.07	12.735
616.26	13.070
616.45	13.143
616.64	12.945
616.83	12.649
617.02	13.782
617.21	12.150
617.40	11.395
617.59	12.764
617.78	13.306
617.97	12.306
618.16	11.970
618.35	11.523
618.54	12.939
618.73	12.661
618.92	12.772
619.11	12.008
619.30	12.879
619.49	11.832
619.68	13.030
619.86	12.423
620.05	12.738
620.24	11.907
620.43	12.592
620.62	10.739
620.81	12.273
621.00	12.495
621.19	13.072
621.38	12.488
621.57	12.336
621.76	11.358
621.95	12.278
622.14	12.475
622.33	12.996
622.52	11.249
622.71	12.949
622.90	11.413
623.09	12.339
623.28	11.999
623.47	11.676
623.66	11.736
623.85	12.134
624.04	10.735
624.23	10.956
624.42	11.874
624.61	11.432
624.80	11.056
624.99	11.830
625.18	10.837
625.36	11.821
625.55	11.955
625.74	11.482
625.93	11.118
626.12	12.181
626.31	12.359
626.50	12.055
626.69	11.655
626.88	12.603
627.07	12.268
627.26	11.774
627.45	11.432
627.64	12.128
627.83	11.331
628.02	12.462
628.20	11.490
628.39	11.664
628.58	12.092
628.77	12.555
628.96	11.189
629.15	11.403
629.34	11.787
629.53	11.279
629.72	10.298
629.91	12.552
630.10	10.667
630.29	10.813
630.47	10.443
630.66	11.130
630.85	10.145
631.04	11.287
631.23	9.898
631.42	10.712
631.61	9.953
631.80	11.333
631.99	9.690
632.18	10.069
632.36	9.444
632.55	11.591
632.74	9.662
632.93	10.446
633.12	9.828
633.31	10.434
633.50	9.990
633.69	11.237
633.88	9.697
634.06	10.204
634.25	10.167
634.44	10.575
634.63	10.629
634.82	11.353
635.01	10.277
635.20	10.260
635.39	9.391
635.57	11.037
635.76	10.200
635.95	10.888
636.14	8.517
636.33	10.180
636.52	9.609
636.71	10.470
636.89	9.831
637.08	10.145
637.27	8.685
637.46	9.723
637.65	10.000
637.84	10.173
638.03	9.596
638.21	10.998
638.40	9.805
638.59	9.707
638.78	10.415
638.97	11.157
639.16	10.850
639.34	10.549
639.53	9.277
639.72	10.417
639.91	9.472
640.10	9.509
640.29	10.581
640.47	10.428
640.66	10.061
640.85	11.395
641.04	8.573
641.23	10.392
641.42	9.771
641.60	10.292
641.79	9.684
641.98	10.823
642.17	9.784
642.36	10.610
642.54	9.531
642.73	10.190
642.92	8.888
643.11	9.722
643.30	9.471
643.49	9.623
643.67	8.464
643.86	11.129
644.05	9.052
644.24	9.602
644.43	9.116
644.61	9.623
644.80	8.952
644.99	9.724
645.18	11.578
645.37	10.127
645.55	9.119
645.74	9.317
645.93	9.694
646.12	9.868
646.31	10.053
646.49	10.289
646.68	10.546
646.87	9.665
647.06	9.583
647.24	9.500
647.43	7.534
647.62	10.409
647.81	7.680
648.00	10.364
648.18	7.742
648.37	9.433
648.56	9.638
648.75	9.256
648.93	8.499
649.12	10.205
649.31	9.721
649.50	9.350
649.68	9.427
649.87	8.922
650.06	8.450
650.25	10.164
650.43	9.594
650.62	8.457
650.81	9.094
651.00	9.650
651.18	8.158
651.37	11.360
651.56	8.777
651.75	10.742
651.93	8.721
652.12	9.242
652.31	8.809
652.50	10.052
652.68	9.370
652.87	10.237
653.06	10.051
653.25	10.486
653.43	9.197
653.62	10.460
653.81	9.341
654.00	10.007
654.18	9.253
654.37	10.559
654.56	9.523
654.74	7.356
654.93	9.025
655.12	8.682
655.31	8.893
655.49	8.932
655.68	7.895
655.87	7.373
656.05	6.842
656.24	9.123
656.43	7.165
656.62	9.732
656.80	7.580
656.99	7.874
657.18	7.878
657.36	7.953
657.55	8.337
657.74	7.995
657.93	9.682
658.11	10.198
658.30	8.562
658.49	8.261
658.67	7.869
658.86	8.166
659.05	7.100
659.23	8.858
659.42	7.626
659.61	8.276
659.79	8.459
659.98	8.003
660.17	8.669
660.35	8.474
660.54	8.617
660.73	9.833
660.91	8.790
661.10	9.041
661.29	7.313
661.47	6.897
661.66	7.469
661.85	8.119
662.03	9.276
662.22	7.366
662.41	6.606
662.59	8.498
662.78	7.248
662.97	7.803
663.15	7.309
663.34	6.411
663.53	6.629
663.71	8.285
663.90	6.545
664.09	8.980
664.27	8.360
664.46	7.950
664.65	6.830
664.83	6.768
665.02	6.841
665.21	6.533
665.39	6.693
665.58	7.677
665.77	7.242
665.95	6.434
666.14	6.819
666.32	6.913
666.51	6.644
666.70	7.388
666.88	6.630
667.07	6.198
667.26	6.793
667.44	7.588
667.63	7.151
667.81	6.632
668.00	7.233
668.19	9.065
668.37	6.805
668.56	8.496
668.75	6.428
668.93	9.106
669.12	6.497
669.30	7.719
669.49	6.661
669.68	8.588
669.86	8.325
670.05	7.419
670.23	7.550
670.42	7.617
670.61	7.653
670.79	8.142
670.98	8.014
671.16	8.679
671.35	6.462
671.54	7.475
671.72	7.268
671.91	9.434
672.09	7.841
672.28	9.830
672.46	9.250
672.65	8.884
672.84	8.627
673.02	10.202
673.21	7.391
673.39	8.471
673.58	9.433
673.77	9.535
673.95	9.510
674.14	10.240
674.32	8.986
674.51	11.057
674.69	8.564
674.88	9.235
675.07	9.208
675.25	12.644
675.44	9.354
675.62	10.258
675.81	9.659
675.99	13.289
676.18	11.730
676.36	9.783
676.55	9.811
676.74	12.967
676.92	11.786
677.11	11.615
677.29	10.446
677.48	12.990
677.66	11.771
677.85	11.080
678.03	11.498
678.22	12.686
678.40	10.289
678.59	10.914
678.78	9.443
678.96	11.650
679.15	9.775
679.33	12.918
679.52	12.223
679.70	10.608
679.89	10.475
680.07	11.459
680.26	10.318
680.44	11.406
680.63	11.114
680.81	11.741
681.00	9.729
681.18	10.995
681.37	10.719
681.55	13.522
681.74	12.038
681.92	12.721
682.11	10.511
682.29	11.310
682.48	12.109
682.66	13.402
682.85	11.902
683.03	11.806
683.22	12.613
683.40	13.977
683.59	12.467
683.77	13.943
683.96	11.909
684.14	13.530
684.33	10.341
684.51	14.790
684.70	12.127
684.88	14.646
685.07	13.724
685.25	14.919
685.44	12.523
685.62	14.010
685.81	12.343
685.99	14.976
686.18	10.993
686.36	14.840
686.55	12.749
686.73	12.702
686.92	14.110
687.10	15.606
687.29	14.145
687.47	15.308
687.65	16.368
687.84	12.905
688.02	17.143
688.21	16.353
688.39	13.462
688.58	15.898
688.76	14.643
688.95	15.857
689.13	14.050
689.32	17.847
689.50	16.161
689.68	16.724
689.87	15.408
690.05	17.205
690.24	16.364
690.42	16.786
690.61	17.631
690.79	19.058
690.98	16.934
691.16	17.682
691.34	17.386
691.53	18.116
691.71	15.683
691.90	19.331
692.08	16.050
692.27	19.904
692.45	20.256
692.63	18.871
692.82	20.608
693.00	19.658
693.19	17.082
693.37	21.091
693.56	18.748
693.74	21.518
693.92	20.055
694.11	22.498
694.29	22.265
694.48	22.788
694.66	21.431
694.84	23.391
695.03	22.231
695.21	25.446
695.40	24.888
695.58	26.260
695.76	23.494
695.95	25.907
696.13	23.447
696.32	27.468
696.50	28.909
696.68	26.161
696.87	24.228
697.05	28.477
697.24	26.463
697.42	28.748
697.60	27.287
697.79	28.375
697.97	29.415
698.16	30.762
698.34	28.271
698.52	31.979
698.71	29.455
698.89	31.466
699.07	29.804
699.26	31.476
699.44	30.698
699.63	32.157
699.81	30.984
699.99	31.617
700.18	32.606
700.36	32.342
700.54	32.885
700.73	33.378
700.91	32.939
701.09	35.134
701.28	34.863
701.46	35.092
701.64	35.988
701.83	37.576
702.01	35.474
702.20	39.027
702.38	37.575
702.56	38.390
702.75	36.106
702.93	38.625
703.11	37.770
703.30	39.806
703.48	39.332
703.66	40.510
703.85	37.875
704.03	42.804
704.21	40.292
704.40	41.100
704.58	40.326
704.76	44.156
704.95	41.140
705.13	41.416
705.31	39.733
705.50	43.390
705.68	41.786
705.86	43.612
706.04	43.696
706.23	45.244
706.41	43.547
706.59	44.520
706.78	41.838
706.96	44.852
707.14	43.581
707.33	45.087
707.51	45.879
707.69	46.532
707.88	44.766
708.06	46.663
708.24	45.991
708.42	47.337
708.61	44.603
708.79	46.171
708.97	47.953
709.16	46.351
709.34	50.484
709.52	49.162
709.71	46.704
709.89	49.659
710.07	44.630
710.25	49.367
710.44	46.883
710.62	47.993
710.80	48.839
710.98	48.052
711.17	47.868
711.35	49.430
711.53	47.786
711.72	50.635
711.90	50.460
712.08	49.548
712.26	49.193
712.45	49.647
712.63	48.957
712.81	50.626
712.99	50.333
713.18	50.808
713.36	50.701
713.54	52.606
713.72	49.263
713.91	50.563
714.09	49.952
714.27	50.933
714.45	50.417
714.64	52.631
714.82	51.177
715.00	53.464
715.18	51.738
715.37	53.598
715.55	51.897
715.73	53.241
715.91	51.944
716.10	52.329
716.28	51.239
716.46	53.679
716.64	51.943
716.83	54.063
717.01	51.311
717.19	53.856
717.37	52.707
717.55	56.022
717.74	52.966
717.92	55.310
718.10	52.409
718.28	54.048
718.47	54.754
718.65	56.693
718.83	53.620
719.01	56.811
719.19	54.632
719.38	58.468
719.56	57.343
719.74	58.432
719.92	53.571
720.10	56.988
720.29	54.624
720.47	57.810
720.65	58.225
720.83	59.316
721.01	57.544
721.20	59.701
721.38	56.808
721.56	58.824
721.74	59.124
721.92	58.160
722.11	60.446
722.29	60.672
722.47	57.882
722.65	61.328
722.83	59.902
723.01	57.445
723.20	60.595
723.38	60.658
723.56	58.346
723.74	66.263
723.92	61.195
724.10	61.335
724.29	58.821
724.47	64.329
724.65	62.234
724.83	64.651
725.01	58.733
725.19	66.266
725.38	60.514
725.56	62.999
725.74	63.622
725.92	64.346
726.10	64.403
726.28	64.778
726.46	64.863
726.65	65.938
726.83	62.219
727.01	67.318
727.19	64.539
727.37	65.531
727.55	65.529
727.73	66.806
727.92	64.111
728.10	65.888
728.28	62.753
728.46	65.392
728.64	62.479
728.82	65.635
729.00	64.205
729.19	67.506
729.37	65.585
729.55	67.546
729.73	63.872
729.91	66.372
730.09	67.560
730.27	67.691
730.45	65.531
730.63	67.883
730.82	65.384
731.00	66.647
731.18	69.033
731.36	68.756
731.54	63.411
731.72	68.611
731.90	70.194
732.08	70.616
732.26	69.328
732.45	70.880
732.63	70.246
732.81	70.656
732.99	67.620
733.17	67.876
733.35	67.528
733.53	70.551
733.71	68.229
733.89	68.040
734.07	70.546
734.25	67.761
734.44	68.561
734.62	69.739
734.80	71.434
734.98	71.329
735.16	70.606
735.34	74.303
735.52	70.797
735.70	71.407
735.88	72.838
736.06	72.415
736.24	73.382
736.42	72.839
736.60	76.358
736.78	73.639
736.97	75.540
737.15	77.327
737.33	73.835
737.51	77.233
737.69	76.206
737.87	77.356
738.05	76.128
738.23	78.462
738.41	74.647
738.59	77.720
738.77	74.819
738.95	74.212
739.13	76.203
739.31	76.856
739.49	77.451
739.67	78.506
739.85	72.154
740.03	73.769
740.21	78.358
740.39	77.156
740.57	75.481
740.75	78.534
740.93	76.496
741.11	77.502
741.30	78.938
741.48	80.554
741.66	78.503
741.84	78.355
742.02	75.975
742.20	78.423
742.38	77.027
742.56	81.199
742.74	78.114
742.92	79.368
743.10	76.106
743.28	81.905
743.46	78.384
743.64	76.702
743.82	77.418
744.00	79.051
744.18	76.944
744.36	81.375
744.54	76.453
744.72	81.197
744.90	83.868
745.08	81.794
745.26	81.419
745.44	79.231
745.62	79.083
745.80	80.265
745.98	77.836
746.16	81.824
746.34	83.175
746.52	79.032
746.70	79.373
746.87	80.044
747.05	79.430
747.23	82.408
747.41	81.382
747.59	81.612
747.77	82.144
747.95	83.766
748.13	79.598
748.31	80.800
748.49	79.416
748.67	80.204
748.85	76.696
749.03	83.287
749.21	80.460
749.39	78.501
749.57	78.803
749.75	80.784
749.93	79.544
750.11	80.867
750.29	76.153
750.47	78.858
750.65	76.883
750.83	78.539
751.01	78.522
751.18	79.761
751.36	78.919
751.54	80.456
751.72	80.403
751.90	79.591
752.08	81.480
752.26	79.815
752.44	77.839
752.62	81.660
752.80	79.107
752.98	81.894
753.16	76.295
753.34	79.243
753.52	78.698
753.69	83.564
753.87	83.413
754.05	80.927
754.23	79.367
754.41	82.356
754.59	79.889
754.77	79.081
754.95	78.479
755.13	78.076
755.31	78.514
755.49	79.462
755.66	79.438
755.84	79.247
756.02	76.551
756.20	79.817
756.38	80.692
756.56	84.652
756.74	79.346
756.92	79.013
757.10	75.716
757.28	82.722
757.45	84.224
757.63	81.699
757.81	77.205
757.99	82.963
758.17	79.658
758.35	81.982
758.53	80.780
758.71	81.810
758.88	80.032
759.06	80.109
759.24	72.927
759.42	81.138
759.60	78.636
759.78	80.662
759.96	76.863
760.13	78.722
760.31	71.329
760.49	75.491
760.67	71.729
760.85	77.245
761.03	72.299
761.21	73.565
761.38	71.424
761.56	75.241
761.74	71.339
761.92	75.205
762.10	69.968
762.28	75.184
762.46	69.048
762.63	70.922
762.81	73.816
762.99	73.604
763.17	74.793
763.35	71.546
763.53	74.898
763.70	77.088
763.88	71.637
764.06	74.340
764.24	73.392
764.42	73.993
764.60	73.553
764.77	73.057
764.95	71.585
765.13	72.564
765.31	75.537
765.49	74.117
765.66	73.103
765.84	76.263
766.02	73.269
766.20	75.667
766.38	71.883
766.56	74.322
766.73	75.748
766.91	77.232
767.09	78.047
767.27	78.918
767.45	77.517
767.62	74.314
767.80	78.159
767.98	78.427
768.16	75.713
768.33	75.709
768.51	76.157
768.69	77.459
768.87	74.272
769.05	76.203
769.22	76.896
769.40	82.391
769.58	76.492
769.76	81.336
769.94	78.097
770.11	78.579
770.29	73.210
770.47	78.032
770.65	77.477
770.82	82.019
771.00	78.495
771.18	78.366
771.36	75.050
771.53	82.137
771.71	75.522
771.89	77.796
772.07	79.297
772.25	76.848
772.42	78.653
772.60	78.081
772.78	74.637
772.96	81.951
773.13	80.909
773.31	80.928
773.49	81.720
773.67	77.899
773.84	76.342
774.02	76.794
774.20	77.877
774.37	82.348
774.55	77.583
774.73	78.709
774.91	74.316
775.08	78.136
775.26	77.608
775.44	78.714
775.62	74.648
775.79	77.044
775.97	76.638
776.15	80.009
776.32	70.637
776.50	82.773
776.68	83.557
776.86	78.713
777.03	72.072
777.21	75.181
777.39	72.603
777.56	80.927
777.74	70.752
777.92	79.516
778.10	79.599
778.27	80.816
778.45	83.206
778.63	81.247
778.80	77.051
778.98	80.545
779.16	82.272
779.34	79.442
779.51	78.838
779.69	75.290
779.87	72.597
780.04	76.158
780.22	74.798
780.40	78.727
780.57	79.083
780.75	74.074
780.93	81.357
781.10	74.669
781.28	86.496
781.46	74.566
781.63	76.293
781.81	80.354
781.99	72.529
782.16	81.023
782.34	73.094
782.52	76.376
782.69	76.646
782.87	77.652
783.05	72.779
783.22	76.358
783.40	73.081
783.58	76.148
783.75	74.021
783.93	78.861
784.11	71.877
784.28	79.637
784.46	75.435
784.64	77.855
784.81	73.733
784.99	80.822
785.17	74.451
785.34	72.100
785.52	68.583
785.69	75.080
785.87	71.524
786.05	72.557
786.22	69.159
786.40	78.944
786.58	69.454
786.75	76.162
786.93	71.412
787.11	72.352
787.28	76.716
787.46	79.212
787.63	74.557
787.81	84.607
787.99	74.535
788.16	71.931
788.34	75.982
788.51	76.830
788.69	70.585
788.87	75.348
789.04	73.419
789.22	79.011
789.39	71.537
789.57	72.165
789.75	73.961
789.92	78.098
790.10	70.180
790.27	74.929
790.45	72.987
790.63	72.607
790.80	68.434
790.98	72.248
791.15	72.898
791.33	72.595
791.51	68.939
791.68	73.140
791.86	69.945
792.03	73.255
792.21	68.252
792.39	76.576
792.56	73.962
792.74	74.544
792.91	71.224
793.09	68.800
793.26	67.623
793.44	73.887
793.62	68.418
793.79	74.931
793.97	70.383
794.14	77.675
794.32	68.156
794.49	72.090
794.67	67.067
794.84	70.856
795.02	67.211
795.20	74.985
795.37	64.804
795.55	71.319
795.72	72.069
795.90	74.703
796.07	70.339
796.25	71.158
796.42	69.424
796.60	72.060
796.77	67.050
796.95	75.674
797.13	69.622
797.30	74.377
797.48	69.866
797.65	71.815
797.83	63.665
798.00	73.818
798.18	68.753
798.35	74.838
798.53	70.184
798.70	71.167
798.88	71.366
799.05	72.957
799.23	70.420
799.40	69.675
799.58	73.286
799.75	71.552
799.93	66.588
800.10	74.591
800.28	71.192
800.45	74.821
800.63	68.374
800.80	74.437
800.98	72.418
801.15	73.369
801.33	68.323
801.50	72.435
801.68	64.046
801.85	73.694
802.03	66.957
802.20	71.904
802.38	66.455
802.55	68.290
802.73	62.674
802.90	69.380
803.08	59.243
803.25	74.654
803.43	73.159
803.60	73.441
803.78	62.695
803.95	74.074
804.13	70.864
804.30	72.922
804.48	64.702
804.65	71.509
804.83	68.031
805.00	70.982
805.17	72.934
805.35	71.294
805.52	66.943
805.70	70.773
805.87	70.851
806.05	71.701
806.22	68.222
806.40	66.066
806.57	63.642
806.75	78.110
806.92	72.260
807.09	73.843
807.27	67.987
807.44	72.783
807.62	66.323
807.79	74.044
807.97	61.070
808.14	65.499
808.31	63.172
808.49	69.368
808.66	62.594
808.84	66.512
809.01	66.096
809.19	65.038
809.36	66.339
809.53	67.107
809.71	65.192
809.88	79.294
810.06	67.930
810.23	68.362
810.41	70.274
810.58	71.980
810.75	63.723
810.93	69.086
811.10	65.634
811.28	71.109
811.45	72.263
811.62	67.828
811.80	65.138
811.97	72.089
812.15	75.665
812.32	61.463
812.49	60.863
812.67	69.013
812.84	57.325
813.02	71.861
813.19	59.851
813.36	69.160
813.54	63.393
813.71	73.266
813.89	60.292
814.06	65.000
814.23	66.054
814.41	66.559
814.58	70.281
814.75	62.459
814.93	62.287
815.10	64.840
815.28	55.255
815.45	59.530
815.62	67.759
815.80	55.988
815.97	60.081
816.14	61.228
816.32	63.969
816.49	62.182
816.66	66.614
816.84	67.040
817.01	58.134
817.18	65.369
817.36	63.197
817.53	64.185
817.71	54.690
817.88	63.350
818.05	56.255
818.23	65.167
818.40	60.547
818.57	65.207
818.75	54.734
818.92	58.321
819.09	59.741
819.27	61.305
819.44	64.656
819.61	61.462
819.79	60.170
819.96	65.607
820.13	61.569
820.31	67.572
820.48	64.384
820.65	68.157
820.82	62.797
821.00	66.457
821.17	58.461
821.34	67.244
821.52	64.747
821.69	68.903
821.86	64.997
822.04	73.945
822.21	69.194
822.38	71.333
822.56	69.732
822.73	69.495
822.90	69.069
823.07	70.471
823.25	69.219
823.42	67.768
823.59	67.720
823.77	69.702
823.94	68.967
824.11	68.959
824.29	68.523
824.46	69.724
824.63	69.220
824.80	71.188
824.98	69.496
825.15	73.150
825.32	71.463
825.49	74.117
825.67	71.573
825.84	70.366
826.01	71.889
826.19	74.261
826.36	71.122
826.53	76.076
826.70	70.516
826.88	73.993
827.05	70.395
827.22	71.267
827.39	67.779
827.57	69.497
827.74	67.284
827.91	70.083
828.08	69.056
828.26	70.695
828.43	66.178
828.60	69.709
828.77	67.588
828.95	68.388
829.12	66.337
829.29	65.190
829.46	67.220
829.64	69.407
829.81	64.186
829.98	66.618
830.15	64.975
830.32	70.246
830.50	62.367
830.67	63.924
830.84	64.548
831.01	59.831
831.19	56.898
831.36	67.820
831.53	60.664
831.70	65.471
831.87	63.343
832.05	62.799
832.22	67.813
832.39	56.685
832.56	61.604
832.74	56.674
832.91	50.526
833.08	68.370
833.25	54.888
833.42	57.762
833.60	57.843
833.77	55.833
833.94	55.337
834.11	59.720
834.28	56.035
834.45	67.666
834.63	60.757
834.80	65.729
834.97	60.373
835.14	69.432
835.31	65.310
835.49	65.195
835.66	67.133
835.83	67.125
836.00	64.189
836.17	66.925
836.34	63.538
836.52	65.851
836.69	66.878
836.86	66.790
837.03	65.141
837.20	61.372
837.37	63.772
837.55	54.318
837.72	58.030
837.89	65.140
838.06	61.029
838.23	67.977
838.40	57.882
838.58	56.497
838.75	58.149
838.92	56.738
839.09	72.689
839.26	64.072
839.43	65.994
839.60	69.713
839.78	71.768
839.95	78.331
840.12	56.238
840.29	70.594
840.46	70.721
840.63	64.594
840.80	65.149
840.98	72.702
841.15	61.164
841.32	60.058
841.49	60.743
841.66	72.150
841.83	51.964
842.00	58.169
842.17	73.796
842.34	57.520
842.52	63.869
842.69	80.066
842.86	62.500
843.03	81.953
843.20	59.874
843.37	67.099
843.54	62.599
843.71	66.227
843.88	60.362
844.06	71.806
844.23	70.321
844.40	61.898
844.57	70.963
844.74	73.559
844.91	67.331
845.08	69.711
845.25	79.328
845.42	60.617
845.59	79.923
845.76	67.956
845.94	87.234
846.11	78.356
846.28	66.277
846.45	78.011
846.62	77.560
846.79	79.221
846.96	77.071
847.13	78.748
847.30	68.327
847.47	62.933
847.64	64.047
847.81	64.078
847.98	81.950
848.15	78.526
848.32	87.072
848.50	88.142
848.67	61.060
848.84	76.113
849.01	81.504
849.18	80.164
849.35	88.340
849.52	86.139
849.69	76.102
849.86	95.249
850.03	87.354
850.20	77.111
850.37	84.793
850.54	78.641
850.71	80.266
850.88	67.012
851.05	78.750
851.22	86.214
851.39	76.850
851.56	67.462
851.73	84.235
851.90	103.899
852.07	91.127
852.24	59.883
852.41	70.450
852.58	73.333
852.75	73.256
852.92	84.306
853.09	103.652
853.26	86.526
853.43	81.778
853.60	62.578
853.77	83.916
853.94	73.101
854.11	81.903
854.28	90.976
854.45	68.667
854.62	85.455
854.79	89.602
854.96	96.684
855.13	96.984
855.30	92.250
855.47	92.602
855.64	84.633
855.81	74.402
855.98	80.488
856.15	86.789
856.32	66.597
856.49	91.253
856.66	85.915
856.83	74.784
857.00	69.665
857.17	88.981
857.34	76.754
857.51	85.714
857.68	90.453
857.85	96.949
858.02	85.086
858.19	63.508
858.36	92.099
858.53	89.079
858.70	75.658
858.87	95.278
859.04	78.507
859.21	82.974
859.38	85.625
859.55	107.543
859.72	91.040
859.89	108.455
860.05	85.539
860.22	104.211
860.39	89.116
860.56	83.333
860.73	81.384
860.90	88.128
861.07	93.151
861.24	83.524
861.41	78.042
861.58	87.294
861.75	69.690
861.92	82.057
862.09	92.152
862.26	70.449
862.43	84.848
862.59	83.796
862.76	82.166
862.93	99.730
863.10	68.258
863.27	84.956
863.44	78.186
863.61	69.318
863.78	105.075
863.95	108.789
864.12	99.688
864.29	79.027
864.45	78.589
864.62	97.906
864.79	87.871
864.96	77.419
865.13	68.071
865.30	105.238
865.47	105.850
865.64	93.868
865.81	79.339
865.97	82.254
866.14	91.091
866.31	65.258
866.48	74.026
866.65	66.406
866.82	85.612
866.99	81.794
867.16	93.979
867.33	78.588
867.49	92.176
867.66	72.289
867.83	79.295
868.00	63.658
868.17	88.506
868.34	104.464
868.51	66.908
868.67	83.649
868.84	68.506
869.01	89.401
869.18	88.780
869.35	84.768
869.52	85.000
869.69	75.000
869.85	80.741
870.02	69.903
870.19	99.043
870.36	83.333
870.53	68.531
870.70	91.702
870.86	63.212
871.03	89.095
871.20	76.733
871.37	101.326
871.54	79.076
871.71	87.379
871.87	89.946
872.04	96.040
872.21	83.223
872.38	103.423
872.55	107.342
872.72	70.495
872.88	86.761
873.05	77.808
873.22	80.325
873.39	79.196
873.56	71.754
873.72	90.865
873.89	78.198
874.06	87.629
874.23	73.822
874.40	76.493
874.56	83.368
874.73	99.272
874.90	76.738
875.07	67.467
875.24	65.394
875.40	76.404
875.57	89.318
875.74	100.976
875.91	86.179
876.08	66.740
876.24	84.298
876.41	95.685
876.58	85.919
876.75	79.339
876.92	72.098
877.08	76.367
877.25	49.742
877.42	78.862
877.59	84.709
877.75	86.762
877.92	65.589
878.09	90.719
878.26	88.755
878.42	80.851
878.59	94.027
878.76	81.621
878.93	91.176
879.09	83.188
879.26	80.435
879.43	64.045
879.60	73.157
879.76	63.879
879.93	74.752
880.10	54.419
880.27	61.058
880.43	62.862
880.60	65.361
880.77	57.538
880.94	61.174
881.10	42.230
881.27	64.742
881.44	41.952
881.61	59.907
881.77	57.851
881.94	52.687
882.11	53.999
882.28	50.589
882.44	56.042
882.61	60.654
882.78	62.593
882.94	70.166
883.11	59.834
883.28	65.786
883.45	65.933
883.61	65.751
883.78	62.989
883.95	69.041
884.11	60.940
884.28	65.040
>>>>>End Processed Spectral Data<<<<<
