SpectraSuite Data File
++++++++++++++++++++++++++++++++++++
Date: Wed Sep 18 03:49:33 EST 2019
User: sgrac
Dark Spectrum Present: Yes
Reference Spectrum Present: Yes
Number of Sampled Component Spectra: 1
Spectrometers: USB4E01596
Integration Time (usec): 100000 (USB4E01596)
Spectra Averaged: 3 (USB4E01596)
Boxcar Smoothing: 0 (USB4E01596)
Correct for Electrical Dark: No (USB4E01596)
Strobe/Lamp Enabled: Yes (USB4E01596)
Correct for Detector Non-linearity: No (USB4E01596)
Correct for Stray Light: No (USB4E01596)
Number of Pixels in Processed Spectrum: 3648
>>>>>Begin Processed Spectral Data<<<<<
178.44	-169.355
178.66	-169.355
178.87	-169.355
179.09	-278.000
179.30	275.000
179.52	565.789
179.74	-794.444
179.95	-1626.667
180.17	602.326
180.38	-870.000
180.60	427.143
180.82	1637.500
181.03	432.558
181.25	-1457.143
181.46	-432.500
181.68	-451.163
181.89	632.653
182.11	720.000
182.33	588.235
182.54	545.614
182.76	1013.043
182.97	2042.857
183.19	288.043
183.40	264.773
183.62	330.769
183.84	387.097
184.05	660.606
184.27	414.754
184.48	2650.000
184.70	752.778
184.91	600.000
185.13	-615.625
185.34	-298.333
185.56	-669.697
185.78	1377.778
185.99	424.590
186.21	651.220
186.42	-1910.000
186.64	353.030
186.85	1643.750
187.07	388.095
187.28	545.238
187.50	-847.059
187.72	464.000
187.93	337.349
188.15	451.471
188.36	-1505.882
188.58	296.104
188.79	-14800.000
189.01	170.748
189.22	383.117
189.44	958.333
189.65	353.933
189.87	414.474
190.09	343.617
190.30	960.000
190.52	1868.750
190.73	295.181
190.95	868.182
191.16	294.030
191.38	-13200.000
191.59	626.087
191.81	427.143
192.02	-584.615
192.24	388.710
192.45	281.111
192.67	357.576
192.88	403.125
193.10	777.273
193.31	403.571
193.53	377.419
193.74	824.242
193.96	427.119
194.18	-973.913
194.39	433.333
194.61	1224.138
194.82	1246.154
195.04	413.333
195.25	386.885
195.47	-4300.000
195.68	292.958
195.90	256.044
196.11	495.833
196.33	1505.882
196.54	590.698
196.76	-772.000
196.97	267.000
197.19	1145.000
197.40	275.188
197.62	-481.818
197.83	442.308
198.05	270.470
198.26	-1040.000
198.48	394.444
198.69	276.147
198.91	342.029
199.12	-1408.333
199.34	944.000
199.55	22600.000
199.77	282.895
199.98	4383.333
200.20	732.353
200.41	377.465
200.63	498.148
200.84	1290.476
201.06	832.258
201.27	376.543
201.49	442.187
201.70	460.656
201.91	702.273
202.13	1480.000
202.34	-622.857
202.56	465.000
202.77	-225.581
202.99	432.927
203.20	627.660
203.42	434.286
203.63	211.927
203.85	-858.621
204.06	1022.727
204.28	1746.667
204.49	732.558
204.71	212.605
204.92	819.231
205.14	1157.895
205.35	6625.000
205.56	363.380
205.78	406.173
205.99	227.481
206.21	229.293
206.42	550.000
206.64	632.353
206.85	171.111
207.07	491.429
207.28	350.000
207.50	1026.087
207.71	532.558
207.93	479.167
208.14	479.070
208.35	401.695
208.57	408.000
208.78	281.915
209.00	280.645
209.21	214.789
209.43	383.333
209.64	988.462
209.86	1636.364
210.07	344.304
210.28	298.795
210.50	340.580
210.71	409.091
210.93	438.182
211.14	565.000
211.36	900.000
211.57	201.667
211.78	1146.154
212.00	618.919
212.21	2233.333
212.43	2038.462
212.64	818.750
212.86	275.455
213.07	432.692
213.29	298.980
213.50	493.333
213.71	267.500
213.93	338.202
214.14	662.500
214.36	651.220
214.57	319.048
214.78	5325.000
215.00	242.683
215.21	491.111
215.43	-2820.000
215.64	322.857
215.86	323.529
216.07	386.301
216.28	576.000
216.50	464.000
216.71	1300.000
216.93	-22400.000
217.14	1442.105
217.35	-347.458
217.57	342.045
217.78	668.966
218.00	260.000
218.21	357.353
218.42	-4625.000
218.64	789.286
218.85	267.647
219.07	525.581
219.28	458.333
219.49	-9700.000
219.71	314.925
219.92	523.684
220.14	-18300.000
220.35	345.205
220.56	395.652
220.78	200.000
220.99	-346.667
221.21	328.916
221.42	170.395
221.63	1400.000
221.85	-570.000
222.06	248.485
222.28	-417.857
222.49	501.754
222.70	282.759
222.92	492.105
223.13	181.507
223.34	1866.667
223.56	182.051
223.77	351.852
223.99	329.293
224.20	238.095
224.41	222.727
224.63	153.409
224.84	124.194
225.05	225.410
225.27	447.273
225.48	310.976
225.69	343.750
225.91	335.385
226.12	377.333
226.34	267.647
226.55	270.755
226.76	228.682
226.98	350.000
227.19	169.286
227.40	162.676
227.62	103.077
227.83	103.333
228.04	118.378
228.26	104.730
228.47	78.365
228.69	59.016
228.90	64.033
229.11	66.292
229.33	66.292
229.54	51.158
229.75	33.573
229.97	30.795
230.18	32.770
230.39	46.154
230.61	32.993
230.82	48.000
231.03	22.440
231.25	41.860
231.46	42.203
231.67	42.097
231.89	29.813
232.10	41.421
232.31	50.566
232.53	77.111
232.74	52.811
232.95	53.267
233.17	60.265
233.38	57.210
233.59	64.018
233.81	60.341
234.02	48.127
234.23	41.927
234.45	54.190
234.66	46.287
234.87	66.067
235.09	71.770
235.30	59.045
235.51	53.885
235.73	46.793
235.94	45.588
236.15	46.482
236.36	58.202
236.58	46.591
236.79	48.321
237.00	42.644
237.22	36.832
237.43	51.153
237.64	36.492
237.86	53.049
238.07	59.465
238.28	48.498
238.50	59.509
238.71	48.846
238.92	57.403
239.13	41.026
239.35	67.718
239.56	57.962
239.77	60.352
239.99	36.287
240.20	76.250
240.41	29.939
240.63	54.779
240.84	47.690
241.05	38.519
241.26	44.870
241.48	33.764
241.69	33.011
241.90	24.257
242.12	30.370
242.33	26.321
242.54	24.462
242.75	18.481
242.97	28.934
243.18	18.169
243.39	14.977
243.61	15.439
243.82	22.596
244.03	18.605
244.24	18.982
244.46	15.067
244.67	21.639
244.88	16.012
245.09	18.917
245.31	15.701
245.52	16.353
245.73	22.814
245.95	40.274
246.16	26.006
246.37	24.337
246.58	26.235
246.80	23.200
247.01	21.916
247.22	14.922
247.43	12.518
247.65	16.902
247.86	13.677
248.07	12.165
248.28	12.353
248.50	11.710
248.71	12.388
248.92	11.105
249.13	11.607
249.35	10.885
249.56	11.463
249.77	8.968
249.98	11.184
250.20	14.068
250.41	19.215
250.62	14.411
250.83	16.394
251.05	19.807
251.26	18.505
251.47	20.550
251.68	16.992
251.90	22.952
252.11	19.112
252.32	18.630
252.53	24.133
252.75	12.735
252.96	19.807
253.17	17.193
253.38	13.744
253.59	15.856
253.81	15.092
254.02	14.310
254.23	19.747
254.44	22.015
254.66	19.319
254.87	19.558
255.08	21.498
255.29	23.101
255.50	20.543
255.72	22.757
255.93	23.828
256.14	26.901
256.35	21.686
256.57	25.793
256.78	34.545
256.99	21.673
257.20	23.671
257.41	19.035
257.63	22.114
257.84	22.635
258.05	15.763
258.26	16.403
258.47	22.573
258.69	19.259
258.90	9.695
259.11	15.793
259.32	14.446
259.53	12.711
259.75	8.960
259.96	15.440
260.17	10.081
260.38	11.344
260.59	7.792
260.81	8.879
261.02	8.286
261.23	9.165
261.44	6.817
261.65	8.320
261.87	7.340
262.08	10.815
262.29	12.516
262.50	9.298
262.71	8.997
262.92	10.044
263.14	10.489
263.35	11.561
263.56	14.055
263.77	13.337
263.98	10.221
264.20	15.830
264.41	17.880
264.62	12.835
264.83	8.908
265.04	20.804
265.25	14.235
265.47	17.825
265.68	17.053
265.89	15.683
266.10	12.492
266.31	17.820
266.52	17.186
266.74	14.140
266.95	14.819
267.16	12.698
267.37	14.151
267.58	12.571
267.79	12.751
268.01	11.044
268.22	7.897
268.43	12.742
268.64	13.567
268.85	12.446
269.06	11.932
269.27	12.985
269.49	9.616
269.70	12.824
269.91	13.408
270.12	12.473
270.33	13.487
270.54	12.871
270.75	11.297
270.97	12.642
271.18	10.937
271.39	13.241
271.60	12.556
271.81	10.160
272.02	13.292
272.23	9.915
272.45	10.433
272.66	9.390
272.87	10.321
273.08	9.287
273.29	11.308
273.50	8.645
273.71	9.436
273.92	9.029
274.14	8.146
274.35	9.981
274.56	10.457
274.77	11.305
274.98	10.369
275.19	9.241
275.40	13.354
275.61	9.591
275.83	8.375
276.04	10.353
276.25	13.262
276.46	11.569
276.67	13.083
276.88	14.342
277.09	8.864
277.30	15.567
277.51	10.623
277.73	12.390
277.94	12.134
278.15	11.524
278.36	14.724
278.57	11.446
278.78	13.656
278.99	8.476
279.20	13.237
279.41	14.683
279.62	8.674
279.84	11.667
280.05	9.157
280.26	11.071
280.47	9.659
280.68	9.830
280.89	10.364
281.10	10.261
281.31	13.186
281.52	13.900
281.73	7.643
281.94	8.742
282.16	10.017
282.37	11.814
282.58	10.501
282.79	10.040
283.00	10.409
283.21	9.782
283.42	10.155
283.63	11.890
283.84	8.987
284.05	11.674
284.26	8.803
284.47	11.104
284.68	8.456
284.89	7.548
285.11	9.558
285.32	9.661
285.53	10.114
285.74	10.882
285.95	10.424
286.16	10.166
286.37	6.572
286.58	6.289
286.79	5.459
287.00	8.376
287.21	8.469
287.42	8.007
287.63	8.626
287.84	8.277
288.05	7.778
288.26	8.080
288.48	9.291
288.69	8.734
288.90	12.612
289.11	9.586
289.32	10.394
289.53	10.080
289.74	7.358
289.95	9.508
290.16	9.728
290.37	8.103
290.58	8.480
290.79	7.555
291.00	7.949
291.21	10.620
291.42	9.735
291.63	8.000
291.84	9.487
292.05	6.619
292.26	8.542
292.47	8.261
292.68	7.072
292.89	8.839
293.10	8.676
293.31	9.943
293.52	9.204
293.73	8.287
293.94	9.156
294.15	7.607
294.36	9.232
294.57	8.328
294.79	8.834
295.00	8.540
295.21	9.980
295.42	9.299
295.63	11.454
295.84	6.497
296.05	5.779
296.26	9.668
296.47	9.143
296.68	6.671
296.89	7.422
297.10	9.351
297.31	8.562
297.52	6.031
297.73	7.000
297.94	4.404
298.15	7.752
298.36	5.526
298.57	6.205
298.78	8.089
298.99	7.237
299.20	7.199
299.41	8.515
299.62	6.403
299.83	6.540
300.04	7.592
300.25	9.105
300.46	8.339
300.67	8.770
300.88	8.511
301.09	5.508
301.30	7.573
301.50	7.644
301.71	9.745
301.92	10.713
302.13	7.299
302.34	9.688
302.55	8.379
302.76	7.431
302.97	7.871
303.18	8.816
303.39	9.318
303.60	6.842
303.81	10.095
304.02	7.511
304.23	10.274
304.44	8.085
304.65	6.860
304.86	8.790
305.07	6.870
305.28	8.167
305.49	9.593
305.70	11.192
305.91	8.730
306.12	6.892
306.33	8.208
306.54	11.406
306.75	9.567
306.96	12.230
307.17	6.998
307.38	10.362
307.58	7.776
307.79	11.150
308.00	9.869
308.21	7.135
308.42	5.768
308.63	8.938
308.84	9.738
309.05	9.803
309.26	7.799
309.47	11.906
309.68	6.979
309.89	8.013
310.10	9.556
310.31	6.138
310.52	8.111
310.73	11.093
310.94	5.378
311.14	5.881
311.35	6.465
311.56	7.165
311.77	6.925
311.98	5.107
312.19	7.526
312.40	7.722
312.61	8.014
312.82	8.008
313.03	7.727
313.24	8.065
313.45	8.874
313.66	8.036
313.86	9.434
314.07	5.630
314.28	8.494
314.49	4.674
314.70	7.524
314.91	10.816
315.12	6.979
315.33	10.465
315.54	7.432
315.75	6.143
315.96	6.986
316.16	7.447
316.37	10.594
316.58	8.063
316.79	8.603
317.00	11.037
317.21	8.639
317.42	9.367
317.63	10.058
317.84	10.518
318.05	8.729
318.25	8.612
318.46	7.974
318.67	9.801
318.88	10.723
319.09	10.955
319.30	8.114
319.51	9.529
319.72	9.168
319.93	6.826
320.13	9.877
320.34	11.105
320.55	8.919
320.76	12.168
320.97	8.717
321.18	12.754
321.39	9.211
321.60	9.008
321.80	11.814
322.01	9.962
322.22	12.535
322.43	9.403
322.64	10.633
322.85	10.242
323.06	10.212
323.27	9.677
323.47	13.046
323.68	9.739
323.89	9.168
324.10	10.295
324.31	8.513
324.52	10.903
324.73	10.241
324.93	7.707
325.14	8.515
325.35	9.993
325.56	9.352
325.77	11.011
325.98	8.243
326.19	8.944
326.39	5.919
326.60	9.505
326.81	7.655
327.02	6.307
327.23	9.742
327.44	13.151
327.64	8.502
327.85	7.273
328.06	9.278
328.27	14.676
328.48	11.809
328.69	7.996
328.90	8.991
329.10	7.200
329.31	10.259
329.52	9.801
329.73	13.239
329.94	9.261
330.15	13.903
330.35	11.028
330.56	11.410
330.77	12.055
330.98	11.741
331.19	12.427
331.39	9.997
331.60	10.502
331.81	9.819
332.02	12.434
332.23	11.304
332.44	11.457
332.64	11.493
332.85	13.189
333.06	14.258
333.27	8.241
333.48	12.902
333.68	10.858
333.89	11.726
334.10	11.548
334.31	14.558
334.52	13.122
334.72	12.442
334.93	12.628
335.14	10.601
335.35	12.260
335.56	15.581
335.76	11.025
335.97	14.484
336.18	12.281
336.39	16.997
336.60	14.355
336.80	13.416
337.01	12.500
337.22	14.882
337.43	17.786
337.64	18.791
337.84	15.607
338.05	13.776
338.26	17.713
338.47	18.351
338.68	12.835
338.88	19.591
339.09	16.068
339.30	15.896
339.51	15.510
339.71	19.178
339.92	14.552
340.13	19.105
340.34	17.203
340.55	14.799
340.75	15.399
340.96	16.845
341.17	17.891
341.38	16.514
341.58	18.454
341.79	21.012
342.00	14.374
342.21	19.577
342.41	16.678
342.62	20.731
342.83	20.232
343.04	16.859
343.24	21.692
343.45	23.180
343.66	19.173
343.87	21.921
344.07	18.488
344.28	23.697
344.49	23.930
344.70	25.741
344.90	19.522
345.11	20.591
345.32	22.078
345.53	22.441
345.73	22.685
345.94	26.323
346.15	24.808
346.36	24.414
346.56	25.038
346.77	26.742
346.98	25.800
347.19	25.860
347.39	25.163
347.60	24.963
347.81	28.541
348.02	28.839
348.22	23.776
348.43	26.165
348.64	24.518
348.84	27.134
349.05	27.520
349.26	30.918
349.47	24.607
349.67	26.556
349.88	28.420
350.09	28.250
350.30	31.682
350.50	31.281
350.71	31.060
350.92	30.982
351.12	29.672
351.33	30.002
351.54	27.562
351.74	31.960
351.95	28.739
352.16	32.144
352.37	30.388
352.57	30.645
352.78	28.874
352.99	31.240
353.19	29.177
353.40	34.126
353.61	34.828
353.82	34.724
354.02	33.669
354.23	33.126
354.44	34.332
354.64	32.361
354.85	33.290
355.06	32.642
355.26	30.120
355.47	34.489
355.68	35.859
355.88	34.028
356.09	32.849
356.30	31.677
356.51	33.739
356.71	34.992
356.92	32.927
357.13	35.597
357.33	37.060
357.54	34.508
357.75	30.186
357.95	34.208
358.16	32.981
358.37	35.404
358.57	32.096
358.78	37.128
358.99	34.682
359.19	34.869
359.40	35.639
359.61	36.430
359.81	36.299
360.02	38.763
360.23	33.490
360.43	36.897
360.64	34.439
360.85	35.112
361.05	33.373
361.26	36.573
361.47	34.120
361.67	35.312
361.88	30.356
362.09	35.767
362.29	32.200
362.50	32.741
362.70	32.296
362.91	35.113
363.12	33.274
363.32	35.087
363.53	34.389
363.74	36.440
363.94	32.603
364.15	36.157
364.36	35.328
364.56	34.668
364.77	35.817
364.98	37.582
365.18	35.275
365.39	34.928
365.59	33.862
365.80	35.370
366.01	34.671
366.21	33.417
366.42	32.816
366.63	35.420
366.83	34.273
367.04	31.795
367.24	33.516
367.45	32.659
367.66	30.756
367.86	32.216
368.07	31.671
368.28	34.040
368.48	32.361
368.69	33.357
368.89	32.750
369.10	33.728
369.31	32.589
369.51	35.001
369.72	35.258
369.92	34.840
370.13	29.905
370.34	34.156
370.54	29.110
370.75	31.667
370.95	29.668
371.16	32.670
371.37	29.972
371.57	31.947
371.78	30.361
371.98	33.048
372.19	32.051
372.40	32.637
372.60	32.628
372.81	32.991
373.01	30.629
373.22	31.881
373.43	31.519
373.63	32.196
373.84	31.380
374.04	32.531
374.25	31.679
374.46	32.002
374.66	31.331
374.87	33.862
375.07	26.398
375.28	30.658
375.48	30.298
375.69	32.203
375.90	29.672
376.10	29.216
376.31	29.617
376.51	29.141
376.72	28.768
376.92	29.609
377.13	31.651
377.34	30.362
377.54	29.203
377.75	32.311
377.95	28.445
378.16	31.250
378.36	30.339
378.57	31.729
378.77	28.632
378.98	28.571
379.19	29.212
379.39	29.639
379.60	29.083
379.80	30.596
380.01	29.935
380.21	29.230
380.42	30.608
380.62	31.000
380.83	29.260
381.04	30.829
381.24	31.316
381.45	28.798
381.65	28.470
381.86	29.835
382.06	29.729
382.27	27.755
382.47	27.972
382.68	29.337
382.88	27.733
383.09	27.963
383.29	28.343
383.50	29.031
383.71	28.082
383.91	28.932
384.12	27.139
384.32	28.307
384.53	28.180
384.73	27.575
384.94	26.375
385.14	27.774
385.35	25.503
385.55	27.993
385.76	27.285
385.96	27.420
386.17	28.322
386.37	27.939
386.58	26.263
386.78	27.584
386.99	27.074
387.19	28.341
387.40	25.760
387.60	28.883
387.81	26.600
388.01	27.957
388.22	28.505
388.42	28.387
388.63	28.427
388.83	29.220
389.04	24.923
389.24	28.742
389.45	27.194
389.65	26.223
389.86	26.755
390.06	25.773
390.27	25.902
390.47	26.731
390.68	26.921
390.88	27.165
391.09	25.785
391.29	28.198
391.50	27.015
391.70	27.246
391.91	25.746
392.11	26.822
392.32	26.373
392.52	26.724
392.73	25.556
392.93	27.058
393.14	25.326
393.34	26.069
393.55	27.023
393.75	26.697
393.95	26.374
394.16	27.104
394.36	26.250
394.57	27.419
394.77	25.495
394.98	25.272
395.18	26.164
395.39	26.509
395.59	25.583
395.80	27.058
396.00	25.122
396.21	26.787
396.41	24.450
396.61	26.298
396.82	26.062
397.02	26.986
397.23	26.699
397.43	26.487
397.64	24.235
397.84	27.255
398.05	23.972
398.25	25.810
398.45	25.750
398.66	26.286
398.86	24.022
399.07	26.182
399.27	24.975
399.48	25.933
399.68	24.035
399.89	24.337
400.09	25.570
400.29	24.567
400.50	23.986
400.70	26.217
400.91	22.888
401.11	25.772
401.32	25.732
401.52	24.123
401.72	24.468
401.93	25.923
402.13	24.110
402.34	24.609
402.54	23.686
402.75	26.093
402.95	22.192
403.15	25.037
403.36	24.154
403.56	24.450
403.77	22.845
403.97	24.703
404.17	22.671
404.38	23.990
404.58	23.508
404.79	24.623
404.99	24.051
405.19	23.311
405.40	24.521
405.60	24.609
405.81	23.659
406.01	25.486
406.21	22.728
406.42	23.070
406.62	23.669
406.83	24.458
407.03	24.546
407.23	22.842
407.44	22.596
407.64	23.569
407.85	22.877
408.05	23.396
408.25	23.733
408.46	24.568
408.66	23.060
408.87	22.757
409.07	23.198
409.27	22.074
409.48	22.312
409.68	24.176
409.88	21.685
410.09	23.623
410.29	23.594
410.50	23.569
410.70	21.050
410.90	23.038
411.11	21.558
411.31	23.237
411.51	23.016
411.72	23.744
411.92	21.724
412.12	22.864
412.33	21.443
412.53	23.068
412.74	20.862
412.94	22.867
413.14	22.103
413.35	22.417
413.55	22.654
413.75	23.047
413.96	21.426
414.16	22.362
414.36	22.453
414.57	23.091
414.77	21.255
414.97	22.211
415.18	21.974
415.38	22.645
415.58	21.943
415.79	21.855
415.99	21.382
416.19	21.442
416.40	21.959
416.60	21.670
416.80	21.072
417.01	22.636
417.21	20.624
417.41	22.355
417.62	21.807
417.82	21.833
418.02	20.393
418.23	21.507
418.43	21.124
418.63	22.274
418.84	21.869
419.04	20.962
419.24	21.813
419.45	21.459
419.65	22.188
419.85	21.803
420.06	21.167
420.26	21.713
420.46	21.051
420.67	21.729
420.87	21.124
421.07	21.900
421.28	21.609
421.48	21.381
421.68	21.267
421.88	21.491
422.09	21.932
422.29	21.475
422.49	21.377
422.70	21.540
422.90	21.137
423.10	21.683
423.31	21.912
423.51	21.508
423.71	21.159
423.91	21.618
424.12	21.403
424.32	21.800
424.52	20.569
424.73	20.970
424.93	21.618
425.13	21.045
425.33	20.701
425.54	21.230
425.74	21.134
425.94	20.993
426.15	20.908
426.35	21.267
426.55	21.486
426.75	21.620
426.96	21.377
427.16	21.630
427.36	22.093
427.57	21.868
427.77	21.458
427.97	22.137
428.17	21.506
428.38	21.990
428.58	21.050
428.78	22.118
428.98	20.577
429.19	21.359
429.39	20.873
429.59	21.953
429.79	20.010
430.00	20.612
430.20	19.880
430.40	21.490
430.60	20.656
430.81	20.496
431.01	20.715
431.21	21.278
431.41	20.107
431.62	20.889
431.82	20.088
432.02	20.915
432.22	20.124
432.43	20.124
432.63	19.862
432.83	20.889
433.03	20.038
433.24	20.010
433.44	19.349
433.64	19.929
433.84	19.813
434.05	20.589
434.25	20.270
434.45	21.088
434.65	20.674
434.85	20.829
435.06	19.844
435.26	20.252
435.46	21.219
435.66	20.841
435.87	20.002
436.07	21.298
436.27	21.043
436.47	20.843
436.67	20.641
436.88	20.768
437.08	20.407
437.28	21.456
437.48	20.639
437.69	20.026
437.89	20.749
438.09	20.832
438.29	19.824
438.49	20.396
438.70	20.151
438.90	20.152
439.10	19.863
439.30	19.934
439.50	20.191
439.71	20.310
439.91	19.543
440.11	20.588
440.31	19.895
440.51	20.064
440.72	19.620
440.92	19.837
441.12	19.962
441.32	20.002
441.52	19.759
441.72	20.254
441.93	20.167
442.13	20.339
442.33	19.883
442.53	20.293
442.73	20.098
442.94	20.508
443.14	20.216
443.34	20.664
443.54	20.018
443.74	20.784
443.94	20.331
444.15	20.427
444.35	20.205
444.55	20.478
444.75	20.563
444.95	20.094
445.15	19.774
445.36	20.644
445.56	19.302
445.76	19.821
445.96	19.361
446.16	19.584
446.36	19.414
446.57	19.748
446.77	19.609
446.97	19.554
447.17	19.739
447.37	19.484
447.57	19.844
447.77	19.604
447.98	19.551
448.18	19.849
448.38	20.069
448.58	19.975
448.78	20.424
448.98	20.402
449.18	20.090
449.39	20.090
449.59	20.042
449.79	20.748
449.99	20.464
450.19	20.695
450.39	20.366
450.59	20.869
450.79	19.692
451.00	20.434
451.20	20.567
451.40	20.234
451.60	20.101
451.80	20.439
452.00	19.949
452.20	19.818
452.40	19.854
452.61	19.799
452.81	19.193
453.01	19.595
453.21	19.804
453.41	19.365
453.61	19.687
453.81	20.111
454.01	19.244
454.21	20.316
454.42	19.580
454.62	20.304
454.82	19.546
455.02	19.964
455.22	19.705
455.42	19.909
455.62	19.420
455.82	19.817
456.02	19.824
456.23	19.845
456.43	20.024
456.63	19.681
456.83	18.978
457.03	20.163
457.23	19.424
457.43	20.339
457.63	18.879
457.83	20.198
458.03	19.041
458.23	19.540
458.43	18.832
458.64	19.393
458.84	19.151
459.04	18.903
459.24	19.159
459.44	19.163
459.64	19.080
459.84	19.112
460.04	18.841
460.24	18.766
460.44	19.201
460.64	19.137
460.84	18.966
461.04	19.240
461.24	19.085
461.45	19.359
461.65	19.265
461.85	19.838
462.05	19.816
462.25	19.906
462.45	20.109
462.65	19.978
462.85	19.672
463.05	20.051
463.25	19.206
463.45	19.560
463.65	20.001
463.85	19.558
464.05	19.210
464.25	19.304
464.45	19.954
464.65	19.643
464.85	19.574
465.05	19.539
465.26	19.018
465.46	19.336
465.66	19.387
465.86	19.121
466.06	19.509
466.26	19.365
466.46	18.688
466.66	19.408
466.86	18.641
467.06	18.988
467.26	18.928
467.46	19.668
467.66	19.108
467.86	18.976
468.06	18.817
468.26	18.636
468.46	19.186
468.66	19.608
468.86	18.816
469.06	20.119
469.26	19.247
469.46	19.690
469.66	19.219
469.86	19.532
470.06	18.715
470.26	19.454
470.46	18.716
470.66	19.372
470.86	18.180
471.06	19.160
471.26	18.020
471.46	18.845
471.66	18.887
471.86	19.263
472.06	19.062
472.26	19.073
472.46	19.530
472.66	19.271
472.86	18.787
473.06	19.191
473.26	19.539
473.46	19.088
473.66	19.119
473.86	19.443
474.06	18.906
474.26	19.028
474.46	18.974
474.66	19.587
474.86	18.975
475.06	19.495
475.26	19.090
475.46	19.972
475.66	18.701
475.86	19.664
476.06	19.794
476.26	19.952
476.46	18.569
476.66	19.386
476.86	18.717
477.06	18.787
477.26	18.924
477.46	19.067
477.65	18.872
477.85	19.460
478.05	18.611
478.25	19.082
478.45	18.544
478.65	18.938
478.85	19.025
479.05	19.586
479.25	18.740
479.45	19.658
479.65	18.873
479.85	19.883
480.05	19.287
480.25	19.470
480.45	19.149
480.65	19.292
480.85	19.374
481.05	19.211
481.25	19.345
481.44	19.483
481.64	19.073
481.84	19.221
482.04	19.254
482.24	18.886
482.44	18.803
482.64	18.660
482.84	19.068
483.04	18.839
483.24	18.346
483.44	18.422
483.64	18.001
483.84	17.889
484.04	17.862
484.23	18.362
484.43	18.390
484.63	18.531
484.83	18.714
485.03	18.933
485.23	18.978
485.43	19.240
485.63	19.389
485.83	19.698
486.03	19.836
486.23	20.022
486.42	19.820
486.62	19.902
486.82	19.521
487.02	19.712
487.22	19.029
487.42	19.054
487.62	18.765
487.82	18.727
488.02	18.833
488.22	18.875
488.41	18.524
488.61	18.911
488.81	18.785
489.01	19.125
489.21	19.347
489.41	19.137
489.61	19.585
489.81	19.692
490.01	19.579
490.20	19.780
490.40	19.874
490.60	19.857
490.80	19.308
491.00	19.412
491.20	19.313
491.40	19.028
491.60	18.694
491.79	18.727
491.99	18.444
492.19	18.708
492.39	18.666
492.59	18.695
492.79	18.798
492.99	19.076
493.19	19.196
493.38	19.443
493.58	19.526
493.78	20.098
493.98	20.044
494.18	20.581
494.38	20.327
494.58	19.984
494.77	19.898
494.97	19.569
495.17	19.777
495.37	19.706
495.57	19.473
495.77	19.734
495.96	19.659
496.16	19.514
496.36	19.373
496.56	19.326
496.76	18.667
496.96	19.607
497.15	19.480
497.35	19.117
497.55	19.658
497.75	19.593
497.95	19.024
498.15	19.155
498.34	19.167
498.54	19.317
498.74	19.823
498.94	19.595
499.14	19.569
499.34	19.452
499.53	19.293
499.73	19.831
499.93	19.575
500.13	19.805
500.33	19.432
500.52	19.833
500.72	19.939
500.92	19.801
501.12	19.643
501.32	20.033
501.52	20.020
501.71	20.320
501.91	19.388
502.11	20.521
502.31	19.505
502.51	19.918
502.70	19.654
502.90	19.365
503.10	19.757
503.30	19.983
503.50	19.618
503.69	20.016
503.89	20.131
504.09	20.052
504.29	19.709
504.48	19.884
504.68	19.804
504.88	20.114
505.08	19.494
505.28	20.237
505.47	19.997
505.67	19.917
505.87	20.516
506.07	19.573
506.27	20.087
506.46	20.277
506.66	19.715
506.86	20.321
507.06	20.104
507.25	20.335
507.45	20.136
507.65	20.374
507.85	19.817
508.04	20.272
508.24	20.422
508.44	20.111
508.64	19.696
508.83	20.192
509.03	19.947
509.23	19.791
509.43	19.978
509.63	20.009
509.82	20.339
510.02	20.021
510.22	19.887
510.42	20.210
510.61	19.893
510.81	20.191
511.01	19.831
511.21	20.021
511.40	20.099
511.60	20.534
511.80	20.480
511.99	20.397
512.19	20.413
512.39	20.607
512.59	19.992
512.78	20.395
512.98	20.137
513.18	21.172
513.38	20.307
513.57	20.158
513.77	20.619
513.97	20.805
514.17	20.201
514.36	20.350
514.56	20.359
514.76	20.858
514.95	20.388
515.15	20.648
515.35	20.751
515.55	20.549
515.74	20.605
515.94	21.206
516.14	20.081
516.33	20.628
516.53	20.795
516.73	20.560
516.93	20.466
517.12	20.742
517.32	20.486
517.52	20.013
517.71	20.536
517.91	20.360
518.11	20.113
518.30	20.366
518.50	20.493
518.70	20.240
518.90	20.304
519.09	19.843
519.29	20.126
519.49	20.570
519.68	20.128
519.88	20.504
520.08	20.724
520.27	20.719
520.47	20.546
520.67	20.686
520.86	21.119
521.06	20.632
521.26	21.089
521.45	20.883
521.65	21.079
521.85	21.492
522.04	20.506
522.24	20.973
522.44	21.271
522.63	20.845
522.83	20.974
523.03	20.828
523.22	21.021
523.42	21.797
523.62	21.127
523.81	20.616
524.01	20.900
524.21	21.025
524.40	20.612
524.60	21.207
524.80	21.037
524.99	20.489
525.19	21.183
525.39	20.355
525.58	20.630
525.78	20.501
525.98	20.561
526.17	20.604
526.37	20.344
526.57	20.677
526.76	20.650
526.96	20.804
527.15	20.752
527.35	20.954
527.55	20.707
527.74	20.914
527.94	20.930
528.14	20.458
528.33	19.966
528.53	20.046
528.72	20.430
528.92	20.286
529.12	20.499
529.31	20.715
529.51	20.703
529.71	20.822
529.90	21.015
530.10	21.324
530.29	21.238
530.49	21.361
530.69	21.563
530.88	21.899
531.08	21.756
531.28	21.828
531.47	22.049
531.67	21.632
531.86	21.481
532.06	21.433
532.26	21.479
532.45	21.333
532.65	21.140
532.84	21.014
533.04	21.060
533.24	20.798
533.43	20.766
533.63	21.170
533.82	21.154
534.02	21.054
534.22	21.163
534.41	21.195
534.61	21.529
534.80	21.284
535.00	21.725
535.19	22.089
535.39	22.003
535.59	21.884
535.78	21.824
535.98	21.871
536.17	22.101
536.37	21.741
536.57	21.873
536.76	21.853
536.96	21.622
537.15	21.615
537.35	21.728
537.54	21.570
537.74	22.005
537.93	22.044
538.13	21.608
538.33	22.080
538.52	22.703
538.72	22.363
538.91	22.992
539.11	22.577
539.30	22.311
539.50	22.602
539.70	22.348
539.89	22.197
540.09	22.265
540.28	22.446
540.48	22.062
540.67	22.262
540.87	21.640
541.06	21.794
541.26	21.504
541.45	21.658
541.65	21.482
541.85	21.711
542.04	21.946
542.24	21.925
542.43	21.954
542.63	22.239
542.82	22.109
543.02	22.859
543.21	22.927
543.41	22.957
543.60	23.289
543.80	23.116
543.99	22.891
544.19	23.481
544.38	22.986
544.58	22.989
544.77	22.882
544.97	23.224
545.16	23.172
545.36	23.425
545.56	23.174
545.75	23.380
545.95	23.549
546.14	23.563
546.34	23.288
546.53	23.745
546.73	23.273
546.92	23.272
547.12	23.381
547.31	23.514
547.51	23.697
547.70	23.843
547.90	23.747
548.09	23.821
548.29	24.184
548.48	24.070
548.68	23.794
548.87	24.925
549.07	24.510
549.26	24.467
549.46	24.528
549.65	24.743
549.84	24.936
550.04	24.189
550.23	24.919
550.43	24.199
550.62	24.753
550.82	25.535
551.01	24.732
551.21	25.705
551.40	25.214
551.60	25.124
551.79	25.044
551.99	25.700
552.18	24.820
552.38	25.201
552.57	25.408
552.77	25.562
552.96	25.468
553.16	25.345
553.35	25.026
553.54	25.863
553.74	25.704
553.93	26.099
554.13	26.108
554.32	25.518
554.52	26.025
554.71	26.279
554.91	26.111
555.10	26.376
555.29	26.780
555.49	27.132
555.68	26.533
555.88	26.812
556.07	26.866
556.27	27.020
556.46	26.586
556.66	26.558
556.85	26.634
557.04	27.279
557.24	26.708
557.43	27.564
557.63	26.921
557.82	27.751
558.02	27.098
558.21	28.126
558.40	28.106
558.60	28.065
558.79	28.414
558.99	27.892
559.18	28.516
559.38	28.130
559.57	28.467
559.76	28.272
559.96	28.168
560.15	28.000
560.35	28.790
560.54	28.502
560.73	27.823
560.93	28.988
561.12	29.180
561.32	29.083
561.51	29.300
561.70	29.344
561.90	28.979
562.09	29.086
562.29	29.267
562.48	29.971
562.67	29.349
562.87	29.692
563.06	29.216
563.26	29.996
563.45	29.333
563.64	30.086
563.84	30.057
564.03	30.600
564.23	30.076
564.42	30.647
564.61	29.641
564.81	30.583
565.00	30.174
565.20	30.987
565.39	30.959
565.58	30.882
565.78	30.529
565.97	30.537
566.16	31.187
566.36	30.598
566.55	31.069
566.74	30.750
566.94	30.525
567.13	30.418
567.33	30.701
567.52	31.139
567.71	31.055
567.91	31.340
568.10	31.460
568.29	31.180
568.49	31.608
568.68	31.864
568.87	31.980
569.07	32.130
569.26	31.808
569.45	31.707
569.65	31.854
569.84	32.190
570.04	31.723
570.23	32.265
570.42	32.023
570.62	32.243
570.81	32.506
571.00	32.628
571.20	32.325
571.39	32.479
571.58	32.414
571.78	32.052
571.97	31.677
572.16	32.666
572.36	31.790
572.55	31.982
572.74	32.384
572.94	32.086
573.13	32.274
573.32	32.883
573.51	32.896
573.71	32.761
573.90	32.234
574.09	32.642
574.29	32.436
574.48	33.184
574.67	32.485
574.87	33.053
575.06	33.233
575.25	32.799
575.45	32.734
575.64	32.785
575.83	32.671
576.03	33.744
576.22	32.954
576.41	33.335
576.60	32.995
576.80	33.642
576.99	32.914
577.18	32.895
577.38	32.888
577.57	33.894
577.76	33.297
577.95	33.575
578.15	33.363
578.34	34.162
578.53	33.550
578.73	33.393
578.92	33.873
579.11	33.370
579.30	33.595
579.50	33.345
579.69	33.322
579.88	32.771
580.08	33.232
580.27	33.815
580.46	33.953
580.65	34.119
580.85	33.622
581.04	34.004
581.23	33.053
581.42	34.048
581.62	33.898
581.81	33.736
582.00	33.171
582.19	32.666
582.39	33.477
582.58	32.980
582.77	33.762
582.96	33.588
583.16	33.045
583.35	33.924
583.54	34.082
583.73	33.142
583.93	33.340
584.12	33.911
584.31	32.927
584.50	34.214
584.70	33.066
584.89	33.655
585.08	32.674
585.27	33.616
585.47	32.620
585.66	33.445
585.85	33.034
586.04	33.495
586.24	33.587
586.43	33.173
586.62	32.012
586.81	32.558
587.00	32.764
587.20	33.517
587.39	32.362
587.58	32.120
587.77	32.821
587.97	32.104
588.16	32.332
588.35	32.957
588.54	31.989
588.73	32.229
588.93	32.165
589.12	32.571
589.31	32.735
589.50	32.041
589.69	32.694
589.89	32.874
590.08	32.442
590.27	32.121
590.46	31.845
590.65	32.267
590.85	31.383
591.04	33.058
591.23	32.813
591.42	32.048
591.61	31.695
591.81	32.865
592.00	32.542
592.19	32.112
592.38	32.577
592.57	32.844
592.77	32.767
592.96	32.468
593.15	33.076
593.34	32.553
593.53	32.626
593.72	32.522
593.92	31.711
594.11	33.140
594.30	32.261
594.49	32.562
594.68	32.400
594.87	33.559
595.07	32.377
595.26	31.997
595.45	33.364
595.64	32.276
595.83	32.748
596.02	32.920
596.22	32.589
596.41	32.496
596.60	32.547
596.79	33.123
596.98	32.317
597.17	32.435
597.37	32.709
597.56	32.589
597.75	32.078
597.94	32.860
598.13	33.599
598.32	33.385
598.51	33.629
598.71	33.711
598.90	33.671
599.09	33.515
599.28	33.549
599.47	34.140
599.66	33.302
599.85	33.875
600.05	33.549
600.24	33.484
600.43	35.147
600.62	34.206
600.81	33.443
601.00	34.416
601.19	33.555
601.38	33.998
601.58	34.533
601.77	34.257
601.96	34.602
602.15	34.369
602.34	34.616
602.53	34.087
602.72	33.768
602.91	34.345
603.10	33.769
603.30	34.074
603.49	34.169
603.68	34.611
603.87	34.227
604.06	33.902
604.25	33.493
604.44	33.699
604.63	33.670
604.82	33.135
605.01	33.928
605.21	34.170
605.40	33.377
605.59	34.130
605.78	33.975
605.97	33.996
606.16	33.551
606.35	33.973
606.54	34.716
606.73	34.558
606.92	34.952
607.11	34.537
607.30	34.540
607.50	35.666
607.69	34.654
607.88	33.750
608.07	34.276
608.26	34.552
608.45	34.350
608.64	34.201
608.83	33.085
609.02	34.187
609.21	33.291
609.40	33.495
609.59	33.853
609.78	33.058
609.97	33.702
610.16	33.131
610.35	33.710
610.55	33.510
610.74	33.372
610.93	33.735
611.12	32.785
611.31	33.484
611.50	33.201
611.69	33.486
611.88	32.776
612.07	33.913
612.26	33.462
612.45	33.931
612.64	33.065
612.83	32.844
613.02	33.955
613.21	33.547
613.40	32.854
613.59	33.865
613.78	33.238
613.97	33.532
614.16	33.307
614.35	32.786
614.54	32.462
614.73	33.738
614.92	32.516
615.11	32.772
615.30	32.459
615.49	31.681
615.68	32.442
615.87	31.580
616.07	31.311
616.26	31.283
616.45	32.062
616.64	31.773
616.83	31.657
617.02	32.613
617.21	30.472
617.40	32.352
617.59	31.623
617.78	31.950
617.97	30.543
618.16	32.268
618.35	29.438
618.54	31.546
618.73	30.480
618.92	30.835
619.11	30.747
619.30	30.885
619.49	30.555
619.68	31.251
619.86	31.217
620.05	31.303
620.24	31.272
620.43	30.508
620.62	29.888
620.81	30.850
621.00	30.654
621.19	30.861
621.38	30.765
621.57	30.945
621.76	31.020
621.95	30.454
622.14	30.600
622.33	30.524
622.52	29.744
622.71	30.148
622.90	29.470
623.09	30.191
623.28	29.186
623.47	31.146
623.66	30.825
623.85	29.509
624.04	30.435
624.23	30.138
624.42	28.758
624.61	29.231
624.80	30.038
624.99	29.451
625.18	28.888
625.36	30.791
625.55	29.473
625.74	30.140
625.93	29.439
626.12	30.105
626.31	29.825
626.50	29.815
626.69	29.347
626.88	29.755
627.07	29.477
627.26	28.936
627.45	29.800
627.64	29.626
627.83	29.056
628.02	29.433
628.20	29.340
628.39	29.300
628.58	29.354
628.77	30.109
628.96	29.796
629.15	29.173
629.34	28.868
629.53	29.848
629.72	29.023
629.91	30.516
630.10	29.916
630.29	30.150
630.47	29.022
630.66	28.633
630.85	29.234
631.04	29.701
631.23	29.823
631.42	29.725
631.61	29.450
631.80	29.339
631.99	28.743
632.18	29.556
632.36	28.622
632.55	30.978
632.74	28.832
632.93	28.786
633.12	29.375
633.31	29.030
633.50	29.127
633.69	29.108
633.88	28.314
634.06	29.330
634.25	28.694
634.44	28.493
634.63	29.655
634.82	28.874
635.01	29.509
635.20	28.988
635.39	29.541
635.57	29.014
635.76	29.131
635.95	29.724
636.14	28.414
636.33	29.491
636.52	29.031
636.71	28.748
636.89	27.765
637.08	28.175
637.27	28.236
637.46	28.261
637.65	28.540
637.84	29.073
638.03	27.633
638.21	29.726
638.40	28.271
638.59	29.708
638.78	27.407
638.97	28.724
639.16	27.555
639.34	27.667
639.53	27.009
639.72	27.283
639.91	27.629
640.10	28.371
640.29	28.939
640.47	29.305
640.66	28.386
640.85	29.345
641.04	28.161
641.23	28.710
641.42	27.582
641.60	27.944
641.79	26.717
641.98	28.479
642.17	26.968
642.36	27.673
642.54	27.574
642.73	26.758
642.92	27.414
643.11	28.510
643.30	28.523
643.49	29.045
643.67	26.493
643.86	27.435
644.05	26.752
644.24	28.268
644.43	27.499
644.61	28.476
644.80	27.589
644.99	28.089
645.18	28.696
645.37	29.145
645.55	27.627
645.74	27.811
645.93	27.039
646.12	28.103
646.31	27.041
646.49	27.574
646.68	28.210
646.87	28.118
647.06	27.141
647.24	28.799
647.43	26.898
647.62	28.535
647.81	27.552
648.00	26.942
648.18	26.138
648.37	25.863
648.56	27.080
648.75	27.776
648.93	26.312
649.12	27.154
649.31	27.804
649.50	26.976
649.68	27.211
649.87	26.734
650.06	26.376
650.25	26.984
650.43	26.809
650.62	27.454
650.81	26.797
651.00	26.416
651.18	26.344
651.37	27.487
651.56	25.652
651.75	28.468
651.93	26.647
652.12	27.952
652.31	25.810
652.50	27.314
652.68	26.685
652.87	28.828
653.06	28.047
653.25	27.813
653.43	26.770
653.62	26.965
653.81	25.532
654.00	28.525
654.18	27.309
654.37	27.993
654.56	25.442
654.74	26.325
654.93	26.947
655.12	26.336
655.31	25.396
655.49	25.906
655.68	24.334
655.87	25.159
656.05	24.268
656.24	25.326
656.43	23.306
656.62	25.708
656.80	25.245
656.99	25.015
657.18	22.985
657.36	25.261
657.55	24.449
657.74	24.515
657.93	23.065
658.11	25.590
658.30	24.496
658.49	23.260
658.67	24.208
658.86	22.079
659.05	23.102
659.23	23.783
659.42	22.613
659.61	23.331
659.79	22.210
659.98	23.689
660.17	22.886
660.35	23.056
660.54	23.521
660.73	24.529
660.91	23.206
661.10	23.141
661.29	21.484
661.47	22.013
661.66	21.615
661.85	22.836
662.03	22.090
662.22	21.112
662.41	19.948
662.59	21.689
662.78	19.218
662.97	20.421
663.15	19.869
663.34	19.565
663.53	19.209
663.71	20.222
663.90	19.901
664.09	21.121
664.27	19.737
664.46	19.363
664.65	18.622
664.83	19.431
665.02	17.737
665.21	16.859
665.39	15.823
665.58	20.298
665.77	17.773
665.95	18.651
666.14	17.293
666.32	18.516
666.51	18.046
666.70	17.848
666.88	17.020
667.07	17.631
667.26	16.220
667.44	17.601
667.63	17.165
667.81	16.623
668.00	17.426
668.19	19.570
668.37	17.016
668.56	19.361
668.75	14.181
668.93	19.359
669.12	15.399
669.30	18.728
669.49	15.833
669.68	18.722
669.86	17.073
670.05	17.880
670.23	16.068
670.42	16.137
670.61	16.912
670.79	18.257
670.98	16.432
671.16	18.334
671.35	15.670
671.54	17.670
671.72	16.337
671.91	17.585
672.09	14.474
672.28	18.123
672.46	18.269
672.65	19.468
672.84	18.335
673.02	19.567
673.21	15.257
673.39	16.509
673.58	18.900
673.77	17.845
673.95	17.419
674.14	18.285
674.32	15.717
674.51	20.300
674.69	17.328
674.88	18.613
675.07	17.246
675.25	22.216
675.44	17.953
675.62	18.490
675.81	17.591
675.99	21.729
676.18	19.901
676.36	17.863
676.55	18.116
676.74	20.099
676.92	19.887
677.11	18.579
677.29	18.364
677.48	20.961
677.66	19.754
677.85	20.014
678.03	18.447
678.22	20.135
678.40	19.589
678.59	18.707
678.78	16.766
678.96	19.254
679.15	18.442
679.33	22.224
679.52	20.871
679.70	20.979
679.89	20.896
680.07	20.662
680.26	18.306
680.44	20.569
680.63	20.290
680.81	19.628
681.00	18.210
681.18	21.667
681.37	19.100
681.55	21.817
681.74	20.972
681.92	21.877
682.11	21.816
682.29	20.683
682.48	20.764
682.66	22.076
682.85	20.390
683.03	22.534
683.22	23.156
683.40	23.116
683.59	21.961
683.77	23.672
683.96	20.074
684.14	22.875
684.33	19.623
684.51	24.538
684.70	23.336
684.88	26.275
685.07	21.529
685.25	24.858
685.44	23.247
685.62	23.723
685.81	22.632
685.99	24.509
686.18	23.540
686.36	24.273
686.55	22.888
686.73	25.473
686.92	26.018
687.10	26.276
687.29	26.421
687.47	27.524
687.65	26.591
687.84	26.868
688.02	26.923
688.21	29.103
688.39	26.476
688.58	29.099
688.76	26.153
688.95	27.779
689.13	26.084
689.32	29.622
689.50	28.315
689.68	31.010
689.87	28.986
690.05	30.855
690.24	30.634
690.42	32.033
690.61	30.285
690.79	33.071
690.98	31.353
691.16	32.400
691.34	29.917
691.53	33.482
691.71	31.782
691.90	33.328
692.08	32.218
692.27	34.924
692.45	35.482
692.63	33.182
692.82	35.949
693.00	36.968
693.19	33.538
693.37	37.119
693.56	35.321
693.74	39.667
693.92	37.562
694.11	40.010
694.29	36.283
694.48	40.190
694.66	39.997
694.84	41.515
695.03	38.447
695.21	42.490
695.40	40.331
695.58	42.860
695.76	40.554
695.95	44.534
696.13	42.673
696.32	44.041
696.50	46.824
696.68	45.081
696.87	43.168
697.05	46.701
697.24	44.155
697.42	46.297
697.60	45.078
697.79	46.777
697.97	47.880
698.16	47.200
698.34	45.131
698.52	46.100
698.71	46.820
698.89	47.226
699.07	47.022
699.26	47.748
699.44	48.288
699.63	46.861
699.81	48.282
699.99	48.870
700.18	48.329
700.36	48.827
700.54	48.762
700.73	50.703
700.91	49.688
701.09	51.858
701.28	52.361
701.46	52.558
701.64	51.097
701.83	50.847
702.01	51.917
702.20	53.351
702.38	53.899
702.56	52.330
702.75	52.866
702.93	54.387
703.11	53.550
703.30	55.235
703.48	54.799
703.66	57.419
703.85	53.423
704.03	57.345
704.21	56.127
704.40	58.734
704.58	56.174
704.76	57.321
704.95	56.326
705.13	58.245
705.31	55.274
705.50	59.169
705.68	55.553
705.86	58.376
706.04	57.709
706.23	57.814
706.41	58.615
706.59	57.500
706.78	58.114
706.96	58.646
707.14	57.773
707.33	58.782
707.51	58.290
707.69	58.112
707.88	58.771
708.06	58.212
708.24	59.904
708.42	59.832
708.61	58.817
708.79	60.665
708.97	61.280
709.16	61.558
709.34	59.453
709.52	58.029
709.71	58.605
709.89	60.941
710.07	57.204
710.25	58.640
710.44	60.060
710.62	60.194
710.80	60.223
710.98	62.572
711.17	60.683
711.35	61.593
711.53	60.716
711.72	60.937
711.90	59.173
712.08	61.170
712.26	57.673
712.45	61.177
712.63	59.741
712.81	62.218
712.99	62.215
713.18	60.158
713.36	60.954
713.54	60.820
713.72	59.837
713.91	61.736
714.09	61.010
714.27	62.027
714.45	62.048
714.64	60.411
714.82	61.097
715.00	63.081
715.18	62.842
715.37	60.011
715.55	60.845
715.73	62.720
715.91	61.461
716.10	60.407
716.28	58.166
716.46	60.179
716.64	59.971
716.83	64.474
717.01	61.989
717.19	62.866
717.37	59.522
717.55	61.083
717.74	59.909
717.92	60.747
718.10	60.369
718.28	58.692
718.47	61.119
718.65	62.735
718.83	61.501
719.01	63.171
719.19	60.090
719.38	59.417
719.56	59.440
719.74	63.063
719.92	60.173
720.10	60.385
720.29	61.280
720.47	62.952
720.65	63.807
720.83	62.579
721.01	61.467
721.20	65.076
721.38	63.581
721.56	61.703
721.74	61.645
721.92	64.545
722.11	62.625
722.29	63.091
722.47	64.219
722.65	65.004
722.83	63.261
723.01	60.156
723.20	65.058
723.38	64.951
723.56	62.920
723.74	66.935
723.92	62.403
724.10	64.541
724.29	60.600
724.47	64.643
724.65	60.325
724.83	65.903
725.01	60.382
725.19	62.959
725.38	64.224
725.56	66.840
725.74	63.960
725.92	67.056
726.10	60.459
726.28	64.482
726.46	66.252
726.65	65.100
726.83	63.280
727.01	64.541
727.19	64.984
727.37	62.318
727.55	62.378
727.73	64.394
727.92	61.796
728.10	62.641
728.28	59.063
728.46	65.172
728.64	61.032
728.82	64.457
729.00	63.604
729.19	65.395
729.37	65.394
729.55	64.402
729.73	62.529
729.91	63.567
730.09	58.809
730.27	65.210
730.45	62.175
730.63	63.628
730.82	61.750
731.00	63.004
731.18	62.567
731.36	63.373
731.54	63.927
731.72	63.396
731.90	63.636
732.08	63.772
732.26	63.980
732.45	65.627
732.63	65.822
732.81	64.576
732.99	67.465
733.17	66.833
733.35	62.314
733.53	65.732
733.71	63.256
733.89	64.146
734.07	63.486
734.25	67.582
734.44	62.714
734.62	63.479
734.80	64.872
734.98	67.328
735.16	63.625
735.34	66.405
735.52	63.763
735.70	64.259
735.88	64.640
736.06	67.779
736.24	67.169
736.42	69.372
736.60	64.873
736.78	68.542
736.97	67.836
737.15	68.925
737.33	64.117
737.51	68.335
737.69	66.331
737.87	65.380
738.05	64.722
738.23	69.317
738.41	67.216
738.59	66.040
738.77	67.498
738.95	68.126
739.13	64.607
739.31	64.820
739.49	69.158
739.67	68.434
739.85	64.646
740.03	66.916
740.21	65.122
740.39	68.681
740.57	67.199
740.75	67.164
740.93	66.037
741.11	66.461
741.30	65.163
741.48	69.001
741.66	70.193
741.84	69.134
742.02	64.381
742.20	69.198
742.38	63.978
742.56	68.292
742.74	64.432
742.92	68.196
743.10	67.408
743.28	70.777
743.46	64.753
743.64	67.634
743.82	64.593
744.00	69.849
744.18	68.099
744.36	66.721
744.54	64.601
744.72	68.739
744.90	70.893
745.08	69.380
745.26	65.602
745.44	67.320
745.62	64.732
745.80	65.963
745.98	66.487
746.16	68.752
746.34	66.113
746.52	66.309
746.70	63.640
746.87	72.464
747.05	69.701
747.23	67.479
747.41	66.374
747.59	66.879
747.77	64.283
747.95	66.971
748.13	65.787
748.31	70.650
748.49	67.908
748.67	65.894
748.85	66.163
749.03	69.370
749.21	63.389
749.39	69.198
749.57	64.853
749.75	67.863
749.93	66.724
750.11	71.354
750.29	65.897
750.47	66.205
750.65	68.444
750.83	67.385
751.01	63.914
751.18	67.922
751.36	63.871
751.54	68.580
751.72	70.629
751.90	67.947
752.08	63.901
752.26	69.177
752.44	65.826
752.62	67.483
752.80	66.231
752.98	71.349
753.16	68.528
753.34	64.150
753.52	67.298
753.69	67.325
753.87	69.085
754.05	65.658
754.23	67.953
754.41	67.894
754.59	65.305
754.77	68.397
754.95	61.690
755.13	67.977
755.31	69.333
755.49	65.333
755.66	65.404
755.84	65.169
756.02	64.325
756.20	69.462
756.38	64.944
756.56	64.171
756.74	65.745
756.92	64.411
757.10	67.269
757.28	66.903
757.45	72.459
757.63	72.024
757.81	64.056
757.99	70.946
758.17	65.876
758.35	69.540
758.53	67.864
758.71	69.876
758.88	63.804
759.06	63.365
759.24	62.061
759.42	63.348
759.60	60.678
759.78	63.495
759.96	57.806
760.13	63.736
760.31	53.894
760.49	58.745
760.67	55.129
760.85	60.492
761.03	51.005
761.21	54.851
761.38	53.970
761.56	59.239
761.74	54.995
761.92	57.971
762.10	53.497
762.28	58.603
762.46	53.576
762.63	58.317
762.81	57.690
762.99	59.075
763.17	57.435
763.35	60.470
763.53	56.816
763.70	61.854
763.88	60.763
764.06	59.440
764.24	55.495
764.42	58.512
764.60	59.630
764.77	59.524
764.95	60.101
765.13	61.402
765.31	57.779
765.49	59.351
765.66	60.472
765.84	61.956
766.02	60.252
766.20	62.372
766.38	61.884
766.56	63.569
766.73	61.603
766.91	63.623
767.09	62.578
767.27	65.559
767.45	61.747
767.62	66.495
767.80	60.852
767.98	65.254
768.16	60.852
768.33	65.414
768.51	62.951
768.69	63.616
768.87	63.340
769.05	64.719
769.22	64.007
769.40	66.937
769.58	67.762
769.76	69.966
769.94	65.785
770.11	69.061
770.29	67.727
770.47	66.422
770.65	63.939
770.82	64.153
771.00	63.760
771.18	67.027
771.36	63.427
771.53	66.830
771.71	63.636
771.89	66.980
772.07	63.092
772.25	70.690
772.42	61.193
772.60	69.256
772.78	64.617
772.96	67.277
773.13	65.341
773.31	66.420
773.49	62.746
773.67	64.006
773.84	63.299
774.02	66.196
774.20	56.139
774.37	64.954
774.55	63.016
774.73	68.890
774.91	63.731
775.08	69.468
775.26	68.293
775.44	66.014
775.62	64.590
775.79	65.894
775.97	61.534
776.15	67.887
776.32	56.753
776.50	66.903
776.68	63.340
776.86	65.989
777.03	63.572
777.21	62.874
777.39	61.301
777.56	69.592
777.74	60.376
777.92	67.021
778.10	60.194
778.27	72.931
778.45	63.362
778.63	67.397
778.80	66.839
778.98	67.064
779.16	68.828
779.34	67.853
779.51	66.129
779.69	65.646
779.87	60.759
780.04	62.052
780.22	56.007
780.40	68.038
780.57	66.586
780.75	66.453
780.93	63.930
781.10	67.960
781.28	71.397
781.46	67.055
781.63	64.779
781.81	66.084
781.99	63.507
782.16	63.647
782.34	59.201
782.52	65.488
782.69	65.656
782.87	70.313
783.05	61.172
783.22	64.593
783.40	60.486
783.58	66.125
783.75	61.168
783.93	68.158
784.11	60.454
784.28	64.143
784.46	56.527
784.64	66.980
784.81	57.778
784.99	72.073
785.17	64.378
785.34	67.175
785.52	55.873
785.69	60.696
785.87	57.404
786.05	64.692
786.22	64.806
786.40	70.314
786.58	65.867
786.75	67.731
786.93	62.018
787.11	63.620
787.28	60.651
787.46	65.198
787.63	60.126
787.81	61.131
787.99	58.635
788.16	60.356
788.34	59.206
788.51	65.006
788.69	59.041
788.87	55.473
789.04	61.399
789.22	64.868
789.39	63.776
789.57	59.031
789.75	54.314
789.92	61.843
790.10	63.575
790.27	65.762
790.45	57.503
790.63	63.448
790.80	57.184
790.98	60.418
791.15	58.893
791.33	59.170
791.51	57.160
791.68	60.354
791.86	57.968
792.03	62.579
792.21	51.169
792.39	59.784
792.56	62.668
792.74	62.023
792.91	60.039
793.09	55.727
793.26	48.680
793.44	62.831
793.62	56.980
793.79	62.067
793.97	55.989
794.14	64.533
794.32	53.753
794.49	61.795
794.67	56.033
794.84	56.766
795.02	52.342
795.20	62.431
795.37	54.411
795.55	60.468
795.72	59.239
795.90	61.255
796.07	56.221
796.25	57.271
796.42	59.223
796.60	57.671
796.77	58.074
796.95	57.178
797.13	53.026
797.30	64.506
797.48	56.577
797.65	58.449
797.83	52.515
798.00	55.119
798.18	50.575
798.35	62.693
798.53	56.316
798.70	61.183
798.88	55.266
799.05	55.992
799.23	51.950
799.40	60.089
799.58	53.669
799.75	58.781
799.93	55.278
800.10	62.993
800.28	54.288
800.45	57.036
800.63	61.144
800.80	64.900
800.98	58.537
801.15	54.502
801.33	58.990
801.50	55.287
801.68	53.309
801.85	56.597
802.03	55.073
802.20	62.491
802.38	54.577
802.55	53.428
802.73	51.658
802.90	52.770
803.08	47.939
803.25	62.364
803.43	57.536
803.60	52.816
803.78	52.475
803.95	60.245
804.13	56.907
804.30	53.632
804.48	55.390
804.65	60.424
804.83	55.243
805.00	58.680
805.17	59.841
805.35	58.412
805.52	47.973
805.70	58.652
805.87	62.357
806.05	55.932
806.22	49.783
806.40	52.313
806.57	47.961
806.75	59.812
806.92	57.950
807.09	54.403
807.27	54.762
807.44	58.845
807.62	52.003
807.79	55.772
807.97	53.930
808.14	58.160
808.31	49.413
808.49	61.141
808.66	49.058
808.84	50.262
809.01	49.595
809.19	50.111
809.36	61.886
809.53	50.587
809.71	53.068
809.88	56.580
810.06	61.414
810.23	57.744
810.41	55.675
810.58	55.375
810.75	46.432
810.93	54.723
811.10	58.340
811.28	61.436
811.45	52.442
811.62	50.083
811.80	54.607
811.97	55.951
812.15	62.078
812.32	50.719
812.49	56.415
812.67	53.345
812.84	53.581
813.02	54.593
813.19	50.909
813.36	57.190
813.54	49.375
813.71	55.857
813.89	55.340
814.06	54.444
814.23	51.434
814.41	49.861
814.58	52.246
814.75	57.029
814.93	49.341
815.10	56.056
815.28	45.517
815.45	53.876
815.62	49.131
815.80	41.463
815.97	43.083
816.14	59.127
816.32	54.712
816.49	49.911
816.66	53.160
816.84	48.298
817.01	51.466
817.18	47.673
817.36	46.112
817.53	60.576
817.71	37.478
817.88	56.359
818.05	53.393
818.23	55.051
818.40	43.306
818.57	47.731
818.75	51.414
818.92	44.102
819.09	44.756
819.27	48.993
819.44	54.323
819.61	46.591
819.79	46.320
819.96	57.174
820.13	46.904
820.31	57.746
820.48	52.008
820.65	54.695
820.82	45.071
821.00	54.419
821.17	41.662
821.34	51.315
821.52	50.717
821.69	50.682
821.86	48.564
822.04	53.695
822.21	56.328
822.38	53.887
822.56	54.318
822.73	55.340
822.90	55.713
823.07	55.140
823.25	56.243
823.42	53.726
823.59	55.365
823.77	54.414
823.94	55.811
824.11	56.924
824.29	56.186
824.46	57.203
824.63	57.544
824.80	57.898
824.98	58.103
825.15	57.551
825.32	56.600
825.49	61.356
825.67	57.489
825.84	59.617
826.01	53.523
826.19	57.387
826.36	54.608
826.53	60.962
826.70	55.611
826.88	58.107
827.05	51.210
827.22	54.966
827.39	53.687
827.57	52.961
827.74	52.650
827.91	56.442
828.08	52.266
828.26	55.995
828.43	53.866
828.60	56.516
828.77	53.090
828.95	55.603
829.12	51.554
829.29	51.341
829.46	52.211
829.64	50.804
829.81	48.771
829.98	55.580
830.15	50.725
830.32	56.372
830.50	47.222
830.67	60.466
830.84	44.247
831.01	43.798
831.19	44.984
831.36	48.921
831.53	46.304
831.70	60.729
831.87	53.640
832.05	53.018
832.22	58.848
832.39	47.173
832.56	50.524
832.74	42.189
832.91	38.582
833.08	56.250
833.25	38.776
833.42	44.986
833.60	42.321
833.77	39.631
833.94	44.224
834.11	47.489
834.28	45.968
834.45	51.259
834.63	47.909
834.80	52.007
834.97	43.982
835.14	47.419
835.31	47.956
835.49	49.091
835.66	52.729
835.83	48.748
836.00	50.605
836.17	50.656
836.34	49.549
836.52	50.939
836.69	56.591
836.86	52.315
837.03	52.214
837.20	51.630
837.37	51.667
837.55	42.913
837.72	44.157
837.89	54.811
838.06	54.976
838.23	56.872
838.40	51.297
838.58	44.954
838.75	57.113
838.92	52.655
839.09	59.064
839.26	55.093
839.43	48.575
839.60	58.270
839.78	77.326
839.95	50.474
840.12	53.828
840.29	56.971
840.46	59.320
840.63	56.981
840.80	55.745
840.98	58.359
841.15	49.271
841.32	48.662
841.49	46.418
841.66	60.803
841.83	45.817
842.00	51.384
842.17	66.590
842.34	50.161
842.52	59.500
842.69	69.554
842.86	59.225
843.03	73.316
843.20	65.718
843.37	66.299
843.54	60.054
843.71	59.130
843.88	64.297
844.06	71.651
844.23	65.893
844.40	57.339
844.57	54.500
844.74	73.801
844.91	74.788
845.08	74.603
845.25	70.623
845.42	71.511
845.59	69.583
845.76	69.052
845.94	75.121
846.11	80.000
846.28	89.674
846.45	86.318
846.62	75.233
846.79	63.636
846.96	68.421
847.13	79.310
847.30	68.590
847.47	65.830
847.64	72.785
847.81	76.253
847.98	78.093
848.15	78.068
848.32	78.261
848.50	80.425
848.67	62.256
848.84	85.158
849.01	71.671
849.18	74.091
849.35	91.525
849.52	65.377
849.69	92.099
849.86	86.683
850.03	72.990
850.20	103.744
850.37	83.448
850.54	82.683
850.71	83.051
850.88	83.186
851.05	71.531
851.22	99.010
851.39	78.834
851.56	78.218
851.73	88.636
851.90	95.050
852.07	79.793
852.24	93.607
852.41	86.325
852.58	79.058
852.75	79.499
852.92	68.238
853.09	89.710
853.26	80.000
853.43	79.319
853.60	96.512
853.77	79.853
853.94	87.785
854.11	99.725
854.28	104.348
854.45	73.605
854.62	90.726
854.79	91.160
854.96	69.124
855.13	84.173
855.30	66.210
855.47	95.122
855.64	78.193
855.81	61.863
855.98	79.444
856.15	90.104
856.32	98.990
856.49	97.436
856.66	65.385
856.83	83.455
857.00	81.148
857.17	86.559
857.34	72.872
857.51	95.430
857.68	95.975
857.85	95.989
858.02	99.078
858.19	85.897
858.36	92.644
858.53	82.934
858.70	85.751
858.87	101.235
859.04	70.833
859.21	66.571
859.38	76.499
859.55	93.814
859.72	98.619
859.89	100.838
860.05	82.555
860.22	93.269
860.39	85.061
860.56	92.705
860.73	97.176
860.90	92.163
861.07	94.930
861.24	65.394
861.41	90.885
861.58	95.098
861.75	80.503
861.92	96.618
862.09	84.197
862.26	88.038
862.43	95.161
862.59	110.036
862.76	91.304
862.93	88.919
863.10	50.435
863.27	78.644
863.44	94.313
863.61	92.945
863.78	95.270
863.95	97.906
864.12	65.517
864.29	78.237
864.45	89.375
864.62	85.942
864.79	78.406
864.96	78.450
865.13	60.989
865.30	89.877
865.47	69.528
865.64	74.737
865.81	73.727
865.97	65.300
866.14	70.789
866.31	75.521
866.48	89.136
866.65	62.730
866.82	87.119
866.99	118.507
867.16	59.557
867.33	103.762
867.49	110.204
867.66	81.818
867.83	76.011
868.00	81.975
868.17	71.465
868.34	99.267
868.51	70.789
868.67	83.284
868.84	73.545
869.01	92.581
869.18	70.100
869.35	63.172
869.52	60.167
869.69	100.573
869.85	73.575
870.02	103.356
870.19	92.971
870.36	75.385
870.53	74.178
870.70	95.041
870.86	84.242
871.03	100.272
871.20	95.082
871.37	103.481
871.54	95.402
871.71	74.201
871.87	88.347
872.04	71.467
872.21	73.276
872.38	110.119
872.55	97.465
872.72	67.847
872.88	79.404
873.05	75.764
873.22	112.340
873.39	87.968
873.56	87.826
873.72	85.602
873.89	67.857
874.06	81.818
874.23	75.475
874.40	76.380
874.56	109.581
874.73	65.743
874.90	69.054
875.07	78.114
875.24	73.165
875.40	59.817
875.57	78.933
875.74	62.535
875.91	73.723
876.08	93.433
876.24	89.431
876.41	111.331
876.58	91.667
876.75	90.423
876.92	73.856
877.08	73.684
877.25	57.360
877.42	89.112
877.59	75.668
877.75	117.630
877.92	74.202
878.09	77.546
878.26	92.950
878.42	81.765
878.59	94.960
878.76	70.324
878.93	86.441
879.09	78.961
879.26	56.793
879.43	89.865
879.60	64.304
879.76	67.992
879.93	70.037
880.10	56.098
880.27	46.080
880.43	63.893
880.60	60.951
880.77	52.972
880.94	49.936
881.10	39.649
881.27	40.211
881.44	35.036
881.61	47.945
881.77	48.549
881.94	41.405
882.11	34.950
882.28	40.550
882.44	42.292
882.61	43.108
882.78	47.696
882.94	51.193
883.11	49.102
883.28	49.668
883.45	48.444
883.61	47.215
883.78	48.236
883.95	51.086
884.11	50.999
884.28	48.309
>>>>>End Processed Spectral Data<<<<<
