SpectraSuite Data File
++++++++++++++++++++++++++++++++++++
Date: Mon Sep 23 03:19:32 EST 2019
User: sgrac
Dark Spectrum Present: Yes
Reference Spectrum Present: Yes
Number of Sampled Component Spectra: 1
Spectrometers: USB4E01596
Integration Time (usec): 100000 (USB4E01596)
Spectra Averaged: 3 (USB4E01596)
Boxcar Smoothing: 0 (USB4E01596)
Correct for Electrical Dark: No (USB4E01596)
Strobe/Lamp Enabled: Yes (USB4E01596)
Correct for Detector Non-linearity: No (USB4E01596)
Correct for Stray Light: No (USB4E01596)
Number of Pixels in Processed Spectrum: 3648
>>>>>Begin Processed Spectral Data<<<<<
178.44	1015.385
178.66	1015.385
178.87	1015.385
179.09	7533.333
179.30	-4100.000
179.52	-429.032
179.74	-369.811
179.95	570.455
180.17	-369.444
180.38	350.877
180.60	-2618.182
180.82	573.333
181.03	3783.333
181.25	-1525.000
181.46	-780.000
181.68	1116.667
181.89	-413.636
182.11	-1325.000
182.33	-1525.000
182.54	575.000
182.76	3800.000
182.97	-517.021
183.19	1010.000
183.40	209.917
183.62	307.692
183.84	251.818
184.05	3228.571
184.27	312.121
184.48	243.939
184.70	1129.412
184.91	942.857
185.13	1930.000
185.34	-9850.000
185.56	873.077
185.78	301.389
185.99	891.667
186.21	219.318
186.42	-3900.000
186.64	1260.000
186.85	-3480.000
187.07	420.000
187.28	371.053
187.50	514.545
187.72	247.436
187.93	616.364
188.15	261.458
188.36	293.421
188.58	436.735
188.79	242.308
189.01	401.408
189.22	591.892
189.44	-700.000
189.65	242.373
189.87	-5175.000
190.09	315.873
190.30	623.810
190.52	405.000
190.73	532.609
190.95	-2650.000
191.16	251.190
191.38	440.541
191.59	402.941
191.81	406.452
192.02	986.667
192.24	659.375
192.45	797.059
192.67	-1243.750
192.88	345.283
193.10	352.459
193.31	487.500
193.53	237.903
193.74	373.333
193.96	2100.000
194.18	707.692
194.39	1093.333
194.61	279.452
194.82	981.818
195.04	262.195
195.25	-312.281
195.47	-338.889
195.68	2816.667
195.90	365.455
196.11	182.090
196.33	17100.000
196.54	578.049
196.76	1285.714
196.97	346.753
197.19	645.946
197.40	1885.714
197.62	162.385
197.83	777.419
198.05	498.182
198.26	668.966
198.48	381.690
198.69	360.000
198.91	694.444
199.12	479.070
199.34	473.913
199.55	257.143
199.77	1268.421
199.98	782.353
200.20	281.579
200.41	390.323
200.63	231.858
200.84	1428.571
201.06	2377.778
201.27	668.293
201.49	257.746
201.70	-523.333
201.91	319.444
202.13	342.373
202.34	331.034
202.56	-860.000
202.77	451.111
202.99	2800.000
203.20	-2325.000
203.42	1550.000
203.63	230.263
203.85	4416.667
204.06	432.000
204.28	229.293
204.49	353.704
204.71	398.305
204.92	719.231
205.14	0.000
205.35	460.000
205.56	-510.000
205.78	5100.000
205.99	-1135.714
206.21	8650.000
206.42	615.909
206.64	732.258
206.85	514.815
207.07	-2055.556
207.28	281.034
207.50	454.348
207.71	738.710
207.93	228.916
208.14	-659.259
208.35	307.273
208.57	1016.000
208.78	-1911.111
209.00	310.638
209.21	-8300.000
209.43	-7066.667
209.64	-1606.667
209.86	278.351
210.07	316.279
210.28	326.761
210.50	882.759
210.71	425.490
210.93	215.441
211.14	316.854
211.36	1450.000
211.57	278.788
211.78	285.714
212.00	292.941
212.21	307.143
212.43	525.641
212.64	291.489
212.86	359.459
213.07	317.431
213.29	-630.556
213.50	210.870
213.71	229.885
213.93	276.829
214.14	1009.091
214.36	276.471
214.57	184.810
214.78	673.333
215.00	285.417
215.21	416.667
215.43	583.784
215.64	277.778
215.86	187.500
216.07	700.000
216.28	539.474
216.50	212.500
216.71	19200.000
216.93	369.697
217.14	1422.222
217.35	203.788
217.57	229.730
217.78	277.778
218.00	196.970
218.21	930.435
218.42	493.617
218.64	253.571
218.85	386.000
219.07	790.000
219.28	277.570
219.49	423.529
219.71	330.769
219.92	154.478
220.14	259.794
220.35	326.667
220.56	240.230
220.78	250.000
220.99	159.677
221.21	204.301
221.42	275.309
221.63	121.965
221.85	341.538
222.06	294.286
222.28	335.385
222.49	204.505
222.70	174.016
222.92	585.714
223.13	303.279
223.34	141.844
223.56	242.857
223.77	181.250
223.99	226.316
224.20	162.500
224.41	235.616
224.63	234.091
224.84	162.838
225.05	109.402
225.27	184.348
225.48	200.000
225.69	163.910
225.91	283.784
226.12	162.791
226.34	150.336
226.55	164.748
226.76	198.125
226.98	114.510
227.19	87.109
227.40	185.156
227.62	90.476
227.83	102.575
228.04	96.089
228.26	65.553
228.47	71.105
228.69	38.325
228.90	28.998
229.11	45.826
229.33	28.840
229.54	32.947
229.75	33.901
229.97	33.244
230.18	36.742
230.39	27.434
230.61	31.224
230.82	30.659
231.03	30.425
231.25	27.814
231.46	39.140
231.67	38.401
231.89	38.022
232.10	36.921
232.31	37.792
232.53	37.521
232.74	50.280
232.95	34.846
233.17	36.400
233.38	33.613
233.59	47.495
233.81	55.797
234.02	36.473
234.23	55.851
234.45	48.785
234.66	42.699
234.87	39.139
235.09	43.569
235.30	47.636
235.51	53.737
235.73	46.197
235.94	33.237
236.15	39.092
236.36	36.262
236.58	32.293
236.79	30.531
237.00	41.056
237.22	39.626
237.43	39.734
237.64	41.260
237.86	41.165
238.07	47.938
238.28	32.258
238.50	24.155
238.71	24.640
238.92	39.688
239.13	38.475
239.35	36.081
239.56	30.919
239.77	54.317
239.99	28.491
240.20	34.349
240.41	35.438
240.63	28.976
240.84	22.637
241.05	22.370
241.26	20.944
241.48	21.037
241.69	21.269
241.90	15.434
242.12	15.499
242.33	16.877
242.54	12.743
242.75	15.876
242.97	16.343
243.18	12.363
243.39	11.433
243.61	15.353
243.82	13.679
244.03	16.779
244.24	15.166
244.46	11.300
244.67	15.557
244.88	15.589
245.09	18.448
245.31	16.396
245.52	13.924
245.73	15.175
245.95	28.850
246.16	15.191
246.37	13.533
246.58	17.869
246.80	14.693
247.01	17.399
247.22	10.909
247.43	11.626
247.65	11.791
247.86	11.108
248.07	8.937
248.28	10.741
248.50	10.637
248.71	8.951
248.92	9.647
249.13	8.046
249.35	11.063
249.56	10.832
249.77	13.470
249.98	9.229
250.20	13.223
250.41	12.025
250.62	14.054
250.83	13.459
251.05	13.658
251.26	15.325
251.47	17.745
251.68	17.617
251.90	12.986
252.11	16.545
252.32	14.309
252.53	14.952
252.75	10.678
252.96	14.955
253.17	12.831
253.38	13.264
253.59	12.827
253.81	11.658
254.02	12.181
254.23	13.447
254.44	10.972
254.66	9.290
254.87	12.486
255.08	20.187
255.29	12.312
255.50	15.623
255.72	14.214
255.93	20.478
256.14	20.647
256.35	12.173
256.57	19.065
256.78	13.389
256.99	15.616
257.20	20.162
257.41	21.673
257.63	21.046
257.84	16.740
258.05	14.820
258.26	14.752
258.47	14.143
258.69	15.842
258.90	8.329
259.11	14.632
259.32	13.640
259.53	10.219
259.75	10.907
259.96	9.619
260.17	8.188
260.38	7.702
260.59	8.666
260.81	7.061
261.02	6.673
261.23	8.379
261.44	8.492
261.65	7.363
261.87	7.269
262.08	7.821
262.29	7.937
262.50	8.208
262.71	7.241
262.92	11.585
263.14	7.935
263.35	9.892
263.56	12.068
263.77	9.605
263.98	14.367
264.20	12.536
264.41	10.047
264.62	9.851
264.83	10.452
265.04	16.682
265.25	12.494
265.47	16.045
265.68	14.257
265.89	10.791
266.10	6.978
266.31	15.749
266.52	10.567
266.74	10.289
266.95	11.742
267.16	11.713
267.37	8.784
267.58	10.334
267.79	12.655
268.01	7.731
268.22	10.586
268.43	9.079
268.64	9.782
268.85	10.592
269.06	9.408
269.27	10.929
269.49	8.431
269.70	9.580
269.91	10.919
270.12	7.722
270.33	11.325
270.54	8.577
270.75	8.236
270.97	11.361
271.18	7.315
271.39	8.315
271.60	9.777
271.81	10.362
272.02	8.226
272.23	9.425
272.45	9.273
272.66	7.466
272.87	6.682
273.08	5.828
273.29	9.240
273.50	8.199
273.71	6.652
273.92	7.133
274.14	6.915
274.35	9.235
274.56	8.851
274.77	8.161
274.98	7.091
275.19	8.884
275.40	7.455
275.61	8.641
275.83	11.445
276.04	9.169
276.25	9.595
276.46	8.717
276.67	11.871
276.88	12.395
277.09	10.494
277.30	10.136
277.51	11.305
277.73	9.044
277.94	7.492
278.15	9.510
278.36	8.524
278.57	9.682
278.78	7.414
278.99	9.063
279.20	8.542
279.41	13.746
279.62	5.800
279.84	9.835
280.05	8.156
280.26	8.505
280.47	8.803
280.68	7.306
280.89	7.569
281.10	9.435
281.31	9.635
281.52	11.945
281.73	6.883
281.94	7.270
282.16	8.327
282.37	6.126
282.58	7.046
282.79	12.978
283.00	9.764
283.21	8.531
283.42	6.776
283.63	11.140
283.84	8.035
284.05	8.060
284.26	6.506
284.47	8.196
284.68	8.294
284.89	9.691
285.11	9.507
285.32	6.762
285.53	7.857
285.74	10.674
285.95	7.366
286.16	7.626
286.37	7.002
286.58	8.282
286.79	6.932
287.00	7.494
287.21	5.739
287.42	7.121
287.63	8.194
287.84	6.861
288.05	7.816
288.26	7.386
288.48	9.610
288.69	7.457
288.90	8.110
289.11	10.097
289.32	9.309
289.53	8.098
289.74	5.448
289.95	6.543
290.16	9.718
290.37	6.121
290.58	6.907
290.79	5.707
291.00	6.255
291.21	6.283
291.42	5.882
291.63	8.484
291.84	8.750
292.05	6.105
292.26	6.363
292.47	7.294
292.68	6.277
292.89	7.373
293.10	8.656
293.31	7.950
293.52	7.159
293.73	6.393
293.94	7.387
294.15	6.948
294.36	7.431
294.57	8.209
294.79	6.213
295.00	6.577
295.21	9.130
295.42	6.604
295.63	7.595
295.84	6.498
296.05	5.709
296.26	7.005
296.47	7.232
296.68	7.878
296.89	10.258
297.10	9.169
297.31	8.636
297.52	5.741
297.73	8.392
297.94	7.689
298.15	7.239
298.36	8.318
298.57	6.979
298.78	8.272
298.99	7.280
299.20	8.710
299.41	8.939
299.62	7.798
299.83	6.944
300.04	8.088
300.25	8.084
300.46	11.372
300.67	9.651
300.88	9.022
301.09	6.610
301.30	9.034
301.50	8.949
301.71	11.620
301.92	9.523
302.13	8.904
302.34	7.433
302.55	7.621
302.76	7.729
302.97	8.185
303.18	8.750
303.39	7.626
303.60	8.692
303.81	10.530
304.02	6.366
304.23	9.187
304.44	7.161
304.65	6.601
304.86	10.230
305.07	7.324
305.28	8.705
305.49	10.207
305.70	8.848
305.91	9.352
306.12	9.175
306.33	7.914
306.54	8.194
306.75	8.920
306.96	12.656
307.17	8.845
307.38	7.976
307.58	9.317
307.79	9.019
308.00	7.818
308.21	7.380
308.42	7.741
308.63	6.947
308.84	8.183
309.05	6.834
309.26	6.693
309.47	9.309
309.68	9.100
309.89	8.821
310.10	7.163
310.31	8.324
310.52	8.158
310.73	9.953
310.94	6.643
311.14	7.688
311.35	7.767
311.56	7.691
311.77	6.732
311.98	6.636
312.19	8.167
312.40	5.923
312.61	7.179
312.82	8.313
313.03	6.948
313.24	8.135
313.45	9.463
313.66	7.318
313.86	9.455
314.07	7.135
314.28	9.341
314.49	5.521
314.70	9.847
314.91	9.492
315.12	8.078
315.33	9.497
315.54	7.726
315.75	7.229
315.96	7.005
316.16	7.761
316.37	8.848
316.58	7.613
316.79	8.080
317.00	8.380
317.21	8.450
317.42	8.997
317.63	7.813
317.84	8.119
318.05	8.808
318.25	8.962
318.46	8.356
318.67	6.891
318.88	10.345
319.09	10.087
319.30	7.346
319.51	6.995
319.72	10.895
319.93	6.348
320.13	8.248
320.34	9.453
320.55	8.720
320.76	8.971
320.97	8.789
321.18	9.629
321.39	6.738
321.60	7.979
321.80	11.043
322.01	7.936
322.22	8.467
322.43	6.837
322.64	7.108
322.85	7.640
323.06	8.751
323.27	7.631
323.47	9.140
323.68	9.532
323.89	8.038
324.10	9.936
324.31	7.865
324.52	8.110
324.73	11.647
324.93	7.686
325.14	8.614
325.35	9.163
325.56	8.350
325.77	9.581
325.98	7.679
326.19	8.424
326.39	6.860
326.60	8.270
326.81	8.460
327.02	5.557
327.23	6.956
327.44	10.348
327.64	7.046
327.85	6.848
328.06	10.562
328.27	12.874
328.48	10.580
328.69	7.142
328.90	8.456
329.10	8.327
329.31	8.824
329.52	7.681
329.73	10.243
329.94	7.714
330.15	9.899
330.35	10.466
330.56	8.789
330.77	8.879
330.98	7.167
331.19	9.748
331.39	10.234
331.60	10.533
331.81	7.896
332.02	9.891
332.23	7.528
332.44	7.978
332.64	10.980
332.85	8.213
333.06	10.471
333.27	6.792
333.48	11.126
333.68	8.888
333.89	9.519
334.10	10.088
334.31	10.395
334.52	10.056
334.72	9.746
334.93	8.778
335.14	6.761
335.35	8.252
335.56	10.442
335.76	7.910
335.97	11.251
336.18	8.798
336.39	12.725
336.60	9.413
336.80	9.629
337.01	8.458
337.22	9.979
337.43	11.072
337.64	11.773
337.84	10.476
338.05	10.472
338.26	13.338
338.47	14.693
338.68	8.076
338.88	10.664
339.09	9.681
339.30	11.978
339.51	11.870
339.71	12.592
339.92	9.683
340.13	12.622
340.34	11.994
340.55	10.732
340.75	11.563
340.96	9.059
341.17	12.408
341.38	10.722
341.58	12.151
341.79	12.468
342.00	10.272
342.21	11.251
342.41	9.011
342.62	11.551
342.83	11.910
343.04	9.691
343.24	12.217
343.45	12.627
343.66	11.324
343.87	13.702
344.07	10.406
344.28	12.836
344.49	12.443
344.70	15.390
344.90	11.728
345.11	11.167
345.32	12.039
345.53	11.906
345.73	13.412
345.94	15.920
346.15	14.148
346.36	12.931
346.56	12.703
346.77	14.386
346.98	12.028
347.19	15.226
347.39	12.378
347.60	13.795
347.81	14.132
348.02	13.882
348.22	11.669
348.43	13.579
348.64	12.414
348.84	13.018
349.05	14.722
349.26	16.596
349.47	10.621
349.67	12.508
349.88	15.214
350.09	13.653
350.30	15.448
350.50	14.279
350.71	13.889
350.92	13.890
351.12	14.614
351.33	12.299
351.54	11.901
351.74	14.988
351.95	13.247
352.16	15.346
352.37	14.161
352.57	13.317
352.78	12.604
352.99	13.913
353.19	12.051
353.40	14.723
353.61	15.164
353.82	15.923
354.02	14.652
354.23	14.530
354.44	16.702
354.64	14.264
354.85	14.923
355.06	13.422
355.26	13.095
355.47	13.942
355.68	15.492
355.88	16.007
356.09	15.003
356.30	14.697
356.51	16.499
356.71	15.173
356.92	13.384
357.13	16.762
357.33	16.911
357.54	15.936
357.75	10.854
357.95	16.416
358.16	13.560
358.37	16.630
358.57	13.995
358.78	16.484
358.99	14.853
359.19	14.604
359.40	15.727
359.61	14.732
359.81	15.087
360.02	18.004
360.23	13.724
360.43	14.226
360.64	13.544
360.85	15.601
361.05	12.964
361.26	17.007
361.47	14.413
361.67	16.376
361.88	13.241
362.09	15.882
362.29	13.451
362.50	14.465
362.70	12.919
362.91	15.470
363.12	13.612
363.32	15.780
363.53	14.942
363.74	15.008
363.94	13.553
364.15	17.055
364.36	15.730
364.56	13.774
364.77	14.313
364.98	15.649
365.18	14.040
365.39	15.932
365.59	12.534
365.80	14.532
366.01	14.812
366.21	13.475
366.42	12.514
366.63	15.592
366.83	11.510
367.04	11.777
367.24	15.226
367.45	13.158
367.66	11.890
367.86	14.650
368.07	12.398
368.28	13.988
368.48	13.161
368.69	12.042
368.89	13.119
369.10	14.594
369.31	12.542
369.51	13.811
369.72	14.948
369.92	16.082
370.13	13.023
370.34	13.886
370.54	9.512
370.75	13.560
370.95	11.706
371.16	13.306
371.37	12.773
371.57	13.430
371.78	12.271
371.98	13.942
372.19	12.815
372.40	14.478
372.60	13.735
372.81	14.255
373.01	11.451
373.22	12.297
373.43	13.222
373.63	14.227
373.84	12.730
374.04	13.239
374.25	12.241
374.46	14.063
374.66	13.212
374.87	14.508
375.07	10.024
375.28	11.949
375.48	12.349
375.69	13.178
375.90	10.382
376.10	11.113
376.31	11.566
376.51	11.764
376.72	11.625
376.92	11.348
377.13	12.693
377.34	12.753
377.54	11.059
377.75	13.992
377.95	12.268
378.16	14.249
378.36	13.000
378.57	14.217
378.77	12.366
378.98	13.245
379.19	11.752
379.39	11.062
379.60	12.003
379.80	12.067
380.01	13.176
380.21	11.061
380.42	11.481
380.62	11.950
380.83	12.384
381.04	11.737
381.24	12.230
381.45	11.687
381.65	10.533
381.86	11.798
382.06	12.762
382.27	9.872
382.47	10.423
382.68	12.970
382.88	9.935
383.09	10.786
383.29	11.639
383.50	12.681
383.71	10.341
383.91	11.780
384.12	11.015
384.32	12.229
384.53	11.571
384.73	9.483
384.94	11.089
385.14	11.194
385.35	10.653
385.55	12.053
385.76	10.205
385.96	10.906
386.17	11.648
386.37	12.427
386.58	11.621
386.78	12.611
386.99	10.123
387.19	12.204
387.40	10.038
387.60	13.209
387.81	10.348
388.01	11.379
388.22	11.369
388.42	12.551
388.63	12.295
388.83	13.579
389.04	8.992
389.24	10.865
389.45	11.121
389.65	11.264
389.86	10.924
390.06	10.607
390.27	10.448
390.47	10.395
390.68	9.807
390.88	12.132
391.09	11.668
391.29	11.775
391.50	10.975
391.70	11.293
391.91	10.490
392.11	10.715
392.32	11.261
392.52	11.985
392.73	10.797
392.93	12.300
393.14	10.912
393.34	10.367
393.55	11.128
393.75	11.331
393.95	11.065
394.16	11.113
394.36	11.563
394.57	11.988
394.77	10.325
394.98	10.645
395.18	11.436
395.39	11.386
395.59	11.157
395.80	11.174
396.00	10.712
396.21	11.937
396.41	10.067
396.61	11.478
396.82	10.567
397.02	12.901
397.23	10.943
397.43	10.860
397.64	8.908
397.84	11.454
398.05	9.664
398.25	11.098
398.45	10.421
398.66	10.582
398.86	10.437
399.07	11.823
399.27	10.374
399.48	11.860
399.68	10.313
399.89	10.621
400.09	10.529
400.29	9.971
400.50	9.954
400.70	11.173
400.91	9.501
401.11	10.585
401.32	10.873
401.52	9.227
401.72	10.205
401.93	11.922
402.13	9.781
402.34	10.368
402.54	9.456
402.75	12.174
402.95	8.177
403.15	11.754
403.36	8.376
403.56	10.879
403.77	9.900
403.97	9.799
404.17	9.303
404.38	11.302
404.58	9.390
404.79	10.749
404.99	10.417
405.19	11.027
405.40	9.690
405.60	10.451
405.81	9.348
406.01	10.279
406.21	9.962
406.42	10.694
406.62	10.257
406.83	10.972
407.03	11.324
407.23	9.631
407.44	9.155
407.64	10.731
407.85	10.224
408.05	9.576
408.25	9.540
408.46	10.760
408.66	10.029
408.87	9.895
409.07	9.278
409.27	9.004
409.48	9.077
409.68	10.453
409.88	7.621
410.09	9.855
410.29	9.619
410.50	11.173
410.70	9.030
410.90	9.686
411.11	8.675
411.31	9.760
411.51	9.790
411.72	10.093
411.92	8.556
412.12	10.283
412.33	9.103
412.53	9.202
412.74	7.873
412.94	9.831
413.14	8.995
413.35	9.742
413.55	9.264
413.75	10.163
413.96	8.765
414.16	9.815
414.36	8.980
414.57	10.064
414.77	9.021
414.97	9.427
415.18	8.638
415.38	9.804
415.58	9.420
415.79	8.701
415.99	8.500
416.19	10.485
416.40	9.457
416.60	10.157
416.80	9.167
417.01	9.837
417.21	8.256
417.41	9.837
417.62	9.510
417.82	10.093
418.02	8.992
418.23	9.990
418.43	9.626
418.63	10.548
418.84	10.026
419.04	9.790
419.24	10.420
419.45	10.801
419.65	10.179
419.85	10.294
420.06	9.703
420.26	10.567
420.46	10.206
420.67	10.616
420.87	10.278
421.07	10.686
421.28	10.318
421.48	10.527
421.68	10.494
421.88	10.723
422.09	10.435
422.29	10.684
422.49	9.810
422.70	10.432
422.90	10.474
423.10	10.319
423.31	10.434
423.51	10.289
423.71	10.088
423.91	10.757
424.12	10.390
424.32	10.480
424.52	10.158
424.73	10.206
424.93	10.277
425.13	10.442
425.33	9.960
425.54	10.430
425.74	10.115
425.94	10.878
426.15	10.711
426.35	10.476
426.55	10.293
426.75	10.630
426.96	10.300
427.16	10.171
427.36	9.993
427.57	10.435
427.77	9.297
427.97	10.276
428.17	10.202
428.38	10.483
428.58	8.579
428.78	10.109
428.98	8.869
429.19	8.461
429.39	8.465
429.59	9.604
429.79	8.378
430.00	8.615
430.20	8.298
430.40	9.199
430.60	9.332
430.81	8.796
431.01	8.684
431.21	9.245
431.41	7.667
431.62	9.530
431.82	8.324
432.02	9.708
432.22	8.202
432.43	9.130
432.63	8.504
432.83	9.597
433.03	9.048
433.24	8.619
433.44	8.625
433.64	9.468
433.84	8.408
434.05	9.686
434.25	9.458
434.45	9.634
434.65	9.623
434.85	9.905
435.06	9.806
435.26	9.490
435.46	9.253
435.66	10.019
435.87	9.235
436.07	9.418
436.27	9.441
436.47	9.054
436.67	8.941
436.88	9.341
437.08	8.961
437.28	9.014
437.48	9.076
437.69	9.732
437.89	9.075
438.09	10.045
438.29	9.035
438.49	9.774
438.70	9.275
438.90	8.837
439.10	8.620
439.30	9.230
439.50	8.629
439.71	9.756
439.91	9.020
440.11	10.139
440.31	9.527
440.51	9.470
440.72	9.107
440.92	9.612
441.12	9.655
441.32	10.155
441.52	9.855
441.72	9.674
441.93	9.499
442.13	9.880
442.33	9.536
442.53	9.996
442.73	8.925
442.94	9.736
443.14	9.425
443.34	10.136
443.54	9.283
443.74	9.710
443.94	9.058
444.15	9.258
444.35	9.133
444.55	9.708
444.75	9.054
444.95	9.231
445.15	9.246
445.36	9.303
445.56	8.711
445.76	9.328
445.96	9.086
446.16	9.499
446.36	9.044
446.57	9.757
446.77	8.980
446.97	9.435
447.17	9.738
447.37	9.787
447.57	9.717
447.77	9.714
447.98	9.761
448.18	9.750
448.38	9.281
448.58	9.856
448.78	9.831
448.98	9.735
449.18	9.386
449.39	9.616
449.59	9.184
449.79	9.578
449.99	9.089
450.19	9.495
450.39	9.090
450.59	9.266
450.79	8.822
451.00	9.467
451.20	9.684
451.40	9.266
451.60	8.737
451.80	9.296
452.00	8.350
452.20	9.581
452.40	8.556
452.61	8.777
452.81	8.881
453.01	9.039
453.21	8.593
453.41	9.177
453.61	9.080
453.81	8.969
454.01	8.794
454.21	9.397
454.42	9.713
454.62	9.575
454.82	8.745
455.02	9.064
455.22	8.468
455.42	8.937
455.62	7.805
455.82	9.163
456.02	8.666
456.23	9.162
456.43	8.035
456.63	8.896
456.83	7.892
457.03	9.025
457.23	8.392
457.43	9.017
457.63	8.595
457.83	8.728
458.03	8.557
458.23	9.224
458.43	8.139
458.64	9.090
458.84	9.147
459.04	8.856
459.24	9.120
459.44	9.414
459.64	8.752
459.84	9.164
460.04	9.435
460.24	9.400
460.44	9.231
460.64	9.135
460.84	9.563
461.04	9.437
461.24	9.650
461.45	9.789
461.65	9.554
461.85	9.771
462.05	9.441
462.25	9.766
462.45	9.648
462.65	9.632
462.85	8.382
463.05	9.574
463.25	7.893
463.45	9.425
463.65	8.889
463.85	9.252
464.05	8.979
464.25	9.218
464.45	8.662
464.65	8.717
464.85	8.141
465.05	9.202
465.26	9.238
465.46	9.128
465.66	8.673
465.86	8.515
466.06	8.722
466.26	8.931
466.46	8.084
466.66	9.063
466.86	8.579
467.06	8.686
467.26	9.131
467.46	9.329
467.66	8.929
467.86	9.018
468.06	8.841
468.26	8.968
468.46	8.846
468.66	8.780
468.86	8.168
469.06	8.967
469.26	7.770
469.46	8.640
469.66	8.034
469.86	9.019
470.06	8.207
470.26	9.455
470.46	8.142
470.66	9.178
470.86	8.123
471.06	8.513
471.26	8.273
471.46	8.350
471.66	8.811
471.86	8.885
472.06	8.274
472.26	9.209
472.46	9.377
472.66	9.092
472.86	8.445
473.06	8.874
473.26	8.262
473.46	9.186
473.66	8.100
473.86	9.111
474.06	8.018
474.26	9.094
474.46	8.108
474.66	9.007
474.86	8.846
475.06	9.199
475.26	7.864
475.46	8.779
475.66	7.898
475.86	8.517
476.06	8.840
476.26	8.743
476.46	8.379
476.66	9.008
476.86	7.901
477.06	9.047
477.26	8.279
477.46	8.840
477.65	8.424
477.85	9.058
478.05	7.909
478.25	9.329
478.45	8.949
478.65	9.121
478.85	8.606
479.05	8.995
479.25	8.772
479.45	9.672
479.65	8.526
479.85	9.239
480.05	8.882
480.25	9.169
480.45	8.915
480.65	9.229
480.85	9.113
481.05	9.306
481.25	9.519
481.44	9.242
481.64	8.584
481.84	9.362
482.04	9.225
482.24	9.498
482.44	9.056
482.64	9.173
482.84	9.201
483.04	9.096
483.24	9.026
483.44	9.236
483.64	9.345
483.84	9.354
484.04	9.388
484.23	9.358
484.43	9.581
484.63	9.836
484.83	10.017
485.03	10.410
485.23	10.343
485.43	10.160
485.63	10.141
485.83	9.914
486.03	9.923
486.23	9.956
486.42	9.978
486.62	9.766
486.82	9.528
487.02	9.591
487.22	9.447
487.42	9.587
487.62	9.715
487.82	9.468
488.02	9.457
488.22	9.680
488.41	9.624
488.61	9.605
488.81	9.701
489.01	9.640
489.21	9.784
489.41	9.911
489.61	9.569
489.81	9.900
490.01	9.870
490.20	9.731
490.40	9.712
490.60	9.984
490.80	9.474
491.00	9.742
491.20	9.388
491.40	9.394
491.60	9.333
491.79	9.610
491.99	9.392
492.19	9.652
492.39	9.791
492.59	9.792
492.79	9.697
492.99	9.884
493.19	9.896
493.38	10.056
493.58	9.859
493.78	9.821
493.98	10.053
494.18	9.790
494.38	9.522
494.58	9.779
494.77	9.304
494.97	9.666
495.17	9.503
495.37	9.389
495.57	9.494
495.77	9.423
495.96	9.602
496.16	9.577
496.36	9.106
496.56	9.234
496.76	9.219
496.96	9.203
497.15	9.191
497.35	9.362
497.55	9.377
497.75	9.720
497.95	9.631
498.15	9.880
498.34	9.481
498.54	9.610
498.74	9.646
498.94	9.749
499.14	9.611
499.34	10.020
499.53	9.534
499.73	9.921
499.93	9.355
500.13	9.535
500.33	8.942
500.52	9.694
500.72	9.450
500.92	9.348
501.12	9.360
501.32	9.120
501.52	9.653
501.71	9.538
501.91	8.892
502.11	9.792
502.31	9.064
502.51	9.585
502.70	8.984
502.90	9.415
503.10	9.034
503.30	10.073
503.50	9.211
503.69	9.420
503.89	9.261
504.09	9.833
504.29	9.437
504.48	9.999
504.68	9.632
504.88	10.128
505.08	9.163
505.28	9.831
505.47	9.321
505.67	10.159
505.87	9.225
506.07	9.995
506.27	9.661
506.46	9.708
506.66	9.018
506.86	9.798
507.06	10.359
507.25	9.895
507.45	9.294
507.65	9.917
507.85	9.468
508.04	9.853
508.24	9.592
508.44	9.808
508.64	9.692
508.83	10.020
509.03	9.448
509.23	9.828
509.43	9.184
509.63	10.147
509.82	9.692
510.02	10.290
510.22	9.788
510.42	10.294
510.61	9.795
510.81	9.588
511.01	9.900
511.21	10.016
511.40	9.594
511.60	10.119
511.80	9.826
511.99	10.214
512.19	9.909
512.39	10.154
512.59	9.984
512.78	10.395
512.98	10.137
513.18	10.418
513.38	10.134
513.57	10.136
513.77	10.277
513.97	10.251
514.17	10.233
514.36	10.416
514.56	10.235
514.76	10.312
514.95	9.510
515.15	9.920
515.35	9.529
515.55	9.858
515.74	9.665
515.94	10.529
516.14	9.873
516.33	10.125
516.53	9.752
516.73	10.038
516.93	9.877
517.12	10.121
517.32	9.406
517.52	10.155
517.71	9.890
517.91	10.194
518.11	9.890
518.30	10.094
518.50	9.745
518.70	10.365
518.90	10.061
519.09	10.179
519.29	10.103
519.49	10.196
519.68	10.048
519.88	10.458
520.08	10.172
520.27	10.334
520.47	10.436
520.67	10.424
520.86	10.541
521.06	10.376
521.26	10.072
521.45	10.431
521.65	10.115
521.85	10.445
522.04	10.025
522.24	10.295
522.44	10.035
522.63	9.943
522.83	9.828
523.03	10.026
523.22	10.084
523.42	10.514
523.62	10.123
523.81	10.206
524.01	10.165
524.21	10.265
524.40	10.000
524.60	10.056
524.80	9.721
524.99	10.350
525.19	9.951
525.39	10.359
525.58	9.963
525.78	10.214
525.98	10.157
526.17	10.429
526.37	10.259
526.57	10.329
526.76	10.189
526.96	10.473
527.15	10.437
527.35	10.483
527.55	10.273
527.74	10.440
527.94	10.470
528.14	10.129
528.33	10.186
528.53	10.218
528.72	10.324
528.92	10.385
529.12	10.541
529.31	10.793
529.51	10.817
529.71	10.702
529.90	10.662
530.10	10.792
530.29	10.726
530.49	10.882
530.69	10.866
530.88	10.963
531.08	10.732
531.28	10.770
531.47	10.863
531.67	10.833
531.86	10.555
532.06	10.618
532.26	10.591
532.45	10.717
532.65	10.562
532.84	10.377
533.04	10.346
533.24	10.378
533.43	10.430
533.63	10.520
533.82	10.802
534.02	10.683
534.22	10.666
534.41	10.440
534.61	10.698
534.80	10.843
535.00	10.864
535.19	10.827
535.39	11.081
535.59	10.773
535.78	10.487
535.98	10.743
536.17	10.512
536.37	10.407
536.57	10.631
536.76	10.682
536.96	10.557
537.15	10.781
537.35	10.290
537.54	10.744
537.74	10.836
537.93	10.707
538.13	10.995
538.33	10.910
538.52	10.488
538.72	10.997
538.91	10.717
539.11	10.722
539.30	10.858
539.50	10.934
539.70	10.485
539.89	10.786
540.09	10.516
540.28	10.873
540.48	10.261
540.67	10.607
540.87	10.632
541.06	10.822
541.26	10.901
541.45	11.070
541.65	11.265
541.85	11.018
542.04	10.831
542.24	10.981
542.43	11.139
542.63	11.243
542.82	11.142
543.02	11.199
543.21	11.382
543.41	11.310
543.60	11.286
543.80	11.252
543.99	11.216
544.19	11.197
544.38	11.280
544.58	11.437
544.77	11.248
544.97	11.360
545.16	11.114
545.36	11.409
545.56	10.983
545.75	11.266
545.95	11.368
546.14	11.512
546.34	11.304
546.53	11.418
546.73	11.228
546.92	11.322
547.12	11.587
547.31	11.510
547.51	11.322
547.70	11.832
547.90	11.176
548.09	11.555
548.29	11.316
548.48	11.653
548.68	11.423
548.87	11.838
549.07	11.432
549.26	11.576
549.46	11.623
549.65	11.719
549.84	11.317
550.04	11.422
550.23	10.739
550.43	11.195
550.62	11.456
550.82	11.321
551.01	11.229
551.21	11.614
551.40	11.012
551.60	11.789
551.79	11.182
551.99	11.315
552.18	11.037
552.38	11.348
552.57	11.280
552.77	11.749
552.96	12.160
553.16	12.189
553.35	11.599
553.54	12.232
553.74	12.016
553.93	12.375
554.13	12.577
554.32	12.462
554.52	12.500
554.71	12.277
554.91	11.960
555.10	12.593
555.29	11.332
555.49	12.495
555.68	11.754
555.88	12.237
556.07	11.611
556.27	12.273
556.46	12.048
556.66	12.203
556.85	12.231
557.04	12.561
557.24	12.237
557.43	13.147
557.63	12.210
557.82	12.716
558.02	11.833
558.21	13.017
558.40	11.661
558.60	12.800
558.79	12.420
558.99	12.660
559.18	12.641
559.38	12.682
559.57	12.465
559.76	12.862
559.96	12.898
560.15	13.515
560.35	12.429
560.54	12.868
560.73	12.651
560.93	13.312
561.12	12.904
561.32	13.083
561.51	12.917
561.70	13.857
561.90	12.932
562.09	13.640
562.29	12.866
562.48	13.563
562.67	13.628
562.87	13.979
563.06	13.383
563.26	13.823
563.45	13.920
563.64	14.018
563.84	13.753
564.03	13.481
564.23	13.557
564.42	14.072
564.61	13.694
564.81	13.873
565.00	14.024
565.20	14.029
565.39	14.144
565.58	14.284
565.78	14.579
565.97	14.605
566.16	14.633
566.36	14.861
566.55	14.730
566.74	14.931
566.94	14.987
567.13	15.077
567.33	14.975
567.52	15.289
567.71	14.906
567.91	15.288
568.10	15.199
568.29	15.616
568.49	14.795
568.68	15.570
568.87	14.995
569.07	15.450
569.26	15.539
569.45	16.020
569.65	15.224
569.84	14.980
570.04	15.163
570.23	15.737
570.42	15.073
570.62	15.444
570.81	15.615
571.00	15.851
571.20	15.821
571.39	15.837
571.58	15.593
571.78	16.102
571.97	15.771
572.16	15.731
572.36	15.692
572.55	16.366
572.74	15.897
572.94	15.856
573.13	16.022
573.32	16.398
573.51	16.111
573.71	16.053
573.90	16.182
574.09	16.252
574.29	16.060
574.48	16.259
574.67	15.689
574.87	16.195
575.06	16.037
575.25	16.249
575.45	16.293
575.64	16.132
575.83	15.787
576.03	17.216
576.22	15.967
576.41	16.512
576.60	16.083
576.80	16.349
576.99	16.228
577.18	16.534
577.38	16.283
577.57	16.386
577.76	16.626
577.95	15.815
578.15	15.818
578.34	16.921
578.53	16.024
578.73	16.827
578.92	16.370
579.11	16.254
579.30	15.807
579.50	16.342
579.69	16.796
579.88	16.284
580.08	15.236
580.27	15.994
580.46	15.373
580.65	16.383
580.85	15.715
581.04	16.769
581.23	15.516
581.42	16.420
581.62	16.372
581.81	15.132
582.00	16.019
582.19	15.628
582.39	15.378
582.58	15.911
582.77	15.768
582.96	15.785
583.16	15.253
583.35	16.354
583.54	16.412
583.73	16.211
583.93	15.388
584.12	15.681
584.31	15.119
584.50	15.559
584.70	15.899
584.89	16.000
585.08	15.915
585.27	16.074
585.47	15.000
585.66	15.429
585.85	14.936
586.04	15.450
586.24	15.976
586.43	15.476
586.62	15.614
586.81	16.114
587.00	15.493
587.20	15.930
587.39	14.866
587.58	16.190
587.77	15.749
587.97	16.084
588.16	16.065
588.35	16.181
588.54	14.943
588.73	16.062
588.93	15.514
589.12	15.621
589.31	15.221
589.50	15.509
589.69	15.600
589.89	15.978
590.08	15.585
590.27	15.372
590.46	15.487
590.65	15.912
590.85	15.460
591.04	15.985
591.23	16.380
591.42	16.303
591.61	15.626
591.81	15.863
592.00	15.739
592.19	16.067
592.38	15.105
592.57	16.322
592.77	15.204
592.96	15.837
593.15	16.078
593.34	15.700
593.53	15.413
593.72	15.776
593.92	14.800
594.11	16.419
594.30	14.863
594.49	16.697
594.68	15.941
594.87	15.734
595.07	15.056
595.26	16.035
595.45	15.274
595.64	16.110
595.83	15.266
596.02	16.119
596.22	15.705
596.41	16.279
596.60	15.581
596.79	16.475
596.98	16.234
597.17	16.616
597.37	16.289
597.56	16.775
597.75	16.077
597.94	16.439
598.13	16.765
598.32	17.267
598.51	16.656
598.71	17.320
598.90	16.430
599.09	17.446
599.28	16.404
599.47	16.782
599.66	15.940
599.85	16.480
600.05	15.185
600.24	17.058
600.43	16.343
600.62	16.509
600.81	16.023
601.00	16.203
601.19	15.823
601.38	17.046
601.58	16.205
601.77	16.147
601.96	15.933
602.15	17.036
602.34	16.714
602.53	17.173
602.72	16.293
602.91	16.832
603.10	16.473
603.30	16.631
603.49	15.961
603.68	17.292
603.87	16.523
604.06	17.210
604.25	16.799
604.44	17.183
604.63	17.082
604.82	17.149
605.01	16.958
605.21	17.916
605.40	17.232
605.59	17.710
605.78	16.973
605.97	17.116
606.16	16.955
606.35	17.203
606.54	17.338
606.73	17.082
606.92	17.289
607.11	17.381
607.30	16.698
607.50	17.184
607.69	16.443
607.88	16.685
608.07	15.971
608.26	16.060
608.45	16.211
608.64	16.814
608.83	15.884
609.02	16.940
609.21	16.625
609.40	17.044
609.59	16.015
609.78	16.249
609.97	16.776
610.16	16.380
610.35	16.724
610.55	16.248
610.74	16.509
610.93	16.452
611.12	16.153
611.31	16.201
611.50	16.330
611.69	15.994
611.88	16.388
612.07	16.748
612.26	15.388
612.45	16.061
612.64	15.575
612.83	16.087
613.02	15.155
613.21	15.646
613.40	14.454
613.59	16.292
613.78	14.353
613.97	15.327
614.16	14.558
614.35	14.824
614.54	13.228
614.73	14.771
614.92	15.205
615.11	14.371
615.30	14.272
615.49	13.962
615.68	14.581
615.87	14.472
616.07	14.063
616.26	15.301
616.45	14.450
616.64	14.408
616.83	14.330
617.02	14.237
617.21	13.179
617.40	13.833
617.59	14.533
617.78	14.443
617.97	13.500
618.16	13.227
618.35	13.203
618.54	14.540
618.73	13.279
618.92	14.705
619.11	13.413
619.30	14.204
619.49	13.286
619.68	14.051
619.86	13.792
620.05	14.519
620.24	12.976
620.43	14.197
620.62	11.951
620.81	14.440
621.00	14.363
621.19	14.550
621.38	13.894
621.57	14.454
621.76	12.907
621.95	13.497
622.14	14.684
622.33	14.727
622.52	12.920
622.71	14.549
622.90	12.367
623.09	14.242
623.28	13.330
623.47	14.071
623.66	13.511
623.85	13.968
624.04	13.296
624.23	12.382
624.42	13.165
624.61	13.044
624.80	12.648
624.99	13.680
625.18	12.000
625.36	13.320
625.55	13.754
625.74	12.800
625.93	12.909
626.12	13.771
626.31	13.457
626.50	14.033
626.69	13.084
626.88	15.110
627.07	14.006
627.26	13.804
627.45	13.145
627.64	14.166
627.83	13.676
628.02	14.258
628.20	13.405
628.39	13.808
628.58	13.601
628.77	13.688
628.96	12.702
629.15	13.557
629.34	13.711
629.53	13.651
629.72	11.631
629.91	14.372
630.10	12.534
630.29	12.735
630.47	12.102
630.66	12.597
630.85	11.992
631.04	12.991
631.23	12.611
631.42	12.171
631.61	11.832
631.80	14.062
631.99	11.875
632.18	11.567
632.36	11.355
632.55	12.702
632.74	12.709
632.93	12.222
633.12	11.625
633.31	12.677
633.50	11.920
633.69	12.468
633.88	11.458
634.06	12.076
634.25	12.297
634.44	12.887
634.63	12.740
634.82	13.465
635.01	11.087
635.20	12.673
635.39	11.386
635.57	13.233
635.76	12.103
635.95	12.402
636.14	11.048
636.33	13.081
636.52	11.809
636.71	12.119
636.89	11.399
637.08	12.455
637.27	10.999
637.46	12.542
637.65	11.163
637.84	12.423
638.03	11.845
638.21	13.546
638.40	11.415
638.59	11.558
638.78	10.819
638.97	12.512
639.16	12.733
639.34	11.732
639.53	10.738
639.72	12.177
639.91	11.091
640.10	11.748
640.29	12.150
640.47	12.133
640.66	11.369
640.85	13.693
641.04	9.936
641.23	12.694
641.42	11.695
641.60	11.925
641.79	11.369
641.98	12.388
642.17	10.441
642.36	12.185
642.54	10.240
642.73	11.444
642.92	10.722
643.11	11.150
643.30	10.475
643.49	11.179
643.67	8.679
643.86	12.281
644.05	9.901
644.24	11.161
644.43	10.927
644.61	11.623
644.80	11.050
644.99	11.537
645.18	12.101
645.37	12.044
645.55	10.969
645.74	10.932
645.93	11.239
646.12	11.938
646.31	11.155
646.49	11.070
646.68	11.796
646.87	11.105
647.06	10.991
647.24	11.045
647.43	9.952
647.62	11.718
647.81	9.133
648.00	12.358
648.18	9.604
648.37	10.441
648.56	11.027
648.75	10.567
648.93	11.455
649.12	11.331
649.31	11.657
649.50	11.527
649.68	10.904
649.87	10.954
650.06	9.825
650.25	11.470
650.43	10.560
650.62	10.068
650.81	10.538
651.00	11.175
651.18	10.015
651.37	12.128
651.56	9.903
651.75	11.392
651.93	10.844
652.12	11.370
652.31	10.035
652.50	11.151
652.68	11.400
652.87	11.834
653.06	11.838
653.25	12.262
653.43	10.021
653.62	11.722
653.81	10.563
654.00	11.490
654.18	10.166
654.37	12.519
654.56	10.306
654.74	8.517
654.93	10.415
655.12	9.957
655.31	10.992
655.49	11.177
655.68	9.490
655.87	9.640
656.05	8.535
656.24	10.253
656.43	8.343
656.62	10.783
656.80	9.779
656.99	9.489
657.18	8.603
657.36	9.224
657.55	10.063
657.74	9.925
657.93	10.874
658.11	11.619
658.30	10.343
658.49	10.068
658.67	10.188
658.86	10.025
659.05	8.801
659.23	11.150
659.42	9.253
659.61	10.269
659.79	9.572
659.98	10.663
660.17	11.197
660.35	10.400
660.54	10.790
660.73	11.627
660.91	10.400
661.10	10.847
661.29	8.574
661.47	8.920
661.66	9.204
661.85	9.130
662.03	9.903
662.22	7.937
662.41	7.709
662.59	9.493
662.78	8.528
662.97	8.485
663.15	7.149
663.34	6.898
663.53	7.616
663.71	9.335
663.90	7.381
664.09	8.906
664.27	8.847
664.46	8.210
664.65	7.215
664.83	7.889
665.02	6.962
665.21	6.632
665.39	6.538
665.58	9.512
665.77	7.321
665.95	7.410
666.14	6.068
666.32	8.352
666.51	6.655
666.70	6.671
666.88	6.630
667.07	6.232
667.26	7.237
667.44	7.677
667.63	7.738
667.81	5.911
668.00	7.472
668.19	9.290
668.37	7.218
668.56	8.904
668.75	5.599
668.93	9.106
669.12	8.260
669.30	7.590
669.49	7.297
669.68	8.704
669.86	8.571
670.05	7.279
670.23	7.367
670.42	8.199
670.61	7.763
670.79	8.652
670.98	7.684
671.16	8.328
671.35	7.340
671.54	8.488
671.72	7.627
671.91	9.616
672.09	7.037
672.28	10.280
672.46	9.238
672.65	8.954
672.84	8.580
673.02	10.036
673.21	6.858
673.39	7.468
673.58	7.993
673.77	7.722
673.95	8.651
674.14	9.650
674.32	7.321
674.51	10.646
674.69	8.356
674.88	10.115
675.07	8.455
675.25	11.456
675.44	8.472
675.62	9.952
675.81	8.027
675.99	12.817
676.18	10.457
676.36	9.177
676.55	7.930
676.74	11.159
676.92	10.926
677.11	10.909
677.29	8.904
677.48	10.704
677.66	10.531
677.85	10.362
678.03	9.565
678.22	11.875
678.40	10.533
678.59	9.948
678.78	9.478
678.96	10.206
679.15	8.718
679.33	12.669
679.52	11.551
679.70	10.510
679.89	10.496
680.07	10.801
680.26	9.262
680.44	11.396
680.63	11.134
680.81	11.087
681.00	9.004
681.18	11.196
681.37	9.901
681.55	13.003
681.74	11.563
681.92	11.567
682.11	11.256
682.29	10.787
682.48	10.580
682.66	12.441
682.85	10.186
683.03	11.689
683.22	11.912
683.40	13.071
683.59	12.424
683.77	12.129
683.96	10.929
684.14	12.935
684.33	9.448
684.51	13.460
684.70	12.139
684.88	13.493
685.07	12.651
685.25	12.885
685.44	12.162
685.62	12.153
685.81	10.774
685.99	13.344
686.18	9.825
686.36	13.493
686.55	10.477
686.73	11.598
686.92	13.397
687.10	14.160
687.29	13.678
687.47	15.308
687.65	15.409
687.84	12.390
688.02	15.807
688.21	15.467
688.39	12.460
688.58	15.196
688.76	13.784
688.95	14.496
689.13	12.564
689.32	16.114
689.50	14.996
689.68	14.961
689.87	13.807
690.05	15.345
690.24	14.571
690.42	14.878
690.61	16.658
690.79	17.008
690.98	15.370
691.16	15.947
691.34	14.202
691.53	15.679
691.71	14.509
691.90	15.802
692.08	13.775
692.27	17.047
692.45	18.104
692.63	15.950
692.82	18.324
693.00	16.172
693.19	15.537
693.37	18.884
693.56	14.864
693.74	18.894
693.92	17.508
694.11	19.133
694.29	19.320
694.48	19.281
694.66	18.170
694.84	19.821
695.03	18.254
695.21	21.289
695.40	21.089
695.58	22.914
695.76	18.944
695.95	21.203
696.13	18.875
696.32	21.120
696.50	24.068
696.68	20.767
696.87	19.104
697.05	22.598
697.24	21.606
697.42	24.139
697.60	21.562
697.79	24.042
697.97	22.583
698.16	25.676
698.34	20.902
698.52	25.505
698.71	23.543
698.89	26.223
699.07	23.222
699.26	26.082
699.44	24.655
699.63	26.408
699.81	24.661
699.99	25.769
700.18	26.001
700.36	26.299
700.54	25.658
700.73	24.706
700.91	24.658
701.09	27.495
701.28	26.691
701.46	26.760
701.64	25.713
701.83	27.251
702.01	26.456
702.20	29.364
702.38	28.091
702.56	26.935
702.75	25.929
702.93	27.689
703.11	25.792
703.30	29.061
703.48	27.978
703.66	28.060
703.85	25.651
704.03	30.539
704.21	27.404
704.40	29.827
704.58	26.358
704.76	28.794
704.95	25.608
705.13	29.156
705.31	27.631
705.50	29.713
705.68	26.053
705.86	29.659
706.04	28.722
706.23	29.532
706.41	26.368
706.59	28.669
706.78	25.565
706.96	30.749
707.14	29.133
707.33	31.199
707.51	27.437
707.69	31.367
707.88	28.062
708.06	30.500
708.24	29.642
708.42	33.367
708.61	28.622
708.79	31.454
708.97	29.902
709.16	30.938
709.34	30.874
709.52	31.271
709.71	31.654
709.89	33.084
710.07	28.314
710.25	33.152
710.44	29.182
710.62	31.272
710.80	32.215
710.98	30.714
711.17	28.969
711.35	33.032
711.53	30.392
711.72	32.138
711.90	31.851
712.08	31.731
712.26	29.715
712.45	31.728
712.63	31.336
712.81	34.854
712.99	31.949
713.18	32.763
713.36	32.031
713.54	31.987
713.72	31.871
713.91	33.455
714.09	28.828
714.27	33.062
714.45	31.601
714.64	33.165
714.82	31.012
715.00	33.827
715.18	33.828
715.37	34.099
715.55	33.216
715.73	33.349
715.91	33.224
716.10	33.575
716.28	30.160
716.46	33.974
716.64	33.256
716.83	34.406
717.01	32.196
717.19	33.370
717.37	32.499
717.55	34.411
717.74	33.306
717.92	34.462
718.10	30.366
718.28	33.492
718.47	32.202
718.65	34.952
718.83	33.278
719.01	33.309
719.19	30.664
719.38	34.088
719.56	33.547
719.74	32.488
719.92	28.224
720.10	31.198
720.29	33.206
720.47	33.793
720.65	31.620
720.83	34.767
721.01	31.088
721.20	32.620
721.38	31.808
721.56	33.561
721.74	32.308
721.92	31.407
722.11	30.863
722.29	31.864
722.47	30.873
722.65	34.707
722.83	35.069
723.01	32.258
723.20	33.228
723.38	32.610
723.56	30.667
723.74	36.563
723.92	32.832
724.10	34.853
724.29	30.566
724.47	35.515
724.65	34.012
724.83	35.550
725.01	30.860
725.19	35.909
725.38	31.430
725.56	34.311
725.74	34.416
725.92	34.568
726.10	33.136
726.28	35.670
726.46	34.338
726.65	35.807
726.83	32.885
727.01	33.385
727.19	34.877
727.37	34.293
727.55	35.192
727.73	35.513
727.92	34.247
728.10	36.322
728.28	30.615
728.46	37.454
728.64	31.599
728.82	36.728
729.00	34.649
729.19	36.955
729.37	34.599
729.55	36.924
729.73	32.469
729.91	37.219
730.09	38.150
730.27	36.869
730.45	33.891
730.63	37.370
730.82	34.535
731.00	34.801
731.18	36.658
731.36	38.059
731.54	34.307
731.72	36.980
731.90	33.683
732.08	36.908
732.26	34.824
732.45	38.726
732.63	36.574
732.81	38.629
732.99	34.776
733.17	37.449
733.35	33.502
733.53	37.838
733.71	36.951
733.89	36.613
734.07	36.517
734.25	38.961
734.44	36.884
734.62	37.068
734.80	35.398
734.98	38.729
735.16	37.265
735.34	38.426
735.52	38.603
735.70	38.747
735.88	36.843
736.06	38.747
736.24	40.763
736.42	38.290
736.60	39.028
736.78	39.639
736.97	37.230
737.15	39.149
737.33	36.515
737.51	39.064
737.69	38.040
737.87	41.145
738.05	36.359
738.23	39.921
738.41	37.443
738.59	40.678
738.77	35.791
738.95	40.220
739.13	35.682
739.31	40.569
739.49	39.650
739.67	41.533
739.85	38.291
740.03	39.867
740.21	39.080
740.39	42.181
740.57	37.891
740.75	37.873
740.93	38.324
741.11	40.634
741.30	35.531
741.48	43.440
741.66	39.794
741.84	39.843
742.02	36.011
742.20	38.987
742.38	39.052
742.56	43.412
742.74	35.991
742.92	39.362
743.10	36.698
743.28	39.882
743.46	38.535
743.64	36.916
743.82	33.772
744.00	39.668
744.18	39.758
744.36	41.000
744.54	34.378
744.72	44.327
744.90	38.679
745.08	42.750
745.26	37.039
745.44	41.298
745.62	35.443
745.80	37.465
745.98	37.849
746.16	42.566
746.34	37.447
746.52	40.179
746.70	36.211
746.87	39.913
747.05	36.788
747.23	37.780
747.41	39.183
747.59	38.910
747.77	32.095
747.95	38.864
748.13	38.157
748.31	40.850
748.49	38.564
748.67	37.860
748.85	34.381
749.03	40.518
749.21	39.298
749.39	42.219
749.57	33.261
749.75	36.850
749.93	40.699
750.11	39.102
750.29	39.724
750.47	37.333
750.65	34.490
750.83	37.436
751.01	35.053
751.18	39.559
751.36	36.188
751.54	38.964
751.72	39.321
751.90	38.621
752.08	31.668
752.26	41.385
752.44	35.857
752.62	40.049
752.80	37.257
752.98	39.050
753.16	39.001
753.34	38.225
753.52	39.396
753.69	42.335
753.87	39.021
754.05	38.612
754.23	35.055
754.41	40.302
754.59	36.788
754.77	39.809
754.95	37.157
755.13	37.759
755.31	37.876
755.49	37.561
755.66	39.031
755.84	38.445
756.02	34.810
756.20	42.009
756.38	39.520
756.56	39.789
756.74	37.396
756.92	38.449
757.10	34.838
757.28	40.949
757.45	45.160
757.63	42.500
757.81	32.421
757.99	43.734
758.17	36.629
758.35	39.265
758.53	39.541
758.71	39.181
758.88	37.238
759.06	38.570
759.24	34.255
759.42	38.652
759.60	37.527
759.78	39.613
759.96	33.406
760.13	38.795
760.31	29.398
760.49	35.624
760.67	32.542
760.85	33.484
761.03	32.567
761.21	32.206
761.38	32.213
761.56	36.831
761.74	28.781
761.92	35.702
762.10	30.618
762.28	35.739
762.46	29.203
762.63	31.496
762.81	31.783
762.99	35.195
763.17	35.699
763.35	36.556
763.53	33.014
763.70	38.128
763.88	36.320
764.06	38.552
764.24	35.212
764.42	38.133
764.60	37.041
764.77	36.455
764.95	36.706
765.13	38.256
765.31	37.721
765.49	38.233
765.66	35.154
765.84	38.568
766.02	36.512
766.20	36.810
766.38	31.868
766.56	35.510
766.73	37.349
766.91	36.762
767.09	36.800
767.27	39.275
767.45	36.459
767.62	36.661
767.80	34.022
767.98	37.861
768.16	32.931
768.33	39.053
768.51	39.181
768.69	37.003
768.87	34.010
769.05	36.576
769.22	33.989
769.40	40.403
769.58	36.300
769.76	38.773
769.94	35.472
770.11	36.626
770.29	34.174
770.47	34.948
770.65	34.991
770.82	38.590
771.00	34.367
771.18	41.120
771.36	32.737
771.53	34.410
771.71	32.951
771.89	37.034
772.07	38.090
772.25	38.097
772.42	32.758
772.60	36.716
772.78	32.878
772.96	40.138
773.13	37.749
773.31	40.077
773.49	32.328
773.67	37.315
773.84	36.494
774.02	35.969
774.20	31.796
774.37	38.620
774.55	36.161
774.73	38.700
774.91	35.040
775.08	38.262
775.26	35.215
775.44	35.072
775.62	35.352
775.79	32.933
775.97	34.875
776.15	38.469
776.32	28.035
776.50	39.246
776.68	38.108
776.86	35.172
777.03	30.252
777.21	32.207
777.39	31.213
777.56	37.084
777.74	30.615
777.92	33.656
778.10	35.470
778.27	38.931
778.45	34.805
778.63	33.677
778.80	32.101
778.98	37.451
779.16	37.463
779.34	33.235
779.51	35.072
779.69	38.201
779.87	33.760
780.04	30.357
780.22	31.158
780.40	34.900
780.57	35.739
780.75	35.721
780.93	37.940
781.10	35.130
781.28	45.582
781.46	34.632
781.63	32.390
781.81	39.394
781.99	27.519
782.16	35.497
782.34	33.619
782.52	34.741
782.69	34.208
782.87	33.279
783.05	34.771
783.22	34.026
783.40	32.836
783.58	36.148
783.75	33.814
783.93	34.502
784.11	26.692
784.28	42.330
784.46	33.198
784.64	33.244
784.81	32.104
784.99	37.100
785.17	29.595
785.34	32.428
785.52	27.455
785.69	33.316
785.87	30.637
786.05	36.044
786.22	31.605
786.40	40.876
786.58	30.713
786.75	38.938
786.93	33.164
787.11	33.845
787.28	31.284
787.46	34.519
787.63	32.650
787.81	33.010
787.99	34.609
788.16	28.751
788.34	28.844
788.51	36.230
788.69	33.805
788.87	34.118
789.04	28.953
789.22	34.966
789.39	33.413
789.57	31.762
789.75	27.903
789.92	37.128
790.10	28.490
790.27	34.419
790.45	27.636
790.63	33.239
790.80	28.719
790.98	33.333
791.15	35.300
791.33	34.336
791.51	27.597
791.68	35.778
791.86	34.372
792.03	33.108
792.21	27.507
792.39	32.826
792.56	30.870
792.74	32.175
792.91	36.041
793.09	28.596
793.26	28.588
793.44	35.490
793.62	27.812
793.79	32.634
793.97	32.361
794.14	32.657
794.32	30.664
794.49	33.729
794.67	24.535
794.84	27.229
795.02	24.446
795.20	30.954
795.37	30.559
795.55	33.216
795.72	28.469
795.90	31.579
796.07	32.147
796.25	29.176
796.42	30.184
796.60	26.372
796.77	28.783
796.95	29.881
797.13	28.684
797.30	39.416
797.48	30.753
797.65	30.837
797.83	27.120
798.00	33.091
798.18	27.763
798.35	34.429
798.53	31.435
798.70	32.921
798.88	29.951
799.05	34.215
799.23	30.688
799.40	33.902
799.58	28.940
799.75	34.713
799.93	27.262
800.10	33.823
800.28	29.870
800.45	33.313
800.63	28.291
800.80	33.511
800.98	31.463
801.15	35.097
801.33	34.431
801.50	33.151
801.68	25.168
801.85	30.100
802.03	29.441
802.20	34.004
802.38	26.620
802.55	30.919
802.73	28.392
802.90	28.240
803.08	28.498
803.25	35.813
803.43	36.546
803.60	35.563
803.78	30.990
803.95	31.448
804.13	33.825
804.30	31.818
804.48	32.978
804.65	33.978
804.83	27.393
805.00	38.520
805.17	24.311
805.35	34.809
805.52	26.915
805.70	37.146
805.87	35.736
806.05	20.325
806.22	25.896
806.40	28.075
806.57	27.788
806.75	34.464
806.92	35.724
807.09	26.578
807.27	33.711
807.44	29.951
807.62	31.677
807.79	32.163
807.97	25.217
808.14	30.205
808.31	30.458
808.49	29.670
808.66	29.898
808.84	29.782
809.01	30.193
809.19	32.347
809.36	33.202
809.53	29.590
809.71	29.152
809.88	39.647
810.06	36.589
810.23	32.683
810.41	31.250
810.58	32.237
810.75	28.771
810.93	28.737
811.10	30.900
811.28	34.773
811.45	30.819
811.62	36.101
811.80	29.328
811.97	32.217
812.15	44.715
812.32	28.733
812.49	29.523
812.67	32.670
812.84	24.493
813.02	34.342
813.19	27.090
813.36	27.371
813.54	25.568
813.71	34.772
813.89	28.879
814.06	37.899
814.23	31.187
814.41	29.976
814.58	37.225
814.75	35.912
814.93	30.631
815.10	34.401
815.28	24.466
815.45	26.196
815.62	36.758
815.80	23.795
815.97	27.967
816.14	29.725
816.32	37.198
816.49	30.025
816.66	24.425
816.84	28.744
817.01	27.226
817.18	35.107
817.36	35.902
817.53	27.665
817.71	28.935
817.88	27.346
818.05	28.252
818.23	32.506
818.40	25.703
818.57	27.389
818.75	29.022
818.92	24.395
819.09	22.983
819.27	27.390
819.44	28.092
819.61	26.402
819.79	29.199
819.96	32.422
820.13	28.170
820.31	28.502
820.48	33.694
820.65	25.497
820.82	27.863
821.00	29.252
821.17	24.873
821.34	27.563
821.52	29.677
821.69	27.401
821.86	26.618
822.04	30.428
822.21	31.456
822.38	36.264
822.56	33.297
822.73	37.613
822.90	34.971
823.07	37.317
823.25	36.679
823.42	36.121
823.59	35.606
823.77	37.278
823.94	35.732
824.11	36.674
824.29	34.773
824.46	36.379
824.63	36.125
824.80	36.320
824.98	34.056
825.15	35.279
825.32	31.295
825.49	34.145
825.67	30.982
825.84	33.274
826.01	29.889
826.19	34.055
826.36	26.542
826.53	33.566
826.70	30.363
826.88	34.458
827.05	26.671
827.22	29.146
827.39	32.490
827.57	30.735
827.74	28.061
827.91	33.926
828.08	28.400
828.26	32.326
828.43	28.945
828.60	32.919
828.77	31.740
828.95	31.161
829.12	27.003
829.29	25.654
829.46	29.735
829.64	31.510
829.81	23.061
829.98	28.405
830.15	26.734
830.32	29.927
830.50	25.532
830.67	26.499
830.84	28.203
831.01	22.720
831.19	24.098
831.36	30.080
831.53	24.954
831.70	24.170
831.87	25.610
832.05	30.747
832.22	36.391
832.39	25.975
832.56	25.675
832.74	28.512
832.91	26.807
833.08	33.494
833.25	23.743
833.42	23.480
833.60	23.848
833.77	19.642
833.94	25.323
834.11	24.956
834.28	21.878
834.45	31.969
834.63	23.538
834.80	27.609
834.97	23.582
835.14	29.274
835.31	25.874
835.49	26.113
835.66	27.671
835.83	25.076
836.00	26.800
836.17	26.958
836.34	23.875
836.52	26.199
836.69	32.976
836.86	31.888
837.03	30.565
837.20	28.147
837.37	29.963
837.55	17.881
837.72	25.304
837.89	24.594
838.06	25.735
838.23	24.415
838.40	30.525
838.58	26.742
838.75	32.897
838.92	25.586
839.09	43.067
839.26	30.860
839.43	43.464
839.60	37.513
839.78	37.125
839.95	37.983
840.12	32.534
840.29	42.130
840.46	39.527
840.63	40.321
840.80	38.197
840.98	35.366
841.15	29.771
841.32	29.691
841.49	31.188
841.66	34.299
841.83	27.054
842.00	32.763
842.17	39.595
842.34	29.980
842.52	38.588
842.69	39.092
842.86	37.383
843.03	46.230
843.20	31.321
843.37	39.741
843.54	33.952
843.71	39.446
843.88	34.075
844.06	54.861
844.23	43.048
844.40	37.048
844.57	38.199
844.74	39.492
844.91	45.706
845.08	50.228
845.25	52.773
845.42	46.824
845.59	50.193
845.76	42.726
845.94	44.858
846.11	45.470
846.28	32.943
846.45	49.904
846.62	44.880
846.79	54.545
846.96	58.960
847.13	40.987
847.30	42.883
847.47	40.326
847.64	46.365
847.81	39.644
847.98	52.075
848.15	42.316
848.32	49.430
848.50	48.814
848.67	46.069
848.84	52.834
849.01	51.423
849.18	43.149
849.35	67.984
849.52	69.505
849.69	58.237
849.86	62.670
850.03	48.244
850.20	53.283
850.37	59.217
850.54	57.864
850.71	53.215
850.88	62.656
851.05	50.625
851.22	42.136
851.39	48.956
851.56	57.484
851.73	40.471
851.90	51.606
852.07	66.906
852.24	47.358
852.41	60.600
852.58	60.952
852.75	38.837
852.92	52.716
853.09	77.528
853.26	56.632
853.43	67.556
853.60	43.659
853.77	55.012
853.94	57.495
854.11	58.005
854.28	68.537
854.45	48.000
854.62	54.026
854.79	49.115
854.96	65.816
855.13	58.933
855.30	61.250
855.47	54.337
855.64	50.780
855.81	55.502
855.98	49.051
856.15	46.341
856.32	31.942
856.49	50.827
856.66	59.859
856.83	61.638
857.00	50.837
857.17	73.597
857.34	55.044
857.51	61.538
857.68	47.971
857.85	65.424
858.02	51.345
858.19	56.855
858.36	48.642
858.53	65.953
858.70	56.798
858.87	75.000
859.04	56.335
859.21	62.284
859.38	63.333
859.55	72.749
859.72	67.919
859.89	74.636
860.05	46.078
860.22	75.526
860.39	57.596
860.56	63.889
860.73	49.642
860.90	59.589
861.07	55.708
861.24	56.979
861.41	64.550
861.58	68.235
861.75	56.086
861.92	59.519
862.09	65.063
862.26	52.246
862.43	56.474
862.59	59.954
862.76	58.811
862.93	47.838
863.10	48.449
863.27	42.478
863.44	49.265
863.61	72.727
863.78	61.493
863.95	61.758
864.12	71.028
864.29	64.134
864.45	57.431
864.62	81.675
864.79	72.772
864.96	39.950
865.13	63.636
865.30	57.143
865.47	58.774
865.64	63.208
865.81	60.882
865.97	57.074
866.14	60.579
866.31	36.854
866.48	58.658
866.65	64.062
866.82	55.875
866.99	77.836
867.16	51.047
867.33	54.824
867.49	62.836
867.66	58.554
867.83	66.960
868.00	50.831
868.17	58.333
868.34	50.893
868.51	48.551
868.67	60.664
868.84	60.690
869.01	71.659
869.18	63.659
869.35	58.057
869.52	67.250
869.69	81.098
869.85	50.123
870.02	49.515
870.19	71.531
870.36	59.788
870.53	59.441
870.70	63.404
870.86	52.073
871.03	63.805
871.20	58.416
871.37	75.597
871.54	47.826
871.71	53.398
871.87	45.652
872.04	54.785
872.21	51.876
872.38	48.411
872.55	65.063
872.72	45.946
872.88	72.676
873.05	57.808
873.22	62.677
873.39	66.903
873.56	46.014
873.72	60.337
873.89	57.849
874.06	55.412
874.23	53.927
874.40	55.299
874.56	52.183
874.73	60.437
874.90	49.465
875.07	43.450
875.24	62.530
875.40	49.663
875.57	57.955
875.74	71.463
875.91	51.762
876.08	59.912
876.24	56.612
876.41	69.289
876.58	47.494
876.75	80.165
876.92	41.741
877.08	59.766
877.25	36.082
877.42	48.374
877.59	64.832
877.75	62.729
877.92	45.057
878.09	68.677
878.26	60.843
878.42	63.298
878.59	59.956
878.76	57.115
878.93	50.452
879.09	57.642
879.26	54.589
879.43	32.135
879.60	58.979
879.76	47.331
879.93	33.663
880.10	36.744
880.27	36.538
880.43	45.177
880.60	39.028
880.77	36.308
880.94	33.458
881.10	31.079
881.27	38.197
881.44	22.938
881.61	31.966
881.77	29.100
881.94	19.148
882.11	21.456
882.28	20.481
882.44	23.454
882.61	23.660
882.78	24.401
882.94	33.799
883.11	25.550
883.28	26.579
883.45	27.283
883.61	25.437
883.78	25.685
883.95	33.503
884.11	25.116
884.28	23.413
>>>>>End Processed Spectral Data<<<<<
