SpectraSuite Data File
++++++++++++++++++++++++++++++++++++
Date: Mon Sep 23 03:35:09 EST 2019
User: sgrac
Dark Spectrum Present: Yes
Reference Spectrum Present: Yes
Number of Sampled Component Spectra: 1
Spectrometers: USB4E01596
Integration Time (usec): 100000 (USB4E01596)
Spectra Averaged: 3 (USB4E01596)
Boxcar Smoothing: 0 (USB4E01596)
Correct for Electrical Dark: No (USB4E01596)
Strobe/Lamp Enabled: Yes (USB4E01596)
Correct for Detector Non-linearity: No (USB4E01596)
Correct for Stray Light: No (USB4E01596)
Number of Pixels in Processed Spectrum: 3648
>>>>>Begin Processed Spectral Data<<<<<
178.44	1253.846
178.66	1253.846
178.87	1253.846
179.09	6166.667
179.30	-5925.000
179.52	-609.677
179.74	-384.906
179.95	697.727
180.17	-672.222
180.38	424.561
180.60	-2445.455
180.82	591.111
181.03	4100.000
181.25	-1941.667
181.46	-1004.000
181.68	1120.833
181.89	-686.364
182.11	-1318.750
182.33	-1662.500
182.54	556.250
182.76	4316.667
182.97	-525.532
183.19	1080.000
183.40	257.851
183.62	391.026
183.84	323.636
184.05	4571.429
184.27	336.364
184.48	413.636
184.70	1476.471
184.91	1114.286
185.13	2610.000
185.34	-16350.000
185.56	1288.462
185.78	306.944
185.99	852.778
186.21	320.455
186.42	-5125.000
186.64	1720.000
186.85	-4740.000
187.07	506.000
187.28	410.526
187.50	472.727
187.72	319.231
187.93	683.636
188.15	294.792
188.36	377.632
188.58	636.735
188.79	256.731
189.01	463.380
189.22	751.351
189.44	-921.212
189.65	300.000
189.87	-5950.000
190.09	433.333
190.30	688.095
190.52	386.667
190.73	682.609
190.95	-3233.333
191.16	395.238
191.38	325.676
191.59	357.353
191.81	482.258
192.02	1773.333
192.24	968.750
192.45	841.176
192.67	-1556.250
192.88	428.302
193.10	450.820
193.31	640.000
193.53	210.484
193.74	333.333
193.96	1778.571
194.18	865.385
194.39	1800.000
194.61	346.575
194.82	1400.000
195.04	319.512
195.25	-370.175
195.47	-366.667
195.68	4050.000
195.90	449.091
196.11	294.030
196.33	25800.000
196.54	631.707
196.76	1535.714
196.97	348.052
197.19	702.703
197.40	2092.857
197.62	226.606
197.83	774.194
198.05	547.273
198.26	606.897
198.48	314.085
198.69	470.000
198.91	1100.000
199.12	620.930
199.34	539.130
199.55	365.714
199.77	1794.737
199.98	855.882
200.20	285.526
200.41	472.581
200.63	276.106
200.84	1764.286
201.06	2822.222
201.27	521.951
201.49	428.169
201.70	-740.000
201.91	406.944
202.13	416.949
202.34	418.966
202.56	-880.000
202.77	544.444
202.99	3816.667
203.20	-3200.000
203.42	1825.000
203.63	339.474
203.85	3616.667
204.06	376.000
204.28	286.869
204.49	446.296
204.71	452.542
204.92	1053.846
205.14	0.000
205.35	920.000
205.56	-1150.000
205.78	5160.000
205.99	-1428.571
206.21	10950.000
206.42	481.818
206.64	980.645
206.85	981.481
207.07	-2344.444
207.28	486.207
207.50	576.087
207.71	861.290
207.93	271.084
208.14	-1077.778
208.35	523.636
208.57	1028.000
208.78	-2700.000
209.00	369.149
209.21	-10600.000
209.43	-8533.333
209.64	-1500.000
209.86	313.402
210.07	336.047
210.28	380.282
210.50	958.621
210.71	472.549
210.93	174.265
211.14	322.472
211.36	1475.000
211.57	454.545
211.78	334.286
212.00	338.824
212.21	358.571
212.43	676.923
212.64	358.511
212.86	368.919
213.07	311.927
213.29	-569.444
213.50	260.870
213.71	258.621
213.93	373.171
214.14	1881.818
214.36	398.529
214.57	365.823
214.78	726.667
215.00	298.958
215.21	830.000
215.43	675.676
215.64	303.175
215.86	255.000
216.07	748.571
216.28	657.895
216.50	266.667
216.71	25400.000
216.93	506.061
217.14	1016.667
217.35	226.515
217.57	269.369
217.78	320.988
218.00	239.394
218.21	1086.957
218.42	521.277
218.64	376.786
218.85	548.000
219.07	990.000
219.28	283.178
219.49	537.255
219.71	393.846
219.92	218.657
220.14	243.299
220.35	385.333
220.56	279.310
220.78	319.231
220.99	244.355
221.21	227.957
221.42	290.123
221.63	187.861
221.85	469.231
222.06	362.857
222.28	436.923
222.49	215.315
222.70	200.000
222.92	526.531
223.13	370.492
223.34	185.106
223.56	309.524
223.77	305.000
223.99	275.789
224.20	382.143
224.41	221.918
224.63	267.045
224.84	241.216
225.05	120.940
225.27	221.739
225.48	236.275
225.69	178.947
225.91	313.514
226.12	202.326
226.34	197.315
226.55	157.554
226.76	193.125
226.98	156.471
227.19	104.687
227.40	245.312
227.62	117.989
227.83	118.455
228.04	99.721
228.26	61.697
228.47	71.105
228.69	55.330
228.90	39.019
229.11	45.145
229.33	37.147
229.54	30.888
229.75	35.745
229.97	31.359
230.18	45.169
230.39	28.540
230.61	31.743
230.82	29.222
231.03	25.409
231.25	26.649
231.46	42.081
231.67	33.945
231.89	47.632
232.10	44.681
232.31	44.946
232.53	43.124
232.74	46.542
232.95	44.646
233.17	40.000
233.38	40.546
233.59	52.505
233.81	57.246
234.02	41.884
234.23	51.241
234.45	58.507
234.66	41.814
234.87	47.951
235.09	47.910
235.30	37.653
235.51	45.374
235.73	44.527
235.94	47.315
236.15	51.245
236.36	31.776
236.58	39.002
236.79	37.463
237.00	45.015
237.22	45.238
237.43	49.040
237.64	35.276
237.86	50.000
238.07	51.375
238.28	41.935
238.50	42.399
238.71	39.388
238.92	38.281
239.13	44.237
239.35	44.946
239.56	44.876
239.77	53.532
239.99	36.530
240.20	37.396
240.41	38.737
240.63	34.771
240.84	25.622
241.05	30.230
241.26	29.204
241.48	22.256
241.69	21.180
241.90	19.730
242.12	16.561
242.33	21.078
242.54	13.777
242.75	16.637
242.97	14.661
243.18	14.008
243.39	13.315
243.61	15.030
243.82	11.718
244.03	13.997
244.24	11.353
244.46	14.699
244.67	16.628
244.88	11.830
245.09	20.401
245.31	16.860
245.52	14.406
245.73	10.097
245.95	27.096
246.16	21.908
246.37	16.344
246.58	14.317
246.80	11.494
247.01	14.305
247.22	12.340
247.43	10.127
247.65	8.590
247.86	9.629
248.07	7.846
248.28	9.714
248.50	6.445
248.71	6.092
248.92	6.762
249.13	5.999
249.35	7.350
249.56	7.398
249.77	8.620
249.98	8.500
250.20	10.299
250.41	10.987
250.62	12.278
250.83	11.036
251.05	15.123
251.26	13.313
251.47	15.286
251.68	13.947
251.90	14.706
252.11	14.842
252.32	15.948
252.53	12.862
252.75	12.628
252.96	17.439
253.17	11.458
253.38	11.453
253.59	15.750
253.81	9.574
254.02	14.644
254.23	12.850
254.44	9.880
254.66	14.754
254.87	12.652
255.08	19.020
255.29	17.399
255.50	15.047
255.72	15.857
255.93	24.215
256.14	18.028
256.35	20.570
256.57	25.858
256.78	17.674
256.99	12.538
257.20	23.929
257.41	19.170
257.63	20.576
257.84	17.936
258.05	19.716
258.26	15.538
258.47	12.472
258.69	16.206
258.90	10.738
259.11	11.894
259.32	14.165
259.53	9.588
259.75	10.240
259.96	9.018
260.17	7.790
260.38	5.241
260.59	7.493
260.81	5.088
261.02	5.637
261.23	5.359
261.44	7.193
261.65	5.042
261.87	3.740
262.08	6.551
262.29	5.947
262.50	7.019
262.71	6.784
262.92	9.699
263.14	9.837
263.35	6.843
263.56	8.021
263.77	9.642
263.98	11.972
264.20	10.412
264.41	11.324
264.62	9.676
264.83	13.376
265.04	14.833
265.25	14.085
265.47	10.616
265.68	12.906
265.89	12.437
266.10	6.732
266.31	11.981
266.52	7.914
266.74	11.947
266.95	10.480
267.16	11.514
267.37	7.365
267.58	11.169
267.79	10.604
268.01	9.892
268.22	10.050
268.43	9.079
268.64	8.658
268.85	9.433
269.06	9.218
269.27	10.992
269.49	6.993
269.70	9.121
269.91	10.428
270.12	8.858
270.33	10.432
270.54	7.534
270.75	9.849
270.97	9.115
271.18	8.630
271.39	10.180
271.60	8.938
271.81	9.197
272.02	6.820
272.23	9.371
272.45	7.967
272.66	3.590
272.87	5.683
273.08	4.702
273.29	7.651
273.50	6.173
273.71	5.298
273.92	6.458
274.14	5.609
274.35	6.843
274.56	7.953
274.77	6.599
274.98	7.172
275.19	7.005
275.40	8.022
275.61	8.295
275.83	10.347
276.04	8.023
276.25	10.699
276.46	8.168
276.67	8.402
276.88	9.018
277.09	6.790
277.30	8.803
277.51	9.862
277.73	6.997
277.94	9.487
278.15	11.459
278.36	8.463
278.57	6.475
278.78	6.409
278.99	9.279
279.20	10.726
279.41	10.881
279.62	6.463
279.84	7.407
280.05	9.844
280.26	8.596
280.47	10.766
280.68	7.245
280.89	8.265
281.10	9.048
281.31	9.693
281.52	8.909
281.73	6.322
281.94	5.351
282.16	8.113
282.37	6.337
282.58	7.124
282.79	9.504
283.00	8.214
283.21	6.253
283.42	6.801
283.63	7.443
283.84	6.080
284.05	8.013
284.26	6.196
284.47	6.873
284.68	6.739
284.89	6.460
285.11	6.950
285.32	5.601
285.53	5.959
285.74	6.928
285.95	5.370
286.16	6.770
286.37	4.225
286.58	5.991
286.79	5.135
287.00	4.727
287.21	5.374
287.42	5.547
287.63	4.659
287.84	5.969
288.05	5.829
288.26	4.420
288.48	6.787
288.69	4.808
288.90	6.308
289.11	6.459
289.32	7.100
289.53	5.778
289.74	5.405
289.95	7.040
290.16	5.416
290.37	5.538
290.58	5.593
290.79	3.672
291.00	5.668
291.21	5.444
291.42	5.264
291.63	7.030
291.84	6.846
292.05	4.372
292.26	5.520
292.47	6.446
292.68	4.770
292.89	6.615
293.10	6.728
293.31	5.322
293.52	5.045
293.73	7.676
293.94	5.096
294.15	6.241
294.36	7.873
294.57	6.627
294.79	6.919
295.00	5.270
295.21	7.015
295.42	6.604
295.63	7.388
295.84	5.507
296.05	4.939
296.26	4.299
296.47	5.169
296.68	5.239
296.89	7.981
297.10	5.389
297.31	6.638
297.52	3.973
297.73	6.689
297.94	4.980
298.15	4.636
298.36	4.900
298.57	4.569
298.78	4.714
298.99	5.593
299.20	4.965
299.41	5.615
299.62	5.566
299.83	4.833
300.04	6.313
300.25	6.258
300.46	6.951
300.67	6.065
300.88	5.824
301.09	5.525
301.30	6.171
301.50	7.179
301.71	8.388
301.92	6.569
302.13	5.419
302.34	5.393
302.55	6.474
302.76	5.963
302.97	6.284
303.18	6.958
303.39	6.586
303.60	5.211
303.81	7.892
304.02	6.176
304.23	7.667
304.44	6.284
304.65	5.239
304.86	7.401
305.07	6.727
305.28	5.844
305.49	5.445
305.70	7.969
305.91	6.728
306.12	6.368
306.33	6.557
306.54	6.221
306.75	7.320
306.96	8.715
307.17	7.566
307.38	6.341
307.58	6.849
307.79	5.924
308.00	6.405
308.21	6.460
308.42	6.444
308.63	7.078
308.84	5.530
309.05	6.112
309.26	6.049
309.47	6.629
309.68	5.700
309.89	6.876
310.10	5.250
310.31	6.551
310.52	4.844
310.73	6.623
310.94	3.948
311.14	7.294
311.35	4.988
311.56	5.936
311.77	5.140
311.98	4.557
312.19	4.755
312.40	4.579
312.61	3.363
312.82	5.187
313.03	4.665
313.24	6.956
313.45	5.819
313.66	4.725
313.86	7.435
314.07	4.694
314.28	7.528
314.49	4.933
314.70	8.667
314.91	5.695
315.12	5.031
315.33	6.575
315.54	6.018
315.75	6.856
315.96	4.822
316.16	6.885
316.37	6.521
316.58	5.178
316.79	5.400
317.00	5.885
317.21	6.343
317.42	5.313
317.63	5.392
317.84	5.972
318.05	6.098
318.25	7.771
318.46	5.915
318.67	6.465
318.88	7.062
319.09	7.274
319.30	6.798
319.51	5.950
319.72	8.084
319.93	5.636
320.13	6.853
320.34	8.875
320.55	7.749
320.76	6.642
320.97	6.841
321.18	9.871
321.39	4.676
321.60	8.447
321.80	9.844
322.01	7.867
322.22	5.704
322.43	5.604
322.64	6.077
322.85	6.495
323.06	6.725
323.27	6.658
323.47	7.788
323.68	7.213
323.89	7.268
324.10	7.138
324.31	5.600
324.52	7.581
324.73	8.353
324.93	6.780
325.14	7.453
325.35	6.720
325.56	3.963
325.77	6.940
325.98	6.873
326.19	7.662
326.39	4.401
326.60	5.803
326.81	4.832
327.02	6.065
327.23	5.557
327.44	7.506
327.64	6.152
327.85	3.744
328.06	7.567
328.27	8.492
328.48	5.389
328.69	4.848
328.90	5.115
329.10	5.578
329.31	5.832
329.52	6.182
329.73	7.658
329.94	6.334
330.15	7.571
330.35	8.999
330.56	6.872
330.77	6.669
330.98	5.140
331.19	7.106
331.39	6.467
331.60	7.558
331.81	5.840
332.02	5.967
332.23	6.616
332.44	7.020
332.64	5.402
332.85	5.620
333.06	5.648
333.27	6.361
333.48	6.152
333.68	6.275
333.89	5.810
334.10	6.456
334.31	6.483
334.52	6.861
334.72	5.733
334.93	5.821
335.14	5.464
335.35	5.305
335.56	5.951
335.76	5.519
335.97	6.163
336.18	6.977
336.39	6.784
336.60	5.144
336.80	5.152
337.01	6.096
337.22	6.498
337.43	6.324
337.64	7.007
337.84	7.738
338.05	5.507
338.26	9.027
338.47	8.033
338.68	5.373
338.88	5.968
339.09	5.963
339.30	6.708
339.51	6.413
339.71	6.953
339.92	6.318
340.13	6.826
340.34	6.231
340.55	5.931
340.75	7.386
340.96	4.861
341.17	5.874
341.38	6.555
341.58	7.308
341.79	5.472
342.00	5.442
342.21	6.655
342.41	5.361
342.62	5.583
342.83	6.021
343.04	5.609
343.24	5.805
343.45	6.838
343.66	5.554
343.87	6.338
344.07	4.712
344.28	6.621
344.49	6.627
344.70	6.259
344.90	5.377
345.11	4.661
345.32	5.666
345.53	6.512
345.73	6.359
345.94	7.140
346.15	6.016
346.36	4.755
346.56	6.676
346.77	7.208
346.98	5.228
347.19	6.642
347.39	5.285
347.60	5.944
347.81	5.665
348.02	6.581
348.22	5.991
348.43	6.302
348.64	7.112
348.84	5.948
349.05	6.018
349.26	8.249
349.47	5.430
349.67	5.539
349.88	7.311
350.09	7.463
350.30	7.443
350.50	6.853
350.71	7.279
350.92	5.872
351.12	7.010
351.33	5.516
351.54	5.384
351.74	7.149
351.95	5.929
352.16	8.140
352.37	6.963
352.57	7.916
352.78	7.128
352.99	6.493
353.19	7.383
353.40	6.438
353.61	8.049
353.82	7.938
354.02	8.332
354.23	6.396
354.44	8.649
354.64	6.798
354.85	7.234
355.06	6.871
355.26	5.767
355.47	6.302
355.68	7.695
355.88	8.463
356.09	8.074
356.30	7.300
356.51	7.448
356.71	6.956
356.92	5.902
357.13	8.234
357.33	7.567
357.54	6.953
357.75	5.382
357.95	6.542
358.16	5.822
358.37	7.870
358.57	5.698
358.78	7.651
358.99	5.284
359.19	7.041
359.40	7.259
359.61	6.361
359.81	6.809
360.02	8.923
360.23	6.049
360.43	5.431
360.64	5.526
360.85	6.660
361.05	5.574
361.26	6.137
361.47	5.981
361.67	7.240
361.88	5.377
362.09	6.396
362.29	5.451
362.50	5.982
362.70	4.581
362.91	6.239
363.12	5.149
363.32	5.535
363.53	5.824
363.74	5.849
363.94	4.929
364.15	6.769
364.36	7.116
364.56	4.268
364.77	7.225
364.98	7.568
365.18	5.901
365.39	6.957
365.59	5.649
365.80	6.180
366.01	6.840
366.21	6.188
366.42	4.913
366.63	7.413
366.83	5.188
367.04	5.062
367.24	7.403
367.45	5.658
367.66	4.839
367.86	7.019
368.07	5.330
368.28	5.577
368.48	6.327
368.69	5.230
368.89	5.446
369.10	6.302
369.31	5.503
369.51	6.705
369.72	7.361
369.92	8.106
370.13	5.195
370.34	5.940
370.54	4.470
370.75	6.151
370.95	5.012
371.16	5.701
371.37	5.979
371.57	5.612
371.78	5.394
371.98	5.677
372.19	5.774
372.40	6.227
372.60	5.995
372.81	6.435
373.01	4.998
373.22	4.978
373.43	5.525
373.63	5.454
373.84	6.164
374.04	5.425
374.25	5.274
374.46	6.609
374.66	5.710
374.87	6.971
375.07	4.216
375.28	4.540
375.48	5.760
375.69	6.200
375.90	4.750
376.10	4.299
376.31	5.364
376.51	4.428
376.72	4.985
376.92	3.943
377.13	5.083
377.34	5.813
377.54	4.435
377.75	5.715
377.95	4.452
378.16	5.578
378.36	5.238
378.57	5.701
378.77	5.143
378.98	5.574
379.19	4.591
379.39	3.865
379.60	5.194
379.80	3.876
380.01	6.060
380.21	4.993
380.42	5.945
380.62	5.676
380.83	4.971
381.04	5.701
381.24	4.974
381.45	4.757
381.65	3.716
381.86	5.469
382.06	5.915
382.27	4.341
382.47	4.610
382.68	5.606
382.88	4.380
383.09	4.564
383.29	5.055
383.50	5.865
383.71	4.357
383.91	4.664
384.12	4.438
384.32	4.540
384.53	4.458
384.73	3.947
384.94	3.722
385.14	4.712
385.35	3.984
385.55	4.815
385.76	3.671
385.96	3.942
386.17	4.835
386.37	4.934
386.58	5.077
386.78	5.154
386.99	4.184
387.19	4.296
387.40	4.379
387.60	5.519
387.81	4.279
388.01	4.136
388.22	4.630
388.42	5.150
388.63	5.127
388.83	5.584
389.04	3.583
389.24	4.608
389.45	5.178
389.65	3.873
389.86	4.621
390.06	4.085
390.27	4.211
390.47	3.991
390.68	4.087
390.88	5.006
391.09	5.142
391.29	4.664
391.50	5.110
391.70	4.554
391.91	3.990
392.11	3.546
392.32	4.198
392.52	4.107
392.73	3.425
392.93	4.267
393.14	4.191
393.34	4.048
393.55	5.460
393.75	4.429
393.95	3.534
394.16	4.069
394.36	5.007
394.57	4.688
394.77	3.525
394.98	3.882
395.18	4.614
395.39	4.387
395.59	4.209
395.80	4.074
396.00	4.261
396.21	4.902
396.41	3.582
396.61	4.924
396.82	3.932
397.02	5.458
397.23	4.290
397.43	4.018
397.64	3.367
397.84	5.043
398.05	4.233
398.25	4.242
398.45	4.541
398.66	4.440
398.86	4.234
399.07	5.413
399.27	3.791
399.48	4.738
399.68	3.762
399.89	3.971
400.09	4.203
400.29	3.127
400.50	4.035
400.70	3.868
400.91	4.057
401.11	3.536
401.32	4.066
401.52	3.076
401.72	3.847
401.93	5.622
402.13	3.587
402.34	3.689
402.54	3.612
402.75	5.708
402.95	3.023
403.15	5.414
403.36	3.591
403.56	4.710
403.77	3.619
403.97	3.305
404.17	3.903
404.38	4.344
404.58	3.328
404.79	4.549
404.99	4.268
405.19	4.023
405.40	3.836
405.60	3.703
405.81	3.863
406.01	3.477
406.21	4.163
406.42	3.936
406.62	3.987
406.83	4.062
407.03	4.837
407.23	3.478
407.44	3.479
407.64	4.622
407.85	4.230
408.05	3.448
408.25	3.985
408.46	4.969
408.66	4.489
408.87	3.700
409.07	3.623
409.27	3.275
409.48	3.522
409.68	3.824
409.88	2.870
410.09	3.896
410.29	3.355
410.50	4.889
410.70	3.403
410.90	3.240
411.11	3.734
411.31	3.334
411.51	4.285
411.72	4.415
411.92	2.901
412.12	3.908
412.33	2.928
412.53	2.804
412.74	2.643
412.94	3.330
413.14	3.457
413.35	4.110
413.55	3.980
413.75	4.512
413.96	3.313
414.16	3.340
414.36	3.811
414.57	4.044
414.77	3.330
414.97	3.598
415.18	3.313
415.38	3.719
415.58	3.761
415.79	2.874
415.99	3.284
416.19	4.144
416.40	3.595
416.60	2.981
416.80	3.259
417.01	3.362
417.21	2.154
417.41	4.499
417.62	3.535
417.82	3.764
418.02	2.813
418.23	3.355
418.43	3.085
418.63	3.683
418.84	3.904
419.04	2.999
419.24	3.568
419.45	3.598
419.65	3.569
419.85	3.700
420.06	3.570
420.26	3.536
420.46	3.554
420.67	3.541
420.87	3.674
421.07	4.018
421.28	3.491
421.48	3.661
421.68	3.614
421.88	3.927
422.09	3.871
422.29	3.442
422.49	2.838
422.70	3.417
422.90	3.667
423.10	3.680
423.31	3.707
423.51	3.852
423.71	3.295
423.91	3.922
424.12	3.766
424.32	4.052
424.52	3.408
424.73	3.605
424.93	3.629
425.13	3.206
425.33	3.047
425.54	3.926
425.74	3.473
425.94	4.131
426.15	3.867
426.35	3.264
426.55	3.557
426.75	3.893
426.96	3.559
427.16	3.211
427.36	3.440
427.57	3.906
427.77	3.377
427.97	3.867
428.17	3.971
428.38	3.572
428.58	2.957
428.78	4.003
428.98	2.855
429.19	3.017
429.39	2.357
429.59	3.430
429.79	2.224
430.00	2.570
430.20	2.948
430.40	2.880
430.60	2.978
430.81	2.749
431.01	2.934
431.21	3.285
431.41	2.569
431.62	3.508
431.82	2.960
432.02	3.545
432.22	2.930
432.43	3.198
432.63	2.922
432.83	3.283
433.03	3.127
433.24	2.674
433.44	2.561
433.64	3.362
433.84	2.679
434.05	3.045
434.25	3.108
434.45	3.249
434.65	3.528
434.85	3.345
435.06	3.228
435.26	2.836
435.46	3.209
435.66	3.316
435.87	3.341
436.07	2.880
436.27	3.181
436.47	2.498
436.67	2.619
436.88	3.230
437.08	3.301
437.28	3.188
437.48	3.251
437.69	3.577
437.89	3.282
438.09	3.808
438.29	3.156
438.49	3.782
438.70	2.809
438.90	2.625
439.10	2.621
439.30	3.347
439.50	2.581
439.71	3.140
439.91	3.047
440.11	3.758
440.31	3.003
440.51	2.853
440.72	2.880
440.92	2.624
441.12	3.475
441.32	3.478
441.52	3.530
441.72	3.275
441.93	3.289
442.13	3.568
442.33	2.989
442.53	3.695
442.73	2.719
442.94	3.126
443.14	3.184
443.34	3.505
443.54	3.190
443.74	3.612
443.94	2.922
444.15	2.874
444.35	3.136
444.55	3.514
444.75	3.139
444.95	3.103
445.15	3.194
445.36	3.135
445.56	2.353
445.76	2.899
445.96	2.675
446.16	2.871
446.36	2.391
446.57	3.527
446.77	2.587
446.97	3.090
447.17	3.576
447.37	3.419
447.57	3.015
447.77	3.139
447.98	3.160
448.18	3.492
448.38	2.650
448.58	3.277
448.78	3.603
448.98	3.240
449.18	2.918
449.39	2.888
449.59	2.808
449.79	3.004
449.99	2.715
450.19	3.194
450.39	2.800
450.59	3.156
450.79	2.873
451.00	3.381
451.20	3.812
451.40	2.813
451.60	2.767
451.80	3.451
452.00	2.719
452.20	3.797
452.40	2.870
452.61	2.638
452.81	2.914
453.01	2.824
453.21	2.626
453.41	2.955
453.61	2.925
453.81	2.647
454.01	2.833
454.21	2.944
454.42	3.302
454.62	2.607
454.82	2.720
455.02	2.699
455.22	2.092
455.42	2.698
455.62	2.257
455.82	2.551
456.02	2.599
456.23	2.593
456.43	2.517
456.63	2.954
456.83	2.041
457.03	3.228
457.23	2.860
457.43	3.026
457.63	2.541
457.83	3.134
458.03	2.403
458.23	2.815
458.43	2.350
458.64	2.754
458.84	3.052
459.04	2.899
459.24	3.022
459.44	3.038
459.64	2.625
459.84	2.649
460.04	2.982
460.24	3.164
460.44	2.889
460.64	2.931
460.84	2.796
461.04	3.584
461.24	3.297
461.45	3.570
461.65	3.573
461.85	3.134
462.05	2.895
462.25	3.041
462.45	3.601
462.65	3.406
462.85	2.456
463.05	2.949
463.25	2.139
463.45	3.184
463.65	2.875
463.85	3.115
464.05	2.959
464.25	2.825
464.45	2.768
464.65	2.817
464.85	2.241
465.05	2.340
465.26	3.027
465.46	3.092
465.66	2.799
465.86	3.257
466.06	3.093
466.26	2.848
466.46	2.565
466.66	2.777
466.86	2.763
467.06	2.777
467.26	3.175
467.46	3.161
467.66	2.737
467.86	2.610
468.06	2.733
468.26	2.763
468.46	3.250
468.66	2.918
468.86	2.296
469.06	2.839
469.26	2.365
469.46	3.043
469.66	2.339
469.86	2.662
470.06	2.408
470.26	2.967
470.46	2.188
470.66	3.380
470.86	2.249
471.06	2.576
471.26	2.229
471.46	2.576
471.66	2.482
471.86	2.531
472.06	2.628
472.26	3.606
472.46	3.245
472.66	3.110
472.86	2.865
473.06	2.857
473.26	2.793
473.46	3.046
473.66	2.477
473.86	2.868
474.06	2.351
474.26	3.107
474.46	2.111
474.66	3.185
474.86	2.823
475.06	3.110
475.26	2.249
475.46	3.182
475.66	2.141
475.86	2.541
476.06	2.761
476.26	3.147
476.46	2.433
476.66	2.931
476.86	2.104
477.06	2.712
477.26	2.307
477.46	2.373
477.65	2.297
477.85	2.793
478.05	2.309
478.25	3.531
478.45	2.602
478.65	2.483
478.85	2.137
479.05	2.796
479.25	2.921
479.45	3.060
479.65	2.478
479.85	2.519
480.05	2.319
480.25	3.004
480.45	2.943
480.65	3.110
480.85	2.803
481.05	3.204
481.25	3.006
481.44	3.058
481.64	2.283
481.84	3.057
482.04	2.809
482.24	3.318
482.44	2.417
482.64	2.862
482.84	2.870
483.04	3.060
483.24	2.979
483.44	3.219
483.64	3.197
483.84	3.362
484.04	3.532
484.23	3.396
484.43	3.554
484.63	3.716
484.83	3.628
485.03	4.011
485.23	3.754
485.43	3.952
485.63	3.857
485.83	3.973
486.03	3.817
486.23	3.997
486.42	3.828
486.62	3.909
486.82	3.601
487.02	3.665
487.22	3.247
487.42	3.704
487.62	3.518
487.82	3.351
488.02	3.251
488.22	3.652
488.41	3.456
488.61	3.507
488.81	3.324
489.01	3.706
489.21	3.544
489.41	3.834
489.61	3.623
489.81	3.906
490.01	3.648
490.20	3.592
490.40	3.522
490.60	3.712
490.80	3.272
491.00	3.621
491.20	3.131
491.40	3.070
491.60	3.116
491.79	3.308
491.99	3.388
492.19	3.397
492.39	3.454
492.59	3.568
492.79	3.484
492.99	3.751
493.19	3.566
493.38	3.830
493.58	3.355
493.78	3.624
493.98	3.562
494.18	3.784
494.38	3.452
494.58	3.695
494.77	2.691
494.97	3.042
495.17	2.839
495.37	2.961
495.57	3.017
495.77	3.145
495.96	2.881
496.16	2.655
496.36	2.604
496.56	3.208
496.76	2.644
496.96	2.785
497.15	2.676
497.35	2.627
497.55	2.604
497.75	3.174
497.95	2.764
498.15	3.354
498.34	3.146
498.54	2.941
498.74	3.092
498.94	3.386
499.14	2.921
499.34	3.358
499.53	2.972
499.73	2.891
499.93	2.774
500.13	3.264
500.33	2.499
500.52	2.672
500.72	2.843
500.92	2.568
501.12	2.505
501.32	2.363
501.52	2.831
501.71	2.783
501.91	2.272
502.11	2.650
502.31	2.309
502.51	3.043
502.70	2.463
502.90	2.445
503.10	2.621
503.30	3.215
503.50	2.744
503.69	2.838
503.89	3.009
504.09	2.878
504.29	2.871
504.48	3.393
504.68	3.037
504.88	3.330
505.08	2.592
505.28	2.857
505.47	2.871
505.67	3.197
505.87	2.623
506.07	2.702
506.27	2.430
506.46	2.930
506.66	2.534
506.86	2.994
507.06	3.380
507.25	3.181
507.45	2.951
507.65	3.440
507.85	2.124
508.04	3.412
508.24	2.937
508.44	2.883
508.64	2.702
508.83	3.219
509.03	2.813
509.23	3.209
509.43	2.426
509.63	2.831
509.82	2.586
510.02	3.113
510.22	2.970
510.42	3.294
510.61	2.876
510.81	3.019
511.01	3.375
511.21	3.214
511.40	2.918
511.60	3.224
511.80	3.300
511.99	3.531
512.19	2.939
512.39	3.466
512.59	2.721
512.78	3.581
512.98	3.583
513.18	2.953
513.38	3.007
513.57	3.424
513.77	3.028
513.97	3.024
514.17	2.961
514.36	3.064
514.56	3.090
514.76	3.489
514.95	2.721
515.15	2.771
515.35	2.562
515.55	2.979
515.74	3.036
515.94	3.383
516.14	2.764
516.33	3.176
516.53	2.620
516.73	2.853
516.93	2.948
517.12	3.584
517.32	2.803
517.52	3.142
517.71	2.697
517.91	3.004
518.11	2.920
518.30	2.870
518.50	2.946
518.70	3.198
518.90	3.133
519.09	3.342
519.29	3.235
519.49	3.504
519.68	2.848
519.88	3.649
520.08	3.279
520.27	3.482
520.47	3.590
520.67	3.170
520.86	3.484
521.06	3.627
521.26	3.094
521.45	3.560
521.65	2.955
521.85	3.164
522.04	2.998
522.24	3.193
522.44	2.886
522.63	3.191
522.83	2.938
523.03	3.245
523.22	3.189
523.42	3.710
523.62	3.221
523.81	3.108
524.01	3.128
524.21	2.890
524.40	2.916
524.60	3.215
524.80	2.811
524.99	3.215
525.19	2.815
525.39	3.327
525.58	2.955
525.78	3.432
525.98	3.367
526.17	3.445
526.37	3.187
526.57	3.629
526.76	3.652
526.96	3.828
527.15	3.316
527.35	3.796
527.55	3.214
527.74	3.817
527.94	3.638
528.14	3.461
528.33	3.571
528.53	3.712
528.72	3.569
528.92	3.915
529.12	3.888
529.31	4.013
529.51	3.960
529.71	4.107
529.90	3.975
530.10	4.053
530.29	4.123
530.49	4.241
530.69	4.163
530.88	4.344
531.08	4.152
531.28	4.159
531.47	4.044
531.67	4.095
531.86	3.747
532.06	3.940
532.26	3.460
532.45	3.882
532.65	3.556
532.84	3.729
533.04	3.331
533.24	4.054
533.43	3.534
533.63	4.008
533.82	3.851
534.02	4.057
534.22	3.770
534.41	3.859
534.61	3.950
534.80	3.958
535.00	4.159
535.19	4.015
535.39	4.184
535.59	4.025
535.78	3.675
535.98	3.950
536.17	3.701
536.37	3.860
536.57	3.684
536.76	3.810
536.96	3.668
537.15	4.173
537.35	3.157
537.54	3.838
537.74	3.655
537.93	4.107
538.13	3.718
538.33	3.649
538.52	3.752
538.72	4.052
538.91	3.769
539.11	3.702
539.30	3.619
539.50	3.893
539.70	3.549
539.89	4.035
540.09	3.092
540.28	3.466
540.48	3.005
540.67	3.736
540.87	3.474
541.06	4.099
541.26	3.656
541.45	4.204
541.65	4.033
541.85	4.005
542.04	3.820
542.24	4.192
542.43	4.194
542.63	4.325
542.82	4.284
543.02	4.709
543.21	4.280
543.41	4.585
543.60	4.288
543.80	4.541
543.99	4.229
544.19	4.535
544.38	4.065
544.58	4.569
544.77	4.289
544.97	4.665
545.16	3.792
545.36	4.285
545.56	4.145
545.75	4.279
545.95	4.111
546.14	4.390
546.34	3.868
546.53	4.609
546.73	3.836
546.92	4.226
547.12	4.037
547.31	4.235
547.51	3.860
547.70	4.438
547.90	3.930
548.09	4.473
548.29	3.985
548.48	4.437
548.68	3.900
548.87	4.527
549.07	4.262
549.26	3.798
549.46	3.863
549.65	4.262
549.84	3.958
550.04	4.404
550.23	3.248
550.43	3.935
550.62	3.951
550.82	4.262
551.01	3.998
551.21	4.128
551.40	3.290
551.60	4.172
551.79	3.852
551.99	4.040
552.18	3.741
552.38	4.132
552.57	4.004
552.77	4.283
552.96	4.325
553.16	4.841
553.35	4.339
553.54	5.016
553.74	4.405
553.93	5.060
554.13	4.942
554.32	5.145
554.52	4.326
554.71	5.073
554.91	3.977
555.10	4.526
555.29	4.131
555.49	4.984
555.68	4.276
555.88	4.900
556.07	4.497
556.27	4.786
556.46	4.562
556.66	5.010
556.85	4.730
557.04	4.947
557.24	4.512
557.43	5.476
557.63	4.902
557.82	4.854
558.02	4.593
558.21	5.978
558.40	4.625
558.60	5.205
558.79	5.029
558.99	5.383
559.18	5.148
559.38	5.395
559.57	5.334
559.76	5.616
559.96	5.722
560.15	5.871
560.35	5.013
560.54	5.024
560.73	4.721
560.93	5.829
561.12	5.286
561.32	5.752
561.51	5.353
561.70	5.595
561.90	5.723
562.09	6.303
562.29	5.656
562.48	6.449
562.67	5.883
562.87	5.852
563.06	6.069
563.26	6.167
563.45	6.585
563.64	6.821
563.84	6.173
564.03	6.144
564.23	5.546
564.42	7.319
564.61	6.364
564.81	6.879
565.00	7.033
565.20	6.821
565.39	6.977
565.58	7.220
565.78	6.561
565.97	7.177
566.16	7.337
566.36	8.141
566.55	7.290
566.74	7.217
566.94	7.600
567.13	8.035
567.33	7.036
567.52	8.277
567.71	8.007
567.91	7.784
568.10	7.765
568.29	8.089
568.49	7.734
568.68	8.464
568.87	7.450
569.07	8.288
569.26	7.772
569.45	8.335
569.65	7.916
569.84	8.436
570.04	8.445
570.23	8.623
570.42	7.656
570.62	8.439
570.81	8.309
571.00	8.720
571.20	8.627
571.39	9.335
571.58	8.393
571.78	8.951
571.97	8.769
572.16	8.743
572.36	8.964
572.55	9.382
572.74	9.220
572.94	9.271
573.13	9.161
573.32	9.464
573.51	8.873
573.71	9.301
573.90	9.094
574.09	9.663
574.29	9.434
574.48	9.270
574.67	9.105
574.87	9.865
575.06	8.657
575.25	9.572
575.45	9.201
575.64	9.562
575.83	9.240
576.03	10.307
576.22	9.384
576.41	9.269
576.60	9.204
576.80	9.444
576.99	9.751
577.18	10.510
577.38	9.865
577.57	9.419
577.76	10.469
577.95	9.865
578.15	9.184
578.34	10.176
578.53	8.980
578.73	9.925
578.92	8.830
579.11	9.731
579.30	9.988
579.50	10.057
579.69	9.671
579.88	9.712
580.08	8.236
580.27	9.138
580.46	8.822
580.65	9.598
580.85	9.086
581.04	9.655
581.23	8.780
581.42	9.635
581.62	9.407
581.81	9.357
582.00	9.168
582.19	9.414
582.39	9.444
582.58	9.159
582.77	9.878
582.96	9.272
583.16	8.230
583.35	9.595
583.54	9.968
583.73	9.809
583.93	8.742
584.12	9.085
584.31	8.311
584.50	9.530
584.70	9.270
584.89	9.237
585.08	8.767
585.27	10.182
585.47	9.000
585.66	9.371
585.85	8.583
586.04	8.962
586.24	9.854
586.43	8.813
586.62	9.063
586.81	9.514
587.00	9.149
587.20	9.336
587.39	8.397
587.58	9.631
587.77	9.416
587.97	9.679
588.16	9.380
588.35	9.725
588.54	8.509
588.73	9.154
588.93	9.148
589.12	9.934
589.31	8.761
589.50	8.784
589.69	9.361
589.89	9.542
590.08	9.267
590.27	9.046
590.46	8.919
590.65	9.144
590.85	8.430
591.04	9.518
591.23	9.282
591.42	9.566
591.61	9.024
591.81	9.732
592.00	8.793
592.19	9.725
592.38	8.924
592.57	10.236
592.77	8.974
592.96	9.708
593.15	9.616
593.34	9.403
593.53	9.376
593.72	9.711
593.92	8.608
594.11	9.833
594.30	9.202
594.49	10.785
594.68	9.678
594.87	9.856
595.07	8.832
595.26	9.939
595.45	8.864
595.64	9.970
595.83	9.011
596.02	9.828
596.22	10.244
596.41	9.804
596.60	9.609
596.79	10.067
596.98	9.168
597.17	10.561
597.37	9.815
597.56	10.634
597.75	9.713
597.94	10.613
598.13	10.445
598.32	10.381
598.51	10.108
598.71	11.390
598.90	10.638
599.09	11.178
599.28	10.382
599.47	10.531
599.66	10.525
599.85	10.859
600.05	9.593
600.24	10.739
600.43	10.542
600.62	10.391
600.81	9.824
601.00	10.725
601.19	9.770
601.38	11.184
601.58	10.540
601.77	10.808
601.96	10.473
602.15	11.264
602.34	11.040
602.53	11.607
602.72	10.549
602.91	11.192
603.10	10.406
603.30	11.025
603.49	10.539
603.68	11.375
603.87	10.647
604.06	11.250
604.25	11.118
604.44	11.231
604.63	11.545
604.82	11.658
605.01	11.016
605.21	11.111
605.40	11.498
605.59	11.492
605.78	11.341
605.97	11.530
606.16	10.975
606.35	11.972
606.54	11.274
606.73	12.017
606.92	10.873
607.11	11.550
607.30	11.537
607.50	11.407
607.69	10.633
607.88	11.150
608.07	10.006
608.26	10.802
608.45	10.431
608.64	11.660
608.83	9.742
609.02	10.868
609.21	10.326
609.40	10.775
609.59	10.159
609.78	10.823
609.97	10.215
610.16	10.615
610.35	10.662
610.55	10.505
610.74	10.589
610.93	10.630
611.12	10.130
611.31	10.316
611.50	9.842
611.69	9.624
611.88	10.376
612.07	10.924
612.26	8.990
612.45	9.942
612.64	9.109
612.83	10.246
613.02	8.987
613.21	9.588
613.40	8.999
613.59	10.226
613.78	8.238
613.97	9.311
614.16	8.686
614.35	8.915
614.54	8.111
614.73	8.450
614.92	8.867
615.11	8.863
615.30	8.233
615.49	7.759
615.68	8.715
615.87	8.862
616.07	7.728
616.26	8.281
616.45	8.648
616.64	8.489
616.83	7.902
617.02	8.250
617.21	7.808
617.40	7.283
617.59	8.384
617.78	9.139
617.97	7.838
618.16	7.310
618.35	6.562
618.54	8.095
618.73	7.304
618.92	8.119
619.11	6.928
619.30	7.825
619.49	6.535
619.68	8.396
619.86	7.599
620.05	8.188
620.24	7.030
620.43	7.177
620.62	6.270
620.81	7.508
621.00	8.289
621.19	8.260
621.38	8.163
621.57	8.658
621.76	6.608
621.95	7.526
622.14	7.652
622.33	8.601
622.52	6.883
622.71	7.800
622.90	6.709
623.09	7.295
623.28	6.955
623.47	7.627
623.66	8.007
623.85	6.795
624.04	6.460
624.23	6.511
624.42	6.983
624.61	6.012
624.80	6.522
624.99	7.127
625.18	6.147
625.36	6.848
625.55	6.411
625.74	6.780
625.93	6.635
626.12	7.221
626.31	7.610
626.50	7.954
626.69	6.657
626.88	8.148
627.07	7.839
627.26	6.905
627.45	6.928
627.64	7.203
627.83	6.717
628.02	7.711
628.20	6.961
628.39	7.268
628.58	7.139
628.77	6.723
628.96	6.734
629.15	7.119
629.34	7.030
629.53	6.878
629.72	5.519
629.91	7.522
630.10	6.043
630.29	6.666
630.47	5.769
630.66	5.962
630.85	5.505
631.04	7.170
631.23	5.762
631.42	6.173
631.61	5.557
631.80	7.680
631.99	5.731
632.18	5.320
632.36	5.430
632.55	7.191
632.74	5.724
632.93	5.660
633.12	6.058
633.31	6.139
633.50	5.905
633.69	6.295
633.88	5.758
634.06	6.331
634.25	6.145
634.44	5.844
634.63	6.113
634.82	7.366
635.01	6.035
635.20	6.528
635.39	5.409
635.57	6.485
635.76	6.052
635.95	6.484
636.14	4.880
636.33	6.858
636.52	6.313
636.71	6.276
636.89	5.692
637.08	6.479
637.27	4.514
637.46	5.722
637.65	5.794
637.84	6.569
638.03	5.403
638.21	7.141
638.40	6.248
638.59	5.680
638.78	5.979
638.97	6.906
639.16	6.715
639.34	7.130
639.53	5.777
639.72	6.956
639.91	5.778
640.10	5.740
640.29	7.543
640.47	6.109
640.66	6.468
640.85	7.350
641.04	5.478
641.23	6.623
641.42	6.778
641.60	6.170
641.79	6.217
641.98	6.427
642.17	5.315
642.36	6.937
642.54	5.519
642.73	6.606
642.92	5.826
643.11	5.428
643.30	6.007
643.49	6.062
643.67	4.796
643.86	7.029
644.05	5.879
644.24	6.346
644.43	6.336
644.61	6.416
644.80	6.162
644.99	6.793
645.18	6.931
645.37	6.462
645.55	5.707
645.74	6.259
645.93	6.039
646.12	6.258
646.31	6.449
646.49	6.385
646.68	6.947
646.87	5.908
647.06	5.993
647.24	5.745
647.43	4.414
647.62	7.419
647.81	4.358
648.00	7.007
648.18	5.369
648.37	6.147
648.56	6.314
648.75	6.047
648.93	5.644
649.12	6.301
649.31	6.543
649.50	5.656
649.68	5.210
649.87	5.726
650.06	5.134
650.25	6.087
650.43	5.717
650.62	5.506
650.81	5.453
651.00	6.073
651.18	4.829
651.37	7.297
651.56	5.171
651.75	6.247
651.93	5.458
652.12	5.906
652.31	5.277
652.50	5.496
652.68	6.090
652.87	6.354
653.06	6.606
653.25	6.027
653.43	5.502
653.62	5.631
653.81	5.902
654.00	6.032
654.18	5.930
654.37	6.818
654.56	6.188
654.74	4.029
654.93	5.622
655.12	5.013
655.31	6.199
655.49	5.984
655.68	5.197
655.87	5.504
656.05	5.159
656.24	5.622
656.43	4.207
656.62	5.226
656.80	4.471
656.99	4.755
657.18	5.211
657.36	4.252
657.55	5.480
657.74	4.455
657.93	5.521
658.11	6.477
658.30	5.124
658.49	4.850
658.67	4.394
658.86	4.917
659.05	4.739
659.23	5.339
659.42	4.710
659.61	4.800
659.79	4.959
659.98	4.039
660.17	5.430
660.35	4.558
660.54	5.326
660.73	5.813
660.91	4.950
661.10	4.755
661.29	3.984
661.47	3.613
661.66	4.635
661.85	4.471
662.03	5.786
662.22	3.857
662.41	3.715
662.59	4.052
662.78	5.042
662.97	4.324
663.15	4.066
663.34	3.135
663.53	4.534
663.71	4.938
663.90	4.161
664.09	5.044
664.27	5.266
664.46	3.953
664.65	4.850
664.83	4.703
665.02	3.635
665.21	3.316
665.39	4.171
665.58	5.304
665.77	4.775
665.95	4.725
666.14	3.454
666.32	4.416
666.51	3.648
666.70	4.098
666.88	3.489
667.07	4.075
667.26	3.966
667.44	5.374
667.63	4.880
667.81	3.828
668.00	4.704
668.19	5.444
668.37	3.977
668.56	5.528
668.75	4.238
668.93	5.639
669.12	5.078
669.30	4.848
669.49	4.290
669.68	4.910
669.86	5.500
670.05	4.741
670.23	4.778
670.42	4.687
670.61	5.036
670.79	4.983
670.98	5.196
671.16	5.618
671.35	5.030
671.54	4.852
671.72	5.096
671.91	6.543
672.09	4.982
672.28	6.554
672.46	6.407
672.65	6.447
672.84	5.291
673.02	6.548
673.21	5.235
673.39	5.776
673.58	6.756
673.77	5.885
673.95	6.443
674.14	6.466
674.32	5.424
674.51	7.960
674.69	6.061
674.88	6.560
675.07	6.487
675.25	8.264
675.44	6.497
675.62	7.063
675.81	6.296
675.99	9.498
676.18	8.479
676.36	6.312
676.55	6.631
676.74	9.350
676.92	8.409
677.11	7.776
677.29	8.189
677.48	8.701
677.66	8.490
677.85	7.506
678.03	6.882
678.22	8.903
678.40	7.609
678.59	7.646
678.78	7.035
678.96	6.981
679.15	6.754
679.33	9.099
679.52	8.507
679.70	7.543
679.89	7.335
680.07	8.764
680.26	7.627
680.44	8.279
680.63	7.602
680.81	7.528
681.00	6.149
681.18	7.330
681.37	7.621
681.55	9.472
681.74	8.197
681.92	8.449
682.11	8.345
682.29	7.761
682.48	8.322
682.66	9.620
682.85	8.345
683.03	8.320
683.22	9.616
683.40	11.072
683.59	8.860
683.77	9.600
683.96	8.353
684.14	10.188
684.33	7.051
684.51	11.695
684.70	9.496
684.88	10.708
685.07	9.482
685.25	11.131
685.44	9.230
685.62	10.062
685.81	8.128
685.99	10.802
686.18	8.886
686.36	10.610
686.55	8.155
686.73	9.552
686.92	10.430
687.10	10.824
687.29	10.179
687.47	12.835
687.65	12.519
687.84	10.574
688.02	12.596
688.21	13.027
688.39	10.678
688.58	11.986
688.76	11.894
688.95	12.183
689.13	9.680
689.32	13.682
689.50	12.491
689.68	12.950
689.87	11.562
690.05	13.070
690.24	12.816
690.42	13.086
690.61	13.636
690.79	15.311
690.98	13.462
691.16	12.909
691.34	12.214
691.53	13.847
691.71	12.774
691.90	14.449
692.08	12.664
692.27	15.577
692.45	16.619
692.63	14.242
692.82	16.852
693.00	16.732
693.19	12.870
693.37	17.659
693.56	14.527
693.74	17.404
693.92	16.155
694.11	19.119
694.29	19.732
694.48	19.354
694.66	18.229
694.84	19.057
695.03	19.390
695.21	21.908
695.40	21.164
695.58	22.543
695.76	19.400
695.95	22.678
696.13	19.567
696.32	22.700
696.50	26.028
696.68	22.928
696.87	22.252
697.05	24.336
697.24	23.393
697.42	25.039
697.60	23.824
697.79	26.407
697.97	25.006
698.16	27.742
698.34	24.812
698.52	28.181
698.71	25.451
698.89	28.151
699.07	25.269
699.26	28.404
699.44	28.663
699.63	29.377
699.81	27.549
699.99	28.671
700.18	29.567
700.36	29.376
700.54	29.781
700.73	30.010
700.91	29.120
701.09	31.811
701.28	31.782
701.46	31.322
701.64	31.490
701.83	33.912
702.01	32.399
702.20	34.884
702.38	33.264
702.56	35.455
702.75	34.059
702.93	33.671
703.11	33.685
703.30	35.422
703.48	35.212
703.66	36.676
703.85	33.904
704.03	38.353
704.21	35.409
704.40	38.483
704.58	35.081
704.76	39.041
704.95	37.555
705.13	38.954
705.31	36.150
705.50	39.878
705.68	36.756
705.86	40.024
706.04	38.909
706.23	40.445
706.41	37.568
706.59	40.593
706.78	39.373
706.96	40.993
707.14	39.749
707.33	42.953
707.51	39.720
707.69	42.673
707.88	41.717
708.06	41.679
708.24	41.956
708.42	41.613
708.61	40.272
708.79	41.939
708.97	42.085
709.16	41.935
709.34	43.408
709.52	41.868
709.71	41.518
709.89	43.658
710.07	39.020
710.25	43.792
710.44	41.296
710.62	42.431
710.80	43.405
710.98	42.150
711.17	43.175
711.35	43.548
711.53	41.517
711.72	44.956
711.90	43.331
712.08	44.528
712.26	42.722
712.45	43.512
712.63	42.248
712.81	44.781
712.99	43.819
713.18	43.130
713.36	45.029
713.54	44.886
713.72	42.484
713.91	43.438
714.09	43.171
714.27	45.476
714.45	44.166
714.64	43.561
714.82	45.105
715.00	45.596
715.18	45.136
715.37	44.391
715.55	44.581
715.73	44.195
715.91	44.763
716.10	44.525
716.28	43.460
716.46	46.987
716.64	44.527
716.83	45.318
717.01	43.965
717.19	43.793
717.37	44.791
717.55	45.570
717.74	45.008
717.92	45.230
718.10	42.196
718.28	46.156
718.47	44.464
718.65	46.262
718.83	43.422
719.01	47.318
719.19	44.037
719.38	48.405
719.56	45.066
719.74	46.089
719.92	44.719
720.10	46.399
720.29	44.711
720.47	47.438
720.65	45.846
720.83	47.338
721.01	44.539
721.20	47.610
721.38	44.888
721.56	46.845
721.74	47.286
721.92	47.429
722.11	44.993
722.29	47.119
722.47	44.978
722.65	49.187
722.83	47.107
723.01	46.272
723.20	46.100
723.38	47.014
723.56	45.832
723.74	48.654
723.92	46.935
724.10	46.508
724.29	44.763
724.47	50.390
724.65	46.715
724.83	50.257
725.01	45.498
725.19	49.352
725.38	46.946
725.56	48.908
725.74	48.241
725.92	51.641
726.10	48.154
726.28	47.604
726.46	48.858
726.65	50.630
726.83	46.692
727.01	49.506
727.19	49.913
727.37	47.021
727.55	48.928
727.73	49.760
727.92	47.851
728.10	49.791
728.28	46.584
728.46	48.231
728.64	46.637
728.82	50.092
729.00	48.619
729.19	49.315
729.37	48.296
729.55	50.393
729.73	48.010
729.91	50.120
730.09	50.737
730.27	52.972
730.45	49.102
730.63	51.885
730.82	49.646
731.00	50.060
731.18	51.699
731.36	50.839
731.54	50.020
731.72	52.301
731.90	50.202
732.08	51.639
732.26	49.268
732.45	52.538
732.63	49.097
732.81	51.851
732.99	50.383
733.17	53.579
733.35	50.343
733.53	52.292
733.71	51.858
733.89	51.678
734.07	52.889
734.25	52.753
734.44	50.188
734.62	51.325
734.80	53.241
734.98	54.628
735.16	53.818
735.34	55.253
735.52	51.869
735.70	54.022
735.88	53.453
736.06	55.101
736.24	56.860
736.42	55.553
736.60	55.109
736.78	56.217
736.97	53.143
737.15	55.407
737.33	53.381
737.51	55.088
737.69	55.829
737.87	55.821
738.05	54.915
738.23	58.354
738.41	54.154
738.59	59.248
738.77	53.973
738.95	56.386
739.13	54.417
739.31	57.946
739.49	58.818
739.67	58.615
739.85	54.296
740.03	55.469
740.21	57.136
740.39	58.203
740.57	57.011
740.75	56.205
740.93	55.996
741.11	59.044
741.30	56.855
741.48	60.167
741.66	58.752
741.84	60.966
742.02	56.290
742.20	56.740
742.38	58.389
742.56	61.553
742.74	56.283
742.92	56.350
743.10	55.918
743.28	62.232
743.46	59.564
743.64	59.454
743.82	57.556
744.00	59.045
744.18	55.897
744.36	59.149
744.54	58.929
744.72	59.063
744.90	64.717
745.08	61.286
745.26	59.123
745.44	59.152
745.62	57.890
745.80	59.359
745.98	56.696
746.16	62.257
746.34	58.723
746.52	60.654
746.70	56.418
746.87	58.344
747.05	58.860
747.23	61.181
747.41	59.844
747.59	61.982
747.77	60.737
747.95	62.955
748.13	59.165
748.31	65.323
748.49	60.324
748.67	61.460
748.85	58.805
749.03	60.160
749.21	60.112
749.39	62.369
749.57	57.481
749.75	56.400
749.93	60.395
750.11	61.146
750.29	58.748
750.47	59.204
750.65	58.413
750.83	61.685
751.01	57.617
751.18	59.155
751.36	59.260
751.54	62.330
751.72	59.421
751.90	60.433
752.08	57.214
752.26	58.708
752.44	56.079
752.62	62.952
752.80	57.289
752.98	62.153
753.16	60.410
753.34	60.658
753.52	60.760
753.69	62.488
753.87	60.439
754.05	61.730
754.23	58.487
754.41	62.719
754.59	56.652
754.77	61.027
754.95	59.523
755.13	59.470
755.31	58.165
755.49	62.286
755.66	62.219
755.84	59.351
756.02	58.766
756.20	63.014
756.38	57.424
756.56	60.370
756.74	58.082
756.92	60.846
757.10	55.884
757.28	61.804
757.45	63.859
757.63	60.481
757.81	58.210
757.99	65.568
758.17	56.876
758.35	62.413
758.53	60.176
758.71	58.572
758.88	60.603
759.06	60.281
759.24	56.490
759.42	58.905
759.60	57.365
759.78	55.639
759.96	54.696
760.13	58.484
760.31	48.411
760.49	56.005
760.67	53.041
760.85	52.833
761.03	49.910
761.21	50.015
761.38	51.131
761.56	55.656
761.74	51.823
761.92	55.468
762.10	51.275
762.28	55.518
762.46	47.734
762.63	52.109
762.81	49.383
762.99	53.473
763.17	52.798
763.35	54.274
763.53	52.529
763.70	54.023
763.88	52.840
764.06	52.929
764.24	50.309
764.42	54.516
764.60	53.723
764.77	52.218
764.95	52.447
765.13	54.305
765.31	53.031
765.49	54.097
765.66	52.752
765.84	54.635
766.02	53.417
766.20	55.905
766.38	55.440
766.56	54.707
766.73	55.774
766.91	56.214
767.09	58.579
767.27	57.127
767.45	53.562
767.62	57.589
767.80	55.407
767.98	57.621
768.16	54.895
768.33	58.300
768.51	57.323
768.69	58.567
768.87	54.108
769.05	58.475
769.22	59.024
769.40	61.361
769.58	61.884
769.76	58.051
769.94	59.071
770.11	57.270
770.29	59.221
770.47	60.287
770.65	61.113
770.82	60.457
771.00	61.166
771.18	59.225
771.36	57.569
771.53	59.968
771.71	60.008
771.89	62.645
772.07	60.911
772.25	62.883
772.42	57.137
772.60	62.260
772.78	58.412
772.96	61.410
773.13	60.303
773.31	61.555
773.49	56.461
773.67	62.031
773.84	58.855
774.02	59.003
774.20	58.352
774.37	63.710
774.55	56.730
774.73	60.864
774.91	58.738
775.08	58.289
775.26	56.316
775.44	61.295
775.62	58.592
775.79	56.305
775.97	59.875
776.15	60.156
776.32	53.230
776.50	64.577
776.68	65.253
776.86	60.232
777.03	55.276
777.21	57.798
777.39	55.528
777.56	64.558
777.74	53.369
777.92	57.143
778.10	59.638
778.27	55.816
778.45	59.868
778.63	61.610
778.80	58.653
778.98	60.846
779.16	63.222
779.34	55.947
779.51	58.420
779.69	59.342
779.87	62.395
780.04	61.149
780.22	55.836
780.40	56.743
780.57	57.582
780.75	57.700
780.93	60.302
781.10	59.432
781.28	64.709
781.46	55.514
781.63	57.756
781.81	61.212
781.99	52.713
782.16	57.325
782.34	57.496
782.52	56.227
782.69	58.539
782.87	64.448
783.05	54.905
783.22	60.277
783.40	55.224
783.58	57.520
783.75	56.907
783.93	60.734
784.11	56.081
784.28	58.685
784.46	53.129
784.64	59.678
784.81	57.434
784.99	67.295
785.17	52.543
785.34	55.631
785.52	55.469
785.69	58.236
785.87	55.623
786.05	57.168
786.22	62.991
786.40	60.135
786.58	55.184
786.75	58.131
786.93	57.627
787.11	57.415
787.28	56.000
787.46	61.214
787.63	56.874
787.81	60.661
787.99	54.599
788.16	53.305
788.34	50.786
788.51	56.767
788.69	55.122
788.87	54.253
789.04	53.063
789.22	54.131
789.39	55.402
789.57	54.639
789.75	53.989
789.92	56.388
790.10	51.567
790.27	54.910
790.45	49.610
790.63	53.937
790.80	54.590
790.98	56.234
791.15	54.778
791.33	56.153
791.51	54.924
791.68	56.148
791.86	55.410
792.03	55.574
792.21	52.550
792.39	58.913
792.56	53.553
792.74	57.346
792.91	55.721
793.09	52.039
793.26	50.172
793.44	56.083
793.62	52.349
793.79	55.549
793.97	50.029
794.14	54.490
794.32	55.431
794.49	53.563
794.67	52.310
794.84	56.613
795.02	49.242
795.20	59.388
795.37	51.962
795.55	55.477
795.72	53.349
795.90	53.707
796.07	52.655
796.25	56.626
796.42	52.599
796.60	53.415
796.77	47.697
796.95	54.693
797.13	51.440
797.30	56.976
797.48	51.600
797.65	57.670
797.83	50.838
798.00	55.792
798.18	51.007
798.35	54.364
798.53	50.530
798.70	52.125
798.88	49.808
799.05	57.378
799.23	47.433
799.40	52.449
799.58	50.615
799.75	49.425
799.93	52.927
800.10	55.788
800.28	53.188
800.45	56.818
800.63	48.481
800.80	54.448
800.98	50.209
801.15	57.554
801.33	48.503
801.50	51.488
801.68	47.410
801.85	50.373
802.03	46.273
802.20	53.677
802.38	49.174
802.55	54.778
802.73	54.798
802.90	49.656
803.08	48.716
803.25	59.447
803.43	54.819
803.60	57.428
803.78	55.404
803.95	54.141
804.13	55.191
804.30	56.104
804.48	49.342
804.65	59.414
804.83	52.497
805.00	59.758
805.17	56.749
805.35	58.149
805.52	48.654
805.70	52.734
805.87	52.828
806.05	52.364
806.22	47.465
806.40	51.384
806.57	51.229
806.75	56.620
806.92	52.503
807.09	52.525
807.27	56.981
807.44	51.823
807.62	49.742
807.79	54.232
807.97	54.114
808.14	53.470
808.31	51.493
808.49	50.962
808.66	51.809
808.84	51.754
809.01	57.316
809.19	56.091
809.36	56.713
809.53	52.180
809.71	53.227
809.88	56.823
810.06	58.455
810.23	51.638
810.41	59.604
810.58	60.257
810.75	50.699
810.93	50.871
811.10	46.239
811.28	60.089
811.45	56.529
811.62	51.001
811.80	45.059
811.97	55.343
812.15	63.954
812.32	46.380
812.49	56.624
812.67	52.563
812.84	44.403
813.02	51.513
813.19	44.627
813.36	49.884
813.54	44.481
813.71	59.052
813.89	47.389
814.06	54.058
814.23	56.020
814.41	48.590
814.58	57.468
814.75	50.163
814.93	52.474
815.10	50.084
815.28	48.768
815.45	43.958
815.62	55.359
815.80	47.823
815.97	48.862
816.14	51.212
816.32	50.661
816.49	49.959
816.66	50.833
816.84	48.107
817.01	48.887
817.18	49.245
817.36	49.590
817.53	48.589
817.71	38.235
817.88	49.272
818.05	50.373
818.23	49.185
818.40	42.266
818.57	50.318
818.75	44.727
818.92	42.745
819.09	49.391
819.27	48.407
819.44	48.473
819.61	46.345
819.79	49.965
819.96	52.638
820.13	46.013
820.31	50.362
820.48	47.447
820.65	43.653
820.82	47.599
821.00	51.805
821.17	43.170
821.34	44.009
821.52	45.760
821.69	47.208
821.86	47.495
822.04	50.380
822.21	48.498
822.38	52.550
822.56	49.079
822.73	50.518
822.90	50.525
823.07	49.899
823.25	50.272
823.42	50.372
823.59	49.077
823.77	51.017
823.94	49.853
824.11	50.588
824.29	49.744
824.46	49.868
824.63	50.758
824.80	50.161
824.98	50.611
825.15	52.549
825.32	49.189
825.49	50.649
825.67	48.363
825.84	50.366
826.01	49.964
826.19	51.716
826.36	44.825
826.53	51.090
826.70	48.593
826.88	53.999
827.05	46.572
827.22	48.457
827.39	49.502
827.57	48.439
827.74	47.016
827.91	52.393
828.08	46.159
828.26	52.110
828.43	46.265
828.60	50.502
828.77	48.419
828.95	47.380
829.12	46.410
829.29	42.605
829.46	47.708
829.64	50.442
829.81	43.082
829.98	45.950
830.15	43.549
830.32	43.165
830.50	44.637
830.67	43.608
830.84	45.134
831.01	41.961
831.19	37.779
831.36	46.819
831.53	46.466
831.70	51.195
831.87	45.050
832.05	44.598
832.22	49.541
832.39	45.056
832.56	37.394
832.74	45.353
832.91	40.351
833.08	55.110
833.25	38.268
833.42	45.213
833.60	38.426
833.77	37.330
833.94	37.195
834.11	40.937
834.28	38.684
834.45	48.663
834.63	40.963
834.80	46.410
834.97	43.507
835.14	46.588
835.31	43.969
835.49	44.819
835.66	45.357
835.83	45.222
836.00	43.743
836.17	43.515
836.34	42.388
836.52	45.767
836.69	47.297
836.86	51.190
837.03	46.893
837.20	40.411
837.37	43.734
837.55	38.394
837.72	39.879
837.89	49.261
838.06	43.382
838.23	47.074
838.40	43.369
838.58	51.412
838.75	54.225
838.92	49.902
839.09	55.462
839.26	53.665
839.43	56.217
839.60	60.149
839.78	55.016
839.95	50.560
840.12	49.904
840.29	60.509
840.46	51.577
840.63	48.947
840.80	48.141
840.98	52.439
841.15	45.420
841.32	45.938
841.49	46.510
841.66	59.346
841.83	40.446
842.00	51.411
842.17	57.707
842.34	45.898
842.52	56.295
842.69	51.274
842.86	52.804
843.03	66.502
843.20	51.824
843.37	52.005
843.54	52.387
843.71	46.042
843.88	60.223
844.06	71.250
844.23	50.668
844.40	40.813
844.57	70.807
844.74	66.780
844.91	64.264
845.08	67.123
845.25	78.487
845.42	64.065
845.59	68.340
845.76	59.853
845.94	66.844
846.11	73.658
846.28	68.616
846.45	82.218
846.62	72.767
846.79	77.273
846.96	81.310
847.13	71.727
847.30	62.100
847.47	66.599
847.64	50.688
847.81	59.385
847.98	63.278
848.15	81.053
848.32	76.426
848.50	85.771
848.67	53.382
848.84	75.911
849.01	77.846
849.18	78.119
849.35	81.225
849.52	85.347
849.69	67.285
849.86	97.738
850.03	67.916
850.20	57.786
850.37	65.899
850.54	70.485
850.71	78.271
850.88	70.332
851.05	68.750
851.22	78.058
851.39	74.383
851.56	68.330
851.73	63.765
851.90	80.963
852.07	64.508
852.24	63.601
852.41	76.874
852.58	75.238
852.75	55.116
852.92	87.525
853.09	91.011
853.26	70.105
853.43	82.000
853.60	67.152
853.77	85.781
853.94	73.101
854.11	83.759
854.28	87.561
854.45	62.222
854.62	82.597
854.79	67.699
854.96	73.980
855.13	82.367
855.30	100.000
855.47	84.439
855.64	73.942
855.81	90.431
855.98	91.870
856.15	79.675
856.32	60.125
856.49	74.941
856.66	77.700
856.83	82.974
857.00	72.385
857.17	82.121
857.34	64.693
857.51	83.297
857.68	77.088
857.85	93.898
858.02	78.973
858.19	67.339
858.36	86.173
858.53	83.298
858.70	73.246
858.87	100.556
859.04	80.995
859.21	83.621
859.38	90.208
859.55	100.243
859.72	67.341
859.89	96.793
860.05	62.255
860.22	88.684
860.39	70.522
860.56	70.707
860.73	84.487
860.90	71.005
861.07	87.900
861.24	77.574
861.41	76.190
861.58	82.824
861.75	85.919
861.92	63.895
862.09	82.532
862.26	82.742
862.43	90.634
862.59	87.963
862.76	77.282
862.93	95.946
863.10	87.351
863.27	71.386
863.44	81.618
863.61	72.273
863.78	104.478
863.95	92.162
864.12	83.489
864.29	90.274
864.45	68.262
864.62	91.361
864.79	93.317
864.96	68.734
865.13	86.475
865.30	89.762
865.47	84.401
865.64	82.783
865.81	98.898
865.97	76.978
866.14	66.815
866.31	58.920
866.48	74.242
866.65	65.104
866.82	73.861
866.99	111.873
867.16	75.131
867.33	87.765
867.49	64.303
867.66	56.867
867.83	70.044
868.00	62.945
868.17	95.690
868.34	82.143
868.51	57.246
868.67	70.853
868.84	75.402
869.01	84.332
869.18	58.537
869.35	75.055
869.52	59.250
869.69	103.354
869.85	83.704
870.02	80.340
870.19	61.483
870.36	75.397
870.53	70.396
870.70	93.830
870.86	77.461
871.03	96.984
871.20	84.653
871.37	99.469
871.54	77.174
871.71	70.388
871.87	94.837
872.04	104.290
872.21	66.446
872.38	83.863
872.55	96.203
872.72	65.991
872.88	93.521
873.05	50.959
873.22	86.815
873.39	76.123
873.56	72.210
873.72	85.577
873.89	88.372
874.06	96.134
874.23	87.435
874.40	73.025
874.56	94.387
874.73	79.854
874.90	64.439
875.07	70.524
875.24	67.542
875.40	71.685
875.57	73.182
875.74	91.220
875.91	89.160
876.08	63.656
876.24	69.628
876.41	86.802
876.58	67.064
876.75	80.441
876.92	65.402
877.08	82.031
877.25	76.804
877.42	69.919
877.59	76.147
877.75	69.043
877.92	53.992
878.09	80.046
878.26	85.542
878.42	76.330
878.59	69.912
878.76	70.553
878.93	84.389
879.09	75.328
879.26	71.256
879.43	64.719
879.60	71.078
879.76	69.929
879.93	55.198
880.10	62.326
880.27	51.282
880.43	57.074
880.60	53.605
880.77	53.692
880.94	46.816
881.10	42.467
881.27	49.747
881.44	28.672
881.61	42.879
881.77	39.079
881.94	37.060
882.11	34.749
882.28	32.309
882.44	39.534
882.61	43.399
882.78	43.229
882.94	44.902
883.11	42.367
883.28	44.236
883.45	42.873
883.61	40.742
883.78	42.601
883.95	48.074
884.11	43.721
884.28	42.381
>>>>>End Processed Spectral Data<<<<<
