SpectraSuite Data File
++++++++++++++++++++++++++++++++++++
Date: Mon Sep 23 03:41:29 EST 2019
User: sgrac
Dark Spectrum Present: Yes
Reference Spectrum Present: Yes
Number of Sampled Component Spectra: 1
Spectrometers: USB4E01596
Integration Time (usec): 100000 (USB4E01596)
Spectra Averaged: 3 (USB4E01596)
Boxcar Smoothing: 0 (USB4E01596)
Correct for Electrical Dark: No (USB4E01596)
Strobe/Lamp Enabled: Yes (USB4E01596)
Correct for Detector Non-linearity: No (USB4E01596)
Correct for Stray Light: No (USB4E01596)
Number of Pixels in Processed Spectrum: 3648
>>>>>Begin Processed Spectral Data<<<<<
178.44	1692.308
178.66	1692.308
178.87	1692.308
179.09	8000.000
179.30	-5025.000
179.52	-638.710
179.74	-400.000
179.95	681.818
180.17	-575.000
180.38	387.719
180.60	-2454.545
180.82	615.556
181.03	4633.333
181.25	-1691.667
181.46	-1200.000
181.68	1083.333
181.89	-661.364
182.11	-1712.500
182.33	-1431.250
182.54	570.833
182.76	4950.000
182.97	-446.809
183.19	1270.000
183.40	251.240
183.62	348.718
183.84	330.909
184.05	4042.857
184.27	459.091
184.48	454.545
184.70	1847.059
184.91	1433.333
185.13	2390.000
185.34	-17950.000
185.56	1084.615
185.78	358.333
185.99	827.778
186.21	330.682
186.42	-7000.000
186.64	1850.000
186.85	-4440.000
187.07	462.000
187.28	373.684
187.50	481.818
187.72	348.718
187.93	661.818
188.15	384.375
188.36	438.158
188.58	504.082
188.79	310.577
189.01	442.254
189.22	754.054
189.44	-842.424
189.65	317.797
189.87	-6450.000
190.09	471.429
190.30	773.810
190.52	516.667
190.73	706.522
190.95	-4016.667
191.16	365.476
191.38	366.216
191.59	433.824
191.81	438.710
192.02	1960.000
192.24	759.375
192.45	923.529
192.67	-1343.750
192.88	560.377
193.10	426.230
193.31	675.000
193.53	262.903
193.74	348.000
193.96	1650.000
194.18	896.154
194.39	2260.000
194.61	501.370
194.82	1350.000
195.04	284.146
195.25	-433.333
195.47	-383.333
195.68	3433.333
195.90	472.727
196.11	489.552
196.33	23200.000
196.54	641.463
196.76	1928.571
196.97	428.571
197.19	808.108
197.40	1700.000
197.62	230.275
197.83	896.774
198.05	594.545
198.26	751.724
198.48	440.845
198.69	480.000
198.91	1100.000
199.12	586.047
199.34	610.870
199.55	410.000
199.77	1700.000
199.98	826.471
200.20	431.579
200.41	506.452
200.63	329.204
200.84	2242.857
201.06	3033.333
201.27	736.585
201.49	447.887
201.70	-726.667
201.91	429.167
202.13	501.695
202.34	531.034
202.56	-1032.000
202.77	726.667
202.99	4633.333
203.20	-3100.000
203.42	2100.000
203.63	334.211
203.85	4683.333
204.06	512.000
204.28	247.475
204.49	481.481
204.71	405.085
204.92	857.692
205.14	0.000
205.35	930.000
205.56	-1145.000
205.78	6100.000
205.99	-1885.714
206.21	14650.000
206.42	697.727
206.64	877.419
206.85	896.296
207.07	-2711.111
207.28	493.103
207.50	673.913
207.71	796.774
207.93	356.627
208.14	-896.296
208.35	409.091
208.57	1236.000
208.78	-2844.444
209.00	312.766
209.21	-13800.000
209.43	-7166.667
209.64	-1573.333
209.86	262.887
210.07	377.907
210.28	418.310
210.50	934.483
210.71	478.431
210.93	206.618
211.14	376.404
211.36	1756.250
211.57	478.788
211.78	394.286
212.00	342.353
212.21	372.857
212.43	794.872
212.64	337.234
212.86	416.216
213.07	359.633
213.29	-527.778
213.50	297.826
213.71	356.322
213.93	326.829
214.14	1663.636
214.36	373.529
214.57	327.848
214.78	811.111
215.00	323.958
215.21	926.667
215.43	764.865
215.64	474.603
215.86	277.500
216.07	874.286
216.28	642.105
216.50	297.500
216.71	23200.000
216.93	521.212
217.14	1866.667
217.35	241.667
217.57	309.910
217.78	286.420
218.00	252.525
218.21	1291.304
218.42	636.170
218.64	337.500
218.85	456.000
219.07	1075.000
219.28	226.168
219.49	531.373
219.71	473.846
219.92	196.269
220.14	324.742
220.35	420.000
220.56	298.851
220.78	283.654
220.99	256.452
221.21	327.957
221.42	390.123
221.63	189.017
221.85	509.231
222.06	420.000
222.28	329.231
222.49	229.730
222.70	223.622
222.92	536.735
223.13	491.803
223.34	220.567
223.56	321.429
223.77	287.500
223.99	310.526
224.20	253.571
224.41	404.110
224.63	238.636
224.84	205.405
225.05	126.068
225.27	241.739
225.48	297.059
225.69	251.128
225.91	368.919
226.12	200.000
226.34	193.960
226.55	132.374
226.76	210.625
226.98	136.078
227.19	114.062
227.40	237.500
227.62	132.804
227.83	104.721
228.04	94.972
228.26	74.807
228.47	85.552
228.69	55.330
228.90	44.563
229.11	55.026
229.33	47.179
229.54	38.224
229.75	39.716
229.97	38.358
230.18	42.809
230.39	27.876
230.61	36.203
230.82	33.653
231.03	24.427
231.25	33.894
231.46	38.009
231.67	43.512
231.89	47.493
232.10	40.676
232.31	46.812
232.53	43.973
232.74	59.252
232.95	43.376
233.17	43.600
233.38	33.613
233.59	58.813
233.81	63.587
234.02	43.086
234.23	56.028
234.45	63.542
234.66	46.239
234.87	55.328
235.09	57.556
235.30	42.907
235.51	53.381
235.73	63.265
235.94	48.911
236.15	44.217
236.36	37.009
236.58	41.030
236.79	46.018
237.00	45.601
237.22	53.912
237.43	43.427
237.64	50.709
237.86	43.609
238.07	44.330
238.28	44.355
238.50	45.101
238.71	42.806
238.92	48.281
239.13	53.559
239.35	44.790
239.56	47.527
239.77	53.218
239.99	39.492
240.20	45.429
240.41	38.451
240.63	36.792
240.84	34.950
241.05	33.736
241.26	31.957
241.48	27.236
241.69	25.112
241.90	22.275
242.12	18.967
242.33	23.529
242.54	13.842
242.75	19.449
242.97	15.712
243.18	12.961
243.39	13.407
243.61	13.693
243.82	12.418
244.03	14.446
244.24	11.131
244.46	12.816
244.67	14.020
244.88	16.040
245.09	19.168
245.31	19.815
245.52	18.324
245.73	18.198
245.95	29.175
246.16	17.326
246.37	15.290
246.58	16.482
246.80	16.092
247.01	13.946
247.22	13.308
247.43	11.292
247.65	8.368
247.86	8.066
248.07	7.976
248.28	8.246
248.50	9.032
248.71	7.975
248.92	7.570
249.13	7.637
249.35	8.462
249.56	9.432
249.77	9.507
249.98	10.140
250.20	11.570
250.41	12.716
250.62	14.771
250.83	15.612
251.05	16.541
251.26	15.686
251.47	15.500
251.68	17.561
251.90	18.812
252.11	12.652
252.32	18.405
252.53	14.255
252.75	14.528
252.96	17.869
253.17	14.157
253.38	14.939
253.59	14.572
253.81	11.658
254.02	13.914
254.23	12.391
254.44	10.088
254.66	12.787
254.87	12.818
255.08	21.179
255.29	16.834
255.50	18.071
255.72	17.071
255.93	22.646
256.14	26.194
256.35	17.026
256.57	20.745
256.78	22.800
256.99	22.973
257.20	28.065
257.41	17.589
257.63	21.381
257.84	20.327
258.05	15.851
258.26	13.362
258.47	15.423
258.69	16.832
258.90	9.935
259.11	11.490
259.32	13.115
259.53	9.290
259.75	9.239
259.96	10.278
260.17	8.585
260.38	5.758
260.59	7.407
260.81	6.480
261.02	5.797
261.23	5.322
261.44	7.211
261.65	5.024
261.87	5.485
262.08	7.015
262.29	7.185
262.50	6.813
262.71	6.377
262.92	8.060
263.14	9.866
263.35	8.875
263.56	10.155
263.77	10.282
263.98	12.906
264.20	10.621
264.41	11.537
264.62	13.573
264.83	12.860
265.04	14.427
265.25	13.664
265.47	11.052
265.68	13.907
265.89	13.397
266.10	8.256
266.31	11.691
266.52	11.421
266.74	11.395
266.95	10.690
267.16	13.147
267.37	6.789
267.58	11.726
267.79	11.630
268.01	6.651
268.22	11.424
268.43	10.538
268.64	8.790
268.85	11.848
269.06	9.883
269.27	11.055
269.49	6.830
269.70	8.924
269.91	11.507
270.12	7.365
270.33	9.677
270.54	6.593
270.75	11.084
270.97	10.121
271.18	7.411
271.39	9.801
271.60	11.875
271.81	9.350
272.02	8.316
272.23	8.804
272.45	8.953
272.66	7.024
272.87	5.525
273.08	5.803
273.29	8.653
273.50	6.150
273.71	6.555
273.92	6.434
274.14	7.084
274.35	8.359
274.56	6.450
274.77	6.650
274.98	8.857
275.19	7.488
275.40	10.629
275.61	7.863
275.83	10.983
276.04	7.479
276.25	10.147
276.46	7.772
276.67	7.575
276.88	10.350
277.09	8.981
277.30	10.167
277.51	9.260
277.73	6.508
277.94	8.812
278.15	11.577
278.36	7.302
278.57	8.696
278.78	6.912
278.99	8.631
279.20	8.028
279.41	11.917
279.62	7.955
279.84	7.501
280.05	10.063
280.26	10.200
280.47	10.450
280.68	6.667
280.89	9.143
281.10	8.958
281.31	8.189
281.52	9.940
281.73	7.622
281.94	7.189
282.16	7.659
282.37	5.677
282.58	6.370
282.79	10.596
283.00	8.091
283.21	6.689
283.42	6.602
283.63	7.563
283.84	6.223
284.05	6.988
284.26	6.888
284.47	7.416
284.68	6.268
284.89	7.120
285.11	7.485
285.32	4.887
285.53	7.217
285.74	9.062
285.95	5.137
286.16	6.611
286.37	5.835
286.58	5.991
286.79	4.772
287.00	5.350
287.21	6.233
287.42	4.563
287.63	6.345
287.84	6.173
288.05	4.542
288.26	4.937
288.48	6.426
288.69	4.951
288.90	6.717
289.11	7.341
289.32	8.194
289.53	7.573
289.74	6.345
289.95	8.184
290.16	6.879
290.37	4.643
290.58	6.177
290.79	5.581
291.00	5.223
291.21	5.620
291.42	5.264
291.63	7.123
291.84	6.327
292.05	4.667
292.26	5.781
292.47	6.426
292.68	5.162
292.89	7.120
293.10	7.378
293.31	6.614
293.52	5.500
293.73	7.447
293.94	5.750
294.15	6.788
294.36	8.523
294.57	6.352
294.79	7.169
295.00	5.734
295.21	7.188
295.42	6.216
295.63	8.444
295.84	5.157
296.05	4.149
296.26	4.657
296.47	5.419
296.68	7.426
296.89	9.128
297.10	6.002
297.31	6.357
297.52	3.698
297.73	6.873
297.94	5.464
298.15	4.899
298.36	4.843
298.57	4.722
298.78	5.423
298.99	5.420
299.20	5.684
299.41	5.843
299.62	7.003
299.83	5.204
300.04	5.894
300.25	6.896
300.46	7.711
300.67	7.247
300.88	6.490
301.09	6.771
301.30	6.413
301.50	8.074
301.71	8.858
301.92	7.457
302.13	6.890
302.34	5.837
302.55	5.655
302.76	6.129
302.97	6.490
303.18	6.708
303.39	5.914
303.60	5.664
303.81	6.985
304.02	5.670
304.23	8.542
304.44	6.388
304.65	3.769
304.86	8.385
305.07	6.254
305.28	6.007
305.49	7.515
305.70	7.601
305.91	7.103
306.12	6.850
306.33	5.909
306.54	6.027
306.75	7.704
306.96	9.722
307.17	6.633
307.38	7.583
307.58	6.627
307.79	6.808
308.00	5.852
308.21	7.044
308.42	6.510
308.63	6.315
308.84	6.887
309.05	5.603
309.26	3.908
309.47	7.274
309.68	6.740
309.89	7.146
310.10	6.600
310.31	5.860
310.52	4.556
310.73	7.257
310.94	4.720
311.14	6.590
311.35	5.402
311.56	5.641
311.77	4.908
311.98	4.823
312.19	4.818
312.40	3.783
312.61	4.317
312.82	6.513
313.03	4.928
313.24	7.007
313.45	5.770
313.66	5.220
313.86	6.702
314.07	5.458
314.28	6.688
314.49	5.579
314.70	8.294
314.91	7.874
315.12	6.584
315.33	7.285
315.54	5.248
315.75	6.379
315.96	5.259
316.16	6.804
316.37	5.036
316.58	5.240
316.79	7.080
317.00	5.989
317.21	6.694
317.42	6.181
317.63	5.758
317.84	6.461
318.05	7.770
318.25	8.001
318.46	6.525
318.67	5.955
318.88	6.876
319.09	7.761
319.30	5.552
319.51	7.699
319.72	7.753
319.93	5.950
320.13	6.124
320.34	7.053
320.55	9.375
320.76	6.427
320.97	6.155
321.18	8.752
321.39	4.882
321.60	7.600
321.80	7.649
322.01	5.619
322.22	6.239
322.43	6.411
322.64	6.856
322.85	7.827
323.06	9.174
323.27	6.459
323.47	8.410
323.68	7.707
323.89	7.580
324.10	8.517
324.31	6.389
324.52	7.267
324.73	8.353
324.93	6.686
325.14	5.824
325.35	7.201
325.56	5.198
325.77	6.548
325.98	7.142
326.19	6.663
326.39	5.613
326.60	6.384
326.81	5.469
327.02	4.957
327.23	5.925
327.44	7.287
327.64	5.521
327.85	3.890
328.06	6.504
328.27	8.912
328.48	6.381
328.69	5.426
328.90	6.366
329.10	6.942
329.31	6.366
329.52	6.346
329.73	9.221
329.94	5.867
330.15	7.611
330.35	9.613
330.56	7.131
330.77	6.548
330.98	5.641
331.19	6.085
331.39	8.139
331.60	6.834
331.81	6.085
332.02	6.735
332.23	6.056
332.44	7.140
332.64	7.228
332.85	5.957
333.06	7.666
333.27	5.931
333.48	7.666
333.68	5.283
333.89	6.662
334.10	6.291
334.31	6.390
334.52	7.538
334.72	5.894
334.93	5.082
335.14	5.816
335.35	6.097
335.56	6.168
335.76	5.979
335.97	6.273
336.18	7.283
336.39	8.489
336.60	5.629
336.80	5.543
337.01	5.194
337.22	6.291
337.43	7.481
337.64	8.963
337.84	7.001
338.05	5.420
338.26	9.555
338.47	8.977
338.68	6.389
338.88	7.362
339.09	6.033
339.30	7.238
339.51	7.056
339.71	8.004
339.92	6.139
340.13	7.123
340.34	8.302
340.55	7.775
340.75	9.430
340.96	6.481
341.17	8.570
341.38	7.653
341.58	7.395
341.79	7.602
342.00	6.701
342.21	7.149
342.41	6.780
342.62	7.305
342.83	7.616
343.04	6.173
343.24	9.011
343.45	8.544
343.66	6.354
343.87	8.075
344.07	6.577
344.28	8.931
344.49	9.008
344.70	9.792
344.90	7.716
345.11	6.397
345.32	8.554
345.53	8.596
345.73	8.303
345.94	10.299
346.15	9.870
346.36	8.536
346.56	9.446
346.77	11.106
346.98	9.223
347.19	11.051
347.39	9.291
347.60	9.051
347.81	8.799
348.02	10.354
348.22	7.722
348.43	10.561
348.64	8.746
348.84	9.800
349.05	11.392
349.26	12.520
349.47	9.823
349.67	11.047
349.88	11.438
350.09	12.255
350.30	12.560
350.50	11.442
350.71	11.686
350.92	12.120
351.12	12.662
351.33	10.816
351.54	11.932
351.74	12.676
351.95	10.699
352.16	13.311
352.37	11.694
352.57	11.625
352.78	10.732
352.99	12.250
353.19	12.480
353.40	12.435
353.61	13.631
353.82	12.938
354.02	13.394
354.23	14.245
354.44	16.885
354.64	12.974
354.85	13.709
355.06	13.060
355.26	11.864
355.47	12.187
355.68	12.361
355.88	15.866
356.09	15.271
356.30	13.509
356.51	14.384
356.71	13.579
356.92	11.081
357.13	14.744
357.33	14.892
357.54	13.803
357.75	11.396
357.95	14.321
358.16	11.842
358.37	16.008
358.57	12.567
358.78	16.854
358.99	13.343
359.19	13.018
359.40	14.168
359.61	13.864
359.81	15.317
360.02	17.301
360.23	12.455
360.43	13.133
360.64	12.509
360.85	13.400
361.05	12.525
361.26	14.603
361.47	13.418
361.67	15.116
361.88	11.303
362.09	15.100
362.29	12.495
362.50	13.075
362.70	12.041
362.91	14.821
363.12	12.026
363.32	13.914
363.53	13.796
363.74	14.171
363.94	11.767
364.15	15.173
364.36	15.261
364.56	12.874
364.77	14.123
364.98	15.212
365.18	13.197
365.39	15.509
365.59	12.687
365.80	13.805
366.01	14.379
366.21	13.219
366.42	11.662
366.63	15.525
366.83	11.788
367.04	11.677
367.24	14.706
367.45	12.473
367.66	12.035
367.86	15.017
368.07	12.489
368.28	12.928
368.48	12.566
368.69	11.534
368.89	12.765
369.10	13.327
369.31	12.473
369.51	12.892
369.72	14.508
369.92	15.226
370.13	10.485
370.34	12.980
370.54	10.073
370.75	12.752
370.95	10.243
371.16	13.526
371.37	12.417
371.57	12.817
371.78	12.195
371.98	13.665
372.19	12.697
372.40	14.468
372.60	13.496
372.81	13.619
373.01	10.765
373.22	11.183
373.43	12.769
373.63	12.351
373.84	14.034
374.04	11.947
374.25	11.902
374.46	13.699
374.66	12.167
374.87	13.671
375.07	10.153
375.28	11.010
375.48	11.541
375.69	12.692
375.90	9.574
376.10	11.082
376.31	11.886
376.51	10.579
376.72	11.080
376.92	10.720
377.13	12.514
377.34	12.271
377.54	11.621
377.75	12.533
377.95	11.320
378.16	12.730
378.36	11.899
378.57	13.438
378.77	11.501
378.98	12.939
379.19	11.258
379.39	10.869
379.60	11.534
379.80	10.826
380.01	11.280
380.21	11.127
380.42	12.972
380.62	11.950
380.83	11.049
381.04	11.271
381.24	11.613
381.45	11.334
381.65	9.480
381.86	11.648
382.06	11.383
382.27	9.577
382.47	10.016
382.68	12.340
382.88	9.261
383.09	10.055
383.29	10.594
383.50	12.516
383.71	10.196
383.91	10.842
384.12	10.712
384.32	10.965
384.53	9.932
384.73	9.456
384.94	9.115
385.14	10.569
385.35	9.520
385.55	11.771
385.76	9.439
385.96	10.061
386.17	10.883
386.37	11.018
386.58	10.887
386.78	11.081
386.99	9.154
387.19	11.389
387.40	9.980
387.60	12.168
387.81	9.780
388.01	10.774
388.22	10.615
388.42	11.878
388.63	11.520
388.83	11.516
389.04	8.403
389.24	10.522
389.45	10.272
389.65	10.297
389.86	10.018
390.06	9.371
390.27	9.439
390.47	9.794
390.68	10.010
390.88	11.414
391.09	11.469
391.29	10.935
391.50	9.794
391.70	9.834
391.91	10.295
392.11	9.794
392.32	9.368
392.52	10.938
392.73	9.821
392.93	10.624
393.14	9.949
393.34	9.511
393.55	10.494
393.75	9.861
393.95	10.321
394.16	10.772
394.36	10.748
394.57	11.380
394.77	9.774
394.98	9.984
395.18	10.063
395.39	10.028
395.59	9.909
395.80	10.651
396.00	10.175
396.21	11.050
396.41	8.696
396.61	11.390
396.82	10.297
397.02	11.562
397.23	10.346
397.43	9.595
397.64	8.496
397.84	11.072
398.05	7.883
398.25	10.335
398.45	9.284
398.66	9.618
398.86	9.746
399.07	10.678
399.27	9.041
399.48	10.408
399.68	8.922
399.89	9.932
400.09	9.770
400.29	8.702
400.50	9.515
400.70	10.007
400.91	9.017
401.11	9.166
401.32	9.564
401.52	7.939
401.72	9.007
401.93	11.101
402.13	9.332
402.34	9.180
402.54	8.273
402.75	11.211
402.95	7.751
403.15	10.357
403.36	8.475
403.56	10.584
403.77	8.666
403.97	8.571
404.17	8.638
404.38	10.122
404.58	8.780
404.79	9.785
404.99	9.443
405.19	9.293
405.40	8.479
405.60	9.327
405.81	8.792
406.01	8.939
406.21	8.862
406.42	9.715
406.62	8.653
406.83	9.790
407.03	9.764
407.23	8.556
407.44	8.321
407.64	10.075
407.85	8.923
408.05	9.092
408.25	8.650
408.46	9.800
408.66	9.503
408.87	8.539
409.07	8.661
409.27	7.869
409.48	8.472
409.68	9.324
409.88	6.941
410.09	8.924
410.29	9.164
410.50	10.414
410.70	7.671
410.90	7.978
411.11	8.215
411.31	8.286
411.51	8.862
411.72	10.086
411.92	7.721
412.12	8.890
412.33	7.774
412.53	7.615
412.74	6.978
412.94	8.521
413.14	8.827
413.35	9.115
413.55	9.207
413.75	9.913
413.96	7.710
414.16	8.674
414.36	7.727
414.57	8.525
414.77	8.100
414.97	8.784
415.18	8.307
415.38	8.828
415.58	8.132
415.79	7.822
415.99	7.272
416.19	9.336
416.40	8.099
416.60	7.824
416.80	8.169
417.01	8.921
417.21	6.926
417.41	9.038
417.62	8.035
417.82	9.032
418.02	7.281
418.23	8.427
418.43	7.856
418.63	8.790
418.84	8.982
419.04	8.408
419.24	8.667
419.45	8.701
419.65	8.978
419.85	9.159
420.06	8.973
420.26	9.247
420.46	8.704
420.67	8.879
420.87	9.087
421.07	9.101
421.28	8.623
421.48	9.745
421.68	9.064
421.88	9.321
422.09	9.101
422.29	9.120
422.49	8.452
422.70	8.560
422.90	8.889
423.10	9.173
423.31	9.084
423.51	9.022
423.71	8.585
423.91	9.437
424.12	9.457
424.32	9.221
424.52	8.519
424.73	8.705
424.93	8.763
425.13	8.686
425.33	8.277
425.54	8.774
425.74	8.623
425.94	9.189
426.15	9.025
426.35	8.919
426.55	9.002
426.75	9.011
426.96	8.771
427.16	8.497
427.36	8.493
427.57	9.169
427.77	8.630
427.97	8.697
428.17	9.040
428.38	8.894
428.58	7.636
428.78	8.952
428.98	7.459
429.19	8.110
429.39	7.721
429.59	8.445
429.79	7.203
430.00	7.280
430.20	7.118
430.40	7.980
430.60	7.966
430.81	7.883
431.01	7.381
431.21	8.479
431.41	6.495
431.62	7.847
431.82	7.832
432.02	8.257
432.22	7.227
432.43	8.196
432.63	7.079
432.83	7.918
433.03	7.322
433.24	7.529
433.44	7.118
433.64	8.340
433.84	7.693
434.05	8.362
434.25	7.912
434.45	8.673
434.65	8.671
434.85	8.644
435.06	8.330
435.26	8.033
435.46	7.903
435.66	8.285
435.87	8.356
436.07	8.247
436.27	7.927
436.47	7.516
436.67	7.192
436.88	8.006
437.08	7.540
437.28	7.592
437.48	7.167
437.69	8.646
437.89	7.942
438.09	8.535
438.29	7.638
438.49	8.584
438.70	7.747
438.90	7.719
439.10	7.412
439.30	7.668
439.50	7.322
439.71	8.169
439.91	7.893
440.11	8.489
440.31	7.894
440.51	7.900
440.72	7.830
440.92	7.817
441.12	8.726
441.32	8.596
441.52	8.426
441.72	8.087
441.93	8.473
442.13	8.688
442.33	7.822
442.53	8.642
442.73	7.505
442.94	7.956
443.14	8.146
443.34	8.594
443.54	7.544
443.74	8.597
443.94	7.839
444.15	7.941
444.35	7.578
444.55	8.295
444.75	7.402
444.95	8.060
445.15	7.452
445.36	7.559
445.56	7.191
445.76	7.735
445.96	7.421
446.16	7.817
446.36	7.216
446.57	8.391
446.77	7.252
446.97	8.006
447.17	8.065
447.37	8.181
447.57	8.063
447.77	8.108
447.98	8.072
448.18	8.226
448.38	7.406
448.58	8.237
448.78	8.257
448.98	8.457
449.18	7.531
449.39	8.056
449.59	7.546
449.79	7.932
449.99	7.339
450.19	7.928
450.39	7.252
450.59	7.732
450.79	7.212
451.00	7.988
451.20	8.426
451.40	7.797
451.60	6.930
451.80	7.659
452.00	7.126
452.20	7.630
452.40	7.495
452.61	7.374
452.81	7.227
453.01	7.436
453.21	7.045
453.41	7.670
453.61	7.333
453.81	7.174
454.01	7.335
454.21	7.871
454.42	7.647
454.62	7.486
454.82	7.348
455.02	7.233
455.22	6.781
455.42	7.317
455.62	6.509
455.82	7.240
456.02	7.004
456.23	7.672
456.43	6.728
456.63	7.004
456.83	6.528
457.03	7.743
457.23	6.701
457.43	7.539
457.63	6.961
457.83	7.325
458.03	6.607
458.23	6.861
458.43	6.591
458.64	7.407
458.84	7.448
459.04	7.285
459.24	7.351
459.44	7.258
459.64	7.272
459.84	7.204
460.04	7.155
460.24	7.543
460.44	7.368
460.64	7.825
460.84	7.372
461.04	7.780
461.24	7.833
461.45	8.065
461.65	7.863
461.85	8.126
462.05	7.515
462.25	7.751
462.45	8.148
462.65	7.729
462.85	6.503
463.05	7.693
463.25	6.230
463.45	7.468
463.65	7.103
463.85	7.645
464.05	6.727
464.25	7.150
464.45	7.268
464.65	7.152
464.85	6.586
465.05	7.185
465.26	7.415
465.46	7.050
465.66	7.226
465.86	6.987
466.06	6.829
466.26	7.147
466.46	5.794
466.66	7.467
466.86	6.617
467.06	7.008
467.26	7.447
467.46	7.010
467.66	6.876
467.86	6.925
468.06	7.000
468.26	6.980
468.46	7.200
468.66	7.225
468.86	6.386
469.06	7.486
469.26	5.994
469.46	7.261
469.66	6.286
469.86	6.934
470.06	6.581
470.26	7.444
470.46	6.463
470.66	7.382
470.86	6.205
471.06	6.652
471.26	5.985
471.46	6.833
471.66	6.537
471.86	7.066
472.06	6.186
472.26	7.294
472.46	7.077
472.66	7.360
472.86	6.507
473.06	6.890
473.26	6.914
473.46	7.131
473.66	6.399
473.86	6.899
474.06	6.537
474.26	6.907
474.46	6.050
474.66	7.065
474.86	6.622
475.06	7.168
475.26	6.092
475.46	7.350
475.66	6.300
475.86	6.727
476.06	7.179
476.26	7.264
476.46	6.266
476.66	6.636
476.86	5.842
477.06	6.834
477.26	5.905
477.46	6.429
477.65	6.308
477.85	6.722
478.05	5.949
478.25	7.685
478.45	6.446
478.65	6.792
478.85	6.130
479.05	7.071
479.25	6.797
479.45	7.143
479.65	6.616
479.85	6.640
480.05	6.161
480.25	7.238
480.45	7.168
480.65	7.103
480.85	6.860
481.05	7.412
481.25	7.288
481.44	7.407
481.64	6.246
481.84	7.243
482.04	6.958
482.24	7.384
482.44	6.718
482.64	6.921
482.84	7.120
483.04	7.201
483.24	6.949
483.44	7.018
483.64	7.114
483.84	7.152
484.04	7.176
484.23	7.342
484.43	7.344
484.63	7.477
484.83	7.662
485.03	7.914
485.23	7.839
485.43	7.888
485.63	7.772
485.83	7.731
486.03	7.721
486.23	7.727
486.42	7.691
486.62	7.678
486.82	7.262
487.02	7.423
487.22	7.283
487.42	7.345
487.62	7.231
487.82	7.328
488.02	7.142
488.22	7.306
488.41	7.302
488.61	7.447
488.81	7.262
489.01	7.388
489.21	7.505
489.41	7.677
489.61	7.457
489.81	7.541
490.01	7.583
490.20	7.605
490.40	7.460
490.60	7.503
490.80	7.128
491.00	7.613
491.20	7.217
491.40	6.989
491.60	7.128
491.79	7.123
491.99	6.888
492.19	7.269
492.39	7.227
492.59	7.277
492.79	7.316
492.99	7.430
493.19	7.443
493.38	7.458
493.58	7.242
493.78	7.566
493.98	7.476
494.18	7.397
494.38	7.350
494.58	7.638
494.77	6.691
494.97	7.032
495.17	6.343
495.37	6.931
495.57	7.002
495.77	7.028
495.96	6.772
496.16	6.817
496.36	6.387
496.56	7.013
496.76	6.569
496.96	6.500
497.15	6.843
497.35	6.887
497.55	6.504
497.75	7.066
497.95	6.709
498.15	7.218
498.34	6.921
498.54	6.772
498.74	7.056
498.94	7.040
499.14	6.542
499.34	7.191
499.53	6.747
499.73	6.961
499.93	6.568
500.13	7.252
500.33	6.217
500.52	6.592
500.72	6.734
500.92	6.512
501.12	6.197
501.32	6.252
501.52	6.665
501.71	6.506
501.91	5.853
502.11	6.643
502.31	5.841
502.51	6.993
502.70	6.068
502.90	6.944
503.10	5.979
503.30	7.134
503.50	6.344
503.69	6.387
503.89	6.108
504.09	6.853
504.29	6.314
504.48	6.710
504.68	6.574
504.88	6.922
505.08	6.158
505.28	6.720
505.47	6.470
505.67	6.955
505.87	6.058
506.07	6.677
506.27	6.348
506.46	6.814
506.66	6.104
506.86	6.637
507.06	6.486
507.25	6.840
507.45	6.561
507.65	7.019
507.85	5.810
508.04	7.076
508.24	6.412
508.44	6.573
508.64	6.404
508.83	6.615
509.03	6.239
509.23	6.737
509.43	6.172
509.63	6.796
509.82	6.220
510.02	6.648
510.22	6.351
510.42	6.808
510.61	6.436
510.81	6.687
511.01	6.909
511.21	6.945
511.40	6.267
511.60	6.871
511.80	6.621
511.99	6.903
512.19	6.502
512.39	6.897
512.59	6.549
512.78	6.901
512.98	6.903
513.18	6.715
513.38	6.671
513.57	6.825
513.77	6.740
513.97	6.816
514.17	6.671
514.36	6.690
514.56	6.719
514.76	7.128
514.95	5.934
515.15	6.386
515.35	6.047
515.55	6.548
515.74	6.769
515.94	6.888
516.14	6.041
516.33	6.694
516.53	6.361
516.73	6.399
516.93	6.212
517.12	6.847
517.32	5.836
517.52	6.967
517.71	5.957
517.91	6.524
518.11	6.612
518.30	6.399
518.50	6.226
518.70	6.486
518.90	6.603
519.09	6.761
519.29	6.891
519.49	6.947
519.68	6.481
519.88	7.149
520.08	6.691
520.27	6.856
520.47	7.044
520.67	6.776
520.86	7.029
521.06	7.100
521.26	6.466
521.45	6.992
521.65	6.669
521.85	6.783
522.04	6.081
522.24	6.540
522.44	6.479
522.63	6.543
522.83	6.275
523.03	6.525
523.22	6.602
523.42	6.919
523.62	6.503
523.81	6.607
524.01	6.891
524.21	6.183
524.40	6.254
524.60	6.779
524.80	6.101
524.99	6.489
525.19	6.272
525.39	6.727
525.58	6.586
525.78	6.703
525.98	6.552
526.17	6.941
526.37	6.455
526.57	6.945
526.76	7.010
526.96	7.183
527.15	6.695
527.35	6.992
527.55	6.621
527.74	6.971
527.94	6.930
528.14	6.753
528.33	6.626
528.53	6.805
528.72	6.798
528.92	6.872
529.12	7.048
529.31	6.970
529.51	7.024
529.71	7.065
529.90	7.168
530.10	7.080
530.29	7.237
530.49	7.334
530.69	7.356
530.88	7.430
531.08	7.314
531.28	7.183
531.47	7.102
531.67	7.402
531.86	6.937
532.06	6.986
532.26	6.707
532.45	7.054
532.65	6.849
532.84	6.972
533.04	6.664
533.24	6.960
533.43	6.769
533.63	6.987
533.82	7.090
534.02	7.320
534.22	6.989
534.41	7.074
534.61	7.019
534.80	7.070
535.00	7.027
535.19	7.228
535.39	7.103
535.59	7.113
535.78	6.907
535.98	6.969
536.17	6.641
536.37	6.774
536.57	6.859
536.76	6.952
536.96	6.772
537.15	6.992
537.35	6.362
537.54	6.924
537.74	6.933
537.93	7.023
538.13	6.909
538.33	6.993
538.52	6.835
538.72	7.070
538.91	7.090
539.11	6.964
539.30	6.829
539.50	7.047
539.70	6.390
539.89	7.112
540.09	6.763
540.28	6.865
540.48	6.219
540.67	6.968
540.87	6.834
541.06	6.949
541.26	6.883
541.45	7.049
541.65	7.026
541.85	7.210
542.04	6.829
542.24	7.133
542.43	7.023
542.63	7.341
542.82	7.265
543.02	7.493
543.21	7.374
543.41	7.299
543.60	7.239
543.80	7.421
543.99	7.215
544.19	7.279
544.38	7.001
544.58	7.290
544.77	6.964
544.97	7.522
545.16	6.869
545.36	7.411
545.56	7.060
545.75	7.396
545.95	7.319
546.14	7.244
546.34	6.838
546.53	7.231
546.73	7.037
546.92	7.051
547.12	7.096
547.31	7.109
547.51	7.052
547.70	7.277
547.90	7.088
548.09	7.570
548.29	7.204
548.48	7.510
548.68	6.982
548.87	7.480
549.07	7.087
549.26	6.762
549.46	7.070
549.65	7.109
549.84	6.601
550.04	6.969
550.23	6.406
550.43	6.419
550.62	7.022
550.82	7.210
551.01	6.714
551.21	6.901
551.40	6.196
551.60	7.195
551.79	6.552
551.99	6.749
552.18	6.363
552.38	6.699
552.57	6.720
552.77	6.985
552.96	7.065
553.16	7.356
553.35	7.103
553.54	7.337
553.74	7.526
553.93	7.856
554.13	7.395
554.32	7.834
554.52	7.040
554.71	7.785
554.91	6.505
555.10	7.552
555.29	6.637
555.49	7.586
555.68	6.918
555.88	7.774
556.07	6.710
556.27	7.337
556.46	7.005
556.66	7.615
556.85	7.636
557.04	8.015
557.24	6.654
557.43	8.268
557.63	7.248
557.82	7.031
558.02	6.956
558.21	8.261
558.40	7.173
558.60	8.272
558.79	7.391
558.99	8.017
559.18	7.531
559.38	7.363
559.57	7.284
559.76	8.155
559.96	7.869
560.15	8.104
560.35	7.602
560.54	7.428
560.73	7.263
560.93	7.441
561.12	7.258
561.32	7.882
561.51	7.842
561.70	8.117
561.90	7.461
562.09	8.216
562.29	7.867
562.48	8.574
562.67	8.174
562.87	8.702
563.06	8.126
563.26	8.637
563.45	8.409
563.64	8.894
563.84	7.912
564.03	8.165
564.23	7.790
564.42	9.359
564.61	8.140
564.81	8.767
565.00	8.741
565.20	8.575
565.39	8.960
565.58	9.130
565.78	8.318
565.97	8.910
566.16	9.680
566.36	9.676
566.55	9.215
566.74	9.380
566.94	9.601
567.13	9.761
567.33	9.443
567.52	10.077
567.71	9.829
567.91	9.702
568.10	9.563
568.29	10.223
568.49	9.474
568.68	10.169
568.87	9.436
569.07	10.005
569.26	9.692
569.45	10.253
569.65	10.301
569.84	9.869
570.04	9.759
570.23	9.980
570.42	9.108
570.62	9.856
570.81	10.113
571.00	10.520
571.20	10.307
571.39	10.623
571.58	10.102
571.78	10.089
571.97	10.136
572.16	10.307
572.36	10.434
572.55	10.738
572.74	10.707
572.94	10.283
573.13	10.591
573.32	11.071
573.51	10.549
573.71	10.723
573.90	10.211
574.09	10.815
574.29	10.755
574.48	10.874
574.67	10.426
574.87	11.111
575.06	10.611
575.25	10.816
575.45	10.626
575.64	10.648
575.83	10.502
576.03	11.345
576.22	10.732
576.41	10.680
576.60	10.220
576.80	10.883
576.99	11.009
577.18	11.283
577.38	10.597
577.57	10.744
577.76	11.081
577.95	10.778
578.15	10.593
578.34	10.956
578.53	9.848
578.73	11.311
578.92	9.986
579.11	11.331
579.30	11.316
579.50	10.856
579.69	11.049
579.88	10.647
580.08	10.317
580.27	10.101
580.46	10.554
580.65	10.666
580.85	10.657
581.04	10.709
581.23	9.714
581.42	10.797
581.62	10.445
581.81	10.360
582.00	9.951
582.19	10.557
582.39	10.525
582.58	10.814
582.77	10.352
582.96	10.442
583.16	9.951
583.35	10.628
583.54	10.949
583.73	10.992
583.93	10.324
584.12	10.467
584.31	9.275
584.50	10.109
584.70	10.433
584.89	10.105
585.08	10.232
585.27	11.335
585.47	10.073
585.66	10.740
585.85	9.640
586.04	9.884
586.24	10.799
586.43	10.338
586.62	10.719
586.81	9.898
587.00	10.284
587.20	10.208
587.39	9.494
587.58	11.065
587.77	9.948
587.97	10.199
588.16	10.687
588.35	11.532
588.54	9.877
588.73	10.319
588.93	10.140
589.12	10.359
589.31	10.114
589.50	10.568
589.69	10.674
589.89	10.562
590.08	10.161
590.27	9.816
590.46	10.177
590.65	10.547
590.85	9.612
591.04	10.643
591.23	10.085
591.42	10.292
591.61	10.222
591.81	10.674
592.00	10.348
592.19	10.611
592.38	9.819
592.57	11.278
592.77	10.623
592.96	10.121
593.15	11.480
593.34	10.606
593.53	10.894
593.72	10.961
593.92	9.417
594.11	11.198
594.30	9.738
594.49	11.233
594.68	10.280
594.87	10.535
595.07	10.103
595.26	10.878
595.45	9.956
595.64	10.733
595.83	9.945
596.02	10.974
596.22	10.275
596.41	10.613
596.60	10.011
596.79	11.362
596.98	10.843
597.17	11.613
597.37	10.851
597.56	11.678
597.75	10.480
597.94	11.420
598.13	11.646
598.32	11.096
598.51	10.848
598.71	12.264
598.90	11.235
599.09	11.816
599.28	11.129
599.47	11.720
599.66	11.292
599.85	11.535
600.05	10.727
600.24	12.292
600.43	11.211
600.62	11.614
600.81	10.744
601.00	12.120
601.19	10.526
601.38	11.587
601.58	10.963
601.77	11.457
601.96	10.601
602.15	11.946
602.34	11.640
602.53	11.673
602.72	10.657
602.91	12.183
603.10	10.886
603.30	11.610
603.49	10.880
603.68	11.970
603.87	10.839
604.06	11.880
604.25	11.929
604.44	11.734
604.63	11.666
604.82	11.870
605.01	11.733
605.21	12.016
605.40	11.485
605.59	12.164
605.78	11.584
605.97	11.832
606.16	11.676
606.35	11.840
606.54	12.219
606.73	12.049
606.92	11.547
607.11	11.931
607.30	11.484
607.50	11.727
607.69	11.938
607.88	11.705
608.07	10.559
608.26	11.053
608.45	11.336
608.64	12.337
608.83	10.486
609.02	11.735
609.21	11.023
609.40	10.865
609.59	10.801
609.78	11.228
609.97	11.036
610.16	11.272
610.35	11.609
610.55	10.899
610.74	10.923
610.93	11.125
611.12	10.869
611.31	10.610
611.50	11.197
611.69	10.497
611.88	11.067
612.07	11.420
612.26	10.133
612.45	10.951
612.64	10.777
612.83	10.655
613.02	9.812
613.21	10.050
613.40	9.592
613.59	10.772
613.78	8.510
613.97	10.326
614.16	10.110
614.35	9.690
614.54	8.816
614.73	10.021
614.92	9.714
615.11	10.284
615.30	9.890
615.49	9.041
615.68	9.605
615.87	9.518
616.07	9.049
616.26	9.426
616.45	9.212
616.64	9.967
616.83	9.030
617.02	9.679
617.21	8.873
617.40	8.495
617.59	9.630
617.78	9.924
617.97	8.653
618.16	8.143
618.35	7.910
618.54	9.398
618.73	8.952
618.92	9.379
619.11	7.941
619.30	9.171
619.49	7.723
619.68	9.207
619.86	9.315
620.05	9.317
620.24	8.206
620.43	8.989
620.62	7.626
620.81	9.041
621.00	8.953
621.19	9.688
621.38	8.862
621.57	9.308
621.76	9.005
621.95	8.840
622.14	9.343
622.33	9.445
622.52	8.309
622.71	8.713
622.90	7.744
623.09	9.006
623.28	8.599
623.47	8.745
623.66	8.765
623.85	8.385
624.04	7.708
624.23	8.439
624.42	9.232
624.61	8.332
624.80	7.835
624.99	8.760
625.18	7.141
625.36	7.999
625.55	9.412
625.74	8.405
625.93	7.176
626.12	8.770
626.31	8.555
626.50	9.015
626.69	8.892
626.88	9.420
627.07	9.482
627.26	8.801
627.45	8.169
627.64	8.778
627.83	8.362
628.02	9.006
628.20	8.622
628.39	9.020
628.58	8.700
628.77	8.952
628.96	8.097
629.15	8.574
629.34	8.721
629.53	8.239
629.72	7.194
629.91	9.560
630.10	7.659
630.29	8.451
630.47	7.522
630.66	8.061
630.85	7.161
631.04	8.445
631.23	8.118
631.42	8.016
631.61	7.008
631.80	8.632
631.99	6.853
632.18	7.147
632.36	6.950
632.55	8.638
632.74	7.185
632.93	7.517
633.12	7.562
633.31	7.962
633.50	7.248
633.69	8.053
633.88	7.123
634.06	7.631
634.25	7.800
634.44	7.386
634.63	8.114
634.82	9.263
635.01	7.114
635.20	8.018
635.39	6.420
635.57	7.923
635.76	7.600
635.95	7.922
636.14	6.189
636.33	7.770
636.52	7.790
636.71	7.961
636.89	7.133
637.08	7.558
637.27	6.378
637.46	7.850
637.65	7.388
637.84	7.572
638.03	7.220
638.21	8.457
638.40	7.450
638.59	7.080
638.78	7.337
638.97	8.197
639.16	9.057
639.34	7.624
639.53	6.809
639.72	7.962
639.91	7.571
640.10	7.211
640.29	8.273
640.47	8.371
640.66	8.070
640.85	8.959
641.04	6.181
641.23	7.408
641.42	8.332
641.60	7.034
641.79	7.441
641.98	8.106
642.17	7.414
642.36	8.344
642.54	7.485
642.73	7.906
642.92	6.729
643.11	7.332
643.30	7.463
643.49	8.031
643.67	5.717
643.86	8.544
644.05	6.747
644.24	7.668
644.43	6.737
644.61	7.978
644.80	7.969
644.99	7.187
645.18	8.540
645.37	7.780
645.55	7.250
645.74	7.939
645.93	7.216
646.12	7.172
646.31	7.505
646.49	7.157
646.68	7.814
646.87	7.880
647.06	7.226
647.24	7.627
647.43	5.566
647.62	8.431
647.81	6.089
648.00	8.425
648.18	6.616
648.37	7.545
648.56	7.462
648.75	7.526
648.93	7.210
649.12	7.772
649.31	7.455
649.50	6.819
649.68	6.910
649.87	7.851
650.06	6.372
650.25	8.116
650.43	7.463
650.62	6.681
650.81	6.897
651.00	7.217
651.18	6.292
651.37	8.583
651.56	6.187
651.75	8.205
651.93	6.707
652.12	6.852
652.31	6.557
652.50	7.322
652.68	6.706
652.87	8.541
653.06	7.687
653.25	8.021
653.43	7.141
653.62	8.128
653.81	6.935
654.00	8.349
654.18	6.570
654.37	7.973
654.56	7.222
654.74	5.034
654.93	7.042
655.12	6.121
655.31	7.081
655.49	7.191
655.68	6.130
655.87	5.974
656.05	5.965
656.24	6.912
656.43	6.321
656.62	7.379
656.80	6.000
656.99	6.390
657.18	5.569
657.36	6.353
657.55	6.904
657.74	7.049
657.93	7.414
658.11	8.536
658.30	7.305
658.49	6.131
658.67	6.759
658.86	6.281
659.05	6.389
659.23	7.054
659.42	6.224
659.61	6.778
659.79	6.271
659.98	5.995
660.17	7.629
660.35	6.090
660.54	7.118
660.73	8.048
660.91	7.037
661.10	6.775
661.29	5.527
661.47	5.725
661.66	5.901
661.85	6.518
662.03	6.996
662.22	5.759
662.41	5.374
662.59	5.844
662.78	5.844
662.97	6.237
663.15	6.717
663.34	5.650
663.53	5.884
663.71	7.152
663.90	5.886
664.09	6.542
664.27	7.205
664.46	5.979
664.65	5.994
664.83	6.494
665.02	5.545
665.21	4.985
665.39	5.189
665.58	6.972
665.77	6.645
665.95	6.700
666.14	4.868
666.32	6.479
666.51	5.174
666.70	5.168
666.88	5.786
667.07	5.494
667.26	5.482
667.44	7.087
667.63	6.835
667.81	5.315
668.00	6.026
668.19	8.053
668.37	6.276
668.56	8.165
668.75	5.610
668.93	7.603
669.12	6.531
669.30	6.977
669.49	6.241
669.68	7.798
669.86	8.304
670.05	6.771
670.23	7.281
670.42	7.099
670.61	7.620
670.79	7.816
670.98	6.759
671.16	8.196
671.35	5.752
671.54	7.509
671.72	6.876
671.91	8.856
672.09	6.762
672.28	9.300
672.46	8.993
672.65	8.768
672.84	7.531
673.02	9.321
673.21	7.047
673.39	8.798
673.58	8.576
673.77	8.411
673.95	9.462
674.14	10.080
674.32	8.607
674.51	11.045
674.69	8.344
674.88	9.235
675.07	8.212
675.25	12.099
675.44	9.441
675.62	9.585
675.81	8.260
675.99	12.755
676.18	11.390
676.36	9.214
676.55	9.699
676.74	11.868
676.92	11.002
677.11	11.912
677.29	9.368
677.48	12.388
677.66	11.533
677.85	10.214
678.03	9.836
678.22	12.579
678.40	10.533
678.59	10.353
678.78	9.372
678.96	10.541
679.15	10.889
679.33	13.042
679.52	11.831
679.70	11.169
679.89	11.348
680.07	12.358
680.26	9.604
680.44	11.764
680.63	10.846
680.81	10.765
681.00	9.327
681.18	10.726
681.37	9.862
681.55	12.512
681.74	11.369
681.92	12.009
682.11	11.444
682.29	11.099
682.48	11.257
682.66	11.748
682.85	11.396
683.03	12.277
683.22	11.697
683.40	13.027
683.59	12.108
683.77	12.481
683.96	10.746
684.14	12.672
684.33	9.835
684.51	14.261
684.70	12.285
684.88	14.646
685.07	12.207
685.25	14.663
685.44	12.374
685.62	13.899
685.81	11.293
685.99	15.549
686.18	11.412
686.36	13.455
686.55	10.944
686.73	11.987
686.92	13.890
687.10	13.740
687.29	12.718
687.47	15.060
687.65	14.636
687.84	12.046
688.02	15.978
688.21	14.508
688.39	12.051
688.58	13.929
688.76	13.146
688.95	14.904
689.13	10.925
689.32	15.141
689.50	13.844
689.68	14.443
689.87	13.605
690.05	14.578
690.24	14.749
690.42	14.187
690.61	15.198
690.79	16.721
690.98	14.098
691.16	13.444
691.34	12.266
691.53	15.217
691.71	12.653
691.90	15.072
692.08	12.935
692.27	17.898
692.45	16.673
692.63	15.193
692.82	16.687
693.00	15.122
693.19	13.380
693.37	16.861
693.56	13.398
693.74	17.291
693.92	14.510
694.11	17.993
694.29	17.391
694.48	17.986
694.66	15.717
694.84	17.925
695.03	17.611
695.21	20.655
695.40	19.369
695.58	20.773
695.76	16.753
695.95	19.729
696.13	16.469
696.32	20.082
696.50	22.717
696.68	19.312
696.87	18.504
697.05	20.082
697.24	19.790
697.42	20.430
697.60	19.341
697.79	20.410
697.97	21.088
698.16	21.408
698.34	19.433
698.52	22.052
698.71	20.202
698.89	21.230
699.07	20.235
699.26	22.336
699.44	21.150
699.63	21.625
699.81	20.465
699.99	22.299
700.18	21.779
700.36	22.167
700.54	21.661
700.73	21.954
700.91	21.442
701.09	23.433
701.28	23.309
701.46	24.010
701.64	22.554
701.83	23.793
702.01	22.849
702.20	27.025
702.38	24.419
702.56	24.582
702.75	23.722
702.93	23.988
703.11	24.201
703.30	24.342
703.48	25.743
703.66	27.659
703.85	24.119
704.03	26.933
704.21	25.592
704.40	26.338
704.58	24.270
704.76	27.268
704.95	25.206
705.13	27.679
705.31	24.631
705.50	27.830
705.68	25.165
705.86	26.798
706.04	27.336
706.23	28.026
706.41	25.541
706.59	26.407
706.78	26.495
706.96	27.410
707.14	27.200
707.33	28.756
707.51	26.667
707.69	29.463
707.88	26.897
708.06	27.530
708.24	26.830
708.42	29.816
708.61	27.128
708.79	28.982
708.97	29.272
709.16	28.495
709.34	30.224
709.52	27.213
709.71	29.069
709.89	30.191
710.07	25.782
710.25	30.406
710.44	27.887
710.62	28.515
710.80	30.232
710.98	28.821
711.17	28.349
711.35	30.473
711.53	28.726
711.72	29.791
711.90	29.819
712.08	28.639
712.26	28.196
712.45	29.076
712.63	29.265
712.81	31.761
712.99	27.734
713.18	29.671
713.36	29.022
713.54	29.674
713.72	27.816
713.91	31.011
714.09	28.399
714.27	31.594
714.45	28.578
714.64	30.668
714.82	29.404
715.00	32.473
715.18	29.809
715.37	31.036
715.55	29.822
715.73	29.336
715.91	29.476
716.10	30.506
716.28	28.090
716.46	31.139
716.64	28.576
716.83	30.197
717.01	29.779
717.19	29.467
717.37	30.138
717.55	30.954
717.74	29.092
717.92	29.619
718.10	28.647
718.28	31.277
718.47	28.754
718.65	32.032
718.83	28.739
719.01	31.742
719.19	29.599
719.38	31.449
719.56	30.828
719.74	30.189
719.92	27.681
720.10	30.198
720.29	29.478
720.47	31.900
720.65	31.284
720.83	32.596
721.01	29.877
721.20	30.521
721.38	30.348
721.56	29.733
721.74	31.410
721.92	31.045
722.11	31.383
722.29	32.148
722.47	31.747
722.65	35.554
722.83	32.065
723.01	31.275
723.20	30.771
723.38	31.134
723.56	30.825
723.74	34.253
723.92	31.889
724.10	32.871
724.29	30.520
724.47	34.113
724.65	31.884
724.83	32.827
725.01	29.593
725.19	32.786
725.38	30.544
725.56	32.150
725.74	33.491
725.92	34.678
726.10	30.356
726.28	34.236
726.46	33.174
726.65	33.908
726.83	32.267
727.01	33.758
727.19	32.259
727.37	31.853
727.55	33.530
727.73	33.131
727.92	32.779
728.10	35.467
728.28	32.579
728.46	33.835
728.64	32.339
728.82	34.528
729.00	34.690
729.19	35.727
729.37	33.129
729.55	35.837
729.73	31.624
729.91	35.132
730.09	36.574
730.27	36.116
730.45	32.590
730.63	33.901
730.82	34.353
731.00	35.022
731.18	34.486
731.36	35.996
731.54	31.185
731.72	35.547
731.90	35.622
732.08	35.209
732.26	33.942
732.45	38.079
732.63	35.113
732.81	35.984
732.99	34.837
733.17	34.972
733.35	35.218
733.53	36.196
733.71	35.884
733.89	36.728
734.07	37.199
734.25	37.473
734.44	36.250
734.62	36.546
734.80	38.053
734.98	38.523
735.16	34.962
735.34	38.296
735.52	37.428
735.70	38.703
735.88	41.179
736.06	39.273
736.24	41.351
736.42	40.000
736.60	39.363
736.78	40.602
736.97	38.089
737.15	43.135
737.33	37.320
737.51	40.383
737.69	41.055
737.87	42.575
738.05	40.722
738.23	43.815
738.41	40.172
738.59	43.355
738.77	40.299
738.95	40.879
739.13	40.645
739.31	40.910
739.49	43.517
739.67	43.209
739.85	39.302
740.03	38.991
740.21	40.885
740.39	43.694
740.57	41.315
740.75	42.906
740.93	42.085
741.11	43.013
741.30	42.648
741.48	45.531
741.66	43.839
741.84	43.264
742.02	40.429
742.20	43.735
742.38	42.311
742.56	44.151
742.74	41.518
742.92	44.453
743.10	42.091
743.28	47.886
743.46	43.876
743.64	44.682
743.82	40.412
744.00	45.899
744.18	42.920
744.36	43.053
744.54	45.786
744.72	46.360
744.90	46.541
745.08	45.262
745.26	45.690
745.44	46.228
745.62	42.691
745.80	45.575
745.98	45.753
746.16	47.543
746.34	45.597
746.52	45.606
746.70	42.354
746.87	44.770
747.05	46.587
747.23	46.186
747.41	45.800
747.59	46.781
747.77	45.511
747.95	47.792
748.13	45.936
748.31	48.542
748.49	45.521
748.67	47.386
748.85	42.439
749.03	44.002
749.21	44.237
749.39	45.217
749.57	42.456
749.75	45.272
749.93	46.748
750.11	45.666
750.29	44.308
750.47	46.871
750.65	42.702
750.83	46.044
751.01	43.771
751.18	44.917
751.36	43.995
751.54	46.116
751.72	46.367
751.90	47.071
752.08	44.379
752.26	46.092
752.44	44.845
752.62	47.979
752.80	44.753
752.98	49.075
753.16	45.455
753.34	47.037
753.52	45.500
753.69	49.032
753.87	45.345
754.05	45.862
754.23	43.419
754.41	46.737
754.59	47.215
754.77	46.016
754.95	45.729
755.13	47.168
755.31	44.567
755.49	45.660
755.66	45.469
755.84	45.332
756.02	43.418
756.20	49.893
756.38	47.442
756.56	48.309
756.74	47.146
756.92	45.883
757.10	43.493
757.28	48.323
757.45	51.226
757.63	47.821
757.81	43.464
757.99	50.000
758.17	46.420
758.35	50.317
758.53	48.380
758.71	46.014
758.88	44.603
759.06	46.999
759.24	39.934
759.42	45.393
759.60	43.258
759.78	42.143
759.96	40.889
760.13	43.870
760.31	36.543
760.49	38.655
760.67	37.318
760.85	36.317
761.03	35.254
761.21	32.527
761.38	35.177
761.56	36.831
761.74	35.565
761.92	38.626
762.10	33.841
762.28	37.408
762.46	31.985
762.63	36.895
762.81	36.865
762.99	37.020
763.17	35.984
763.35	36.382
763.53	35.627
763.70	37.141
763.88	36.174
764.06	36.778
764.24	35.332
764.42	37.407
764.60	36.155
764.77	36.400
764.95	36.304
765.13	38.457
765.31	39.179
765.49	38.117
765.66	37.490
765.84	39.079
766.02	37.963
766.20	37.214
766.38	37.084
766.56	39.625
766.73	42.992
766.91	42.715
767.09	39.659
767.27	45.962
767.45	41.539
767.62	43.666
767.80	41.920
767.98	42.993
768.16	41.605
768.33	46.341
768.51	44.378
768.69	42.378
768.87	42.815
769.05	46.746
769.22	44.136
769.40	50.378
769.58	43.048
769.76	46.534
769.94	45.833
770.11	48.280
770.29	45.714
770.47	44.789
770.65	45.455
770.82	47.238
771.00	46.940
771.18	51.323
771.36	44.299
771.53	48.405
771.71	47.564
771.89	48.577
772.07	46.962
772.25	45.978
772.42	43.411
772.60	50.832
772.78	43.467
772.96	49.463
773.13	50.303
773.31	51.117
773.49	48.852
773.67	50.828
773.84	47.853
774.02	47.744
774.20	49.261
774.37	48.029
774.55	46.351
774.73	48.997
774.91	46.558
775.08	51.792
775.26	49.378
775.44	50.629
775.62	48.075
775.79	49.423
775.97	47.977
776.15	51.123
776.32	45.121
776.50	51.070
776.68	50.931
776.86	51.282
777.03	42.062
777.21	49.686
777.39	42.221
777.56	45.389
777.74	45.361
777.92	45.036
778.10	48.434
778.27	47.795
778.45	51.750
778.63	50.663
778.80	47.179
778.98	49.854
779.16	55.191
779.34	46.011
779.51	50.025
779.69	50.904
779.87	47.363
780.04	48.214
780.22	45.307
780.40	46.106
780.57	50.073
780.75	49.708
780.93	48.794
781.10	45.419
781.28	54.568
781.46	45.143
781.63	47.415
781.81	47.071
781.99	43.266
782.16	51.229
782.34	51.691
782.52	50.882
782.69	50.874
782.87	49.351
783.05	44.787
783.22	50.958
783.40	46.109
783.58	48.707
783.75	48.247
783.93	48.686
784.11	41.057
784.28	50.134
784.46	48.204
784.64	50.241
784.81	50.606
784.99	52.055
785.17	48.728
785.34	43.067
785.52	45.089
785.69	48.778
785.87	46.150
786.05	48.683
786.22	46.343
786.40	51.937
786.58	44.091
786.75	50.055
786.93	49.887
787.11	48.623
787.28	48.119
787.46	49.344
787.63	48.891
787.81	47.149
787.99	46.252
788.16	45.540
788.34	43.098
788.51	47.393
788.69	43.463
788.87	44.594
789.04	43.824
789.22	43.228
789.39	44.598
789.57	44.134
789.75	43.096
789.92	45.629
790.10	43.447
790.27	44.098
790.45	41.299
790.63	44.696
790.80	40.010
790.98	41.054
791.15	42.245
791.33	44.976
791.51	41.613
791.68	44.908
791.86	44.918
792.03	46.227
792.21	45.731
792.39	45.978
792.56	43.093
792.74	49.374
792.91	48.341
793.09	47.905
793.26	40.299
793.44	48.131
793.62	46.910
793.79	47.543
793.97	45.226
794.14	53.813
794.32	44.631
794.49	46.912
794.67	44.211
794.84	45.661
795.02	42.182
795.20	48.890
795.37	43.460
795.55	49.117
795.72	42.763
795.90	43.746
796.07	45.311
796.25	47.327
796.42	48.127
796.60	41.377
796.77	41.338
796.95	47.303
797.13	41.220
797.30	45.676
797.48	37.255
797.65	45.814
797.83	42.932
798.00	48.468
798.18	44.257
798.35	47.737
798.53	41.876
798.70	44.002
798.88	43.280
799.05	44.797
799.23	42.940
799.40	40.451
799.58	45.811
799.75	44.138
799.93	38.675
800.10	45.567
800.28	42.916
800.45	46.112
800.63	41.215
800.80	49.466
800.98	46.687
801.15	42.740
801.33	42.814
801.50	47.237
801.68	41.499
801.85	41.542
802.03	40.186
802.20	44.312
802.38	46.760
802.55	48.874
802.73	44.606
802.90	44.145
803.08	38.126
803.25	48.914
803.43	45.984
803.60	48.489
803.78	45.378
803.95	47.946
804.13	44.407
804.30	47.987
804.48	48.966
804.65	47.444
804.83	44.244
805.00	43.495
805.17	44.215
805.35	50.034
805.52	46.377
805.70	48.712
805.87	47.980
806.05	44.884
806.22	40.974
806.40	42.885
806.57	46.314
806.75	50.832
806.92	43.775
807.09	45.302
807.27	41.132
807.44	47.509
807.62	47.355
807.79	48.715
807.97	45.485
808.14	43.027
808.31	44.725
808.49	41.140
808.66	41.229
808.84	46.327
809.01	49.036
809.19	43.978
809.36	46.693
809.53	44.584
809.71	48.586
809.88	50.373
810.06	48.251
810.23	39.861
810.41	47.790
810.58	52.466
810.75	42.752
810.93	47.896
811.10	45.796
811.28	49.442
811.45	46.148
811.62	44.626
811.80	42.846
811.97	48.804
812.15	48.973
812.32	39.894
812.49	43.679
812.67	45.677
812.84	41.172
813.02	48.638
813.19	39.179
813.36	42.868
813.54	44.237
813.71	49.577
813.89	38.940
814.06	44.493
814.23	46.154
814.41	43.272
814.58	44.882
814.75	39.902
814.93	45.648
815.10	46.374
815.28	44.171
815.45	34.144
815.62	49.601
815.80	37.481
815.97	39.837
816.14	47.254
816.32	43.813
816.49	39.541
816.66	43.933
816.84	42.943
817.01	40.240
817.18	44.956
817.36	41.721
817.53	39.498
817.71	38.235
817.88	39.078
818.05	37.862
818.23	35.144
818.40	37.266
818.57	42.197
818.75	37.490
818.92	40.398
819.09	38.737
819.27	38.012
819.44	44.504
819.61	37.899
819.79	38.979
819.96	40.877
820.13	35.359
820.31	35.568
820.48	40.060
820.65	34.161
820.82	37.045
821.00	39.351
821.17	33.028
821.34	34.533
821.52	30.507
821.69	33.146
821.86	34.934
822.04	33.981
822.21	33.408
822.38	35.551
822.56	31.764
822.73	35.751
822.90	33.018
823.07	34.309
823.25	32.838
823.42	32.817
823.59	33.227
823.77	33.984
823.94	33.947
824.11	33.609
824.29	32.857
824.46	34.302
824.63	34.315
824.80	34.795
824.98	32.426
825.15	34.833
825.32	32.209
825.49	36.939
825.67	32.503
825.84	32.386
826.01	33.491
826.19	37.460
826.36	32.518
826.53	37.395
826.70	34.584
826.88	36.926
827.05	32.394
827.22	32.893
827.39	32.921
827.57	33.703
827.74	28.061
827.91	36.833
828.08	31.042
828.26	32.566
828.43	30.579
828.60	35.213
828.77	31.665
828.95	32.088
829.12	31.764
829.29	29.098
829.46	31.665
829.64	34.098
829.81	28.512
829.98	32.510
830.15	35.374
830.32	35.921
830.50	34.619
830.67	38.587
830.84	35.948
831.01	30.047
831.19	30.967
831.36	35.330
831.53	36.386
831.70	37.118
831.87	36.370
832.05	37.056
832.22	40.826
832.39	39.345
832.56	37.779
832.74	39.413
832.91	30.175
833.08	45.097
833.25	33.869
833.42	33.700
833.60	33.761
833.77	34.021
833.94	28.195
834.11	31.480
834.28	29.170
834.45	35.130
834.63	30.378
834.80	31.680
834.97	29.963
835.14	32.435
835.31	32.762
835.49	31.398
835.66	31.909
835.83	30.734
836.00	35.965
836.17	32.545
836.34	33.348
836.52	33.302
836.69	35.363
836.86	38.075
837.03	38.192
837.20	34.306
837.37	38.213
837.55	32.524
837.72	36.032
837.89	38.774
838.06	38.644
838.23	43.562
838.40	45.872
838.58	44.256
838.75	49.899
838.92	43.848
839.09	60.084
839.26	46.787
839.43	49.522
839.60	50.372
839.78	59.049
839.95	53.798
840.12	50.000
840.29	56.079
840.46	47.072
840.63	47.643
840.80	50.093
840.98	46.154
841.15	44.275
841.32	45.745
841.49	43.608
841.66	51.776
841.83	34.911
842.00	44.739
842.17	48.651
842.34	39.355
842.52	53.327
842.69	46.290
842.86	53.154
843.03	63.041
843.20	48.805
843.37	54.009
843.54	51.061
843.71	46.174
843.88	47.983
844.06	66.111
844.23	65.107
844.40	60.090
844.57	59.161
844.74	70.000
844.91	66.411
845.08	68.189
845.25	70.588
845.42	59.347
845.59	79.344
845.76	61.510
845.94	68.262
846.11	72.483
846.28	83.626
846.45	84.321
846.62	74.728
846.79	69.156
846.96	72.447
847.13	68.880
847.30	63.701
847.47	68.432
847.64	58.743
847.81	62.945
847.98	88.797
848.15	81.053
848.32	74.144
848.50	92.688
848.67	61.426
848.84	85.223
849.01	64.634
849.18	69.734
849.35	84.783
849.52	91.485
849.69	69.374
849.86	104.751
850.03	76.581
850.20	67.917
850.37	71.889
850.54	73.010
850.71	75.610
850.88	67.635
851.05	70.417
851.22	87.379
851.39	73.814
851.56	72.017
851.73	78.824
851.90	85.092
852.07	70.743
852.24	57.730
852.41	65.953
852.58	75.714
852.75	71.163
852.92	64.588
853.09	116.011
853.26	77.895
853.43	66.889
853.60	60.083
853.77	82.751
853.94	93.018
854.11	85.847
854.28	95.366
854.45	75.333
854.62	78.182
854.79	76.770
854.96	86.480
855.13	86.775
855.30	82.250
855.47	86.990
855.64	83.742
855.81	81.100
855.98	90.786
856.15	80.894
856.32	62.839
856.49	93.144
856.66	74.413
856.83	84.483
857.00	73.640
857.17	86.279
857.34	65.570
857.51	73.187
857.68	80.907
857.85	95.932
858.02	87.775
858.19	81.452
858.36	99.259
858.53	86.724
858.70	75.000
858.87	96.667
859.04	82.353
859.21	85.129
859.38	82.292
859.55	80.779
859.72	100.000
859.89	106.997
860.05	87.745
860.22	100.789
860.39	85.941
860.56	93.182
860.73	82.100
860.90	87.215
861.07	78.995
861.24	74.142
861.41	84.127
861.58	85.647
861.75	87.351
861.92	70.022
862.09	89.873
862.26	75.414
862.43	94.215
862.59	81.944
862.76	67.941
862.93	86.216
863.10	78.998
863.27	75.811
863.44	69.118
863.61	89.318
863.78	93.731
863.95	81.235
864.12	100.935
864.29	95.441
864.45	78.086
864.62	87.435
864.79	101.733
864.96	69.479
865.13	82.040
865.30	84.286
865.47	99.164
865.64	88.915
865.81	77.686
865.97	86.331
866.14	85.523
866.31	65.728
866.48	83.333
866.65	66.927
866.82	73.621
866.99	105.541
867.16	86.387
867.33	74.118
867.49	89.731
867.66	88.675
867.83	77.093
868.00	86.461
868.17	93.103
868.34	77.902
868.51	71.739
868.67	74.171
868.84	84.828
869.01	84.332
869.18	84.878
869.35	82.781
869.52	90.000
869.69	105.488
869.85	82.469
870.02	75.728
870.19	84.928
870.36	103.439
870.53	59.674
870.70	80.000
870.86	81.606
871.03	98.144
871.20	79.455
871.37	96.552
871.54	93.750
871.71	81.068
871.87	80.163
872.04	90.429
872.21	71.523
872.38	84.841
872.55	107.595
872.72	71.171
872.88	106.479
873.05	68.767
873.22	85.598
873.39	73.995
873.56	71.071
873.72	89.183
873.89	81.977
874.06	84.021
874.23	65.969
874.40	71.484
874.56	71.726
874.73	81.068
874.90	86.096
875.07	54.585
875.24	74.463
875.40	72.135
875.57	66.136
875.74	90.488
875.91	72.629
876.08	70.264
876.24	80.785
876.41	98.223
876.58	76.850
876.75	74.931
876.92	73.661
877.08	84.375
877.25	52.577
877.42	79.675
877.59	81.040
877.75	83.096
877.92	68.821
878.09	77.030
878.26	74.297
878.42	79.787
878.59	62.168
878.76	69.960
878.93	78.054
879.09	77.511
879.26	84.783
879.43	58.876
879.60	72.401
879.76	61.210
879.93	52.475
880.10	50.233
880.27	59.455
880.43	61.736
880.60	48.276
880.77	50.615
880.94	45.818
881.10	42.823
881.27	47.720
881.44	30.080
881.61	34.443
881.77	34.892
881.94	30.760
882.11	29.509
882.28	24.219
882.44	29.020
882.61	29.586
882.78	29.480
882.94	30.967
883.11	28.618
883.28	31.718
883.45	28.365
883.61	29.611
883.78	30.581
883.95	34.593
884.11	28.698
884.28	28.651
>>>>>End Processed Spectral Data<<<<<
