SpectraSuite Data File
++++++++++++++++++++++++++++++++++++
Date: Mon Sep 23 03:48:42 EST 2019
User: sgrac
Dark Spectrum Present: Yes
Reference Spectrum Present: Yes
Number of Sampled Component Spectra: 1
Spectrometers: USB4E01596
Integration Time (usec): 100000 (USB4E01596)
Spectra Averaged: 3 (USB4E01596)
Boxcar Smoothing: 0 (USB4E01596)
Correct for Electrical Dark: No (USB4E01596)
Strobe/Lamp Enabled: Yes (USB4E01596)
Correct for Detector Non-linearity: No (USB4E01596)
Correct for Stray Light: No (USB4E01596)
Number of Pixels in Processed Spectrum: 3648
>>>>>Begin Processed Spectral Data<<<<<
178.44	1346.154
178.66	1346.154
178.87	1346.154
179.09	8466.667
179.30	-4850.000
179.52	-932.258
179.74	-526.415
179.95	900.000
180.17	-627.778
180.38	442.105
180.60	-2890.909
180.82	582.222
181.03	4483.333
181.25	-2508.333
181.46	-1260.000
181.68	962.500
181.89	-695.455
182.11	-2068.750
182.33	-2118.750
182.54	597.917
182.76	4050.000
182.97	-491.489
183.19	1395.000
183.40	237.190
183.62	325.641
183.84	378.182
184.05	4371.429
184.27	443.939
184.48	380.303
184.70	1847.059
184.91	1509.524
185.13	2900.000
185.34	-17400.000
185.56	1165.385
185.78	463.889
185.99	894.444
186.21	336.364
186.42	-6700.000
186.64	2180.000
186.85	-6780.000
187.07	440.000
187.28	430.263
187.50	465.455
187.72	342.308
187.93	780.000
188.15	380.208
188.36	435.526
188.58	506.122
188.79	287.500
189.01	401.408
189.22	808.108
189.44	-881.818
189.65	298.305
189.87	-5225.000
190.09	536.508
190.30	816.667
190.52	420.000
190.73	791.304
190.95	-3650.000
191.16	350.000
191.38	451.351
191.59	402.941
191.81	562.903
192.02	1646.667
192.24	934.375
192.45	847.059
192.67	-1825.000
192.88	483.019
193.10	462.295
193.31	782.500
193.53	274.194
193.74	382.667
193.96	1864.286
194.18	780.769
194.39	2013.333
194.61	494.521
194.82	1390.909
195.04	373.171
195.25	-370.175
195.47	-483.333
195.68	4016.667
195.90	523.636
196.11	394.030
196.33	24000.000
196.54	768.293
196.76	1800.000
196.97	398.701
197.19	808.108
197.40	1992.857
197.62	238.532
197.83	1041.935
198.05	541.818
198.26	800.000
198.48	385.915
198.69	476.667
198.91	1244.444
199.12	727.907
199.34	645.652
199.55	394.286
199.77	2057.895
199.98	785.294
200.20	380.263
200.41	614.516
200.63	353.097
200.84	2007.143
201.06	2633.333
201.27	692.683
201.49	436.620
201.70	-623.333
201.91	447.222
202.13	540.678
202.34	558.621
202.56	-1272.000
202.77	526.667
202.99	5683.333
203.20	-3575.000
203.42	1968.750
203.63	346.053
203.85	4866.667
204.06	624.000
204.28	286.869
204.49	455.556
204.71	535.593
204.92	1061.538
205.14	0.000
205.35	960.000
205.56	-1115.000
205.78	7620.000
205.99	-1607.143
206.21	8700.000
206.42	554.545
206.64	870.968
206.85	844.444
207.07	-2622.222
207.28	443.103
207.50	582.609
207.71	941.935
207.93	381.928
208.14	-870.370
208.35	458.182
208.57	984.000
208.78	-2566.667
209.00	335.106
209.21	-13250.000
209.43	-10233.333
209.64	-1560.000
209.86	241.237
210.07	360.465
210.28	442.254
210.50	872.414
210.71	633.333
210.93	273.529
211.14	429.213
211.36	2000.000
211.57	446.970
211.78	385.714
212.00	361.176
212.21	354.286
212.43	741.026
212.64	400.000
212.86	514.865
213.07	353.211
213.29	-641.667
213.50	303.261
213.71	320.690
213.93	374.390
214.14	1772.727
214.36	454.412
214.57	288.608
214.78	753.333
215.00	347.917
215.21	953.333
215.43	727.027
215.64	360.317
215.86	323.750
216.07	757.143
216.28	850.000
216.50	295.833
216.71	26400.000
216.93	442.424
217.14	1611.111
217.35	278.030
217.57	302.703
217.78	267.901
218.00	297.980
218.21	1239.130
218.42	565.957
218.64	560.714
218.85	536.000
219.07	1195.000
219.28	306.542
219.49	533.333
219.71	446.154
219.92	204.478
220.14	283.505
220.35	446.667
220.56	287.356
220.78	289.423
220.99	297.581
221.21	253.763
221.42	414.815
221.63	202.312
221.85	393.846
222.06	388.571
222.28	426.154
222.49	272.072
222.70	248.819
222.92	610.204
223.13	380.328
223.34	211.348
223.56	305.952
223.77	330.000
223.99	312.632
224.20	426.786
224.41	341.096
224.63	407.955
224.84	229.054
225.05	132.906
225.27	237.391
225.48	312.745
225.69	246.617
225.91	387.838
226.12	248.837
226.34	228.859
226.55	146.763
226.76	210.000
226.98	115.686
227.19	102.734
227.40	321.875
227.62	163.492
227.83	156.223
228.04	100.838
228.26	71.465
228.47	73.938
228.69	62.690
228.90	39.232
229.11	50.426
229.33	34.953
229.54	29.730
229.75	38.582
229.97	41.050
230.18	34.494
230.39	34.071
230.61	40.041
230.82	32.096
231.03	28.026
231.25	39.457
231.46	40.724
231.67	44.037
231.89	47.075
232.10	39.675
232.31	48.056
232.53	41.087
232.74	51.589
232.95	57.713
233.17	51.800
233.38	50.210
233.59	54.360
233.81	56.159
234.02	46.693
234.23	52.837
234.45	49.653
234.66	51.106
234.87	53.893
235.09	52.894
235.30	53.415
235.51	48.577
235.73	47.495
235.94	42.671
236.15	55.344
236.36	48.972
236.58	52.574
236.79	38.053
237.00	51.466
237.22	51.020
237.43	44.904
237.64	44.882
237.86	50.752
238.07	67.010
238.28	46.935
238.50	50.338
238.71	48.561
238.92	50.938
239.13	54.915
239.35	46.345
239.56	41.873
239.77	65.306
239.99	41.326
240.20	46.399
240.41	38.020
240.63	29.380
240.84	32.587
241.05	35.550
241.26	35.202
241.48	24.289
241.69	20.822
241.90	19.889
242.12	22.151
242.33	19.538
242.54	19.276
242.75	20.680
242.97	15.975
243.18	15.553
243.39	14.555
243.61	17.981
243.82	13.539
244.03	13.863
244.24	11.707
244.46	15.756
244.67	17.746
244.88	15.739
245.09	18.962
245.31	22.016
245.52	17.782
245.73	14.208
245.95	29.630
246.16	17.640
246.37	13.943
246.58	18.479
246.80	13.643
247.01	16.771
247.22	12.805
247.43	11.159
247.65	12.108
247.86	10.857
248.07	8.262
248.28	8.882
248.50	8.194
248.71	7.626
248.92	8.170
249.13	8.552
249.35	10.179
249.56	10.542
249.77	9.950
249.98	11.566
250.20	12.651
250.41	12.870
250.62	14.205
250.83	17.048
251.05	17.344
251.26	14.190
251.47	18.279
251.68	20.723
251.90	17.481
252.11	14.416
252.32	19.443
252.53	15.702
252.75	14.425
252.96	16.961
253.17	16.667
253.38	14.396
253.59	14.398
253.81	11.791
254.02	12.819
254.23	14.410
254.44	12.845
254.66	11.421
254.87	17.072
255.08	16.394
255.29	20.477
255.50	14.255
255.72	21.357
255.93	19.731
256.14	26.040
256.35	16.102
256.57	22.060
256.78	28.386
256.99	22.147
257.20	24.889
257.41	21.080
257.63	21.850
257.84	19.383
258.05	19.330
258.26	15.901
258.47	19.209
258.69	20.532
258.90	13.246
259.11	13.959
259.32	12.631
259.53	10.925
259.75	11.408
259.96	10.993
260.17	8.426
260.38	5.709
260.59	7.863
260.81	5.691
261.02	5.717
261.23	7.238
261.44	8.078
261.65	5.223
261.87	5.389
262.08	6.329
262.29	7.915
262.50	8.802
262.71	6.885
262.92	9.317
263.14	9.510
263.35	9.383
263.56	11.479
263.77	11.262
263.98	12.825
264.20	14.036
264.41	11.452
264.62	12.128
264.83	11.140
265.04	15.780
265.25	15.021
265.47	12.651
265.68	14.257
265.89	16.735
266.10	8.157
266.31	15.894
266.52	10.297
266.74	12.245
266.95	13.468
267.16	13.307
267.37	11.968
267.58	10.682
267.79	13.326
268.01	10.601
268.22	10.921
268.43	12.127
268.64	9.518
268.85	10.786
269.06	10.168
269.27	9.381
269.49	7.647
269.70	9.678
269.91	9.448
270.12	8.761
270.33	13.624
270.54	8.544
270.75	11.496
270.97	12.668
271.18	7.603
271.39	9.358
271.60	9.874
271.81	8.185
272.02	10.380
272.23	8.210
272.45	9.299
272.66	6.113
272.87	8.761
273.08	5.903
273.29	8.311
273.50	7.244
273.71	6.434
273.92	5.711
274.14	7.689
274.35	8.904
274.56	7.662
274.77	6.927
274.98	9.018
275.19	8.213
275.40	8.192
275.61	8.813
275.83	12.746
276.04	8.567
276.25	11.987
276.46	8.199
276.67	9.771
276.88	10.567
277.09	9.753
277.30	8.648
277.51	10.072
277.73	6.783
277.94	10.286
278.15	12.197
278.36	9.624
278.57	9.744
278.78	7.383
278.99	10.111
279.20	10.983
279.41	9.906
279.62	8.154
279.84	8.715
280.05	10.188
280.26	9.110
280.47	9.500
280.68	7.519
280.89	8.598
281.10	9.702
281.31	10.793
281.52	10.942
281.73	8.301
281.94	7.811
282.16	8.140
282.37	6.153
282.58	7.618
282.79	8.759
283.00	8.608
283.21	8.216
283.42	7.744
283.63	8.187
283.84	6.748
284.05	7.314
284.26	8.389
284.47	7.629
284.68	6.315
284.89	7.575
285.11	8.973
285.32	7.074
285.53	7.327
285.74	8.246
285.95	5.731
286.16	6.233
286.37	6.519
286.58	7.136
286.79	5.825
287.00	6.284
287.21	5.739
287.42	4.867
287.63	7.288
287.84	5.485
288.05	6.927
288.26	4.573
288.48	6.867
288.69	5.114
288.90	6.635
289.11	8.396
289.32	7.164
289.53	8.054
289.74	6.708
289.95	7.903
290.16	8.102
290.37	6.329
290.58	5.634
290.79	4.721
291.00	6.538
291.21	5.678
291.42	7.198
291.63	7.440
291.84	6.538
292.05	4.785
292.26	4.938
292.47	6.426
292.68	4.625
292.89	8.068
293.10	8.132
293.31	7.446
293.52	5.477
293.73	8.478
293.94	7.550
294.15	7.608
294.36	7.664
294.57	7.544
294.79	6.441
295.00	6.387
295.21	8.051
295.42	7.313
295.63	7.637
295.84	6.663
296.05	6.243
296.26	5.453
296.47	7.001
296.68	6.634
296.89	8.034
297.10	6.527
297.31	7.414
297.52	3.341
297.73	7.226
297.94	5.267
298.15	5.557
298.36	5.868
298.57	4.987
298.78	5.640
298.99	5.982
299.20	6.052
299.41	5.722
299.62	6.850
299.83	5.574
300.04	5.375
300.25	5.690
300.46	7.871
300.67	7.529
300.88	7.499
301.09	6.329
301.30	5.929
301.50	8.152
301.71	7.570
301.92	7.540
302.13	6.749
302.34	4.181
302.55	5.388
302.76	6.919
302.97	6.118
303.18	8.167
303.39	8.116
303.60	7.230
303.81	7.829
304.02	5.839
304.23	7.563
304.44	6.618
304.65	5.686
304.86	7.421
305.07	5.493
305.28	6.130
305.49	8.178
305.70	8.051
305.91	7.873
306.12	7.227
306.33	6.285
306.54	5.277
306.75	7.362
306.96	10.795
307.17	6.655
307.38	7.387
307.58	6.849
307.79	7.051
308.00	6.736
308.21	6.976
308.42	7.148
308.63	7.600
308.84	6.188
309.05	6.494
309.26	5.633
309.47	6.871
309.68	7.320
309.89	7.435
310.10	6.300
310.31	6.178
310.52	5.402
310.73	7.166
310.94	4.463
311.14	5.783
311.35	5.644
311.56	5.674
311.77	5.140
311.98	5.954
312.19	5.798
312.40	5.309
312.61	3.460
312.82	6.267
313.03	4.238
313.24	5.912
313.45	5.654
313.66	6.244
313.86	7.328
314.07	6.893
314.28	7.435
314.49	5.051
314.70	7.547
314.91	6.914
315.12	6.427
315.33	8.117
315.54	5.706
315.75	5.717
315.96	6.509
316.16	6.824
316.37	6.160
316.58	6.705
316.79	7.100
317.00	5.822
317.21	5.950
317.42	6.837
317.63	7.304
317.84	6.865
318.05	6.055
318.25	8.440
318.46	6.041
318.67	5.742
318.88	7.557
319.09	7.782
319.30	6.734
319.51	7.422
319.72	8.745
319.93	6.683
320.13	7.457
320.34	8.146
320.55	7.580
320.76	8.713
320.97	7.571
321.18	7.853
321.39	4.997
321.60	7.956
321.80	9.618
322.01	8.280
322.22	6.618
322.43	6.299
322.64	7.063
322.85	7.430
323.06	8.083
323.27	6.149
323.47	8.110
323.68	8.630
323.89	6.664
324.10	7.858
324.31	6.288
324.52	6.954
324.73	8.488
324.93	6.534
325.14	7.154
325.35	6.960
325.56	4.959
325.77	7.993
325.98	7.392
326.19	5.755
326.39	5.310
326.60	6.075
326.81	4.478
327.02	5.811
327.23	6.204
327.44	7.652
327.64	5.434
327.85	3.981
328.06	6.344
328.27	7.779
328.48	5.894
328.69	4.139
328.90	5.525
329.10	7.100
329.31	6.975
329.52	5.669
329.73	8.256
329.94	6.435
330.15	7.591
330.35	8.999
330.56	7.471
330.77	6.690
330.98	5.328
331.19	7.226
331.39	6.950
331.60	8.402
331.81	5.983
332.02	6.533
332.23	6.325
332.44	6.701
332.64	6.875
332.85	6.768
333.06	5.898
333.27	5.246
333.48	6.975
333.68	6.714
333.89	6.605
334.10	6.236
334.31	6.371
334.52	6.429
334.72	6.270
334.93	6.561
335.14	5.705
335.35	5.931
335.56	6.583
335.76	5.795
335.97	5.325
336.18	6.562
336.39	7.646
336.60	5.853
336.80	5.099
337.01	5.374
337.22	6.239
337.43	6.692
337.64	7.345
337.84	7.036
338.05	5.070
338.26	8.957
338.47	7.913
338.68	6.199
338.88	6.338
339.09	5.980
339.30	6.708
339.51	5.926
339.71	6.200
339.92	6.390
340.13	6.826
340.34	7.401
340.55	6.140
340.75	7.314
340.96	6.934
341.17	7.713
341.38	7.026
341.58	7.898
341.79	7.238
342.00	5.816
342.21	5.923
342.41	6.192
342.62	6.001
342.83	7.518
343.04	4.298
343.24	6.159
343.45	6.297
343.66	4.853
343.87	6.867
344.07	4.892
344.28	6.979
344.49	6.805
344.70	8.308
344.90	5.718
345.11	5.490
345.32	6.749
345.53	6.528
345.73	6.826
345.94	6.441
346.15	7.225
346.36	6.136
346.56	6.351
346.77	6.632
346.98	6.021
347.19	7.825
347.39	7.589
347.60	7.190
347.81	7.533
348.02	8.007
348.22	6.708
348.43	8.031
348.64	7.048
348.84	6.745
349.05	8.946
349.26	8.803
349.47	6.804
349.67	8.398
349.88	8.959
350.09	7.698
350.30	9.336
350.50	7.938
350.71	7.769
350.92	8.801
351.12	8.181
351.33	7.494
351.54	7.929
351.74	7.701
351.95	7.766
352.16	8.675
352.37	8.759
352.57	8.474
352.78	8.623
352.99	8.092
353.19	8.336
353.40	8.190
353.61	10.136
353.82	10.800
354.02	11.256
354.23	9.961
354.44	10.494
354.64	8.892
354.85	9.145
355.06	9.088
355.26	8.455
355.47	9.741
355.68	8.572
355.88	10.285
356.09	9.969
356.30	9.313
356.51	10.101
356.71	8.134
356.92	7.796
357.13	9.838
357.33	10.973
357.54	9.652
357.75	7.925
357.95	10.499
358.16	8.158
358.37	11.457
358.57	8.748
358.78	11.232
358.99	8.595
359.19	9.337
359.40	10.062
359.61	8.478
359.81	10.171
360.02	11.954
360.23	9.018
360.43	9.092
360.64	8.536
360.85	9.702
361.05	8.720
361.26	9.673
361.47	8.742
361.67	10.998
361.88	8.015
362.09	9.919
362.29	8.411
362.50	9.102
362.70	7.594
362.91	10.021
363.12	8.259
363.32	9.063
363.53	9.610
363.74	9.987
363.94	8.310
364.15	11.009
364.36	10.161
364.56	8.829
364.77	9.222
364.98	10.607
365.18	9.371
365.39	10.549
365.59	8.002
365.80	8.608
366.01	11.004
366.21	8.916
366.42	7.424
366.63	11.131
366.83	8.534
367.04	7.703
367.24	11.387
367.45	8.712
367.66	8.432
367.86	10.412
368.07	8.491
368.28	9.136
368.48	8.840
368.69	7.874
368.89	8.438
369.10	9.209
369.31	8.781
369.51	9.050
369.72	10.881
369.92	11.062
370.13	8.148
370.34	9.540
370.54	7.558
370.75	9.416
370.95	7.455
371.16	9.186
371.37	8.825
371.57	9.187
371.78	8.545
371.98	9.373
372.19	9.563
372.40	10.525
372.60	9.704
372.81	9.452
373.01	8.399
373.22	8.269
373.43	9.563
373.63	8.330
373.84	9.947
374.04	8.320
374.25	8.375
374.46	10.127
374.66	9.285
374.87	9.816
375.07	7.529
375.28	8.336
375.48	8.956
375.69	9.473
375.90	7.162
376.10	7.938
376.31	8.589
376.51	7.782
376.72	7.911
376.92	8.564
377.13	8.848
377.34	8.547
377.54	7.871
377.75	9.764
377.95	8.764
378.16	9.227
378.36	8.909
378.57	9.641
378.77	8.664
378.98	8.077
379.19	7.948
379.39	7.665
379.60	8.414
379.80	7.862
380.01	9.104
380.21	8.347
380.42	9.999
380.62	8.875
380.83	9.007
381.04	7.865
381.24	9.360
381.45	8.454
381.65	7.072
381.86	8.058
382.06	9.023
382.27	7.654
382.47	7.385
382.68	9.556
382.88	7.393
383.09	7.806
383.29	8.827
383.50	10.001
383.71	8.561
383.91	8.361
384.12	8.457
384.32	8.435
384.53	8.239
384.73	7.720
384.94	7.714
385.14	8.252
385.35	7.366
385.55	8.969
385.76	8.004
385.96	7.883
386.17	9.007
386.37	9.454
386.58	8.490
386.78	9.601
386.99	6.949
387.19	10.057
387.40	8.307
387.60	10.804
387.81	8.609
388.01	8.575
388.22	9.008
388.42	9.759
388.63	9.799
388.83	11.038
389.04	7.806
389.24	9.006
389.45	8.540
389.65	8.331
389.86	9.199
390.06	8.161
390.27	8.073
390.47	8.077
390.68	8.419
390.88	10.224
391.09	9.531
391.29	9.900
391.50	9.199
391.70	9.695
391.91	9.189
392.11	9.087
392.32	9.006
392.52	9.806
392.73	8.559
392.93	9.882
393.14	9.022
393.34	9.119
393.55	9.003
393.75	9.625
393.95	9.020
394.16	10.018
394.36	9.911
394.57	9.926
394.77	9.084
394.98	9.301
395.18	9.417
395.39	9.046
395.59	8.981
395.80	9.725
396.00	9.452
396.21	10.675
396.41	9.170
396.61	10.601
396.82	9.624
397.02	11.679
397.23	9.822
397.43	8.736
397.64	8.249
397.84	10.062
398.05	7.795
398.25	10.081
398.45	9.050
398.66	9.696
398.86	9.200
399.07	9.878
399.27	8.835
399.48	9.539
399.68	8.846
399.89	9.088
400.09	9.656
400.29	8.824
400.50	8.964
400.70	9.616
400.91	9.081
401.11	8.902
401.32	9.318
401.52	8.239
401.72	8.652
401.93	10.663
402.13	8.690
402.34	9.056
402.54	7.748
402.75	10.864
402.95	7.849
403.15	10.309
403.36	8.121
403.56	10.544
403.77	8.592
403.97	8.463
404.17	8.925
404.38	9.810
404.58	8.335
404.79	9.970
404.99	9.134
405.19	9.025
405.40	8.658
405.60	9.116
405.81	8.510
406.01	8.381
406.21	8.661
406.42	8.947
406.62	9.168
406.83	9.058
407.03	9.463
407.23	8.516
407.44	8.258
407.64	9.593
407.85	8.667
408.05	8.194
408.25	8.383
408.46	9.749
408.66	9.173
408.87	9.354
409.07	8.395
409.27	8.007
409.48	7.929
409.68	9.069
409.88	6.835
410.09	8.158
410.29	8.694
410.50	9.728
410.70	7.285
410.90	8.066
411.11	7.519
411.31	8.011
411.51	8.760
411.72	9.021
411.92	8.058
412.12	8.475
412.33	7.404
412.53	7.978
412.74	6.679
412.94	8.134
413.14	8.577
413.35	8.304
413.55	8.580
413.75	9.426
413.96	7.167
414.16	7.775
414.36	8.093
414.57	8.274
414.77	7.854
414.97	8.119
415.18	7.984
415.38	8.393
415.58	7.619
415.79	7.042
415.99	6.821
416.19	8.830
416.40	8.055
416.60	8.123
416.80	7.103
417.01	8.053
417.21	6.371
417.41	8.619
417.62	7.756
417.82	8.262
418.02	7.142
418.23	8.396
418.43	7.727
418.63	8.193
418.84	8.200
419.04	7.803
419.24	8.595
419.45	8.508
419.65	8.295
419.85	8.903
420.06	7.827
420.26	8.606
420.46	8.434
420.67	8.601
420.87	8.486
421.07	8.786
421.28	8.033
421.48	8.688
421.68	8.516
421.88	8.895
422.09	8.498
422.29	8.635
422.49	8.196
422.70	8.405
422.90	8.318
423.10	8.609
423.31	8.138
423.51	8.272
423.71	7.951
423.91	8.860
424.12	8.241
424.32	8.706
424.52	8.184
424.73	8.422
424.93	8.088
425.13	8.070
425.33	7.897
425.54	8.077
425.74	7.973
425.94	8.835
426.15	8.543
426.35	8.309
426.55	8.037
426.75	8.480
426.96	8.082
427.16	8.003
427.36	8.331
427.57	8.550
427.77	7.912
427.97	8.327
428.17	8.204
428.38	8.196
428.58	6.819
428.78	8.444
428.98	7.393
429.19	7.293
429.39	6.815
429.59	7.833
429.79	6.490
430.00	6.867
430.20	7.128
430.40	7.015
430.60	7.008
430.81	7.403
431.01	6.601
431.21	7.602
431.41	6.880
431.62	7.538
431.82	6.960
432.02	7.509
432.22	6.572
432.43	7.143
432.63	6.476
432.83	7.590
433.03	6.850
433.24	6.856
433.44	6.545
433.64	7.702
433.84	7.028
434.05	7.562
434.25	7.224
434.45	7.757
434.65	7.772
434.85	8.091
435.06	7.672
435.26	7.283
435.46	7.362
435.66	7.544
435.87	7.092
436.07	7.679
436.27	7.578
436.47	7.265
436.67	6.741
436.88	7.433
437.08	6.896
437.28	7.257
437.48	7.120
437.69	7.749
437.89	7.146
438.09	7.821
438.29	7.193
438.49	7.653
438.70	7.418
438.90	7.011
439.10	6.762
439.30	7.388
439.50	6.433
439.71	7.609
439.91	7.016
440.11	7.704
440.31	7.333
440.51	7.504
440.72	7.174
440.92	7.247
441.12	7.571
441.32	8.029
441.52	7.865
441.72	7.866
441.93	7.574
442.13	7.925
442.33	7.241
442.53	8.199
442.73	7.216
442.94	7.621
443.14	7.479
443.34	8.032
443.54	7.408
443.74	7.878
443.94	7.425
444.15	6.968
444.35	7.254
444.55	7.892
444.75	6.873
444.95	7.442
445.15	7.240
445.36	7.227
445.56	6.782
445.76	7.392
445.96	6.916
446.16	7.181
446.36	6.745
446.57	7.696
446.77	6.758
446.97	7.668
447.17	7.603
447.37	7.882
447.57	7.403
447.77	7.487
447.98	7.709
448.18	7.888
448.38	7.294
448.58	7.788
448.78	7.558
448.98	7.637
449.18	7.315
449.39	7.725
449.59	7.157
449.79	7.836
449.99	7.041
450.19	7.623
450.39	7.138
450.59	7.403
450.79	6.963
451.00	7.499
451.20	8.447
451.40	7.330
451.60	6.486
451.80	7.540
452.00	6.864
452.20	7.630
452.40	6.798
452.61	7.146
452.81	7.592
453.01	7.049
453.21	6.842
453.41	7.216
453.61	7.060
453.81	7.105
454.01	7.118
454.21	7.469
454.42	7.538
454.62	7.400
454.82	7.240
455.02	7.455
455.22	6.685
455.42	6.969
455.62	6.044
455.82	7.314
456.02	6.900
456.23	7.144
456.43	6.492
456.63	7.030
456.83	6.321
457.03	7.496
457.23	6.682
457.43	6.869
457.63	6.675
457.83	7.352
458.03	6.738
458.23	7.383
458.43	6.132
458.64	6.967
458.84	6.787
459.04	7.090
459.24	7.102
459.44	6.984
459.64	7.105
459.84	6.900
460.04	7.146
460.24	7.396
460.44	7.058
460.64	7.260
460.84	7.254
461.04	7.687
461.24	7.519
461.45	7.884
461.65	7.766
461.85	7.838
462.05	7.181
462.25	7.639
462.45	7.835
462.65	7.603
462.85	6.630
463.05	7.543
463.25	6.394
463.45	7.140
463.65	7.002
463.85	7.392
464.05	6.380
464.25	7.115
464.45	6.969
464.65	6.914
464.85	6.353
465.05	7.202
465.26	6.717
465.46	7.198
465.66	7.041
465.86	6.949
466.06	6.965
466.26	6.857
466.46	5.993
466.66	6.916
466.86	6.489
467.06	7.072
467.26	7.091
467.46	7.295
467.66	7.037
467.86	6.659
468.06	6.996
468.26	7.008
468.46	6.827
468.66	6.869
468.86	6.455
469.06	7.427
469.26	6.157
469.46	6.911
469.66	6.561
469.86	7.203
470.06	6.676
470.26	7.652
470.46	6.064
470.66	7.599
470.86	6.362
471.06	6.935
471.26	6.519
471.46	6.361
471.66	6.658
471.86	6.832
472.06	6.508
472.26	7.406
472.46	7.391
472.66	7.688
472.86	6.520
473.06	6.923
473.26	6.696
473.46	7.299
473.66	6.483
473.86	7.375
474.06	6.586
474.26	7.178
474.46	6.489
474.66	7.699
474.86	7.101
475.06	7.304
475.26	6.467
475.46	7.075
475.66	6.064
475.86	7.069
476.06	7.314
476.26	7.551
476.46	6.643
476.66	7.267
476.86	6.308
477.06	7.384
477.26	6.626
477.46	7.479
477.65	6.816
477.85	7.432
478.05	6.725
478.25	7.862
478.45	6.702
478.65	7.478
478.85	6.808
479.05	7.283
479.25	7.002
479.45	7.666
479.65	6.898
479.85	7.391
480.05	7.183
480.25	7.381
480.45	7.459
480.65	7.932
480.85	7.001
481.05	7.949
481.25	7.404
481.44	7.790
481.64	6.453
481.84	7.661
482.04	7.647
482.24	7.983
482.44	7.262
482.64	7.628
482.84	7.611
483.04	7.634
483.24	7.432
483.44	7.644
483.64	7.582
483.84	7.425
484.04	7.703
484.23	7.859
484.43	7.872
484.63	7.977
484.83	8.106
485.03	8.378
485.23	8.419
485.43	8.470
485.63	8.393
485.83	8.342
486.03	8.300
486.23	8.343
486.42	8.323
486.62	8.340
486.82	7.983
487.02	8.044
487.22	7.915
487.42	8.082
487.62	7.964
487.82	7.753
488.02	8.003
488.22	7.872
488.41	8.092
488.61	8.003
488.81	7.980
489.01	8.174
489.21	8.179
489.41	8.374
489.61	8.181
489.81	8.197
490.01	8.494
490.20	8.375
490.40	8.259
490.60	8.341
490.80	7.717
491.00	8.204
491.20	8.107
491.40	7.752
491.60	7.808
491.79	7.843
491.99	7.797
492.19	7.922
492.39	8.063
492.59	8.030
492.79	7.931
492.99	8.008
493.19	8.133
493.38	8.252
493.58	8.225
493.78	8.427
493.98	8.354
494.18	8.348
494.38	8.254
494.58	8.381
494.77	8.039
494.97	7.946
495.17	7.829
495.37	8.057
495.57	8.064
495.77	8.152
495.96	7.852
496.16	7.971
496.36	7.257
496.56	7.804
496.76	7.354
496.96	7.561
497.15	7.661
497.35	7.733
497.55	7.690
497.75	7.998
497.95	7.641
498.15	8.109
498.34	7.833
498.54	7.915
498.74	8.287
498.94	8.142
499.14	7.794
499.34	8.320
499.53	7.871
499.73	8.243
499.93	7.691
500.13	7.967
500.33	7.467
500.52	8.110
500.72	7.776
500.92	7.837
501.12	7.423
501.32	7.394
501.52	8.044
501.71	7.552
501.91	7.383
502.11	7.557
502.31	7.513
502.51	8.210
502.70	7.419
502.90	8.022
503.10	7.515
503.30	8.310
503.50	7.824
503.69	7.672
503.89	7.605
504.09	7.869
504.29	7.574
504.48	8.024
504.68	7.921
504.88	8.196
505.08	7.281
505.28	8.225
505.47	8.019
505.67	8.395
505.87	7.893
506.07	7.999
506.27	8.032
506.46	8.348
506.66	7.772
506.86	8.117
507.06	8.314
507.25	8.467
507.45	7.931
507.65	8.726
507.85	7.739
508.04	8.667
508.24	8.148
508.44	8.169
508.64	7.945
508.83	8.442
509.03	7.937
509.23	8.349
509.43	7.806
509.63	8.455
509.82	8.072
510.02	8.668
510.22	8.037
510.42	8.487
510.61	8.372
510.81	8.269
511.01	8.748
511.21	8.609
511.40	7.956
511.60	8.427
511.80	8.551
511.99	8.472
512.19	8.601
512.39	8.747
512.59	8.419
512.78	8.645
512.98	8.559
513.18	8.482
513.38	8.566
513.57	8.532
513.77	8.536
513.97	8.544
514.17	8.517
514.36	8.647
514.56	8.884
514.76	8.919
514.95	8.112
515.15	8.608
515.35	7.901
515.55	8.593
515.74	8.527
515.94	8.639
516.14	8.220
516.33	8.583
516.53	8.285
516.73	8.482
516.93	8.534
517.12	8.796
517.32	8.389
517.52	9.129
517.71	8.432
517.91	8.761
518.11	8.708
518.30	8.632
518.50	8.372
518.70	8.845
518.90	8.774
519.09	8.893
519.29	8.906
519.49	9.084
519.68	8.833
519.88	9.041
520.08	8.850
520.27	8.811
520.47	9.243
520.67	9.158
520.86	9.080
521.06	9.356
521.26	8.988
521.45	9.092
521.65	9.107
521.85	9.187
522.04	8.893
522.24	8.961
522.44	8.635
522.63	9.000
522.83	8.698
523.03	9.288
523.22	9.012
523.42	9.529
523.62	9.159
523.81	9.096
524.01	9.338
524.21	8.982
524.40	9.077
524.60	9.192
524.80	8.580
524.99	8.729
525.19	8.682
525.39	8.992
525.58	8.993
525.78	9.019
525.98	9.082
526.17	9.056
526.37	9.010
526.57	9.187
526.76	9.420
526.96	9.673
527.15	9.210
527.35	9.372
527.55	9.182
527.74	9.129
527.94	9.375
528.14	9.004
528.33	9.033
528.53	9.076
528.72	9.226
528.92	9.202
529.12	9.330
529.31	9.283
529.51	9.477
529.71	9.550
529.90	9.593
530.10	9.519
530.29	9.854
530.49	9.754
530.69	9.947
530.88	10.011
531.08	9.782
531.28	9.625
531.47	9.772
531.67	9.798
531.86	9.830
532.06	9.716
532.26	9.336
532.45	9.539
532.65	9.655
532.84	9.418
533.04	9.099
533.24	9.567
533.43	9.198
533.63	9.624
533.82	9.810
534.02	9.775
534.22	9.793
534.41	9.752
534.61	9.763
534.80	9.789
535.00	9.910
535.19	9.826
535.39	10.147
535.59	10.350
535.78	9.946
535.98	9.912
536.17	9.788
536.37	9.560
536.57	9.568
536.76	9.759
536.96	9.637
537.15	10.008
537.35	9.574
537.54	9.893
537.74	9.962
537.93	10.070
538.13	10.228
538.33	10.121
538.52	10.000
538.72	10.292
538.91	10.320
539.11	10.370
539.30	10.330
539.50	10.410
539.70	10.161
539.89	10.355
540.09	10.189
540.28	10.062
540.48	9.576
540.67	9.812
540.87	9.883
541.06	10.018
541.26	9.980
541.45	10.066
541.65	10.081
541.85	10.037
542.04	10.010
542.24	10.236
542.43	10.330
542.63	10.554
542.82	10.609
543.02	10.707
543.21	10.832
543.41	10.894
543.60	10.785
543.80	10.799
543.99	10.725
544.19	10.864
544.38	10.873
544.58	10.610
544.77	10.722
544.97	11.051
545.16	10.909
545.36	11.342
545.56	10.861
545.75	10.880
545.95	11.041
546.14	11.044
546.34	10.961
546.53	11.048
546.73	10.654
546.92	10.967
547.12	11.038
547.31	10.871
547.51	11.037
547.70	11.179
547.90	11.069
548.09	11.516
548.29	11.040
548.48	11.538
548.68	11.064
548.87	11.592
549.07	11.694
549.26	11.431
549.46	11.226
549.65	11.574
549.84	11.246
550.04	11.626
550.23	10.766
550.43	11.490
550.62	11.533
550.82	11.840
551.01	11.292
551.21	11.394
551.40	11.405
551.60	11.789
551.79	11.667
551.99	11.588
552.18	11.362
552.38	12.110
552.57	11.836
552.77	11.659
552.96	11.977
553.16	12.417
553.35	12.090
553.54	12.397
553.74	12.357
553.93	12.489
554.13	12.825
554.32	12.579
554.52	12.761
554.71	12.832
554.91	11.632
555.10	12.976
555.29	11.995
555.49	12.925
555.68	12.381
555.88	12.717
556.07	12.441
556.27	12.808
556.46	12.488
556.66	13.226
556.85	13.075
557.04	12.971
557.24	12.830
557.43	13.591
557.63	12.757
557.82	13.286
558.02	12.388
558.21	13.895
558.40	12.700
558.60	13.807
558.79	13.622
558.99	13.583
559.18	13.346
559.38	13.676
559.57	13.290
559.76	13.692
559.96	14.588
560.15	14.256
560.35	13.937
560.54	13.855
560.73	13.510
560.93	13.734
561.12	13.970
561.32	14.295
561.51	13.809
561.70	14.545
561.90	14.505
562.09	14.854
562.29	14.428
562.48	15.209
562.67	14.864
562.87	15.006
563.06	14.641
563.26	14.999
563.45	15.120
563.64	15.301
563.84	15.258
564.03	15.062
564.23	15.075
564.42	15.377
564.61	15.008
564.81	15.568
565.00	16.069
565.20	15.710
565.39	15.630
565.58	15.858
565.78	15.899
565.97	16.254
566.16	16.526
566.36	16.384
566.55	16.413
566.74	15.804
566.94	16.789
567.13	16.689
567.33	16.579
567.52	16.732
567.71	16.762
567.91	16.810
568.10	17.004
568.29	17.208
568.49	17.143
568.68	16.853
568.87	17.239
569.07	17.523
569.26	17.447
569.45	17.668
569.65	17.582
569.84	17.056
570.04	17.547
570.23	17.451
570.42	17.519
570.62	17.975
570.81	18.129
571.00	17.810
571.20	17.625
571.39	18.068
571.58	17.882
571.78	17.784
571.97	17.635
572.16	17.740
572.36	17.757
572.55	18.037
572.74	18.084
572.94	17.965
573.13	18.111
573.32	18.230
573.51	18.476
573.71	18.548
573.90	18.192
574.09	18.504
574.29	18.648
574.48	18.776
574.67	18.448
574.87	18.802
575.06	18.379
575.25	18.614
575.45	18.364
575.64	18.632
575.83	18.635
576.03	19.789
576.22	19.075
576.41	18.681
576.60	18.702
576.80	18.714
576.99	18.951
577.18	18.893
577.38	19.348
577.57	19.285
577.76	19.156
577.95	18.383
578.15	19.418
578.34	19.067
578.53	18.805
578.73	18.654
578.92	19.329
579.11	19.152
579.30	19.341
579.50	19.441
579.69	19.130
579.88	19.515
580.08	18.693
580.27	19.406
580.46	18.711
580.65	18.954
580.85	19.120
581.04	19.567
581.23	19.001
581.42	18.750
581.62	19.452
581.81	19.150
582.00	19.186
582.19	18.780
582.39	18.452
582.58	18.949
582.77	19.827
582.96	19.523
583.16	18.674
583.35	19.283
583.54	19.236
583.73	19.601
583.93	18.604
584.12	18.887
584.31	18.674
584.50	18.682
584.70	18.832
584.89	19.124
585.08	19.512
585.27	18.994
585.47	18.608
585.66	19.114
585.85	18.788
586.04	18.989
586.24	19.032
586.43	19.032
586.62	19.545
586.81	19.062
587.00	18.735
587.20	18.701
587.39	18.230
587.58	19.412
587.77	18.994
587.97	19.092
588.16	18.973
588.35	19.693
588.54	18.058
588.73	18.894
588.93	18.722
589.12	19.075
589.31	18.947
589.50	19.261
589.69	19.078
589.89	19.350
590.08	18.888
590.27	18.889
590.46	19.149
590.65	19.037
590.85	18.732
591.04	18.839
591.23	19.078
591.42	19.701
591.61	19.176
591.81	19.292
592.00	18.696
592.19	19.689
592.38	19.103
592.57	19.571
592.77	18.961
592.96	18.664
593.15	19.928
593.34	19.237
593.53	19.743
593.72	19.216
593.92	18.662
594.11	19.491
594.30	18.811
594.49	19.750
594.68	19.627
594.87	19.065
595.07	18.326
595.26	19.412
595.45	18.755
595.64	19.609
595.83	18.818
596.02	19.759
596.22	19.701
596.41	19.318
596.60	19.148
596.79	20.269
596.98	19.598
597.17	19.912
597.37	19.460
597.56	19.862
597.75	19.268
597.94	19.841
598.13	20.376
598.32	19.742
598.51	19.949
598.71	20.735
598.90	20.225
599.09	20.487
599.28	20.160
599.47	19.979
599.66	19.822
599.85	20.662
600.05	19.653
600.24	20.883
600.43	20.026
600.62	20.346
600.81	20.298
601.00	20.358
601.19	20.911
601.38	21.123
601.58	21.000
601.77	20.274
601.96	20.093
602.15	20.939
602.34	20.835
602.53	21.693
602.72	20.531
602.91	20.939
603.10	20.568
603.30	20.615
603.49	19.956
603.68	20.791
603.87	20.364
604.06	20.790
604.25	21.128
604.44	20.563
604.63	21.016
604.82	20.226
605.01	21.023
605.21	20.598
605.40	20.537
605.59	21.100
605.78	20.096
605.97	21.245
606.16	21.059
606.35	20.889
606.54	21.360
606.73	20.532
606.92	20.797
607.11	21.338
607.30	21.070
607.50	20.494
607.69	21.148
607.88	21.131
608.07	20.260
608.26	20.617
608.45	20.193
608.64	21.014
608.83	19.687
609.02	20.499
609.21	20.014
609.40	20.176
609.59	20.561
609.78	20.417
609.97	19.892
610.16	19.586
610.35	19.898
610.55	20.027
610.74	19.979
610.93	20.288
611.12	20.186
611.31	20.065
611.50	20.286
611.69	19.858
611.88	20.592
612.07	20.163
612.26	19.187
612.45	19.861
612.64	19.715
612.83	20.064
613.02	19.435
613.21	19.683
613.40	18.657
613.59	20.040
613.78	18.903
613.97	19.204
614.16	18.887
614.35	18.535
614.54	17.400
614.73	19.161
614.92	18.702
615.11	19.247
615.30	18.284
615.49	18.118
615.68	17.952
615.87	18.503
616.07	17.604
616.26	18.720
616.45	18.284
616.64	18.930
616.83	18.060
617.02	18.538
617.21	17.119
617.40	18.164
617.59	18.485
617.78	18.387
617.97	17.823
618.16	17.442
618.35	16.700
618.54	18.279
618.73	17.393
618.92	18.392
619.11	17.287
619.30	17.955
619.49	16.993
619.68	18.161
619.86	17.566
620.05	18.095
620.24	16.713
620.43	17.764
620.62	16.004
620.81	18.579
621.00	16.563
621.19	17.615
621.38	17.760
621.57	17.359
621.76	16.616
621.95	16.425
622.14	17.313
622.33	18.155
622.52	16.662
622.71	17.828
622.90	15.954
623.09	17.146
623.28	16.923
623.47	16.655
623.66	16.891
623.85	16.955
624.04	16.021
624.23	16.310
624.42	16.653
624.61	17.145
624.80	16.389
624.99	17.236
625.18	15.917
625.36	17.388
625.55	16.930
625.74	17.222
625.93	16.059
626.12	17.487
626.31	16.464
626.50	17.480
626.69	16.203
626.88	17.574
627.07	16.906
627.26	16.478
627.45	16.548
627.64	16.860
627.83	16.478
628.02	17.027
628.20	16.641
628.39	17.254
628.58	16.533
628.77	17.055
628.96	16.511
629.15	17.172
629.34	17.048
629.53	16.510
629.72	15.586
629.91	17.037
630.10	16.063
630.29	16.114
630.47	15.762
630.66	16.135
630.85	15.425
631.04	16.153
631.23	15.661
631.42	16.409
631.61	14.966
631.80	16.721
631.99	15.377
632.18	15.725
632.36	14.697
632.55	16.524
632.74	15.112
632.93	15.254
633.12	15.388
633.31	16.337
633.50	15.373
633.69	16.005
633.88	15.203
634.06	14.789
634.25	15.729
634.44	16.146
634.63	15.330
634.82	16.552
635.01	15.211
635.20	15.715
635.39	15.070
635.57	16.097
635.76	15.380
635.95	15.592
636.14	14.554
636.33	15.932
636.52	15.301
636.71	15.633
636.89	15.405
637.08	15.784
637.27	14.177
637.46	15.693
637.65	14.738
637.84	15.533
638.03	15.487
638.21	16.055
638.40	15.620
638.59	15.750
638.78	15.158
638.97	16.450
639.16	15.886
639.34	15.516
639.53	14.708
639.72	16.399
639.91	14.702
640.10	14.773
640.29	16.622
640.47	15.937
640.66	15.776
640.85	16.456
641.04	13.862
641.23	16.316
641.42	15.455
641.60	15.788
641.79	14.580
641.98	15.949
642.17	14.243
642.36	15.875
642.54	14.278
642.73	16.218
642.92	14.326
643.11	15.022
643.30	15.275
643.49	15.541
643.67	13.726
643.86	15.719
644.05	14.455
644.24	14.963
644.43	14.603
644.61	15.537
644.80	15.339
644.99	15.436
645.18	15.967
645.37	16.318
645.55	14.482
645.74	14.642
645.93	15.035
646.12	15.650
646.31	15.149
646.49	15.094
646.68	14.957
646.87	15.068
647.06	14.931
647.24	15.027
647.43	12.642
647.62	16.611
647.81	13.121
648.00	15.825
648.18	13.912
648.37	14.881
648.56	14.730
648.75	14.353
648.93	14.495
649.12	15.390
649.31	15.484
649.50	14.494
649.68	14.767
649.87	14.935
650.06	12.679
650.25	14.584
650.43	14.287
650.62	14.093
650.81	13.214
651.00	15.205
651.18	13.289
651.37	15.254
651.56	13.637
651.75	14.804
651.93	13.924
652.12	14.688
652.31	13.232
652.50	15.078
652.68	14.644
652.87	14.904
653.06	14.587
653.25	14.881
653.43	13.420
653.62	15.141
653.81	13.429
654.00	14.678
654.18	13.601
654.37	14.877
654.56	14.164
654.74	11.805
654.93	14.380
655.12	12.802
655.31	13.834
655.49	13.719
655.68	13.062
655.87	12.687
656.05	12.918
656.24	13.524
656.43	11.077
656.62	13.426
656.80	12.536
656.99	12.459
657.18	11.965
657.36	11.835
657.55	12.798
657.74	12.606
657.93	13.704
658.11	14.326
658.30	12.476
658.49	11.700
658.67	11.553
658.86	12.049
659.05	11.416
659.23	12.288
659.42	11.856
659.61	11.836
659.79	11.698
659.98	11.715
660.17	12.782
660.35	12.033
660.54	11.822
660.73	12.718
660.91	11.790
661.10	11.830
661.29	9.721
661.47	10.269
661.66	10.293
661.85	11.536
662.03	10.910
662.22	10.107
662.41	9.395
662.59	10.449
662.78	9.406
662.97	10.110
663.15	10.884
663.34	8.389
663.53	8.604
663.71	10.385
663.90	8.970
664.09	10.161
664.27	10.267
664.46	9.369
664.65	8.832
664.83	9.406
665.02	7.621
665.21	7.538
665.39	7.191
665.58	9.736
665.77	8.222
665.95	9.118
666.14	7.380
666.32	8.441
666.51	7.441
666.70	8.219
666.88	7.463
667.07	7.481
667.26	8.320
667.44	8.611
667.63	9.263
667.81	7.544
668.00	8.338
668.19	9.268
668.37	7.759
668.56	9.401
668.75	7.291
668.93	9.874
669.12	7.684
669.30	8.256
669.49	8.105
669.68	8.736
669.86	9.487
670.05	7.138
670.23	8.791
670.42	7.787
670.61	8.181
670.79	8.380
670.98	7.915
671.16	9.129
671.35	7.062
671.54	8.353
671.72	8.198
671.91	9.491
672.09	7.565
672.28	10.153
672.46	9.378
672.65	9.316
672.84	8.806
673.02	9.810
673.21	7.545
673.39	8.483
673.58	8.993
673.77	8.834
673.95	8.651
674.14	9.932
674.32	8.705
674.51	10.707
674.69	8.969
674.88	9.602
675.07	9.111
675.25	11.419
675.44	8.969
675.62	9.230
675.81	8.088
675.99	11.400
676.18	11.201
676.36	9.251
676.55	9.365
676.74	11.941
676.92	10.445
677.11	11.132
677.29	8.302
677.48	11.405
677.66	10.856
677.85	9.608
678.03	9.922
678.22	11.111
678.40	10.020
678.59	10.592
678.78	9.478
678.96	9.801
679.15	10.119
679.33	11.977
679.52	11.999
679.70	11.072
679.89	10.647
680.07	11.720
680.26	9.811
680.44	12.418
680.63	11.124
680.81	12.667
681.00	10.092
681.18	11.446
681.37	10.863
681.55	13.061
681.74	12.281
681.92	12.683
682.11	12.011
682.29	11.742
682.48	11.852
682.66	13.226
682.85	12.080
683.03	12.726
683.22	13.508
683.40	13.092
683.59	12.293
683.77	14.086
683.96	12.547
684.14	14.320
684.33	10.670
684.51	14.555
684.70	13.704
684.88	14.670
685.07	14.032
685.25	16.246
685.44	13.135
685.62	15.117
685.81	12.875
685.99	16.409
686.18	13.430
686.36	15.632
686.55	13.393
686.73	14.447
686.92	16.468
687.10	16.459
687.29	15.218
687.47	17.582
687.65	17.339
687.84	16.720
688.02	19.250
688.21	18.635
688.39	15.590
688.58	18.443
688.76	17.282
688.95	17.724
689.13	18.064
689.32	19.456
689.50	20.033
689.68	19.857
689.87	17.942
690.05	19.228
690.24	19.237
690.42	18.464
690.61	21.498
690.79	21.929
690.98	20.207
691.16	20.850
691.34	19.335
691.53	22.306
691.71	20.035
691.90	21.162
692.08	20.019
692.27	24.038
692.45	23.403
692.63	22.521
692.82	24.666
693.00	23.075
693.19	21.688
693.37	25.377
693.56	21.782
693.74	24.780
693.92	24.218
694.11	27.488
694.29	25.549
694.48	25.873
694.66	26.572
694.84	27.020
695.03	25.579
695.21	27.525
695.40	28.657
695.58	29.175
695.76	26.735
695.95	29.313
696.13	26.711
696.32	31.227
696.50	32.398
696.68	30.144
696.87	28.927
697.05	31.670
697.24	31.277
697.42	32.303
697.60	31.135
697.79	33.025
697.97	31.310
698.16	33.513
698.34	30.503
698.52	34.255
698.71	32.332
698.89	32.994
699.07	33.007
699.26	33.124
699.44	32.953
699.63	34.594
699.81	33.235
699.99	33.872
700.18	34.607
700.36	34.564
700.54	35.057
700.73	34.966
700.91	34.827
701.09	35.324
701.28	36.001
701.46	36.235
701.64	36.873
701.83	38.000
702.01	37.356
702.20	39.080
702.38	37.366
702.56	37.596
702.75	37.253
702.93	38.505
703.11	37.663
703.30	39.535
703.48	38.422
703.66	40.318
703.85	39.588
704.03	40.595
704.21	39.017
704.40	41.168
704.58	38.917
704.76	41.607
704.95	40.196
705.13	38.920
705.31	39.955
705.50	42.593
705.68	38.705
705.86	41.931
706.04	40.224
706.23	44.071
706.41	41.098
706.59	39.961
706.78	41.562
706.96	43.070
707.14	39.105
707.33	43.125
707.51	40.980
707.69	42.979
707.88	42.573
708.06	42.994
708.24	43.825
708.42	45.197
708.61	41.430
708.79	41.696
708.97	43.792
709.16	43.776
709.34	44.526
709.52	44.618
709.71	41.927
709.89	43.691
710.07	41.304
710.25	44.187
710.44	41.879
710.62	45.579
710.80	43.405
710.98	44.839
711.17	43.875
711.35	43.798
711.53	43.152
711.72	44.527
711.90	44.522
712.08	44.819
712.26	43.434
712.45	44.281
712.63	42.995
712.81	45.384
712.99	44.295
713.18	44.529
713.36	45.596
713.54	44.430
713.72	43.133
713.91	45.675
714.09	43.521
714.27	43.593
714.45	44.072
714.64	44.683
714.82	44.780
715.00	45.756
715.18	44.960
715.37	45.524
715.55	44.021
715.73	44.784
715.91	45.171
716.10	45.049
716.28	42.927
716.46	46.321
716.64	45.398
716.83	45.597
717.01	44.344
717.19	46.160
717.37	43.248
717.55	46.519
717.74	45.073
717.92	45.230
718.10	42.196
718.28	44.657
718.47	43.433
718.65	44.872
718.83	45.296
719.01	46.968
719.19	43.713
719.38	46.751
719.56	46.639
719.74	45.440
719.92	41.239
720.10	46.113
720.29	44.268
720.47	45.421
720.65	46.370
720.83	49.099
721.01	44.241
721.20	46.463
721.38	45.361
721.56	43.807
721.74	47.543
721.92	46.048
722.11	47.074
722.29	45.199
722.47	43.646
722.65	47.182
722.83	46.618
723.01	46.721
723.20	45.356
723.38	43.928
723.56	43.002
723.74	49.260
723.92	44.285
724.10	46.420
724.29	44.671
724.47	48.163
724.65	45.640
724.83	48.315
725.01	43.190
725.19	47.478
725.38	46.525
725.56	46.307
725.74	46.527
725.92	48.137
726.10	47.835
726.28	48.746
726.46	46.553
726.65	48.575
726.83	47.287
727.01	47.683
727.19	46.257
727.37	45.087
727.55	48.228
727.73	49.718
727.92	47.484
728.10	46.560
728.28	46.043
728.46	49.370
728.64	46.256
728.82	46.934
729.00	47.208
729.19	48.680
729.37	47.010
729.55	51.117
729.73	45.416
729.91	48.094
730.09	49.181
730.27	51.405
730.45	47.038
730.63	49.038
730.82	47.701
731.00	48.372
731.18	48.542
731.36	48.918
731.54	47.178
731.72	48.123
731.90	46.587
732.08	48.499
732.26	48.305
732.45	50.556
732.63	49.056
732.81	50.754
732.99	47.865
733.17	50.166
733.35	48.970
733.53	50.170
733.71	48.774
733.89	50.362
734.07	50.662
734.25	49.913
734.44	48.961
734.62	47.610
734.80	49.887
734.98	52.242
735.16	49.893
735.34	51.874
735.52	52.574
735.70	49.648
735.88	53.361
736.06	52.882
736.24	52.883
736.42	52.657
736.60	51.615
736.78	52.867
736.97	52.038
737.15	53.196
737.33	48.523
737.51	54.093
737.69	53.719
737.87	55.871
738.05	51.830
738.23	53.302
738.41	50.203
738.59	52.518
738.77	50.535
738.95	53.724
739.13	51.613
739.31	54.466
739.49	55.096
739.67	53.167
739.85	51.143
740.03	51.491
740.21	53.450
740.39	55.153
740.57	54.886
740.75	52.430
740.93	52.386
741.11	53.072
741.30	52.904
741.48	56.273
741.66	54.125
741.84	54.804
742.02	53.836
742.20	56.080
742.38	55.077
742.56	54.370
742.74	52.516
742.92	53.778
743.10	53.512
743.28	56.511
743.46	53.887
743.64	53.348
743.82	53.377
744.00	56.988
744.18	56.547
744.36	57.602
744.54	54.457
744.72	55.732
744.90	58.553
745.08	56.323
745.26	55.985
745.44	57.078
745.62	52.477
745.80	56.830
745.98	54.619
746.16	58.238
746.34	56.236
746.52	54.548
746.70	53.249
746.87	56.320
747.05	53.444
747.23	56.183
747.41	57.120
747.59	55.927
747.77	53.436
747.95	57.045
748.13	53.969
748.31	57.165
748.49	56.512
748.67	55.057
748.85	52.582
749.03	57.231
749.21	57.285
749.39	56.942
749.57	52.338
749.75	56.491
749.93	56.353
750.11	57.616
750.29	53.235
750.47	56.136
750.65	53.703
750.83	55.259
751.01	54.389
751.18	55.266
751.36	54.046
751.54	60.851
751.72	56.338
751.90	56.833
752.08	51.405
752.26	54.246
752.44	56.879
752.62	57.900
752.80	55.502
752.98	56.169
753.16	60.068
753.34	57.214
753.52	56.026
753.69	57.634
753.87	56.848
754.05	57.934
754.23	53.106
754.41	56.918
754.59	56.281
754.77	56.998
754.95	56.112
755.13	54.872
755.31	56.108
755.49	58.038
755.66	58.062
755.84	54.515
756.02	54.399
756.20	58.874
756.38	56.425
756.56	58.488
756.74	53.624
756.92	55.783
757.10	52.833
757.28	59.968
757.45	59.491
757.63	61.506
757.81	52.061
757.99	60.705
758.17	57.066
758.35	58.550
758.53	58.037
758.71	57.987
758.88	55.937
759.06	60.377
759.24	51.352
759.42	57.205
759.60	54.562
759.78	56.076
759.96	52.411
760.13	57.475
760.31	47.472
760.49	53.233
760.67	49.511
760.85	49.668
761.03	49.403
761.21	44.535
761.38	48.411
761.56	52.675
761.74	46.772
761.92	52.661
762.10	43.657
762.28	53.311
762.46	45.209
762.63	51.237
762.81	48.550
762.99	48.570
763.17	49.326
763.35	48.559
763.53	47.830
763.70	50.932
763.88	48.956
764.06	51.980
764.24	51.404
764.42	51.117
764.60	50.443
764.77	50.788
764.95	49.562
765.13	50.941
765.31	50.844
765.49	52.272
765.66	48.874
765.84	52.525
766.02	51.161
766.20	51.905
766.38	50.422
766.56	51.479
766.73	52.231
766.91	53.734
767.09	58.232
767.27	54.151
767.45	52.931
767.62	53.065
767.80	52.248
767.98	55.194
768.16	50.558
768.33	55.434
768.51	54.961
768.69	53.941
768.87	50.573
769.05	57.593
769.22	54.600
769.40	60.173
769.58	56.359
769.76	55.307
769.94	53.872
770.11	56.012
770.29	52.690
770.47	58.466
770.65	56.883
770.82	57.410
771.00	57.237
771.18	58.688
771.36	53.278
771.53	58.014
771.71	52.968
771.89	58.677
772.07	57.474
772.25	58.800
772.42	54.779
772.60	57.910
772.78	54.270
772.96	59.905
773.13	59.567
773.31	59.923
773.49	53.219
773.67	57.280
773.84	53.891
774.02	54.405
774.20	51.276
774.37	55.645
774.55	57.346
774.73	57.897
774.91	53.354
775.08	61.201
775.26	59.282
775.44	61.388
775.62	55.775
775.79	54.873
775.97	59.730
776.15	56.534
776.32	50.344
776.50	60.347
776.68	60.083
776.86	58.636
777.03	54.985
777.21	55.432
777.39	50.734
777.56	60.599
777.74	51.758
777.92	52.349
778.10	57.632
778.27	57.411
778.45	56.418
778.63	61.659
778.80	52.963
778.98	61.235
779.16	58.521
779.34	57.171
779.51	54.496
779.69	57.580
779.87	55.249
780.04	58.736
780.22	50.167
780.40	60.636
780.57	54.169
780.75	54.288
780.93	54.573
781.10	57.080
781.28	66.968
781.46	55.514
781.63	57.512
781.81	60.455
781.99	49.516
782.16	57.620
782.34	55.628
782.52	57.296
782.69	60.957
782.87	57.738
783.05	52.337
783.22	59.212
783.40	50.000
783.58	58.628
783.75	55.567
783.93	59.967
784.11	52.064
784.28	61.678
784.46	58.227
784.64	57.265
784.81	52.919
784.99	63.813
785.17	55.896
785.34	56.367
785.52	50.893
785.69	59.405
785.87	51.745
786.05	55.881
786.22	58.352
786.40	63.223
786.58	54.849
786.75	55.808
786.93	54.633
787.11	54.449
787.28	56.000
787.46	61.269
787.63	54.656
787.81	59.350
787.99	56.672
788.16	48.059
788.34	52.750
788.51	58.873
788.69	52.195
788.87	51.466
789.04	54.051
789.22	56.964
789.39	56.402
789.57	57.732
789.75	51.983
789.92	55.331
790.10	50.000
790.27	52.880
790.45	46.857
790.63	55.021
790.80	51.301
790.98	52.374
791.15	50.705
791.33	57.980
791.51	50.054
791.68	55.515
791.86	53.825
792.03	54.561
792.21	48.940
792.39	55.815
792.56	51.336
792.74	53.929
792.91	50.229
793.09	53.398
793.26	50.000
793.44	60.000
793.62	54.388
793.79	53.617
793.97	53.745
794.14	58.856
794.32	52.204
794.49	53.682
794.67	47.331
794.84	53.441
795.02	48.483
795.20	54.349
795.37	50.535
795.55	54.535
795.72	54.306
795.90	58.008
796.07	55.028
796.25	53.731
796.42	51.649
796.60	49.048
796.77	52.522
796.95	47.627
797.13	45.963
797.30	58.355
797.48	48.813
797.65	53.146
797.83	48.168
798.00	54.805
798.18	48.394
798.35	61.261
798.53	52.596
798.70	49.866
798.88	51.454
799.05	54.791
799.23	47.316
799.40	53.385
799.58	57.586
799.75	52.069
799.93	54.347
800.10	56.070
800.28	55.726
800.45	56.699
800.63	48.839
800.80	53.974
800.98	50.328
801.15	51.440
801.33	56.707
801.50	50.091
801.68	47.654
801.85	51.555
802.03	49.379
802.20	57.260
802.38	53.875
802.55	50.030
802.73	51.158
802.90	51.534
803.08	45.571
803.25	58.855
803.43	55.087
803.60	55.691
803.78	49.284
803.95	52.997
804.13	53.583
804.30	58.442
804.48	48.589
804.65	51.995
804.83	53.259
805.00	56.952
805.17	52.135
805.35	53.588
805.52	51.415
805.70	50.597
805.87	54.133
806.05	53.564
806.22	48.073
806.40	51.256
806.57	50.284
806.75	57.019
806.92	57.916
807.09	56.031
807.27	52.453
807.44	59.113
807.62	49.871
807.79	56.301
807.97	51.037
808.14	51.024
808.31	49.303
808.49	50.962
808.66	47.304
808.84	50.496
809.01	54.747
809.19	55.471
809.36	56.909
809.53	53.699
809.71	52.647
809.88	58.588
810.06	55.539
810.23	51.707
810.41	59.451
810.58	56.040
810.75	46.726
810.93	57.112
811.10	51.180
811.28	53.388
811.45	52.879
811.62	53.002
811.80	53.360
811.97	56.858
812.15	59.087
812.32	47.059
812.49	50.946
812.67	51.492
812.84	46.281
813.02	54.917
813.19	41.866
813.36	54.973
813.54	47.971
813.71	54.399
813.89	48.310
814.06	54.420
814.23	50.836
814.41	49.476
814.58	56.785
814.75	53.013
814.93	47.696
815.10	59.106
815.28	45.402
815.45	40.795
815.62	50.487
815.80	44.635
815.97	46.992
816.14	50.323
816.32	49.805
816.49	51.189
816.66	46.392
816.84	47.676
817.01	50.342
817.18	46.307
817.36	46.967
817.53	45.141
817.71	37.917
817.88	44.984
818.05	44.739
818.23	47.789
818.40	44.531
818.57	52.150
818.75	45.112
818.92	44.595
819.09	45.358
819.27	48.558
819.44	49.618
819.61	43.293
819.79	52.445
819.96	51.621
820.13	44.771
820.31	52.597
820.48	43.784
820.65	47.185
820.82	42.533
821.00	51.910
821.17	42.712
821.34	46.788
821.52	46.083
821.69	45.440
821.86	45.338
822.04	48.649
822.21	47.122
822.38	49.759
822.56	47.583
822.73	49.158
822.90	49.341
823.07	49.349
823.25	49.263
823.42	48.921
823.59	49.740
823.77	48.902
823.94	48.836
824.11	48.495
824.29	47.971
824.46	48.396
824.63	49.958
824.80	50.894
824.98	48.036
825.15	50.489
825.32	48.276
825.49	50.190
825.67	49.039
825.84	49.412
826.01	47.689
826.19	50.079
826.36	46.536
826.53	50.140
826.70	47.186
826.88	53.630
827.05	46.717
827.22	47.769
827.39	48.721
827.57	46.426
827.74	42.104
827.91	49.587
828.08	45.597
828.26	48.801
828.43	47.274
828.60	47.301
828.77	45.083
828.95	46.352
829.12	45.630
829.29	42.552
829.46	45.507
829.64	48.182
829.81	41.824
829.98	46.604
830.15	43.472
830.32	48.038
830.50	45.346
830.67	46.025
830.84	43.446
831.01	41.645
831.19	42.015
831.36	44.657
831.53	44.315
831.70	50.000
831.87	42.898
832.05	46.991
832.22	56.881
832.39	43.524
832.56	47.109
832.74	47.589
832.91	41.965
833.08	52.901
833.25	39.595
833.42	42.303
833.60	43.790
833.77	38.958
833.94	39.157
834.11	45.184
834.28	40.444
834.45	46.151
834.63	39.740
834.80	45.855
834.97	44.590
835.14	50.718
835.31	42.862
835.49	48.296
835.66	45.173
835.83	42.011
836.00	43.050
836.17	47.145
836.34	43.685
836.52	43.979
836.69	52.119
836.86	45.584
837.03	48.192
837.20	45.597
837.37	44.665
837.55	38.327
837.72	44.534
837.89	44.756
838.06	47.304
838.23	45.903
838.40	40.784
838.58	43.974
838.75	45.573
838.92	49.902
839.09	61.029
839.26	53.846
839.43	61.211
839.60	53.560
839.78	58.014
839.95	59.900
840.12	48.560
840.29	65.221
840.46	55.518
840.63	51.555
840.80	56.784
840.98	51.220
841.15	49.809
841.32	47.292
841.49	44.424
841.66	45.794
841.83	44.643
842.00	47.648
842.17	56.262
842.34	41.699
842.52	58.444
842.69	53.488
842.86	52.220
843.03	75.649
843.20	63.522
843.37	58.255
843.54	53.979
843.71	63.588
843.88	62.448
844.06	64.444
844.23	64.171
844.40	59.337
844.57	67.547
844.74	66.441
844.91	68.098
845.08	63.166
845.25	69.244
845.42	76.951
845.59	94.402
845.76	60.037
845.94	80.674
846.11	69.799
846.28	75.634
846.45	84.704
846.62	76.035
846.79	77.760
846.96	70.328
847.13	71.157
847.30	70.996
847.47	55.397
847.64	75.049
847.81	70.712
847.98	84.232
848.15	78.316
848.32	86.692
848.50	76.680
848.67	63.803
848.84	74.089
849.01	70.732
849.18	64.826
849.35	87.154
849.52	81.386
849.69	64.037
849.86	103.620
850.03	89.461
850.20	64.728
850.37	80.876
850.54	82.136
850.71	91.131
850.88	69.502
851.05	75.833
851.22	79.612
851.39	80.645
851.56	78.308
851.73	87.059
851.90	86.468
852.07	58.513
852.24	60.861
852.41	74.304
852.58	65.000
852.75	64.884
852.92	68.410
853.09	107.303
853.26	85.053
853.43	78.000
853.60	70.478
853.77	87.179
853.94	82.957
854.11	81.439
854.28	91.707
854.45	65.556
854.62	94.545
854.79	87.168
854.96	86.224
855.13	87.703
855.30	113.000
855.47	104.592
855.64	79.955
855.81	81.340
855.98	77.778
856.15	81.098
856.32	60.334
856.49	81.324
856.66	82.160
856.83	89.009
857.00	92.469
857.17	102.495
857.34	81.140
857.51	88.571
857.68	84.487
857.85	90.508
858.02	92.665
858.19	79.637
858.36	74.568
858.53	92.077
858.70	77.851
858.87	95.556
859.04	65.385
859.21	90.086
859.38	88.750
859.55	110.706
859.72	95.376
859.89	109.038
860.05	83.088
860.22	105.000
860.39	87.302
860.56	97.475
860.73	88.783
860.90	73.744
861.07	92.009
861.24	80.549
861.41	98.148
861.58	78.118
861.75	90.453
861.92	78.775
862.09	86.329
862.26	92.671
862.43	107.989
862.59	87.037
862.76	82.803
862.93	102.432
863.10	90.215
863.27	88.791
863.44	86.275
863.61	93.636
863.78	104.179
863.95	94.537
864.12	110.592
864.29	86.626
864.45	87.657
864.62	99.738
864.79	102.970
864.96	92.308
865.13	76.275
865.30	81.905
865.47	108.914
865.64	90.330
865.81	112.121
865.97	73.861
866.14	92.873
866.31	58.920
866.48	87.446
866.65	80.208
866.82	100.240
866.99	100.264
867.16	89.267
867.33	79.765
867.49	78.240
867.66	77.349
867.83	94.273
868.00	79.097
868.17	111.782
868.34	93.304
868.51	62.560
868.67	88.626
868.84	76.092
869.01	98.157
869.18	93.171
869.35	73.510
869.52	89.750
869.69	98.171
869.85	100.000
870.02	81.796
870.19	86.603
870.36	88.624
870.53	79.720
870.70	92.979
870.86	74.352
871.03	95.128
871.20	72.525
871.37	87.003
871.54	92.391
871.71	99.272
871.87	86.957
872.04	95.710
872.21	72.627
872.38	86.308
872.55	95.190
872.72	72.523
872.88	89.014
873.05	83.836
873.22	93.712
873.39	86.761
873.56	86.105
873.72	85.577
873.89	81.686
874.06	78.351
874.23	79.058
874.40	73.218
874.56	97.921
874.73	91.990
874.90	87.968
875.07	75.546
875.24	78.998
875.40	73.258
875.57	73.182
875.74	110.000
875.91	95.935
876.08	77.093
876.24	91.529
876.41	102.538
876.58	90.692
876.75	87.328
876.92	85.268
877.08	84.375
877.25	67.526
877.42	64.024
877.59	83.486
877.75	92.261
877.92	71.103
878.09	85.615
878.26	85.341
878.42	98.670
878.59	81.637
878.76	75.889
878.93	91.855
879.09	81.441
879.26	83.816
879.43	76.629
879.60	70.888
879.76	80.605
879.93	68.564
880.10	68.605
880.27	59.936
880.43	57.878
880.60	64.890
880.77	53.385
880.94	57.054
881.10	46.026
881.27	50.659
881.44	36.318
881.61	44.892
881.77	40.963
881.94	38.542
882.11	34.032
882.28	34.716
882.44	37.821
882.61	40.654
882.78	43.807
882.94	44.486
883.11	43.955
883.28	42.181
883.45	45.038
883.61	41.349
883.78	42.346
883.95	46.984
884.11	40.755
884.28	41.071
>>>>>End Processed Spectral Data<<<<<
