SpectraSuite Data File
++++++++++++++++++++++++++++++++++++
Date: Mon Sep 23 03:56:23 EST 2019
User: sgrac
Dark Spectrum Present: Yes
Reference Spectrum Present: Yes
Number of Sampled Component Spectra: 1
Spectrometers: USB4E01596
Integration Time (usec): 100000 (USB4E01596)
Spectra Averaged: 3 (USB4E01596)
Boxcar Smoothing: 0 (USB4E01596)
Correct for Electrical Dark: No (USB4E01596)
Strobe/Lamp Enabled: Yes (USB4E01596)
Correct for Detector Non-linearity: No (USB4E01596)
Correct for Stray Light: No (USB4E01596)
Number of Pixels in Processed Spectrum: 3648
>>>>>Begin Processed Spectral Data<<<<<
178.44	2100.000
178.66	2100.000
178.87	2100.000
179.09	6900.000
179.30	-5375.000
179.52	-680.645
179.74	-569.811
179.95	697.727
180.17	-677.778
180.38	452.632
180.60	-2890.909
180.82	762.222
181.03	3950.000
181.25	-2558.333
181.46	-1048.000
181.68	1229.167
181.89	-481.818
182.11	-1675.000
182.33	-1968.750
182.54	735.417
182.76	4150.000
182.97	-540.426
183.19	1610.000
183.40	271.901
183.62	350.000
183.84	307.273
184.05	4357.143
184.27	500.000
184.48	475.758
184.70	1352.941
184.91	1471.429
185.13	3040.000
185.34	-13400.000
185.56	1526.923
185.78	327.778
185.99	950.000
186.21	380.682
186.42	-6600.000
186.64	2180.000
186.85	-5660.000
187.07	514.000
187.28	478.947
187.50	505.455
187.72	367.949
187.93	661.818
188.15	328.125
188.36	501.316
188.58	559.184
188.79	304.808
189.01	456.338
189.22	762.162
189.44	-975.758
189.65	285.593
189.87	-6550.000
190.09	525.397
190.30	711.905
190.52	408.333
190.73	667.391
190.95	-4683.333
191.16	404.762
191.38	343.243
191.59	520.588
191.81	559.677
192.02	1526.667
192.24	803.125
192.45	852.941
192.67	-1425.000
192.88	500.000
193.10	545.902
193.31	760.000
193.53	244.355
193.74	334.667
193.96	2264.286
194.18	907.692
194.39	2240.000
194.61	419.178
194.82	1327.273
195.04	363.415
195.25	-473.684
195.47	-403.704
195.68	4166.667
195.90	487.273
196.11	379.104
196.33	24200.000
196.54	819.512
196.76	1828.571
196.97	388.312
197.19	878.378
197.40	2242.857
197.62	319.266
197.83	958.065
198.05	560.000
198.26	1024.138
198.48	405.634
198.69	588.333
198.91	1283.333
199.12	674.419
199.34	608.696
199.55	435.714
199.77	2036.842
199.98	958.824
200.20	480.263
200.41	495.161
200.63	287.611
200.84	2042.857
201.06	2966.667
201.27	743.902
201.49	490.141
201.70	-850.000
201.91	495.833
202.13	488.136
202.34	524.138
202.56	-1096.000
202.77	591.111
202.99	4900.000
203.20	-4062.500
203.42	1900.000
203.63	335.526
203.85	5516.667
204.06	642.000
204.28	247.475
204.49	498.148
204.71	466.102
204.92	915.385
205.14	0.000
205.35	873.333
205.56	-1215.000
205.78	6600.000
205.99	-2000.000
206.21	11900.000
206.42	634.091
206.64	912.903
206.85	948.148
207.07	-2577.778
207.28	424.138
207.50	610.870
207.71	877.419
207.93	344.578
208.14	-788.889
208.35	443.636
208.57	1160.000
208.78	-3200.000
209.00	360.638
209.21	-14150.000
209.43	-8600.000
209.64	-1673.333
209.86	291.753
210.07	353.488
210.28	516.901
210.50	924.138
210.71	586.275
210.93	236.029
211.14	404.494
211.36	1768.750
211.57	524.242
211.78	485.714
212.00	376.471
212.21	484.286
212.43	648.718
212.64	307.447
212.86	437.838
213.07	378.899
213.29	-775.000
213.50	317.391
213.71	339.080
213.93	396.341
214.14	1700.000
214.36	379.412
214.57	339.241
214.78	826.667
215.00	322.917
215.21	1003.333
215.43	729.730
215.64	392.063
215.86	362.500
216.07	785.714
216.28	736.842
216.50	331.667
216.71	28800.000
216.93	492.424
217.14	1766.667
217.35	243.939
217.57	275.676
217.78	329.630
218.00	285.859
218.21	1173.913
218.42	602.128
218.64	426.786
218.85	518.000
219.07	1125.000
219.28	333.645
219.49	409.804
219.71	538.462
219.92	227.612
220.14	310.309
220.35	481.333
220.56	377.011
220.78	295.192
220.99	261.290
221.21	359.140
221.42	330.864
221.63	179.769
221.85	490.769
222.06	400.000
222.28	418.462
222.49	272.973
222.70	241.732
222.92	530.612
223.13	422.951
223.34	231.915
223.56	317.857
223.77	336.250
223.99	373.684
224.20	498.214
224.41	327.397
224.63	318.182
224.84	288.514
225.05	136.752
225.27	273.043
225.48	289.216
225.69	238.346
225.91	333.784
226.12	227.132
226.34	214.094
226.55	165.468
226.76	236.250
226.98	140.000
227.19	133.984
227.40	235.156
227.62	164.021
227.83	142.489
228.04	105.028
228.26	85.604
228.47	84.986
228.69	65.736
228.90	61.194
229.11	62.010
229.33	52.665
229.54	41.828
229.75	40.000
229.97	45.087
230.18	42.921
230.39	33.850
230.61	35.788
230.82	40.000
231.03	28.026
231.25	36.611
231.46	40.611
231.67	35.649
231.89	51.811
232.10	43.054
232.31	46.034
232.53	51.613
232.74	53.832
232.95	47.550
233.17	54.600
233.38	48.529
233.59	58.627
233.81	65.399
234.02	59.118
234.23	59.574
234.45	61.111
234.66	43.363
234.87	47.951
235.09	42.444
235.30	38.704
235.51	61.210
235.73	59.926
235.94	49.492
236.15	55.051
236.36	37.196
236.58	50.546
236.79	52.950
237.00	51.906
237.22	52.891
237.43	46.086
237.64	44.882
237.86	47.744
238.07	41.581
238.28	53.871
238.50	40.878
238.71	56.295
238.92	43.125
239.13	48.136
239.35	41.680
239.56	46.113
239.77	75.039
239.99	37.518
240.20	54.432
240.41	40.172
240.63	36.523
240.84	34.826
241.05	30.230
241.26	29.892
241.48	30.081
241.69	22.699
241.90	20.446
242.12	25.973
242.33	21.289
242.54	15.589
242.75	22.789
242.97	17.341
243.18	17.149
243.39	13.682
243.61	16.598
243.82	13.165
244.03	14.850
244.24	14.590
244.46	16.445
244.67	15.650
244.88	13.183
245.09	21.223
245.31	17.671
245.52	18.264
245.73	11.911
245.95	31.904
246.16	17.263
246.37	17.926
246.58	17.703
246.80	16.142
247.01	16.278
247.22	12.418
247.43	10.893
247.65	10.365
247.86	10.075
248.07	7.872
248.28	8.906
248.50	7.379
248.71	8.370
248.92	7.201
249.13	7.661
249.35	7.830
249.56	9.564
249.77	10.892
249.98	12.022
250.20	11.602
250.41	10.680
250.62	13.563
250.83	13.235
251.05	16.635
251.26	14.603
251.47	18.600
251.68	17.278
251.90	14.595
252.11	16.545
252.32	19.498
252.53	17.631
252.75	14.271
252.96	17.869
253.17	12.926
253.38	14.215
253.59	13.525
253.81	13.431
254.02	13.777
254.23	14.364
254.44	12.480
254.66	12.732
254.87	14.807
255.08	19.662
255.29	17.714
255.50	14.471
255.72	22.214
255.93	23.617
256.14	26.271
256.35	19.029
256.57	26.443
256.78	26.090
256.99	21.547
257.20	25.480
257.41	21.607
257.63	24.062
257.84	18.628
258.05	22.101
258.26	18.742
258.47	17.873
258.69	17.822
258.90	12.895
259.11	11.759
259.32	13.680
259.53	11.111
259.75	12.508
259.96	8.760
260.17	8.983
260.38	6.004
260.59	8.471
260.81	5.919
261.02	6.195
261.23	6.538
261.44	5.931
261.65	4.570
261.87	6.118
262.08	6.410
262.29	8.225
262.50	8.482
262.71	7.470
262.92	7.322
263.14	7.489
263.35	9.824
263.56	12.620
263.77	9.831
263.98	16.071
264.20	13.078
264.41	14.049
264.62	11.690
264.83	14.323
265.04	14.923
265.25	16.051
265.47	12.506
265.68	13.957
265.89	17.741
266.10	9.238
266.31	15.411
266.52	12.230
266.74	12.415
266.95	14.436
267.16	11.912
267.37	9.781
267.58	11.030
267.79	14.811
268.01	10.162
268.22	10.218
268.43	11.446
268.64	11.104
268.85	11.719
269.06	9.598
269.27	11.876
269.49	9.542
269.70	9.646
269.91	9.251
270.12	7.884
270.33	10.467
270.54	8.745
270.75	9.506
270.97	11.729
271.18	9.272
271.39	10.402
271.60	9.519
271.81	9.565
272.02	8.944
272.23	10.532
272.45	9.379
272.66	4.579
272.87	7.077
273.08	6.003
273.29	7.846
273.50	6.406
273.71	7.233
273.92	5.855
274.14	8.051
274.35	8.525
274.56	8.366
274.77	7.506
274.98	8.188
275.19	8.025
275.40	8.305
275.61	7.488
275.83	12.399
276.04	8.653
276.25	11.956
276.46	9.235
276.67	9.007
276.88	10.939
277.09	9.012
277.30	8.617
277.51	11.846
277.73	7.241
277.94	10.500
278.15	12.463
278.36	10.144
278.57	8.295
278.78	8.577
278.99	9.279
279.20	10.373
279.41	9.326
279.62	9.480
279.84	9.991
280.05	10.375
280.26	9.140
280.47	10.671
280.68	9.193
280.89	8.750
281.10	7.887
281.31	9.375
281.52	9.281
281.73	6.765
281.94	8.946
282.16	9.608
282.37	7.631
282.58	7.878
282.79	9.529
283.00	9.592
283.21	7.029
283.42	7.099
283.63	9.724
283.84	7.606
284.05	8.852
284.26	6.697
284.47	5.999
284.68	6.409
284.89	8.212
285.11	7.276
285.32	6.695
285.53	7.813
285.74	8.288
285.95	4.182
286.16	6.949
286.37	4.789
286.58	7.793
286.79	5.970
287.00	5.698
287.21	5.739
287.42	4.724
287.63	5.475
287.84	5.411
288.05	6.207
288.26	4.095
288.48	6.907
288.69	6.031
288.90	7.659
289.11	7.492
289.32	7.872
289.53	6.544
289.74	5.576
289.95	8.335
290.16	6.683
290.37	5.726
290.58	5.071
290.79	5.623
291.00	6.215
291.21	6.361
291.42	6.620
291.63	6.918
291.84	6.712
292.05	5.041
292.26	4.998
292.47	6.702
292.68	5.038
292.89	6.657
293.10	9.306
293.31	7.381
293.52	6.386
293.73	7.722
293.94	7.807
294.15	6.765
294.36	7.710
294.57	5.939
294.79	6.076
295.00	6.893
295.21	7.274
295.42	5.872
295.63	8.133
295.84	5.611
296.05	5.788
296.26	4.498
296.47	5.362
296.68	6.201
296.89	7.335
297.10	6.527
297.31	7.546
297.52	3.827
297.73	6.720
297.94	5.721
298.15	5.513
298.36	6.011
298.57	5.419
298.78	6.030
298.99	5.031
299.20	5.112
299.41	6.192
299.62	6.284
299.83	5.268
300.04	5.794
300.25	6.169
300.46	7.906
300.67	7.585
300.88	7.156
301.09	6.952
301.30	6.816
301.50	7.743
301.71	8.654
301.92	7.230
302.13	7.776
302.34	5.231
302.55	6.290
302.76	5.298
302.97	5.891
303.18	7.583
303.39	7.667
303.60	7.559
303.81	7.280
304.02	5.333
304.23	5.854
304.44	7.307
304.65	4.749
304.86	7.442
305.07	4.876
305.28	6.048
305.49	8.117
305.70	6.539
305.91	5.915
306.12	6.452
306.33	5.826
306.54	6.907
306.75	7.490
306.96	9.021
307.17	6.763
307.38	6.930
307.58	7.116
307.79	7.405
308.00	6.780
308.21	5.967
308.42	6.730
308.63	6.032
308.84	7.463
309.05	6.685
309.26	4.614
309.47	6.770
309.68	6.700
309.89	6.375
310.10	6.807
310.31	6.271
310.52	4.520
310.73	5.700
310.94	3.793
311.14	6.161
311.35	4.453
311.56	5.510
311.77	6.052
311.98	4.640
312.19	5.893
312.40	5.160
312.61	4.252
312.82	6.758
313.03	4.878
313.24	5.120
313.45	5.786
313.66	5.510
313.86	6.988
314.07	6.297
314.28	7.211
314.49	4.933
314.70	7.803
314.91	6.595
315.12	5.601
315.33	6.534
315.54	5.998
315.75	7.312
315.96	6.251
316.16	8.108
316.37	5.638
316.58	6.210
316.79	6.220
317.00	5.219
317.21	6.715
317.42	6.435
317.63	5.717
317.84	7.120
318.05	7.538
318.25	8.690
318.46	5.199
318.67	6.550
318.88	7.846
319.09	6.576
319.30	5.995
319.51	7.123
319.72	8.559
319.93	5.447
320.13	6.457
320.34	9.218
320.55	7.327
320.76	7.224
320.97	7.903
321.18	7.304
321.39	5.913
321.60	8.469
321.80	8.826
322.01	6.491
322.22	5.459
322.43	6.568
322.64	7.086
322.85	6.565
323.06	7.348
323.27	5.862
323.47	8.110
323.68	7.643
323.89	8.746
324.10	7.324
324.31	6.146
324.52	7.130
324.73	7.907
324.93	6.270
325.14	7.172
325.35	6.350
325.56	5.954
325.77	6.637
325.98	6.784
326.19	7.081
326.39	6.753
326.60	6.202
326.81	4.867
327.02	5.756
327.23	5.750
327.44	6.413
327.64	5.083
327.85	4.711
328.06	5.919
328.27	7.451
328.48	5.966
328.69	4.456
328.90	6.235
329.10	7.259
329.31	7.414
329.52	6.880
329.73	7.041
329.94	5.745
330.15	6.113
330.35	9.495
330.56	5.873
330.77	7.136
330.98	5.036
331.19	6.285
331.39	8.078
331.60	6.874
331.81	5.352
332.02	5.704
332.23	6.989
332.44	6.003
332.64	5.755
332.85	5.304
333.06	7.454
333.27	6.674
333.48	6.881
333.68	5.207
333.89	5.791
334.10	6.952
334.31	6.744
334.52	5.489
334.72	3.923
334.93	6.450
335.14	4.964
335.35	6.336
335.56	6.727
335.76	6.825
335.97	7.148
336.18	6.490
336.39	6.729
336.60	5.033
336.80	4.850
337.01	4.977
337.22	6.446
337.43	6.377
337.64	6.918
337.84	6.492
338.05	5.647
338.26	8.217
338.47	7.243
338.68	5.493
338.88	6.073
339.09	5.945
339.30	5.869
339.51	5.700
339.71	6.813
339.92	5.047
340.13	7.088
340.34	7.221
340.55	6.853
340.75	6.400
340.96	5.470
341.17	5.553
341.38	6.747
341.58	6.666
341.79	5.177
342.00	6.565
342.21	6.298
342.41	5.707
342.62	6.202
342.83	6.103
343.04	5.443
343.24	6.446
343.45	6.068
343.66	5.420
343.87	6.520
344.07	5.154
344.28	6.670
344.49	6.837
344.70	7.356
344.90	6.287
345.11	5.177
345.32	6.514
345.53	6.681
345.73	7.173
345.94	6.729
346.15	7.285
346.36	4.515
346.56	6.160
346.77	6.891
346.98	5.904
347.19	7.577
347.39	5.511
347.60	7.145
347.81	6.868
348.02	7.026
348.22	6.568
348.43	7.811
348.64	6.039
348.84	6.485
349.05	7.562
349.26	8.347
349.47	6.692
349.67	8.012
349.88	9.231
350.09	8.107
350.30	9.913
350.50	8.450
350.71	8.634
350.92	7.751
351.12	9.930
351.33	8.282
351.54	8.270
351.74	9.430
351.95	8.646
352.16	9.333
352.37	10.492
352.57	9.607
352.78	9.677
352.99	9.563
353.19	9.289
353.40	9.342
353.61	11.338
353.82	12.200
354.02	11.775
354.23	10.216
354.44	12.645
354.64	10.546
354.85	11.359
355.06	11.016
355.26	9.521
355.47	11.050
355.68	11.849
355.88	13.478
356.09	11.524
356.30	12.222
356.51	13.417
356.71	12.027
356.92	10.195
357.13	13.541
357.33	14.299
357.54	13.919
357.75	9.654
357.95	13.635
358.16	11.817
358.37	15.337
358.57	11.847
358.78	15.481
358.99	12.187
359.19	14.249
359.40	14.180
359.61	13.924
359.81	15.002
360.02	16.319
360.23	12.615
360.43	13.905
360.64	12.979
360.85	14.368
361.05	11.969
361.26	15.470
361.47	14.948
361.67	15.677
361.88	12.581
362.09	15.203
362.29	13.404
362.50	13.864
362.70	13.493
362.91	15.040
363.12	13.320
363.32	15.353
363.53	15.543
363.74	16.366
363.94	12.575
364.15	17.131
364.36	16.089
364.56	14.078
364.77	15.760
364.98	17.493
365.18	15.813
365.39	16.334
365.59	13.060
365.80	15.248
366.01	16.678
366.21	14.639
366.42	13.012
366.63	16.413
366.83	14.000
367.04	11.200
367.24	15.625
367.45	14.539
367.66	13.147
367.86	15.028
368.07	14.228
368.28	14.523
368.48	14.881
368.69	13.070
368.89	13.736
369.10	15.126
369.31	14.490
369.51	14.695
369.72	15.650
369.92	17.455
370.13	11.956
370.34	14.219
370.54	10.490
370.75	15.234
370.95	12.651
371.16	14.726
371.37	14.643
371.57	14.154
371.78	13.419
371.98	14.975
372.19	14.844
372.40	15.865
372.60	15.044
372.81	15.086
373.01	12.455
373.22	13.595
373.43	13.655
373.63	15.320
373.84	15.099
374.04	14.821
374.25	14.130
374.46	15.966
374.66	14.400
374.87	15.778
375.07	11.701
375.28	12.003
375.48	12.872
375.69	14.971
375.90	12.175
376.10	11.979
376.31	13.054
376.51	13.010
376.72	12.371
376.92	12.367
377.13	13.642
377.34	14.986
377.54	12.734
377.75	15.320
377.95	13.671
378.16	15.514
378.36	14.370
378.57	15.519
378.77	13.366
378.98	14.812
379.19	13.069
379.39	13.073
379.60	13.320
379.80	13.809
380.01	14.502
380.21	12.879
380.42	14.398
380.62	13.790
380.83	13.539
381.04	13.687
381.24	13.670
381.45	13.805
381.65	11.651
381.86	13.537
382.06	14.073
382.27	12.062
382.47	12.354
382.68	14.137
382.88	11.946
383.09	12.229
383.29	13.748
383.50	13.953
383.71	12.207
383.91	14.186
384.12	12.976
384.32	14.158
384.53	12.898
384.73	12.068
384.94	11.993
385.14	13.268
385.35	11.760
385.55	13.107
385.76	12.448
385.96	13.059
386.17	12.517
386.37	14.501
386.58	12.432
386.78	13.704
386.99	11.376
387.19	13.720
387.40	12.219
387.60	15.154
387.81	12.793
388.01	12.409
388.22	13.587
388.42	14.630
388.63	13.957
388.83	14.510
389.04	12.062
389.24	12.641
389.45	13.200
389.65	12.747
389.86	12.412
390.06	11.954
390.27	12.292
390.47	12.352
390.68	11.982
390.88	13.753
391.09	12.918
391.29	14.026
391.50	12.525
391.70	12.999
391.91	12.384
392.11	13.332
392.32	12.871
392.52	14.013
392.73	13.261
392.93	13.413
393.14	12.767
393.34	12.906
393.55	13.317
393.75	13.239
393.95	12.323
394.16	13.103
394.36	13.289
394.57	13.442
394.77	12.307
394.98	12.701
395.18	12.715
395.39	12.263
395.59	12.905
395.80	12.773
396.00	12.066
396.21	13.696
396.41	11.708
396.61	13.778
396.82	12.533
397.02	14.069
397.23	12.709
397.43	13.120
397.64	11.196
397.84	13.848
398.05	11.045
398.25	13.108
398.45	12.131
398.66	13.039
398.86	11.867
399.07	13.589
399.27	12.102
399.48	13.774
399.68	11.590
399.89	12.169
400.09	12.471
400.29	11.837
400.50	11.680
400.70	12.194
400.91	11.686
401.11	12.035
401.32	12.395
401.52	10.951
401.72	11.549
401.93	13.992
402.13	11.675
402.34	11.999
402.54	11.086
402.75	13.911
402.95	10.266
403.15	13.056
403.36	10.690
403.56	13.302
403.77	11.067
403.97	11.660
404.17	11.890
404.38	12.764
404.58	10.996
404.79	13.080
404.99	12.051
405.19	12.281
405.40	11.482
405.60	11.932
405.81	11.394
406.01	11.560
406.21	11.497
406.42	12.588
406.62	11.710
406.83	12.533
407.03	12.665
407.23	11.569
407.44	11.215
407.64	12.651
407.85	11.575
408.05	11.828
408.25	12.455
408.46	13.117
408.66	12.168
408.87	12.102
409.07	11.135
409.27	11.014
409.48	11.373
409.68	12.100
409.88	10.144
410.09	11.445
410.29	11.908
410.50	13.158
410.70	10.460
410.90	11.252
411.11	10.406
411.31	11.441
411.51	11.567
411.72	12.249
411.92	10.912
412.12	12.214
412.33	11.618
412.53	11.501
412.74	9.579
412.94	11.234
413.14	10.914
413.35	12.026
413.55	11.528
413.75	12.011
413.96	10.539
414.16	11.674
414.36	11.151
414.57	12.068
414.77	10.875
414.97	11.953
415.18	10.797
415.38	11.885
415.58	10.397
415.79	10.729
415.99	10.251
416.19	11.603
416.40	11.258
416.60	11.028
416.80	10.380
417.01	11.421
417.21	10.105
417.41	11.658
417.62	10.771
417.82	11.617
418.02	10.208
418.23	11.431
418.43	11.044
418.63	11.783
418.84	11.508
419.04	11.072
419.24	12.052
419.45	11.520
419.65	11.732
419.85	12.231
420.06	11.492
420.26	11.679
420.46	11.254
420.67	11.368
420.87	11.563
421.07	11.558
421.28	11.457
421.48	11.796
421.68	11.435
421.88	11.721
422.09	11.726
422.29	11.485
422.49	11.227
422.70	11.376
422.90	11.902
423.10	11.745
423.31	11.838
423.51	11.701
423.71	11.529
423.91	11.808
424.12	11.876
424.32	11.991
424.52	11.304
424.73	11.348
424.93	11.286
425.13	11.374
425.33	11.269
425.54	11.372
425.74	11.494
425.94	12.110
426.15	11.502
426.35	11.615
426.55	11.498
426.75	11.993
426.96	11.447
427.16	11.558
427.36	11.351
427.57	12.023
427.77	11.462
427.97	11.503
428.17	11.356
428.38	11.888
428.58	10.766
428.78	11.613
428.98	10.406
429.19	11.157
429.39	9.549
429.59	11.272
429.79	9.737
430.00	10.007
430.20	10.269
430.40	10.829
430.60	10.475
430.81	10.728
431.01	9.848
431.21	11.041
431.41	9.948
431.62	10.681
431.82	10.159
432.02	11.493
432.22	10.566
432.43	10.591
432.63	10.152
432.83	10.780
433.03	10.761
433.24	10.290
433.44	9.870
433.64	10.897
433.84	10.402
434.05	10.814
434.25	10.711
434.45	11.349
434.65	11.428
434.85	11.303
435.06	11.017
435.26	10.661
435.46	10.697
435.66	11.112
435.87	11.142
436.07	10.765
436.27	10.759
436.47	10.511
436.67	10.281
436.88	10.725
437.08	10.591
437.28	10.936
437.48	10.303
437.69	11.110
437.89	10.236
438.09	11.096
438.29	10.139
438.49	11.283
438.70	10.811
438.90	10.610
439.10	9.932
439.30	11.051
439.50	10.060
439.71	10.798
439.91	10.615
440.11	11.208
440.31	10.369
440.51	10.823
440.72	10.376
440.92	10.476
441.12	10.927
441.32	11.324
441.52	10.824
441.72	11.053
441.93	10.834
442.13	11.371
442.33	10.658
442.53	11.137
442.73	10.178
442.94	10.645
443.14	10.656
443.34	11.154
443.54	10.291
443.74	11.244
443.94	10.327
444.15	10.555
444.35	10.754
444.55	11.210
444.75	9.746
444.95	10.559
445.15	10.162
445.36	10.048
445.56	10.107
445.76	10.515
445.96	10.174
446.16	10.317
446.36	10.153
446.57	10.899
446.77	10.106
446.97	10.428
447.17	10.297
447.37	10.716
447.57	10.461
447.77	10.484
447.98	10.813
448.18	10.655
448.38	10.426
448.58	10.879
448.78	10.724
448.98	10.638
449.18	10.481
449.39	10.680
449.59	10.109
449.79	10.656
449.99	10.119
450.19	10.821
450.39	10.260
450.59	10.926
450.79	9.896
451.00	10.343
451.20	11.056
451.40	10.512
451.60	9.829
451.80	10.465
452.00	9.920
452.20	10.612
452.40	9.895
452.61	10.041
452.81	10.347
453.01	9.976
453.21	10.000
453.41	9.939
453.61	10.041
453.81	10.345
454.01	10.755
454.21	10.261
454.42	10.446
454.62	10.105
454.82	9.728
455.02	10.501
455.22	9.735
455.42	10.010
455.62	9.492
455.82	9.800
456.02	9.534
456.23	10.473
456.43	9.271
456.63	9.805
456.83	9.356
457.03	10.447
457.23	9.519
457.43	9.927
457.63	9.457
457.83	10.050
458.03	9.275
458.23	10.189
458.43	9.443
458.64	10.004
458.84	9.890
459.04	10.192
459.24	9.654
459.44	9.680
459.64	10.103
459.84	9.494
460.04	9.759
460.24	9.863
460.44	9.947
460.64	10.466
460.84	10.073
461.04	10.076
461.24	10.393
461.45	10.305
461.65	10.220
461.85	10.280
462.05	10.168
462.25	10.240
462.45	10.810
462.65	10.200
462.85	9.751
463.05	10.365
463.25	8.987
463.45	9.805
463.65	9.800
463.85	10.046
464.05	9.382
464.25	9.996
464.45	9.490
464.65	9.812
464.85	9.380
465.05	9.366
465.26	9.949
465.46	9.923
465.66	9.301
465.86	9.809
466.06	9.522
466.26	9.580
466.46	8.677
466.66	10.068
466.86	9.059
467.06	9.705
467.26	9.627
467.46	10.094
467.66	9.306
467.86	9.954
468.06	9.666
468.26	10.044
468.46	9.646
468.66	9.628
468.86	8.985
469.06	9.589
469.26	9.005
469.46	9.512
469.66	8.826
469.86	9.167
470.06	8.968
470.26	10.009
470.46	8.962
470.66	10.050
470.86	8.747
471.06	9.130
471.26	9.146
471.46	9.060
471.66	9.317
471.86	9.292
472.06	8.999
472.26	9.814
472.46	9.700
472.66	9.847
472.86	9.108
473.06	9.464
473.26	8.977
473.46	9.870
473.66	8.615
473.86	10.234
474.06	8.453
474.26	9.505
474.46	8.469
474.66	9.852
474.86	9.160
475.06	9.651
475.26	8.501
475.46	9.501
475.66	8.617
475.86	8.976
476.06	9.656
476.26	9.585
476.46	8.537
476.66	9.354
476.86	8.584
477.06	9.341
477.26	8.620
477.46	9.144
477.65	9.140
477.85	9.881
478.05	8.538
478.25	9.904
478.45	9.158
478.65	9.186
478.85	8.754
479.05	9.415
479.25	9.516
479.45	9.767
479.65	8.862
479.85	9.274
480.05	9.048
480.25	9.409
480.45	9.709
480.65	9.371
480.85	9.233
481.05	9.694
481.25	9.436
481.44	9.716
481.64	8.797
481.84	9.498
482.04	9.366
482.24	9.792
482.44	9.086
482.64	8.987
482.84	9.150
483.04	9.175
483.24	9.118
483.44	9.111
483.64	9.001
483.84	8.938
484.04	9.081
484.23	9.193
484.43	9.425
484.63	9.521
484.83	9.656
485.03	10.105
485.23	10.157
485.43	9.961
485.63	9.901
485.83	9.897
486.03	9.948
486.23	10.152
486.42	9.840
486.62	9.617
486.82	9.407
487.02	9.543
487.22	9.496
487.42	9.485
487.62	9.336
487.82	9.203
488.02	9.211
488.22	9.416
488.41	9.399
488.61	9.434
488.81	9.519
489.01	9.421
489.21	9.444
489.41	9.786
489.61	9.499
489.81	9.865
490.01	9.692
490.20	9.617
490.40	9.601
490.60	9.677
490.80	9.441
491.00	9.535
491.20	9.242
491.40	9.237
491.60	8.962
491.79	8.943
491.99	9.280
492.19	9.224
492.39	9.127
492.59	9.282
492.79	9.524
492.99	9.440
493.19	9.532
493.38	9.405
493.58	9.424
493.78	9.725
493.98	9.595
494.18	9.695
494.38	9.555
494.58	9.855
494.77	9.031
494.97	9.400
495.17	8.921
495.37	9.275
495.57	9.230
495.77	9.442
495.96	9.044
496.16	8.893
496.36	8.671
496.56	8.707
496.76	8.546
496.96	8.665
497.15	8.892
497.35	9.152
497.55	8.909
497.75	9.147
497.95	8.784
498.15	9.071
498.34	8.791
498.54	9.003
498.74	9.499
498.94	9.235
499.14	8.653
499.34	9.199
499.53	9.135
499.73	9.029
499.93	8.626
500.13	9.264
500.33	8.352
500.52	9.009
500.72	8.762
500.92	8.594
501.12	8.696
501.32	8.576
501.52	8.601
501.71	8.640
501.91	8.284
502.11	8.892
502.31	8.164
502.51	8.746
502.70	8.564
502.90	8.765
503.10	8.125
503.30	9.065
503.50	8.666
503.69	8.496
503.89	8.583
504.09	8.638
504.29	8.844
504.48	8.958
504.68	8.582
504.88	8.786
505.08	8.418
505.28	8.632
505.47	8.504
505.67	9.141
505.87	8.544
506.07	8.725
506.27	8.529
506.46	8.438
506.66	8.163
506.86	9.006
507.06	8.811
507.25	8.886
507.45	8.646
507.65	8.844
507.85	8.199
508.04	9.083
508.24	8.162
508.44	8.627
508.64	8.628
508.83	8.863
509.03	8.216
509.23	8.528
509.43	7.895
509.63	8.645
509.82	8.348
510.02	8.938
510.22	8.560
510.42	8.864
510.61	8.417
510.81	8.723
511.01	8.847
511.21	8.785
511.40	8.484
511.60	8.979
511.80	8.536
511.99	9.021
512.19	8.488
512.39	8.756
512.59	8.431
512.78	9.229
512.98	8.526
513.18	8.843
513.38	8.539
513.57	8.726
513.77	8.684
513.97	8.799
514.17	8.483
514.36	8.709
514.56	8.786
514.76	8.829
514.95	7.925
515.15	8.749
515.35	8.070
515.55	8.414
515.74	8.537
515.94	8.768
516.14	8.010
516.33	8.736
516.53	8.254
516.73	8.256
516.93	8.104
517.12	8.876
517.32	7.993
517.52	8.445
517.71	7.939
517.91	8.188
518.11	8.397
518.30	8.556
518.50	8.266
518.70	8.393
518.90	8.319
519.09	8.478
519.29	8.450
519.49	8.704
519.68	8.279
519.88	8.776
520.08	8.442
520.27	8.644
520.47	8.997
520.67	8.745
520.86	8.792
521.06	8.815
521.26	8.325
521.45	8.749
521.65	8.437
521.85	8.678
522.04	8.062
522.24	8.394
522.44	7.888
522.63	8.303
522.83	8.271
523.03	8.572
523.22	8.005
523.42	8.742
523.62	8.591
523.81	8.376
524.01	8.381
524.21	8.233
524.40	8.422
524.60	8.430
524.80	7.968
524.99	8.296
525.19	8.307
525.39	8.459
525.58	8.122
525.78	8.240
525.98	8.524
526.17	8.389
526.37	8.229
526.57	8.423
526.76	8.498
526.96	8.537
527.15	8.152
527.35	8.446
527.55	8.281
527.74	8.382
527.94	8.344
528.14	8.132
528.33	8.097
528.53	8.352
528.72	8.301
528.92	8.389
529.12	8.463
529.31	8.525
529.51	8.626
529.71	8.630
529.90	8.652
530.10	8.592
530.29	8.699
530.49	8.973
530.69	8.869
530.88	8.960
531.08	8.901
531.28	9.024
531.47	8.638
531.67	8.743
531.86	8.474
532.06	8.773
532.26	8.499
532.45	8.613
532.65	8.193
532.84	8.278
533.04	8.174
533.24	8.601
533.43	8.207
533.63	8.489
533.82	8.386
534.02	8.755
534.22	8.442
534.41	8.463
534.61	8.476
534.80	8.573
535.00	8.655
535.19	8.586
535.39	8.727
535.59	8.427
535.78	8.310
535.98	8.699
536.17	8.271
536.37	8.430
536.57	8.444
536.76	8.273
536.96	8.232
537.15	8.493
537.35	8.186
537.54	8.409
537.74	8.476
537.93	8.479
538.13	8.384
538.33	8.662
538.52	8.365
538.72	8.704
538.91	8.638
539.11	8.408
539.30	8.568
539.50	8.736
539.70	8.016
539.89	8.650
540.09	8.129
540.28	8.280
540.48	7.783
540.67	8.260
540.87	7.962
541.06	8.295
541.26	7.837
541.45	8.462
541.65	8.287
541.85	8.400
542.04	8.156
542.24	8.267
542.43	8.375
542.63	8.544
542.82	8.478
543.02	8.575
543.21	8.635
543.41	8.664
543.60	8.865
543.80	8.651
543.99	8.928
544.19	8.635
544.38	8.438
544.58	8.692
544.77	8.444
544.97	8.572
545.16	8.119
545.36	8.720
545.56	8.443
545.75	8.630
545.95	8.093
546.14	8.420
546.34	8.122
546.53	8.300
546.73	8.056
546.92	8.406
547.12	8.118
547.31	8.339
547.51	8.339
547.70	8.636
547.90	7.957
548.09	8.506
548.29	8.152
548.48	8.582
548.68	8.305
548.87	8.440
549.07	8.772
549.26	8.337
549.46	8.219
549.65	8.570
549.84	7.686
550.04	8.406
550.23	7.133
550.43	7.744
550.62	7.767
550.82	8.392
551.01	7.511
551.21	8.211
551.40	7.021
551.60	8.281
551.79	7.401
551.99	8.118
552.18	7.017
552.38	8.292
552.57	8.065
552.77	8.132
552.96	8.173
553.16	8.392
553.35	7.969
553.54	8.375
553.74	8.281
553.93	8.893
554.13	8.434
554.32	8.607
554.52	8.322
554.71	8.467
554.91	7.412
555.10	8.454
555.29	7.399
555.49	8.486
555.68	7.836
555.88	8.787
556.07	7.501
556.27	8.009
556.46	7.748
556.66	8.373
556.85	7.663
557.04	8.213
557.24	7.506
557.43	8.526
557.63	7.919
557.82	7.825
558.02	7.717
558.21	8.666
558.40	7.407
558.60	8.156
558.79	8.142
558.99	8.794
559.18	7.946
559.38	8.111
559.57	7.789
559.76	8.740
559.96	8.716
560.15	9.007
560.35	8.052
560.54	8.254
560.73	7.506
560.93	8.203
561.12	7.707
561.32	8.607
561.51	8.015
561.70	8.483
561.90	7.771
562.09	8.920
562.29	8.109
562.48	8.557
562.67	8.634
562.87	8.815
563.06	8.157
563.26	8.478
563.45	8.148
563.64	9.358
563.84	8.496
564.03	8.657
564.23	8.460
564.42	9.251
564.61	8.357
564.81	8.906
565.00	9.137
565.20	8.821
565.39	9.005
565.58	9.298
565.78	8.682
565.97	9.281
566.16	9.091
566.36	9.234
566.55	9.054
566.74	9.186
566.94	9.504
567.13	9.714
567.33	8.724
567.52	9.947
567.71	9.870
567.91	9.665
568.10	9.779
568.29	9.689
568.49	9.706
568.68	9.829
568.87	9.132
569.07	9.800
569.26	9.568
569.45	9.710
569.65	9.533
569.84	9.650
570.04	9.420
570.23	9.698
570.42	9.173
570.62	9.635
570.81	9.761
571.00	10.251
571.20	9.957
571.39	10.359
571.58	9.728
571.78	10.172
571.97	9.596
572.16	10.130
572.36	10.103
572.55	9.992
572.74	10.321
572.94	10.137
573.13	10.555
573.32	10.779
573.51	10.217
573.71	10.636
573.90	9.567
574.09	10.511
574.29	9.849
574.48	10.603
574.67	9.937
574.87	10.595
575.06	10.079
575.25	10.305
575.45	10.073
575.64	10.114
575.83	10.238
576.03	11.172
576.22	9.966
576.41	10.202
576.60	10.081
576.80	10.259
576.99	10.080
577.18	10.469
577.38	10.435
577.57	10.744
577.76	10.793
577.95	10.183
578.15	9.680
578.34	10.375
578.53	9.978
578.73	10.894
578.92	9.717
579.11	9.989
579.30	10.178
579.50	9.801
579.69	10.552
579.88	10.164
580.08	9.591
580.27	9.278
580.46	9.465
580.65	9.845
580.85	9.579
581.04	9.997
581.23	9.889
581.42	9.811
581.62	9.342
581.81	9.788
582.00	9.323
582.19	10.010
582.39	9.422
582.58	9.965
582.77	10.242
582.96	10.094
583.16	9.332
583.35	10.249
583.54	9.929
583.73	10.555
583.93	9.739
584.12	9.852
584.31	8.911
584.50	9.909
584.70	9.585
584.89	9.685
585.08	9.291
585.27	10.443
585.47	9.264
585.66	9.959
585.85	9.253
586.04	9.580
586.24	10.173
586.43	9.877
586.62	9.634
586.81	10.127
587.00	8.969
587.20	9.786
587.39	8.673
587.58	9.591
587.77	9.624
587.97	9.622
588.16	9.927
588.35	10.356
588.54	8.894
588.73	9.310
588.93	10.029
589.12	9.945
589.31	9.146
589.50	9.763
589.69	9.707
589.89	10.195
590.08	9.383
590.27	9.384
590.46	9.580
590.65	9.641
590.85	8.812
591.04	10.008
591.23	9.700
591.42	10.334
591.61	10.016
591.81	9.597
592.00	9.875
592.19	10.047
592.38	9.160
592.57	10.202
592.77	9.695
592.96	9.640
593.15	11.201
593.34	10.334
593.53	9.552
593.72	9.734
593.92	8.915
594.11	10.521
594.30	9.458
594.49	10.763
594.68	9.938
594.87	10.119
595.07	8.631
595.26	10.059
595.45	9.613
595.64	10.159
595.83	9.414
596.02	9.755
596.22	9.942
596.41	10.201
596.60	9.902
596.79	10.961
596.98	10.186
597.17	10.829
597.37	10.190
597.56	10.847
597.75	9.734
597.94	10.634
598.13	10.844
598.32	10.530
598.51	10.478
598.71	11.386
598.90	10.551
599.09	11.268
599.28	10.177
599.47	10.693
599.66	9.544
599.85	10.637
600.05	9.627
600.24	10.920
600.43	10.106
600.62	9.961
600.81	9.867
601.00	10.499
601.19	9.469
601.38	10.719
601.58	9.932
601.77	10.269
601.96	10.296
602.15	11.100
602.34	10.536
602.53	11.234
602.72	9.898
602.91	11.025
603.10	10.230
603.30	10.771
603.49	9.912
603.68	10.957
603.87	10.192
604.06	11.082
604.25	10.964
604.44	10.903
604.63	10.479
604.82	10.948
605.01	11.055
605.21	11.186
605.40	10.753
605.59	11.130
605.78	10.715
605.97	11.295
606.16	10.794
606.35	11.349
606.54	10.664
606.73	11.998
606.92	10.492
607.11	11.362
607.30	10.474
607.50	10.623
607.69	10.538
607.88	11.025
608.07	9.851
608.26	10.638
608.45	10.396
608.64	10.448
608.83	9.633
609.02	10.622
609.21	9.974
609.40	10.954
609.59	9.739
609.78	10.948
609.97	10.076
610.16	10.489
610.35	10.517
610.55	10.182
610.74	10.361
610.93	10.577
611.12	10.258
611.31	10.411
611.50	10.025
611.69	9.692
611.88	10.211
612.07	10.807
612.26	8.851
612.45	10.255
612.64	9.328
612.83	9.880
613.02	8.899
613.21	10.005
613.40	8.497
613.59	10.013
613.78	8.782
613.97	9.162
614.16	9.221
614.35	9.183
614.54	8.034
614.73	9.098
614.92	9.394
615.11	8.934
615.30	8.524
615.49	8.321
615.68	8.904
615.87	9.057
616.07	8.853
616.26	9.338
616.45	8.499
616.64	9.705
616.83	8.197
617.02	8.683
617.21	8.107
617.40	7.129
617.59	8.539
617.78	9.463
617.97	8.413
618.16	7.475
618.35	7.175
618.54	8.909
618.73	7.929
618.92	8.512
619.11	7.392
619.30	9.149
619.49	7.608
619.68	8.515
619.86	8.265
620.05	8.385
620.24	7.539
620.43	8.254
620.62	6.758
620.81	8.609
621.00	8.974
621.19	9.492
621.38	9.109
621.57	8.203
621.76	8.386
621.95	8.738
622.14	8.125
622.33	9.270
622.52	7.915
622.71	8.582
622.90	7.500
623.09	8.547
623.28	8.235
623.47	8.454
623.66	8.364
623.85	8.296
624.04	7.494
624.23	7.559
624.42	7.458
624.61	8.178
624.80	6.940
624.99	8.194
625.18	7.370
625.36	7.977
625.55	8.458
625.74	7.806
625.93	7.509
626.12	8.398
626.31	8.854
626.50	9.028
626.69	7.870
626.88	9.524
627.07	9.277
627.26	8.099
627.45	7.983
627.64	8.698
627.83	7.531
628.02	8.680
628.20	8.197
628.39	8.917
628.58	8.362
628.77	8.651
628.96	7.517
629.15	7.874
629.34	8.235
629.53	7.890
629.72	7.142
629.91	8.810
630.10	8.266
630.29	7.716
630.47	7.206
630.66	7.477
630.85	6.745
631.04	7.852
631.23	7.522
631.42	6.997
631.61	6.688
631.80	8.766
631.99	6.361
632.18	6.620
632.36	6.552
632.55	7.930
632.74	6.814
632.93	6.797
633.12	7.415
633.31	7.379
633.50	7.066
633.69	7.491
633.88	6.936
634.06	7.349
634.25	7.627
634.44	7.260
634.63	7.860
634.82	8.404
635.01	7.142
635.20	7.772
635.39	6.385
635.57	7.645
635.76	6.791
635.95	7.587
636.14	6.442
636.33	7.763
636.52	7.570
636.71	6.840
636.89	6.756
637.08	7.491
637.27	6.195
637.46	6.655
637.65	6.864
637.84	7.930
638.03	7.472
638.21	8.295
638.40	7.562
638.59	7.080
638.78	6.795
638.97	8.774
639.16	8.320
639.34	7.795
639.53	6.190
639.72	7.128
639.91	6.683
640.10	6.927
640.29	8.256
640.47	8.183
640.66	7.585
640.85	8.822
641.04	6.309
641.23	7.761
641.42	7.308
641.60	7.345
641.79	6.616
641.98	7.394
642.17	6.667
642.36	8.061
642.54	6.560
642.73	7.067
642.92	6.874
643.11	6.902
643.30	7.315
643.49	7.312
643.67	5.829
643.86	7.846
644.05	6.999
644.24	7.550
644.43	7.129
644.61	7.438
644.80	7.978
644.99	7.290
645.18	8.160
645.37	7.696
645.55	6.507
645.74	7.241
645.93	7.226
646.12	7.788
646.31	7.662
646.49	8.040
646.68	7.796
646.87	7.394
647.06	7.190
647.24	7.400
647.43	5.585
647.62	8.245
647.81	5.802
648.00	7.355
648.18	6.588
648.37	7.055
648.56	6.583
648.75	6.791
648.93	7.285
649.12	7.627
649.31	7.173
649.50	7.415
649.68	6.659
649.87	6.798
650.06	5.365
650.25	7.783
650.43	6.562
650.62	6.681
650.81	6.124
651.00	7.453
651.18	6.219
651.37	9.163
651.56	6.855
651.75	7.998
651.93	6.661
652.12	6.970
652.31	6.784
652.50	7.366
652.68	7.621
652.87	8.532
653.06	7.156
653.25	7.504
653.43	7.169
653.62	8.257
653.81	7.246
654.00	8.136
654.18	7.238
654.37	7.983
654.56	7.280
654.74	5.220
654.93	7.486
655.12	7.161
655.31	8.140
655.49	7.458
655.68	6.140
655.87	6.803
656.05	6.268
656.24	6.992
656.43	5.793
656.62	7.669
656.80	6.330
656.99	5.948
657.18	6.355
657.36	6.413
657.55	7.560
657.74	6.513
657.93	7.611
658.11	8.719
658.30	7.790
658.49	7.072
658.67	6.859
658.86	6.377
659.05	6.694
659.23	6.672
659.42	6.385
659.61	6.458
659.79	7.039
659.98	6.506
660.17	7.113
660.35	7.067
660.54	7.630
660.73	8.189
660.91	7.286
661.10	7.513
661.29	5.923
661.47	6.503
661.66	7.033
661.85	7.126
662.03	7.491
662.22	6.339
662.41	6.727
662.59	6.772
662.78	6.341
662.97	6.660
663.15	7.199
663.34	5.579
663.53	6.488
663.71	6.996
663.90	7.235
664.09	8.135
664.27	8.106
664.46	6.953
664.65	6.775
664.83	6.955
665.02	6.281
665.21	5.339
665.39	6.240
665.58	8.057
665.77	7.399
665.95	7.410
666.14	5.832
666.32	7.293
666.51	6.240
666.70	7.434
666.88	6.979
667.07	6.028
667.26	6.599
667.44	7.710
667.63	7.140
667.81	7.274
668.00	7.210
668.19	8.357
668.37	6.195
668.56	8.529
668.75	6.639
668.93	8.250
669.12	7.573
669.30	7.719
669.49	6.833
669.68	8.282
669.86	8.826
670.05	6.652
670.23	7.917
670.42	6.983
670.61	7.895
670.79	8.435
670.98	7.838
671.16	8.931
671.35	7.451
671.54	8.409
671.72	8.254
671.91	9.604
672.09	7.313
672.28	9.230
672.46	9.459
672.65	9.374
672.84	8.413
673.02	9.857
673.21	7.272
673.39	8.665
673.58	8.957
673.77	8.906
673.95	9.044
674.14	9.945
674.32	8.154
674.51	11.045
674.69	8.810
674.88	8.930
675.07	9.184
675.25	11.147
675.44	8.335
675.62	10.209
675.81	8.419
675.99	13.053
676.18	11.793
676.36	9.326
676.55	9.044
676.74	11.868
676.92	11.558
677.11	10.203
677.29	9.406
677.48	11.110
677.66	10.606
677.85	10.214
678.03	9.578
678.22	11.266
678.40	10.203
678.59	9.959
678.78	9.585
678.96	10.194
679.15	9.717
679.33	11.592
679.52	10.813
679.70	10.672
679.89	10.421
680.07	11.156
680.26	8.890
680.44	10.292
680.63	10.468
680.81	10.970
681.00	8.905
681.18	9.805
681.37	9.862
681.55	11.963
681.74	10.699
681.92	11.297
682.11	10.471
682.29	10.777
682.48	9.903
682.66	11.676
682.85	10.807
683.03	9.999
683.22	10.651
683.40	12.415
683.59	9.961
683.77	11.711
683.96	10.348
684.14	11.767
684.33	9.506
684.51	12.719
684.70	12.103
684.88	12.221
685.07	11.800
685.25	13.153
685.44	10.615
685.62	12.030
685.81	10.128
685.99	12.995
686.18	10.371
686.36	12.133
686.55	10.048
686.73	10.016
686.92	12.218
687.10	12.554
687.29	11.177
687.47	14.202
687.65	12.220
687.84	11.739
688.02	14.238
688.21	12.711
688.39	10.369
688.58	12.262
688.76	10.740
688.95	12.270
689.13	9.934
689.32	13.308
689.50	11.952
689.68	13.086
689.87	10.604
690.05	12.706
690.24	12.066
690.42	12.228
690.61	13.560
690.79	14.280
690.98	11.515
691.16	12.831
691.34	10.928
691.53	13.188
691.71	10.932
691.90	12.352
692.08	11.134
692.27	14.451
692.45	14.467
692.63	12.479
692.82	13.950
693.00	13.344
693.19	10.771
693.37	14.853
693.56	12.562
693.74	14.227
693.92	12.516
694.11	15.141
694.29	15.727
694.48	16.094
694.66	13.910
694.84	14.913
695.03	14.980
695.21	17.043
695.40	15.405
695.58	16.996
695.76	14.060
695.95	16.455
696.13	14.965
696.32	17.727
696.50	20.059
696.68	16.534
696.87	16.030
697.05	17.722
697.24	17.786
697.42	18.589
697.60	17.768
697.79	18.877
697.97	18.149
698.16	20.149
698.34	17.120
698.52	20.431
698.71	19.148
698.89	20.072
699.07	18.129
699.26	20.509
699.44	19.151
699.63	21.318
699.81	19.648
699.99	21.276
700.18	20.651
700.36	21.377
700.54	21.324
700.73	21.165
700.91	20.533
701.09	21.798
701.28	22.326
701.46	22.776
701.64	21.202
701.83	22.337
702.01	21.124
702.20	23.416
702.38	24.155
702.56	23.193
702.75	22.721
702.93	23.867
703.11	22.916
703.30	24.789
703.48	23.363
703.66	24.723
703.85	22.867
704.03	26.300
704.21	24.064
704.40	26.019
704.58	26.629
704.76	27.318
704.95	24.243
705.13	25.437
705.31	24.580
705.50	27.304
705.68	23.181
705.86	27.630
706.04	27.021
706.23	28.621
706.41	25.338
706.59	26.021
706.78	24.254
706.96	26.354
707.14	26.895
707.33	29.616
707.51	26.492
707.69	28.664
707.88	26.760
708.06	27.035
708.24	29.031
708.42	29.252
708.61	25.617
708.79	28.740
708.97	27.930
709.16	27.647
709.34	29.623
709.52	27.700
709.71	28.169
709.89	29.476
710.07	25.898
710.25	29.880
710.44	27.789
710.62	29.723
710.80	30.152
710.98	28.726
711.17	28.269
711.35	30.800
711.53	29.122
711.72	30.964
711.90	29.946
712.08	29.634
712.26	28.544
712.45	29.044
712.63	28.269
712.81	32.565
712.99	28.922
713.18	30.541
713.36	29.274
713.54	31.026
713.72	29.051
713.91	30.678
714.09	27.491
714.27	30.860
714.45	29.602
714.64	32.043
714.82	30.865
715.00	31.199
715.18	30.080
715.37	30.908
715.55	28.494
715.73	31.868
715.91	30.684
716.10	30.645
716.28	27.509
716.46	32.285
716.64	30.131
716.83	31.853
717.01	30.253
717.19	30.329
717.37	31.398
717.55	32.915
717.74	30.762
717.92	31.942
718.10	28.885
718.28	32.146
718.47	29.749
718.65	32.770
718.83	30.301
719.01	33.991
719.19	30.036
719.38	32.119
719.56	32.401
719.74	30.700
719.92	29.290
720.10	30.769
720.29	32.239
720.47	32.949
720.65	30.948
720.83	33.825
721.01	30.344
721.20	31.538
721.38	30.584
721.56	30.866
721.74	30.620
721.92	30.918
722.11	32.141
722.29	31.493
722.47	29.629
722.65	32.613
722.83	32.555
723.01	31.104
723.20	31.876
723.38	31.469
723.56	29.229
723.74	35.262
723.92	31.058
724.10	34.633
724.29	30.983
724.47	34.135
724.65	32.113
724.83	34.568
725.01	31.018
725.19	34.914
725.38	32.293
725.56	33.076
725.74	34.957
725.92	36.519
726.10	32.338
726.28	33.184
726.46	33.356
726.65	35.410
726.83	32.642
727.01	34.153
727.19	34.812
727.37	32.754
727.55	34.602
727.73	35.179
727.92	34.204
728.10	34.758
728.28	31.256
728.46	35.645
728.64	31.980
728.82	35.975
729.00	34.649
729.19	36.812
729.37	34.558
729.55	36.843
729.73	31.423
729.91	36.176
730.09	37.515
730.27	35.485
730.45	32.219
730.63	37.390
730.82	33.522
731.00	36.068
731.18	37.020
731.36	37.007
731.54	33.367
731.72	37.566
731.90	36.349
732.08	36.868
732.26	34.985
732.45	39.252
732.63	36.716
732.81	39.452
732.99	36.327
733.17	38.853
733.35	36.955
733.53	39.099
733.71	37.189
733.89	38.463
734.07	38.523
734.25	39.154
734.44	38.289
734.62	38.133
734.80	37.724
734.98	39.181
735.16	40.166
735.34	39.821
735.52	39.051
735.70	39.253
735.88	40.904
736.06	41.034
736.24	42.763
736.42	40.410
736.60	40.057
736.78	41.229
736.97	40.005
737.15	41.701
737.33	38.638
737.51	41.403
737.69	41.960
737.87	44.869
738.05	40.246
738.23	42.632
738.41	39.095
738.59	44.952
738.77	40.897
738.95	44.127
739.13	43.102
739.31	42.176
739.49	42.496
739.67	44.984
739.85	41.420
740.03	40.909
740.21	44.051
740.39	43.574
740.57	45.114
740.75	43.203
740.93	42.767
741.11	44.822
741.30	44.584
741.48	46.262
741.66	45.188
741.84	45.379
742.02	42.754
742.20	45.291
742.38	46.378
742.56	47.241
742.74	43.195
742.92	44.266
743.10	44.912
743.28	47.999
743.46	43.205
743.64	43.866
743.82	42.129
744.00	46.842
744.18	45.167
744.36	48.974
744.54	41.831
744.72	50.486
744.90	48.396
745.08	47.922
745.26	45.538
745.44	47.641
745.62	44.190
745.80	47.117
745.98	47.210
746.16	48.717
746.34	42.651
746.52	46.377
746.70	43.970
746.87	45.517
747.05	45.366
747.23	47.485
747.41	46.286
747.59	48.343
747.77	45.478
747.95	45.942
748.13	46.446
748.31	51.613
748.49	46.919
748.67	46.922
748.85	44.275
749.03	47.549
749.21	46.443
749.39	48.246
749.57	44.015
749.75	46.580
749.93	47.599
750.11	48.390
750.29	47.304
750.47	47.296
750.65	44.902
750.83	44.620
751.01	45.882
751.18	47.795
751.36	44.564
751.54	47.534
751.72	49.953
751.90	48.688
752.08	42.848
752.26	45.908
752.44	45.768
752.62	48.010
752.80	49.219
752.98	47.748
753.16	50.202
753.34	49.705
753.52	49.580
753.69	49.954
753.87	49.190
754.05	49.627
754.23	45.080
754.41	48.973
754.59	47.432
754.77	49.418
754.95	46.333
755.13	48.447
755.31	48.158
755.49	46.944
755.66	47.531
755.84	48.179
756.02	45.886
756.20	50.563
756.38	48.939
756.56	48.532
756.74	46.440
756.92	49.279
757.10	45.081
757.28	52.690
757.45	50.691
757.63	50.737
757.81	44.784
757.99	53.982
758.17	45.944
758.35	51.013
758.53	50.236
758.71	46.661
758.88	47.238
759.06	47.095
759.24	43.540
759.42	48.949
759.60	45.780
759.78	47.860
759.96	43.676
760.13	47.111
760.31	40.478
760.49	46.594
760.67	39.840
760.85	43.550
761.03	41.403
761.21	38.764
761.38	40.373
761.56	42.502
761.74	39.390
761.92	42.602
762.10	37.035
762.28	44.001
762.46	36.087
762.63	42.013
762.81	41.085
762.99	42.332
763.17	41.554
763.35	41.725
763.53	40.398
763.70	43.784
763.88	43.463
764.06	43.441
764.24	42.382
764.42	42.601
764.60	41.772
764.77	42.595
764.95	41.947
765.13	43.575
765.31	44.340
765.49	42.835
765.66	41.660
765.84	45.025
766.02	42.742
766.20	46.405
766.38	42.722
766.56	44.702
766.73	42.415
766.91	45.718
767.09	46.823
767.27	48.229
767.45	41.419
767.62	46.585
767.80	46.962
767.98	47.234
768.16	42.224
768.33	48.676
768.51	46.268
768.69	46.319
768.87	44.223
769.05	46.712
769.22	45.927
769.40	54.303
769.58	47.164
769.76	49.025
769.94	46.681
770.11	48.539
770.29	45.937
770.47	47.850
770.65	44.675
770.82	48.686
771.00	49.421
771.18	51.208
771.36	48.629
771.53	49.003
771.71	47.933
771.89	49.058
772.07	49.201
772.25	50.674
772.42	43.326
772.60	51.429
772.78	45.944
772.96	50.064
773.13	47.706
773.31	51.890
773.49	49.032
773.67	50.000
773.84	48.748
774.02	51.697
774.20	48.052
774.37	50.179
774.55	47.299
774.73	49.171
774.91	50.265
775.08	49.328
775.26	50.287
775.44	49.558
775.62	47.887
775.79	49.931
775.97	49.470
776.15	51.903
776.32	41.365
776.50	55.403
776.68	51.810
776.86	50.605
777.03	42.788
777.21	49.396
777.39	46.477
777.56	49.590
777.74	42.773
777.92	47.458
778.10	46.967
778.27	49.625
778.45	50.381
778.63	51.301
778.80	46.088
778.98	53.551
779.16	51.322
779.34	48.556
779.51	47.491
779.69	50.904
779.87	45.885
780.04	48.890
780.22	49.071
780.40	49.193
780.57	47.928
780.75	49.610
780.93	50.955
781.10	46.448
781.28	56.878
781.46	48.663
781.63	47.122
781.81	55.354
781.99	46.463
782.16	49.803
782.34	43.513
782.52	52.165
782.69	52.932
782.87	48.323
783.05	47.406
783.22	51.118
783.40	47.495
783.58	48.813
783.75	49.227
783.93	50.986
784.11	48.817
784.28	53.554
784.46	47.798
784.64	50.885
784.81	49.174
784.99	51.370
785.17	43.064
785.34	44.086
785.52	43.527
785.69	48.884
785.87	45.817
786.05	53.013
786.22	45.688
786.40	53.958
786.58	42.475
786.75	50.277
786.93	48.701
787.11	46.345
787.28	48.418
787.46	52.516
787.63	50.831
787.81	49.145
787.99	51.887
788.16	42.970
788.34	46.352
788.51	49.710
788.69	41.561
788.87	45.411
789.04	42.885
789.22	50.096
789.39	43.884
789.57	46.686
789.75	42.188
789.92	50.913
790.10	41.928
790.27	50.047
790.45	41.766
790.63	46.582
790.80	42.857
790.98	45.957
791.15	43.708
791.33	44.546
791.51	43.128
791.68	45.752
791.86	43.388
792.03	42.849
792.21	42.751
792.39	45.380
792.56	42.013
792.74	49.203
792.91	50.172
793.09	46.036
793.26	42.537
793.44	50.326
793.62	48.022
793.79	43.070
793.97	45.683
794.14	45.387
794.32	43.079
794.49	46.081
794.67	43.071
794.84	46.080
795.02	42.240
795.20	46.971
795.37	41.023
795.55	49.941
795.72	45.873
795.90	53.028
796.07	48.701
796.25	48.274
796.42	46.451
796.60	43.729
796.77	41.283
796.95	43.204
797.13	36.985
797.30	50.186
797.48	43.189
797.65	47.010
797.83	46.387
798.00	47.013
798.18	41.807
798.35	50.162
798.53	42.769
798.70	45.616
798.88	43.939
799.05	50.029
799.23	44.574
799.40	45.680
799.58	45.694
799.75	45.402
799.93	39.444
800.10	44.156
800.28	45.514
800.45	47.309
800.63	36.391
800.80	48.161
800.98	45.433
801.15	46.149
801.33	41.976
801.50	45.841
801.68	39.122
801.85	43.532
802.03	42.919
802.20	50.094
802.38	52.795
802.55	43.031
802.73	44.077
802.90	41.202
803.08	39.217
803.25	48.058
803.43	47.724
803.60	49.325
803.78	47.005
803.95	46.936
804.13	46.952
804.30	50.974
804.48	44.702
804.65	45.698
804.83	45.700
805.00	48.980
805.17	43.664
805.35	47.753
805.52	41.822
805.70	43.620
805.87	46.924
806.05	43.966
806.22	37.796
806.40	39.858
806.57	47.133
806.75	51.564
806.92	51.759
807.09	42.567
807.27	48.805
807.44	47.934
807.62	48.065
807.79	49.091
807.97	38.127
808.14	43.225
808.31	43.331
808.49	42.239
808.66	48.055
808.84	46.195
809.01	50.321
809.19	47.901
809.36	51.670
809.53	46.565
809.71	43.800
809.88	48.676
810.06	50.948
810.23	46.411
810.41	54.192
810.58	51.036
810.75	43.046
810.93	45.573
811.10	41.519
811.28	48.548
811.45	48.824
811.62	46.998
811.80	38.103
811.97	48.804
812.15	55.741
812.32	46.380
812.49	48.221
812.67	47.284
812.84	40.120
813.02	49.092
813.19	46.716
813.36	46.184
813.54	41.396
813.71	49.577
813.89	47.926
814.06	47.536
814.23	45.067
814.41	41.660
814.58	51.175
814.75	47.883
814.93	50.427
815.10	49.831
815.28	40.640
815.45	41.200
815.62	49.247
815.80	43.157
815.97	44.309
816.14	44.346
816.32	44.436
816.49	46.349
816.66	45.202
816.84	46.730
817.01	45.805
817.18	44.559
817.36	47.049
817.53	41.771
817.71	33.943
817.88	43.204
818.05	39.188
818.23	41.272
818.40	45.156
818.57	43.392
818.75	44.188
818.92	39.047
819.09	38.204
819.27	40.592
819.44	36.489
819.61	42.725
819.79	47.130
819.96	43.166
820.13	36.601
820.31	42.210
820.48	42.462
820.65	42.163
820.82	40.000
821.00	41.130
821.17	35.423
821.34	35.262
821.52	37.604
821.69	37.686
821.86	36.987
822.04	44.610
822.21	38.964
822.38	42.833
822.56	39.792
822.73	41.078
822.90	40.210
823.07	41.748
823.25	40.649
823.42	41.241
823.59	40.341
823.77	40.051
823.94	40.895
824.11	40.735
824.29	40.343
824.46	41.236
824.63	41.779
824.80	40.836
824.98	38.863
825.15	42.043
825.32	37.838
825.49	42.147
825.67	38.838
825.84	41.731
826.01	38.635
826.19	41.262
826.36	38.984
826.53	42.454
826.70	38.013
826.88	42.655
827.05	39.047
827.22	38.760
827.39	40.458
827.57	40.258
827.74	35.494
827.91	41.869
828.08	36.717
828.26	40.456
828.43	36.920
828.60	42.809
828.77	37.466
828.95	38.581
829.12	35.432
829.29	34.223
829.46	37.394
829.64	38.782
829.81	34.591
829.98	39.375
830.15	39.326
830.32	38.594
830.50	37.456
830.67	39.005
830.84	38.779
831.01	35.635
831.19	33.887
831.36	38.542
831.53	35.771
831.70	38.977
831.87	40.890
832.05	41.117
832.22	47.477
832.39	42.618
832.56	38.551
832.74	42.977
832.91	33.754
833.08	45.994
833.25	34.707
833.42	31.824
833.60	37.726
833.77	34.021
833.94	31.833
834.11	39.974
834.28	32.188
834.45	40.032
834.63	33.244
834.80	39.600
834.97	33.731
835.14	40.050
835.31	38.794
835.49	37.761
835.66	38.688
835.83	35.398
836.00	34.116
836.17	39.641
836.34	35.078
836.52	41.063
836.69	38.042
836.86	43.416
837.03	38.757
837.20	36.683
837.37	36.414
837.55	29.487
837.72	35.762
837.89	40.842
838.06	40.523
838.23	47.910
838.40	43.870
838.58	41.902
838.75	40.040
838.92	43.164
839.09	59.664
839.26	49.864
839.43	56.961
839.60	48.247
839.78	57.497
839.95	60.399
840.12	45.298
840.29	59.378
840.46	59.572
840.63	54.162
840.80	52.974
840.98	50.469
841.15	50.382
841.32	42.553
841.49	40.979
841.66	54.486
841.83	42.143
842.00	47.305
842.17	63.391
842.34	40.137
842.52	55.374
842.69	49.502
842.86	51.519
843.03	69.963
843.20	52.704
843.37	54.009
843.54	49.072
843.71	60.158
843.88	53.408
844.06	70.000
844.23	67.781
844.40	46.687
844.57	72.516
844.74	73.220
844.91	69.172
845.08	69.711
845.25	65.210
845.42	67.877
845.59	79.923
845.76	62.063
845.94	73.936
846.11	66.946
846.28	60.234
846.45	75.335
846.62	87.582
846.79	69.156
846.96	81.696
847.13	70.209
847.30	72.242
847.47	58.656
847.64	65.815
847.81	61.974
847.98	73.029
848.15	65.895
848.32	80.989
848.50	91.502
848.67	61.609
848.84	64.575
849.01	66.463
849.18	67.894
849.35	77.668
849.52	87.327
849.69	78.654
849.86	91.403
850.03	71.897
850.20	62.289
850.37	75.576
850.54	83.301
850.71	94.235
850.88	83.817
851.05	72.083
851.22	87.961
851.39	72.486
851.56	78.525
851.73	79.294
851.90	80.963
852.07	84.892
852.24	65.166
852.41	75.375
852.58	80.000
852.75	73.023
852.92	79.879
853.09	103.371
853.26	79.158
853.43	73.778
853.60	78.378
853.77	94.872
853.94	80.082
854.11	90.255
854.28	90.000
854.45	75.111
854.62	74.805
854.79	69.248
854.96	97.449
855.13	70.766
855.30	93.750
855.47	103.316
855.64	69.488
855.81	79.187
855.98	92.954
856.15	83.537
856.32	67.223
856.49	79.433
856.66	80.282
856.83	93.534
857.00	82.008
857.17	86.694
857.34	79.167
857.51	92.747
857.68	84.010
857.85	101.017
858.02	75.306
858.19	75.000
858.36	98.272
858.53	82.655
858.70	90.132
858.87	89.444
859.04	57.240
859.21	82.543
859.38	82.292
859.55	98.054
859.72	93.353
859.89	102.915
860.05	100.245
860.22	89.211
860.39	92.744
860.56	77.778
860.73	84.726
860.90	76.712
861.07	98.174
861.24	74.371
861.41	87.037
861.58	100.000
861.75	86.874
861.92	68.709
862.09	86.076
862.26	96.927
862.43	85.124
862.59	91.435
862.76	77.070
862.93	97.297
863.10	79.475
863.27	80.531
863.44	88.725
863.61	79.318
863.78	92.239
863.95	100.475
864.12	101.869
864.29	109.422
864.45	79.597
864.62	85.340
864.79	98.267
864.96	73.945
865.13	76.275
865.30	113.333
865.47	111.142
865.64	80.660
865.81	90.083
865.97	73.861
866.14	100.891
866.31	69.718
866.48	82.468
866.65	86.458
866.82	93.046
866.99	103.958
867.16	85.864
867.33	76.235
867.49	87.775
867.66	80.723
867.83	78.414
868.00	73.159
868.17	88.218
868.34	88.616
868.51	64.976
868.67	78.910
868.84	91.034
869.01	97.465
869.18	84.146
869.35	78.587
869.52	78.000
869.69	100.305
869.85	81.481
870.02	78.155
870.19	102.153
870.36	90.476
870.53	81.818
870.70	90.851
870.86	82.383
871.03	93.039
871.20	78.465
871.37	101.326
871.54	64.402
871.71	86.650
871.87	102.989
872.04	82.508
872.21	83.223
872.38	77.751
872.55	96.203
872.72	95.270
872.88	97.183
873.05	78.082
873.22	86.410
873.39	83.215
873.56	78.132
873.72	74.038
873.89	94.767
874.06	78.866
874.23	85.079
874.40	66.474
874.56	80.249
874.73	93.447
874.90	77.005
875.07	91.485
875.24	78.520
875.40	70.337
875.57	70.227
875.74	89.024
875.91	100.271
876.08	79.956
876.24	86.570
876.41	118.528
876.58	87.351
876.75	96.419
876.92	76.339
877.08	81.641
877.25	65.979
877.42	85.976
877.59	92.966
877.75	89.817
877.92	67.110
878.09	80.510
878.26	83.133
878.42	76.596
878.59	95.133
878.76	73.518
878.93	93.439
879.09	79.258
879.26	83.575
879.43	73.258
879.60	66.541
879.76	71.708
879.93	70.050
880.10	60.233
880.27	52.724
880.43	69.775
880.60	63.009
880.77	57.077
880.94	34.582
881.10	45.077
881.27	49.443
881.44	29.678
881.61	40.402
881.77	39.149
881.94	33.045
882.11	32.874
882.28	25.909
882.44	37.012
882.61	31.024
882.78	33.485
882.94	40.974
883.11	35.908
883.28	38.326
883.45	35.619
883.61	35.177
883.78	33.540
883.95	39.608
884.11	36.055
884.28	33.770
>>>>>End Processed Spectral Data<<<<<
