SpectraSuite Data File
++++++++++++++++++++++++++++++++++++
Date: Mon Sep 23 04:03:23 EST 2019
User: sgrac
Dark Spectrum Present: Yes
Reference Spectrum Present: Yes
Number of Sampled Component Spectra: 1
Spectrometers: USB4E01596
Integration Time (usec): 100000 (USB4E01596)
Spectra Averaged: 3 (USB4E01596)
Boxcar Smoothing: 0 (USB4E01596)
Correct for Electrical Dark: No (USB4E01596)
Strobe/Lamp Enabled: Yes (USB4E01596)
Correct for Detector Non-linearity: No (USB4E01596)
Correct for Stray Light: No (USB4E01596)
Number of Pixels in Processed Spectrum: 3648
>>>>>Begin Processed Spectral Data<<<<<
178.44	1561.538
178.66	1561.538
178.87	1561.538
179.09	9200.000
179.30	-5975.000
179.52	-738.710
179.74	-571.698
179.95	784.091
180.17	-541.667
180.38	542.105
180.60	-2590.909
180.82	724.444
181.03	3716.667
181.25	-2475.000
181.46	-1156.000
181.68	1520.833
181.89	-554.545
182.11	-1712.500
182.33	-1856.250
182.54	683.333
182.76	5433.333
182.97	-600.000
183.19	1300.000
183.40	322.314
183.62	478.205
183.84	339.091
184.05	5571.429
184.27	459.091
184.48	507.576
184.70	2235.294
184.91	1590.476
185.13	2250.000
185.34	-14600.000
185.56	1361.538
185.78	343.056
185.99	1052.778
186.21	425.000
186.42	-6325.000
186.64	2320.000
186.85	-5740.000
187.07	554.000
187.28	385.526
187.50	545.455
187.72	332.051
187.93	758.182
188.15	365.625
188.36	430.263
188.58	659.184
188.79	317.308
189.01	469.014
189.22	962.162
189.44	-930.303
189.65	311.017
189.87	-7025.000
190.09	553.968
190.30	702.381
190.52	541.667
190.73	758.696
190.95	-4083.333
191.16	438.095
191.38	459.459
191.59	444.118
191.81	579.032
192.02	1786.667
192.24	1075.000
192.45	870.588
192.67	-1687.500
192.88	449.057
193.10	473.770
193.31	732.500
193.53	271.774
193.74	380.000
193.96	1864.286
194.18	950.000
194.39	1886.667
194.61	436.986
194.82	1486.364
195.04	306.098
195.25	-498.246
195.47	-511.111
195.68	4033.333
195.90	514.545
196.11	371.642
196.33	36600.000
196.54	804.878
196.76	1992.857
196.97	468.831
197.19	848.649
197.40	2564.286
197.62	206.422
197.83	883.871
198.05	600.000
198.26	1013.793
198.48	357.746
198.69	440.000
198.91	1388.889
199.12	669.767
199.34	741.304
199.55	398.571
199.77	1900.000
199.98	835.294
200.20	438.158
200.41	495.161
200.63	331.858
200.84	2314.286
201.06	2977.778
201.27	819.512
201.49	518.310
201.70	-860.000
201.91	509.722
202.13	586.441
202.34	550.000
202.56	-1228.000
202.77	742.222
202.99	5916.667
203.20	-3562.500
203.42	1812.500
203.63	359.211
203.85	5500.000
204.06	520.000
204.28	305.051
204.49	512.963
204.71	437.288
204.92	746.154
205.14	0.000
205.35	706.667
205.56	-1415.000
205.78	6500.000
205.99	-2114.286
206.21	10400.000
206.42	802.273
206.64	841.935
206.85	807.407
207.07	-2933.333
207.28	489.655
207.50	769.565
207.71	619.355
207.93	333.735
208.14	-974.074
208.35	396.364
208.57	1088.000
208.78	-2755.556
209.00	390.426
209.21	-12600.000
209.43	-9833.333
209.64	-1833.333
209.86	287.629
210.07	354.651
210.28	398.592
210.50	968.966
210.71	678.431
210.93	263.971
211.14	360.674
211.36	1750.000
211.57	478.788
211.78	477.143
212.00	404.706
212.21	427.143
212.43	961.538
212.64	338.298
212.86	481.081
213.07	358.716
213.29	-702.778
213.50	369.565
213.71	300.000
213.93	364.634
214.14	1972.727
214.36	455.882
214.57	412.658
214.78	737.778
215.00	340.625
215.21	1003.333
215.43	702.703
215.64	428.571
215.86	326.250
216.07	971.429
216.28	828.947
216.50	287.500
216.71	28700.000
216.93	521.212
217.14	1794.444
217.35	285.606
217.57	338.739
217.78	401.235
218.00	249.495
218.21	1073.913
218.42	687.234
218.64	491.071
218.85	530.000
219.07	1270.000
219.28	299.065
219.49	582.353
219.71	476.923
219.92	208.955
220.14	331.959
220.35	557.333
220.56	345.977
220.78	325.000
220.99	259.677
221.21	319.355
221.42	353.086
221.63	226.012
221.85	421.538
222.06	404.286
222.28	418.462
222.49	235.135
222.70	282.677
222.92	655.102
223.13	519.672
223.34	226.241
223.56	303.571
223.77	360.000
223.99	318.947
224.20	548.214
224.41	373.973
224.63	311.364
224.84	200.676
225.05	147.009
225.27	272.174
225.48	307.843
225.69	227.068
225.91	300.000
226.12	269.767
226.34	174.497
226.55	175.540
226.76	247.500
226.98	161.176
227.19	137.891
227.40	231.250
227.62	149.206
227.83	116.738
228.04	108.939
228.26	88.946
228.47	77.337
228.69	57.868
228.90	60.981
229.11	48.722
229.33	51.254
229.54	35.650
229.75	38.156
229.97	33.244
230.18	37.528
230.39	34.071
230.61	40.560
230.82	42.395
231.03	27.154
231.25	37.775
231.46	40.498
231.67	49.148
231.89	48.607
232.10	46.433
232.31	44.790
232.53	48.217
232.74	56.822
232.95	51.906
233.17	51.600
233.38	55.882
233.59	45.083
233.81	62.138
234.02	62.926
234.23	54.433
234.45	63.368
234.66	56.637
234.87	67.008
235.09	53.376
235.30	50.613
235.51	50.178
235.73	60.853
235.94	63.861
236.15	50.805
236.36	42.991
236.58	42.746
236.79	49.853
237.00	53.812
237.22	53.741
237.43	46.677
237.64	51.969
237.86	49.624
238.07	50.344
238.28	48.226
238.50	39.865
238.71	46.403
238.92	45.469
239.13	51.186
239.35	44.323
239.56	44.700
239.77	62.323
239.99	37.518
240.20	56.094
240.41	52.080
240.63	32.749
240.84	37.687
241.05	35.067
241.26	39.528
241.48	28.049
241.69	28.686
241.90	20.207
242.12	22.647
242.33	22.129
242.54	14.036
242.75	18.688
242.97	16.553
243.18	14.008
243.39	13.636
243.61	15.214
243.82	11.531
244.03	14.132
244.24	11.840
244.46	16.261
244.67	17.000
244.88	12.932
245.09	18.243
245.31	23.696
245.52	19.168
245.73	14.148
245.95	31.189
246.16	17.326
246.37	16.403
246.58	18.590
246.80	16.792
247.01	16.413
247.22	13.540
247.43	10.726
247.65	9.952
247.86	9.517
248.07	7.924
248.28	8.368
248.50	7.331
248.71	8.835
248.92	7.016
249.13	6.818
249.35	8.386
249.56	9.300
249.77	9.784
249.98	10.838
250.20	13.541
250.41	12.486
250.62	14.205
250.83	15.568
251.05	18.762
251.26	11.971
251.47	15.019
251.68	16.827
251.90	17.203
252.11	16.119
252.32	18.624
252.53	15.916
252.75	17.197
252.96	17.296
253.17	11.411
253.38	16.840
253.59	11.649
253.81	14.184
254.02	12.591
254.23	11.335
254.44	12.741
254.66	11.148
254.87	16.409
255.08	18.203
255.29	18.530
255.50	20.590
255.72	15.786
255.93	24.066
256.14	23.344
256.35	15.485
256.57	25.493
256.78	25.325
256.99	22.748
257.20	26.883
257.41	20.356
257.63	25.938
257.84	17.055
258.05	18.235
258.26	16.989
258.47	16.704
258.69	16.311
258.90	10.888
259.11	14.093
259.32	14.407
259.53	10.442
259.75	10.407
259.96	10.077
260.17	7.154
260.38	6.152
260.59	7.341
260.81	6.854
261.02	6.394
261.23	5.875
261.44	7.757
261.65	5.332
261.87	4.699
262.08	6.773
262.29	6.832
262.50	8.162
262.71	8.486
262.92	10.410
263.14	10.490
263.35	9.824
263.56	10.449
263.77	10.810
263.98	13.149
264.20	12.536
264.41	12.346
264.62	12.215
264.83	12.688
265.04	16.005
265.25	16.472
265.47	11.197
265.68	16.608
265.89	14.312
266.10	11.744
266.31	20.435
266.52	10.117
266.74	12.925
266.95	11.279
267.16	14.821
267.37	9.896
267.58	11.308
267.79	10.074
268.01	10.331
268.22	10.151
268.43	9.825
268.64	9.815
268.85	11.301
269.06	9.756
269.27	11.497
269.49	10.294
269.70	11.220
269.91	11.246
270.12	8.955
270.33	11.599
270.54	9.418
270.75	11.736
270.97	11.025
271.18	8.085
271.39	11.413
271.60	10.584
271.81	10.331
272.02	8.376
272.23	8.804
272.45	9.353
272.66	4.995
272.87	7.630
273.08	5.478
273.29	8.653
273.50	5.940
273.71	6.725
273.92	6.554
274.14	9.018
274.35	7.625
274.56	9.311
274.77	6.499
274.98	9.794
275.19	8.615
275.40	10.941
275.61	8.324
275.83	11.387
276.04	6.705
276.25	11.097
276.46	10.667
276.67	10.025
276.88	9.513
277.09	9.167
277.30	9.423
277.51	10.253
277.73	7.088
277.94	9.057
278.15	11.488
278.36	8.310
278.57	9.374
278.78	8.263
278.99	9.895
279.20	9.698
279.41	13.228
279.62	7.292
279.84	10.115
280.05	9.375
280.26	9.201
280.47	10.196
280.68	7.549
280.89	7.902
281.10	9.226
281.31	9.896
281.52	9.482
281.73	6.470
281.94	7.189
282.16	8.033
282.37	8.239
282.58	6.916
282.79	10.868
283.00	8.485
283.21	7.295
283.42	7.421
283.63	9.412
283.84	8.536
284.05	7.943
284.26	7.960
284.47	7.369
284.68	5.796
284.89	6.870
285.11	8.856
285.32	5.713
285.53	7.702
285.74	8.581
285.95	4.925
286.16	6.093
286.37	5.352
286.58	6.197
286.79	5.643
287.00	5.240
287.21	5.228
287.42	4.473
287.63	6.762
287.84	6.322
288.05	5.129
288.26	5.052
288.48	8.148
288.69	4.971
288.90	7.864
289.11	8.418
289.32	8.344
289.53	7.004
289.74	6.537
289.95	6.435
290.16	6.028
290.37	5.455
290.58	6.156
290.79	4.679
291.00	4.858
291.21	6.049
291.42	5.723
291.63	7.011
291.84	7.750
292.05	4.982
292.26	6.102
292.47	6.682
292.68	4.687
292.89	7.331
293.10	8.300
293.31	5.848
293.52	6.318
293.73	7.493
293.94	6.218
294.15	6.902
294.36	7.501
294.57	6.742
294.79	5.303
295.00	6.408
295.21	8.202
295.42	6.410
295.63	6.954
295.84	6.271
296.05	5.196
296.26	5.313
296.47	4.899
296.68	5.428
296.89	8.411
297.10	5.844
297.31	6.721
297.52	4.038
297.73	5.539
297.94	4.314
298.15	4.928
298.36	4.843
298.57	4.360
298.78	4.816
298.99	4.959
299.20	4.642
299.41	6.025
299.62	5.749
299.83	5.413
300.04	5.224
300.25	6.063
300.46	7.641
300.67	7.041
300.88	5.938
301.09	7.052
301.30	6.473
301.50	6.479
301.71	7.815
301.92	7.602
302.13	7.031
302.34	5.676
302.55	6.105
302.76	6.025
302.97	6.118
303.18	6.562
303.39	6.688
303.60	6.838
303.81	7.069
304.02	6.724
304.23	7.000
304.44	7.599
304.65	4.727
304.86	6.806
305.07	6.172
305.28	5.721
305.49	7.153
305.70	7.479
305.91	6.999
306.12	7.059
306.33	5.847
306.54	4.976
306.75	8.195
306.96	8.890
307.17	6.698
307.38	6.603
307.58	6.182
307.79	6.609
308.00	6.603
308.21	5.900
308.42	5.498
308.63	5.923
308.84	5.489
309.05	6.919
309.26	5.487
309.47	5.380
309.68	6.280
309.89	6.760
310.10	6.094
310.31	6.084
310.52	5.114
310.73	5.700
310.94	3.982
311.14	6.230
311.35	4.798
311.56	5.969
311.77	5.903
311.98	5.289
312.19	4.992
312.40	5.376
312.61	4.802
312.82	5.596
313.03	3.926
313.24	6.603
313.45	4.484
313.66	5.237
313.86	6.917
314.07	6.129
314.28	7.267
314.49	6.088
314.70	8.196
314.91	6.175
315.12	4.304
315.33	7.853
315.54	6.268
315.75	6.649
315.96	7.561
316.16	7.904
316.37	6.320
316.58	5.323
316.79	6.220
317.00	6.072
317.21	6.033
317.42	6.012
317.63	7.040
317.84	6.312
318.05	7.284
318.25	7.395
318.46	6.209
318.67	6.104
318.88	6.360
319.09	6.872
319.30	5.805
319.51	7.955
319.72	9.365
319.93	6.537
320.13	6.207
320.34	7.010
320.55	6.883
320.76	7.419
320.97	6.332
321.18	7.173
321.39	4.263
321.60	8.424
321.80	8.486
322.01	6.904
322.22	6.061
322.43	6.815
322.64	7.636
322.85	8.318
323.06	6.502
323.27	6.614
323.47	8.367
323.68	8.609
323.89	6.414
324.10	7.632
324.31	6.288
324.52	7.091
324.73	7.248
324.93	7.120
325.14	7.903
325.35	6.923
325.56	4.645
325.77	6.012
325.98	6.426
326.19	7.262
326.39	5.150
326.60	4.915
326.81	4.832
327.02	4.830
327.23	5.365
327.44	7.251
327.64	5.329
327.85	5.625
328.06	6.929
328.27	6.885
328.48	5.606
328.69	5.109
328.90	5.171
329.10	7.753
329.31	7.052
329.52	5.586
329.73	6.771
329.94	7.349
330.15	5.951
330.35	9.098
330.56	8.050
330.77	6.892
330.98	4.200
331.19	7.806
331.39	8.723
331.60	8.161
331.81	5.596
332.02	5.785
332.23	5.993
332.44	7.579
332.64	7.307
332.85	5.838
333.06	5.783
333.27	6.655
333.48	4.450
333.68	5.665
333.89	6.113
334.10	5.576
334.31	6.185
334.52	5.432
334.72	4.622
334.93	7.041
335.14	4.723
335.35	5.434
335.56	6.005
335.76	5.408
335.97	5.963
336.18	5.715
336.39	5.996
336.60	5.368
336.80	5.152
337.01	4.292
337.22	5.412
337.43	5.011
337.64	8.127
337.84	6.334
338.05	5.140
338.26	8.235
338.47	5.853
338.68	6.044
338.88	5.438
339.09	3.700
339.30	6.109
339.51	6.430
339.71	5.131
339.92	5.692
340.13	6.250
340.34	6.915
340.55	5.410
340.75	6.597
340.96	6.359
341.17	6.427
341.38	6.869
341.58	7.013
341.79	6.286
342.00	5.136
342.21	3.949
342.41	5.517
342.62	5.968
342.83	7.419
343.04	4.862
343.24	6.463
343.45	6.346
343.66	5.137
343.87	5.031
344.07	4.630
344.28	5.791
344.49	6.967
344.70	7.356
344.90	6.124
345.11	4.113
345.32	6.121
345.53	6.926
345.73	6.585
345.94	6.350
346.15	7.180
346.36	5.311
346.56	5.526
346.77	6.632
346.98	6.021
347.19	7.139
347.39	6.249
347.60	6.815
347.81	5.950
348.02	7.240
348.22	7.005
348.43	6.758
348.64	6.695
348.84	7.411
349.05	8.190
349.26	8.657
349.47	6.261
349.67	7.547
349.88	8.495
350.09	7.604
350.30	8.438
350.50	7.612
350.71	8.601
350.92	7.830
351.12	9.258
351.33	6.567
351.54	8.425
351.74	9.094
351.95	8.152
352.16	9.670
352.37	9.055
352.57	9.018
352.78	9.205
352.99	9.292
353.19	9.050
353.40	9.500
353.61	10.689
353.82	10.385
354.02	12.498
354.23	10.920
354.44	11.821
354.64	11.002
354.85	12.223
355.06	9.436
355.26	9.881
355.47	10.504
355.68	12.142
355.88	11.190
356.09	11.850
356.30	10.586
356.51	12.768
356.71	12.221
356.92	9.936
357.13	12.231
357.33	13.384
357.54	12.479
357.75	8.841
357.95	13.279
358.16	11.137
358.37	14.068
358.57	11.188
358.78	14.884
358.99	11.249
359.19	12.225
359.40	13.746
359.61	12.794
359.81	13.400
360.02	15.143
360.23	11.482
360.43	11.814
360.64	11.702
360.85	13.815
361.05	11.276
361.26	13.834
361.47	12.219
361.67	14.460
361.88	11.293
362.09	14.045
362.29	11.737
362.50	12.636
362.70	10.821
362.91	13.935
363.12	12.478
363.32	13.701
363.53	13.950
363.74	13.400
363.94	11.122
364.15	15.125
364.36	14.303
364.56	12.106
364.77	13.647
364.98	15.841
365.18	12.505
365.39	15.140
365.59	11.450
365.80	13.537
366.01	15.057
366.21	13.319
366.42	10.766
366.63	14.571
366.83	12.575
367.04	12.465
367.24	13.356
367.45	12.945
367.66	11.519
367.86	13.749
368.07	12.952
368.28	13.162
368.48	13.106
368.69	11.195
368.89	13.268
369.10	13.203
369.31	12.530
369.51	14.000
369.72	13.830
369.92	15.566
370.13	11.315
370.34	13.553
370.54	8.821
370.75	13.287
370.95	11.361
371.16	13.537
371.37	12.589
371.57	12.784
371.78	11.860
371.98	13.388
372.19	12.890
372.40	14.770
372.60	13.777
372.81	14.204
373.01	11.789
373.22	13.125
373.43	13.549
373.63	13.938
373.84	13.599
374.04	12.679
374.25	12.339
374.46	14.779
374.66	12.739
374.87	14.540
375.07	10.013
375.28	12.013
375.48	13.145
375.69	13.631
375.90	11.147
376.10	11.144
376.31	11.452
376.51	12.301
376.72	11.958
376.92	10.849
377.13	13.203
377.34	13.879
377.54	11.469
377.75	14.487
377.95	12.388
378.16	14.140
378.36	12.947
378.57	14.722
378.77	12.717
378.98	13.470
379.19	11.716
379.39	10.970
379.60	12.481
379.80	12.386
380.01	13.456
380.21	12.992
380.42	12.795
380.62	12.865
380.83	13.253
381.04	12.932
381.24	13.240
381.45	13.592
381.65	10.353
381.86	13.340
382.06	13.782
382.27	11.643
382.47	11.869
382.68	14.353
382.88	10.714
383.09	12.492
383.29	12.912
383.50	14.613
383.71	12.110
383.91	12.932
384.12	11.888
384.32	13.112
384.53	11.928
384.73	12.014
384.94	11.376
385.14	11.966
385.35	11.603
385.55	13.261
385.76	11.924
385.96	12.272
386.17	12.268
386.37	13.161
386.58	12.150
386.78	13.873
386.99	11.618
387.19	13.503
387.40	11.555
387.60	14.621
387.81	11.975
388.01	13.177
388.22	13.110
388.42	14.572
388.63	14.252
388.83	15.384
389.04	10.876
389.24	12.817
389.45	13.387
389.65	12.526
389.86	12.588
390.06	12.160
390.27	12.171
390.47	12.266
390.68	12.261
390.88	13.938
391.09	13.142
391.29	13.904
391.50	13.224
391.70	12.914
391.91	12.969
392.11	12.495
392.32	13.277
392.52	13.304
392.73	12.880
392.93	13.185
393.14	12.875
393.34	13.066
393.55	14.211
393.75	13.378
393.95	12.460
394.16	13.554
394.36	13.578
394.57	13.927
394.77	13.071
394.98	13.456
395.18	13.500
395.39	13.175
395.59	13.461
395.80	13.283
396.00	13.462
396.21	14.258
396.41	11.657
396.61	13.800
396.82	13.096
397.02	14.661
397.23	13.797
397.43	14.106
397.64	11.641
397.84	14.158
398.05	12.603
398.25	13.584
398.45	12.510
398.66	12.853
398.86	11.907
399.07	13.965
399.27	12.325
399.48	14.205
399.68	11.712
399.89	12.889
400.09	12.529
400.29	12.298
400.50	12.567
400.70	13.353
400.91	11.969
401.11	12.624
401.32	12.452
401.52	11.655
401.72	11.727
401.93	14.303
402.13	12.268
402.34	12.659
402.54	11.415
402.75	14.551
402.95	10.430
403.15	13.767
403.36	11.020
403.56	13.629
403.77	11.698
403.97	11.985
404.17	10.597
404.38	13.365
404.58	11.879
404.79	13.392
404.99	12.750
405.19	12.178
405.40	12.706
405.60	12.660
405.81	11.809
406.01	12.768
406.21	12.201
406.42	12.383
406.62	11.927
406.83	12.813
407.03	13.575
407.23	11.934
407.44	11.354
407.64	13.356
407.85	12.343
408.05	12.367
408.25	12.339
408.46	13.976
408.66	12.386
408.87	12.081
409.07	11.416
409.27	11.612
409.48	11.753
409.68	12.653
409.88	9.675
410.09	11.997
410.29	12.281
410.50	13.581
410.70	11.368
410.90	11.930
411.11	11.504
411.31	11.923
411.51	12.875
411.72	13.232
411.92	11.525
412.12	11.819
412.33	11.497
412.53	11.686
412.74	9.557
412.94	11.564
413.14	12.189
413.35	12.209
413.55	11.905
413.75	13.171
413.96	10.363
414.16	11.772
414.36	11.561
414.57	12.326
414.77	10.798
414.97	11.517
415.18	11.436
415.38	11.942
415.58	11.651
415.79	11.178
415.99	11.260
416.19	12.273
416.40	12.319
416.60	11.428
416.80	11.119
417.01	11.798
417.21	10.135
417.41	12.388
417.62	11.511
417.82	12.493
418.02	10.852
418.23	12.088
418.43	11.099
418.63	12.174
418.84	12.257
419.04	11.508
419.24	12.088
419.45	12.578
419.65	12.610
419.85	12.528
420.06	12.558
420.26	12.105
420.46	11.769
420.67	12.298
420.87	11.890
421.07	12.316
421.28	11.969
421.48	12.386
421.68	12.202
421.88	12.506
422.09	12.172
422.29	12.426
422.49	11.708
422.70	12.253
422.90	12.102
423.10	12.548
423.31	12.559
423.51	12.158
423.71	11.826
423.91	12.321
424.12	11.797
424.32	12.667
424.52	11.867
424.73	12.145
424.93	12.054
425.13	11.954
425.33	11.606
425.54	11.917
425.74	11.798
425.94	12.418
426.15	12.257
426.35	12.176
426.55	12.220
426.75	12.259
426.96	12.008
427.16	12.010
427.36	11.953
427.57	12.530
427.77	11.689
427.97	12.022
428.17	12.252
428.38	11.819
428.58	10.903
428.78	12.010
428.98	10.889
429.19	11.325
429.39	10.900
429.59	11.736
429.79	10.078
430.00	10.525
430.20	10.893
430.40	11.239
430.60	10.768
430.81	11.382
431.01	10.659
431.21	11.153
431.41	10.220
431.62	11.953
431.82	10.762
432.02	11.144
432.22	10.917
432.43	11.250
432.63	11.023
432.83	11.505
433.03	10.925
433.24	10.428
433.44	10.444
433.64	11.605
433.84	10.717
434.05	11.282
434.25	11.325
434.45	12.314
434.65	11.966
434.85	12.251
435.06	11.757
435.26	11.130
435.46	12.023
435.66	11.883
435.87	11.270
436.07	11.488
436.27	11.565
436.47	11.178
436.67	10.089
436.88	11.624
437.08	10.517
437.28	11.339
437.48	10.976
437.69	11.591
437.89	11.383
438.09	11.824
438.29	11.204
438.49	11.746
438.70	11.342
438.90	10.934
439.10	10.456
439.30	11.591
439.50	10.458
439.71	11.327
439.91	11.178
440.11	11.491
440.31	11.440
440.51	11.514
440.72	11.229
440.92	11.210
441.12	11.318
441.32	11.529
441.52	11.642
441.72	11.488
441.93	11.541
442.13	11.755
442.33	11.186
442.53	12.235
442.73	11.331
442.94	11.543
443.14	11.279
443.34	11.913
443.54	11.242
443.74	11.607
443.94	11.451
444.15	11.019
444.35	11.213
444.55	11.467
444.75	10.849
444.95	11.559
445.15	11.278
445.36	10.940
445.56	10.465
445.76	11.292
445.96	10.723
446.16	10.847
446.36	10.709
446.57	11.349
446.77	10.819
446.97	11.037
447.17	11.328
447.37	11.484
447.57	11.129
447.77	11.436
447.98	11.334
448.18	11.432
448.38	11.044
448.58	11.576
448.78	12.116
448.98	11.365
449.18	10.998
449.39	11.631
449.59	10.823
449.79	11.330
449.99	10.689
450.19	11.529
450.39	10.879
450.59	11.114
450.79	10.898
451.00	11.055
451.20	11.791
451.40	10.991
451.60	10.480
451.80	11.170
452.00	10.610
452.20	11.357
452.40	10.836
452.61	10.496
452.81	10.355
453.01	10.893
453.21	10.573
453.41	11.422
453.61	11.215
453.81	11.366
454.01	11.117
454.21	11.249
454.42	11.086
454.62	11.093
454.82	10.486
455.02	10.783
455.22	10.040
455.42	11.005
455.62	10.470
455.82	10.851
456.02	10.701
456.23	11.146
456.43	10.503
456.63	10.897
456.83	9.510
457.03	11.348
457.23	10.193
457.43	11.054
457.63	10.246
457.83	10.634
458.03	10.398
458.23	10.812
458.43	9.618
458.64	10.867
458.84	10.611
459.04	10.697
459.24	10.295
459.44	10.814
459.64	10.190
459.84	10.102
460.04	10.451
460.24	10.826
460.44	10.780
460.64	10.699
460.84	10.678
461.04	11.141
461.24	11.214
461.45	11.190
461.65	10.904
461.85	11.327
462.05	11.042
462.25	11.039
462.45	11.183
462.65	11.041
462.85	10.217
463.05	10.852
463.25	9.811
463.45	10.989
463.65	10.533
463.85	10.603
464.05	10.019
464.25	10.193
464.45	10.502
464.65	10.208
464.85	10.136
465.05	10.202
465.26	10.773
465.46	10.731
465.66	10.555
465.86	10.659
466.06	10.420
466.26	10.607
466.46	9.532
466.66	10.240
466.86	10.100
467.06	10.344
467.26	10.599
467.46	10.936
467.66	9.923
467.86	10.462
468.06	10.589
468.26	10.470
468.46	10.573
468.66	10.618
468.86	9.688
469.06	10.439
469.26	9.464
469.46	10.714
469.66	9.614
469.86	10.327
470.06	9.825
470.26	10.684
470.46	9.604
470.66	10.962
470.86	9.676
471.06	9.721
471.26	9.558
471.46	10.003
471.66	9.818
471.86	10.193
472.06	9.697
472.26	10.700
472.46	10.605
472.66	10.163
472.86	10.014
473.06	10.555
473.26	10.067
473.46	10.574
473.66	9.596
473.86	10.633
474.06	9.962
474.26	10.531
474.46	9.452
474.66	10.185
474.86	9.763
475.06	10.598
475.26	9.294
475.46	10.136
475.66	9.131
475.86	10.333
476.06	10.113
476.26	10.205
476.46	10.077
476.66	10.165
476.86	9.243
477.06	10.100
477.26	9.547
477.46	9.898
477.65	9.979
477.85	10.251
478.05	9.442
478.25	10.822
478.45	9.897
478.65	10.341
478.85	9.619
479.05	10.065
479.25	10.170
479.45	10.356
479.65	9.792
479.85	10.283
480.05	9.742
480.25	10.437
480.45	10.118
480.65	10.324
480.85	10.054
481.05	10.283
481.25	10.198
481.44	10.501
481.64	9.651
481.84	10.195
482.04	10.238
482.24	10.533
482.44	9.766
482.64	9.877
482.84	9.873
483.04	9.924
483.24	9.718
483.44	9.661
483.64	9.462
483.84	9.443
484.04	9.866
484.23	9.936
484.43	10.061
484.63	10.324
484.83	10.397
485.03	10.861
485.23	10.892
485.43	10.810
485.63	10.806
485.83	10.635
486.03	10.570
486.23	10.613
486.42	10.476
486.62	10.361
486.82	10.285
487.02	10.214
487.22	10.121
487.42	10.172
487.62	10.058
487.82	9.945
488.02	10.084
488.22	9.918
488.41	10.067
488.61	10.157
488.81	10.109
489.01	10.141
489.21	10.374
489.41	10.348
489.61	10.255
489.81	10.511
490.01	10.500
490.20	10.312
490.40	10.224
490.60	10.519
490.80	10.113
491.00	10.006
491.20	10.078
491.40	9.920
491.60	9.792
491.79	9.889
491.99	10.080
492.19	9.948
492.39	10.122
492.59	10.042
492.79	9.968
492.99	10.145
493.19	10.355
493.38	10.282
493.58	10.425
493.78	10.305
493.98	10.491
494.18	10.262
494.38	10.243
494.58	10.547
494.77	9.996
494.97	9.927
495.17	9.613
495.37	10.055
495.57	10.283
495.77	10.014
495.96	9.669
496.16	9.405
496.36	9.606
496.56	9.892
496.76	9.507
496.96	9.903
497.15	9.933
497.35	9.918
497.55	9.147
497.75	9.715
497.95	9.724
498.15	9.968
498.34	9.741
498.54	9.928
498.74	10.093
498.94	10.194
499.14	9.830
499.34	9.910
499.53	9.748
499.73	9.995
499.93	9.625
500.13	9.994
500.33	9.291
500.52	9.562
500.72	10.018
500.92	9.477
501.12	9.287
501.32	9.425
501.52	9.730
501.71	9.475
501.91	9.040
502.11	9.465
502.31	9.032
502.51	9.927
502.70	9.009
502.90	9.346
503.10	8.986
503.30	9.946
503.50	9.218
503.69	9.260
503.89	9.297
504.09	9.636
504.29	9.360
504.48	9.761
504.68	9.541
504.88	10.043
505.08	9.207
505.28	9.404
505.47	9.413
505.67	9.821
505.87	9.315
506.07	9.447
506.27	9.243
506.46	9.538
506.66	9.122
506.86	9.569
507.06	9.791
507.25	9.734
507.45	9.865
507.65	9.813
507.85	9.221
508.04	9.874
508.24	9.864
508.44	9.640
508.64	9.255
508.83	9.624
509.03	9.304
509.23	9.546
509.43	8.985
509.63	9.375
509.82	9.163
510.02	9.351
510.22	9.248
510.42	9.613
510.61	9.253
510.81	9.606
511.01	9.597
511.21	9.518
511.40	9.200
511.60	9.718
511.80	9.680
511.99	9.666
512.19	9.301
512.39	9.815
512.59	9.294
512.78	9.795
512.98	9.637
513.18	9.516
513.38	9.635
513.57	9.694
513.77	9.426
513.97	9.600
514.17	9.432
514.36	9.544
514.56	9.610
514.76	9.868
514.95	8.846
515.15	9.766
515.35	8.854
515.55	9.686
515.74	9.393
515.94	9.881
516.14	9.155
516.33	9.571
516.53	9.005
516.73	9.069
516.93	9.305
517.12	9.708
517.32	8.870
517.52	9.266
517.71	8.938
517.91	9.389
518.11	9.206
518.30	9.263
518.50	8.887
518.70	9.544
518.90	9.215
519.09	9.332
519.29	9.656
519.49	9.501
519.68	9.164
519.88	9.733
520.08	9.288
520.27	9.743
520.47	9.680
520.67	9.736
520.86	9.431
521.06	9.645
521.26	9.394
521.45	9.860
521.65	9.474
521.85	9.438
522.04	9.118
522.24	9.418
522.44	8.903
522.63	9.479
522.83	8.993
523.03	9.689
523.22	8.968
523.42	9.704
523.62	9.375
523.81	9.569
524.01	9.218
524.21	9.335
524.40	9.158
524.60	9.373
524.80	8.833
524.99	9.265
525.19	9.017
525.39	9.281
525.58	9.319
525.78	9.167
525.98	9.378
526.17	9.393
526.37	9.071
526.57	9.147
526.76	9.189
526.96	9.660
527.15	9.200
527.35	9.433
527.55	9.422
527.74	9.655
527.94	9.396
528.14	9.290
528.33	9.094
528.53	9.017
528.72	9.289
528.92	9.289
529.12	9.257
529.31	9.462
529.51	9.445
529.71	9.522
529.90	9.460
530.10	9.565
530.29	9.818
530.49	9.630
530.69	9.818
530.88	9.721
531.08	9.696
531.28	9.705
531.47	9.763
531.67	9.690
531.86	9.686
532.06	9.450
532.26	9.194
532.45	9.541
532.65	9.448
532.84	9.395
533.04	9.237
533.24	9.288
533.43	8.930
533.63	9.445
533.82	9.447
534.02	9.590
534.22	9.403
534.41	9.461
534.61	9.452
534.80	9.563
535.00	9.484
535.19	9.542
535.39	9.530
535.59	9.546
535.78	9.527
535.98	9.504
536.17	9.177
536.37	9.196
536.57	9.049
536.76	9.383
536.96	9.272
537.15	9.728
537.35	9.048
537.54	9.447
537.74	9.296
537.93	9.542
538.13	9.355
538.33	9.310
538.52	9.521
538.72	9.575
538.91	9.446
539.11	9.270
539.30	9.287
539.50	9.742
539.70	9.249
539.89	9.597
540.09	9.103
540.28	8.947
540.48	8.736
540.67	9.268
540.87	8.939
541.06	9.019
541.26	9.030
541.45	9.428
541.65	9.227
541.85	9.186
542.04	9.225
542.24	9.382
542.43	9.506
542.63	9.494
542.82	9.500
543.02	9.644
543.21	9.574
543.41	9.749
543.60	9.653
543.80	9.644
543.99	9.697
544.19	9.652
544.38	9.587
544.58	9.616
544.77	9.708
544.97	9.644
545.16	9.501
545.36	9.664
545.56	9.473
545.75	9.483
545.95	9.548
546.14	9.557
546.34	9.270
546.53	9.574
546.73	9.330
546.92	9.615
547.12	9.278
547.31	9.594
547.51	9.432
547.70	9.707
547.90	9.402
548.09	9.934
548.29	9.426
548.48	9.598
548.68	9.524
548.87	9.534
549.07	9.611
549.26	9.131
549.46	9.507
549.65	9.327
549.84	9.135
550.04	9.884
550.23	8.355
550.43	9.112
550.62	9.014
550.82	9.423
551.01	8.822
551.21	9.471
551.40	8.752
551.60	9.442
551.79	8.782
551.99	9.009
552.18	9.069
552.38	9.152
552.57	9.177
552.77	9.097
552.96	9.366
553.16	9.754
553.35	9.383
553.54	9.721
553.74	9.569
553.93	9.810
554.13	9.844
554.32	10.062
554.52	9.520
554.71	9.946
554.91	8.885
555.10	9.735
555.29	8.979
555.49	9.485
555.68	8.972
555.88	9.971
556.07	9.117
556.27	9.524
556.46	9.520
556.66	9.607
556.85	9.841
557.04	9.556
557.24	9.425
557.43	10.382
557.63	9.432
557.82	9.107
558.02	9.089
558.21	10.187
558.40	9.127
558.60	9.622
558.79	9.292
558.99	10.153
559.18	9.685
559.38	9.608
559.57	9.634
559.76	10.047
559.96	10.646
560.15	10.332
560.35	9.352
560.54	9.392
560.73	9.094
560.93	9.415
561.12	9.516
561.32	10.076
561.51	9.230
561.70	10.190
561.90	9.568
562.09	10.490
562.29	9.823
562.48	10.279
562.67	10.055
562.87	10.474
563.06	9.862
563.26	9.985
563.45	10.213
563.64	10.567
563.84	10.225
564.03	10.065
564.23	9.580
564.42	11.150
564.61	10.072
564.81	10.203
565.00	10.731
565.20	10.302
565.39	10.852
565.58	10.954
565.78	10.456
565.97	11.001
566.16	11.200
566.36	11.613
566.55	11.051
566.74	11.152
566.94	11.153
567.13	11.149
567.33	10.888
567.52	11.177
567.71	11.188
567.91	11.516
568.10	11.021
568.29	11.651
568.49	11.202
568.68	12.019
568.87	10.520
569.07	11.718
569.26	11.121
569.45	11.730
569.65	11.300
569.84	11.461
570.04	12.075
570.23	11.553
570.42	10.756
570.62	11.734
570.81	11.412
571.00	11.491
571.20	11.861
571.39	12.261
571.58	11.425
571.78	12.164
571.97	11.546
572.16	11.716
572.36	11.740
572.55	11.966
572.74	11.801
572.94	11.929
573.13	12.340
573.32	12.208
573.51	11.788
573.71	11.919
573.90	11.800
574.09	12.015
574.29	12.258
574.48	12.302
574.67	11.844
574.87	12.430
575.06	11.571
575.25	12.206
575.45	11.938
575.64	12.313
575.83	12.278
576.03	12.807
576.22	12.076
576.41	12.049
576.60	11.807
576.80	12.167
576.99	12.216
577.18	12.564
577.38	12.036
577.57	12.386
577.76	12.711
577.95	11.808
578.15	11.571
578.34	12.757
578.53	11.928
578.73	12.326
578.92	11.871
579.11	11.956
579.30	12.277
579.50	11.755
579.69	12.254
579.88	12.079
580.08	11.528
580.27	11.795
580.46	11.694
580.65	12.149
580.85	11.322
581.04	12.356
581.23	11.571
581.42	12.184
581.62	11.644
581.81	11.707
582.00	11.860
582.19	11.792
582.39	12.256
582.58	11.974
582.77	12.519
582.96	11.628
583.16	11.311
583.35	12.513
583.54	12.377
583.73	12.181
583.93	11.175
584.12	11.698
584.31	11.014
584.50	11.684
584.70	11.757
584.89	11.572
585.08	11.686
585.27	12.006
585.47	11.295
585.66	11.847
585.85	11.222
586.04	11.207
586.24	11.914
586.43	11.493
586.62	11.724
586.81	12.691
587.00	11.628
587.20	11.322
587.39	10.814
587.58	12.033
587.77	11.851
587.97	11.268
588.16	11.516
588.35	12.843
588.54	10.771
588.73	11.524
588.93	11.602
589.12	11.808
589.31	11.617
589.50	11.811
589.69	12.105
589.89	12.096
590.08	11.177
590.27	11.334
590.46	11.535
590.65	11.699
590.85	10.774
591.04	11.861
591.23	11.632
591.42	12.116
591.61	11.805
591.81	12.041
592.00	11.652
592.19	11.736
592.38	11.468
592.57	12.544
592.77	11.671
592.96	11.823
593.15	12.403
593.34	11.918
593.53	11.932
593.72	11.769
593.92	11.650
594.11	12.534
594.30	11.770
594.49	12.947
594.68	11.593
594.87	11.938
595.07	11.037
595.26	12.208
595.45	11.065
595.64	11.996
595.83	11.082
596.02	11.933
596.22	12.226
596.41	12.191
596.60	11.666
596.79	13.121
596.98	12.382
597.17	12.545
597.37	12.315
597.56	12.749
597.75	11.563
597.94	12.647
598.13	12.670
598.32	12.168
598.51	12.264
598.71	13.040
598.90	12.520
599.09	13.803
599.28	12.105
599.47	12.452
599.66	12.369
599.85	13.104
600.05	11.588
600.24	13.102
600.43	12.253
600.62	13.089
600.81	12.765
601.00	12.705
601.19	11.270
601.38	12.832
601.58	12.391
601.77	11.849
601.96	11.931
602.15	13.109
602.34	12.593
602.53	13.368
602.72	12.097
602.91	12.725
603.10	12.349
603.30	12.675
603.49	12.056
603.68	12.941
603.87	11.838
604.06	12.743
604.25	12.706
604.44	12.940
604.63	13.205
604.82	13.349
605.01	13.201
605.21	13.147
605.40	12.640
605.59	13.486
605.78	12.654
605.97	12.996
606.16	12.945
606.35	13.420
606.54	13.059
606.73	12.873
606.92	12.554
607.11	12.998
607.30	13.055
607.50	12.294
607.69	12.084
607.88	12.613
608.07	11.872
608.26	12.302
608.45	13.297
608.64	12.525
608.83	11.557
609.02	12.838
609.21	11.556
609.40	12.761
609.59	12.043
609.78	12.577
609.97	12.256
610.16	12.576
610.35	12.342
610.55	12.465
610.74	12.175
610.93	12.788
611.12	12.573
611.31	12.248
611.50	12.442
611.69	12.261
611.88	12.515
612.07	13.027
612.26	11.090
612.45	11.742
612.64	11.970
612.83	11.962
613.02	11.071
613.21	10.833
613.40	10.681
613.59	12.610
613.78	10.795
613.97	12.160
614.16	10.903
614.35	11.359
614.54	9.380
614.73	11.043
614.92	11.103
615.11	10.668
615.30	10.726
615.49	9.113
615.68	10.871
615.87	11.213
616.07	10.282
616.26	10.687
616.45	10.579
616.64	10.703
616.83	10.239
617.02	10.639
617.21	9.391
617.40	9.684
617.59	10.588
617.78	11.003
617.97	9.766
618.16	10.190
618.35	9.403
618.54	10.644
618.73	10.536
618.92	10.553
619.11	9.418
619.30	10.231
619.49	8.982
619.68	11.136
619.86	10.445
620.05	10.502
620.24	9.526
620.43	9.603
620.62	8.716
620.81	10.610
621.00	10.684
621.19	10.630
621.38	10.413
621.57	10.992
621.76	10.436
621.95	9.993
622.14	10.821
622.33	10.464
622.52	9.667
622.71	10.554
622.90	9.275
623.09	10.806
623.28	9.767
623.47	10.116
623.66	10.287
623.85	9.923
624.04	9.155
624.23	9.486
624.42	9.989
624.61	9.637
624.80	8.671
624.99	10.139
625.18	8.312
625.36	9.360
625.55	9.791
625.74	9.347
625.93	9.348
626.12	10.334
626.31	9.679
626.50	10.554
626.69	9.324
626.88	11.331
627.07	11.185
627.26	9.913
627.45	9.649
627.64	10.251
627.83	9.784
628.02	10.903
628.20	9.921
628.39	10.339
628.58	10.052
628.77	10.043
628.96	9.939
629.15	10.375
629.34	10.281
629.53	9.681
629.72	8.901
629.91	10.835
630.10	9.480
630.29	9.468
630.47	8.657
630.66	9.337
630.85	8.885
631.04	10.203
631.23	9.653
631.42	9.050
631.61	8.292
631.80	9.873
631.99	8.894
632.18	8.571
632.36	8.138
632.55	9.947
632.74	9.091
632.93	8.904
633.12	8.427
633.31	9.047
633.50	8.822
633.69	9.011
633.88	8.805
634.06	9.511
634.25	8.937
634.44	8.781
634.63	9.252
634.82	10.502
635.01	8.692
635.20	9.399
635.39	8.089
635.57	9.765
635.76	8.569
635.95	9.680
636.14	7.736
636.33	9.944
636.52	8.623
636.71	8.807
636.89	8.656
637.08	8.968
637.27	7.570
637.46	9.196
637.65	7.935
637.84	9.374
638.03	8.054
638.21	9.851
638.40	9.020
638.59	9.137
638.78	8.484
638.97	9.833
639.16	10.121
639.34	9.812
639.53	7.816
639.72	9.640
639.91	8.858
640.10	8.230
640.29	10.102
640.47	9.948
640.66	9.126
640.85	10.784
641.04	8.161
641.23	9.460
641.42	8.605
641.60	9.065
641.79	8.602
641.98	9.381
642.17	8.847
642.36	9.486
642.54	8.005
642.73	8.827
642.92	7.940
643.11	8.706
643.30	8.882
643.49	8.850
643.67	7.515
643.86	8.880
644.05	8.641
644.24	9.164
644.43	7.997
644.61	8.824
644.80	9.271
644.99	8.371
645.18	9.845
645.37	9.828
645.55	8.766
645.74	9.166
645.93	8.789
646.12	9.065
646.31	9.543
646.49	9.722
646.68	9.372
646.87	8.329
647.06	8.635
647.24	9.055
647.43	7.244
647.62	10.056
647.81	7.060
648.00	10.300
648.18	6.868
648.37	8.743
648.56	8.694
648.75	8.670
648.93	7.943
649.12	8.526
649.31	9.514
649.50	8.326
649.68	8.638
649.87	8.617
650.06	7.618
650.25	8.265
650.43	8.533
650.62	7.763
650.81	7.743
651.00	8.261
651.18	7.783
651.37	10.047
651.56	8.054
651.75	9.036
651.93	7.636
652.12	8.268
652.31	8.228
652.50	8.510
652.68	9.107
652.87	9.817
653.06	9.511
653.25	9.797
653.43	8.882
653.62	8.451
653.81	8.242
654.00	8.914
654.18	8.048
654.37	9.555
654.56	7.609
654.74	6.624
654.93	8.798
655.12	7.455
655.31	8.972
655.49	8.348
655.68	6.982
655.87	7.632
656.05	6.872
656.24	9.013
656.43	6.545
656.62	8.871
656.80	7.610
656.99	7.353
657.18	7.224
657.36	7.813
657.55	8.165
657.74	7.722
657.93	8.696
658.11	10.150
658.30	8.248
658.49	8.012
658.67	7.159
658.86	7.332
659.05	7.430
659.23	8.338
659.42	7.803
659.61	8.002
659.79	8.413
659.98	8.381
660.17	8.856
660.35	8.139
660.54	8.442
660.73	9.908
660.91	8.503
661.10	9.487
661.29	6.966
661.47	7.563
661.66	7.963
661.85	7.871
662.03	7.995
662.22	7.071
662.41	6.773
662.59	7.485
662.78	7.362
662.97	7.179
663.15	7.771
663.34	6.299
663.53	7.264
663.71	7.391
663.90	6.952
664.09	8.790
664.27	8.466
664.46	7.614
664.65	6.962
664.83	7.307
665.02	5.556
665.21	5.549
665.39	6.671
665.58	8.001
665.77	7.129
665.95	7.088
666.14	6.438
666.32	6.980
666.51	6.442
666.70	6.432
666.88	6.821
667.07	6.312
667.26	6.200
667.44	8.255
667.63	6.473
667.81	6.857
668.00	6.812
668.19	9.155
668.37	7.690
668.56	8.463
668.75	6.506
668.93	8.404
669.12	7.517
669.30	7.084
669.49	6.758
669.68	8.040
669.86	8.293
670.05	6.717
670.23	7.313
670.42	7.311
670.61	7.763
670.79	7.599
670.98	8.289
671.16	8.372
671.35	6.762
671.54	7.633
671.72	8.265
671.91	8.538
672.09	7.416
672.28	10.130
672.46	8.691
672.65	8.348
672.84	7.531
673.02	10.107
673.21	6.491
673.39	8.012
673.58	8.802
673.77	8.423
673.95	8.555
674.14	8.728
674.32	7.652
674.51	10.344
674.69	7.436
674.88	8.453
675.07	8.528
675.25	11.023
675.44	8.820
675.62	8.887
675.81	7.180
675.99	11.909
676.18	9.953
676.36	8.473
676.55	8.289
676.74	10.560
676.92	10.685
677.11	8.891
677.29	8.503
677.48	9.254
677.66	10.255
677.85	7.877
678.03	8.482
678.22	10.538
678.40	9.481
678.59	8.397
678.78	8.510
678.96	8.553
679.15	9.028
679.33	11.637
679.52	10.969
679.70	10.305
679.89	8.781
680.07	10.613
680.26	9.003
680.44	10.497
680.63	9.502
680.81	10.034
681.00	8.807
681.18	9.786
681.37	8.804
681.55	11.728
681.74	10.651
681.92	10.816
682.11	10.838
682.29	9.490
682.48	10.303
682.66	10.942
682.85	9.723
683.03	10.427
683.22	10.371
683.40	11.433
683.59	9.492
683.77	10.963
683.96	8.969
684.14	11.390
684.33	7.192
684.51	12.449
684.70	9.374
684.88	11.297
685.07	11.147
685.25	12.642
685.44	10.316
685.62	11.255
685.81	8.685
685.99	11.837
686.18	9.469
686.36	11.869
686.55	8.887
686.73	9.853
686.92	11.726
687.10	11.986
687.29	11.695
687.47	12.960
687.65	12.431
687.84	10.083
688.02	13.099
688.21	13.379
688.39	10.690
688.58	12.550
688.76	11.366
688.95	11.058
689.13	9.616
689.32	13.071
689.50	10.912
689.68	12.802
689.87	10.780
690.05	12.178
690.24	11.901
690.42	12.113
690.61	12.907
690.79	14.659
690.98	11.713
691.16	12.987
691.34	10.928
691.53	13.439
691.71	11.372
691.90	12.193
692.08	11.256
692.27	16.030
692.45	14.971
692.63	12.961
692.82	15.243
693.00	13.358
693.19	10.334
693.37	14.654
693.56	11.785
693.74	13.645
693.92	14.117
694.11	16.396
694.29	15.550
694.48	15.745
694.66	14.924
694.84	15.677
695.03	15.219
695.21	18.089
695.40	18.352
695.58	18.736
695.76	14.531
695.95	17.782
696.13	15.356
696.32	17.698
696.50	21.114
696.68	18.327
696.87	16.586
697.05	18.626
697.24	19.098
697.42	19.685
697.60	16.499
697.79	19.432
697.97	19.670
698.16	22.044
698.34	18.207
698.52	21.541
698.71	19.517
698.89	22.389
699.07	20.235
699.26	21.933
699.44	22.127
699.63	22.572
699.81	20.581
699.99	22.876
700.18	22.116
700.36	23.269
700.54	21.920
700.73	22.541
700.91	22.310
701.09	24.014
701.28	24.347
701.46	24.043
701.64	22.554
701.83	24.848
702.01	23.784
702.20	26.397
702.38	25.991
702.56	23.972
702.75	24.361
702.93	25.952
703.11	24.048
703.30	25.984
703.48	24.561
703.66	26.504
703.85	23.624
704.03	28.980
704.21	25.407
704.40	29.039
704.58	26.120
704.76	27.419
704.95	25.818
705.13	26.541
705.31	24.871
705.50	28.899
705.68	23.982
705.86	28.168
706.04	26.635
706.23	30.058
706.41	25.895
706.59	26.670
706.78	26.806
706.96	27.842
707.14	28.642
707.33	30.546
707.51	27.962
707.69	30.432
707.88	27.223
708.06	30.893
708.24	29.799
708.42	31.508
708.61	28.387
708.79	29.435
708.97	30.433
709.16	29.684
709.34	30.457
709.52	29.913
709.71	28.889
709.89	30.773
710.07	26.427
710.25	31.689
710.44	28.696
710.62	31.860
710.80	30.748
710.98	30.412
711.17	30.544
711.35	31.378
711.53	29.630
711.72	31.488
711.90	32.312
712.08	30.752
712.26	29.146
712.45	32.857
712.63	30.651
712.81	32.349
712.99	31.125
713.18	30.976
713.36	30.644
713.54	31.026
713.72	30.508
713.91	30.709
714.09	28.542
714.27	30.972
714.45	32.609
714.64	32.138
714.82	31.158
715.00	32.919
715.18	31.627
715.37	32.025
715.55	31.967
715.73	32.298
715.91	31.812
716.10	33.575
716.28	29.533
716.46	33.974
716.64	30.815
716.83	33.215
717.01	31.248
717.19	31.693
717.37	31.177
717.55	32.771
717.74	31.799
717.92	32.073
718.10	29.294
718.28	32.299
718.47	31.082
718.65	33.808
718.83	30.853
719.01	32.664
719.19	30.112
719.38	32.178
719.56	31.391
719.74	31.270
719.92	29.390
720.10	31.626
720.29	31.030
720.47	31.714
720.65	30.969
720.83	32.903
721.01	29.898
721.20	32.100
721.38	30.541
721.56	31.743
721.74	31.453
721.92	32.278
722.11	31.231
722.29	32.060
722.47	28.865
722.65	34.596
722.83	31.442
723.01	31.617
723.20	31.380
723.38	31.783
723.56	28.713
723.74	34.859
723.92	32.383
724.10	34.831
724.29	29.272
724.47	33.690
724.65	31.174
724.83	33.787
725.01	30.611
725.19	33.827
725.38	32.448
725.56	31.510
725.74	34.687
725.92	37.184
726.10	31.677
726.28	34.035
726.46	33.219
726.65	35.962
726.83	31.120
727.01	34.527
727.19	34.293
727.37	33.480
727.55	32.437
727.73	32.860
727.92	34.269
728.10	35.321
728.28	31.517
728.46	36.539
728.64	31.134
728.82	33.999
729.00	34.261
729.19	33.681
729.37	33.150
729.55	34.669
729.73	30.780
729.91	36.136
730.09	34.179
730.27	34.446
730.45	33.705
730.63	36.447
730.82	33.786
731.00	34.459
731.18	33.963
731.36	37.917
731.54	31.705
731.72	36.637
731.90	34.148
732.08	36.295
732.26	33.541
732.45	38.220
732.63	34.605
732.81	36.200
732.99	34.817
733.17	34.816
733.35	34.168
733.53	37.297
733.71	35.251
733.89	36.156
734.07	36.356
734.25	38.574
734.44	35.003
734.62	36.767
734.80	36.839
734.98	36.384
735.16	35.004
735.34	38.644
735.52	38.133
735.70	36.989
735.88	39.963
736.06	37.511
736.24	38.880
736.42	38.449
736.60	37.401
736.78	39.012
736.97	39.710
737.15	37.789
737.33	34.245
737.51	38.268
737.69	38.995
737.87	41.071
738.05	38.114
738.23	42.213
738.41	36.940
738.59	40.899
738.77	38.057
738.95	40.659
739.13	37.419
739.31	39.669
739.49	41.766
739.67	43.160
739.85	38.123
740.03	40.128
740.21	39.698
740.39	40.163
740.57	38.740
740.75	38.885
740.93	38.677
741.11	42.071
741.30	39.744
741.48	43.309
741.66	39.714
741.84	43.107
742.02	37.355
742.20	40.702
742.38	39.968
742.56	42.831
742.74	37.503
742.92	41.077
743.10	40.210
743.28	41.685
743.46	41.499
743.64	38.829
743.82	40.355
744.00	43.641
744.18	40.556
744.36	41.476
744.54	41.558
744.72	44.268
744.90	42.233
745.08	42.422
745.26	41.090
745.44	45.897
745.62	40.214
745.80	42.954
745.98	41.909
746.16	41.267
746.34	39.018
746.52	40.426
746.70	37.892
746.87	42.653
747.05	41.954
747.23	41.415
747.41	42.621
747.59	43.531
747.77	41.828
747.95	41.753
748.13	44.119
748.31	45.844
748.49	41.709
748.67	43.767
748.85	39.608
749.03	43.787
749.21	41.007
749.39	44.498
749.57	38.310
749.75	42.505
749.93	45.258
750.11	44.025
750.29	42.271
750.47	42.770
750.65	41.401
750.83	41.134
751.01	38.914
751.18	44.672
751.36	39.633
751.54	43.619
751.72	45.769
751.90	43.441
752.08	39.194
752.26	43.723
752.44	40.936
752.62	43.662
752.80	42.648
752.98	44.725
753.16	45.051
753.34	43.190
753.52	44.348
753.69	44.178
753.87	42.644
754.05	43.093
754.23	40.191
754.41	43.082
754.59	40.996
754.77	43.330
754.95	42.982
755.13	41.413
755.31	41.713
755.49	44.254
755.66	44.594
755.84	42.883
756.02	39.430
756.20	45.571
756.38	46.507
756.56	43.906
756.74	43.554
756.92	40.404
757.10	38.854
757.28	47.025
757.45	49.874
757.63	44.679
757.81	40.824
757.99	48.597
758.17	43.663
758.35	44.364
758.53	41.585
758.71	45.337
758.88	44.000
759.06	44.764
759.24	37.650
759.42	43.445
759.60	38.057
759.78	42.206
759.96	36.569
760.13	43.442
760.31	34.635
760.49	39.636
760.67	35.123
760.85	36.287
761.03	34.239
761.21	33.022
761.38	35.941
761.56	39.199
761.74	33.622
761.92	39.825
762.10	33.783
762.28	37.719
762.46	33.878
762.63	35.236
762.81	32.644
762.99	36.502
763.17	36.632
763.35	36.630
763.53	36.202
763.70	39.882
763.88	39.140
764.06	37.830
764.24	37.124
764.42	39.393
764.60	37.493
764.77	37.482
764.95	37.655
765.13	38.585
765.31	39.774
765.49	39.767
765.66	38.636
765.84	40.699
766.02	38.231
766.20	38.881
766.38	36.910
766.56	38.196
766.73	38.268
766.91	40.052
767.09	40.959
767.27	44.999
767.45	39.826
767.62	39.317
767.80	38.244
767.98	40.658
768.16	39.591
768.33	42.261
768.51	38.835
768.69	42.932
768.87	39.018
769.05	43.763
769.22	40.625
769.40	45.229
769.58	43.641
769.76	44.224
769.94	43.953
770.11	42.952
770.29	40.000
770.47	45.176
770.65	44.898
770.82	45.714
771.00	38.007
771.18	45.224
771.36	38.617
771.53	44.498
771.71	43.594
771.89	44.609
772.07	43.485
772.25	45.488
772.42	41.726
772.60	44.733
772.78	43.254
772.96	47.228
773.13	46.797
773.31	47.981
773.49	41.288
773.67	46.992
773.84	42.844
774.02	43.318
774.20	35.692
774.37	44.848
774.55	42.512
774.73	45.899
774.91	41.703
775.08	43.548
775.26	43.445
775.44	46.856
775.62	43.897
775.79	44.157
775.97	41.089
776.15	45.805
776.32	38.937
776.50	49.439
776.68	48.501
776.86	49.492
777.03	40.561
777.21	42.878
777.39	40.802
777.56	44.906
777.74	39.893
777.92	43.002
778.10	42.759
778.27	47.749
778.45	45.561
778.63	47.226
778.80	40.446
778.98	47.179
779.16	46.621
779.34	43.759
779.51	39.841
779.69	46.963
779.87	43.568
780.04	44.402
780.22	40.638
780.40	47.198
780.57	45.100
780.75	43.129
780.93	48.442
781.10	43.900
781.28	55.371
781.46	46.082
781.63	45.659
781.81	51.818
781.99	38.711
782.16	44.395
782.34	44.321
782.52	43.506
782.69	45.473
782.87	46.320
783.05	43.606
783.22	45.527
783.40	36.567
783.58	45.488
783.75	42.165
783.93	49.452
784.11	40.011
784.28	46.713
784.46	41.020
784.64	46.810
784.81	46.971
784.99	49.829
785.17	48.035
785.34	42.445
785.52	36.049
785.69	45.802
785.87	46.371
786.05	46.928
786.22	47.762
786.40	48.119
786.58	42.642
786.75	48.507
786.93	45.537
787.11	40.678
787.28	42.328
787.46	47.976
787.63	44.845
787.81	44.242
787.99	45.348
788.16	41.605
788.34	39.562
788.51	48.499
788.69	38.780
788.87	41.855
789.04	36.364
789.22	39.097
789.39	39.648
789.57	39.617
789.75	40.612
789.92	43.900
790.10	41.690
790.27	40.085
790.45	36.156
790.63	39.321
790.80	38.930
790.98	40.219
791.15	38.329
791.33	40.462
791.51	38.907
791.68	41.583
791.86	41.093
792.03	42.962
792.21	41.375
792.39	43.641
792.56	41.615
792.74	46.583
792.91	41.018
793.09	38.788
793.26	38.404
793.44	45.163
793.62	37.577
793.79	42.684
793.97	42.653
794.14	43.235
794.32	46.182
794.49	39.549
794.67	37.193
794.84	38.121
795.02	41.832
795.20	43.191
795.37	37.931
795.55	42.462
795.72	41.627
795.90	40.011
796.07	44.746
796.25	38.697
796.42	41.196
796.60	42.721
796.77	36.732
796.95	42.611
797.13	35.855
797.30	41.167
797.48	37.255
797.65	44.150
797.83	39.843
798.00	42.909
798.18	37.670
798.35	43.211
798.53	41.820
798.70	39.430
798.88	40.592
799.05	43.563
799.23	42.065
799.40	42.708
799.58	44.698
799.75	39.540
799.93	41.100
800.10	41.784
800.28	45.218
800.45	42.763
800.63	36.510
800.80	42.171
800.98	42.507
801.15	41.211
801.33	38.563
801.50	43.352
801.68	39.549
801.85	37.998
802.03	39.441
802.20	43.369
802.38	43.774
802.55	42.362
802.73	34.216
802.90	42.768
803.08	37.356
803.25	48.585
803.43	45.248
803.60	43.601
803.78	44.336
803.95	42.088
804.13	44.541
804.30	47.727
804.48	45.956
804.65	44.202
804.83	43.204
805.00	42.092
805.17	47.039
805.35	45.875
805.52	38.440
805.70	45.757
805.87	46.737
806.05	41.637
806.22	39.757
806.40	40.438
806.57	39.887
806.75	52.628
806.92	43.775
807.09	43.969
807.27	40.943
807.44	43.196
807.62	40.000
807.79	43.511
807.97	40.468
808.14	42.168
808.31	36.231
808.49	43.338
808.66	41.297
808.84	40.900
809.01	43.612
809.19	44.597
809.36	43.615
809.53	43.593
809.71	44.380
809.88	50.849
810.06	49.854
810.23	39.791
810.41	39.634
810.58	43.531
810.75	43.782
810.93	40.929
811.10	43.437
811.28	47.729
811.45	47.770
811.62	41.364
811.80	41.028
811.97	52.073
812.15	54.601
812.32	41.704
812.49	45.117
812.67	41.469
812.84	40.721
813.02	50.681
813.19	39.478
813.36	39.861
813.54	35.146
813.71	44.416
813.89	44.700
814.06	48.333
814.23	38.462
814.41	39.968
814.58	49.128
814.75	46.010
814.93	46.416
815.10	45.531
815.28	36.125
815.45	34.631
815.62	42.870
815.80	40.824
815.97	44.390
816.14	44.265
816.32	41.946
816.49	38.556
816.66	38.382
816.84	43.029
817.01	42.637
817.18	45.671
817.36	40.164
817.53	43.103
817.71	34.420
817.88	37.702
818.05	41.756
818.23	37.005
818.40	37.031
818.57	38.933
818.75	41.339
818.92	36.202
819.09	33.257
819.27	39.454
819.44	42.595
819.61	33.144
819.79	39.972
819.96	43.992
820.13	39.216
820.31	40.036
820.48	40.000
820.65	36.755
820.82	36.517
821.00	38.357
821.17	34.659
821.34	33.850
821.52	35.253
821.69	32.382
821.86	34.934
822.04	35.044
822.21	35.135
822.38	37.712
822.56	36.052
822.73	37.451
822.90	37.013
823.07	36.565
823.25	36.989
823.42	36.523
823.59	35.133
823.77	37.774
823.94	35.472
824.11	37.523
824.29	35.380
824.46	35.384
824.63	36.223
824.80	35.455
824.98	33.714
825.15	36.069
825.32	32.451
825.49	36.599
825.67	33.073
825.84	35.472
826.01	31.643
826.19	35.428
826.36	31.350
826.53	34.628
826.70	33.763
826.88	38.117
827.05	31.755
827.22	34.738
827.39	35.451
827.57	31.897
827.74	30.427
827.91	37.184
828.08	30.846
828.26	34.245
828.43	33.798
828.60	36.527
828.77	33.508
828.95	33.668
829.12	29.995
829.29	27.469
829.46	29.312
829.64	32.394
829.81	31.412
829.98	34.617
830.15	31.848
830.32	30.832
830.50	34.530
830.67	31.892
830.84	34.459
831.01	30.627
831.19	32.341
831.36	38.481
831.53	39.951
831.70	37.384
831.87	33.859
832.05	31.762
832.22	48.700
832.39	34.610
832.56	34.464
832.74	39.762
832.91	31.719
833.08	46.478
833.25	27.444
833.42	31.242
833.60	32.303
833.77	28.052
833.94	29.966
834.11	35.552
834.28	29.422
834.45	35.089
834.63	31.601
834.80	33.383
834.97	28.731
835.14	35.596
835.31	32.941
835.49	31.919
835.66	32.351
835.83	31.919
836.00	31.421
836.17	34.869
836.34	31.099
836.52	32.690
836.69	34.048
836.86	35.695
837.03	38.249
837.20	34.846
837.37	38.275
837.55	25.843
837.72	30.027
837.89	35.155
838.06	38.562
838.23	42.559
838.40	47.456
838.58	36.158
838.75	42.757
838.92	40.625
839.09	54.202
839.26	51.584
839.43	54.198
839.60	44.421
839.78	59.876
839.95	55.542
840.12	44.050
840.29	58.247
840.46	48.649
840.63	45.336
840.80	48.420
840.98	51.407
841.15	45.324
841.32	47.195
841.49	38.985
841.66	51.869
841.83	36.339
842.00	41.831
842.17	54.432
842.34	48.926
842.52	55.885
842.69	43.854
842.86	53.855
843.03	63.041
843.20	52.579
843.37	56.014
843.54	51.194
843.71	49.340
843.88	58.832
844.06	59.028
844.23	59.091
844.40	54.367
844.57	66.925
844.74	66.102
844.91	59.202
845.08	53.881
845.25	71.092
845.42	62.613
845.59	76.834
845.76	54.880
845.94	77.837
846.11	62.919
846.28	74.464
846.45	85.660
846.62	87.146
846.79	71.104
846.96	68.208
847.13	75.712
847.30	77.224
847.47	53.768
847.64	63.851
847.81	59.709
847.98	72.199
848.15	66.105
848.32	85.741
848.50	77.866
848.67	58.135
848.84	79.960
849.01	66.870
849.18	58.487
849.35	84.783
849.52	80.594
849.69	71.462
849.86	90.271
850.03	90.867
850.20	60.976
850.37	71.429
850.54	72.816
850.71	84.701
850.88	68.257
851.05	68.542
851.22	80.000
851.39	66.793
851.56	80.043
851.73	73.412
851.90	75.229
852.07	79.137
852.24	59.491
852.41	77.944
852.58	74.286
852.75	55.814
852.92	67.404
853.09	106.742
853.26	88.842
853.43	78.222
853.60	57.173
853.77	85.082
853.94	82.136
854.11	86.543
854.28	92.683
854.45	70.889
854.62	81.818
854.79	69.027
854.96	91.837
855.13	70.998
855.30	95.250
855.47	95.918
855.64	69.933
855.81	65.072
855.98	86.721
856.15	72.967
856.32	73.278
856.49	84.870
856.66	72.770
856.83	89.655
857.00	78.870
857.17	92.308
857.34	63.377
857.51	79.121
857.68	84.964
857.85	89.153
858.02	92.176
858.19	74.798
858.36	80.000
858.53	84.582
858.70	72.588
858.87	103.889
859.04	67.421
859.21	89.224
859.38	68.125
859.55	86.131
859.72	91.908
859.89	111.370
860.05	71.324
860.22	84.474
860.39	84.354
860.56	86.616
860.73	87.351
860.90	88.356
861.07	79.452
861.24	79.176
861.41	102.381
861.58	94.353
861.75	76.134
861.92	65.208
862.09	92.405
862.26	82.742
862.43	92.562
862.59	85.880
862.76	88.747
862.93	91.351
863.10	72.792
863.27	80.236
863.44	80.392
863.61	76.364
863.78	98.806
863.95	96.675
864.12	99.065
864.29	106.079
864.45	81.612
864.62	83.508
864.79	91.337
864.96	77.419
865.13	64.302
865.30	82.857
865.47	93.593
865.64	77.830
865.81	107.989
865.97	77.458
866.14	85.301
866.31	46.244
866.48	85.498
866.65	66.406
866.82	94.964
866.99	102.111
867.16	82.723
867.33	77.882
867.49	68.949
867.66	84.819
867.83	81.938
868.00	71.496
868.17	86.782
868.34	82.812
868.51	54.106
868.67	87.678
868.84	77.931
869.01	92.627
869.18	86.098
869.35	88.079
869.52	102.500
869.69	97.561
869.85	87.654
870.02	63.350
870.19	83.971
870.36	96.825
870.53	82.284
870.70	81.702
870.86	85.751
871.03	86.775
871.20	73.267
871.37	115.650
871.54	80.978
871.71	80.097
871.87	82.065
872.04	87.459
872.21	71.082
872.38	79.707
872.55	94.684
872.72	74.324
872.88	101.408
873.05	83.014
873.22	86.004
873.39	85.106
873.56	75.399
873.72	82.212
873.89	93.895
874.06	77.577
874.23	85.079
874.40	82.466
874.56	83.992
874.73	86.893
874.90	70.856
875.07	75.764
875.24	73.986
875.40	75.056
875.57	72.273
875.74	101.220
875.91	94.851
876.08	65.859
876.24	83.058
876.41	107.868
876.58	86.635
876.75	73.554
876.92	78.348
877.08	82.617
877.25	77.577
877.42	77.439
877.59	83.180
877.75	90.224
877.92	57.605
878.09	77.030
878.26	91.968
878.42	70.213
878.59	89.159
878.76	73.320
878.93	80.543
879.09	69.214
879.26	80.676
879.43	78.202
879.60	73.535
879.76	64.591
879.93	67.574
880.10	54.186
880.27	55.288
880.43	52.894
880.60	53.605
880.77	49.538
880.94	48.814
881.10	43.772
881.27	47.214
881.44	30.181
881.61	30.882
881.77	35.171
881.94	29.710
882.11	28.020
882.28	23.963
882.44	29.496
882.61	29.804
882.78	27.746
882.94	35.008
883.11	29.628
883.28	31.938
883.45	31.757
883.61	30.111
883.78	29.521
883.95	32.086
884.11	27.851
884.28	27.619
>>>>>End Processed Spectral Data<<<<<
