SpectraSuite Data File
++++++++++++++++++++++++++++++++++++
Date: Mon Sep 23 04:18:24 EST 2019
User: sgrac
Dark Spectrum Present: Yes
Reference Spectrum Present: Yes
Number of Sampled Component Spectra: 1
Spectrometers: USB4E01596
Integration Time (usec): 100000 (USB4E01596)
Spectra Averaged: 3 (USB4E01596)
Boxcar Smoothing: 0 (USB4E01596)
Correct for Electrical Dark: No (USB4E01596)
Strobe/Lamp Enabled: Yes (USB4E01596)
Correct for Detector Non-linearity: No (USB4E01596)
Correct for Stray Light: No (USB4E01596)
Number of Pixels in Processed Spectrum: 3648
>>>>>Begin Processed Spectral Data<<<<<
178.44	1376.923
178.66	1376.923
178.87	1376.923
179.09	8800.000
179.30	-5700.000
179.52	-990.323
179.74	-494.340
179.95	731.818
180.17	-747.222
180.38	526.316
180.60	-2818.182
180.82	811.111
181.03	4133.333
181.25	-2708.333
181.46	-1060.000
181.68	1208.333
181.89	-643.182
182.11	-2143.750
182.33	-1906.250
182.54	720.833
182.76	4166.667
182.97	-576.596
183.19	1235.000
183.40	329.752
183.62	407.692
183.84	319.091
184.05	5242.857
184.27	513.636
184.48	571.212
184.70	1741.176
184.91	1738.095
185.13	2910.000
185.34	-16550.000
185.56	1192.308
185.78	479.167
185.99	1102.778
186.21	398.864
186.42	-7725.000
186.64	2170.000
186.85	-5120.000
187.07	596.000
187.28	434.211
187.50	530.909
187.72	423.077
187.93	769.091
188.15	446.875
188.36	468.421
188.58	640.816
188.79	292.308
189.01	501.408
189.22	981.081
189.44	-1048.485
189.65	354.237
189.87	-5400.000
190.09	514.286
190.30	738.095
190.52	513.333
190.73	858.696
190.95	-5916.667
191.16	429.762
191.38	477.027
191.59	445.588
191.81	656.452
192.02	2193.333
192.24	1018.750
192.45	973.529
192.67	-1643.750
192.88	458.491
193.10	542.623
193.31	717.500
193.53	258.065
193.74	481.333
193.96	2235.714
194.18	1057.692
194.39	2140.000
194.61	504.110
194.82	1531.818
195.04	430.488
195.25	-470.175
195.47	-459.259
195.68	4500.000
195.90	560.000
196.11	476.119
196.33	34300.000
196.54	865.854
196.76	1928.571
196.97	428.571
197.19	810.811
197.40	2328.571
197.62	278.899
197.83	1222.581
198.05	672.727
198.26	1086.207
198.48	515.493
198.69	543.333
198.91	1322.222
199.12	779.070
199.34	767.391
199.55	477.143
199.77	2015.789
199.98	900.000
200.20	456.579
200.41	562.903
200.63	342.478
200.84	2100.000
201.06	3311.111
201.27	746.341
201.49	594.366
201.70	-850.000
201.91	488.889
202.13	584.746
202.34	529.310
202.56	-928.000
202.77	780.000
202.99	4833.333
203.20	-4050.000
203.42	2125.000
203.63	328.947
203.85	5433.333
204.06	608.000
204.28	260.606
204.49	520.370
204.71	488.136
204.92	1146.154
205.14	0.000
205.35	936.667
205.56	-1620.000
205.78	6820.000
205.99	-2214.286
206.21	11900.000
206.42	675.000
206.64	1064.516
206.85	1007.407
207.07	-2777.778
207.28	413.793
207.50	797.826
207.71	732.258
207.93	392.771
208.14	-1129.630
208.35	558.182
208.57	1088.000
208.78	-3511.111
209.00	343.617
209.21	-15700.000
209.43	-9066.667
209.64	-1866.667
209.86	246.392
210.07	353.488
210.28	547.887
210.50	1120.690
210.71	629.412
210.93	223.529
211.14	486.517
211.36	1868.750
211.57	389.394
211.78	458.571
212.00	363.529
212.21	455.714
212.43	956.410
212.64	396.809
212.86	431.081
213.07	384.404
213.29	-905.556
213.50	347.826
213.71	385.057
213.93	478.049
214.14	2154.545
214.36	455.882
214.57	448.101
214.78	726.667
215.00	346.875
215.21	1026.667
215.43	829.730
215.64	398.413
215.86	348.750
216.07	865.714
216.28	792.105
216.50	310.000
216.71	32700.000
216.93	550.000
217.14	1550.000
217.35	276.515
217.57	315.315
217.78	382.716
218.00	320.202
218.21	760.870
218.42	772.340
218.64	489.286
218.85	584.000
219.07	1370.000
219.28	361.682
219.49	623.529
219.71	506.154
219.92	283.582
220.14	355.670
220.35	436.000
220.56	377.011
220.78	306.731
220.99	266.129
221.21	282.796
221.42	393.827
221.63	197.688
221.85	455.385
222.06	395.714
222.28	513.846
222.49	294.595
222.70	306.299
222.92	640.816
223.13	473.770
223.34	234.043
223.56	344.048
223.77	313.750
223.99	420.000
224.20	398.214
224.41	402.740
224.63	376.136
224.84	258.108
225.05	125.641
225.27	235.652
225.48	307.843
225.69	251.880
225.91	381.081
226.12	232.558
226.34	253.020
226.55	170.504
226.76	218.750
226.98	131.765
227.19	120.312
227.40	251.562
227.62	178.836
227.83	129.614
228.04	111.453
228.26	100.257
228.47	83.003
228.69	77.157
228.90	39.446
229.11	72.061
229.33	48.276
229.54	45.560
229.75	47.092
229.97	42.396
230.18	46.517
230.39	44.580
230.61	52.386
230.82	50.898
231.03	36.968
231.25	39.845
231.46	52.036
231.67	53.080
231.89	57.799
232.10	47.559
232.31	54.432
232.53	60.611
232.74	71.776
232.95	67.695
233.17	64.600
233.38	57.773
233.59	64.935
233.81	63.225
234.02	63.727
234.23	62.589
234.45	72.743
234.66	71.239
234.87	59.631
235.09	69.614
235.30	51.313
235.51	66.904
235.73	49.722
235.94	53.701
236.15	61.347
236.36	57.944
236.58	45.398
236.79	50.885
237.00	60.997
237.22	67.347
237.43	52.585
237.64	56.535
237.86	37.030
238.07	58.763
238.28	50.484
238.50	48.142
238.71	57.194
238.92	51.563
239.13	44.068
239.35	54.121
239.56	60.247
239.77	72.057
239.99	48.660
240.20	50.831
240.41	50.646
240.63	45.013
240.84	43.781
241.05	36.155
241.26	37.758
241.48	37.602
241.69	34.763
241.90	26.173
242.12	24.487
242.33	29.272
242.54	25.873
242.75	24.956
242.97	25.959
243.18	22.931
243.39	19.881
243.61	23.744
243.82	27.404
244.03	23.060
244.24	23.636
244.46	24.943
244.67	26.456
244.88	25.414
245.09	25.797
245.31	28.100
245.52	24.412
245.73	24.123
245.95	43.795
246.16	23.792
246.37	21.851
246.58	25.083
246.80	22.339
247.01	25.695
247.22	22.437
247.43	21.586
247.65	21.109
247.86	19.900
248.07	16.732
248.28	20.504
248.50	21.610
248.71	17.717
248.92	21.556
249.13	20.067
249.35	22.203
249.56	23.118
249.77	21.840
249.98	18.852
250.20	26.446
250.41	23.819
250.62	26.332
250.83	21.310
251.05	23.629
251.26	20.227
251.47	24.425
251.68	25.466
251.90	22.863
252.11	24.574
252.32	26.051
252.53	23.901
252.75	22.536
252.96	24.797
253.17	20.691
253.38	21.005
253.59	22.382
253.81	20.878
254.02	19.161
254.23	21.111
254.44	17.837
254.66	19.727
254.87	25.304
255.08	23.804
255.29	25.879
255.50	14.183
255.72	24.500
255.93	27.504
256.14	33.667
256.35	27.581
256.57	27.831
256.78	27.085
256.99	22.973
257.20	36.558
257.41	25.231
257.63	26.944
257.84	21.586
258.05	28.415
258.26	24.667
258.47	25.780
258.69	24.440
258.90	13.447
259.11	21.364
259.32	17.797
259.53	18.878
259.75	16.911
259.96	15.832
260.17	15.474
260.38	14.001
260.59	16.985
260.81	16.677
261.02	15.020
261.23	16.004
261.44	17.812
261.65	17.809
261.87	15.708
262.08	18.968
262.29	18.439
262.50	16.758
262.71	15.168
262.92	19.317
263.14	14.948
263.35	16.091
263.56	17.734
263.77	17.589
263.98	19.156
264.20	22.032
264.41	17.795
264.62	17.426
264.83	14.753
265.04	25.969
265.25	18.297
265.47	18.226
265.68	24.612
265.89	19.936
266.10	12.432
266.31	24.783
266.52	20.459
266.74	17.900
266.95	17.593
267.16	19.482
267.37	17.108
267.58	14.335
267.79	18.452
268.01	17.691
268.22	17.320
268.43	17.802
268.64	17.019
268.85	17.160
269.06	14.951
269.27	20.341
269.49	15.163
269.70	14.829
269.91	16.345
270.12	14.147
270.33	18.874
270.54	15.742
270.75	13.109
270.97	17.460
271.18	15.816
271.39	16.282
271.60	16.425
271.81	17.627
272.02	14.927
272.23	15.717
272.45	13.989
272.66	10.588
272.87	15.259
273.08	12.156
273.29	18.040
273.50	13.534
273.71	14.828
273.92	13.470
274.14	15.039
274.35	16.079
274.56	14.573
274.77	17.330
274.98	14.530
275.19	15.486
275.40	14.626
275.61	13.594
275.83	16.445
276.04	17.650
276.25	17.627
276.46	17.403
276.67	17.473
276.88	19.089
277.09	13.735
277.30	18.227
277.51	17.949
277.73	13.841
277.94	13.448
278.15	20.644
278.36	19.096
278.57	13.537
278.78	15.206
278.99	16.215
279.20	16.699
279.41	19.293
279.62	13.026
279.84	14.628
280.05	15.063
280.26	14.952
280.47	18.809
280.68	16.012
280.89	13.654
281.10	15.982
281.31	13.918
281.52	18.104
281.73	12.112
281.94	14.135
282.16	14.118
282.37	11.883
282.58	13.261
282.79	19.603
283.00	18.249
283.21	13.694
283.42	14.023
283.63	17.575
283.84	12.470
284.05	14.186
284.26	14.085
284.47	14.573
284.68	13.336
284.89	13.581
285.11	14.784
285.32	12.252
285.53	14.324
285.74	18.732
285.95	14.307
286.16	15.014
286.37	13.380
286.58	14.704
286.79	14.226
287.00	14.108
287.21	12.685
287.42	14.045
287.63	15.591
287.84	14.411
288.05	15.310
288.26	12.208
288.48	16.216
288.69	11.349
288.90	15.646
289.11	16.512
289.32	15.444
289.53	14.883
289.74	11.194
289.95	13.993
290.16	14.326
290.37	12.263
290.58	11.749
290.79	11.037
291.00	10.951
291.21	11.220
291.42	12.283
291.63	14.376
291.84	16.038
292.05	11.422
292.26	12.144
292.47	11.729
292.68	10.696
292.89	14.177
293.10	14.567
293.31	14.498
293.52	10.341
293.73	13.153
293.94	13.137
294.15	11.435
294.36	14.004
294.57	14.859
294.79	11.925
295.00	9.992
295.21	13.879
295.42	12.971
295.63	13.597
295.84	11.118
296.05	11.695
296.26	12.279
296.47	11.533
296.68	12.853
296.89	14.742
297.10	13.928
297.31	13.524
297.52	11.353
297.73	14.590
297.94	14.000
298.15	12.548
298.36	12.876
298.57	11.715
298.78	15.430
298.99	11.446
299.20	14.777
299.41	14.418
299.62	13.456
299.83	11.648
300.04	14.970
300.25	14.731
300.46	15.918
300.67	15.133
300.88	13.628
301.09	10.991
301.30	14.559
301.50	11.868
301.71	16.714
301.92	16.257
302.13	11.986
302.34	12.765
302.55	9.977
302.76	12.300
302.97	12.236
303.18	13.250
303.39	11.970
303.60	12.008
303.81	13.357
304.02	9.823
304.23	13.896
304.44	9.415
304.65	11.478
304.86	13.858
305.07	10.821
305.28	10.850
305.49	13.201
305.70	13.465
305.91	11.164
306.12	12.401
306.33	11.777
306.54	12.162
306.75	12.292
306.96	17.977
307.17	13.093
307.38	10.394
307.58	11.452
307.79	12.489
308.00	11.506
308.21	10.117
308.42	11.986
308.63	11.063
308.84	10.177
309.05	9.784
309.26	9.915
309.47	12.372
309.68	11.560
309.89	12.307
310.10	11.138
310.31	11.273
310.52	10.823
310.73	15.671
310.94	8.462
311.14	10.263
311.35	9.475
311.56	11.856
311.77	10.247
311.98	9.313
312.19	12.859
312.40	8.263
312.61	10.202
312.82	10.702
313.03	10.365
313.24	12.346
313.45	12.776
313.66	10.099
313.86	13.172
314.07	11.047
314.28	11.900
314.49	9.319
314.70	12.893
314.91	14.289
315.12	10.240
315.33	12.601
315.54	10.725
315.75	8.596
315.96	9.804
316.16	10.735
316.37	12.119
316.58	11.306
316.79	9.980
317.00	11.853
317.21	10.248
317.42	12.045
317.63	13.001
317.84	10.096
318.05	11.010
318.25	11.531
318.46	10.145
318.67	8.592
318.88	12.595
319.09	12.920
319.30	10.091
319.51	9.384
319.72	12.053
319.93	9.491
320.13	10.623
320.34	12.176
320.55	10.452
320.76	11.581
320.97	11.977
321.18	12.590
321.39	9.328
321.60	11.166
321.80	13.646
322.01	10.780
322.22	10.071
322.43	10.379
322.64	9.723
322.85	11.402
323.06	11.824
323.27	11.104
323.47	12.594
323.68	11.164
323.89	10.891
324.10	13.207
324.31	9.381
324.52	10.441
324.73	13.101
324.93	11.313
325.14	11.367
325.35	11.736
325.56	9.567
325.77	11.989
325.98	11.706
326.19	11.111
326.39	7.306
326.60	9.231
326.81	9.664
327.02	7.863
327.23	9.839
327.44	12.352
327.64	7.292
327.85	7.779
328.06	11.997
328.27	13.970
328.48	10.040
328.69	7.459
328.90	9.912
329.10	10.127
329.31	10.273
329.52	10.783
329.73	12.288
329.94	10.171
330.15	10.830
330.35	14.054
330.56	10.647
330.77	10.622
330.98	8.170
331.19	10.288
331.39	10.536
331.60	11.879
331.81	8.506
332.02	10.659
332.23	10.079
332.44	10.092
332.64	10.430
332.85	9.559
333.06	11.988
333.27	8.377
333.48	10.322
333.68	8.449
333.89	9.614
334.10	8.951
334.31	10.190
334.52	9.417
334.72	9.728
334.93	8.963
335.14	8.001
335.35	8.860
335.56	11.307
335.76	7.708
335.97	10.558
336.18	8.960
336.39	12.743
336.60	9.208
336.80	8.012
337.01	8.638
337.22	9.721
337.43	9.741
337.64	12.307
337.84	10.879
338.05	8.829
338.26	12.458
338.47	11.895
338.68	8.541
338.88	10.364
339.09	8.909
339.30	10.216
339.51	9.176
339.71	10.946
339.92	7.983
340.13	10.946
340.34	9.418
340.55	9.219
340.75	10.828
340.96	9.233
341.17	10.909
341.38	9.031
341.58	9.165
341.79	9.264
342.00	7.755
342.21	9.583
342.41	6.572
342.62	10.114
342.83	10.462
343.04	6.455
343.24	9.214
343.45	10.298
343.66	7.955
343.87	8.655
344.07	7.870
344.28	10.119
344.49	8.684
344.70	11.760
344.90	8.967
345.11	7.398
345.32	9.104
345.53	9.945
345.73	9.659
345.94	11.378
346.15	10.822
346.36	9.646
346.56	10.286
346.77	10.804
346.98	9.473
347.19	11.270
347.39	9.878
347.60	10.162
347.81	10.302
348.02	11.106
348.22	8.456
348.43	9.225
348.64	9.947
348.84	10.466
349.05	11.472
349.26	11.966
349.47	8.832
349.67	10.485
349.88	12.142
350.09	10.825
350.30	12.528
350.50	11.240
350.71	11.572
350.92	10.695
351.12	11.803
351.33	9.719
351.54	10.504
351.74	11.436
351.95	10.452
352.16	13.632
352.37	13.146
352.57	12.448
352.78	12.022
352.99	13.162
353.19	11.940
353.40	13.997
353.61	15.449
353.82	14.262
354.02	14.605
354.23	14.230
354.44	16.534
354.64	14.659
354.85	14.271
355.06	13.988
355.26	13.711
355.47	14.489
355.68	16.633
355.88	16.869
356.09	15.017
356.30	14.096
356.51	16.941
356.71	14.521
356.92	13.371
357.13	16.829
357.33	18.621
357.54	16.784
357.75	13.707
357.95	17.126
358.16	14.499
358.37	18.485
358.57	15.739
358.78	19.193
358.99	16.521
359.19	17.089
359.40	17.901
359.61	17.182
359.81	18.594
360.02	20.526
360.23	16.262
360.43	17.566
360.64	16.783
360.85	18.424
361.05	16.341
361.26	19.422
361.47	17.815
361.67	20.049
361.88	17.015
362.09	18.679
362.29	17.966
362.50	18.205
362.70	16.532
362.91	19.656
363.12	18.265
363.32	19.405
363.53	19.247
363.74	20.123
363.94	16.782
364.15	20.040
364.36	19.673
364.56	18.902
364.77	18.242
364.98	20.168
365.18	18.915
365.39	19.926
365.59	17.285
365.80	18.926
366.01	19.676
366.21	18.820
366.42	17.537
366.63	20.630
366.83	18.029
367.04	17.027
367.24	20.593
367.45	19.232
367.66	17.088
367.86	18.320
368.07	18.304
368.28	18.059
368.48	18.816
368.69	17.013
368.89	17.687
369.10	18.894
369.31	17.918
369.51	19.632
369.72	20.228
369.92	20.774
370.13	15.431
370.34	19.287
370.54	14.233
370.75	18.214
370.95	15.854
371.16	19.261
371.37	17.501
371.57	17.149
371.78	17.394
371.98	18.948
372.19	18.128
372.40	18.536
372.60	18.566
372.81	19.181
373.01	15.559
373.22	17.745
373.43	18.442
373.63	18.464
373.84	18.078
374.04	17.802
374.25	16.860
374.46	18.522
374.66	18.141
374.87	19.133
375.07	15.380
375.28	16.640
375.48	16.701
375.69	18.233
375.90	14.471
376.10	15.515
376.31	16.300
376.51	16.385
376.72	16.710
376.92	15.930
377.13	17.248
377.34	18.576
377.54	16.399
377.75	18.837
377.95	16.301
378.16	17.971
378.36	17.728
378.57	18.396
378.77	17.167
378.98	16.514
379.19	16.636
379.39	16.671
379.60	16.909
379.80	16.746
380.01	18.620
380.21	16.591
380.42	17.314
380.62	16.941
380.83	17.880
381.04	16.859
381.24	16.559
381.45	16.880
381.65	14.998
381.86	16.621
382.06	17.191
382.27	15.965
382.47	15.800
382.68	17.701
382.88	15.499
383.09	15.715
383.29	17.036
383.50	17.808
383.71	16.045
383.91	16.602
384.12	15.507
384.32	16.752
384.53	15.892
384.73	15.522
384.94	15.559
385.14	16.904
385.35	15.779
385.55	16.225
385.76	15.543
385.96	16.024
386.17	16.380
386.37	16.886
386.58	16.271
386.78	17.614
386.99	15.025
387.19	17.724
387.40	15.409
387.60	17.591
387.81	15.823
388.01	16.194
388.22	16.434
388.42	17.143
388.63	16.630
388.83	17.520
389.04	13.828
389.24	16.436
389.45	15.934
389.65	15.849
389.86	15.801
390.06	15.224
390.27	15.007
390.47	15.279
390.68	15.527
390.88	17.020
391.09	16.578
391.29	16.905
391.50	15.707
391.70	16.511
391.91	15.720
392.11	15.558
392.32	16.228
392.52	16.716
392.73	15.183
392.93	17.073
393.14	15.585
393.34	16.033
393.55	16.717
393.75	16.087
393.95	15.546
394.16	16.773
394.36	16.252
394.57	16.112
394.77	15.700
394.98	15.433
395.18	16.130
395.39	16.435
395.59	16.572
395.80	16.453
396.00	15.954
396.21	16.860
396.41	15.130
396.61	16.919
396.82	15.909
397.02	17.456
397.23	15.555
397.43	16.270
397.64	13.822
397.84	17.014
398.05	14.831
398.25	16.103
398.45	15.188
398.66	16.391
398.86	15.981
399.07	16.978
399.27	14.775
399.48	16.717
399.68	15.283
399.89	15.885
400.09	15.859
400.29	15.385
400.50	15.547
400.70	15.939
400.91	14.735
401.11	15.152
401.32	15.618
401.52	14.494
401.72	15.064
401.93	16.995
402.13	15.454
402.34	15.207
402.54	14.079
402.75	16.690
402.95	13.281
403.15	17.144
403.36	14.520
403.56	15.717
403.77	14.790
403.97	15.274
404.17	14.757
404.38	16.319
404.58	13.937
404.79	16.262
404.99	15.475
405.19	15.536
405.40	15.173
405.60	14.971
405.81	15.712
406.01	15.608
406.21	15.177
406.42	16.607
406.62	15.135
406.83	16.112
407.03	16.079
407.23	14.888
407.44	14.158
407.64	16.065
407.85	15.251
408.05	14.868
408.25	14.892
408.46	15.562
408.66	15.696
408.87	15.132
409.07	14.544
409.27	14.327
409.48	14.127
409.68	16.200
409.88	13.361
410.09	14.998
410.29	14.853
410.50	15.318
410.70	14.049
410.90	14.756
411.11	14.068
411.31	14.534
411.51	15.621
411.72	15.504
411.92	14.291
412.12	14.368
412.33	14.439
412.53	14.625
412.74	13.181
412.94	15.165
413.14	14.796
413.35	15.353
413.55	14.718
413.75	15.814
413.96	13.881
414.16	15.278
414.36	14.746
414.57	15.453
414.77	14.142
414.97	14.775
415.18	14.131
415.38	15.034
415.58	14.248
415.79	14.375
415.99	13.085
416.19	15.526
416.40	14.473
416.60	14.460
416.80	13.528
417.01	15.117
417.21	12.863
417.41	14.795
417.62	14.826
417.82	15.711
418.02	13.732
418.23	14.919
418.43	14.189
418.63	15.078
418.84	14.888
419.04	14.301
419.24	15.491
419.45	15.243
419.65	14.950
419.85	15.890
420.06	14.942
420.26	15.051
420.46	15.108
420.67	15.095
420.87	15.185
421.07	15.101
421.28	14.435
421.48	15.043
421.68	14.789
421.88	15.258
422.09	14.988
422.29	14.791
422.49	14.702
422.70	14.750
422.90	15.204
423.10	15.210
423.31	15.047
423.51	15.122
423.71	14.943
423.91	15.214
424.12	15.402
424.32	15.189
424.52	14.481
424.73	15.053
424.93	14.846
425.13	14.903
425.33	14.408
425.54	15.175
425.74	15.055
425.94	15.262
426.15	15.222
426.35	15.391
426.55	15.058
426.75	15.393
426.96	15.252
427.16	15.341
427.36	15.004
427.57	15.306
427.77	14.971
427.97	15.387
428.17	15.263
428.38	15.777
428.58	14.352
428.78	15.561
428.98	15.138
429.19	14.656
429.39	13.839
429.59	14.800
429.79	13.593
430.00	13.765
430.20	14.220
430.40	15.099
430.60	14.155
430.81	14.395
431.01	14.023
431.21	14.300
431.41	13.422
431.62	14.691
431.82	14.320
432.02	14.974
432.22	14.009
432.43	14.709
432.63	14.018
432.83	14.423
433.03	14.492
433.24	14.183
433.44	13.978
433.64	14.513
433.84	13.941
434.05	14.643
434.25	14.437
434.45	15.111
434.65	14.917
434.85	14.918
435.06	14.826
435.26	14.345
435.46	14.584
435.66	15.244
435.87	14.499
436.07	14.600
436.27	14.720
436.47	14.278
436.67	13.897
436.88	14.977
437.08	14.243
437.28	14.096
437.48	14.213
437.69	14.708
437.89	14.755
438.09	14.404
438.29	14.369
438.49	14.644
438.70	14.419
438.90	14.431
439.10	13.744
439.30	14.763
439.50	13.333
439.71	14.788
439.91	14.148
440.11	15.283
440.31	14.352
440.51	14.114
440.72	14.225
440.92	13.926
441.12	14.641
441.32	14.652
441.52	14.460
441.72	14.782
441.93	14.561
442.13	14.712
442.33	14.373
442.53	14.730
442.73	14.658
442.94	14.659
443.14	14.431
443.34	14.983
443.54	14.281
443.74	14.700
443.94	14.491
444.15	14.053
444.35	14.504
444.55	14.512
444.75	14.017
444.95	14.773
445.15	13.985
445.36	14.052
445.56	13.815
445.76	13.947
445.96	13.564
446.16	14.062
446.36	13.825
446.57	14.447
446.77	13.900
446.97	14.200
447.17	14.233
447.37	14.392
447.57	14.444
447.77	14.533
447.98	14.604
448.18	14.364
448.38	14.128
448.58	14.588
448.78	14.586
448.98	14.357
449.18	14.690
449.39	14.626
449.59	14.041
449.79	14.505
449.99	14.308
450.19	14.719
450.39	14.583
450.59	14.358
450.79	14.460
451.00	14.278
451.20	15.248
451.40	14.177
451.60	14.064
451.80	14.596
452.00	13.771
452.20	14.273
452.40	14.301
452.61	14.141
452.81	14.101
453.01	14.268
453.21	14.021
453.41	14.251
453.61	14.235
453.81	14.037
454.01	14.143
454.21	14.595
454.42	14.537
454.62	14.519
454.82	14.392
455.02	14.278
455.22	13.724
455.42	14.390
455.62	13.514
455.82	14.149
456.02	13.851
456.23	13.918
456.43	13.527
456.63	13.821
456.83	13.628
457.03	14.325
457.23	14.167
457.43	14.412
457.63	13.350
457.83	13.975
458.03	13.862
458.23	13.710
458.43	12.950
458.64	13.900
458.84	14.107
459.04	13.810
459.24	13.567
459.44	13.586
459.64	13.688
459.84	13.579
460.04	13.795
460.24	13.842
460.44	13.781
460.64	14.183
460.84	14.410
461.04	14.311
461.24	14.498
461.45	14.360
461.65	14.668
461.85	14.389
462.05	14.279
462.25	14.083
462.45	14.505
462.65	14.579
462.85	14.108
463.05	14.097
463.25	13.853
463.45	14.125
463.65	14.092
463.85	14.572
464.05	13.753
464.25	14.015
464.45	13.657
464.65	13.925
464.85	13.475
465.05	13.765
465.26	14.018
465.46	14.219
465.66	14.021
465.86	13.895
466.06	14.040
466.26	13.588
466.46	13.451
466.66	14.093
466.86	13.561
467.06	13.764
467.26	13.953
467.46	14.195
467.66	14.132
467.86	13.599
468.06	13.533
468.26	14.064
468.46	13.842
468.66	14.000
468.86	13.127
469.06	14.220
469.26	13.524
469.46	14.285
469.66	13.590
469.86	13.865
470.06	13.295
470.26	14.087
470.46	13.118
470.66	14.109
470.86	13.576
471.06	13.669
471.26	13.372
471.46	13.645
471.66	13.524
471.86	14.074
472.06	13.449
472.26	14.341
472.46	13.868
472.66	14.519
472.86	13.605
473.06	14.305
473.26	13.578
473.46	14.397
473.66	13.449
473.86	13.984
474.06	13.314
474.26	13.830
474.46	13.256
474.66	14.102
474.86	13.812
475.06	14.212
475.26	13.310
475.46	13.974
475.66	13.375
475.86	14.063
476.06	14.049
476.26	13.813
476.46	13.366
476.66	13.793
476.86	13.317
477.06	13.627
477.26	13.570
477.46	14.322
477.65	13.500
477.85	14.277
478.05	13.391
478.25	14.541
478.45	13.663
478.65	13.943
478.85	13.504
479.05	13.797
479.25	14.126
479.45	14.065
479.65	13.677
479.85	13.891
480.05	13.891
480.25	14.011
480.45	14.003
480.65	13.943
480.85	13.943
481.05	14.266
481.25	13.771
481.44	14.089
481.64	13.673
481.84	14.009
482.04	13.901
482.24	14.003
482.44	14.002
482.64	13.835
482.84	14.087
483.04	13.797
483.24	13.458
483.44	13.496
483.64	13.179
483.84	13.244
484.04	13.552
484.23	13.738
484.43	13.958
484.63	14.147
484.83	14.482
485.03	15.018
485.23	15.068
485.43	14.870
485.63	14.884
485.83	14.836
486.03	14.891
486.23	14.709
486.42	14.808
486.62	14.468
486.82	14.402
487.02	14.162
487.22	14.057
487.42	14.064
487.62	14.080
487.82	13.898
488.02	13.875
488.22	14.048
488.41	13.969
488.61	14.146
488.81	14.263
489.01	14.312
489.21	14.551
489.41	14.558
489.61	14.757
489.81	14.393
490.01	14.491
490.20	14.608
490.40	14.531
490.60	14.548
490.80	14.372
491.00	14.384
491.20	14.120
491.40	13.912
491.60	13.785
491.79	13.901
491.99	14.093
492.19	14.152
492.39	14.206
492.59	14.187
492.79	14.359
492.99	14.491
493.19	14.516
493.38	14.858
493.58	14.660
493.78	14.800
493.98	14.890
494.18	14.801
494.38	14.349
494.58	14.993
494.77	14.446
494.97	14.197
495.17	14.401
495.37	14.262
495.57	14.868
495.77	14.408
495.96	14.363
496.16	14.184
496.36	14.204
496.56	14.096
496.76	14.047
496.96	13.730
497.15	14.244
497.35	14.083
497.55	14.308
497.75	14.194
497.95	14.106
498.15	14.622
498.34	14.375
498.54	14.199
498.74	14.808
498.94	14.740
499.14	14.347
499.34	14.936
499.53	14.498
499.73	14.514
499.93	14.235
500.13	14.709
500.33	13.985
500.52	14.513
500.72	14.357
500.92	14.167
501.12	14.136
501.32	14.101
501.52	14.654
501.71	14.348
501.91	13.958
502.11	14.677
502.31	13.690
502.51	14.187
502.70	14.284
502.90	14.411
503.10	14.428
503.30	14.609
503.50	14.096
503.69	14.457
503.89	14.705
504.09	14.482
504.29	14.431
504.48	14.568
504.68	14.316
504.88	14.542
505.08	14.310
505.28	14.366
505.47	14.629
505.67	14.637
505.87	14.192
506.07	14.638
506.27	14.259
506.46	14.460
506.66	14.374
506.86	15.015
507.06	14.751
507.25	14.859
507.45	14.562
507.65	14.940
507.85	14.613
508.04	14.751
508.24	14.514
508.44	14.525
508.64	14.682
508.83	14.761
509.03	14.217
509.23	14.367
509.43	14.389
509.63	14.694
509.82	14.536
510.02	14.742
510.22	14.383
510.42	14.676
510.61	14.554
510.81	14.735
511.01	14.721
511.21	14.859
511.40	14.563
511.60	14.611
511.80	14.858
511.99	14.771
512.19	14.370
512.39	14.898
512.59	14.652
512.78	14.852
512.98	14.974
513.18	15.075
513.38	15.171
513.57	14.551
513.77	14.946
513.97	14.583
514.17	14.812
514.36	15.149
514.56	15.000
514.76	15.112
514.95	14.462
515.15	14.719
515.35	14.519
515.55	14.654
515.74	15.085
515.94	15.143
516.14	14.561
516.33	15.199
516.53	14.772
516.73	14.708
516.93	15.053
517.12	15.122
517.32	14.524
517.52	14.779
517.71	14.482
517.91	14.540
518.11	14.657
518.30	14.402
518.50	14.458
518.70	14.581
518.90	14.670
519.09	14.731
519.29	14.754
519.49	14.929
519.68	14.698
519.88	14.793
520.08	15.146
520.27	15.069
520.47	15.345
520.67	14.919
520.86	15.523
521.06	15.085
521.26	14.991
521.45	15.251
521.65	15.007
521.85	15.029
522.04	14.918
522.24	15.216
522.44	14.944
522.63	15.023
522.83	14.903
523.03	15.258
523.22	15.145
523.42	15.320
523.62	14.870
523.81	14.996
524.01	14.922
524.21	15.071
524.40	15.312
524.60	15.151
524.80	14.812
524.99	15.052
525.19	14.835
525.39	15.116
525.58	14.784
525.78	14.842
525.98	15.064
526.17	14.786
526.37	14.950
526.57	14.879
526.76	15.386
526.96	15.171
527.15	15.003
527.35	15.176
527.55	14.919
527.74	15.148
527.94	14.901
528.14	14.700
528.33	14.594
528.53	14.819
528.72	14.806
528.92	14.915
529.12	15.077
529.31	15.295
529.51	15.468
529.71	15.246
529.90	15.652
530.10	15.469
530.29	15.768
530.49	15.846
530.69	16.052
530.88	15.889
531.08	15.705
531.28	15.647
531.47	15.714
531.67	15.710
531.86	15.603
532.06	15.409
532.26	15.571
532.45	15.394
532.65	15.346
532.84	15.199
533.04	15.057
533.24	15.175
533.43	15.168
533.63	15.330
533.82	15.493
534.02	15.432
534.22	15.520
534.41	15.561
534.61	15.660
534.80	15.810
535.00	15.903
535.19	15.868
535.39	16.018
535.59	16.047
535.78	15.827
535.98	15.771
536.17	15.474
536.37	15.612
536.57	15.231
536.76	15.582
536.96	15.703
537.15	15.522
537.35	15.516
537.54	15.715
537.74	15.664
537.93	15.624
538.13	16.162
538.33	15.822
538.52	16.009
538.72	16.193
538.91	16.056
539.11	16.025
539.30	16.308
539.50	15.876
539.70	15.654
539.89	16.193
540.09	15.733
540.28	15.713
540.48	15.695
540.67	15.528
540.87	15.325
541.06	15.513
541.26	15.747
541.45	15.475
541.65	15.920
541.85	15.751
542.04	15.682
542.24	16.235
542.43	16.032
542.63	16.109
542.82	16.151
543.02	16.497
543.21	16.610
543.41	16.752
543.60	16.756
543.80	16.733
543.99	16.718
544.19	16.247
544.38	16.945
544.58	16.569
544.77	16.676
544.97	16.511
545.16	16.526
545.36	16.726
545.56	16.605
545.75	16.414
545.95	16.713
546.14	16.671
546.34	16.887
546.53	16.282
546.73	16.284
546.92	16.701
547.12	16.921
547.31	16.796
547.51	16.761
547.70	17.052
547.90	17.153
548.09	17.038
548.29	16.984
548.48	17.196
548.68	16.971
548.87	17.225
549.07	17.803
549.26	16.906
549.46	17.419
549.65	17.538
549.84	16.988
550.04	17.184
550.23	17.314
550.43	17.233
550.62	17.104
550.82	17.803
551.01	17.167
551.21	17.478
551.40	17.008
551.60	17.577
551.79	17.332
551.99	17.682
552.18	17.376
552.38	17.627
552.57	17.258
552.77	16.993
552.96	17.659
553.16	17.986
553.35	17.914
553.54	17.672
553.74	17.921
553.93	18.192
554.13	18.484
554.32	18.409
554.52	18.713
554.71	18.375
554.91	18.441
555.10	18.516
555.29	17.813
555.49	18.784
555.68	17.990
555.88	18.518
556.07	18.260
556.27	18.622
556.46	18.274
556.66	18.801
556.85	18.676
557.04	18.584
557.24	18.614
557.43	19.375
557.63	18.666
557.82	18.544
558.02	18.330
558.21	19.560
558.40	19.159
558.60	19.448
558.79	19.327
558.99	19.838
559.18	19.500
559.38	19.381
559.57	19.449
559.76	19.856
559.96	20.570
560.15	20.488
560.35	19.785
560.54	19.653
560.73	19.480
560.93	19.810
561.12	19.055
561.32	19.758
561.51	20.441
561.70	20.847
561.90	20.402
562.09	20.927
562.29	20.693
562.48	20.278
562.67	20.779
562.87	20.754
563.06	20.106
563.26	20.534
563.45	20.854
563.64	21.042
563.84	21.179
564.03	20.907
564.23	20.462
564.42	21.183
564.61	20.336
564.81	21.316
565.00	21.775
565.20	21.431
565.39	21.546
565.58	21.559
565.78	21.513
565.97	21.578
566.16	21.733
566.36	22.023
566.55	22.005
566.74	21.841
566.94	21.940
567.13	22.162
567.33	22.089
567.52	21.990
567.71	22.365
567.91	21.854
568.10	22.343
568.29	22.912
568.49	22.869
568.68	22.500
568.87	22.470
569.07	23.114
569.26	22.588
569.45	23.380
569.65	22.600
569.84	22.742
570.04	22.848
570.23	22.778
570.42	23.258
570.62	23.210
570.81	23.240
571.00	22.969
571.20	22.802
571.39	23.282
571.58	23.199
571.78	23.545
571.97	23.383
572.16	23.386
572.36	23.182
572.55	23.610
572.74	23.714
572.94	23.517
573.13	23.941
573.32	24.038
573.51	23.893
573.71	23.635
573.90	23.853
574.09	23.723
574.29	24.265
574.48	23.509
574.67	23.788
574.87	24.162
575.06	24.255
575.25	23.866
575.45	23.704
575.64	23.769
575.83	24.024
576.03	25.063
576.22	24.211
576.41	24.089
576.60	24.161
576.80	24.541
576.99	23.715
577.18	24.498
577.38	24.609
577.57	24.024
577.76	24.583
577.95	24.763
578.15	24.458
578.34	24.248
578.53	24.335
578.73	23.915
578.92	24.653
579.11	24.371
579.30	25.018
579.50	24.495
579.69	24.958
579.88	24.750
580.08	24.122
580.27	24.806
580.46	24.257
580.65	24.619
580.85	24.049
581.04	24.397
581.23	24.574
581.42	23.972
581.62	24.418
581.81	24.440
582.00	24.084
582.19	24.923
582.39	23.949
582.58	24.519
582.77	24.426
582.96	24.154
583.16	23.839
583.35	24.586
583.54	24.379
583.73	24.776
583.93	24.507
584.12	23.894
584.31	23.822
584.50	23.530
584.70	24.235
584.89	23.967
585.08	24.306
585.27	24.761
585.47	24.391
585.66	23.996
585.85	24.096
586.04	23.684
586.24	23.879
586.43	24.090
586.62	24.273
586.81	23.758
587.00	23.542
587.20	23.730
587.39	24.228
587.58	24.268
587.77	23.846
587.97	23.779
588.16	24.644
588.35	24.336
588.54	23.266
588.73	23.822
588.93	23.859
589.12	23.775
589.31	24.042
589.50	23.520
589.69	24.237
589.89	24.182
590.08	24.095
590.27	23.549
590.46	24.005
590.65	23.742
590.85	23.541
591.04	23.931
591.23	24.281
591.42	24.358
591.61	24.016
591.81	24.174
592.00	23.500
592.19	24.263
592.38	23.984
592.57	24.143
592.77	24.121
592.96	23.748
593.15	25.160
593.34	23.615
593.53	24.537
593.72	24.404
593.92	23.590
594.11	24.132
594.30	24.322
594.49	24.479
594.68	24.063
594.87	24.067
595.07	24.013
595.26	24.525
595.45	24.020
595.64	24.428
595.83	23.528
596.02	24.334
596.22	24.697
596.41	24.317
596.60	24.142
596.79	24.560
596.98	24.290
597.17	24.579
597.37	24.282
597.56	24.532
597.75	24.630
597.94	25.328
598.13	25.577
598.32	24.837
598.51	25.526
598.71	25.690
598.90	24.888
599.09	25.979
599.28	25.336
599.47	25.264
599.66	25.371
599.85	25.515
600.05	24.894
600.24	26.017
600.43	25.209
600.62	25.145
600.81	25.433
601.00	25.635
601.19	25.341
601.38	26.043
601.58	26.286
601.77	25.681
601.96	25.936
602.15	25.524
602.34	26.079
602.53	25.702
602.72	26.030
602.91	26.037
603.10	25.850
603.30	26.144
603.49	25.628
603.68	25.862
603.87	25.509
604.06	26.140
604.25	25.998
604.44	25.285
604.63	25.754
604.82	25.998
605.01	26.347
605.21	26.122
605.40	26.161
605.59	26.450
605.78	25.791
605.97	26.214
606.16	26.187
606.35	26.168
606.54	26.647
606.73	26.304
606.92	26.417
607.11	26.102
607.30	26.537
607.50	26.071
607.69	26.241
607.88	26.031
608.07	25.897
608.26	26.243
608.45	25.813
608.64	25.868
608.83	24.739
609.02	25.726
609.21	25.320
609.40	25.912
609.59	25.375
609.78	25.364
609.97	25.672
610.16	25.439
610.35	25.023
610.55	25.243
610.74	25.438
610.93	25.846
611.12	25.298
611.31	24.914
611.50	25.874
611.69	25.654
611.88	25.847
612.07	25.340
612.26	24.459
612.45	25.519
612.64	25.585
612.83	25.101
613.02	24.772
613.21	24.361
613.40	24.990
613.59	25.526
613.78	24.128
613.97	25.044
614.16	24.050
614.35	24.113
614.54	23.369
614.73	24.482
614.92	24.151
615.11	24.058
615.30	23.944
615.49	23.183
615.68	24.136
615.87	24.293
616.07	23.866
616.26	23.947
616.45	24.079
616.64	23.779
616.83	23.765
617.02	23.828
617.21	23.417
617.40	22.438
617.59	24.185
617.78	23.949
617.97	23.383
618.16	24.013
618.35	23.017
618.54	23.895
618.73	23.531
618.92	23.497
619.11	22.695
619.30	23.289
619.49	22.269
619.68	23.237
619.86	23.607
620.05	23.829
620.24	22.244
620.43	23.243
620.62	21.564
620.81	23.618
621.00	22.695
621.19	23.527
621.38	23.018
621.57	23.596
621.76	22.730
621.95	22.447
622.14	23.251
622.33	23.263
622.52	22.669
622.71	23.262
622.90	21.775
623.09	22.471
623.28	22.554
623.47	22.961
623.66	22.632
623.85	22.301
624.04	21.920
624.23	22.203
624.42	23.013
624.61	22.470
624.80	21.840
624.99	22.353
625.18	21.939
625.36	23.172
625.55	22.787
625.74	21.994
625.93	21.521
626.12	22.562
626.31	22.025
626.50	23.139
626.69	21.970
626.88	23.215
627.07	22.935
627.26	22.061
627.45	22.020
627.64	22.693
627.83	22.044
628.02	22.318
628.20	21.895
628.39	22.697
628.58	22.005
628.77	22.474
628.96	21.445
629.15	21.742
629.34	22.394
629.53	22.127
629.72	21.794
629.91	22.701
630.10	21.169
630.29	21.751
630.47	20.940
630.66	21.995
630.85	20.440
631.04	21.633
631.23	21.942
631.42	21.144
631.61	20.624
631.80	21.904
631.99	20.725
632.18	21.359
632.36	20.060
632.55	21.940
632.74	20.399
632.93	21.126
633.12	20.456
633.31	21.694
633.50	20.647
633.69	21.163
633.88	20.860
634.06	20.739
634.25	21.348
634.44	21.787
634.63	21.505
634.82	21.800
635.01	20.740
635.20	21.136
635.39	19.856
635.57	22.137
635.76	20.484
635.95	21.378
636.14	19.868
636.33	21.293
636.52	21.622
636.71	21.352
636.89	20.764
637.08	21.588
637.27	20.585
637.46	20.753
637.65	21.210
637.84	20.748
638.03	20.238
638.21	22.336
638.40	21.459
638.59	21.391
638.78	21.243
638.97	21.960
639.16	21.577
639.34	21.245
639.53	19.429
639.72	21.661
639.91	20.413
640.10	20.488
640.29	21.245
640.47	21.695
640.66	20.911
640.85	22.162
641.04	18.946
641.23	21.413
641.42	20.600
641.60	20.817
641.79	19.918
641.98	21.813
642.17	20.027
642.36	21.255
642.54	19.304
642.73	21.065
642.92	20.531
643.11	20.981
643.30	20.158
643.49	20.496
643.67	19.164
643.86	21.342
644.05	19.839
644.24	20.507
644.43	19.576
644.61	21.413
644.80	19.983
644.99	20.763
645.18	21.365
645.37	21.161
645.55	20.106
645.74	20.882
645.93	21.196
646.12	21.489
646.31	20.930
646.49	20.736
646.68	20.906
646.87	21.013
647.06	19.994
647.24	20.136
647.43	18.780
647.62	21.541
647.81	18.220
648.00	20.920
648.18	19.189
648.37	19.929
648.56	19.748
648.75	20.874
648.93	20.195
649.12	20.574
649.31	20.673
649.50	20.290
649.68	19.086
649.87	20.246
650.06	19.198
650.25	20.523
650.43	20.098
650.62	19.830
650.81	19.467
651.00	20.488
651.18	18.721
651.37	21.086
651.56	18.918
651.75	20.879
651.93	19.965
652.12	20.386
652.31	19.471
652.50	20.947
652.68	20.571
652.87	21.874
653.06	20.561
653.25	20.455
653.43	19.487
653.62	20.717
653.81	19.434
654.00	20.543
654.18	19.334
654.37	21.458
654.56	19.820
654.74	18.527
654.93	19.430
655.12	19.992
655.31	18.875
655.49	19.466
655.68	16.924
655.87	17.782
656.05	18.027
656.24	19.776
656.43	16.850
656.62	19.804
656.80	18.071
656.99	18.728
657.18	17.656
657.36	18.127
657.55	18.864
657.74	18.339
657.93	18.870
658.11	19.816
658.30	17.771
658.49	18.753
658.67	18.612
658.86	17.227
659.05	16.586
659.23	18.415
659.42	17.552
659.61	17.838
659.79	18.138
659.98	17.747
660.17	18.429
660.35	18.050
660.54	17.835
660.73	18.792
660.91	17.754
661.10	18.597
661.29	15.976
661.47	16.684
661.66	16.932
661.85	17.258
662.03	17.032
662.22	16.223
662.41	15.297
662.59	17.250
662.78	16.167
662.97	15.856
663.15	14.347
663.34	15.835
663.53	14.679
663.71	16.247
663.90	14.783
664.09	16.208
664.27	14.431
664.46	15.629
664.65	14.661
664.83	14.603
665.02	13.616
665.21	13.120
665.39	12.413
665.58	15.454
665.77	14.416
665.95	14.908
666.14	13.459
666.32	14.909
666.51	11.773
666.70	12.819
666.88	12.945
667.07	13.429
667.26	12.172
667.44	13.106
667.63	12.765
667.81	12.701
668.00	12.689
668.19	14.925
668.37	12.885
668.56	15.293
668.75	11.828
668.93	14.602
669.12	12.984
669.30	13.567
669.49	13.128
669.68	15.090
669.86	14.242
670.05	12.829
670.23	13.591
670.42	13.013
670.61	13.481
670.79	14.362
670.98	13.959
671.16	15.899
671.35	12.258
671.54	14.398
671.72	13.708
671.91	14.480
672.09	13.007
672.28	15.080
672.46	14.480
672.65	16.078
672.84	13.394
673.02	14.833
673.21	12.401
673.39	13.583
673.58	14.321
673.77	14.731
673.95	14.306
674.14	15.378
674.32	13.063
674.51	15.957
674.69	14.098
674.88	14.012
675.07	14.541
675.25	17.159
675.44	14.410
675.62	15.216
675.81	13.574
675.99	18.399
676.18	15.762
676.36	15.366
676.55	13.708
676.74	16.756
676.92	16.237
677.11	15.614
677.29	14.459
677.48	17.537
677.66	16.354
677.85	15.927
678.03	15.856
678.22	17.043
678.40	15.219
678.59	15.494
678.78	13.539
678.96	15.777
679.15	15.311
679.33	18.346
679.52	16.275
679.70	16.456
679.89	15.922
680.07	16.818
680.26	15.140
680.44	17.856
680.63	16.020
680.81	16.294
681.00	14.555
681.18	16.416
681.37	16.049
681.55	18.866
681.74	16.898
681.92	17.263
682.11	16.451
682.29	17.362
682.48	16.809
682.66	18.454
682.85	17.026
683.03	17.966
683.22	18.510
683.40	18.760
683.59	17.829
683.77	18.749
683.96	16.821
684.14	19.162
684.33	15.147
684.51	19.567
684.70	18.639
684.88	20.036
685.07	19.642
685.25	20.777
685.44	18.785
685.62	20.972
685.81	18.154
685.99	20.920
686.18	17.631
686.36	20.944
686.55	17.685
686.73	18.413
686.92	20.886
687.10	22.686
687.29	21.407
687.47	22.217
687.65	21.986
687.84	20.339
688.02	23.539
688.21	23.637
688.39	20.589
688.58	22.956
688.76	21.812
688.95	22.288
689.13	21.240
689.32	26.253
689.50	23.816
689.68	25.555
689.87	22.885
690.05	25.688
690.24	24.704
690.42	24.481
690.61	24.814
690.79	27.960
690.98	26.196
691.16	25.701
691.34	25.650
691.53	27.352
691.71	24.600
691.90	26.987
692.08	26.006
692.27	30.330
692.45	29.342
692.63	28.512
692.82	29.646
693.00	28.745
693.19	28.349
693.37	30.490
693.56	30.138
693.74	31.759
693.92	31.509
694.11	33.419
694.29	33.117
694.48	33.440
694.66	32.800
694.84	32.604
695.03	32.636
695.21	35.840
695.40	37.242
695.58	36.208
695.76	34.677
695.95	37.024
696.13	34.877
696.32	37.458
696.50	38.812
696.68	37.772
696.87	37.593
697.05	39.005
697.24	40.876
697.42	40.270
697.60	39.261
697.79	41.757
697.97	40.822
698.16	42.108
698.34	40.833
698.52	43.227
698.71	41.785
698.89	43.100
699.07	42.018
699.26	43.669
699.44	42.547
699.63	43.285
699.81	42.041
699.99	43.269
700.18	42.722
700.36	44.197
700.54	42.716
700.73	43.503
700.91	44.058
701.09	45.337
701.28	45.524
701.46	45.370
701.64	45.993
701.83	46.845
702.01	46.296
702.20	48.035
702.38	46.294
702.56	47.590
702.75	47.111
702.93	48.233
703.11	48.508
703.30	49.530
703.48	47.828
703.66	49.302
703.85	49.209
704.03	51.754
704.21	48.196
704.40	51.384
704.58	49.372
704.76	52.826
704.95	52.737
705.13	50.790
705.31	51.011
705.50	51.790
705.68	49.565
705.86	53.995
706.04	53.709
706.23	57.033
706.41	50.980
706.59	52.516
706.78	51.905
706.96	52.604
707.14	50.602
707.33	54.104
707.51	53.841
707.69	54.726
707.88	52.955
708.06	53.456
708.24	54.445
708.42	53.841
708.61	54.155
708.79	56.042
708.97	55.130
709.16	52.802
709.34	56.809
709.52	55.500
709.71	53.362
709.89	55.910
710.07	52.821
710.25	56.964
710.44	53.636
710.62	55.122
710.80	54.805
710.98	55.034
711.17	54.900
711.35	56.436
711.53	55.436
711.72	57.408
711.90	55.827
712.08	54.814
712.26	55.823
712.45	56.033
712.63	56.196
712.81	57.832
712.99	57.274
713.18	55.471
713.36	56.089
713.54	57.085
713.72	53.303
713.91	56.880
714.09	54.807
714.27	57.316
714.45	54.905
714.64	56.992
714.82	57.769
715.00	57.780
715.18	57.321
715.37	56.343
715.55	57.019
715.73	56.888
715.91	57.839
716.10	57.033
716.28	55.317
716.46	57.459
716.64	56.483
716.83	56.895
717.01	58.199
717.19	56.614
717.37	57.334
717.55	57.196
717.74	57.650
717.92	56.897
718.10	54.757
718.28	56.929
718.47	57.739
718.65	60.422
718.83	54.594
719.01	59.871
719.19	54.423
719.38	58.862
719.56	57.751
719.74	59.493
719.92	57.131
720.10	58.927
720.29	59.661
720.47	60.568
720.65	57.637
720.83	59.521
721.01	57.395
721.20	60.091
721.38	58.484
721.56	61.604
721.74	58.483
721.92	58.521
722.11	58.149
722.29	57.726
722.47	60.546
722.65	64.313
722.83	58.834
723.01	59.517
723.20	60.460
723.38	59.651
723.56	59.268
723.74	64.244
723.92	58.724
724.10	60.542
724.29	57.341
724.47	59.096
724.65	60.838
724.83	60.768
725.01	57.330
725.19	60.713
725.38	57.658
725.56	61.191
725.74	60.825
725.92	61.619
726.10	62.124
726.28	59.919
726.46	59.703
726.65	61.652
726.83	61.094
727.01	61.278
727.19	59.909
727.37	61.640
727.55	61.067
727.73	61.834
727.92	60.656
728.10	61.614
728.28	58.806
728.46	61.732
728.64	59.391
728.82	61.886
729.00	62.712
729.19	62.370
729.37	61.870
729.55	61.083
729.73	58.926
729.91	61.798
730.09	61.011
730.27	61.767
730.45	61.053
730.63	62.370
730.82	61.333
731.00	60.816
731.18	60.969
731.36	64.307
731.54	60.629
731.72	62.434
731.90	60.178
732.08	63.369
732.26	59.980
732.45	63.377
732.63	61.883
732.81	63.056
732.99	61.398
733.17	61.830
733.35	61.813
733.53	63.243
733.71	62.890
733.89	61.899
734.07	61.537
734.25	62.005
734.44	59.929
734.62	62.631
734.80	62.112
734.98	64.274
735.16	62.287
735.34	66.020
735.52	62.679
735.70	61.121
735.88	65.153
736.06	64.570
736.24	64.745
736.42	64.424
736.60	63.891
736.78	66.169
736.97	64.194
737.15	68.530
737.33	64.047
737.51	65.016
737.69	67.638
737.87	68.229
738.05	64.042
738.23	67.866
738.41	64.688
738.59	69.270
738.77	64.907
738.95	67.375
739.13	65.906
739.31	67.413
739.49	68.864
739.67	67.981
739.85	65.921
740.03	64.347
740.21	66.362
740.39	66.106
740.57	68.008
740.75	67.432
740.93	64.605
741.11	66.551
741.30	66.248
741.48	68.139
741.66	68.932
741.84	68.982
742.02	65.358
742.20	65.972
742.38	65.984
742.56	67.890
742.74	65.329
742.92	69.159
743.10	65.487
743.28	71.139
743.46	67.478
743.64	65.701
743.82	69.061
744.00	69.791
744.18	69.701
744.36	69.473
744.54	69.090
744.72	70.704
744.90	71.478
745.08	72.586
745.26	67.225
745.44	69.131
745.62	65.780
745.80	70.984
745.98	68.816
746.16	72.767
746.34	71.620
746.52	68.887
746.70	67.604
746.87	67.248
747.05	66.688
747.23	68.582
747.41	71.651
747.59	70.108
747.77	68.563
747.95	72.305
748.13	67.453
748.31	70.999
748.49	68.742
748.67	69.749
748.85	65.837
749.03	68.301
749.21	68.065
749.39	71.484
749.57	64.744
749.75	69.018
749.93	70.122
750.11	68.483
750.29	66.537
750.47	69.259
750.65	66.780
750.83	67.808
751.01	67.632
751.18	69.535
751.36	67.193
751.54	70.869
751.72	70.966
751.90	68.578
752.08	65.522
752.26	68.154
752.44	68.483
752.62	67.881
752.80	68.868
752.98	69.278
753.16	69.376
753.34	71.238
753.52	69.854
753.69	69.247
753.87	70.670
754.05	70.068
754.23	69.557
754.41	69.517
754.59	67.203
754.77	67.562
754.95	66.526
755.13	68.301
755.31	66.820
755.49	67.757
755.66	68.781
755.84	69.391
756.02	67.057
756.20	70.472
756.38	70.618
756.56	68.730
756.74	68.794
756.92	66.421
757.10	65.753
757.28	72.057
757.45	73.130
757.63	71.987
757.81	66.967
757.99	73.368
758.17	70.437
758.35	70.551
758.53	67.191
758.71	72.730
758.88	70.381
759.06	67.433
759.24	66.436
759.42	68.336
759.60	65.774
759.78	65.448
759.96	63.964
760.13	69.428
760.31	60.642
760.49	64.261
760.67	61.258
760.85	64.346
761.03	61.940
761.21	56.864
761.38	60.513
761.56	64.543
761.74	57.531
761.92	64.327
762.10	58.775
762.28	63.696
762.46	56.512
762.63	61.586
762.81	61.815
762.99	60.828
763.17	61.813
763.35	61.754
763.53	61.208
763.70	62.486
763.88	62.093
764.06	63.634
764.24	61.462
764.42	62.307
764.60	60.641
764.77	61.419
764.95	62.728
765.13	59.934
765.31	62.260
765.49	61.340
765.66	61.864
765.84	65.971
766.02	60.674
766.20	63.952
766.38	64.431
766.56	60.325
766.73	63.990
766.91	64.883
767.09	63.778
767.27	66.194
767.45	65.585
767.62	65.879
767.80	64.915
767.98	65.857
768.16	64.622
768.33	68.078
768.51	66.992
768.69	68.306
768.87	62.128
769.05	68.610
769.22	68.153
769.40	75.225
769.58	69.336
769.76	69.639
769.94	67.478
770.11	65.224
770.29	68.571
770.47	67.764
770.65	66.122
770.82	69.600
771.00	71.050
771.18	69.774
771.36	68.733
771.53	67.464
771.71	69.873
771.89	73.186
772.07	68.705
772.25	71.009
772.42	68.295
772.60	72.068
772.78	69.898
772.96	68.844
773.13	74.935
773.31	74.570
773.49	70.464
773.67	72.581
773.84	69.186
774.02	71.938
774.20	65.607
774.37	71.909
774.55	69.573
774.73	69.590
774.91	65.137
775.08	71.371
775.26	67.703
775.44	72.753
775.62	68.873
775.79	67.529
775.97	69.171
776.15	72.627
776.32	63.857
776.50	75.535
776.68	76.215
776.86	75.036
777.03	67.086
777.21	73.105
777.39	65.851
777.56	73.346
777.74	67.578
777.92	63.632
778.10	65.460
778.27	72.889
778.45	71.537
778.63	73.147
778.80	69.844
778.98	69.747
779.16	73.017
779.34	71.219
779.51	71.883
779.69	69.309
779.87	70.084
780.04	69.112
780.22	65.317
780.40	70.893
780.57	69.673
780.75	68.080
780.93	72.613
781.10	67.320
781.28	74.448
781.46	65.791
781.63	70.341
781.81	72.929
781.99	59.690
782.16	72.075
782.34	67.289
782.52	69.482
782.69	70.473
782.87	70.887
783.05	64.047
783.22	73.962
783.40	69.350
783.58	74.301
783.75	62.526
783.93	68.784
784.11	66.263
784.28	76.056
784.46	66.570
784.64	71.635
784.81	65.914
784.99	70.719
785.17	64.913
785.34	69.892
785.52	63.114
785.69	71.732
785.87	64.875
786.05	70.392
786.22	67.686
786.40	72.319
786.58	65.385
786.75	70.077
786.93	66.271
787.11	65.466
787.28	72.418
787.46	70.077
787.63	66.851
787.81	67.389
787.99	68.102
788.16	64.166
788.34	68.967
788.51	75.566
788.69	63.171
788.87	68.333
789.04	64.328
789.22	65.082
789.39	63.827
789.57	67.698
789.75	65.695
789.92	71.998
790.10	59.354
790.27	70.113
790.45	64.364
790.63	66.950
790.80	63.279
790.98	65.780
791.15	66.475
791.33	67.920
791.51	63.690
791.68	67.441
791.86	64.426
792.03	65.935
792.21	64.413
792.39	66.467
792.56	62.308
792.74	66.230
792.91	69.737
793.09	64.666
793.26	61.366
793.44	67.656
793.62	70.828
793.79	65.544
793.97	61.121
794.14	68.143
794.32	66.729
794.49	68.468
794.67	65.567
794.84	66.966
795.02	64.294
795.20	62.747
795.37	60.820
795.55	70.436
795.72	68.122
795.90	67.629
796.07	65.650
796.25	67.094
796.42	61.990
796.60	63.046
796.77	63.816
796.95	70.982
797.13	63.693
797.30	70.345
797.48	59.804
797.65	67.447
797.83	60.628
798.00	64.831
798.18	58.683
798.35	68.050
798.53	65.550
798.70	65.089
798.88	60.011
799.05	67.549
799.23	67.153
799.40	66.924
799.58	64.499
799.75	63.563
799.93	57.363
800.10	68.097
800.28	65.939
800.45	73.445
800.63	58.845
800.80	68.683
800.98	66.866
801.15	68.372
801.33	59.940
801.50	69.520
801.68	59.963
801.85	62.065
802.03	55.590
802.20	64.551
802.38	66.773
802.55	61.047
802.73	66.446
802.90	59.800
803.08	56.354
803.25	70.704
803.43	69.813
803.60	68.167
803.78	66.406
803.95	64.916
804.13	66.242
804.30	68.182
804.48	61.505
804.65	63.903
804.83	66.366
805.00	63.138
805.17	70.730
805.35	69.282
805.52	60.110
805.70	64.236
805.87	64.015
806.05	68.313
806.22	58.350
806.40	61.108
806.57	65.091
806.75	73.786
806.92	68.742
807.09	66.900
807.27	63.899
807.44	66.586
807.62	59.355
807.79	65.705
807.97	60.334
808.14	62.260
808.31	59.058
808.49	61.813
808.66	60.956
808.84	60.159
809.01	71.021
809.19	67.103
809.36	69.090
809.53	62.021
809.71	63.017
809.88	71.690
810.06	68.003
810.23	65.923
810.41	66.159
810.58	71.337
810.75	59.382
810.93	65.094
811.10	57.743
811.28	65.674
811.45	63.585
811.62	62.713
811.80	54.704
811.97	63.477
812.15	71.027
812.32	61.086
812.49	60.106
812.67	62.586
812.84	57.926
813.02	68.079
813.19	55.522
813.36	66.769
813.54	60.227
813.71	66.159
813.89	61.905
814.06	62.319
814.23	63.963
814.41	59.549
814.58	65.807
814.75	60.993
814.93	65.700
815.10	62.057
815.28	48.768
815.45	48.581
815.62	62.976
815.80	55.365
815.97	56.341
816.14	62.924
816.32	60.389
816.49	58.983
816.66	55.670
816.84	60.327
817.01	62.586
817.18	61.636
817.36	61.066
817.53	57.837
817.71	54.054
817.88	56.392
818.05	55.344
818.23	63.926
818.40	57.188
818.57	59.713
818.75	56.736
818.92	50.284
819.09	51.826
819.27	59.560
819.44	61.450
819.61	57.417
819.79	55.280
819.96	65.226
820.13	61.438
820.31	60.628
820.48	62.402
820.65	56.347
820.82	59.789
821.00	60.701
821.17	52.039
821.34	60.319
821.52	61.613
821.69	59.140
821.86	56.750
822.04	59.945
822.21	57.908
822.38	60.441
822.56	60.482
822.73	59.229
822.90	58.650
823.07	58.346
823.25	59.402
823.42	59.771
823.59	58.641
823.77	58.782
823.94	57.411
824.11	59.310
824.29	57.218
824.46	57.267
824.63	59.961
824.80	58.152
824.98	57.878
825.15	58.009
825.32	56.253
825.49	60.766
825.67	56.663
825.84	60.488
826.01	57.715
826.19	62.117
826.36	56.860
826.53	60.537
826.70	56.506
826.88	61.344
827.05	55.956
827.22	56.391
827.39	56.931
827.57	59.226
827.74	53.112
827.91	59.509
828.08	57.779
828.26	59.520
828.43	56.714
828.60	60.487
828.77	57.033
828.95	55.578
829.12	55.333
829.29	53.043
829.46	56.242
829.64	57.124
829.81	49.651
829.98	56.520
830.15	52.615
830.32	59.120
830.50	53.679
830.67	55.927
830.84	51.986
831.01	49.868
831.19	51.746
831.36	61.334
831.53	51.998
831.70	59.827
831.87	51.506
832.05	56.780
832.22	57.034
832.39	46.936
832.56	56.438
832.74	56.813
832.91	44.561
833.08	61.464
833.25	44.274
833.42	51.552
833.60	51.895
833.77	51.221
833.94	47.966
834.11	50.569
834.28	48.659
834.45	59.522
834.63	50.860
834.80	57.328
834.97	51.604
835.14	58.980
835.31	56.460
835.49	55.216
835.66	53.758
835.83	55.887
836.00	51.906
836.17	51.998
836.34	50.087
836.52	53.716
836.69	59.961
836.86	56.531
837.03	59.379
837.20	49.163
837.37	51.241
837.55	50.337
837.72	48.516
837.89	55.687
838.06	58.905
838.23	59.950
838.40	56.797
838.58	51.130
838.75	61.972
838.92	56.250
839.09	66.807
839.26	57.285
839.43	64.612
839.60	64.506
839.78	71.975
839.95	67.497
840.12	57.198
840.29	67.955
840.46	69.257
840.63	69.408
840.80	59.480
840.98	66.041
841.15	60.973
841.32	56.867
841.49	51.405
841.66	68.879
841.83	52.589
842.00	51.668
842.17	70.424
842.34	54.004
842.52	64.278
842.69	70.321
842.86	66.238
843.03	78.368
843.20	67.170
843.37	67.689
843.54	66.711
843.71	71.504
843.88	67.316
844.06	79.583
844.23	65.241
844.40	70.482
844.57	84.783
844.74	71.525
844.91	81.902
845.08	61.492
845.25	83.529
845.42	72.232
845.59	90.154
845.76	83.057
845.94	79.965
846.11	82.718
846.28	92.203
846.45	92.925
846.62	87.800
846.79	87.987
846.96	79.383
847.13	96.584
847.30	82.384
847.47	76.578
847.64	83.497
847.81	76.375
847.98	98.340
848.15	75.368
848.32	97.719
848.50	93.083
848.67	60.329
848.84	95.951
849.01	73.984
849.18	73.211
849.35	93.478
849.52	90.297
849.69	78.654
849.86	113.575
850.03	103.747
850.20	81.051
850.37	72.811
850.54	100.000
850.71	88.027
850.88	90.249
851.05	70.833
851.22	95.340
851.39	80.645
851.56	93.275
851.73	98.588
851.90	93.578
852.07	94.005
852.24	73.973
852.41	72.805
852.58	89.048
852.75	79.070
852.92	88.934
853.09	118.258
853.26	103.789
853.43	105.111
853.60	84.407
853.77	93.007
853.94	94.045
854.11	109.745
854.28	109.756
854.45	79.556
854.62	102.857
854.79	89.823
854.96	118.112
855.13	100.000
855.30	115.750
855.47	117.092
855.64	74.165
855.81	91.627
855.98	98.645
856.15	96.545
856.32	61.587
856.49	79.669
856.66	88.498
856.83	90.086
857.00	82.218
857.17	93.555
857.34	91.228
857.51	87.033
857.68	101.909
857.85	133.559
858.02	103.912
858.19	82.258
858.36	97.778
858.53	99.143
858.70	87.500
858.87	89.722
859.04	83.937
859.21	85.345
859.38	93.750
859.55	109.976
859.72	99.422
859.89	131.778
860.05	89.216
860.22	116.579
860.39	98.866
860.56	81.566
860.73	109.308
860.90	90.639
861.07	111.872
861.24	83.982
861.41	91.270
861.58	102.588
861.75	88.305
861.92	82.495
862.09	104.051
862.26	92.671
862.43	111.570
862.59	90.972
862.76	89.809
862.93	98.378
863.10	83.532
863.27	107.375
863.44	105.147
863.61	94.545
863.78	124.478
863.95	98.812
864.12	130.530
864.29	124.924
864.45	89.421
864.62	92.408
864.79	105.941
864.96	88.586
865.13	96.896
865.30	105.000
865.47	120.891
865.64	102.830
865.81	118.733
865.97	82.974
866.14	104.232
866.31	71.596
866.48	97.835
866.65	88.802
866.82	98.082
866.99	107.652
867.16	103.141
867.33	95.294
867.49	80.440
867.66	88.675
867.83	102.423
868.00	101.188
868.17	107.759
868.34	102.679
868.51	86.473
868.67	86.493
868.84	89.655
869.01	96.083
869.18	91.463
869.35	87.859
869.52	99.500
869.69	127.134
869.85	104.198
870.02	74.515
870.19	109.091
870.36	103.175
870.53	73.893
870.70	107.447
870.86	89.637
871.03	91.879
871.20	94.307
871.37	110.345
871.54	74.457
871.71	86.893
871.87	88.315
872.04	103.630
872.21	87.638
872.38	99.022
872.55	100.000
872.72	91.441
872.88	117.465
873.05	103.014
873.22	91.481
873.39	84.634
873.56	93.166
873.72	90.144
873.89	97.384
874.06	69.588
874.23	73.037
874.40	80.925
874.56	92.100
874.73	96.117
874.90	90.374
875.07	83.188
875.24	73.508
875.40	83.371
875.57	92.500
875.74	109.756
875.91	100.542
876.08	85.903
876.24	89.669
876.41	104.061
876.58	92.124
876.75	113.223
876.92	63.616
877.08	88.672
877.25	89.433
877.42	80.691
877.59	116.514
877.75	98.371
877.92	80.038
878.09	92.343
878.26	78.916
878.42	90.426
878.59	104.646
878.76	73.913
878.93	101.131
879.09	88.210
879.26	96.135
879.43	84.494
879.60	69.376
879.76	88.434
879.93	76.238
880.10	75.349
880.27	62.660
880.43	81.833
880.60	68.652
880.77	55.077
880.94	57.054
881.10	46.263
881.27	61.601
881.44	47.787
881.61	54.876
881.77	55.059
881.94	47.807
882.11	43.740
882.28	39.683
882.44	51.855
882.61	49.630
882.78	51.610
882.94	55.400
883.11	48.791
883.28	57.305
883.45	52.905
883.61	50.410
883.78	50.347
883.95	53.089
884.11	48.652
884.28	48.492
>>>>>End Processed Spectral Data<<<<<
