SpectraSuite Data File
++++++++++++++++++++++++++++++++++++
Date: Mon Sep 23 04:25:20 EST 2019
User: sgrac
Dark Spectrum Present: Yes
Reference Spectrum Present: Yes
Number of Sampled Component Spectra: 1
Spectrometers: USB4E01596
Integration Time (usec): 100000 (USB4E01596)
Spectra Averaged: 3 (USB4E01596)
Boxcar Smoothing: 0 (USB4E01596)
Correct for Electrical Dark: No (USB4E01596)
Strobe/Lamp Enabled: Yes (USB4E01596)
Correct for Detector Non-linearity: No (USB4E01596)
Correct for Stray Light: No (USB4E01596)
Number of Pixels in Processed Spectrum: 3648
>>>>>Begin Processed Spectral Data<<<<<
178.44	1546.154
178.66	1546.154
178.87	1546.154
179.09	7133.333
179.30	-5350.000
179.52	-700.000
179.74	-562.264
179.95	734.091
180.17	-575.000
180.38	454.386
180.60	-2763.636
180.82	962.222
181.03	5183.333
181.25	-2666.667
181.46	-1296.000
181.68	1312.500
181.89	-686.364
182.11	-2237.500
182.33	-2006.250
182.54	741.667
182.76	4533.333
182.97	-642.553
183.19	1580.000
183.40	339.669
183.62	476.923
183.84	322.727
184.05	5757.143
184.27	618.182
184.48	518.182
184.70	1994.118
184.91	1609.524
185.13	2980.000
185.34	-17250.000
185.56	1253.846
185.78	452.778
185.99	1169.444
186.21	426.136
186.42	-8150.000
186.64	2910.000
186.85	-5940.000
187.07	566.000
187.28	480.263
187.50	570.909
187.72	387.179
187.93	738.182
188.15	373.958
188.36	414.474
188.58	630.612
188.79	399.038
189.01	471.831
189.22	962.162
189.44	-903.030
189.65	329.661
189.87	-6875.000
190.09	584.127
190.30	907.143
190.52	610.000
190.73	934.783
190.95	-5666.667
191.16	417.857
191.38	540.541
191.59	422.059
191.81	617.742
192.02	2020.000
192.24	846.875
192.45	967.647
192.67	-1806.250
192.88	537.736
193.10	573.770
193.31	827.500
193.53	295.161
193.74	457.333
193.96	2221.429
194.18	1065.385
194.39	2453.333
194.61	486.301
194.82	1627.273
195.04	387.805
195.25	-378.947
195.47	-362.963
195.68	5550.000
195.90	521.818
196.11	450.746
196.33	30400.000
196.54	714.634
196.76	2000.000
196.97	516.883
197.19	845.946
197.40	2364.286
197.62	325.688
197.83	1145.161
198.05	683.636
198.26	1068.966
198.48	474.648
198.69	491.667
198.91	1700.000
199.12	727.907
199.34	739.130
199.55	471.429
199.77	1836.842
199.98	1000.000
200.20	477.632
200.41	525.806
200.63	321.239
200.84	2350.000
201.06	3277.778
201.27	863.415
201.49	539.437
201.70	-906.667
201.91	473.611
202.13	569.492
202.34	581.034
202.56	-968.000
202.77	680.000
202.99	5933.333
203.20	-3912.500
203.42	2031.250
203.63	455.263
203.85	4950.000
204.06	528.000
204.28	286.869
204.49	477.778
204.71	432.203
204.92	953.846
205.14	0.000
205.35	910.000
205.56	-1470.000
205.78	6560.000
205.99	-1807.143
206.21	14500.000
206.42	786.364
206.64	1151.613
206.85	966.667
207.07	-3288.889
207.28	541.379
207.50	793.478
207.71	958.065
207.93	315.663
208.14	-962.963
208.35	521.818
208.57	1160.000
208.78	-3211.111
209.00	397.872
209.21	-15400.000
209.43	-11866.667
209.64	-2000.000
209.86	291.753
210.07	441.860
210.28	507.042
210.50	996.552
210.71	562.745
210.93	236.029
211.14	442.697
211.36	1812.500
211.57	454.545
211.78	567.143
212.00	408.235
212.21	442.857
212.43	807.692
212.64	418.085
212.86	514.865
213.07	354.128
213.29	-869.444
213.50	358.696
213.71	355.172
213.93	412.195
214.14	2845.455
214.36	545.588
214.57	407.595
214.78	760.000
215.00	415.625
215.21	1023.333
215.43	845.946
215.64	474.603
215.86	385.000
216.07	1085.714
216.28	634.211
216.50	272.500
216.71	30600.000
216.93	500.000
217.14	1483.333
217.35	296.212
217.57	341.441
217.78	297.531
218.00	318.182
218.21	1200.000
218.42	604.255
218.64	473.214
218.85	604.000
219.07	1270.000
219.28	334.579
219.49	490.196
219.71	486.154
219.92	218.657
220.14	381.443
220.35	444.000
220.56	398.851
220.78	326.923
220.99	260.484
221.21	367.742
221.42	445.679
221.63	213.873
221.85	575.385
222.06	408.571
222.28	483.077
222.49	225.225
222.70	300.787
222.92	610.204
223.13	519.672
223.34	236.170
223.56	367.857
223.77	333.750
223.99	380.000
224.20	408.929
224.41	361.644
224.63	389.773
224.84	229.054
225.05	134.615
225.27	306.957
225.48	314.706
225.69	213.534
225.91	389.189
226.12	264.341
226.34	232.215
226.55	171.942
226.76	270.000
226.98	174.118
227.19	159.766
227.40	233.594
227.62	151.323
227.83	148.498
228.04	106.425
228.26	86.889
228.47	82.720
228.69	73.350
228.90	50.107
229.11	64.055
229.33	50.313
229.54	43.758
229.75	48.369
229.97	38.896
230.18	43.146
230.39	35.951
230.61	33.299
230.82	43.952
231.03	38.822
231.25	36.869
231.46	47.738
231.67	44.823
231.89	52.786
232.10	46.308
232.31	51.011
232.53	51.952
232.74	73.458
232.95	61.343
233.17	57.600
233.38	53.782
233.59	52.505
233.81	67.754
234.02	56.914
234.23	60.638
234.45	61.806
234.66	50.664
234.87	57.377
235.09	59.486
235.30	55.692
235.51	58.007
235.73	50.649
235.94	51.524
236.15	55.930
236.36	45.981
236.58	43.214
236.79	55.310
237.00	54.839
237.22	60.204
237.43	49.926
237.64	47.402
237.86	54.887
238.07	66.667
238.28	55.806
238.50	53.209
238.71	54.137
238.92	45.469
239.13	58.305
239.35	57.387
239.56	55.654
239.77	64.364
239.99	42.313
240.20	61.357
240.41	45.481
240.63	52.426
240.84	41.791
241.05	37.606
241.26	35.497
241.48	31.606
241.69	25.916
241.90	24.503
242.12	23.071
242.33	27.521
242.54	20.505
242.75	19.156
242.97	21.440
243.18	15.304
243.39	15.381
243.61	16.782
243.82	19.281
244.03	16.644
244.24	18.803
244.46	16.537
244.67	22.869
244.88	17.544
245.09	20.555
245.31	22.654
245.52	18.626
245.73	18.622
245.95	36.712
246.16	21.532
246.37	15.231
246.58	20.422
246.80	16.692
247.01	18.744
247.22	14.894
247.43	14.357
247.65	14.675
247.86	14.653
248.07	11.042
248.28	10.595
248.50	12.650
248.71	9.835
248.92	10.478
249.13	9.419
249.35	10.912
249.56	11.968
249.77	12.417
249.98	13.692
250.20	16.434
250.41	15.444
250.62	16.471
250.83	20.413
251.05	19.707
251.26	19.247
251.47	19.882
251.68	20.271
251.90	20.644
252.11	18.796
252.32	20.972
252.53	17.471
252.75	17.608
252.96	20.784
253.17	17.661
253.38	18.153
253.59	17.103
253.81	15.647
254.02	15.055
254.23	15.466
254.44	13.313
254.66	14.536
254.87	17.735
255.08	24.271
255.29	20.415
255.50	20.806
255.72	23.000
255.93	23.916
256.14	32.126
256.35	24.191
256.57	32.213
256.78	21.882
256.99	24.024
257.20	30.355
257.41	23.979
257.63	28.150
257.84	20.642
258.05	19.588
258.26	19.166
258.47	20.935
258.69	20.167
258.90	15.003
259.11	13.914
259.32	17.272
259.53	10.182
259.75	10.574
259.96	10.106
260.17	11.208
260.38	6.250
260.59	9.470
260.81	8.640
261.02	8.267
261.23	8.711
261.44	8.831
261.65	8.125
261.87	7.058
262.08	9.051
262.29	10.237
262.50	9.259
262.71	10.467
262.92	13.443
263.14	11.560
263.35	11.755
263.56	13.282
263.77	12.881
263.98	15.503
264.20	14.577
264.41	13.240
264.62	11.296
264.83	13.161
265.04	19.567
265.25	18.437
265.47	13.476
265.68	19.260
265.89	17.147
266.10	11.695
266.31	18.164
266.52	13.624
266.74	14.158
266.95	13.089
267.16	14.821
267.37	12.160
267.58	11.691
267.79	16.048
268.01	10.837
268.22	12.194
268.43	12.095
268.64	12.525
268.85	12.621
269.06	12.480
269.27	14.403
269.49	7.614
269.70	12.434
269.91	11.376
270.12	11.811
270.33	14.242
270.54	8.779
270.75	11.393
270.97	13.405
271.18	9.304
271.39	11.951
271.60	11.681
271.81	10.852
272.02	8.765
272.23	11.477
272.45	11.671
272.66	8.715
272.87	8.682
273.08	7.729
273.29	10.584
273.50	9.154
273.71	9.192
273.92	8.747
274.14	8.148
274.35	10.088
274.56	9.214
274.77	9.018
274.98	10.677
275.19	12.453
275.40	10.771
275.61	9.245
275.83	13.353
276.04	12.665
276.25	13.366
276.46	10.515
276.67	12.381
276.88	12.426
277.09	11.852
277.30	12.058
277.51	12.928
277.73	10.571
277.94	10.746
278.15	13.438
278.36	13.016
278.57	10.607
278.78	9.519
278.99	10.912
279.20	12.974
279.41	15.087
279.62	10.076
279.84	10.364
280.05	12.250
280.26	11.683
280.47	11.273
280.68	9.163
280.89	11.777
281.10	10.685
281.31	13.455
281.52	12.862
281.73	11.315
281.94	9.162
282.16	10.382
282.37	10.510
282.58	10.348
282.79	12.730
283.00	13.305
283.21	9.186
283.42	9.680
283.63	11.765
283.84	8.703
284.05	9.877
284.26	9.914
284.47	8.810
284.68	9.213
284.89	10.259
285.11	9.228
285.32	7.945
285.53	9.645
285.74	12.265
285.95	7.727
286.16	9.319
286.37	10.362
286.58	9.202
286.79	7.784
287.00	9.234
287.21	6.361
287.42	8.356
287.63	8.648
287.84	8.665
288.05	10.276
288.26	8.056
288.48	10.410
288.69	7.742
288.90	9.707
289.11	11.152
289.32	10.746
289.53	11.403
289.74	8.161
289.95	9.652
290.16	10.090
290.37	8.266
290.58	7.763
290.79	7.407
291.00	6.538
291.21	9.112
291.42	8.056
291.63	11.412
291.84	10.846
292.05	7.404
292.26	8.691
292.47	10.388
292.68	7.908
292.89	10.975
293.10	11.947
293.31	9.987
293.52	8.250
293.73	10.678
293.94	10.449
294.15	8.702
294.36	11.379
294.57	10.273
294.79	8.990
295.00	7.610
295.21	12.368
295.42	10.432
295.63	10.348
295.84	8.828
296.05	7.764
296.26	6.129
296.47	8.852
296.68	8.123
296.89	12.823
297.10	10.796
297.31	9.181
297.52	8.579
297.73	10.878
297.94	9.626
298.15	8.789
298.36	10.355
298.57	8.260
298.78	10.774
298.99	9.111
299.20	9.841
299.41	10.942
299.62	9.235
299.83	7.943
300.04	10.851
300.25	11.062
300.46	12.345
300.67	13.218
300.88	11.953
301.09	9.443
301.30	9.115
301.50	9.047
301.71	12.971
301.92	13.096
302.13	11.241
302.34	10.160
302.55	9.875
302.76	9.516
302.97	9.839
303.18	11.896
303.39	8.931
303.60	9.949
303.81	10.171
304.02	7.841
304.23	10.958
304.44	8.539
304.65	8.390
304.86	11.890
305.07	8.661
305.28	8.786
305.49	11.855
305.70	11.626
305.91	8.852
306.12	9.782
306.33	10.023
306.54	9.073
306.75	10.734
306.96	13.094
307.17	9.907
307.38	10.089
307.58	9.851
307.79	10.875
308.00	8.768
308.21	9.668
308.42	9.655
308.63	10.431
308.84	9.067
309.05	10.378
309.26	7.067
309.47	10.699
309.68	9.420
309.89	9.823
310.10	8.832
310.31	8.735
310.52	7.509
310.73	11.491
310.94	5.424
311.14	8.478
311.35	8.043
311.56	8.741
311.77	7.163
311.98	7.234
312.19	8.499
312.40	6.255
312.61	6.613
312.82	9.082
313.03	7.211
313.24	8.119
313.45	8.539
313.66	6.789
313.86	10.080
314.07	7.265
314.28	9.658
314.49	7.028
314.70	9.296
314.91	9.213
315.12	7.075
315.33	9.558
315.54	8.080
315.75	8.409
315.96	6.231
316.16	8.271
316.37	8.587
316.58	7.799
316.79	7.380
317.00	8.006
317.21	7.996
317.42	9.886
317.63	8.179
317.84	9.075
318.05	8.046
318.25	9.693
318.46	7.430
318.67	8.847
318.88	8.796
319.09	10.615
319.30	8.085
319.51	8.701
319.72	9.489
319.93	8.464
320.13	9.040
320.34	10.997
320.55	9.396
320.76	8.971
320.97	8.081
321.18	9.498
321.39	6.968
321.60	9.271
321.80	11.881
322.01	8.028
322.22	7.509
322.43	7.935
322.64	8.209
322.85	8.879
323.06	8.305
323.27	8.073
323.47	8.625
323.68	9.596
323.89	7.788
324.10	8.085
324.31	8.108
324.52	9.383
324.73	9.496
324.93	8.555
325.14	7.303
325.35	8.626
325.56	6.710
325.77	8.903
325.98	7.840
326.19	8.261
326.39	6.076
326.60	7.091
326.81	6.903
327.02	6.101
327.23	7.567
327.44	9.637
327.64	6.310
327.85	5.442
328.06	6.752
328.27	10.482
328.48	7.841
328.69	5.855
328.90	7.523
329.10	7.892
329.31	6.918
329.52	8.318
329.73	9.356
329.94	8.607
330.15	8.097
330.35	10.188
330.56	8.650
330.77	7.967
330.98	5.683
331.19	7.506
331.39	9.347
331.60	9.568
331.81	6.695
332.02	5.724
332.23	7.362
332.44	7.539
332.64	7.955
332.85	7.718
333.06	8.261
333.27	7.790
333.48	8.078
333.68	7.477
333.89	6.908
334.10	8.254
334.31	8.625
334.52	7.632
334.72	6.037
334.93	7.263
335.14	5.797
335.35	7.386
335.56	7.520
335.76	7.781
335.97	6.492
336.18	6.454
336.39	8.287
336.60	6.505
336.80	7.390
337.01	6.583
337.22	6.429
337.43	7.393
337.64	8.127
337.84	7.896
338.05	7.570
338.26	9.361
338.47	8.050
338.68	5.889
338.88	7.097
339.09	6.734
339.30	7.734
339.51	7.021
339.71	7.811
339.92	6.211
340.13	7.682
340.34	8.032
340.55	7.793
340.75	7.476
340.96	6.707
341.17	7.588
341.38	8.682
341.58	7.568
341.79	6.719
342.00	6.667
342.21	6.587
342.41	6.555
342.62	6.820
342.83	7.995
343.04	5.675
343.24	7.290
343.45	7.117
343.66	6.321
343.87	6.950
344.07	6.348
344.28	6.475
344.49	7.534
344.70	8.759
344.90	6.563
345.11	5.662
345.32	6.655
345.53	6.957
345.73	6.646
345.94	9.069
346.15	8.086
346.36	7.171
346.56	6.985
346.77	8.373
346.98	7.094
347.19	8.467
347.39	7.409
347.60	8.391
347.81	8.799
348.02	7.931
348.22	6.958
348.43	9.178
348.64	6.856
348.84	9.231
349.05	9.445
349.26	9.798
349.47	6.948
349.67	8.012
349.88	9.870
350.09	9.961
350.30	11.293
350.50	10.512
350.71	10.054
350.92	9.004
351.12	9.977
351.33	9.410
351.54	10.644
351.74	11.696
351.95	9.387
352.16	11.597
352.37	11.397
352.57	10.896
352.78	11.896
352.99	12.410
353.19	10.352
353.40	12.940
353.61	14.405
353.82	13.800
354.02	14.636
354.23	13.526
354.44	16.138
354.64	13.687
354.85	14.134
355.06	13.727
355.26	13.410
355.47	14.029
355.68	15.155
355.88	16.163
356.09	16.898
356.30	15.522
356.51	17.120
356.71	16.295
356.92	15.061
357.13	18.233
357.33	18.594
357.54	18.841
357.75	13.887
357.95	20.103
358.16	16.514
358.37	19.461
358.57	17.692
358.78	20.876
358.99	18.164
359.19	19.905
359.40	20.655
359.61	19.441
359.81	20.670
360.02	22.696
360.23	17.617
360.43	19.503
360.64	19.697
360.85	20.947
361.05	18.608
361.26	21.618
361.47	19.880
361.67	22.155
361.88	19.643
362.09	21.166
362.29	20.223
362.50	20.626
362.70	20.100
362.91	22.692
363.12	20.693
363.32	22.061
363.53	22.295
363.74	22.438
363.94	20.059
364.15	23.624
364.36	23.186
364.56	21.460
364.77	22.235
364.98	23.270
365.18	21.887
365.39	24.007
365.59	21.226
365.80	23.075
366.01	23.407
366.21	21.548
366.42	20.635
366.63	23.105
366.83	22.047
367.04	19.791
367.24	24.023
367.45	21.680
367.66	20.523
367.86	22.436
368.07	22.075
368.28	21.361
368.48	22.090
368.69	20.312
368.89	20.792
369.10	22.344
369.31	20.876
369.51	22.331
369.72	22.975
369.92	22.768
370.13	19.132
370.34	21.282
370.54	17.428
370.75	21.005
370.95	19.161
371.16	21.500
371.37	20.576
371.57	20.557
371.78	20.178
371.98	22.271
372.19	20.768
372.40	22.468
372.60	22.203
372.81	22.229
373.01	19.656
373.22	20.607
373.43	21.310
373.63	21.763
373.84	21.818
374.04	20.471
374.25	19.699
374.46	22.372
374.66	20.847
374.87	21.110
375.07	17.961
375.28	19.875
375.48	19.657
375.69	21.797
375.90	17.680
376.10	18.763
376.31	19.917
376.51	19.637
376.72	19.183
376.92	19.194
377.13	18.376
377.34	20.269
377.54	18.940
377.75	21.362
377.95	18.420
378.16	20.601
378.36	19.572
378.57	20.556
378.77	19.508
378.98	18.495
379.19	18.365
379.39	18.774
379.60	19.407
379.80	18.725
380.01	19.666
380.21	19.267
380.42	20.250
380.62	19.765
380.83	18.920
381.04	18.688
381.24	19.785
381.45	19.454
381.65	17.340
381.86	19.099
382.06	19.221
382.27	17.936
382.47	17.576
382.68	19.601
382.88	17.029
383.09	18.236
383.29	18.423
383.50	19.652
383.71	17.661
383.91	17.939
384.12	18.127
384.32	18.098
384.53	17.265
384.73	16.764
384.94	17.255
385.14	17.320
385.35	16.729
385.55	18.213
385.76	16.601
385.96	17.299
386.17	17.533
386.37	18.372
386.58	17.389
386.78	18.648
386.99	16.379
387.19	18.223
387.40	16.853
387.60	19.455
387.81	16.021
388.01	17.665
388.22	17.807
388.42	18.572
388.63	18.882
388.83	19.293
389.04	16.133
389.24	17.651
389.45	17.037
389.65	16.866
389.86	16.232
390.06	16.451
390.27	16.329
390.47	16.558
390.68	17.084
390.88	17.881
391.09	17.191
391.29	17.850
391.50	16.888
391.70	16.951
391.91	16.250
392.11	16.839
392.32	16.032
392.52	17.949
392.73	16.077
392.93	17.302
393.14	17.102
393.34	16.976
393.55	17.264
393.75	17.132
393.95	16.544
394.16	17.831
394.36	17.363
394.57	17.856
394.77	16.096
394.98	16.540
395.18	16.290
395.39	16.288
395.59	15.794
395.80	16.740
396.00	16.799
396.21	18.150
396.41	15.801
396.61	17.464
396.82	16.771
397.02	18.086
397.23	16.724
397.43	16.827
397.64	15.362
397.84	17.269
398.05	14.751
398.25	17.358
398.45	15.882
398.66	16.787
398.86	15.210
399.07	16.531
399.27	15.077
399.48	16.861
399.68	15.435
399.89	15.505
400.09	15.500
400.29	14.633
400.50	15.946
400.70	16.461
400.91	14.687
401.11	15.881
401.32	15.610
401.52	14.976
401.72	15.319
401.93	16.787
402.13	15.470
402.34	15.160
402.54	14.353
402.75	16.975
402.95	14.215
403.15	16.953
403.36	14.495
403.56	16.004
403.77	14.597
403.97	14.355
404.17	13.985
404.38	15.725
404.58	13.722
404.79	15.312
404.99	15.180
405.19	15.399
405.40	14.664
405.60	15.322
405.81	14.177
406.01	14.619
406.21	14.386
406.42	15.052
406.62	14.647
406.83	14.805
407.03	15.498
407.23	14.543
407.44	13.350
407.64	15.283
407.85	14.860
408.05	14.053
408.25	14.039
408.46	15.860
408.66	14.502
408.87	14.583
409.07	13.974
409.27	13.453
409.48	14.205
409.68	15.018
409.88	11.360
410.09	13.852
410.29	14.630
410.50	14.931
410.70	12.948
410.90	13.462
411.11	12.969
411.31	13.549
411.51	14.157
411.72	14.269
411.92	12.999
412.12	13.770
412.33	12.918
412.53	13.102
412.74	12.151
412.94	13.454
413.14	13.610
413.35	14.007
413.55	13.458
413.75	14.804
413.96	12.437
414.16	12.769
414.36	12.851
414.57	13.957
414.77	12.962
414.97	13.793
415.18	13.426
415.38	13.516
415.58	12.683
415.79	12.783
415.99	12.355
416.19	13.959
416.40	13.324
416.60	13.151
416.80	12.801
417.01	13.491
417.21	11.643
417.41	13.692
417.62	12.562
417.82	13.725
418.02	12.207
418.23	13.086
418.43	12.532
418.63	13.036
418.84	13.353
419.04	13.059
419.24	13.404
419.45	13.224
419.65	13.205
419.85	13.581
420.06	13.724
420.26	13.058
420.46	13.321
420.67	13.302
420.87	13.169
421.07	13.233
421.28	13.165
421.48	13.042
421.68	12.855
421.88	13.475
422.09	13.242
422.29	13.015
422.49	12.804
422.70	13.005
422.90	13.182
423.10	13.275
423.31	13.544
423.51	13.104
423.71	13.167
423.91	13.927
424.12	13.266
424.32	13.447
424.52	13.130
424.73	12.840
424.93	13.116
425.13	13.031
425.33	12.495
425.54	12.813
425.74	12.971
425.94	13.686
426.15	13.486
426.35	13.114
426.55	13.261
426.75	13.481
426.96	13.375
427.16	12.863
427.36	13.175
427.57	13.553
427.77	13.342
427.97	13.082
428.17	13.226
428.38	13.775
428.58	12.428
428.78	13.449
428.98	12.344
429.19	12.782
429.39	11.686
429.59	12.663
429.79	11.274
430.00	11.703
430.20	11.449
430.40	12.546
430.60	11.959
430.81	12.110
431.01	11.536
431.21	13.115
431.41	11.767
431.62	12.283
431.82	11.259
432.02	12.516
432.22	11.724
432.43	12.421
432.63	12.014
432.83	12.281
433.03	11.653
433.24	11.582
433.44	11.529
433.64	12.093
433.84	11.709
434.05	12.430
434.25	12.125
434.45	12.637
434.65	12.636
434.85	12.446
435.06	12.092
435.26	12.175
435.46	12.217
435.66	12.971
435.87	12.074
436.07	12.543
436.27	12.177
436.47	11.885
436.67	11.902
436.88	12.320
437.08	12.047
437.28	12.482
437.48	11.764
437.69	12.686
437.89	11.556
438.09	12.439
438.29	11.876
438.49	12.222
438.70	11.812
438.90	11.876
439.10	11.735
439.30	12.244
439.50	11.105
439.71	12.098
439.91	11.707
440.11	12.516
440.31	11.805
440.51	11.650
440.72	11.822
440.92	11.780
441.12	12.357
441.32	12.535
441.52	12.185
441.72	12.400
441.93	12.204
442.13	12.400
442.33	12.159
442.53	12.704
442.73	11.883
442.94	12.004
443.14	12.258
443.34	13.050
443.54	12.250
443.74	12.754
443.94	11.786
444.15	11.707
444.35	12.196
444.55	12.577
444.75	11.673
444.95	12.407
445.15	11.718
445.36	11.916
445.56	11.444
445.76	11.965
445.96	11.591
446.16	12.006
446.36	11.787
446.57	12.301
446.77	11.789
446.97	11.900
447.17	12.365
447.37	12.061
447.57	11.985
447.77	12.392
447.98	12.378
448.18	12.383
448.38	12.061
448.58	12.521
448.78	12.661
448.98	12.495
449.18	12.238
449.39	12.688
449.59	11.923
449.79	12.469
449.99	12.321
450.19	12.455
450.39	12.095
450.59	12.541
450.79	12.032
451.00	12.473
451.20	13.809
451.40	12.638
451.60	12.156
451.80	12.811
452.00	12.097
452.20	12.608
452.40	11.871
452.61	12.295
452.81	12.077
453.01	12.508
453.21	11.643
453.41	11.963
453.61	12.080
453.81	12.201
454.01	11.840
454.21	12.165
454.42	12.351
454.62	12.671
454.82	11.992
455.02	12.528
455.22	11.894
455.42	11.979
455.62	11.605
455.82	12.400
456.02	11.668
456.23	12.496
456.43	11.201
456.63	12.130
456.83	11.675
457.03	12.419
457.23	11.609
457.43	12.172
457.63	11.708
457.83	12.172
458.03	11.382
458.23	12.074
458.43	11.432
458.64	11.954
458.84	11.875
459.04	11.663
459.24	11.730
459.44	11.639
459.64	11.440
459.84	11.295
460.04	11.777
460.24	11.841
460.44	11.954
460.64	11.879
460.84	12.042
461.04	11.998
461.24	12.159
461.45	12.138
461.65	12.081
461.85	12.278
462.05	12.305
462.25	12.336
462.45	12.333
462.65	12.588
462.85	11.701
463.05	12.204
463.25	11.184
463.45	12.327
463.65	11.691
463.85	12.187
464.05	11.886
464.25	11.905
464.45	11.401
464.65	11.598
464.85	11.331
465.05	11.900
465.26	11.964
465.46	11.939
465.66	11.972
465.86	12.048
466.06	11.764
466.26	12.315
466.46	11.123
466.66	11.765
466.86	11.979
467.06	11.882
467.26	12.051
467.46	12.132
467.66	12.247
467.86	11.617
468.06	11.998
468.26	11.880
468.46	11.815
468.66	11.938
468.86	11.555
469.06	12.223
469.26	11.712
469.46	12.343
469.66	11.325
469.86	12.049
470.06	11.506
470.26	12.349
470.46	11.558
470.66	12.758
470.86	11.544
471.06	11.757
471.26	11.918
471.46	11.869
471.66	11.976
471.86	12.230
472.06	11.639
472.26	12.650
472.46	12.247
472.66	12.522
472.86	11.769
473.06	12.305
473.26	12.291
473.46	12.543
473.66	11.869
473.86	12.554
474.06	12.118
474.26	12.316
474.46	11.621
474.66	12.668
474.86	12.067
475.06	12.933
475.26	11.855
475.46	12.671
475.66	12.001
475.86	12.382
476.06	12.269
476.26	12.625
476.46	11.996
476.66	12.432
476.86	11.896
477.06	12.370
477.26	12.373
477.46	12.404
477.65	11.964
477.85	12.894
478.05	12.148
478.25	13.583
478.45	12.328
478.65	12.863
478.85	12.451
479.05	12.794
479.25	12.562
479.45	12.977
479.65	13.080
479.85	12.496
480.05	12.770
480.25	12.858
480.45	13.269
480.65	13.240
480.85	12.953
481.05	13.463
481.25	13.297
481.44	13.340
481.64	12.760
481.84	12.902
482.04	13.053
482.24	13.412
482.44	12.992
482.64	13.070
482.84	12.948
483.04	13.031
483.24	12.578
483.44	12.447
483.64	12.277
483.84	12.525
484.04	12.651
484.23	12.745
484.43	12.992
484.63	13.335
484.83	13.541
485.03	14.308
485.23	14.185
485.43	14.025
485.63	14.107
485.83	14.042
486.03	14.004
486.23	14.239
486.42	14.111
486.62	13.804
486.82	13.769
487.02	13.484
487.22	13.498
487.42	13.367
487.62	13.194
487.82	13.201
488.02	13.077
488.22	13.439
488.41	13.626
488.61	13.528
488.81	13.450
489.01	13.757
489.21	14.015
489.41	13.979
489.61	13.927
489.81	14.028
490.01	14.087
490.20	14.053
490.40	13.945
490.60	14.255
490.80	13.784
491.00	13.956
491.20	13.723
491.40	13.285
491.60	13.251
491.79	13.307
491.99	13.249
492.19	13.525
492.39	13.586
492.59	13.598
492.79	13.733
492.99	13.871
493.19	14.130
493.38	14.282
493.58	14.164
493.78	14.312
493.98	14.414
494.18	14.360
494.38	14.318
494.58	14.635
494.77	14.298
494.97	14.202
495.17	14.244
495.37	14.429
495.57	14.160
495.77	14.261
495.96	14.082
496.16	14.353
496.36	13.759
496.56	13.923
496.76	13.726
496.96	13.890
497.15	13.945
497.35	13.782
497.55	13.865
497.75	14.360
497.95	13.951
498.15	14.300
498.34	13.919
498.54	13.976
498.74	14.577
498.94	14.237
499.14	14.330
499.34	14.723
499.53	14.489
499.73	14.363
499.93	14.211
500.13	14.538
500.33	14.236
500.52	14.130
500.72	14.654
500.92	14.630
501.12	14.272
501.32	14.214
501.52	15.002
501.71	14.766
501.91	14.352
502.11	14.695
502.31	14.172
502.51	14.810
502.70	14.248
502.90	14.458
503.10	14.483
503.30	15.204
503.50	14.562
503.69	14.386
503.89	14.477
504.09	14.778
504.29	14.775
504.48	15.028
504.68	14.743
504.88	14.791
505.08	14.559
505.28	14.538
505.47	14.869
505.67	14.694
505.87	14.919
506.07	14.909
506.27	14.773
506.46	14.929
506.66	14.413
506.86	15.136
507.06	14.985
507.25	15.310
507.45	15.217
507.65	15.495
507.85	14.616
508.04	15.446
508.24	15.281
508.44	15.193
508.64	14.932
508.83	15.163
509.03	15.182
509.23	14.885
509.43	14.862
509.63	15.106
509.82	14.982
510.02	15.232
510.22	15.000
510.42	15.414
510.61	15.586
510.81	15.334
511.01	15.405
511.21	15.670
511.40	15.755
511.60	15.431
511.80	15.434
511.99	15.536
512.19	15.477
512.39	15.530
512.59	15.555
512.78	15.880
512.98	15.638
513.18	15.714
513.38	15.627
513.57	15.739
513.77	15.703
513.97	15.636
514.17	15.693
514.36	15.827
514.56	15.739
514.76	15.839
514.95	15.608
515.15	15.658
515.35	15.622
515.55	15.746
515.74	15.819
515.94	16.063
516.14	15.424
516.33	16.031
516.53	15.837
516.73	15.910
516.93	16.157
517.12	16.152
517.32	15.619
517.52	15.724
517.71	15.761
517.91	15.745
518.11	15.444
518.30	15.542
518.50	15.723
518.70	15.894
518.90	15.705
519.09	15.652
519.29	16.106
519.49	15.761
519.68	15.796
519.88	16.183
520.08	15.965
520.27	15.964
520.47	16.592
520.67	16.363
520.86	16.134
521.06	16.436
521.26	16.648
521.45	16.448
521.65	16.418
521.85	16.261
522.04	16.263
522.24	16.140
522.44	16.039
522.63	16.261
522.83	16.093
523.03	16.649
523.22	16.341
523.42	17.041
523.62	16.544
523.81	16.686
524.01	16.801
524.21	16.279
524.40	16.254
524.60	16.529
524.80	15.888
524.99	16.126
525.19	16.197
525.39	16.141
525.58	16.320
525.78	16.075
525.98	16.347
526.17	15.979
526.37	16.019
526.57	16.010
526.76	16.356
526.96	16.514
527.15	16.303
527.35	16.392
527.55	16.572
527.74	16.465
527.94	16.305
528.14	15.869
528.33	15.851
528.53	15.808
528.72	15.942
528.92	16.262
529.12	16.360
529.31	16.426
529.51	16.695
529.71	16.554
529.90	16.901
530.10	16.881
530.29	17.145
530.49	17.279
530.69	17.614
530.88	17.566
531.08	17.459
531.28	17.395
531.47	17.197
531.67	17.059
531.86	17.162
532.06	17.287
532.26	16.703
532.45	17.078
532.65	16.871
532.84	16.655
533.04	16.840
533.24	16.574
533.43	16.666
533.63	16.559
533.82	17.034
534.02	16.994
534.22	17.161
534.41	17.204
534.61	16.972
534.80	17.262
535.00	17.465
535.19	17.692
535.39	17.847
535.59	17.558
535.78	17.652
535.98	17.706
536.17	17.216
536.37	17.324
536.57	17.241
536.76	17.392
536.96	17.296
537.15	17.622
537.35	17.367
537.54	17.545
537.74	17.907
537.93	17.678
538.13	17.954
538.33	17.667
538.52	18.153
538.72	18.138
538.91	18.224
539.11	18.101
539.30	18.144
539.50	18.222
539.70	18.385
539.89	18.184
540.09	18.028
540.28	17.962
540.48	17.645
540.67	17.615
540.87	17.942
541.06	17.560
541.26	17.458
541.45	17.659
541.65	17.813
541.85	17.870
542.04	17.673
542.24	17.987
542.43	18.267
542.63	18.452
542.82	18.639
543.02	18.681
543.21	18.920
543.41	18.941
543.60	19.196
543.80	19.072
543.99	19.119
544.19	18.926
544.38	18.954
544.58	18.869
544.77	19.204
544.97	19.238
545.16	19.414
545.36	19.279
545.56	19.226
545.75	19.003
545.95	19.288
546.14	19.287
546.34	19.344
546.53	18.912
546.73	19.065
546.92	19.228
547.12	19.566
547.31	19.428
547.51	19.457
547.70	19.564
547.90	19.406
548.09	19.854
548.29	19.965
548.48	20.086
548.68	20.324
548.87	19.995
549.07	20.548
549.26	20.324
549.46	20.574
549.65	21.253
549.84	20.240
550.04	20.840
550.23	20.354
550.43	20.629
550.62	21.050
550.82	21.103
551.01	21.741
551.21	20.881
551.40	20.256
551.60	20.713
551.79	21.159
551.99	21.033
552.18	21.055
552.38	21.262
552.57	21.504
552.77	20.888
552.96	21.164
553.16	21.651
553.35	21.297
553.54	21.342
553.74	21.456
553.93	21.981
554.13	22.053
554.32	22.048
554.52	22.482
554.71	22.628
554.91	22.402
555.10	22.523
555.29	22.192
555.49	22.839
555.68	23.208
555.88	22.616
556.07	22.950
556.27	22.565
556.46	22.805
556.66	22.837
556.85	23.109
557.04	23.410
557.24	23.686
557.43	23.927
557.63	23.573
557.82	23.656
558.02	23.593
558.21	24.182
558.40	23.684
558.60	24.440
558.79	23.679
558.99	24.786
559.18	23.970
559.38	24.230
559.57	24.454
559.76	24.432
559.96	25.686
560.15	24.721
560.35	24.797
560.54	25.329
560.73	24.845
560.93	24.905
561.12	25.056
561.32	24.927
561.51	25.402
561.70	25.523
561.90	25.604
562.09	25.434
562.29	25.369
562.48	25.626
562.67	25.791
562.87	26.001
563.06	25.892
563.26	25.620
563.45	26.258
563.64	26.442
563.84	26.099
564.03	25.670
564.23	26.580
564.42	26.451
564.61	26.686
564.81	26.491
565.00	26.611
565.20	26.730
565.39	27.097
565.58	26.976
565.78	26.981
565.97	27.335
566.16	27.378
566.36	27.212
566.55	27.475
566.74	27.408
566.94	27.655
567.13	27.937
567.33	27.762
567.52	28.068
567.71	28.413
567.91	28.098
568.10	28.716
568.29	28.758
568.49	28.750
568.68	28.876
568.87	27.942
569.07	29.170
569.26	28.948
569.45	28.975
569.65	29.229
569.84	28.676
570.04	29.042
570.23	28.617
570.42	28.942
570.62	29.166
570.81	29.477
571.00	29.549
571.20	29.637
571.39	28.984
571.58	29.681
571.78	29.424
571.97	29.301
572.16	29.244
572.36	29.426
572.55	30.046
572.74	30.260
572.94	29.717
573.13	30.266
573.32	30.274
573.51	30.401
573.71	30.161
573.90	30.260
574.09	30.324
574.29	30.712
574.48	30.341
574.67	29.899
574.87	30.844
575.06	30.381
575.25	30.282
575.45	30.846
575.64	30.785
575.83	30.847
576.03	31.524
576.22	30.892
576.41	30.531
576.60	30.521
576.80	30.762
576.99	30.575
577.18	30.623
577.38	31.559
577.57	31.177
577.76	31.189
577.95	31.078
578.15	31.277
578.34	30.890
578.53	31.546
578.73	31.226
578.92	31.244
579.11	31.624
579.30	31.150
579.50	31.543
579.69	31.885
579.88	31.498
580.08	31.163
580.27	31.293
580.46	31.792
580.65	31.666
580.85	31.933
581.04	32.057
581.23	31.255
581.42	31.068
581.62	31.572
581.81	31.125
582.00	31.217
582.19	31.087
582.39	31.930
582.58	32.088
582.77	31.646
582.96	31.255
583.16	30.692
583.35	31.362
583.54	31.602
583.73	32.080
583.93	31.469
584.12	31.150
584.31	31.270
584.50	31.068
584.70	31.993
584.89	31.318
585.08	31.295
585.27	32.273
585.47	31.555
585.66	31.651
585.85	31.922
586.04	31.008
586.24	31.958
586.43	31.247
586.62	31.280
586.81	30.789
587.00	31.248
587.20	31.236
587.39	31.242
587.58	31.376
587.77	31.249
587.97	31.089
588.16	31.318
588.35	32.131
588.54	30.791
588.73	31.075
588.93	30.923
589.12	30.525
589.31	31.229
589.50	30.607
589.69	30.811
589.89	30.671
590.08	30.398
590.27	30.771
590.46	31.128
590.65	31.311
590.85	30.836
591.04	30.617
591.23	31.695
591.42	31.075
591.61	31.382
591.81	31.047
592.00	30.951
592.19	31.624
592.38	31.297
592.57	31.873
592.77	31.136
592.96	31.443
593.15	31.988
593.34	31.149
593.53	32.021
593.72	31.621
593.92	30.956
594.11	31.501
594.30	31.251
594.49	31.580
594.68	30.613
594.87	31.069
595.07	31.340
595.26	31.945
595.45	31.769
595.64	31.483
595.83	32.071
596.02	31.439
596.22	32.115
596.41	30.954
596.60	31.460
596.79	31.689
596.98	31.239
597.17	30.979
597.37	31.467
597.56	31.496
597.75	31.109
597.94	31.804
598.13	32.086
598.32	31.659
598.51	32.031
598.71	32.498
598.90	32.235
599.09	33.212
599.28	32.574
599.47	32.588
599.66	32.497
599.85	32.527
600.05	32.287
600.24	33.101
600.43	32.610
600.62	33.298
600.81	33.141
601.00	33.337
601.19	33.219
601.38	33.738
601.58	33.708
601.77	32.846
601.96	33.701
602.15	33.384
602.34	33.441
602.53	34.339
602.72	34.045
602.91	33.583
603.10	33.183
603.30	32.848
603.49	32.613
603.68	33.126
603.87	33.439
604.06	33.766
604.25	33.148
604.44	33.228
604.63	34.105
604.82	33.185
605.01	33.195
605.21	33.286
605.40	33.067
605.59	33.431
605.78	32.872
605.97	33.388
606.16	33.893
606.35	33.567
606.54	34.437
606.73	33.653
606.92	34.353
607.11	33.950
607.30	34.320
607.50	33.508
607.69	33.697
607.88	33.409
608.07	32.880
608.26	33.047
608.45	33.537
608.64	33.580
608.83	33.318
609.02	32.615
609.21	32.471
609.40	32.082
609.59	33.546
609.78	32.624
609.97	32.701
610.16	32.814
610.35	33.210
610.55	32.273
610.74	32.809
610.93	33.077
611.12	33.177
611.31	33.313
611.50	33.053
611.69	32.924
611.88	33.621
612.07	32.978
612.26	32.452
612.45	32.912
612.64	32.544
612.83	32.720
613.02	32.576
613.21	32.538
613.40	32.544
613.59	32.324
613.78	31.896
613.97	32.183
614.16	31.992
614.35	32.479
614.54	31.424
614.73	31.691
614.92	32.056
615.11	31.628
615.30	31.735
615.49	31.612
615.68	31.636
615.87	32.045
616.07	31.152
616.26	31.550
616.45	32.028
616.64	32.253
616.83	31.822
617.02	30.840
617.21	30.787
617.40	31.197
617.59	31.161
617.78	31.419
617.97	31.169
618.16	30.648
618.35	30.704
618.54	30.843
618.73	30.835
618.92	31.558
619.11	30.594
619.30	30.534
619.49	30.920
619.68	30.612
619.86	31.344
620.05	30.475
620.24	29.976
620.43	30.506
620.62	29.469
620.81	30.593
621.00	30.198
621.19	31.172
621.38	29.913
621.57	30.194
621.76	29.648
621.95	30.126
622.14	30.697
622.33	30.430
622.52	29.878
622.71	30.638
622.90	29.630
623.09	30.010
623.28	30.239
623.47	29.993
623.66	30.268
623.85	30.398
624.04	29.391
624.23	28.947
624.42	29.484
624.61	29.189
624.80	29.653
624.99	29.509
625.18	29.404
625.36	29.427
625.55	30.203
625.74	29.771
625.93	28.982
626.12	29.627
626.31	28.943
626.50	29.212
626.69	28.830
626.88	29.458
627.07	29.036
627.26	28.679
627.45	28.645
627.64	28.708
627.83	28.630
628.02	29.101
628.20	28.534
628.39	28.776
628.58	28.840
628.77	28.785
628.96	28.501
629.15	28.903
629.34	28.300
629.53	29.043
629.72	29.033
629.91	29.218
630.10	28.392
630.29	27.643
630.47	28.865
630.66	28.209
630.85	27.976
631.04	29.267
631.23	28.679
631.42	28.015
631.61	28.437
631.80	29.048
631.99	27.187
632.18	28.739
632.36	27.306
632.55	28.444
632.74	28.911
632.93	28.276
633.12	27.321
633.31	28.771
633.50	27.924
633.69	27.948
633.88	27.609
634.06	27.756
634.25	29.242
634.44	27.800
634.63	27.974
634.82	28.328
635.01	28.118
635.20	27.610
635.39	27.592
635.57	28.426
635.76	27.463
635.95	27.617
636.14	27.308
636.33	28.429
636.52	27.687
636.71	28.113
636.89	27.705
637.08	28.112
637.27	27.437
637.46	27.333
637.65	27.519
637.84	28.366
638.03	28.095
638.21	28.106
638.40	27.659
638.59	28.336
638.78	27.238
638.97	28.617
639.16	28.341
639.34	28.051
639.53	27.427
639.72	27.979
639.91	27.121
640.10	27.315
640.29	28.327
640.47	28.669
640.66	28.375
640.85	28.582
641.04	27.098
641.23	28.605
641.42	27.776
641.60	28.137
641.79	28.006
641.98	28.187
642.17	26.306
642.36	28.475
642.54	26.510
642.73	28.457
642.92	28.137
643.11	28.506
643.30	27.105
643.49	27.260
643.67	26.427
643.86	28.245
644.05	27.128
644.24	27.054
644.43	28.086
644.61	27.894
644.80	28.130
644.99	28.373
645.18	27.744
645.37	28.549
645.55	26.845
645.74	27.528
645.93	27.442
646.12	27.252
646.31	27.129
646.49	28.153
646.68	27.928
646.87	27.893
647.06	27.414
647.24	27.655
647.43	27.233
647.62	28.069
647.81	26.742
648.00	28.293
648.18	26.717
648.37	27.066
648.56	26.831
648.75	27.730
648.93	27.414
649.12	27.456
649.31	27.395
649.50	27.240
649.68	27.259
649.87	27.561
650.06	27.140
650.25	27.824
650.43	26.565
650.62	26.714
650.81	26.860
651.00	27.387
651.18	26.541
651.37	28.141
651.56	27.110
651.75	28.146
651.93	26.781
652.12	27.292
652.31	26.655
652.50	27.905
652.68	27.150
652.87	27.604
653.06	26.324
653.25	27.406
653.43	26.702
653.62	26.643
653.81	26.501
654.00	27.409
654.18	26.374
654.37	26.799
654.56	26.791
654.74	24.732
654.93	26.748
655.12	26.398
655.31	26.372
655.49	26.231
655.68	24.448
655.87	25.195
656.05	25.322
656.24	26.578
656.43	24.827
656.62	26.592
656.80	24.009
656.99	24.616
657.18	25.013
657.36	24.580
657.55	25.686
657.74	24.754
657.93	24.529
658.11	25.413
658.30	24.990
658.49	23.926
658.67	23.688
658.86	23.630
659.05	22.391
659.23	23.511
659.42	22.775
659.61	22.113
659.79	22.713
659.98	22.023
660.17	22.543
660.35	22.579
660.54	22.070
660.73	23.029
660.91	21.601
661.10	22.592
661.29	20.655
661.47	21.309
661.66	20.704
661.85	22.379
662.03	22.023
662.22	20.170
662.41	19.615
662.59	21.508
662.78	20.206
662.97	20.949
663.15	19.227
663.34	19.720
663.53	19.404
663.71	20.177
663.90	19.049
664.09	21.093
664.27	19.602
664.46	20.253
664.65	18.819
664.83	18.679
665.02	17.119
665.21	17.354
665.39	16.871
665.58	18.991
665.77	17.817
665.95	17.926
666.14	16.869
666.32	17.785
666.51	16.285
666.70	17.156
666.88	16.749
667.07	17.278
667.26	15.705
667.44	17.178
667.63	16.821
667.81	15.798
668.00	16.904
668.19	17.838
668.37	15.690
668.56	17.798
668.75	14.981
668.93	17.828
669.12	16.133
669.30	16.577
669.49	15.003
669.68	17.439
669.86	16.928
670.05	15.950
670.23	16.719
670.42	15.563
670.61	15.560
670.79	16.348
670.98	16.887
671.16	17.753
671.35	15.145
671.54	17.134
671.72	15.287
671.91	17.077
672.09	15.796
672.28	17.792
672.46	17.358
672.65	17.733
672.84	16.754
673.02	18.774
673.21	15.729
673.39	17.100
673.58	17.854
673.77	17.680
673.95	17.575
674.14	19.459
674.32	17.079
674.51	20.143
674.69	16.773
674.88	17.640
675.07	17.614
675.25	20.611
675.44	18.919
675.62	19.721
675.81	16.998
675.99	21.457
676.18	20.549
676.36	19.306
676.55	17.023
676.74	21.364
676.92	20.422
677.11	20.010
677.29	17.758
677.48	21.937
677.66	19.822
677.85	19.884
678.03	18.983
678.22	21.781
678.40	19.501
678.59	21.052
678.78	18.355
678.96	20.689
679.15	20.848
679.33	22.538
679.52	20.573
679.70	20.600
679.89	20.367
680.07	22.469
680.26	21.091
680.44	22.046
680.63	20.000
680.81	21.219
681.00	20.469
681.18	21.222
681.37	20.485
681.55	23.210
681.74	21.593
681.92	22.315
682.11	21.925
682.29	22.550
682.48	22.976
682.66	23.652
682.85	22.140
683.03	23.762
683.22	22.919
683.40	25.071
683.59	23.594
683.77	24.698
683.96	24.239
684.14	25.710
684.33	23.819
684.51	27.286
684.70	25.673
684.88	26.423
685.07	25.746
685.25	28.206
685.44	25.695
685.62	27.811
685.81	26.294
685.99	28.744
686.18	26.238
686.36	29.377
686.55	26.912
686.73	28.204
686.92	28.958
687.10	29.680
687.29	29.591
687.47	31.710
687.65	30.805
687.84	29.895
688.02	31.246
688.21	31.966
688.39	29.324
688.58	31.983
688.76	31.116
688.95	32.764
689.13	32.381
689.32	35.283
689.50	33.951
689.68	34.250
689.87	33.073
690.05	34.297
690.24	34.901
690.42	36.056
690.61	35.442
690.79	38.716
690.98	36.770
691.16	38.088
691.34	36.019
691.53	39.065
691.71	36.439
691.90	39.087
692.08	38.670
692.27	41.690
692.45	40.226
692.63	41.088
692.82	41.381
693.00	40.899
693.19	41.568
693.37	42.580
693.56	41.982
693.74	43.730
693.92	43.487
694.11	45.338
694.29	45.737
694.48	45.416
694.66	46.034
694.84	46.679
695.03	48.348
695.21	47.649
695.40	49.925
695.58	49.234
695.76	47.870
695.95	50.708
696.13	48.534
696.32	50.812
696.50	51.611
696.68	50.632
696.87	49.890
697.05	52.289
697.24	52.767
697.42	53.168
697.60	51.731
697.79	53.131
697.97	53.777
698.16	53.576
698.34	50.642
698.52	53.364
698.71	51.818
698.89	52.916
699.07	51.234
699.26	52.332
699.44	52.707
699.63	52.383
699.81	52.327
699.99	52.753
700.18	53.675
700.36	54.096
700.54	55.141
700.73	54.254
700.91	55.217
701.09	57.122
701.28	56.810
701.46	56.916
701.64	58.346
701.83	57.874
702.01	57.792
702.20	60.118
702.38	59.686
702.56	61.072
702.75	59.959
702.93	60.604
703.11	61.588
703.30	63.462
703.48	62.424
703.66	63.613
703.85	64.201
704.03	64.360
704.21	62.611
704.40	65.023
704.58	65.614
704.76	65.118
704.95	64.649
705.13	64.816
705.31	63.970
705.50	64.908
705.68	63.784
705.86	65.505
706.04	67.543
706.23	67.753
706.41	64.240
706.59	66.158
706.78	65.644
706.96	66.223
707.14	65.440
707.33	67.028
707.51	67.822
707.69	68.072
707.88	65.753
708.06	67.725
708.24	68.489
708.42	68.110
708.61	67.047
708.79	66.365
708.97	67.247
709.16	65.461
709.34	68.358
709.52	67.606
709.71	66.007
709.89	68.562
710.07	65.779
710.25	68.739
710.44	65.976
710.62	67.977
710.80	68.720
710.98	67.234
711.17	66.242
711.35	68.295
711.53	67.799
711.72	68.591
711.90	68.561
712.08	66.371
712.26	68.244
712.45	69.638
712.63	67.933
712.81	69.785
712.99	68.510
713.18	68.278
713.36	69.702
713.54	69.560
713.72	66.133
713.91	67.561
714.09	67.797
714.27	68.278
714.45	67.974
714.64	68.747
714.82	71.262
715.00	70.569
715.18	69.665
715.37	68.518
715.55	68.785
715.73	71.524
715.91	69.269
716.10	67.535
716.28	66.672
716.46	68.970
716.64	68.019
716.83	68.302
717.01	68.041
717.19	67.665
717.37	69.248
717.55	66.908
717.74	68.995
717.92	66.994
718.10	67.438
718.28	69.490
718.47	68.758
718.65	70.044
718.83	69.717
719.01	69.899
719.19	70.192
719.38	69.811
719.56	71.232
719.74	70.539
719.92	69.724
720.10	71.108
720.29	71.489
720.47	71.681
720.65	70.311
720.83	71.806
721.01	71.249
721.20	72.074
721.38	71.048
721.56	73.968
721.74	71.709
721.92	70.442
722.11	74.036
722.29	73.199
722.47	73.865
722.65	74.226
722.83	72.764
723.01	71.502
723.20	72.701
723.38	71.013
723.56	72.343
723.74	74.764
723.92	71.907
724.10	72.571
724.29	72.231
724.47	73.970
724.65	75.555
724.83	73.979
725.01	68.959
725.19	75.613
725.38	70.717
725.56	71.224
725.74	74.921
725.92	75.144
726.10	74.157
726.28	73.735
726.46	74.795
726.65	73.868
726.83	73.864
727.01	72.655
727.19	72.479
727.37	73.928
727.55	71.566
727.73	74.201
727.92	74.541
728.10	70.746
728.28	71.028
728.46	72.611
728.64	73.033
728.82	73.783
729.00	74.146
729.19	74.749
729.37	72.198
729.55	72.821
729.73	70.587
729.91	74.980
730.09	73.045
730.27	73.941
730.45	71.682
730.63	73.075
730.82	72.190
731.00	71.411
731.18	73.597
731.36	73.812
731.54	70.516
731.72	74.223
731.90	73.061
732.08	73.124
732.26	71.294
732.45	76.057
732.63	74.082
732.81	74.691
732.99	73.339
733.17	73.649
733.35	75.141
733.53	75.576
733.71	73.586
733.89	73.150
734.07	74.639
734.25	72.957
734.44	72.698
734.62	73.655
734.80	77.073
734.98	75.339
735.16	74.851
735.34	78.008
735.52	76.244
735.70	75.451
735.88	77.357
736.06	76.075
736.24	78.771
736.42	77.993
736.60	74.444
736.78	78.145
736.97	78.684
737.15	78.202
737.33	76.763
737.51	80.692
737.69	80.327
737.87	80.316
738.05	77.683
738.23	82.307
738.41	77.328
738.59	80.300
738.77	79.328
738.95	77.582
739.13	76.948
739.31	80.604
739.49	78.740
739.67	79.615
739.85	77.256
740.03	75.687
740.21	78.011
740.39	78.693
740.57	77.706
740.75	76.289
740.93	78.112
741.11	78.444
741.30	81.947
741.48	81.992
741.66	82.205
741.84	79.191
742.02	80.651
742.20	78.871
742.38	78.670
742.56	81.912
742.74	79.049
742.92	78.403
743.10	77.212
743.28	81.623
743.46	80.257
743.64	80.107
743.82	79.536
744.00	81.538
744.18	79.545
744.36	82.237
744.54	83.632
744.72	83.761
744.90	87.579
745.08	84.305
745.26	82.942
745.44	82.026
745.62	83.792
745.80	81.899
745.98	81.401
746.16	85.317
746.34	82.259
746.52	81.653
746.70	82.186
746.87	82.410
747.05	80.683
747.23	82.019
747.41	83.782
747.59	84.959
747.77	84.808
747.95	85.065
748.13	81.798
748.31	88.182
748.49	81.830
748.67	83.050
748.85	78.500
749.03	82.979
749.21	81.516
749.39	83.748
749.57	79.956
749.75	81.453
749.93	81.185
750.11	82.539
750.29	80.587
750.47	80.468
750.65	81.066
750.83	80.600
751.01	82.624
751.18	81.353
751.36	81.353
751.54	82.953
751.72	83.926
751.90	82.550
752.08	80.294
752.26	82.246
752.44	79.809
752.62	84.017
752.80	80.255
752.98	83.282
753.16	81.942
753.34	83.618
753.52	78.916
753.69	81.813
753.87	84.366
754.05	84.256
754.23	80.812
754.41	83.776
754.59	83.261
754.77	81.617
754.95	81.135
755.13	80.603
755.31	80.510
755.49	79.707
755.66	81.906
755.84	81.818
756.02	79.399
756.20	83.683
756.38	84.311
756.56	84.269
756.74	80.853
756.92	83.403
757.10	78.705
757.28	86.171
757.45	89.063
757.63	82.404
757.81	80.328
757.99	85.672
758.17	81.622
758.35	84.072
758.53	82.416
758.71	82.825
758.88	85.619
759.06	83.716
759.24	76.472
759.42	81.200
759.60	79.633
759.78	78.538
759.96	77.708
760.13	75.787
760.31	72.147
760.49	72.200
760.67	71.433
760.85	74.684
761.03	69.761
761.21	69.368
761.38	72.524
761.56	71.967
761.74	71.279
761.92	74.006
762.10	69.704
762.28	73.995
762.46	69.564
762.63	71.316
762.81	71.117
762.99	73.822
763.17	70.492
763.35	71.297
763.53	70.966
763.70	70.379
763.88	70.489
764.06	70.813
764.24	69.428
764.42	71.339
764.60	69.821
764.77	69.245
764.95	70.636
765.13	71.157
765.31	71.067
765.49	70.505
765.66	70.851
765.84	71.809
766.02	72.376
766.20	75.024
766.38	72.330
766.56	73.312
766.73	75.144
766.91	74.961
767.09	79.694
767.27	78.521
767.45	77.127
767.62	75.569
767.80	75.425
767.98	76.767
768.16	77.757
768.33	81.999
768.51	79.402
768.69	77.134
768.87	75.025
769.05	82.271
769.22	78.195
769.40	88.333
769.58	80.423
769.76	80.650
769.94	80.273
770.11	83.648
770.29	78.924
770.47	83.495
770.65	82.041
770.82	82.971
771.00	85.567
771.18	81.089
771.36	83.552
771.53	82.416
771.71	80.679
771.89	81.643
772.07	81.655
772.25	83.136
772.42	84.295
772.60	85.160
772.78	82.152
772.96	84.873
773.13	88.615
773.31	85.954
773.49	80.459
773.67	86.181
773.84	85.063
774.02	81.693
774.20	82.893
774.37	84.185
774.55	86.161
774.73	85.253
774.91	83.628
775.08	80.914
775.26	85.263
775.44	85.189
775.62	88.826
775.79	83.972
775.97	84.393
776.15	85.099
776.32	77.279
776.50	92.355
776.68	91.468
776.86	89.453
777.03	80.881
777.21	84.549
777.39	82.290
777.56	86.818
777.74	80.566
777.92	81.985
778.10	85.616
778.27	84.803
778.45	91.273
778.63	89.789
778.80	84.685
778.98	87.354
779.16	83.790
779.34	82.085
779.51	88.773
779.69	82.986
779.87	81.863
780.04	81.660
780.22	79.276
780.40	86.325
780.57	82.155
780.75	82.797
780.93	84.020
781.10	81.676
781.28	92.721
781.46	81.840
781.63	83.951
781.81	89.242
781.99	76.453
782.16	86.726
782.34	83.847
782.52	83.378
782.69	87.706
782.87	84.686
783.05	81.870
783.22	88.392
783.40	79.957
783.58	85.963
783.75	81.340
783.93	90.252
784.11	84.205
784.28	87.654
784.46	87.486
784.64	90.241
784.81	85.738
784.99	94.007
785.17	86.243
785.34	82.286
785.52	80.357
785.69	85.441
785.87	80.997
786.05	79.052
786.22	83.734
786.40	90.455
786.58	82.887
786.75	82.688
786.93	82.599
787.11	77.013
787.28	89.910
787.46	93.162
787.63	84.812
787.81	90.593
787.99	85.061
788.16	79.958
788.34	82.997
788.51	85.677
788.69	70.829
788.87	80.538
789.04	78.903
789.22	81.652
789.39	78.915
789.57	81.492
789.75	77.879
789.92	82.037
790.10	72.602
790.27	80.642
790.45	75.221
790.63	79.255
790.80	75.749
790.98	80.490
791.15	82.454
791.33	79.420
791.51	75.974
791.68	79.314
791.86	83.497
792.03	79.336
792.21	79.885
792.39	82.391
792.56	75.725
792.74	83.200
792.91	82.265
793.09	76.840
793.26	74.684
793.44	79.881
793.62	83.375
793.79	78.851
793.97	76.615
794.14	84.502
794.32	78.088
794.49	79.691
794.67	75.765
794.84	80.790
795.02	77.596
795.20	85.303
795.37	78.300
795.55	81.861
795.72	75.598
795.90	79.570
796.07	81.186
796.25	81.292
796.42	79.206
796.60	79.227
796.77	74.507
796.95	80.906
797.13	76.454
797.30	81.857
797.48	78.277
797.65	80.343
797.83	74.660
798.00	78.545
798.18	76.538
798.35	77.478
798.53	83.361
798.70	77.784
798.88	78.223
799.05	80.835
799.23	80.047
799.40	81.233
799.58	83.363
799.75	77.931
799.93	75.991
800.10	80.689
800.28	77.863
800.45	83.971
800.63	75.819
800.80	80.308
800.98	82.507
801.15	79.306
801.33	76.347
801.50	79.781
801.68	73.370
801.85	80.037
802.03	72.733
802.20	77.938
802.38	73.380
802.55	78.028
802.73	75.910
802.90	78.147
803.08	72.978
803.25	82.225
803.43	87.550
803.60	78.521
803.78	80.273
803.95	83.973
804.13	78.902
804.30	83.701
804.48	77.304
804.65	83.541
804.83	87.032
805.00	79.401
805.17	81.198
805.35	85.983
805.52	74.465
805.70	81.395
805.87	81.666
806.05	84.263
806.22	76.809
806.40	78.236
806.57	78.954
806.75	86.361
806.92	81.867
807.09	81.206
807.27	76.855
807.44	80.620
807.62	74.000
807.79	78.182
807.97	73.445
808.14	75.942
808.31	78.434
808.49	87.775
808.66	75.973
808.84	75.910
809.01	84.582
809.19	87.199
809.36	79.568
809.53	83.091
809.71	78.825
809.88	86.694
810.06	79.956
810.23	80.000
810.41	84.070
810.58	80.915
810.75	79.249
810.93	79.608
811.10	78.319
811.28	79.747
811.45	84.347
811.62	81.319
811.80	69.960
811.97	91.627
812.15	81.445
812.32	70.890
812.49	79.334
812.67	76.741
812.84	71.675
813.02	80.408
813.19	74.403
813.36	76.484
813.54	71.429
813.71	84.179
813.89	75.038
814.06	79.275
814.23	77.341
814.41	75.181
814.58	78.241
814.75	72.883
814.93	75.256
815.10	79.933
815.28	67.323
815.45	72.019
815.62	73.074
815.80	67.418
815.97	72.520
816.14	74.960
816.32	69.339
816.49	75.226
816.66	65.741
816.84	76.764
817.01	66.866
817.18	78.793
817.36	65.492
817.53	69.279
817.71	67.965
817.88	73.867
818.05	63.380
818.23	70.985
818.40	66.484
818.57	71.576
818.75	66.436
818.92	65.434
819.09	68.569
819.27	67.678
819.44	70.763
819.61	63.946
819.79	74.344
819.96	71.647
820.13	68.889
820.31	73.913
820.48	71.051
820.65	70.861
820.82	65.963
821.00	75.301
821.17	66.616
821.34	66.925
821.52	71.429
821.69	68.381
821.86	63.292
822.04	72.123
822.21	67.067
822.38	68.499
822.56	67.378
822.73	67.778
822.90	65.798
823.07	66.228
823.25	65.598
823.42	65.988
823.59	64.702
823.77	64.883
823.94	64.539
824.11	64.627
824.29	64.132
824.46	65.220
824.63	66.204
824.80	65.073
824.98	67.134
825.15	68.755
825.32	66.486
825.49	69.966
825.67	66.990
825.84	70.322
826.01	67.362
826.19	73.178
826.36	67.346
826.53	72.135
826.70	69.988
826.88	70.703
827.05	67.170
827.22	68.209
827.39	69.448
827.57	66.374
827.74	63.323
827.91	67.502
828.08	65.680
828.26	67.194
828.43	66.202
828.60	68.299
828.77	67.115
828.95	67.711
829.12	64.698
829.29	63.508
829.46	66.677
829.64	66.918
829.81	59.853
829.98	65.637
830.15	63.619
830.32	67.486
830.50	67.154
830.67	68.154
830.84	63.059
831.01	65.999
831.19	67.373
831.36	72.020
831.53	65.458
831.70	71.780
831.87	67.791
832.05	69.326
832.22	72.324
832.39	62.674
832.56	70.008
832.74	70.370
832.91	64.140
833.08	72.721
833.25	62.709
833.42	64.683
833.60	66.414
833.77	62.073
833.94	61.561
834.11	61.165
834.28	61.023
834.45	68.031
834.63	62.247
834.80	67.950
834.97	62.276
835.14	67.529
835.31	67.095
835.49	67.107
835.66	61.570
835.83	62.424
836.00	61.802
836.17	66.721
836.34	61.289
836.52	62.041
836.69	67.657
836.86	70.968
837.03	64.576
837.20	64.290
837.37	64.330
837.55	58.570
837.72	64.238
837.89	67.578
838.06	73.203
838.23	73.495
838.40	72.477
838.58	67.137
838.75	79.879
838.92	70.410
839.09	78.782
839.26	76.380
839.43	80.021
839.60	80.553
839.78	82.937
839.95	90.909
840.12	68.234
840.29	82.941
840.46	80.068
840.63	78.134
840.80	77.138
840.98	79.644
841.15	70.992
841.32	76.596
841.49	66.002
841.66	76.729
841.83	62.946
842.00	69.718
842.17	76.782
842.34	65.527
842.52	73.900
842.69	77.962
842.86	76.752
843.03	99.506
843.20	87.421
843.37	76.297
843.54	77.851
843.71	84.697
843.88	85.535
844.06	100.000
844.23	84.358
844.40	79.066
844.57	95.342
844.74	102.203
844.91	93.558
845.08	82.344
845.25	94.958
845.42	105.989
845.59	113.127
845.76	95.764
845.94	106.560
846.11	93.289
846.28	102.534
846.45	98.470
846.62	114.379
846.79	95.942
846.96	87.476
847.13	100.380
847.30	95.730
847.47	98.778
847.64	103.929
847.81	88.673
847.98	110.581
848.15	95.158
848.32	102.852
848.50	110.277
848.67	81.170
848.84	102.834
849.01	107.317
849.18	92.229
849.35	104.743
849.52	115.050
849.69	108.121
849.86	121.041
850.03	108.665
850.20	83.114
850.37	94.240
850.54	117.670
850.71	105.543
850.88	110.373
851.05	100.833
851.22	110.485
851.39	93.928
851.56	103.254
851.73	114.824
851.90	115.596
852.07	116.547
852.24	87.671
852.41	115.203
852.58	105.714
852.75	88.372
852.92	101.207
853.09	125.562
853.26	118.105
853.43	107.111
853.60	89.397
853.77	95.338
853.94	100.821
854.11	116.473
854.28	131.707
854.45	100.222
854.62	114.286
854.79	110.398
854.96	121.173
855.13	108.121
855.30	111.500
855.47	125.000
855.64	94.209
855.81	100.000
855.98	134.688
856.15	99.187
856.32	86.848
856.49	102.837
856.66	107.042
856.83	106.466
857.00	103.138
857.17	124.532
857.34	87.281
857.51	104.835
857.68	113.126
857.85	130.508
858.02	114.181
858.19	92.742
858.36	120.494
858.53	106.852
858.70	120.175
858.87	140.556
859.04	88.462
859.21	101.293
859.38	107.292
859.55	130.414
859.72	139.017
859.89	136.152
860.05	130.637
860.22	116.316
860.39	90.930
860.56	119.192
860.73	108.831
860.90	101.826
861.07	126.027
861.24	95.652
861.41	119.048
861.58	130.118
861.75	89.976
861.92	77.899
862.09	111.392
862.26	111.584
862.43	134.986
862.59	101.852
862.76	102.760
862.93	128.649
863.10	97.852
863.27	113.569
863.44	96.078
863.61	98.409
863.78	132.537
863.95	117.815
864.12	128.349
864.29	110.942
864.45	110.579
864.62	119.110
864.79	116.832
864.96	107.444
865.13	97.118
865.30	117.381
865.47	134.819
865.64	121.698
865.81	129.201
865.97	92.086
866.14	110.468
866.31	80.282
866.48	93.506
866.65	88.281
866.82	111.990
866.99	131.398
867.16	99.738
867.33	111.529
867.49	114.670
867.66	112.771
867.83	102.423
868.00	99.762
868.17	93.391
868.34	103.125
868.51	93.478
868.67	104.502
868.84	105.977
869.01	125.115
869.18	91.220
869.35	99.779
869.52	103.000
869.69	137.805
869.85	105.432
870.02	91.990
870.19	117.703
870.36	137.037
870.53	89.744
870.70	120.851
870.86	102.591
871.03	115.081
871.20	100.990
871.37	129.178
871.54	116.576
871.71	96.359
871.87	104.620
872.04	118.812
872.21	99.117
872.38	110.024
872.55	113.924
872.72	84.009
872.88	110.141
873.05	102.192
873.22	92.495
873.39	102.600
873.56	97.494
873.72	101.442
873.89	109.884
874.06	107.732
874.23	97.120
874.40	99.807
874.56	106.445
874.73	117.476
874.90	108.289
875.07	78.384
875.24	95.943
875.40	89.888
875.57	101.136
875.74	115.854
875.91	118.428
876.08	93.612
876.24	103.512
876.41	122.335
876.58	94.988
876.75	115.702
876.92	81.250
877.08	100.000
877.25	97.423
877.42	102.236
877.59	110.092
877.75	99.796
877.92	77.567
878.09	116.241
878.26	93.775
878.42	104.521
878.59	110.619
878.76	92.688
878.93	115.611
879.09	92.358
879.26	112.802
879.43	87.416
879.60	98.299
879.76	85.587
879.93	91.337
880.10	83.023
880.27	78.686
880.43	70.900
880.60	73.668
880.77	62.615
880.94	65.044
881.10	55.635
881.27	72.543
881.44	45.272
881.61	58.127
881.77	57.781
881.94	54.046
882.11	53.999
882.28	52.279
882.44	56.089
882.61	62.789
882.78	58.753
882.94	68.656
883.11	56.370
883.28	67.805
883.45	61.097
883.61	57.795
883.78	56.595
883.95	65.661
884.11	62.211
884.28	62.540
>>>>>End Processed Spectral Data<<<<<
