SpectraSuite Data File
++++++++++++++++++++++++++++++++++++
Date: Mon Sep 23 04:32:48 EST 2019
User: sgrac
Dark Spectrum Present: Yes
Reference Spectrum Present: Yes
Number of Sampled Component Spectra: 1
Spectrometers: USB4E01596
Integration Time (usec): 100000 (USB4E01596)
Spectra Averaged: 3 (USB4E01596)
Boxcar Smoothing: 0 (USB4E01596)
Correct for Electrical Dark: No (USB4E01596)
Strobe/Lamp Enabled: Yes (USB4E01596)
Correct for Detector Non-linearity: No (USB4E01596)
Correct for Stray Light: No (USB4E01596)
Number of Pixels in Processed Spectrum: 3648
>>>>>Begin Processed Spectral Data<<<<<
178.44	1984.615
178.66	1984.615
178.87	1984.615
179.09	7933.333
179.30	-6075.000
179.52	-770.968
179.74	-539.623
179.95	729.545
180.17	-780.556
180.38	557.895
180.60	-2818.182
180.82	700.000
181.03	5000.000
181.25	-2641.667
181.46	-1420.000
181.68	1429.167
181.89	-688.636
182.11	-2106.250
182.33	-2243.750
182.54	739.583
182.76	5250.000
182.97	-619.149
183.19	1340.000
183.40	309.917
183.62	446.154
183.84	387.273
184.05	5057.143
184.27	442.424
184.48	462.121
184.70	1735.294
184.91	1547.619
185.13	2720.000
185.34	-18200.000
185.56	1223.077
185.78	443.056
185.99	1094.444
186.21	407.955
186.42	-7125.000
186.64	2490.000
186.85	-5600.000
187.07	648.000
187.28	465.789
187.50	641.818
187.72	341.026
187.93	890.909
188.15	387.500
188.36	477.632
188.58	624.490
188.79	359.615
189.01	581.690
189.22	1129.730
189.44	-948.485
189.65	372.034
189.87	-7775.000
190.09	512.698
190.30	854.762
190.52	525.000
190.73	784.783
190.95	-5300.000
191.16	355.952
191.38	493.243
191.59	532.353
191.81	503.226
192.02	2026.667
192.24	915.625
192.45	1050.000
192.67	-2237.500
192.88	484.906
193.10	559.016
193.31	835.000
193.53	300.806
193.74	409.333
193.96	2085.714
194.18	1126.923
194.39	2040.000
194.61	565.753
194.82	1722.727
195.04	369.512
195.25	-477.193
195.47	-557.407
195.68	4833.333
195.90	654.545
196.11	453.731
196.33	26900.000
196.54	880.488
196.76	2185.714
196.97	437.662
197.19	975.676
197.40	2735.714
197.62	331.193
197.83	1035.484
198.05	632.727
198.26	979.310
198.48	384.507
198.69	610.000
198.91	1511.111
199.12	669.767
199.34	726.087
199.55	480.000
199.77	2047.368
199.98	908.824
200.20	419.737
200.41	546.774
200.63	324.779
200.84	2178.571
201.06	3577.778
201.27	726.829
201.49	550.704
201.70	-1143.333
201.91	562.500
202.13	542.373
202.34	558.621
202.56	-1336.000
202.77	782.222
202.99	5866.667
203.20	-4175.000
203.42	2106.250
203.63	343.421
203.85	6566.667
204.06	714.000
204.28	330.303
204.49	590.741
204.71	496.610
204.92	1219.231
205.14	0.000
205.35	1020.000
205.56	-1530.000
205.78	6800.000
205.99	-2257.143
206.21	13650.000
206.42	786.364
206.64	1000.000
206.85	888.889
207.07	-3533.333
207.28	600.000
207.50	645.652
207.71	1041.935
207.93	373.494
208.14	-1118.519
208.35	512.727
208.57	1212.000
208.78	-3388.889
209.00	336.170
209.21	-11900.000
209.43	-10733.333
209.64	-2140.000
209.86	324.742
210.07	461.628
210.28	522.535
210.50	1006.897
210.71	503.922
210.93	241.176
211.14	430.337
211.36	1975.000
211.57	442.424
211.78	434.286
212.00	409.412
212.21	550.000
212.43	894.872
212.64	402.128
212.86	491.892
213.07	377.982
213.29	-891.667
213.50	346.739
213.71	421.839
213.93	439.024
214.14	2054.545
214.36	510.294
214.57	389.873
214.78	804.444
215.00	377.083
215.21	1096.667
215.43	772.973
215.64	558.730
215.86	378.750
216.07	774.286
216.28	947.368
216.50	345.000
216.71	28500.000
216.93	598.485
217.14	1561.111
217.35	241.667
217.57	339.640
217.78	379.012
218.00	279.798
218.21	1121.739
218.42	702.128
218.64	548.214
218.85	522.000
219.07	1135.000
219.28	343.925
219.49	643.137
219.71	530.769
219.92	229.104
220.14	377.320
220.35	477.333
220.56	341.379
220.78	314.423
220.99	254.032
221.21	348.387
221.42	400.000
221.63	226.012
221.85	466.154
222.06	398.571
222.28	444.615
222.49	320.721
222.70	245.669
222.92	583.673
223.13	454.098
223.34	242.553
223.56	372.619
223.77	422.500
223.99	391.579
224.20	464.286
224.41	413.699
224.63	310.227
224.84	224.324
225.05	167.094
225.27	298.261
225.48	247.059
225.69	232.331
225.91	391.892
226.12	289.147
226.34	233.557
226.55	184.173
226.76	275.000
226.98	183.922
227.19	143.359
227.40	282.812
227.62	158.201
227.83	165.236
228.04	116.760
228.26	86.889
228.47	93.768
228.69	65.736
228.90	61.407
229.11	64.906
229.33	48.119
229.54	51.094
229.75	47.092
229.97	41.857
230.18	42.584
230.39	35.951
230.61	44.295
230.82	47.186
231.03	37.732
231.25	40.103
231.46	50.113
231.67	55.570
231.89	61.003
232.10	50.939
232.31	53.655
232.53	59.083
232.74	71.402
232.95	57.350
233.17	62.200
233.38	58.613
233.59	70.686
233.81	67.029
234.02	49.098
234.23	57.270
234.45	72.049
234.66	68.363
234.87	54.918
235.09	61.897
235.30	63.923
235.51	61.388
235.73	67.904
235.94	60.958
236.15	60.176
236.36	65.047
236.58	53.978
236.79	51.180
237.00	54.106
237.22	61.054
237.43	52.733
237.64	61.417
237.86	56.767
238.07	67.354
238.28	52.419
238.50	44.932
238.71	59.353
238.92	60.156
239.13	51.864
239.35	54.277
239.56	59.894
239.77	62.637
239.99	40.056
240.20	61.357
240.41	46.628
240.63	36.119
240.84	41.294
241.05	37.848
241.26	39.430
241.48	34.959
241.69	29.223
241.90	21.798
242.12	22.930
242.33	25.630
242.54	23.092
242.75	22.906
242.97	23.174
243.18	18.594
243.39	16.804
243.61	20.931
243.82	22.736
244.03	16.330
244.24	16.940
244.46	20.854
244.67	22.683
244.88	19.950
245.09	23.433
245.31	25.608
245.52	26.221
245.73	22.672
245.95	38.207
246.16	22.787
246.37	20.328
246.58	20.533
246.80	18.841
247.01	22.063
247.22	15.745
247.43	15.290
247.65	16.482
247.86	16.467
248.07	10.522
248.28	14.705
248.50	14.542
248.71	13.299
248.92	12.670
249.13	13.226
249.35	15.383
249.56	15.958
249.77	16.353
249.98	14.997
250.20	20.439
250.41	17.134
250.62	22.932
250.83	20.099
251.05	19.802
251.26	20.485
251.47	23.677
251.68	22.643
251.90	21.365
252.11	23.601
252.32	25.669
252.53	22.186
252.75	19.302
252.96	20.688
253.17	20.455
253.38	19.647
253.59	19.677
253.81	17.287
254.02	17.473
254.23	16.934
254.44	16.641
254.66	13.607
254.87	19.779
255.08	23.162
255.29	25.942
255.50	23.758
255.72	20.214
255.93	31.091
256.14	30.277
256.35	22.111
256.57	32.798
256.78	30.222
256.99	26.051
257.20	31.905
257.41	25.758
257.63	25.670
257.84	24.418
258.05	23.389
258.26	22.249
258.47	19.432
258.69	22.408
258.90	13.999
259.11	16.966
259.32	18.402
259.53	15.459
259.75	14.910
259.96	13.513
260.17	12.878
260.38	9.350
260.59	12.554
260.81	10.509
261.02	11.454
261.23	11.197
261.44	11.486
261.65	10.700
261.87	10.644
262.08	11.469
262.29	13.973
262.50	11.248
262.71	11.433
262.92	13.989
263.14	11.649
263.35	12.364
263.56	17.292
263.77	14.614
263.98	15.828
264.20	18.950
264.41	15.666
264.62	16.156
264.83	15.570
265.04	21.100
265.25	18.999
265.47	19.486
265.68	18.309
265.89	16.369
266.10	12.187
266.31	20.483
266.52	15.603
266.74	16.029
266.95	15.320
267.16	15.777
267.37	13.694
267.58	13.709
267.79	16.083
268.01	13.504
268.22	16.080
268.43	15.564
268.64	14.012
268.85	13.554
269.06	13.272
269.27	15.035
269.49	12.810
269.70	12.927
269.91	14.090
270.12	10.999
270.33	15.580
270.54	12.782
270.75	13.212
270.97	14.578
271.18	12.865
271.39	13.215
271.60	14.134
271.81	11.588
272.02	11.307
272.23	14.691
272.45	12.923
272.66	9.677
272.87	10.708
273.08	10.430
273.29	13.493
273.50	10.366
273.71	10.692
273.92	9.663
274.14	11.871
274.35	13.971
274.56	12.706
274.77	13.149
274.98	13.861
275.19	13.768
275.40	12.302
275.61	12.097
275.83	16.474
276.04	14.183
276.25	17.014
276.46	15.209
276.67	15.054
276.88	16.238
277.09	10.895
277.30	14.879
277.51	15.815
277.73	11.396
277.94	13.356
278.15	15.475
278.36	15.246
278.57	12.149
278.78	14.389
278.99	13.995
279.20	15.222
279.41	19.872
279.62	11.336
279.84	10.924
280.05	13.031
280.26	14.679
280.47	15.136
280.68	14.094
280.89	12.716
281.10	14.077
281.31	12.847
281.52	16.127
281.73	10.487
281.94	10.622
282.16	10.568
282.37	11.856
282.58	10.738
282.79	15.881
283.00	14.806
283.21	11.755
283.42	9.581
283.63	13.277
283.84	11.540
284.05	11.251
284.26	11.845
284.47	10.841
284.68	11.404
284.89	12.625
285.11	11.692
285.32	9.864
285.53	12.139
285.74	13.625
285.95	9.510
286.16	12.724
286.37	11.549
286.58	12.019
286.79	9.672
287.00	11.524
287.21	9.505
287.42	10.735
287.63	11.983
287.84	11.454
288.05	12.263
288.26	10.256
288.48	12.773
288.69	9.698
288.90	11.448
289.11	13.864
289.32	13.213
289.53	12.913
289.74	10.318
289.95	12.244
290.16	13.693
290.37	10.389
290.58	8.973
290.79	10.113
291.00	8.117
291.21	10.146
291.42	9.771
291.63	11.486
291.84	14.000
292.05	9.334
292.26	10.157
292.47	11.236
292.68	9.932
292.89	12.998
293.10	12.429
293.31	12.418
293.52	9.182
293.73	12.076
293.94	11.173
294.15	10.911
294.36	12.843
294.57	12.818
294.79	11.265
295.00	8.959
295.21	13.318
295.42	11.723
295.63	12.686
295.84	10.169
296.05	9.739
296.26	9.652
296.47	10.608
296.68	10.648
296.89	14.258
297.10	13.018
297.31	12.368
297.52	9.942
297.73	12.811
297.94	11.821
298.15	10.880
298.36	11.907
298.57	9.723
298.78	13.449
298.99	10.509
299.20	13.073
299.41	13.401
299.62	12.951
299.83	10.843
300.04	12.358
300.25	14.235
300.46	15.069
300.67	14.195
300.88	13.761
301.09	9.785
301.30	13.753
301.50	11.615
301.71	15.466
301.92	13.861
302.13	12.651
302.34	10.463
302.55	9.957
302.76	11.510
302.97	13.435
303.18	13.167
303.39	10.726
303.60	10.917
303.81	13.885
304.02	10.160
304.23	13.042
304.44	10.564
304.65	10.498
304.86	13.202
305.07	9.854
305.28	11.259
305.49	14.165
305.70	14.099
305.91	11.852
306.12	11.521
306.33	10.086
306.54	12.076
306.75	12.121
306.96	18.502
307.17	12.010
307.38	13.227
307.58	12.253
307.79	11.627
308.00	11.837
308.21	10.274
308.42	13.261
308.63	11.694
308.84	11.020
309.05	10.802
309.26	10.497
309.47	10.679
309.68	11.240
309.89	10.632
310.10	11.138
310.31	11.198
310.52	10.913
310.73	13.952
310.94	7.346
311.14	9.902
311.35	9.734
311.56	10.594
311.77	9.070
311.98	8.997
312.19	10.221
312.40	7.997
312.61	9.200
312.82	10.587
313.03	9.231
313.24	11.555
313.45	11.523
313.66	8.905
313.86	11.635
314.07	10.060
314.28	11.470
314.49	9.338
314.70	12.186
314.91	12.330
315.12	9.257
315.33	12.784
315.54	10.475
315.75	9.797
315.96	8.315
316.16	9.798
316.37	10.895
316.58	9.738
316.79	10.300
317.00	11.978
317.21	9.897
317.42	11.833
317.63	9.583
317.84	10.159
318.05	11.285
318.25	10.132
318.46	9.135
318.67	9.336
318.88	12.327
319.09	11.482
319.30	8.592
319.51	10.194
319.72	11.888
319.93	9.679
320.13	10.685
320.34	13.183
320.55	10.156
320.76	11.128
320.97	10.095
321.18	12.590
321.39	8.962
321.60	11.277
321.80	13.487
322.01	9.771
322.22	9.336
322.43	7.868
322.64	9.058
322.85	10.350
323.06	10.733
323.27	10.905
323.47	10.062
323.68	11.357
323.89	11.079
324.10	10.636
324.31	8.694
324.52	10.597
324.73	11.705
324.93	9.065
325.14	10.787
325.35	10.515
325.56	8.332
325.77	11.311
325.98	10.381
326.19	10.458
326.39	8.375
326.60	8.796
326.81	8.035
327.02	7.935
327.23	9.140
327.44	11.478
327.64	6.784
327.85	7.505
328.06	10.597
328.27	14.865
328.48	10.454
328.69	7.328
328.90	8.475
329.10	9.059
329.31	10.806
329.52	10.269
329.73	12.828
329.94	10.577
330.15	10.972
330.35	13.340
330.56	11.047
330.77	9.325
330.98	6.519
331.19	9.728
331.39	10.657
331.60	10.211
331.81	8.323
332.02	10.093
332.23	9.934
332.44	8.636
332.64	10.686
332.85	9.658
333.06	10.375
333.27	8.671
333.48	9.817
333.68	8.564
333.89	7.892
334.10	9.409
334.31	9.594
334.52	9.305
334.72	8.868
334.93	10.183
335.14	8.001
335.35	8.897
335.56	9.540
335.76	7.211
335.97	10.284
336.18	8.419
336.39	11.771
336.60	8.854
336.80	8.243
337.01	8.079
337.22	9.445
337.43	9.198
337.64	11.222
337.84	8.580
338.05	8.654
338.26	11.754
338.47	10.608
338.68	7.457
338.88	9.234
339.09	8.681
339.30	8.368
339.51	9.472
339.71	9.299
339.92	7.517
340.13	9.829
340.34	9.851
340.55	9.028
340.75	9.914
340.96	7.491
341.17	10.659
341.38	8.037
341.58	9.842
341.79	9.264
342.00	8.061
342.21	8.613
342.41	7.696
342.62	8.709
342.83	10.512
343.04	6.555
343.24	10.429
343.45	9.970
343.66	7.472
343.87	9.366
344.07	7.461
344.28	8.980
344.49	9.219
344.70	10.211
344.90	9.081
345.11	6.131
345.32	8.036
345.53	9.148
345.73	9.539
345.94	10.664
346.15	10.520
346.36	8.191
346.56	9.534
346.77	9.193
346.98	8.533
347.19	8.730
347.39	8.929
347.60	9.337
347.81	9.922
348.02	10.201
348.22	7.894
348.43	9.492
348.64	9.579
348.84	9.020
349.05	10.652
349.26	11.347
349.47	8.178
349.67	9.457
349.88	10.702
350.09	10.228
350.30	13.202
350.50	11.085
350.71	10.984
350.92	10.727
351.12	11.507
351.33	9.719
351.54	10.085
351.74	11.543
351.95	10.283
352.16	11.965
352.37	11.023
352.57	11.842
352.78	11.377
352.99	12.506
353.19	10.591
353.40	12.324
353.61	13.267
353.82	13.323
354.02	14.023
354.23	14.200
354.44	14.079
354.64	13.900
354.85	14.422
355.06	13.625
355.26	13.546
355.47	13.799
355.68	15.989
355.88	16.431
356.09	15.455
356.30	13.942
356.51	16.803
356.71	15.366
356.92	11.967
357.13	15.907
357.33	16.884
357.54	16.309
357.75	13.010
357.95	17.628
358.16	15.921
358.37	19.375
358.57	16.227
358.78	18.859
358.99	15.474
359.19	17.231
359.40	18.372
359.61	16.837
359.81	18.655
360.02	19.641
360.23	16.164
360.43	17.352
360.64	16.458
360.85	18.009
361.05	16.746
361.26	19.774
361.47	18.264
361.67	19.456
361.88	16.011
362.09	19.282
362.29	17.188
362.50	18.133
362.70	16.801
362.91	19.770
363.12	17.556
363.32	19.298
363.53	19.683
363.74	20.430
363.94	17.143
364.15	21.029
364.36	20.381
364.56	19.448
364.77	20.513
364.98	21.991
365.18	19.607
365.39	20.729
365.59	18.161
365.80	20.274
366.01	19.742
366.21	19.541
366.42	17.803
366.63	20.941
366.83	18.712
367.04	17.360
367.24	20.449
367.45	19.760
367.66	17.380
367.86	19.689
368.07	18.575
368.28	19.621
368.48	18.981
368.69	18.222
368.89	17.926
369.10	19.753
369.31	18.961
369.51	19.880
369.72	21.299
369.92	21.443
370.13	17.056
370.34	19.482
370.54	14.328
370.75	19.888
370.95	17.421
371.16	19.158
371.37	17.661
371.57	19.232
371.78	16.983
371.98	18.618
372.19	19.255
372.40	20.830
372.60	19.221
372.81	19.294
373.01	17.167
373.22	18.501
373.43	18.863
373.63	19.124
373.84	19.491
374.04	19.847
374.25	17.580
374.46	20.768
374.66	19.098
374.87	19.047
375.07	16.434
375.28	17.729
375.48	18.676
375.69	18.708
375.90	16.160
376.10	16.928
376.31	17.385
376.51	17.195
376.72	16.771
376.92	16.449
377.13	17.767
377.34	19.057
377.54	17.017
377.75	19.566
377.95	16.747
378.16	19.327
378.36	17.754
378.57	19.104
378.77	17.788
378.98	18.495
379.19	16.225
379.39	17.204
379.60	17.450
379.80	17.612
380.01	18.172
380.21	17.533
380.42	17.668
380.62	19.090
380.83	17.603
381.04	17.830
381.24	17.270
381.45	17.949
381.65	15.946
381.86	17.238
382.06	17.220
382.27	15.765
382.47	16.547
382.68	18.529
382.88	16.144
383.09	16.231
383.29	17.663
383.50	18.507
383.71	15.968
383.91	17.549
384.12	16.264
384.32	17.725
384.53	16.587
384.73	16.289
384.94	15.864
385.14	16.600
385.35	14.236
385.55	16.739
385.76	15.879
385.96	15.800
386.17	16.733
386.37	17.672
386.58	15.896
386.78	17.706
386.99	15.644
387.19	17.266
387.40	15.688
387.60	18.188
387.81	15.548
388.01	16.047
388.22	16.032
388.42	17.373
388.63	17.819
388.83	18.394
389.04	14.837
389.24	15.976
389.45	16.231
389.65	16.103
389.86	16.391
390.06	15.936
390.27	15.650
390.47	15.837
390.68	15.510
390.88	17.290
391.09	16.818
391.29	16.888
391.50	15.233
391.70	15.994
391.91	15.689
392.11	15.573
392.32	16.068
392.52	16.314
392.73	15.916
392.93	17.252
393.14	16.066
393.34	15.859
393.55	16.544
393.75	16.032
393.95	15.098
394.16	16.699
394.36	16.304
394.57	17.639
394.77	16.214
394.98	16.267
395.18	15.781
395.39	16.351
395.59	15.551
395.80	15.850
396.00	15.997
396.21	17.206
396.41	15.108
396.61	16.609
396.82	16.179
397.02	17.456
397.23	16.031
397.43	16.405
397.64	14.917
397.84	17.189
398.05	14.496
398.25	16.357
398.45	15.664
398.66	16.212
398.86	15.515
399.07	17.135
399.27	15.378
399.48	16.598
399.68	14.873
399.89	14.646
400.09	15.255
400.29	15.231
400.50	14.972
400.70	15.010
400.91	14.687
401.11	15.284
401.32	15.234
401.52	14.138
401.72	14.562
401.93	16.851
402.13	15.293
402.34	15.502
402.54	13.883
402.75	16.967
402.95	13.568
403.15	16.394
403.36	14.339
403.56	15.717
403.77	14.396
403.97	15.158
404.17	13.622
404.38	15.798
404.58	14.045
404.79	15.503
404.99	15.681
405.19	15.269
405.40	15.008
405.60	15.022
405.81	14.411
406.01	14.334
406.21	14.534
406.42	15.308
406.62	14.073
406.83	14.773
407.03	15.484
407.23	14.509
407.44	14.011
407.64	15.597
407.85	14.774
408.05	14.833
408.25	15.174
408.46	16.319
408.66	15.313
408.87	14.504
409.07	14.895
409.27	13.836
409.48	13.576
409.68	15.123
409.88	12.727
410.09	14.633
410.29	14.607
410.50	15.544
410.70	12.883
410.90	14.214
411.11	13.501
411.31	14.107
411.51	14.801
411.72	15.163
411.92	13.861
412.12	14.559
412.33	13.515
412.53	14.661
412.74	13.352
412.94	14.815
413.14	14.240
413.35	14.486
413.55	14.540
413.75	15.120
413.96	13.089
414.16	14.333
414.36	13.873
414.57	14.616
414.77	13.868
414.97	14.332
415.18	13.639
415.38	13.994
415.58	13.458
415.79	13.715
415.99	12.852
416.19	15.033
416.40	14.006
416.60	13.901
416.80	13.799
417.01	14.146
417.21	12.430
417.41	14.066
417.62	13.383
417.82	14.559
418.02	13.119
418.23	14.348
418.43	13.405
418.63	14.104
418.84	13.878
419.04	14.004
419.24	14.033
419.45	14.104
419.65	14.219
419.85	13.908
420.06	14.076
420.26	14.178
420.46	14.023
420.67	13.987
420.87	13.713
421.07	14.081
421.28	13.963
421.48	13.817
421.68	13.848
421.88	13.610
422.09	13.854
422.29	14.262
422.49	13.738
422.70	13.594
422.90	14.062
423.10	14.339
423.31	14.066
423.51	14.400
423.71	13.977
423.91	14.227
424.12	14.071
424.32	14.088
424.52	13.725
424.73	13.640
424.93	13.940
425.13	13.633
425.33	13.694
425.54	13.739
425.74	13.864
425.94	14.363
426.15	14.165
426.35	13.912
426.55	14.030
426.75	14.689
426.96	14.420
427.16	14.208
427.36	14.711
427.57	14.444
427.77	14.237
427.97	14.125
428.17	14.315
428.38	14.349
428.58	13.029
428.78	14.545
428.98	13.489
429.19	13.585
429.39	12.744
429.59	14.130
429.79	12.591
430.00	12.859
430.20	12.884
430.40	13.345
430.60	13.384
430.81	13.355
431.01	13.095
431.21	13.779
431.41	12.620
431.62	13.236
431.82	13.002
432.02	13.752
432.22	12.877
432.43	13.331
432.63	12.982
432.83	13.147
433.03	12.894
433.24	13.043
433.44	12.480
433.64	13.455
433.84	12.267
434.05	13.403
434.25	13.562
434.45	13.730
434.65	13.426
434.85	13.467
435.06	13.591
435.26	13.276
435.46	13.410
435.66	13.626
435.87	13.583
436.07	13.524
436.27	13.361
436.47	13.205
436.67	12.745
436.88	13.906
437.08	13.266
437.28	13.344
437.48	13.166
437.69	13.521
437.89	12.985
438.09	13.790
438.29	12.889
438.49	13.734
438.70	12.914
438.90	12.879
439.10	12.499
439.30	13.230
439.50	12.207
439.71	13.107
439.91	12.912
440.11	13.746
440.31	12.997
440.51	13.045
440.72	12.990
440.92	12.867
441.12	13.276
441.32	13.489
441.52	13.310
441.72	12.946
441.93	12.879
442.13	13.674
442.33	13.504
442.53	13.425
442.73	13.319
442.94	13.524
443.14	13.698
443.34	13.972
443.54	12.872
443.74	13.383
443.94	13.210
444.15	13.224
444.35	13.186
444.55	13.326
444.75	12.710
444.95	12.983
445.15	13.129
445.36	12.793
445.56	12.384
445.76	12.798
445.96	12.581
446.16	12.823
446.36	12.657
446.57	12.949
446.77	12.765
446.97	12.706
447.17	13.154
447.37	13.184
447.57	13.065
447.77	12.897
447.98	13.059
448.18	13.072
448.38	13.075
448.58	13.562
448.78	13.567
448.98	13.503
449.18	13.580
449.39	13.324
449.59	12.847
449.79	13.513
449.99	12.705
450.19	13.544
450.39	12.912
450.59	13.283
450.79	13.005
451.00	13.369
451.20	14.514
451.40	13.117
451.60	12.625
451.80	13.368
452.00	12.971
452.20	13.141
452.40	12.782
452.61	13.037
452.81	13.064
453.01	13.129
453.21	12.419
453.41	13.020
453.61	12.713
453.81	12.972
454.01	12.765
454.21	12.882
454.42	13.289
454.62	13.145
454.82	12.887
455.02	13.388
455.22	12.623
455.42	13.165
455.62	12.218
455.82	13.368
456.02	12.684
456.23	13.356
456.43	12.348
456.63	12.951
456.83	11.771
457.03	13.616
457.23	12.613
457.43	13.392
457.63	12.352
457.83	12.779
458.03	12.465
458.23	12.684
458.43	12.264
458.64	12.584
458.84	12.677
459.04	12.506
459.24	12.328
459.44	12.280
459.64	12.345
459.84	12.305
460.04	12.285
460.24	12.561
460.44	12.441
460.64	12.646
460.84	12.737
461.04	12.787
461.24	13.115
461.45	13.128
461.65	13.037
461.85	12.954
462.05	13.116
462.25	13.147
462.45	13.549
462.65	13.216
462.85	12.479
463.05	12.995
463.25	12.552
463.45	13.099
463.65	12.610
463.85	13.089
464.05	12.462
464.25	12.984
464.45	12.868
464.65	12.621
464.85	12.477
465.05	12.618
465.26	12.949
465.46	13.065
465.66	12.534
465.86	12.727
466.06	12.623
466.26	12.742
466.46	11.682
466.66	12.580
466.86	12.338
467.06	12.513
467.26	12.795
467.46	12.543
467.66	12.086
467.86	12.879
468.06	12.253
468.26	12.526
468.46	12.954
468.66	12.665
468.86	12.218
469.06	13.428
469.26	11.846
469.46	12.914
469.66	11.912
469.86	12.779
470.06	12.205
470.26	13.175
470.46	12.272
470.66	12.897
470.86	11.968
471.06	12.593
471.26	12.312
471.46	12.443
471.66	12.503
471.86	12.825
472.06	12.017
472.26	13.061
472.46	12.755
472.66	13.315
472.86	12.062
473.06	12.719
473.26	12.505
473.46	12.936
473.66	11.969
473.86	12.933
474.06	12.330
474.26	13.005
474.46	12.166
474.66	12.887
474.86	12.851
475.06	13.329
475.26	12.049
475.46	13.264
475.66	12.099
475.86	12.720
476.06	13.098
476.26	12.687
476.46	12.481
476.66	12.746
476.86	11.949
477.06	12.904
477.26	12.068
477.46	12.662
477.65	12.442
477.85	12.976
478.05	12.351
478.25	13.316
478.45	12.591
478.65	13.125
478.85	12.311
479.05	12.925
479.25	12.878
479.45	13.106
479.65	12.979
479.85	13.042
480.05	12.795
480.25	13.056
480.45	13.071
480.65	12.955
480.85	12.668
481.05	12.885
481.25	13.274
481.44	13.186
481.64	12.186
481.84	12.914
482.04	12.855
482.24	13.072
482.44	12.537
482.64	12.729
482.84	12.447
483.04	12.242
483.24	11.988
483.44	12.260
483.64	11.992
483.84	12.029
484.04	11.991
484.23	12.311
484.43	12.528
484.63	12.868
484.83	13.103
485.03	13.721
485.23	13.621
485.43	13.473
485.63	13.570
485.83	13.619
486.03	13.468
486.23	13.759
486.42	13.665
486.62	13.519
486.82	13.057
487.02	13.113
487.22	12.819
487.42	12.792
487.62	12.840
487.82	12.562
488.02	12.856
488.22	12.736
488.41	12.725
488.61	12.946
488.81	12.861
489.01	12.911
489.21	13.347
489.41	13.382
489.61	13.308
489.81	13.503
490.01	13.285
490.20	13.593
490.40	13.258
490.60	13.706
490.80	13.432
491.00	13.194
491.20	13.098
491.40	12.739
491.60	12.607
491.79	12.589
491.99	12.665
492.19	12.571
492.39	12.770
492.59	12.653
492.79	12.918
492.99	13.072
493.19	13.122
493.38	13.540
493.58	13.364
493.78	13.694
493.98	13.611
494.18	13.681
494.38	13.471
494.58	13.742
494.77	13.349
494.97	13.436
495.17	13.484
495.37	13.417
495.57	13.127
495.77	13.223
495.96	13.066
496.16	13.221
496.36	13.044
496.56	12.824
496.76	12.889
496.96	12.880
497.15	12.957
497.35	12.933
497.55	12.604
497.75	13.281
497.95	12.972
498.15	13.390
498.34	12.931
498.54	13.249
498.74	13.354
498.94	13.365
499.14	13.440
499.34	13.493
499.53	13.096
499.73	12.972
499.93	13.170
500.13	13.198
500.33	12.940
500.52	13.184
500.72	13.181
500.92	13.380
501.12	12.817
501.32	13.252
501.52	13.149
501.71	13.132
501.91	12.860
502.11	13.514
502.31	13.038
502.51	13.269
502.70	12.873
502.90	13.406
503.10	13.424
503.30	13.717
503.50	12.879
503.69	12.990
503.89	13.002
504.09	13.427
504.29	13.119
504.48	13.161
504.68	13.291
504.88	13.543
505.08	13.213
505.28	13.471
505.47	13.252
505.67	13.375
505.87	13.270
506.07	13.669
506.27	13.054
506.46	13.565
506.66	13.132
506.86	13.768
507.06	13.909
507.25	13.707
507.45	13.500
507.65	14.023
507.85	13.247
508.04	13.906
508.24	13.572
508.44	13.675
508.64	13.475
508.83	13.601
509.03	13.292
509.23	13.413
509.43	13.364
509.63	13.705
509.82	13.463
510.02	13.530
510.22	13.544
510.42	13.980
510.61	13.329
510.81	13.655
511.01	14.070
511.21	14.048
511.40	13.856
511.60	13.751
511.80	13.659
511.99	13.940
512.19	13.639
512.39	14.015
512.59	13.945
512.78	14.039
512.98	14.086
513.18	13.981
513.38	13.819
513.57	13.858
513.77	14.283
513.97	14.051
514.17	14.109
514.36	13.658
514.56	14.256
514.76	14.356
514.95	13.863
515.15	14.284
515.35	14.114
515.55	14.161
515.74	14.021
515.94	14.332
516.14	14.173
516.33	14.289
516.53	13.937
516.73	14.030
516.93	14.148
517.12	13.986
517.32	13.709
517.52	13.805
517.71	13.798
517.91	13.813
518.11	13.717
518.30	13.693
518.50	13.770
518.70	13.920
518.90	13.870
519.09	13.746
519.29	14.011
519.49	13.851
519.68	14.021
519.88	14.180
520.08	14.178
520.27	14.254
520.47	14.379
520.67	14.201
520.86	14.531
521.06	14.554
521.26	14.529
521.45	14.132
521.65	14.311
521.85	14.337
522.04	14.229
522.24	14.349
522.44	14.444
522.63	14.133
522.83	14.056
523.03	14.142
523.22	14.460
523.42	14.708
523.62	14.085
523.81	14.276
524.01	14.354
524.21	14.462
524.40	14.380
524.60	14.514
524.80	14.016
524.99	14.144
525.19	13.901
525.39	13.878
525.58	14.202
525.78	14.007
525.98	13.996
526.17	13.866
526.37	13.890
526.57	14.052
526.76	14.174
526.96	14.106
527.15	14.235
527.35	14.407
527.55	14.026
527.74	14.086
527.94	14.050
528.14	13.588
528.33	13.611
528.53	13.520
528.72	13.927
528.92	13.773
529.12	13.939
529.31	13.980
529.51	14.284
529.71	14.295
529.90	14.392
530.10	14.597
530.29	14.608
530.49	14.966
530.69	15.129
530.88	14.951
531.08	14.752
531.28	15.107
531.47	14.764
531.67	14.910
531.86	14.567
532.06	14.580
532.26	14.543
532.45	14.391
532.65	14.250
532.84	14.396
533.04	13.888
533.24	14.201
533.43	13.996
533.63	14.487
533.82	14.511
534.02	14.387
534.22	14.476
534.41	14.323
534.61	14.659
534.80	14.747
535.00	14.922
535.19	14.916
535.39	14.897
535.59	15.132
535.78	15.103
535.98	14.986
536.17	14.864
536.37	14.610
536.57	14.494
536.76	14.492
536.96	14.411
537.15	14.508
537.35	14.466
537.54	14.563
537.74	14.759
537.93	14.884
538.13	15.242
538.33	14.784
538.52	15.300
538.72	15.505
538.91	15.302
539.11	15.608
539.30	15.540
539.50	15.533
539.70	15.290
539.89	15.211
540.09	15.193
540.28	15.057
540.48	14.584
540.67	14.464
540.87	14.680
541.06	14.581
541.26	14.781
541.45	14.469
541.65	14.732
541.85	14.608
542.04	14.891
542.24	14.944
542.43	14.934
542.63	15.377
542.82	15.235
543.02	15.457
543.21	15.750
543.41	15.784
543.60	15.814
543.80	15.930
543.99	15.728
544.19	15.736
544.38	15.953
544.58	16.077
544.77	16.002
544.97	16.012
545.16	16.131
545.36	16.057
545.56	16.192
545.75	16.343
545.95	16.359
546.14	16.408
546.34	16.412
546.53	16.576
546.73	15.851
546.92	16.140
547.12	16.456
547.31	16.441
547.51	16.304
547.70	16.788
547.90	16.460
548.09	17.210
548.29	17.094
548.48	17.409
548.68	17.021
548.87	17.327
549.07	17.572
549.26	17.998
549.46	17.847
549.65	17.954
549.84	18.296
550.04	18.516
550.23	18.143
550.43	18.310
550.62	18.776
550.82	18.580
551.01	18.707
551.21	18.796
551.40	18.709
551.60	18.771
551.79	18.802
551.99	19.303
552.18	19.294
552.38	19.399
552.57	19.071
552.77	19.136
552.96	19.042
553.16	19.310
553.35	19.392
553.54	19.284
553.74	19.246
553.93	19.635
554.13	19.931
554.32	19.823
554.52	20.340
554.71	19.723
554.91	20.026
555.10	20.204
555.29	20.146
555.49	20.543
555.68	20.780
555.88	20.672
556.07	20.776
556.27	20.466
556.46	21.051
556.66	21.227
556.85	21.317
557.04	20.954
557.24	20.665
557.43	21.248
557.63	21.485
557.82	21.419
558.02	21.477
558.21	22.041
558.40	22.114
558.60	22.412
558.79	22.210
558.99	22.120
559.18	22.269
559.38	22.098
559.57	22.171
559.76	22.488
559.96	24.136
560.15	22.341
560.35	22.919
560.54	22.529
560.73	22.189
560.93	22.081
561.12	22.686
561.32	22.342
561.51	22.766
561.70	22.952
561.90	22.347
562.09	22.695
562.29	22.707
562.48	22.927
562.67	23.467
562.87	23.459
563.06	23.128
563.26	23.109
563.45	23.189
563.64	23.735
563.84	23.319
564.03	23.448
564.23	23.198
564.42	23.756
564.61	23.342
564.81	23.767
565.00	23.778
565.20	23.826
565.39	23.768
565.58	23.673
565.78	23.330
565.97	23.877
566.16	23.707
566.36	23.838
566.55	23.366
566.74	23.537
566.94	23.417
567.13	23.914
567.33	22.907
567.52	24.133
567.71	24.169
567.91	24.000
568.10	24.175
568.29	24.411
568.49	24.489
568.68	24.324
568.87	23.945
569.07	24.224
569.26	24.636
569.45	24.711
569.65	24.692
569.84	24.424
570.04	24.798
570.23	24.330
570.42	24.299
570.62	24.389
570.81	24.650
571.00	24.197
571.20	24.364
571.39	24.684
571.58	24.331
571.78	24.490
571.97	24.155
572.16	24.535
572.36	24.340
572.55	24.162
572.74	24.334
572.94	24.304
573.13	24.252
573.32	24.715
573.51	24.326
573.71	24.747
573.90	24.300
574.09	24.924
574.29	24.113
574.48	24.448
574.67	24.775
574.87	25.105
575.06	24.748
575.25	24.803
575.45	24.801
575.64	25.027
575.83	24.552
576.03	25.545
576.22	24.852
576.41	24.587
576.60	25.065
576.80	24.533
576.99	24.938
577.18	25.384
577.38	25.108
577.57	25.324
577.76	25.850
577.95	24.941
578.15	24.905
578.34	25.591
578.53	24.836
578.73	25.380
578.92	25.152
579.11	25.340
579.30	25.463
579.50	25.515
579.69	24.978
579.88	25.644
580.08	25.507
580.27	25.267
580.46	25.283
580.65	25.108
580.85	25.267
581.04	26.258
581.23	25.055
581.42	25.578
581.62	25.299
581.81	25.029
582.00	25.193
582.19	25.167
582.39	24.500
582.58	25.178
582.77	25.474
582.96	25.449
583.16	25.193
583.35	25.455
583.54	25.567
583.73	25.926
583.93	25.656
584.12	24.906
584.31	24.686
584.50	24.900
584.70	25.209
584.89	25.165
585.08	24.722
585.27	25.381
585.47	25.354
585.66	25.451
585.85	25.263
586.04	24.790
586.24	25.762
586.43	25.211
586.62	25.087
586.81	24.768
587.00	24.485
587.20	24.446
587.39	24.905
587.58	25.139
587.77	24.367
587.97	25.192
588.16	24.644
588.35	25.214
588.54	23.684
588.73	24.079
588.93	24.623
589.12	24.282
589.31	24.488
589.50	23.872
589.69	24.642
589.89	24.517
590.08	24.090
590.27	24.255
590.46	23.921
590.65	23.523
590.85	24.458
591.04	24.228
591.23	24.073
591.42	23.804
591.61	24.287
591.81	24.438
592.00	24.875
592.19	25.205
592.38	24.547
592.57	25.291
592.77	25.003
592.96	24.760
593.15	24.933
593.34	24.915
593.53	25.199
593.72	24.668
593.92	24.234
594.11	24.667
594.30	24.377
594.49	25.236
594.68	24.383
594.87	23.941
595.07	23.763
595.26	24.753
595.45	23.806
595.64	25.212
595.83	24.781
596.02	24.562
596.22	25.589
596.41	24.408
596.60	24.162
596.79	24.831
596.98	24.534
597.17	24.704
597.37	24.456
597.56	24.854
597.75	23.897
597.94	25.073
598.13	24.938
598.32	24.710
598.51	24.202
598.71	24.998
598.90	25.278
599.09	26.116
599.28	25.541
599.47	25.498
599.66	25.361
599.85	25.526
600.05	25.083
600.24	25.768
600.43	25.966
600.62	25.742
600.81	25.878
601.00	26.147
601.19	25.581
601.38	27.152
601.58	26.677
601.77	25.926
601.96	25.302
602.15	25.810
602.34	25.842
602.53	26.273
602.72	26.400
602.91	26.336
603.10	25.630
603.30	25.382
603.49	25.681
603.68	25.710
603.87	25.524
604.06	25.813
604.25	25.417
604.44	26.112
604.63	25.691
604.82	25.020
605.01	25.591
605.21	25.634
605.40	25.323
605.59	26.087
605.78	24.633
605.97	26.071
606.16	25.714
606.35	26.089
606.54	26.484
606.73	26.126
606.92	26.261
607.11	26.001
607.30	26.447
607.50	26.228
607.69	26.050
607.88	26.484
608.07	25.615
608.26	25.829
608.45	25.843
608.64	26.197
608.83	24.883
609.02	25.267
609.21	24.738
609.40	24.544
609.59	24.838
609.78	25.433
609.97	24.930
610.16	25.040
610.35	25.683
610.55	24.607
610.74	24.996
610.93	24.913
611.12	25.160
611.31	25.502
611.50	24.969
611.69	24.717
611.88	25.250
612.07	25.067
612.26	24.517
612.45	25.171
612.64	24.884
612.83	25.355
613.02	24.640
613.21	24.740
613.40	23.875
613.59	25.300
613.78	24.168
613.97	24.631
614.16	24.627
614.35	24.563
614.54	23.897
614.73	23.650
614.92	23.887
615.11	24.577
615.30	24.875
615.49	23.291
615.68	23.969
615.87	23.558
616.07	22.836
616.26	23.852
616.45	23.276
616.64	23.932
616.83	23.279
617.02	24.502
617.21	23.117
617.40	23.267
617.59	23.853
617.78	23.122
617.97	23.172
618.16	22.828
618.35	22.462
618.54	23.010
618.73	22.735
618.92	23.403
619.11	21.582
619.30	22.509
619.49	22.837
619.68	22.971
619.86	23.977
620.05	23.226
620.24	21.648
620.43	22.409
620.62	21.428
620.81	22.639
621.00	22.912
621.19	22.542
621.38	22.005
621.57	22.729
621.76	22.044
621.95	23.067
622.14	22.454
622.33	22.783
622.52	21.584
622.71	22.093
622.90	21.309
623.09	21.886
623.28	21.781
623.47	22.039
623.66	21.890
623.85	22.930
624.04	21.971
624.23	21.388
624.42	21.469
624.61	22.178
624.80	21.745
624.99	21.961
625.18	21.262
625.36	22.086
625.55	21.979
625.74	21.150
625.93	20.973
626.12	21.263
626.31	21.439
626.50	21.736
626.69	20.598
626.88	22.103
627.07	21.082
627.26	21.634
627.45	20.773
627.64	21.797
627.83	21.075
628.02	21.778
628.20	21.515
628.39	21.707
628.58	21.544
628.77	21.578
628.96	21.212
629.15	21.662
629.34	21.522
629.53	21.721
629.72	21.208
629.91	21.657
630.10	20.391
630.29	21.193
630.47	20.732
630.66	21.187
630.85	20.147
631.04	20.447
631.23	20.813
631.42	20.508
631.61	20.290
631.80	21.410
631.99	20.732
632.18	20.672
632.36	20.230
632.55	21.413
632.74	20.718
632.93	20.326
633.12	20.977
633.31	20.949
633.50	20.517
633.69	20.608
633.88	20.270
634.06	20.562
634.25	20.658
634.44	20.070
634.63	20.470
634.82	20.907
635.01	20.208
635.20	20.904
635.39	19.738
635.57	20.482
635.76	20.170
635.95	21.287
636.14	19.572
636.33	20.024
636.52	20.387
636.71	20.644
636.89	20.180
637.08	20.906
637.27	19.982
637.46	20.077
637.65	19.653
637.84	20.109
638.03	20.269
638.21	20.771
638.40	20.450
638.59	20.481
638.78	20.055
638.97	20.789
639.16	20.292
639.34	20.734
639.53	19.231
639.72	20.466
639.91	19.193
640.10	20.296
640.29	20.633
640.47	20.829
640.66	19.612
640.85	21.413
641.04	18.337
641.23	20.645
641.42	20.327
641.60	20.524
641.79	19.706
641.98	20.072
642.17	19.712
642.36	21.087
642.54	19.286
642.73	20.587
642.92	19.646
643.11	20.478
643.30	19.873
643.49	19.984
643.67	19.238
643.86	20.853
644.05	19.634
644.24	19.996
644.43	19.548
644.61	20.828
644.80	19.758
644.99	19.946
645.18	20.775
645.37	20.395
645.55	20.004
645.74	20.306
645.93	19.491
646.12	20.463
646.31	19.429
646.49	19.928
646.68	19.386
646.87	19.396
647.06	19.718
647.24	19.818
647.43	18.667
647.62	20.845
647.81	18.109
648.00	20.664
648.18	18.304
648.37	18.958
648.56	19.489
648.75	19.870
648.93	19.222
649.12	20.419
649.31	19.827
649.50	18.997
649.68	18.547
649.87	20.421
650.06	17.767
650.25	19.994
650.43	19.694
650.62	19.238
650.81	18.611
651.00	19.454
651.18	18.164
651.37	20.952
651.56	18.699
651.75	20.699
651.93	18.416
652.12	18.970
652.31	19.081
652.50	19.812
652.68	19.302
652.87	19.920
653.06	20.093
653.25	19.476
653.43	18.607
653.62	18.837
653.81	18.485
654.00	19.941
654.18	18.486
654.37	19.195
654.56	19.308
654.74	17.337
654.93	19.410
655.12	17.726
655.31	18.875
655.49	19.318
655.68	16.683
655.87	17.842
656.05	16.596
656.24	18.836
656.43	16.352
656.62	19.323
656.80	17.555
656.99	18.237
657.18	16.246
657.36	17.487
657.55	17.612
657.74	18.173
657.93	18.062
658.11	18.850
658.30	17.105
658.49	16.836
658.67	17.484
658.86	16.575
659.05	16.163
659.23	16.912
659.42	16.294
659.61	16.849
659.79	16.979
659.98	16.250
660.17	17.046
660.35	16.628
660.54	16.181
660.73	17.365
660.91	16.945
661.10	17.061
661.29	15.604
661.47	15.729
661.66	15.465
661.85	16.041
662.03	15.777
662.22	14.982
662.41	14.871
662.59	15.439
662.78	14.267
662.97	14.934
663.15	14.749
663.34	13.928
663.53	13.460
663.71	14.418
663.90	14.323
664.09	15.142
664.27	14.177
664.46	13.701
664.65	13.396
664.83	14.042
665.02	12.792
665.21	13.706
665.39	12.535
665.58	14.470
665.77	13.616
665.95	14.365
666.14	11.878
666.32	13.872
666.51	12.929
666.70	12.864
666.88	13.001
667.07	12.714
667.26	12.640
667.44	12.628
667.63	13.025
667.81	13.185
668.00	13.179
668.19	14.442
668.37	13.287
668.56	14.101
668.75	12.104
668.93	15.151
669.12	13.083
669.30	14.298
669.49	12.363
669.68	13.772
669.86	13.389
670.05	12.484
670.23	12.534
670.42	12.706
670.61	13.404
670.79	13.884
670.98	13.199
671.16	15.010
671.35	12.780
671.54	13.002
671.72	12.107
671.91	14.321
672.09	12.800
672.28	14.884
672.46	14.585
672.65	14.469
672.84	13.191
673.02	16.202
673.21	11.666
673.39	13.353
673.58	14.773
673.77	13.571
673.95	14.127
674.14	14.653
674.32	12.488
674.51	15.110
674.69	13.656
674.88	14.000
675.07	13.168
675.25	17.011
675.44	14.199
675.62	14.531
675.81	12.776
675.99	17.491
676.18	15.736
676.36	13.933
676.55	13.869
676.74	16.549
676.92	15.212
677.11	15.948
677.29	14.209
677.48	16.984
677.66	16.742
677.85	14.975
678.03	15.179
678.22	16.529
678.40	15.659
678.59	14.516
678.78	13.621
678.96	14.852
679.15	15.116
679.33	17.586
679.52	16.152
679.70	15.949
679.89	15.631
680.07	16.829
680.26	14.850
680.44	16.323
680.63	15.154
680.81	15.953
681.00	14.035
681.18	16.646
681.37	14.914
681.55	18.543
681.74	16.306
681.92	16.349
682.11	16.561
682.29	15.633
682.48	15.967
682.66	16.698
682.85	15.700
683.03	16.651
683.22	17.313
683.40	18.443
683.59	16.979
683.77	17.814
683.96	16.809
684.14	19.071
684.33	14.595
684.51	19.743
684.70	18.336
684.88	18.860
685.07	18.878
685.25	20.826
685.44	18.299
685.62	19.016
685.81	17.091
685.99	19.973
686.18	17.834
686.36	19.270
686.55	17.420
686.73	18.338
686.92	19.863
687.10	20.240
687.29	20.889
687.47	22.204
687.65	21.001
687.84	19.541
688.02	21.860
688.21	22.763
688.39	19.438
688.58	22.104
688.76	21.210
688.95	21.459
689.13	19.563
689.32	24.096
689.50	22.413
689.68	23.742
689.87	22.065
690.05	23.300
690.24	23.229
690.42	24.072
690.61	24.430
690.79	26.994
690.98	24.354
691.16	25.114
691.34	22.609
691.53	26.192
691.71	23.198
691.90	25.620
692.08	24.286
692.27	28.613
692.45	27.408
692.63	27.397
692.82	27.913
693.00	29.025
693.19	26.017
693.37	29.692
693.56	27.045
693.74	29.787
693.92	28.453
694.11	31.936
694.29	31.910
694.48	31.752
694.66	30.699
694.84	32.354
695.03	32.023
695.21	34.690
695.40	34.026
695.58	36.134
695.76	33.323
695.95	36.317
696.13	34.441
696.32	36.376
696.50	38.857
696.68	36.317
696.87	36.744
697.05	38.157
697.24	38.599
697.42	39.834
697.60	37.440
697.79	40.872
697.97	39.482
698.16	41.472
698.34	38.600
698.52	42.416
698.71	40.268
698.89	41.602
699.07	39.647
699.26	41.159
699.44	41.415
699.63	43.159
699.81	41.171
699.99	42.045
700.18	42.394
700.36	42.792
700.54	43.840
700.73	43.474
700.91	43.425
701.09	46.065
701.28	46.718
701.46	46.785
701.64	46.706
701.83	47.379
702.01	45.530
702.20	48.757
702.38	48.714
702.56	49.830
702.75	48.519
702.93	50.544
703.11	50.145
703.30	51.491
703.48	50.958
703.66	54.099
703.85	53.789
704.03	53.655
704.21	51.032
704.40	54.974
704.58	52.699
704.76	54.352
704.95	53.647
705.13	53.303
705.31	53.120
705.50	54.896
705.68	53.515
705.86	55.365
706.04	55.269
706.23	57.243
706.41	53.446
706.59	54.866
706.78	54.973
706.96	55.823
707.14	55.842
707.33	58.148
707.51	56.500
707.69	57.684
707.88	57.067
708.06	57.501
708.24	59.004
708.42	59.499
708.61	56.807
708.79	59.079
708.97	58.777
709.16	57.934
709.34	62.316
709.52	58.937
709.71	59.054
709.89	60.100
710.07	56.528
710.25	60.418
710.44	57.781
710.62	61.191
710.80	59.320
710.98	58.963
711.17	59.450
711.35	59.682
711.53	60.609
711.72	60.057
711.90	59.146
712.08	61.396
712.26	61.551
712.45	60.129
712.63	60.243
712.81	62.162
712.99	61.458
713.18	60.662
713.36	59.981
713.54	61.303
713.72	59.354
713.91	62.355
714.09	59.280
714.27	62.678
714.45	61.030
714.64	61.700
714.82	63.695
715.00	62.064
715.18	60.734
715.37	60.938
715.55	62.686
715.73	62.828
715.91	61.665
716.10	60.935
716.28	61.277
716.46	64.090
716.64	60.743
716.83	63.411
717.01	62.101
717.19	62.743
717.37	62.732
717.55	62.229
717.74	60.940
717.92	65.030
718.10	61.243
718.28	62.996
718.47	62.680
718.65	64.292
718.83	64.572
719.01	62.654
719.19	62.545
719.38	66.266
719.56	63.889
719.74	63.719
719.92	63.609
720.10	63.110
720.29	62.865
720.47	64.705
720.65	64.834
720.83	65.213
721.01	66.277
721.20	66.861
721.38	64.025
721.56	67.444
721.74	65.321
721.92	65.576
722.11	65.453
722.29	65.234
722.47	67.576
722.65	69.904
722.83	66.444
723.01	63.320
723.20	68.395
723.38	67.502
723.56	64.547
723.74	69.807
723.92	64.765
724.10	65.499
724.29	64.046
724.47	66.555
724.65	68.711
724.83	68.556
725.01	63.620
725.19	69.250
725.38	64.254
725.56	66.218
725.74	68.336
725.92	68.758
726.10	68.915
726.28	67.062
726.46	68.014
726.65	68.765
726.83	67.975
727.01	68.548
727.19	65.102
727.37	67.575
727.55	66.360
727.73	66.075
727.92	68.754
728.10	68.453
728.28	65.318
728.46	68.300
728.64	67.217
728.82	67.590
729.00	66.373
729.19	67.485
729.37	66.789
729.55	65.573
729.73	65.782
729.91	68.941
730.09	67.335
730.27	69.768
730.45	67.740
730.63	68.063
730.82	67.531
731.00	67.431
731.18	67.303
731.36	69.828
731.54	66.113
731.72	69.156
731.90	68.336
732.08	69.431
732.26	66.941
732.45	71.810
732.63	69.231
732.81	69.226
732.99	69.493
733.17	69.085
733.35	69.426
733.53	70.991
733.71	69.039
733.89	68.211
734.07	69.242
734.25	70.775
734.44	68.759
734.62	70.643
734.80	68.718
734.98	71.000
735.16	71.523
735.34	72.690
735.52	69.344
735.70	71.516
735.88	74.054
736.06	70.791
736.24	72.182
736.42	71.995
736.60	72.816
736.78	72.892
736.97	70.604
737.15	73.584
737.33	70.710
737.51	72.978
737.69	75.302
737.87	72.768
738.05	71.690
738.23	75.456
738.41	70.266
738.59	76.320
738.77	74.122
738.95	74.945
739.13	73.970
739.31	74.349
739.49	74.532
739.67	76.953
739.85	72.972
740.03	71.970
740.21	73.238
740.39	76.051
740.57	74.931
740.75	74.562
740.93	75.486
741.11	73.761
741.30	74.411
741.48	76.529
741.66	76.917
741.84	75.091
742.02	71.609
742.20	75.811
742.38	77.619
742.56	76.314
742.74	76.409
742.92	73.285
743.10	76.106
743.28	77.255
743.46	75.895
743.64	74.676
743.82	77.991
744.00	76.879
744.18	79.781
744.36	79.113
744.54	79.495
744.72	77.306
744.90	81.918
745.08	79.312
745.26	80.049
745.44	77.998
745.62	75.841
745.80	77.552
745.98	77.185
746.16	80.526
746.34	80.196
746.52	77.552
746.70	76.689
746.87	76.961
747.05	79.712
747.23	81.207
747.41	80.019
747.59	82.728
747.77	82.012
747.95	78.539
748.13	78.036
748.31	81.514
748.49	79.447
748.67	78.843
748.85	75.171
749.03	78.908
749.21	78.285
749.39	78.531
749.57	75.935
749.75	76.285
749.93	81.307
750.11	79.412
750.29	77.801
750.47	77.704
750.65	75.674
750.83	76.114
751.01	77.044
751.18	78.291
751.36	79.077
751.54	82.552
751.72	80.182
751.90	76.815
752.08	76.640
752.26	79.200
752.44	76.701
752.62	78.873
752.80	77.321
752.98	79.827
753.16	77.536
753.34	79.460
753.52	78.169
753.69	82.058
753.87	79.854
754.05	81.518
754.23	80.720
754.41	77.885
754.59	79.332
754.77	78.454
754.95	78.418
755.13	76.583
755.31	79.773
755.49	79.462
755.66	80.281
755.84	77.196
756.02	77.278
756.20	78.782
756.38	77.261
756.56	79.196
756.74	79.699
756.92	78.500
757.10	75.529
757.28	80.728
757.45	84.758
757.63	83.237
757.81	74.694
757.99	81.919
758.17	81.717
758.35	79.766
758.53	80.591
758.71	81.163
758.88	79.683
759.06	78.225
759.24	73.047
759.42	76.809
759.60	74.961
759.78	79.913
759.96	73.419
760.13	74.197
760.31	69.240
760.49	70.294
760.67	69.386
760.85	73.237
761.03	71.433
761.21	65.724
761.38	70.293
761.56	71.996
761.74	68.290
761.92	70.789
762.10	66.774
762.28	69.553
762.46	67.040
762.63	71.316
762.81	70.629
762.99	71.316
763.17	70.389
763.35	69.458
763.53	70.151
763.70	68.625
763.88	69.841
764.06	68.069
764.24	69.468
764.42	69.486
764.60	67.163
764.77	68.017
764.95	68.736
765.13	67.355
765.31	70.798
765.49	69.456
765.66	69.058
765.84	71.404
766.02	70.433
766.20	74.524
766.38	74.292
766.56	72.055
766.73	72.887
766.91	72.924
767.09	79.867
767.27	78.889
767.45	75.053
767.62	76.036
767.80	73.512
767.98	75.108
768.16	74.969
768.33	78.449
768.51	77.890
768.69	77.720
768.87	71.882
769.05	79.831
769.22	75.667
769.40	80.663
769.58	80.386
769.76	82.419
769.94	79.240
770.11	79.208
770.29	77.477
770.47	79.427
770.65	80.853
770.82	81.143
771.00	82.837
771.18	81.358
771.36	81.843
771.53	81.978
771.71	80.270
771.89	83.808
772.07	82.134
772.25	80.359
772.42	80.926
772.60	83.369
772.78	78.950
772.96	83.455
773.13	85.498
773.31	82.131
773.49	82.350
773.67	83.304
773.84	82.558
774.02	79.416
774.20	80.116
774.37	85.932
774.55	81.706
774.73	79.974
774.91	78.685
775.08	82.303
775.26	83.493
775.44	86.819
775.62	79.296
775.79	80.277
775.97	81.407
776.15	82.348
776.32	77.737
776.50	84.251
776.68	88.366
776.86	86.841
777.03	78.122
777.21	81.217
777.39	78.963
777.56	84.887
777.74	77.490
777.92	77.772
778.10	83.317
778.27	82.927
778.45	85.134
778.63	83.112
778.80	79.327
778.98	84.241
779.16	85.504
779.34	84.679
779.51	84.650
779.69	77.932
779.87	84.081
780.04	81.081
780.22	78.561
780.40	82.146
780.57	81.131
780.75	77.485
780.93	84.322
781.10	83.684
781.28	89.257
781.46	79.869
781.63	79.951
781.81	86.010
781.99	76.647
782.16	81.809
782.34	82.635
782.52	86.211
782.69	86.523
782.87	85.498
783.05	82.435
783.22	84.558
783.40	78.571
783.58	84.274
783.75	75.825
783.93	81.271
784.11	75.619
784.28	83.699
784.46	83.720
784.64	80.697
784.81	84.637
784.99	89.041
785.17	77.977
785.34	80.023
785.52	75.837
785.69	81.881
785.87	79.335
786.05	78.174
786.22	76.310
786.40	88.209
786.58	78.540
786.75	86.781
786.93	82.147
787.11	79.820
787.28	89.194
787.46	85.284
787.63	83.149
787.81	87.514
787.99	81.925
788.16	74.869
788.34	82.548
788.51	81.622
788.69	74.780
788.87	77.751
789.04	75.642
789.22	79.491
789.39	78.153
789.57	79.480
789.75	75.203
789.92	81.556
790.10	75.214
790.27	79.509
790.45	73.974
790.63	76.756
790.80	75.847
790.98	81.064
791.15	78.381
791.33	78.023
791.51	80.357
791.68	81.003
791.86	76.011
792.03	78.885
792.21	78.739
792.39	78.207
792.56	77.430
792.74	82.631
792.91	79.519
793.09	75.991
793.26	71.757
793.44	85.045
793.62	78.739
793.79	82.772
793.97	78.674
794.14	85.609
794.32	80.571
794.49	79.038
794.67	72.525
794.84	76.421
795.02	75.729
795.20	79.784
795.37	72.711
795.55	80.919
795.72	76.734
795.90	75.891
796.07	80.000
796.25	78.786
796.42	78.535
796.60	81.691
796.77	78.015
796.95	82.416
797.13	76.962
797.30	79.310
797.48	73.891
797.65	75.715
797.83	75.079
798.00	76.364
798.18	73.381
798.35	80.873
798.53	76.940
798.70	75.632
798.88	74.657
799.05	82.187
799.23	76.254
799.40	77.325
799.58	77.973
799.75	77.931
799.93	77.173
800.10	81.197
800.28	78.867
800.45	83.134
800.63	71.292
800.80	80.427
800.98	79.761
801.15	77.543
801.33	80.479
801.50	79.599
801.68	70.810
801.85	79.229
802.03	75.093
802.20	79.950
802.38	76.112
802.55	73.220
802.73	75.050
802.90	75.078
803.08	68.999
803.25	83.015
803.43	81.861
803.60	79.164
803.78	80.729
803.95	82.963
804.13	74.548
804.30	83.247
804.48	73.730
804.65	76.683
804.83	82.178
805.00	76.913
805.17	80.647
805.35	82.093
805.52	75.638
805.70	78.818
805.87	74.456
806.05	80.240
806.22	76.133
806.40	78.493
806.57	77.883
806.75	82.369
806.92	81.867
807.09	79.243
807.27	71.698
807.44	76.245
807.62	75.677
807.79	76.489
807.97	75.719
808.14	73.562
808.31	78.368
808.49	81.525
808.66	70.785
808.84	76.704
809.01	82.370
809.19	77.013
809.36	81.532
809.53	79.128
809.71	77.592
809.88	80.516
810.06	77.478
810.23	76.794
810.41	81.174
810.58	79.199
810.75	71.523
810.93	78.157
811.10	78.687
811.28	84.736
811.45	77.616
811.62	75.093
811.80	75.020
811.97	82.855
812.15	77.947
812.32	76.772
812.49	74.792
812.67	71.844
812.84	69.421
813.02	76.853
813.19	71.493
813.36	76.561
813.54	76.055
813.71	80.711
813.89	73.118
814.06	72.826
814.23	70.736
814.41	68.977
814.58	70.887
814.75	73.127
814.93	69.283
815.10	75.970
815.28	71.100
815.45	72.182
815.62	81.754
815.80	66.796
815.97	71.707
816.14	77.383
816.32	63.658
816.49	73.831
816.66	67.883
816.84	72.719
817.01	67.637
817.18	72.915
817.36	71.066
817.53	72.179
817.71	58.108
817.88	75.566
818.05	69.097
818.23	68.891
818.40	69.141
818.57	71.178
818.75	65.974
818.92	63.798
819.09	68.265
819.27	74.734
819.44	69.695
819.61	70.688
819.79	72.644
819.96	74.507
820.13	63.922
820.31	72.524
820.48	68.829
820.65	69.923
820.82	68.127
821.00	73.260
821.17	67.482
821.34	66.196
821.52	70.046
821.69	69.827
821.86	66.284
822.04	70.483
822.21	66.191
822.38	68.898
822.56	66.995
822.73	65.188
822.90	63.534
823.07	64.670
823.25	64.705
823.42	63.416
823.59	64.867
823.77	63.843
823.94	64.596
824.11	62.930
824.29	64.037
824.46	63.206
824.63	65.418
824.80	66.085
824.98	65.146
825.15	66.335
825.32	66.207
825.49	69.008
825.67	66.082
825.84	70.166
826.01	66.912
826.19	70.829
826.36	67.373
826.53	70.514
826.70	68.669
826.88	73.284
827.05	65.572
827.22	66.777
827.39	65.707
827.57	66.452
827.74	63.040
827.91	66.374
828.08	64.579
828.26	67.722
828.43	63.944
828.60	67.296
828.77	65.322
828.95	66.282
829.12	64.464
829.29	62.894
829.46	62.696
829.64	68.588
829.81	61.251
829.98	67.345
830.15	61.720
830.32	68.047
830.50	65.071
830.67	65.876
830.84	65.839
831.01	62.731
831.19	63.366
831.36	69.117
831.53	68.470
831.70	66.003
831.87	62.697
832.05	64.612
832.22	73.777
832.39	66.156
832.56	61.604
832.74	67.435
832.91	57.263
833.08	70.787
833.25	62.919
833.42	62.613
833.60	64.956
833.77	58.709
833.94	59.263
834.11	62.872
834.28	56.119
834.45	69.571
834.63	61.100
834.80	64.656
834.97	63.284
835.14	67.708
835.31	63.704
835.49	64.882
835.66	63.522
835.83	65.482
836.00	64.690
836.17	62.684
836.34	60.770
836.52	67.262
836.69	69.313
836.86	69.276
837.03	69.096
837.20	65.802
837.37	61.166
837.55	62.078
837.72	63.563
837.89	68.759
838.06	76.797
838.23	71.906
838.40	68.057
838.58	67.420
838.75	74.447
838.92	70.898
839.09	79.307
839.26	66.787
839.43	86.397
839.60	78.746
839.78	80.145
839.95	80.946
840.12	69.482
840.29	87.465
840.46	82.207
840.63	73.420
840.80	80.297
840.98	77.767
841.15	69.656
841.32	72.437
841.49	68.178
841.66	77.664
841.83	65.357
842.00	64.585
842.17	80.443
842.34	64.746
842.52	80.041
842.69	75.858
842.86	80.140
843.03	99.382
843.20	80.881
843.37	80.778
843.54	84.483
843.71	83.377
843.88	78.720
844.06	102.639
844.23	81.150
844.40	84.789
844.57	84.317
844.74	94.746
844.91	85.736
845.08	87.215
845.25	92.101
845.42	99.637
845.59	100.193
845.76	94.659
845.94	97.340
846.11	108.725
846.28	86.550
846.45	106.501
846.62	116.340
846.79	98.052
846.96	91.715
847.13	103.036
847.30	92.349
847.47	87.373
847.64	88.605
847.81	83.819
847.98	110.166
848.15	104.632
848.32	108.175
848.50	112.451
848.67	90.128
848.84	110.121
849.01	109.146
849.18	95.092
849.35	105.731
849.52	112.079
849.69	112.761
849.86	140.271
850.03	97.658
850.20	113.321
850.37	95.161
850.54	88.932
850.71	113.082
850.88	80.705
851.05	103.125
851.22	103.495
851.39	101.898
851.56	101.302
851.73	114.824
851.90	111.239
852.07	106.475
852.24	96.282
852.41	95.717
852.58	91.667
852.75	86.279
852.92	97.787
853.09	142.697
853.26	112.632
853.43	109.556
853.60	87.110
853.77	100.932
853.94	105.339
854.11	119.490
854.28	122.683
854.45	100.889
854.62	124.156
854.79	98.673
854.96	106.378
855.13	111.601
855.30	119.000
855.47	112.500
855.64	101.559
855.81	94.019
855.98	133.333
856.15	101.829
856.32	89.353
856.49	120.331
856.66	111.737
856.83	116.379
857.00	99.372
857.17	115.177
857.34	87.281
857.51	95.385
857.68	111.695
857.85	133.559
858.02	111.491
858.19	92.944
858.36	116.790
858.53	109.636
858.70	100.658
858.87	133.889
859.04	98.190
859.21	100.862
859.38	105.625
859.55	115.085
859.72	142.775
859.89	131.778
860.05	126.471
860.22	106.316
860.39	100.227
860.56	105.808
860.73	134.368
860.90	89.269
861.07	126.941
861.24	108.696
861.41	105.556
861.58	102.118
861.75	102.864
861.92	100.875
862.09	114.684
862.26	108.274
862.43	121.212
862.59	102.315
862.76	103.822
862.93	121.892
863.10	101.671
863.27	107.375
863.44	110.539
863.61	95.227
863.78	123.284
863.95	123.515
864.12	145.483
864.29	113.070
864.45	113.098
864.62	110.471
864.79	122.772
864.96	94.789
865.13	106.874
865.30	123.571
865.47	128.412
865.64	130.189
865.81	130.028
865.97	98.561
866.14	107.572
866.31	84.507
866.48	106.926
866.65	107.552
866.82	123.261
866.99	133.245
867.16	124.346
867.33	103.765
867.49	95.355
867.66	116.627
867.83	102.863
868.00	118.765
868.17	116.954
868.34	107.812
868.51	86.473
868.67	99.289
868.84	108.736
869.01	108.295
869.18	102.195
869.35	95.585
869.52	97.500
869.69	146.037
869.85	122.222
870.02	108.738
870.19	120.335
870.36	107.672
870.53	93.240
870.70	118.298
870.86	101.813
871.03	113.457
871.20	98.020
871.37	116.446
871.54	115.217
871.71	113.350
871.87	96.467
872.04	142.904
872.21	112.583
872.38	111.736
872.55	126.582
872.72	102.027
872.88	116.620
873.05	93.425
873.22	103.448
873.39	105.910
873.56	93.850
873.72	104.567
873.89	125.000
874.06	104.639
874.23	122.513
874.40	97.495
874.56	107.277
874.73	95.631
874.90	112.032
875.07	89.301
875.24	91.169
875.40	79.551
875.57	112.955
875.74	139.756
875.91	122.764
876.08	89.648
876.24	96.281
876.41	138.071
876.58	104.296
876.75	119.835
876.92	105.357
877.08	91.016
877.25	95.361
877.42	93.496
877.59	124.159
877.75	114.257
877.92	72.624
878.09	102.552
878.26	98.193
878.42	117.021
878.59	103.761
878.76	95.257
878.93	121.267
879.09	93.668
879.26	100.000
879.43	90.787
879.60	87.902
879.76	82.562
879.93	94.307
880.10	79.302
880.27	71.314
880.43	72.026
880.60	65.204
880.77	69.846
880.94	70.412
881.10	62.396
881.27	67.882
881.44	55.936
881.61	64.396
881.77	63.084
881.94	56.269
882.11	51.351
882.28	51.357
882.44	60.086
882.61	59.913
882.78	57.308
882.94	66.125
883.11	60.339
883.28	65.162
883.45	60.628
883.61	60.114
883.78	62.843
883.95	66.679
884.11	59.592
884.28	62.698
>>>>>End Processed Spectral Data<<<<<
