SpectraSuite Data File
++++++++++++++++++++++++++++++++++++
Date: Mon Sep 23 04:40:31 EST 2019
User: sgrac
Dark Spectrum Present: Yes
Reference Spectrum Present: Yes
Number of Sampled Component Spectra: 1
Spectrometers: USB4E01596
Integration Time (usec): 100000 (USB4E01596)
Spectra Averaged: 3 (USB4E01596)
Boxcar Smoothing: 0 (USB4E01596)
Correct for Electrical Dark: No (USB4E01596)
Strobe/Lamp Enabled: Yes (USB4E01596)
Correct for Detector Non-linearity: No (USB4E01596)
Correct for Stray Light: No (USB4E01596)
Number of Pixels in Processed Spectrum: 3648
>>>>>Begin Processed Spectral Data<<<<<
178.44	1538.462
178.66	1538.462
178.87	1538.462
179.09	6933.333
179.30	-5100.000
179.52	-735.484
179.74	-603.774
179.95	734.091
180.17	-758.333
180.38	614.035
180.60	-3109.091
180.82	868.889
181.03	4800.000
181.25	-2775.000
181.46	-1532.000
181.68	1391.667
181.89	-670.455
182.11	-2037.500
182.33	-2187.500
182.54	718.750
182.76	4733.333
182.97	-640.426
183.19	1655.000
183.40	322.314
183.62	452.564
183.84	363.636
184.05	5014.286
184.27	413.636
184.48	548.485
184.70	2023.529
184.91	1642.857
185.13	3390.000
185.34	-15700.000
185.56	1565.385
185.78	416.667
185.99	1116.667
186.21	428.409
186.42	-6250.000
186.64	2220.000
186.85	-6260.000
187.07	626.000
187.28	406.579
187.50	674.545
187.72	408.974
187.93	756.364
188.15	378.125
188.36	575.000
188.58	573.469
188.79	303.846
189.01	597.183
189.22	991.892
189.44	-896.970
189.65	361.017
189.87	-6725.000
190.09	636.508
190.30	883.333
190.52	671.667
190.73	678.261
190.95	-4216.667
191.16	400.000
191.38	572.973
191.59	520.588
191.81	587.097
192.02	2140.000
192.24	928.125
192.45	1082.353
192.67	-1900.000
192.88	550.943
193.10	580.328
193.31	855.000
193.53	333.065
193.74	368.000
193.96	2521.429
194.18	1153.846
194.39	2160.000
194.61	517.808
194.82	1722.727
195.04	440.244
195.25	-556.140
195.47	-505.556
195.68	5300.000
195.90	540.000
196.11	502.985
196.33	31700.000
196.54	802.439
196.76	1985.714
196.97	485.714
197.19	794.595
197.40	2878.571
197.62	303.670
197.83	1093.548
198.05	650.909
198.26	1162.069
198.48	466.197
198.69	551.667
198.91	1622.222
199.12	746.512
199.34	743.478
199.55	431.429
199.77	1973.684
199.98	1094.118
200.20	440.789
200.41	504.839
200.63	373.451
200.84	2328.571
201.06	3344.444
201.27	895.122
201.49	501.408
201.70	-1083.333
201.91	493.056
202.13	608.475
202.34	636.207
202.56	-1468.000
202.77	653.333
202.99	6350.000
203.20	-4312.500
203.42	2118.750
203.63	392.105
203.85	4950.000
204.06	606.000
204.28	304.040
204.49	572.222
204.71	542.373
204.92	1280.769
205.14	0.000
205.35	903.333
205.56	-1530.000
205.78	7860.000
205.99	-2342.857
206.21	14050.000
206.42	838.636
206.64	1048.387
206.85	966.667
207.07	-3066.667
207.28	551.724
207.50	736.957
207.71	954.839
207.93	410.843
208.14	-1011.111
208.35	529.091
208.57	1176.000
208.78	-3588.889
209.00	321.277
209.21	-13850.000
209.43	-10933.333
209.64	-2053.333
209.86	322.680
210.07	441.860
210.28	507.042
210.50	1100.000
210.71	527.451
210.93	233.824
211.14	489.888
211.36	2218.750
211.57	510.606
211.78	468.571
212.00	387.059
212.21	478.571
212.43	905.128
212.64	374.468
212.86	533.784
213.07	379.817
213.29	-783.333
213.50	406.522
213.71	372.414
213.93	492.683
214.14	1972.727
214.36	425.000
214.57	440.506
214.78	1008.889
215.00	346.875
215.21	1186.667
215.43	878.378
215.64	382.540
215.86	353.750
216.07	822.857
216.28	855.263
216.50	337.500
216.71	33400.000
216.93	578.788
217.14	1672.222
217.35	303.788
217.57	309.910
217.78	377.778
218.00	330.303
218.21	1295.652
218.42	712.766
218.64	491.071
218.85	590.000
219.07	1150.000
219.28	367.290
219.49	631.373
219.71	483.077
219.92	225.373
220.14	357.732
220.35	473.333
220.56	360.920
220.78	312.500
220.99	271.774
221.21	373.118
221.42	382.716
221.63	229.480
221.85	455.385
222.06	322.857
222.28	423.077
222.49	262.162
222.70	263.780
222.92	712.245
223.13	503.279
223.34	282.270
223.56	333.333
223.77	355.000
223.99	323.158
224.20	430.357
224.41	375.342
224.63	298.864
224.84	238.514
225.05	137.179
225.27	287.826
225.48	303.922
225.69	259.398
225.91	409.459
226.12	241.860
226.34	224.832
226.55	168.345
226.76	216.250
226.98	152.941
227.19	149.219
227.40	278.906
227.62	178.307
227.83	147.639
228.04	116.201
228.26	84.062
228.47	94.618
228.69	60.152
228.90	45.416
229.11	57.751
229.33	45.925
229.54	35.521
229.75	36.028
229.97	40.377
230.18	39.213
230.39	44.469
230.61	43.776
230.82	38.204
231.03	35.987
231.25	40.492
231.46	50.679
231.67	43.644
231.89	56.128
232.10	50.688
232.31	56.765
232.53	62.139
232.74	60.000
232.95	58.439
233.17	59.400
233.38	57.983
233.59	58.442
233.81	69.746
234.02	44.088
234.23	65.780
234.45	67.882
234.66	66.372
234.87	64.344
235.09	68.650
235.30	49.562
235.51	60.142
235.73	61.039
235.94	58.200
236.15	59.590
236.36	56.075
236.58	44.150
236.79	47.788
237.00	51.320
237.22	64.796
237.43	46.677
237.64	60.000
237.86	55.639
238.07	60.137
238.28	56.774
238.50	56.588
238.71	56.655
238.92	47.969
239.13	56.610
239.35	48.834
239.56	54.770
239.77	59.812
239.99	49.929
240.20	59.557
240.41	42.898
240.63	46.765
240.84	38.433
241.05	36.880
241.26	30.777
241.48	34.451
241.69	25.648
241.90	21.161
242.12	23.850
242.33	23.319
242.54	20.699
242.75	22.730
242.97	16.238
243.18	17.248
243.39	16.116
243.61	16.736
243.82	16.667
244.03	16.016
244.24	14.013
244.46	16.904
244.67	18.025
244.88	17.945
245.09	19.681
245.31	23.465
245.52	17.842
245.73	16.082
245.95	37.362
246.16	21.030
246.37	18.043
246.58	19.700
246.80	17.741
247.01	17.354
247.22	13.965
247.43	14.657
247.65	11.379
247.86	11.666
248.07	8.859
248.28	10.644
248.50	9.176
248.71	8.231
248.92	7.408
249.13	8.649
249.35	10.432
249.56	11.572
249.77	12.361
249.98	11.597
250.20	13.318
250.41	15.328
250.62	17.643
250.83	17.272
251.05	18.336
251.26	15.170
251.47	17.851
251.68	19.932
251.90	19.090
252.11	20.316
252.32	22.720
252.53	17.738
252.75	16.530
252.96	21.070
253.17	14.205
253.38	15.256
253.59	16.667
253.81	16.002
254.02	15.785
254.23	13.309
254.44	17.473
254.66	14.809
254.87	18.453
255.08	22.112
255.29	18.342
255.50	19.366
255.72	19.571
255.93	22.496
256.14	26.888
256.35	23.035
256.57	27.977
256.78	24.866
256.99	24.700
257.20	30.428
257.41	24.769
257.63	26.676
257.84	18.691
258.05	18.428
258.26	20.617
258.47	20.323
258.69	19.646
258.90	17.311
259.11	15.350
259.32	16.425
259.53	12.152
259.75	13.576
259.96	9.934
260.17	9.857
260.38	7.776
260.59	9.079
260.81	7.726
261.02	6.992
261.23	6.906
261.44	7.870
261.65	6.493
261.87	6.463
262.08	8.103
262.29	9.109
262.50	8.848
262.71	6.275
262.92	11.038
263.14	10.431
263.35	11.247
263.56	10.780
263.77	14.275
263.98	16.599
264.20	14.577
264.41	14.006
264.62	11.340
264.83	11.914
265.04	20.649
265.25	16.097
265.47	14.978
265.68	17.109
265.89	12.711
266.10	9.042
266.31	15.266
266.52	13.624
266.74	13.053
266.95	15.657
267.16	12.709
267.37	10.395
267.58	13.361
267.79	14.917
268.01	11.681
268.22	11.223
268.43	10.571
268.64	10.542
268.85	10.625
269.06	10.105
269.27	13.298
269.49	8.889
269.70	12.008
269.91	12.913
270.12	11.324
270.33	11.531
270.54	9.317
270.75	12.080
270.97	12.634
271.18	10.876
271.39	9.200
271.60	10.294
271.81	11.496
272.02	9.662
272.23	11.774
272.45	10.685
272.66	7.648
272.87	7.682
273.08	6.378
273.29	10.609
273.50	8.945
273.71	8.200
273.92	8.217
274.14	9.284
274.35	9.519
274.56	8.535
274.77	7.305
274.98	10.142
275.19	9.474
275.40	11.678
275.61	7.719
275.83	13.266
276.04	11.891
276.25	13.090
276.46	11.338
276.67	12.412
276.88	13.108
277.09	10.741
277.30	11.035
277.51	12.057
277.73	6.783
277.94	9.794
278.15	14.530
278.36	10.510
278.57	10.237
278.78	10.022
278.99	11.344
279.20	11.561
279.41	11.887
279.62	9.115
279.84	10.738
280.05	11.906
280.26	14.195
280.47	11.178
280.68	10.228
280.89	11.868
281.10	10.327
281.31	9.346
281.52	11.458
281.73	8.981
281.94	8.189
282.16	10.835
282.37	8.688
282.58	8.606
282.79	11.042
283.00	9.764
283.21	7.319
283.42	7.272
283.63	8.667
283.84	8.584
284.05	8.083
284.26	8.603
284.47	7.652
284.68	8.318
284.89	9.281
285.11	9.600
285.32	7.342
285.53	7.460
285.74	9.523
285.95	6.241
286.16	7.845
286.37	7.445
286.58	7.793
286.79	5.861
287.00	7.054
287.21	5.703
287.42	6.495
287.63	7.379
287.84	6.489
288.05	6.586
288.26	6.736
288.48	7.688
288.69	5.949
288.90	8.908
289.11	8.784
289.32	8.902
289.53	9.017
289.74	6.580
289.95	8.422
290.16	7.796
290.37	6.538
290.58	5.593
290.79	5.036
291.00	6.498
291.21	6.946
291.42	6.201
291.63	6.694
291.84	9.596
292.05	6.617
292.26	6.383
292.47	7.905
292.68	5.720
292.89	8.321
293.10	9.222
293.31	7.556
293.52	5.523
293.73	8.547
293.94	8.041
294.15	7.380
294.36	9.080
294.57	8.140
294.79	6.577
295.00	6.556
295.21	8.871
295.42	8.539
295.63	8.506
295.84	6.456
296.05	7.625
296.26	4.716
296.47	6.365
296.68	8.406
296.89	7.873
297.10	7.349
297.31	7.018
297.52	5.530
297.73	6.981
297.94	5.191
298.15	5.016
298.36	5.398
298.57	6.240
298.78	6.594
298.99	5.334
299.20	5.582
299.41	6.344
299.62	6.789
299.83	5.059
300.04	4.889
300.25	6.275
300.46	8.330
300.67	7.998
300.88	6.319
301.09	8.137
301.30	6.997
301.50	7.198
301.71	8.265
301.92	9.399
302.13	8.562
302.34	5.979
302.55	6.228
302.76	6.690
302.97	6.842
303.18	8.354
303.39	8.116
303.60	7.168
303.81	8.335
304.02	6.914
304.23	7.458
304.44	6.994
304.65	5.984
304.86	7.278
305.07	6.501
305.28	6.191
305.49	8.158
305.70	7.928
305.91	6.999
306.12	7.373
306.33	6.766
306.54	6.456
306.75	7.768
306.96	9.393
307.17	8.042
307.38	9.043
307.58	7.583
307.79	6.410
308.00	7.686
308.21	8.210
308.42	8.247
308.63	7.600
308.84	7.730
309.05	6.091
309.26	5.009
309.47	6.548
309.68	7.660
309.89	7.762
310.10	7.107
310.31	7.484
310.52	4.970
310.73	7.130
310.94	4.686
311.14	6.779
311.35	5.040
311.56	6.724
311.77	5.687
311.98	5.538
312.19	5.735
312.40	5.757
312.61	4.802
312.82	6.513
313.03	5.519
313.24	7.293
313.45	5.786
313.66	5.817
313.86	7.596
314.07	7.358
314.28	8.033
314.49	6.832
314.70	8.235
314.91	6.815
315.12	6.289
315.33	8.300
315.54	5.810
315.75	8.140
315.96	5.656
316.16	7.293
316.37	5.157
316.58	7.510
316.79	6.620
317.00	7.216
317.21	7.789
317.42	8.298
317.63	7.284
317.84	6.504
318.05	7.516
318.25	8.147
318.46	7.135
318.67	5.657
318.88	7.103
319.09	6.999
319.30	7.262
319.51	7.358
319.72	8.683
319.93	6.453
320.13	7.603
320.34	8.617
320.55	8.720
320.76	9.467
320.97	6.996
321.18	7.611
321.39	6.693
321.60	8.469
321.80	8.554
322.01	6.950
322.22	5.214
322.43	7.622
322.64	7.269
322.85	7.313
323.06	7.704
323.27	7.233
323.47	8.153
323.68	7.729
323.89	7.101
324.10	7.570
324.31	7.723
324.52	7.777
324.73	8.798
324.93	7.195
325.14	7.060
325.35	7.331
325.56	4.903
325.77	7.208
325.98	7.893
326.19	7.135
326.39	5.560
326.60	5.187
326.81	5.788
327.02	6.900
327.23	6.344
327.44	6.887
327.64	5.749
327.85	5.625
328.06	5.866
328.27	8.583
328.48	6.038
328.69	5.594
328.90	5.861
329.10	8.663
329.31	7.033
329.52	5.484
329.73	7.870
329.94	6.638
330.15	5.992
330.35	9.812
330.56	7.851
330.77	6.345
330.98	6.289
331.19	7.086
331.39	8.179
331.60	7.839
331.81	6.858
332.02	6.574
332.23	5.724
332.44	7.399
332.64	6.580
332.85	6.353
333.06	6.321
333.27	6.459
333.48	6.245
333.68	5.779
333.89	6.018
334.10	6.346
334.31	5.738
334.52	4.850
334.72	5.213
334.93	5.988
335.14	5.575
335.35	6.263
335.56	7.538
335.76	6.586
335.97	5.489
336.18	6.562
336.39	7.554
336.60	6.170
336.80	5.738
337.01	5.104
337.22	5.533
337.43	6.359
337.64	7.380
337.84	6.545
338.05	5.472
338.26	8.939
338.47	7.329
338.68	5.545
338.88	6.391
339.09	5.910
339.30	5.921
339.51	6.135
339.71	5.394
339.92	5.370
340.13	6.407
340.34	6.249
340.55	6.975
340.75	7.745
340.96	5.418
341.17	7.088
341.38	6.294
341.58	6.943
341.79	5.905
342.00	5.527
342.21	7.030
342.41	5.707
342.62	5.349
342.83	6.037
343.04	4.730
343.24	5.822
343.45	5.084
343.66	5.203
343.87	4.650
344.07	4.712
344.28	5.336
344.49	5.493
344.70	6.017
344.90	4.857
345.11	3.472
345.32	6.482
345.53	6.650
345.73	6.465
345.94	6.183
346.15	6.288
346.36	4.890
346.56	4.892
346.77	5.136
346.98	4.039
347.19	5.299
347.39	4.111
347.60	5.749
347.81	5.571
348.02	6.750
348.22	5.507
348.43	5.076
348.64	6.567
348.84	5.347
349.05	6.452
349.26	7.157
349.47	6.085
349.67	6.037
349.88	6.719
350.09	6.457
350.30	6.785
350.50	6.341
350.71	5.174
350.92	5.262
351.12	6.167
351.33	5.423
351.54	6.610
351.74	6.185
351.95	5.774
352.16	6.395
352.37	6.651
352.57	6.038
352.78	7.286
352.99	6.573
353.19	5.446
353.40	6.139
353.61	6.357
353.82	6.569
354.02	7.656
354.23	6.471
354.44	8.694
354.64	7.329
354.85	5.793
355.06	6.233
355.26	6.022
355.47	6.763
355.68	7.109
355.88	7.248
356.09	6.886
356.30	6.922
356.51	7.987
356.71	7.053
356.92	5.874
357.13	7.619
357.33	7.688
357.54	6.786
357.75	5.537
357.95	7.975
358.16	6.489
358.37	8.736
358.57	6.515
358.78	8.093
358.99	7.560
359.19	7.030
359.40	8.117
359.61	7.241
359.81	8.533
360.02	9.942
360.23	7.330
360.43	7.713
360.64	6.718
360.85	7.743
361.05	7.610
361.26	8.707
361.47	7.479
361.67	9.770
361.88	7.539
362.09	9.439
362.29	7.503
362.50	7.605
362.70	7.172
362.91	8.845
363.12	7.435
363.32	8.378
363.53	8.782
363.74	8.825
363.94	7.807
364.15	10.647
364.36	10.630
364.56	8.647
364.77	9.412
364.98	11.267
365.18	9.328
365.39	9.909
365.59	8.944
365.80	9.902
366.01	11.026
366.21	8.628
366.42	7.192
366.63	10.687
366.83	7.770
367.04	7.459
367.24	10.203
367.45	9.128
367.66	7.567
367.86	9.422
368.07	9.395
368.28	9.359
368.48	9.711
368.69	8.823
368.89	8.792
369.10	9.967
369.31	9.802
369.51	9.404
369.72	10.750
369.92	10.944
370.13	7.710
370.34	9.196
370.54	6.854
370.75	10.116
370.95	8.526
371.16	9.786
371.37	8.722
371.57	9.521
371.78	8.470
371.98	9.873
372.19	9.445
372.40	9.669
372.60	10.203
372.81	9.380
373.01	8.430
373.22	8.668
373.43	9.110
373.63	9.443
373.84	10.132
374.04	8.966
374.25	8.648
374.46	10.363
374.66	9.494
374.87	10.381
375.07	6.851
375.28	8.412
375.48	9.741
375.69	9.873
375.90	6.774
376.10	7.598
376.31	8.258
376.51	7.630
376.72	8.678
376.92	8.095
377.13	9.018
377.34	8.547
377.54	8.309
377.75	9.961
377.95	8.197
378.16	10.136
378.36	8.747
378.57	8.879
378.77	8.583
378.98	9.103
379.19	7.765
379.39	7.060
379.60	8.125
379.80	7.862
380.01	8.638
380.21	7.528
380.42	9.077
380.62	7.584
380.83	8.797
381.04	7.716
381.24	8.471
381.45	8.491
381.65	6.428
381.86	7.899
382.06	9.314
382.27	6.740
382.47	7.628
382.68	9.076
382.88	6.671
383.09	7.019
383.29	7.952
383.50	9.438
383.71	7.715
383.91	7.962
384.12	7.450
384.32	7.934
384.53	6.765
384.73	7.035
384.94	6.827
385.14	7.133
385.35	6.564
385.55	7.582
385.76	7.032
385.96	6.989
386.17	6.788
386.37	8.944
386.58	7.551
386.78	9.181
386.99	6.206
387.19	8.725
387.40	6.454
387.60	9.110
387.81	6.921
388.01	7.161
388.22	7.777
388.42	8.617
388.63	8.576
388.83	9.290
389.04	6.636
389.24	7.406
389.45	8.073
389.65	6.865
389.86	7.113
390.06	7.389
390.27	6.968
390.47	6.635
390.68	6.101
390.88	8.425
391.09	8.165
391.29	8.505
391.50	7.721
391.70	6.839
391.91	6.944
392.11	6.892
392.32	7.432
392.52	7.813
392.73	6.785
392.93	7.677
393.14	7.325
393.34	6.442
393.55	7.541
393.75	7.124
393.95	6.490
394.16	7.273
394.36	7.993
394.57	7.980
394.77	7.307
394.98	6.965
395.18	7.302
395.39	7.208
395.59	7.341
395.80	6.943
396.00	6.731
396.21	8.376
396.41	5.778
396.61	7.844
396.82	7.052
397.02	9.281
397.23	7.169
397.43	7.248
397.64	6.248
397.84	8.058
398.05	6.397
398.25	7.666
398.45	6.993
398.66	7.029
398.86	6.813
399.07	8.003
399.27	7.296
399.48	7.984
399.68	6.384
399.89	7.215
400.09	7.134
400.29	5.947
400.50	6.192
400.70	7.106
400.91	6.178
401.11	6.739
401.32	6.651
401.52	5.994
401.72	6.296
401.93	8.473
402.13	6.587
402.34	6.850
402.54	6.667
402.75	8.393
402.95	5.793
403.15	7.905
403.36	5.806
403.56	7.771
403.77	6.503
403.97	5.822
404.17	5.862
404.38	7.725
404.58	5.997
404.79	6.845
404.99	6.595
405.19	6.757
405.40	6.383
405.60	6.601
405.81	5.948
406.01	6.464
406.21	5.772
406.42	6.668
406.62	6.079
406.83	6.354
407.03	7.684
407.23	6.213
407.44	5.760
407.64	7.128
407.85	6.370
408.05	6.439
408.25	6.849
408.46	6.511
408.66	6.613
408.87	6.167
409.07	6.446
409.27	6.090
409.48	5.780
409.68	6.480
409.88	4.834
410.09	6.310
410.29	7.181
410.50	7.531
410.70	5.384
410.90	5.646
411.11	5.558
411.31	5.862
411.51	6.895
411.72	7.022
411.92	5.695
412.12	5.267
412.33	5.692
412.53	5.480
412.74	4.860
412.94	6.108
413.14	6.431
413.35	6.147
413.55	6.259
413.75	6.511
413.96	5.570
414.16	5.825
414.36	5.885
414.57	6.528
414.77	5.936
414.97	6.198
415.18	5.971
415.38	6.284
415.58	6.220
415.79	4.842
415.99	5.083
416.19	6.689
416.40	5.698
416.60	6.095
416.80	5.483
417.01	5.972
417.21	4.613
417.41	6.389
417.62	5.530
417.82	6.451
418.02	4.668
418.23	5.677
418.43	5.192
418.63	6.219
418.84	6.093
419.04	5.605
419.24	6.191
419.45	6.343
419.65	6.012
419.85	5.967
420.06	5.926
420.26	5.812
420.46	6.001
420.67	6.479
420.87	6.122
421.07	6.485
421.28	6.110
421.48	6.315
421.68	6.244
421.88	6.530
422.09	6.448
422.29	6.020
422.49	5.932
422.70	5.896
422.90	5.931
423.10	6.226
423.31	6.393
423.51	6.355
423.71	5.939
423.91	6.744
424.12	6.427
424.32	6.133
424.52	5.725
424.73	6.012
424.93	6.105
425.13	5.897
425.33	5.469
425.54	6.293
425.74	5.937
425.94	6.552
426.15	6.187
426.35	6.148
426.55	6.273
426.75	6.468
426.96	6.103
427.16	5.506
427.36	6.071
427.57	6.339
427.77	5.521
427.97	5.820
428.17	5.991
428.38	6.336
428.58	5.360
428.78	6.428
428.98	5.343
429.19	5.332
429.39	4.678
429.59	6.010
429.79	4.396
430.00	4.820
430.20	4.726
430.40	5.287
430.60	5.525
430.81	5.229
431.01	4.939
431.21	5.640
431.41	4.969
431.62	5.662
431.82	4.953
432.02	6.253
432.22	5.142
432.43	5.564
432.63	5.198
432.83	5.991
433.03	4.996
433.24	4.790
433.44	4.566
433.64	5.719
433.84	5.073
434.05	5.837
434.25	5.323
434.45	6.038
434.65	6.060
434.85	6.038
435.06	5.795
435.26	5.231
435.46	5.629
435.66	5.871
435.87	5.513
436.07	5.307
436.27	5.652
436.47	4.890
436.67	4.687
436.88	5.944
437.08	4.980
437.28	5.940
437.48	5.359
437.69	6.102
437.89	5.502
438.09	6.388
438.29	5.163
438.49	6.107
438.70	5.592
438.90	5.152
439.10	4.859
439.30	5.392
439.50	4.881
439.71	5.573
439.91	5.769
440.11	6.260
440.31	5.394
440.51	5.573
440.72	5.392
440.92	5.251
441.12	5.983
441.32	6.104
441.52	5.893
441.72	5.714
441.93	5.698
442.13	6.162
442.33	5.653
442.53	6.173
442.73	5.009
442.94	5.647
443.14	5.544
443.34	6.222
443.54	5.650
443.74	5.940
443.94	5.611
444.15	5.043
444.35	5.658
444.55	5.979
444.75	5.107
444.95	5.518
445.15	5.590
445.36	5.355
445.56	4.781
445.76	5.704
445.96	5.217
446.16	5.543
446.36	4.803
446.57	6.050
446.77	4.896
446.97	6.027
447.17	6.000
447.37	5.998
447.57	5.680
447.77	5.812
447.98	5.674
448.18	6.258
448.38	5.383
448.58	6.141
448.78	6.092
448.98	5.687
449.18	5.770
449.39	5.884
449.59	5.326
449.79	5.472
449.99	5.538
450.19	5.996
450.39	5.379
450.59	5.796
450.79	5.329
451.00	5.605
451.20	6.666
451.40	5.800
451.60	5.086
451.80	5.700
452.00	5.119
452.20	5.608
452.40	5.305
452.61	5.663
452.81	5.808
453.01	5.631
453.21	5.134
453.41	5.342
453.61	5.281
453.81	5.326
454.01	5.494
454.21	5.720
454.42	5.984
454.62	5.854
454.82	5.399
455.02	5.347
455.22	4.772
455.42	5.083
455.62	4.765
455.82	5.513
456.02	5.398
456.23	5.765
456.43	5.020
456.63	5.191
456.83	4.606
457.03	5.918
457.23	4.982
457.43	5.751
457.63	4.837
457.83	5.756
458.03	4.968
458.23	5.616
458.43	4.751
458.64	5.220
458.84	5.523
459.04	5.102
459.24	5.269
459.44	5.443
459.64	5.462
459.84	4.991
460.04	5.569
460.24	5.498
460.44	5.828
460.64	5.713
460.84	5.375
461.04	6.173
461.24	5.599
461.45	6.038
461.65	6.162
461.85	5.967
462.05	5.819
462.25	5.636
462.45	6.196
462.65	6.035
462.85	5.000
463.05	5.677
463.25	4.633
463.45	5.797
463.65	5.171
463.85	5.400
464.05	5.046
464.25	5.443
464.45	5.457
464.65	5.375
464.85	5.145
465.05	5.349
465.26	5.635
465.46	5.594
465.66	5.686
465.86	5.472
466.06	5.722
466.26	5.531
466.46	4.669
466.66	5.278
466.86	5.345
467.06	5.362
467.26	5.731
467.46	5.777
467.66	5.093
467.86	4.977
468.06	5.347
468.26	5.076
468.46	5.392
468.66	5.673
468.86	4.907
469.06	5.722
469.26	4.783
469.46	5.560
469.66	5.145
469.86	5.453
470.06	4.879
470.26	6.040
470.46	4.840
470.66	6.293
470.86	4.872
471.06	5.345
471.26	4.815
471.46	5.147
471.66	5.201
471.86	5.453
472.06	5.166
472.26	5.832
472.46	6.349
472.66	6.024
472.86	5.602
473.06	5.583
473.26	5.417
473.46	6.100
473.66	5.381
473.86	5.760
474.06	5.125
474.26	5.778
474.46	4.673
474.66	5.700
474.86	5.509
475.06	6.081
475.26	4.894
475.46	6.031
475.66	5.041
475.86	5.609
476.06	6.333
476.26	6.467
476.46	5.568
476.66	6.049
476.86	5.150
477.06	5.998
477.26	5.338
477.46	5.963
477.65	5.690
477.85	6.479
478.05	5.431
478.25	6.687
478.45	5.666
478.65	6.333
478.85	5.748
479.05	6.245
479.25	5.931
479.45	6.609
479.65	5.925
479.85	6.159
480.05	5.633
480.25	6.165
480.45	6.575
480.65	6.452
480.85	5.939
481.05	6.497
481.25	6.771
481.44	6.747
481.64	5.598
481.84	6.742
482.04	6.332
482.24	6.913
482.44	6.186
482.64	6.561
482.84	6.170
483.04	6.491
483.24	6.258
483.44	6.355
483.64	6.324
483.84	6.443
484.04	6.573
484.23	6.641
484.43	6.734
484.63	6.818
484.83	6.892
485.03	7.242
485.23	7.182
485.43	7.167
485.63	7.047
485.83	7.201
486.03	7.059
486.23	7.291
486.42	7.174
486.62	7.176
486.82	6.925
487.02	6.816
487.22	6.724
487.42	7.034
487.62	6.687
487.82	6.731
488.02	6.788
488.22	6.885
488.41	6.954
488.61	6.976
488.81	7.018
489.01	7.079
489.21	7.284
489.41	7.335
489.61	7.019
489.81	7.141
490.01	7.308
490.20	7.517
490.40	7.337
490.60	7.440
490.80	7.059
491.00	7.316
491.20	6.913
491.40	6.916
491.60	6.800
491.79	7.028
491.99	6.858
492.19	6.984
492.39	6.911
492.59	6.999
492.79	7.124
492.99	7.098
493.19	7.202
493.38	7.361
493.58	7.110
493.78	7.245
493.98	7.430
494.18	7.492
494.38	7.231
494.58	7.724
494.77	6.964
494.97	7.354
495.17	6.969
495.37	7.335
495.57	7.212
495.77	7.166
495.96	6.915
496.16	7.056
496.36	6.677
496.56	7.146
496.76	6.723
496.96	6.867
497.15	6.709
497.35	6.924
497.55	6.661
497.75	7.250
497.95	6.941
498.15	7.112
498.34	6.859
498.54	6.938
498.74	7.383
498.94	7.186
499.14	6.659
499.34	7.497
499.53	6.994
499.73	7.207
499.93	7.172
500.13	7.456
500.33	6.289
500.52	7.085
500.72	6.924
500.92	6.786
501.12	6.584
501.32	6.856
501.52	7.233
501.71	7.324
501.91	6.704
502.11	7.226
502.31	6.432
502.51	7.407
502.70	6.776
502.90	7.329
503.10	6.887
503.30	7.120
503.50	7.182
503.69	6.969
503.89	7.161
504.09	7.283
504.29	7.412
504.48	7.398
504.68	7.214
504.88	7.532
505.08	6.666
505.28	7.557
505.47	7.458
505.67	7.796
505.87	7.349
506.07	7.468
506.27	7.097
506.46	7.615
506.66	7.063
506.86	7.710
507.06	7.583
507.25	7.461
507.45	7.181
507.65	8.077
507.85	7.083
508.04	7.498
508.24	7.378
508.44	7.507
508.64	7.531
508.83	7.630
509.03	7.302
509.23	7.643
509.43	6.906
509.63	7.512
509.82	7.471
510.02	7.738
510.22	7.479
510.42	7.904
510.61	7.937
510.81	7.974
511.01	7.815
511.21	7.848
511.40	7.547
511.60	7.785
511.80	7.656
511.99	7.857
512.19	7.591
512.39	7.876
512.59	7.555
512.78	8.169
512.98	8.222
513.18	8.114
513.38	7.752
513.57	8.064
513.77	8.173
513.97	8.036
514.17	7.990
514.36	8.084
514.56	7.789
514.76	8.074
514.95	7.365
515.15	8.058
515.35	7.515
515.55	7.885
515.74	8.098
515.94	8.038
516.14	7.595
516.33	8.049
516.53	7.620
516.73	8.036
516.93	7.707
517.12	8.298
517.32	7.746
517.52	8.305
517.71	7.785
517.91	8.037
518.11	8.007
518.30	7.925
518.50	7.717
518.70	8.179
518.90	8.055
519.09	8.185
519.29	8.535
519.49	8.278
519.68	8.001
519.88	8.304
520.08	8.136
520.27	8.254
520.47	8.685
520.67	8.596
520.86	8.505
521.06	8.773
521.26	8.085
521.45	8.763
521.65	8.423
521.85	8.379
522.04	8.151
522.24	8.379
522.44	8.184
522.63	8.386
522.83	8.217
523.03	8.402
523.22	8.442
523.42	8.863
523.62	8.506
523.81	8.481
524.01	8.574
524.21	8.258
524.40	8.254
524.60	8.494
524.80	8.301
524.99	8.531
525.19	8.194
525.39	8.771
525.58	8.490
525.78	8.156
525.98	8.405
526.17	8.232
526.37	8.574
526.57	8.476
526.76	8.502
526.96	8.852
527.15	8.442
527.35	8.641
527.55	8.354
527.74	8.543
527.94	8.730
528.14	8.398
528.33	8.071
528.53	8.333
528.72	8.448
528.92	8.475
529.12	8.665
529.31	8.844
529.51	8.755
529.71	8.849
529.90	8.781
530.10	8.789
530.29	9.091
530.49	9.120
530.69	9.229
530.88	9.399
531.08	9.264
531.28	9.248
531.47	9.107
531.67	9.023
531.86	8.982
532.06	9.045
532.26	9.041
532.45	8.975
532.65	8.885
532.84	8.908
533.04	8.453
533.24	8.724
533.43	8.623
533.63	8.875
533.82	9.089
534.02	9.175
534.22	9.003
534.41	9.120
534.61	9.010
534.80	9.313
535.00	9.396
535.19	9.145
535.39	9.296
535.59	9.449
535.78	9.141
535.98	9.170
536.17	9.137
536.37	9.247
536.57	9.020
536.76	9.153
536.96	9.097
537.15	9.508
537.35	9.099
537.54	9.415
537.74	9.453
537.93	9.350
538.13	9.521
538.33	9.375
538.52	9.517
538.72	9.904
538.91	9.822
539.11	9.423
539.30	9.812
539.50	9.940
539.70	9.353
539.89	9.827
540.09	9.413
540.28	9.523
540.48	9.303
540.67	9.544
540.87	9.439
541.06	9.476
541.26	9.224
541.45	9.622
541.65	9.524
541.85	9.659
542.04	9.616
542.24	9.828
542.43	9.698
542.63	9.861
542.82	9.786
543.02	10.135
543.21	10.228
543.41	10.220
543.60	10.300
543.80	10.261
543.99	10.204
544.19	10.398
544.38	10.489
544.58	10.326
544.77	10.400
544.97	10.650
545.16	10.344
545.36	10.465
545.56	10.307
545.75	10.533
545.95	10.130
546.14	10.375
546.34	10.673
546.53	10.692
546.73	10.269
546.92	10.959
547.12	10.668
547.31	10.537
547.51	10.637
547.70	10.896
547.90	10.860
548.09	10.930
548.29	10.841
548.48	11.145
548.68	10.938
548.87	11.062
549.07	11.077
549.26	11.120
549.46	11.171
549.65	11.069
549.84	11.090
550.04	11.768
550.23	10.700
550.43	10.814
550.62	11.423
550.82	11.615
551.01	10.883
551.21	11.290
551.40	11.196
551.60	11.806
551.79	11.465
551.99	11.424
552.18	11.199
552.38	11.800
552.57	11.562
552.77	12.012
552.96	12.207
553.16	11.848
553.35	11.884
553.54	12.031
553.74	12.083
553.93	12.459
554.13	12.705
554.32	12.968
554.52	12.708
554.71	12.882
554.91	11.924
555.10	12.425
555.29	11.876
555.49	12.974
555.68	12.734
555.88	12.619
556.07	12.349
556.27	12.817
556.46	12.849
556.66	12.899
556.85	13.340
557.04	13.444
557.24	12.989
557.43	13.319
557.63	13.350
557.82	13.378
558.02	13.191
558.21	13.895
558.40	13.427
558.60	13.885
558.79	13.269
558.99	14.089
559.18	13.818
559.38	14.085
559.57	13.691
559.76	14.165
559.96	15.016
560.15	14.584
560.35	14.023
560.54	14.129
560.73	13.758
560.93	14.032
561.12	14.035
561.32	14.777
561.51	14.282
561.70	14.744
561.90	14.549
562.09	15.151
562.29	14.830
562.48	15.653
562.67	15.072
562.87	15.789
563.06	15.367
563.26	15.430
563.45	15.808
563.64	15.921
563.84	15.580
564.03	15.390
564.23	15.646
564.42	16.522
564.61	16.050
564.81	15.868
565.00	16.304
565.20	16.042
565.39	16.308
565.58	16.427
565.78	16.147
565.97	16.608
566.16	16.985
566.36	16.822
566.55	17.076
566.74	16.764
566.94	16.711
567.13	17.145
567.33	16.509
567.52	17.024
567.71	16.954
567.91	17.274
568.10	17.413
568.29	17.715
568.49	17.848
568.68	17.768
568.87	17.625
569.07	18.176
569.26	17.703
569.45	17.506
569.65	17.325
569.84	18.095
570.04	18.084
570.23	17.818
570.42	17.813
570.62	18.204
570.81	18.417
571.00	18.466
571.20	18.205
571.39	18.332
571.58	17.943
571.78	18.252
571.97	18.183
572.16	18.329
572.36	18.408
572.55	18.779
572.74	18.281
572.94	18.404
573.13	18.741
573.32	18.868
573.51	18.866
573.71	18.602
573.90	18.839
574.09	18.710
574.29	18.968
574.48	18.895
574.67	19.315
574.87	19.276
575.06	18.974
575.25	19.217
575.45	19.057
575.64	19.093
575.83	19.214
576.03	20.306
576.22	19.102
576.41	19.241
576.60	19.118
576.80	19.334
576.99	19.393
577.18	19.548
577.38	19.240
577.57	19.382
577.76	19.776
577.95	19.713
578.15	19.582
578.34	19.607
578.53	19.636
578.73	19.201
578.92	19.478
579.11	19.696
579.30	19.561
579.50	20.336
579.69	20.335
579.88	19.545
580.08	19.270
580.27	19.540
580.46	19.511
580.65	19.817
580.85	19.732
581.04	20.134
581.23	19.264
581.42	19.430
581.62	18.885
581.81	19.865
582.00	19.798
582.19	19.414
582.39	19.385
582.58	19.995
582.77	20.251
582.96	19.039
583.16	19.283
583.35	19.778
583.54	19.583
583.73	20.430
583.93	19.477
584.12	19.228
584.31	18.848
584.50	19.478
584.70	20.156
584.89	19.231
585.08	19.022
585.27	19.369
585.47	19.423
585.66	19.074
585.85	18.973
586.04	19.596
586.24	19.595
586.43	19.362
586.62	19.216
586.81	19.371
587.00	18.979
587.20	19.134
587.39	19.211
587.58	19.223
587.77	19.462
587.97	19.007
588.16	19.641
588.35	19.591
588.54	19.308
588.73	19.334
588.93	19.055
589.12	19.505
589.31	19.569
589.50	18.915
589.69	18.587
589.89	19.323
590.08	18.713
590.27	18.688
590.46	18.801
590.65	19.115
590.85	19.554
591.04	19.724
591.23	18.944
591.42	19.293
591.61	19.247
591.81	19.071
592.00	19.033
592.19	19.212
592.38	19.491
592.57	19.774
592.77	19.150
592.96	19.247
593.15	19.992
593.34	19.339
593.53	19.573
593.72	19.846
593.92	18.816
594.11	19.897
594.30	19.414
594.49	20.104
594.68	19.439
594.87	19.279
595.07	19.255
595.26	19.292
595.45	19.334
595.64	19.561
595.83	18.754
596.02	19.376
596.22	19.732
596.41	19.272
596.60	19.541
596.79	19.781
596.98	19.495
597.17	20.038
597.37	19.942
597.56	20.118
597.75	19.717
597.94	19.790
598.13	20.444
598.32	19.674
598.51	20.599
598.71	20.939
598.90	20.161
599.09	21.102
599.28	20.614
599.47	20.766
599.66	20.739
599.85	21.209
600.05	19.948
600.24	21.331
600.43	20.986
600.62	21.164
600.81	20.491
601.00	21.071
601.19	20.216
601.38	21.718
601.58	21.130
601.77	21.260
601.96	20.867
602.15	21.499
602.34	20.963
602.53	21.284
602.72	21.057
602.91	21.250
603.10	21.178
603.30	20.808
603.49	20.919
603.68	21.658
603.87	21.112
604.06	21.494
604.25	21.233
604.44	21.344
604.63	21.810
604.82	21.161
605.01	21.187
605.21	21.207
605.40	20.685
605.59	21.409
605.78	21.502
605.97	21.476
606.16	21.180
606.35	21.920
606.54	22.237
606.73	21.342
606.92	21.574
607.11	21.846
607.30	21.715
607.50	20.954
607.69	21.927
607.88	21.284
608.07	20.876
608.26	21.108
608.45	21.438
608.64	21.520
608.83	20.752
609.02	21.070
609.21	20.640
609.40	20.810
609.59	20.408
609.78	20.572
609.97	20.908
610.16	20.705
610.35	20.956
610.55	20.720
610.74	20.828
610.93	20.952
611.12	20.654
611.31	20.682
611.50	20.296
611.69	20.116
611.88	20.753
612.07	20.654
612.26	20.150
612.45	20.533
612.64	20.397
612.83	20.374
613.02	20.140
613.21	19.972
613.40	19.752
613.59	20.606
613.78	19.842
613.97	19.949
614.16	19.137
614.35	20.092
614.54	18.746
614.73	19.507
614.92	19.913
615.11	19.218
615.30	19.025
615.49	18.543
615.68	19.174
615.87	19.671
616.07	17.989
616.26	19.289
616.45	19.042
616.64	19.228
616.83	19.475
617.02	19.248
617.21	18.790
617.40	18.678
617.59	19.097
617.78	18.926
617.97	18.165
618.16	17.966
618.35	17.796
618.54	18.959
618.73	18.309
618.92	18.378
619.11	17.573
619.30	18.564
619.49	17.655
619.68	17.847
619.86	18.674
620.05	18.697
620.24	17.201
620.43	18.520
620.62	16.621
620.81	18.320
621.00	17.826
621.19	18.745
621.38	17.702
621.57	18.501
621.76	17.339
621.95	18.009
622.14	18.088
622.33	18.489
622.52	17.063
622.71	17.660
622.90	17.130
623.09	18.205
623.28	17.801
623.47	17.888
623.66	17.678
623.85	18.146
624.04	16.803
624.23	17.081
624.42	17.083
624.61	16.794
624.80	16.661
624.99	17.599
625.18	16.462
625.36	17.243
625.55	17.666
625.74	17.341
625.93	17.010
626.12	17.142
626.31	17.089
626.50	17.771
626.69	16.571
626.88	18.404
627.07	17.111
627.26	17.105
627.45	16.595
627.64	16.826
627.83	17.166
628.02	17.269
628.20	17.451
628.39	16.600
628.58	17.488
628.77	17.485
628.96	16.404
629.15	17.665
629.34	16.599
629.53	16.859
629.72	16.230
629.91	17.172
630.10	15.562
630.29	16.482
630.47	16.212
630.66	16.793
630.85	15.487
631.04	16.767
631.23	16.705
631.42	16.326
631.61	16.039
631.80	16.911
631.99	15.537
632.18	16.032
632.36	15.029
632.55	16.422
632.74	15.401
632.93	16.237
633.12	15.542
633.31	16.566
633.50	15.663
633.69	16.200
633.88	15.972
634.06	15.680
634.25	16.823
634.44	15.648
634.63	16.543
634.82	16.919
635.01	15.557
635.20	16.194
635.39	15.153
635.57	16.681
635.76	15.750
635.95	15.780
636.14	14.771
636.33	15.733
636.52	15.740
636.71	16.356
636.89	15.937
637.08	15.792
637.27	14.895
637.46	16.182
637.65	15.763
637.84	15.890
638.03	15.943
638.21	16.194
638.40	15.540
638.59	15.695
638.78	15.974
638.97	16.578
639.16	16.402
639.34	16.391
639.53	14.766
639.72	15.867
639.91	15.623
640.10	15.859
640.29	15.892
640.47	16.143
640.66	16.374
640.85	17.007
641.04	14.694
641.23	15.876
641.42	15.437
641.60	15.831
641.79	15.555
641.98	15.676
642.17	15.739
642.36	16.822
642.54	15.436
642.73	15.794
642.92	15.554
643.11	15.306
643.30	15.275
643.49	15.613
643.67	14.154
643.86	15.855
644.05	15.164
644.24	15.592
644.43	14.715
644.61	15.435
644.80	15.095
644.99	14.976
645.18	16.414
645.37	16.215
645.55	14.882
645.74	16.029
645.93	15.949
646.12	16.182
646.31	15.556
646.49	16.275
646.68	15.442
646.87	15.311
647.06	15.235
647.24	14.745
647.43	13.429
647.62	16.648
647.81	13.639
648.00	16.301
648.18	13.810
648.37	15.489
648.56	15.471
648.75	14.679
648.93	15.755
649.12	15.489
649.31	14.854
649.50	15.471
649.68	14.368
649.87	15.323
650.06	14.295
650.25	15.445
650.43	15.761
650.62	15.388
650.81	14.143
651.00	15.296
651.18	14.130
651.37	15.915
651.56	14.433
651.75	15.301
651.93	14.252
652.12	14.949
652.31	13.995
652.50	15.584
652.68	15.505
652.87	15.823
653.06	15.109
653.25	15.760
653.43	14.949
653.62	15.068
653.81	14.369
654.00	15.586
654.18	13.921
654.37	15.407
654.56	14.290
654.74	13.580
654.93	14.656
655.12	14.008
655.31	15.122
655.49	14.886
655.68	11.978
655.87	12.507
656.05	12.183
656.24	13.974
656.43	12.470
656.62	14.698
656.80	12.423
656.99	13.040
657.18	11.689
657.36	12.025
657.55	13.060
657.74	12.138
657.93	13.448
658.11	13.939
658.30	13.057
658.49	12.087
658.67	13.236
658.86	11.962
659.05	11.991
659.23	12.597
659.42	10.855
659.61	12.201
659.79	11.967
659.98	11.686
660.17	11.975
660.35	11.195
660.54	11.836
660.73	12.987
660.91	12.267
661.10	12.183
661.29	9.543
661.47	10.454
661.66	10.771
661.85	10.937
662.03	10.530
662.22	10.420
662.41	9.395
662.59	9.980
662.78	9.349
662.97	9.687
663.15	9.257
663.34	8.967
663.53	8.614
663.71	9.751
663.90	9.043
664.09	9.465
664.27	10.362
664.46	9.758
664.65	9.261
664.83	9.285
665.02	7.313
665.21	7.605
665.39	8.253
665.58	9.635
665.77	8.987
665.95	8.774
666.14	7.705
666.32	8.564
666.51	7.969
666.70	7.058
666.88	8.375
667.07	7.413
667.26	7.670
667.44	7.866
667.63	7.930
667.81	7.353
668.00	8.372
668.19	10.359
668.37	7.678
668.56	9.412
668.75	7.778
668.93	9.303
669.12	8.227
669.30	7.751
669.49	7.243
669.68	9.062
669.86	8.464
670.05	8.045
670.23	8.090
670.42	7.088
670.61	8.764
670.79	7.827
670.98	7.585
671.16	8.470
671.35	6.907
671.54	7.621
671.72	7.156
671.91	9.026
672.09	8.208
672.28	9.092
672.46	10.112
672.65	8.534
672.84	8.329
673.02	9.429
673.21	7.201
673.39	8.435
673.58	9.040
673.77	8.737
673.95	8.376
674.14	9.441
674.32	7.591
674.51	10.223
674.69	8.503
674.88	8.710
675.07	8.054
675.25	10.875
675.44	9.093
675.62	9.548
675.81	8.775
675.99	11.822
676.18	10.495
676.36	9.190
676.55	8.648
676.74	10.963
676.92	11.722
677.11	10.364
677.29	9.431
677.48	10.852
677.66	9.905
677.85	9.892
678.03	10.009
678.22	11.803
678.40	10.276
678.59	10.353
678.78	9.455
678.96	10.055
679.15	9.832
679.33	11.966
679.52	11.339
679.70	10.672
679.89	10.291
680.07	11.146
680.26	9.262
680.44	11.284
680.63	10.846
680.81	10.522
681.00	9.867
681.18	10.889
681.37	10.084
681.55	12.493
681.74	11.311
681.92	11.586
682.11	11.782
682.29	10.646
682.48	10.703
682.66	11.945
682.85	10.975
683.03	11.657
683.22	12.387
683.40	13.518
683.59	12.195
683.77	12.459
683.96	11.157
684.14	13.255
684.33	10.411
684.51	14.131
684.70	12.806
684.88	14.370
685.07	13.157
685.25	14.432
685.44	13.110
685.62	13.727
685.81	12.685
685.99	15.811
686.18	12.821
686.36	14.298
686.55	12.598
686.73	13.594
686.92	15.017
687.10	15.223
687.29	16.052
687.47	17.483
687.65	16.318
687.84	15.775
688.02	17.326
688.21	18.174
688.39	16.073
688.58	18.355
688.76	18.043
688.95	17.687
689.13	15.689
689.32	20.142
689.50	18.667
689.68	18.944
689.87	18.434
690.05	19.693
690.24	18.856
690.42	19.142
690.61	20.781
690.79	22.739
690.98	20.419
691.16	21.267
691.34	20.231
691.53	22.675
691.71	20.075
691.90	22.874
692.08	21.157
692.27	25.220
692.45	24.479
692.63	24.752
692.82	25.794
693.00	26.281
693.19	23.801
693.37	27.101
693.56	24.919
693.74	27.589
693.92	26.750
694.11	29.213
694.29	30.143
694.48	29.497
694.66	28.467
694.84	29.151
695.03	28.943
695.21	32.051
695.40	31.349
695.58	33.442
695.76	31.178
695.95	34.223
696.13	30.741
696.32	34.708
696.50	35.872
696.68	33.907
696.87	34.402
697.05	35.373
697.24	36.610
697.42	36.617
697.60	35.977
697.79	37.556
697.97	36.105
698.16	38.440
698.34	35.709
698.52	38.741
698.71	37.380
698.89	38.736
699.07	37.091
699.26	39.024
699.44	38.421
699.63	39.792
699.81	39.521
699.99	38.916
700.18	40.448
700.36	39.927
700.54	40.717
700.73	39.750
700.91	41.035
701.09	42.994
701.28	42.755
701.46	43.785
701.64	42.072
701.83	44.880
702.01	43.597
702.20	46.111
702.38	45.307
702.56	45.478
702.75	46.458
702.93	47.024
703.11	46.765
703.30	48.414
703.48	47.589
703.66	49.976
703.85	47.957
704.03	48.765
704.21	48.850
704.40	51.686
704.58	50.832
704.76	51.786
704.95	52.510
705.13	50.280
705.31	49.623
705.50	52.062
705.68	50.209
705.86	52.314
706.04	51.990
706.23	54.651
706.41	50.253
706.59	52.604
706.78	52.646
706.96	53.642
707.14	51.246
707.33	54.259
707.51	53.823
707.69	54.879
707.88	52.441
708.06	55.795
708.24	56.175
708.42	54.737
708.61	53.500
708.79	54.782
708.97	54.600
709.16	53.275
709.34	57.310
709.52	54.812
709.71	53.722
709.89	54.480
710.07	53.897
710.25	56.323
710.44	54.769
710.62	55.367
710.80	56.595
710.98	54.525
711.17	54.693
711.35	55.110
711.53	55.753
711.72	56.266
711.90	54.097
712.08	54.141
712.26	55.823
712.45	56.190
712.63	55.339
712.81	56.858
712.99	54.564
713.18	55.859
713.36	55.191
713.54	57.101
713.72	56.597
713.91	57.467
714.09	55.444
714.27	55.162
714.45	55.676
714.64	56.944
714.82	57.867
715.00	57.207
715.18	57.640
715.37	57.811
715.55	56.651
715.73	58.449
715.91	56.789
716.10	55.460
716.28	55.082
716.46	57.397
716.64	55.986
716.83	56.988
717.01	56.414
717.19	55.705
717.37	56.956
717.55	57.839
717.74	55.024
717.92	56.488
718.10	56.698
718.28	56.417
718.47	56.567
718.65	57.291
718.83	57.699
719.01	58.194
719.19	56.819
719.38	57.464
719.56	61.033
719.74	58.471
719.92	56.528
720.10	60.824
720.29	56.700
720.47	58.551
720.65	58.666
720.83	59.480
721.01	59.095
721.20	57.344
721.38	58.741
721.56	59.059
721.74	60.085
721.92	60.242
722.11	60.707
722.29	61.480
722.47	60.502
722.65	62.464
722.83	62.328
723.01	60.457
723.20	62.624
723.38	63.364
723.56	60.593
723.74	63.706
723.92	61.464
724.10	61.952
724.29	58.289
724.47	61.924
724.65	62.715
724.83	61.326
725.01	58.462
725.19	62.795
725.38	60.181
725.56	60.000
725.74	62.179
725.92	61.109
726.10	63.856
726.28	61.688
726.46	63.973
726.65	61.807
726.83	61.381
727.01	61.959
727.19	59.303
727.37	59.661
727.55	60.717
727.73	63.150
727.92	62.362
728.10	62.927
728.28	58.385
728.46	62.119
728.64	59.116
728.82	61.683
729.00	61.321
729.19	61.551
729.37	60.482
729.55	61.506
729.73	59.690
729.91	62.339
730.09	61.871
730.27	63.945
730.45	61.135
730.63	61.828
730.82	63.196
731.00	62.726
731.18	63.483
731.36	63.984
731.54	60.268
731.72	62.515
731.90	62.217
732.08	64.949
732.26	62.006
732.45	64.570
732.63	62.107
732.81	63.291
732.99	63.391
733.17	63.585
733.35	63.065
733.53	64.044
733.71	63.938
733.89	63.825
734.07	64.386
734.25	63.203
734.44	63.393
734.62	63.554
734.80	63.696
734.98	66.310
735.16	64.121
735.34	64.690
735.52	62.743
735.70	66.440
735.88	68.273
736.06	65.050
736.24	65.710
736.42	66.773
736.60	67.743
736.78	67.494
736.97	67.829
737.15	69.648
737.33	66.048
737.51	66.559
737.69	68.719
737.87	67.859
738.05	68.330
738.23	68.852
738.41	65.454
738.59	69.909
738.77	67.497
738.95	68.083
739.13	69.032
739.31	69.822
739.49	69.010
739.67	70.471
739.85	67.894
740.03	66.619
740.21	68.340
740.39	68.148
740.57	70.082
740.75	67.135
740.93	67.912
741.11	68.211
741.30	68.158
741.48	74.543
741.66	72.951
741.84	69.138
742.02	67.192
742.20	69.982
742.38	72.206
742.56	71.349
742.74	70.003
742.92	69.507
743.10	68.750
743.28	71.477
743.46	72.343
743.64	69.584
743.82	72.066
744.00	73.793
744.18	73.219
744.36	72.716
744.54	72.619
744.72	72.325
744.90	78.742
745.08	74.051
745.26	75.723
745.44	73.520
745.62	71.376
745.80	72.649
745.98	73.373
746.16	75.425
746.34	76.759
746.52	72.094
746.70	74.814
746.87	73.039
747.05	69.944
747.23	74.976
747.41	74.311
747.59	72.785
747.77	72.082
747.95	77.955
748.13	72.745
748.31	76.272
748.49	75.032
748.67	73.492
748.85	72.558
749.03	71.600
749.21	73.066
749.39	73.643
749.57	70.542
749.75	72.089
749.93	72.796
750.11	76.718
750.29	73.128
750.47	73.299
750.65	73.040
750.83	71.507
751.01	75.747
751.18	72.872
751.36	73.198
751.54	73.829
751.72	74.552
751.90	70.134
752.08	71.393
752.26	75.200
752.44	72.330
752.62	75.260
752.80	73.429
752.98	76.373
753.16	75.923
753.34	72.758
753.52	76.892
753.69	75.791
753.87	75.723
754.05	74.798
754.23	76.876
754.41	75.317
754.59	73.886
754.77	73.083
754.95	73.076
755.13	72.168
755.31	72.314
755.49	73.716
755.66	73.219
755.84	73.829
756.02	71.361
756.20	74.307
756.38	74.361
756.56	74.920
756.74	73.733
756.92	74.880
757.10	73.443
757.28	75.918
757.45	77.027
757.63	76.538
757.81	73.664
757.99	77.089
758.17	71.990
758.35	75.206
758.53	74.929
758.71	75.839
758.88	74.444
759.06	74.202
759.24	65.745
759.42	71.305
759.60	68.795
759.78	69.072
759.96	66.656
760.13	71.660
760.31	63.336
760.49	63.482
760.67	63.779
760.85	64.708
761.03	63.463
761.21	59.691
761.38	59.169
761.56	61.970
761.74	59.653
761.92	64.678
762.10	61.354
762.28	63.809
762.46	60.643
762.63	65.129
762.81	62.188
762.99	63.688
763.17	61.658
763.35	63.743
763.53	60.369
763.70	61.544
763.88	63.325
764.06	61.799
764.24	61.840
764.42	60.855
764.60	61.320
764.77	60.447
764.95	62.363
765.13	60.117
765.31	62.183
765.49	61.204
765.66	62.406
765.84	64.245
766.02	62.841
766.20	65.857
766.38	65.623
766.56	64.712
766.73	67.795
766.91	67.154
767.09	70.508
767.27	71.408
767.45	69.071
767.62	72.358
767.80	69.532
767.98	69.637
768.16	69.950
768.33	73.466
768.51	69.134
768.69	73.355
768.87	66.907
769.05	74.576
769.22	73.771
769.40	80.158
769.58	74.342
769.76	75.415
769.94	74.115
770.11	73.511
770.29	70.686
770.47	77.722
770.65	74.471
770.82	73.410
771.00	79.818
771.18	79.478
771.36	77.155
771.53	77.711
771.71	76.750
771.89	74.990
772.07	78.537
772.25	78.440
772.42	75.537
772.60	78.550
772.78	76.430
772.96	78.943
773.13	77.706
773.31	79.253
773.49	78.253
773.67	79.904
773.84	76.878
774.02	76.321
774.20	74.429
774.37	76.703
774.55	80.190
774.73	78.839
774.91	73.610
775.08	79.391
775.26	80.909
775.44	79.739
775.62	78.685
775.79	75.797
775.97	79.143
776.15	78.450
776.32	70.866
776.50	80.989
776.68	80.817
776.86	84.761
777.03	73.088
777.21	76.630
777.39	71.869
777.56	81.169
777.74	73.828
777.92	79.564
778.10	76.419
778.27	76.642
778.45	80.923
778.63	81.149
778.80	77.240
778.98	78.356
779.16	82.174
779.34	79.099
779.51	77.198
779.69	78.628
779.87	79.645
780.04	74.710
780.22	72.463
780.40	75.024
780.57	78.888
780.75	78.509
780.93	81.106
781.10	76.237
781.28	81.526
781.46	76.161
781.63	74.195
781.81	81.717
781.99	71.415
782.16	76.647
782.34	77.082
782.52	79.690
782.69	80.967
782.87	80.519
783.05	78.017
783.22	77.423
783.40	81.397
783.58	81.319
783.75	76.134
783.93	81.709
784.11	75.234
784.28	75.895
784.46	75.203
784.64	77.426
784.81	76.322
784.99	81.107
785.17	76.474
785.34	71.873
785.52	74.665
785.69	76.674
785.87	76.731
786.05	80.983
786.22	76.965
786.40	82.931
786.58	76.756
786.75	81.582
786.93	76.836
787.11	74.735
787.28	78.030
787.46	80.252
787.63	77.661
787.81	83.124
787.99	78.894
788.16	74.344
788.34	72.334
788.51	79.147
788.69	69.268
788.87	71.456
789.04	73.468
789.22	74.159
789.39	71.442
789.57	75.749
789.75	68.562
789.92	74.352
790.10	72.270
790.27	73.560
790.45	71.532
790.63	70.486
790.80	69.121
790.98	70.736
791.15	75.196
791.33	75.228
791.51	72.240
791.68	76.992
791.86	74.809
792.03	75.225
792.21	72.951
792.39	72.283
792.56	69.926
792.74	76.595
792.91	71.339
793.09	68.913
793.26	67.738
793.44	73.650
793.62	76.205
793.79	77.305
793.97	75.929
794.14	78.721
794.32	75.667
794.49	75.891
794.67	70.246
794.84	77.080
795.02	73.571
795.20	78.404
795.37	66.885
795.55	76.620
795.72	75.000
795.90	74.986
796.07	72.486
796.25	72.717
796.42	71.269
796.60	74.412
796.77	75.439
796.95	73.948
797.13	70.977
797.30	72.149
797.48	68.989
797.65	73.323
797.83	68.848
798.00	72.675
798.18	69.407
798.35	71.713
798.53	74.037
798.70	69.715
798.88	70.762
799.05	77.660
799.23	75.846
799.40	71.932
799.58	74.458
799.75	73.621
799.93	69.840
800.10	72.953
800.28	71.311
800.45	75.778
800.63	69.327
800.80	77.106
800.98	72.955
801.15	75.073
801.33	69.940
801.50	73.892
801.68	69.592
801.85	72.015
802.03	71.056
802.20	73.413
802.38	74.142
802.55	70.116
802.73	72.667
802.90	75.454
803.08	65.340
803.25	78.078
803.43	73.226
803.60	75.434
803.78	74.023
803.95	76.162
804.13	72.672
804.30	79.740
804.48	67.586
804.65	69.327
804.83	73.093
805.00	73.023
805.17	74.931
805.35	79.142
805.52	75.707
805.70	75.927
805.87	73.710
806.05	71.560
806.22	67.884
806.40	71.475
806.57	67.927
806.75	80.705
806.92	77.402
807.09	77.349
807.27	68.239
807.44	71.810
807.62	73.871
807.79	78.871
807.97	70.100
808.14	69.663
808.31	68.879
808.49	73.352
808.66	71.058
808.84	69.490
809.01	75.375
809.19	80.248
809.36	76.097
809.53	71.004
809.71	72.081
809.88	82.010
810.06	70.627
810.23	76.167
810.41	81.250
810.58	79.056
810.75	64.238
810.93	73.295
811.10	68.363
811.28	79.896
811.45	74.290
811.62	69.607
811.80	74.150
811.97	74.482
812.15	80.760
812.32	68.778
812.49	72.067
812.67	76.129
812.84	63.862
813.02	76.626
813.19	63.358
813.36	69.854
813.54	67.695
813.71	72.758
813.89	67.972
814.06	70.870
814.23	72.241
814.41	68.010
814.58	67.475
814.75	67.345
814.93	69.625
815.10	67.285
815.28	64.450
815.45	61.476
815.62	73.605
815.80	61.198
815.97	62.033
816.14	61.955
816.32	68.327
816.49	69.729
816.66	64.155
816.84	64.028
817.01	64.127
817.18	70.056
817.36	66.148
817.53	67.163
817.71	59.221
817.88	63.188
818.05	66.363
818.23	69.279
818.40	59.766
818.57	59.554
818.75	57.891
818.92	56.188
819.09	60.274
819.27	64.264
819.44	63.130
819.61	65.649
819.79	60.312
819.96	71.774
820.13	57.124
820.31	61.715
820.48	61.682
820.65	68.488
820.82	56.992
821.00	66.353
821.17	54.434
821.34	62.232
821.52	59.401
821.69	62.395
821.86	56.576
822.04	61.585
822.21	60.861
822.38	60.294
822.56	58.165
822.73	58.614
822.90	56.208
823.07	56.573
823.25	57.385
823.42	55.809
823.59	57.588
823.77	56.725
823.94	55.852
824.11	55.871
824.29	55.421
824.46	57.267
824.63	57.267
824.80	55.704
824.98	57.667
825.15	59.176
825.32	55.881
825.49	61.066
825.67	56.367
825.84	60.733
826.01	56.151
826.19	62.196
826.36	56.045
826.53	58.524
826.70	59.086
826.88	60.805
827.05	59.442
827.22	58.678
827.39	58.600
827.57	57.342
827.74	55.170
827.91	59.935
828.08	56.972
828.26	57.746
828.43	57.218
828.60	57.883
828.77	58.551
828.95	56.505
829.12	55.619
829.29	53.737
829.46	54.071
829.64	62.398
829.81	53.704
829.98	57.792
830.15	57.575
830.32	62.786
830.50	54.255
830.67	59.275
830.84	53.674
831.01	55.351
831.19	53.635
831.36	63.002
831.53	62.077
831.70	65.803
831.87	57.676
832.05	59.463
832.22	64.144
832.39	57.799
832.56	59.136
832.74	65.688
832.91	57.404
833.08	67.680
833.25	53.841
833.42	63.325
833.60	56.152
833.77	52.686
833.94	51.891
834.11	52.627
834.28	51.006
834.45	55.551
834.63	52.274
834.80	60.955
834.97	53.918
835.14	58.980
835.31	56.817
835.49	57.510
835.66	56.706
835.83	56.843
836.00	53.061
836.17	56.688
836.34	55.493
836.52	61.712
836.69	61.276
836.86	62.454
837.03	61.073
837.20	60.724
837.37	55.335
837.55	53.576
837.72	55.128
837.89	61.521
838.06	62.827
838.23	69.900
838.40	68.140
838.58	64.972
838.75	67.706
838.92	63.379
839.09	76.471
839.26	69.231
839.43	77.258
839.60	77.258
839.78	79.007
839.95	79.950
840.12	65.547
840.29	78.322
840.46	79.842
840.63	70.712
840.80	65.985
840.98	73.452
841.15	67.557
841.32	67.408
841.49	62.829
841.66	72.523
841.83	60.536
842.00	61.591
842.17	74.470
842.34	62.207
842.52	73.593
842.69	78.738
842.86	73.131
843.03	90.358
843.20	80.629
843.37	78.656
843.54	80.106
843.71	69.789
843.88	68.428
844.06	88.750
844.23	70.053
844.40	81.777
844.57	88.043
844.74	89.661
844.91	83.282
845.08	87.215
845.25	94.958
845.42	96.915
845.59	100.000
845.76	91.529
845.94	96.809
846.11	97.819
846.28	102.924
846.45	105.354
846.62	101.525
846.79	95.455
846.96	91.908
847.13	90.323
847.30	91.103
847.47	88.391
847.64	83.301
847.81	87.217
847.98	113.693
848.15	86.947
848.32	101.901
848.50	105.929
848.67	80.987
848.84	117.206
849.01	99.390
849.18	106.339
849.35	100.988
849.52	107.129
849.69	107.425
849.86	111.086
850.03	106.089
850.20	90.619
850.37	94.009
850.54	104.078
850.71	118.625
850.88	93.154
851.05	96.667
851.22	122.524
851.39	101.139
851.56	100.217
851.73	106.824
851.90	116.055
852.07	113.669
852.24	88.650
852.41	90.578
852.58	100.952
852.75	85.814
852.92	97.988
853.09	145.506
853.26	112.632
853.43	102.889
853.60	85.655
853.77	115.385
853.94	95.072
854.11	112.297
854.28	103.171
854.45	91.556
854.62	124.416
854.79	103.761
854.96	119.388
855.13	105.568
855.30	119.500
855.47	114.541
855.64	107.795
855.81	98.325
855.98	132.249
856.15	98.984
856.32	85.177
856.49	102.364
856.66	107.746
856.83	102.586
857.00	89.121
857.17	114.761
857.34	87.281
857.51	103.956
857.68	107.876
857.85	127.797
858.02	111.247
858.19	100.605
858.36	103.704
858.53	106.424
858.70	93.860
858.87	137.222
859.04	97.738
859.21	115.733
859.38	105.625
859.55	122.384
859.72	126.012
859.89	131.195
860.05	120.343
860.22	123.947
860.39	108.844
860.56	108.333
860.73	112.888
860.90	106.393
861.07	114.384
861.24	100.000
861.41	100.529
861.58	101.882
861.75	108.115
861.92	99.781
862.09	111.392
862.26	108.511
862.43	134.986
862.59	103.935
862.76	96.815
862.93	109.730
863.10	115.752
863.27	115.634
863.44	98.529
863.61	92.273
863.78	127.761
863.95	111.401
864.12	145.794
864.29	117.021
864.45	109.824
864.62	99.738
864.79	114.851
864.96	99.256
865.13	103.326
865.30	98.333
865.47	135.097
865.64	111.557
865.81	122.590
865.97	108.393
866.14	98.218
866.31	81.690
866.48	97.619
866.65	103.125
866.82	124.700
866.99	121.372
867.16	99.215
867.33	100.235
867.49	113.936
867.66	102.410
867.83	96.916
868.00	100.475
868.17	105.172
868.34	118.304
868.51	87.923
868.67	106.872
868.84	94.713
869.01	114.747
869.18	108.293
869.35	107.285
869.52	88.000
869.69	123.476
869.85	114.321
870.02	100.243
870.19	118.900
870.36	107.407
870.53	96.737
870.70	114.043
870.86	115.026
871.03	108.585
871.20	99.752
871.37	114.324
871.54	103.533
871.71	99.029
871.87	118.478
872.04	121.452
872.21	100.883
872.38	123.472
872.55	118.987
872.72	91.667
872.88	123.099
873.05	102.740
873.22	105.680
873.39	99.054
873.56	95.216
873.72	119.471
873.89	120.058
874.06	89.433
874.23	113.613
874.40	88.054
874.56	97.713
874.73	96.602
874.90	98.663
875.07	83.406
875.24	98.568
875.40	86.292
875.57	85.682
875.74	111.951
875.91	108.672
876.08	91.189
876.24	98.140
876.41	114.975
876.58	101.193
876.75	100.275
876.92	97.321
877.08	96.094
877.25	89.948
877.42	108.740
877.59	107.339
877.75	109.165
877.92	73.764
878.09	103.944
878.26	100.201
878.42	82.713
878.59	105.752
878.76	78.063
878.93	102.489
879.09	106.332
879.26	95.169
879.43	95.056
879.60	89.036
879.76	82.918
879.93	95.050
880.10	89.302
880.27	66.186
880.43	74.598
880.60	63.323
880.77	75.077
880.94	61.548
881.10	57.295
881.27	63.931
881.44	43.964
881.61	56.502
881.77	56.036
881.94	51.143
882.11	46.608
882.28	42.448
882.44	48.763
882.61	51.329
882.78	53.303
882.94	54.418
883.11	48.719
883.28	52.423
883.45	50.451
883.61	51.837
883.78	52.028
883.95	55.632
884.11	49.268
884.28	51.270
>>>>>End Processed Spectral Data<<<<<
