SpectraSuite Data File
++++++++++++++++++++++++++++++++++++
Date: Wed Sep 18 03:57:13 EST 2019
User: sgrac
Dark Spectrum Present: Yes
Reference Spectrum Present: Yes
Number of Sampled Component Spectra: 1
Spectrometers: USB4E01596
Integration Time (usec): 100000 (USB4E01596)
Spectra Averaged: 3 (USB4E01596)
Boxcar Smoothing: 0 (USB4E01596)
Correct for Electrical Dark: No (USB4E01596)
Strobe/Lamp Enabled: Yes (USB4E01596)
Correct for Detector Non-linearity: No (USB4E01596)
Correct for Stray Light: No (USB4E01596)
Number of Pixels in Processed Spectrum: 3648
>>>>>Begin Processed Spectral Data<<<<<
178.44	-177.419
178.66	-177.419
178.87	-177.419
179.09	-340.000
179.30	247.826
179.52	531.579
179.74	-1088.889
179.95	-1420.000
180.17	639.535
180.38	-703.333
180.60	440.000
180.82	1743.750
181.03	483.721
181.25	-1950.000
181.46	-610.000
181.68	-504.651
181.89	561.224
182.11	582.500
182.33	631.373
182.54	517.544
182.76	1130.435
182.97	2142.857
183.19	326.087
183.40	302.273
183.62	357.692
183.84	438.710
184.05	687.879
184.27	534.426
184.48	3837.500
184.70	761.111
184.91	632.609
185.13	-750.000
185.34	-368.333
185.56	-951.515
185.78	1638.889
185.99	416.393
186.21	492.683
186.42	-2690.000
186.64	295.455
186.85	1918.750
187.07	480.952
187.28	476.190
187.50	-876.471
187.72	398.000
187.93	315.663
188.15	473.529
188.36	-1552.941
188.58	372.727
188.79	-10200.000
189.01	205.442
189.22	342.857
189.44	850.000
189.65	377.528
189.87	409.211
190.09	304.255
190.30	1256.667
190.52	1412.500
190.73	312.048
190.95	1059.091
191.16	432.836
191.38	-20400.000
191.59	593.478
191.81	391.429
192.02	-561.538
192.24	393.548
192.45	341.111
192.67	409.091
192.88	390.625
193.10	675.000
193.31	462.500
193.53	488.710
193.74	612.121
193.96	542.373
194.18	-952.174
194.39	464.706
194.61	1141.379
194.82	1226.923
195.04	531.111
195.25	332.787
195.47	-4925.000
195.68	280.282
195.90	223.077
196.11	558.333
196.33	1735.294
196.54	641.860
196.76	-848.000
196.97	273.000
197.19	1105.000
197.40	235.338
197.62	-578.788
197.83	648.077
198.05	232.215
198.26	-1052.000
198.48	536.111
198.69	263.303
198.91	397.101
199.12	-2300.000
199.34	976.000
199.55	21300.000
199.77	380.263
199.98	3750.000
200.20	573.529
200.41	414.085
200.63	483.333
200.84	1176.190
201.06	500.000
201.27	311.111
201.49	470.312
201.70	562.295
201.91	534.091
202.13	1290.000
202.34	-665.714
202.56	470.000
202.77	-141.860
202.99	382.927
203.20	657.447
203.42	500.000
203.63	281.651
203.85	-848.276
204.06	1159.091
204.28	1513.333
204.49	720.930
204.71	254.622
204.92	992.308
205.14	1315.789
205.35	6650.000
205.56	377.465
205.78	380.247
205.99	201.527
206.21	287.879
206.42	504.348
206.64	820.588
206.85	280.000
207.07	665.714
207.28	245.455
207.50	891.304
207.71	451.163
207.93	525.000
208.14	611.628
208.35	357.627
208.57	478.000
208.78	358.511
209.00	276.344
209.21	264.085
209.43	340.278
209.64	1107.692
209.86	1800.000
210.07	306.329
210.28	340.964
210.50	388.406
210.71	354.545
210.93	472.727
211.14	632.500
211.36	919.048
211.57	215.000
211.78	1223.077
212.00	689.189
212.21	2555.556
212.43	1846.154
212.64	859.375
212.86	282.727
213.07	482.692
213.29	352.041
213.50	360.000
213.71	291.250
213.93	346.067
214.14	675.000
214.36	660.976
214.57	317.857
214.78	6225.000
215.00	307.317
215.21	591.111
215.43	-4400.000
215.64	348.571
215.86	377.941
216.07	383.562
216.28	572.000
216.50	530.000
216.71	1060.000
216.93	-22600.000
217.14	1436.842
217.35	-291.525
217.57	331.818
217.78	589.655
218.00	265.714
218.21	295.588
218.42	-6100.000
218.64	957.143
218.85	347.059
219.07	348.837
219.28	575.000
219.49	-12050.000
219.71	398.507
219.92	465.789
220.14	-22100.000
220.35	428.767
220.56	413.043
220.78	293.902
220.99	-404.444
221.21	318.072
221.42	178.947
221.63	1684.615
221.85	-516.667
222.06	202.020
222.28	-721.429
222.49	438.596
222.70	262.931
222.92	384.211
223.13	170.548
223.34	2358.333
223.56	201.709
223.77	339.506
223.99	287.879
224.20	214.286
224.41	250.909
224.63	178.409
224.84	216.935
225.05	222.131
225.27	467.273
225.48	292.683
225.69	360.937
225.91	372.308
226.12	342.667
226.34	283.333
226.55	244.340
226.76	168.217
226.98	338.462
227.19	159.286
227.40	169.718
227.62	118.974
227.83	98.095
228.04	117.838
228.26	158.784
228.47	81.731
228.69	53.770
228.90	47.411
229.11	70.506
229.33	50.337
229.54	54.247
229.75	40.934
229.97	44.162
230.18	48.142
230.39	31.698
230.61	17.517
230.82	48.571
231.03	24.264
231.25	39.826
231.46	46.781
231.67	48.670
231.89	37.649
232.10	40.381
232.31	46.226
232.53	54.667
232.74	53.815
232.95	55.050
233.17	58.499
233.38	56.974
233.59	64.459
233.81	61.194
234.02	47.262
234.23	69.792
234.45	52.514
234.66	57.426
234.87	63.596
235.09	65.789
235.30	45.226
235.51	44.361
235.73	51.781
235.94	44.958
236.15	37.740
236.36	46.517
236.58	55.114
236.79	54.851
237.00	53.259
237.22	45.120
237.43	60.587
237.64	37.298
237.86	57.520
238.07	47.439
238.28	60.944
238.50	47.853
238.71	61.346
238.92	47.836
239.13	45.513
239.35	50.835
239.56	66.667
239.77	71.680
239.99	42.827
240.20	66.042
240.41	37.475
240.63	47.978
240.84	61.056
241.05	35.111
241.26	43.951
241.48	37.356
241.69	34.516
241.90	22.649
242.12	30.869
242.33	27.281
242.54	22.769
242.75	15.486
242.97	23.006
243.18	18.863
243.39	14.579
243.61	15.677
243.82	18.192
244.03	22.745
244.24	14.333
244.46	17.859
244.67	20.081
244.88	16.386
245.09	17.313
245.31	15.283
245.52	12.837
245.73	21.542
245.95	34.625
246.16	28.483
246.37	21.152
246.58	25.694
246.80	24.667
247.01	20.801
247.22	14.063
247.43	11.751
247.65	14.203
247.86	11.333
248.07	10.775
248.28	11.716
248.50	11.926
248.71	9.791
248.92	8.750
249.13	9.376
249.35	9.947
249.56	10.516
249.77	10.010
249.98	11.918
250.20	12.015
250.41	17.140
250.62	18.257
250.83	21.239
251.05	22.134
251.26	19.952
251.47	23.233
251.68	21.053
251.90	15.941
252.11	20.241
252.32	22.698
252.53	26.539
252.75	13.848
252.96	18.135
253.17	15.249
253.38	13.803
253.59	15.193
253.81	15.150
254.02	14.477
254.23	14.911
254.44	17.786
254.66	17.747
254.87	16.764
255.08	19.326
255.29	23.101
255.50	23.345
255.72	17.391
255.93	24.115
256.14	30.117
256.35	17.677
256.57	18.833
256.78	28.398
256.99	21.313
257.20	24.831
257.41	15.847
257.63	20.870
257.84	25.627
258.05	19.933
258.26	20.127
258.47	16.732
258.69	21.509
258.90	18.213
259.11	19.864
259.32	15.571
259.53	15.876
259.75	9.875
259.96	11.978
260.17	9.197
260.38	12.209
260.59	7.202
260.81	7.955
261.02	7.017
261.23	8.136
261.44	8.194
261.65	7.115
261.87	7.800
262.08	8.968
262.29	10.003
262.50	8.989
262.71	9.591
262.92	8.619
263.14	9.340
263.35	11.139
263.56	11.960
263.77	11.882
263.98	13.405
264.20	15.523
264.41	17.352
264.62	12.556
264.83	9.468
265.04	15.839
265.25	11.793
265.47	15.567
265.68	16.589
265.89	14.848
266.10	16.070
266.31	17.391
266.52	14.970
266.74	18.425
266.95	16.098
267.16	13.412
267.37	15.685
267.58	10.728
267.79	13.437
268.01	10.357
268.22	8.598
268.43	13.078
268.64	10.355
268.85	12.367
269.06	11.323
269.27	11.524
269.49	9.307
269.70	13.461
269.91	12.785
270.12	16.845
270.33	11.054
270.54	9.514
270.75	12.665
270.97	12.119
271.18	10.008
271.39	11.445
271.60	11.138
271.81	9.576
272.02	14.867
272.23	8.652
272.45	11.427
272.66	9.926
272.87	8.700
273.08	8.794
273.29	10.685
273.50	8.367
273.71	7.030
273.92	9.826
274.14	9.966
274.35	8.776
274.56	11.563
274.77	8.617
274.98	10.668
275.19	8.480
275.40	13.600
275.61	8.917
275.83	10.430
276.04	11.566
276.25	10.783
276.46	12.580
276.67	10.909
276.88	13.713
277.09	11.966
277.30	13.087
277.51	8.626
277.73	11.277
277.94	10.886
278.15	14.064
278.36	15.812
278.57	9.861
278.78	13.191
278.99	9.169
279.20	14.227
279.41	14.957
279.62	8.924
279.84	15.447
280.05	7.411
280.26	9.662
280.47	14.468
280.68	8.254
280.89	9.764
281.10	10.300
281.31	13.300
281.52	10.659
281.73	9.345
281.94	8.348
282.16	10.051
282.37	12.153
282.58	9.818
282.79	10.832
283.00	10.733
283.21	9.117
283.42	10.870
283.63	11.220
283.84	10.784
284.05	7.632
284.26	9.849
284.47	9.608
284.68	6.150
284.89	8.215
285.11	10.092
285.32	10.415
285.53	10.627
285.74	9.975
285.95	8.669
286.16	9.502
286.37	6.211
286.58	6.615
286.79	7.840
287.00	6.504
287.21	7.833
287.42	7.412
287.63	7.377
287.84	6.960
288.05	6.622
288.26	8.033
288.48	9.871
288.69	7.385
288.90	9.932
289.11	8.481
289.32	9.788
289.53	7.503
289.74	7.274
289.95	8.439
290.16	8.887
290.37	8.693
290.58	6.394
290.79	6.081
291.00	8.907
291.21	7.020
291.42	7.738
291.63	6.627
291.84	6.974
292.05	6.420
292.26	7.123
292.47	7.867
292.68	4.217
292.89	6.956
293.10	8.540
293.31	9.235
293.52	7.126
293.73	7.178
293.94	8.889
294.15	7.577
294.36	9.080
294.57	9.497
294.79	9.875
295.00	6.665
295.21	8.714
295.42	9.272
295.63	8.828
295.84	7.812
296.05	6.582
296.26	9.490
296.47	8.228
296.68	6.552
296.89	8.893
297.10	7.171
297.31	6.569
297.52	6.661
297.73	7.835
297.94	4.131
298.15	6.909
298.36	6.276
298.57	5.295
298.78	6.629
298.99	5.378
299.20	6.212
299.41	6.598
299.62	5.246
299.83	6.112
300.04	6.015
300.25	7.033
300.46	8.832
300.67	9.652
300.88	7.677
301.09	6.131
301.30	6.773
301.50	6.859
301.71	7.952
301.92	9.897
302.13	7.065
302.34	6.996
302.55	9.624
302.76	8.074
302.97	8.366
303.18	8.356
303.39	9.163
303.60	6.842
303.81	10.016
304.02	7.812
304.23	9.935
304.44	8.296
304.65	6.591
304.86	7.765
305.07	6.194
305.28	7.657
305.49	8.084
305.70	8.564
305.91	7.816
306.12	6.974
306.33	6.888
306.54	8.514
306.75	8.600
306.96	10.410
307.17	6.268
307.38	8.262
307.58	8.545
307.79	7.366
308.00	9.841
308.21	5.777
308.42	5.050
308.63	11.712
308.84	9.288
309.05	8.310
309.26	6.658
309.47	8.676
309.68	7.708
309.89	8.792
310.10	7.299
310.31	5.343
310.52	6.579
310.73	9.744
310.94	4.892
311.14	5.835
311.35	6.286
311.56	6.311
311.77	6.191
311.98	6.668
312.19	6.595
312.40	7.620
312.61	5.511
312.82	6.112
313.03	6.635
313.24	6.603
313.45	7.195
313.66	6.342
313.86	7.803
314.07	6.291
314.28	6.030
314.49	4.941
314.70	7.330
314.91	8.808
315.12	7.434
315.33	9.282
315.54	7.066
315.75	7.913
315.96	7.296
316.16	9.242
316.37	10.342
316.58	9.844
316.79	8.038
317.00	8.437
317.21	8.639
317.42	9.181
317.63	7.955
317.84	7.732
318.05	8.268
318.25	8.559
318.46	7.364
318.67	7.596
318.88	7.775
319.09	8.338
319.30	9.079
319.51	9.912
319.72	7.414
319.93	7.337
320.13	8.539
320.34	9.424
320.55	6.641
320.76	12.059
320.97	9.908
321.18	9.719
321.39	9.014
321.60	7.365
321.80	11.986
322.01	9.580
322.22	11.526
322.43	7.759
322.64	10.351
322.85	9.117
323.06	8.867
323.27	11.414
323.47	11.553
323.68	9.822
323.89	8.183
324.10	10.024
324.31	7.961
324.52	10.183
324.73	8.897
324.93	5.344
325.14	5.935
325.35	7.947
325.56	8.796
325.77	9.040
325.98	6.383
326.19	8.849
326.39	6.787
326.60	9.063
326.81	5.961
327.02	6.262
327.23	8.549
327.44	12.567
327.64	6.991
327.85	7.478
328.06	6.563
328.27	10.597
328.48	9.513
328.69	4.731
328.90	7.374
329.10	8.811
329.31	7.812
329.52	8.721
329.73	9.282
329.94	7.546
330.15	10.772
330.35	10.362
330.56	9.286
330.77	9.473
330.98	10.023
331.19	8.956
331.39	8.262
331.60	8.632
331.81	8.295
332.02	10.164
332.23	9.752
332.44	9.671
332.64	11.027
332.85	10.773
333.06	9.816
333.27	6.316
333.48	7.995
333.68	8.078
333.89	8.935
334.10	9.604
334.31	9.125
334.52	9.264
334.72	9.981
334.93	8.721
335.14	4.421
335.35	8.946
335.56	10.450
335.76	7.788
335.97	9.986
336.18	7.528
336.39	10.297
336.60	9.771
336.80	8.529
337.01	9.686
337.22	8.438
337.43	12.038
337.64	10.670
337.84	10.654
338.05	8.705
338.26	12.205
338.47	12.212
338.68	9.039
338.88	10.373
339.09	10.350
339.30	10.062
339.51	7.988
339.71	11.444
339.92	8.449
340.13	10.445
340.34	8.671
340.55	8.925
340.75	9.700
340.96	10.502
341.17	10.272
341.38	9.752
341.58	12.503
341.79	11.997
342.00	7.949
342.21	11.131
342.41	9.505
342.62	11.321
342.83	10.461
343.04	9.257
343.24	12.862
343.45	14.112
343.66	11.432
343.87	11.412
344.07	10.613
344.28	11.621
344.49	13.269
344.70	13.395
344.90	10.190
345.11	9.358
345.32	12.257
345.53	11.928
345.73	12.616
345.94	13.794
346.15	14.838
346.36	12.674
346.56	13.168
346.77	15.729
346.98	14.117
347.19	13.575
347.39	14.250
347.60	12.528
347.81	15.081
348.02	14.178
348.22	12.687
348.43	14.660
348.64	11.772
348.84	15.960
349.05	15.098
349.26	16.113
349.47	11.654
349.67	14.336
349.88	16.359
350.09	13.908
350.30	19.840
350.50	14.337
350.71	16.187
350.92	16.316
351.12	16.080
351.33	14.305
351.54	15.647
351.74	17.727
351.95	13.521
352.16	18.490
352.37	17.611
352.57	17.270
352.78	15.311
352.99	16.260
353.19	17.129
353.40	19.091
353.61	19.685
353.82	18.586
354.02	20.162
354.23	19.747
354.44	20.344
354.64	18.023
354.85	19.967
355.06	18.046
355.26	16.410
355.47	19.402
355.68	20.763
355.88	20.140
356.09	18.142
356.30	16.676
356.51	19.703
356.71	20.029
356.92	18.169
357.13	20.085
357.33	22.498
357.54	20.094
357.75	16.874
357.95	19.727
358.16	17.508
358.37	21.634
358.57	18.707
358.78	22.771
358.99	20.785
359.19	19.360
359.40	22.444
359.61	19.869
359.81	23.000
360.02	24.193
360.23	18.416
360.43	19.768
360.64	20.582
360.85	19.921
361.05	19.186
361.26	22.698
361.47	20.199
361.67	22.350
361.88	17.729
362.09	21.126
362.29	18.452
362.50	18.609
362.70	16.796
362.91	21.629
363.12	19.550
363.32	20.688
363.53	20.765
363.74	22.535
363.94	18.042
364.15	22.719
364.36	20.638
364.56	20.801
364.77	20.255
364.98	24.177
365.18	21.140
365.39	22.242
365.59	18.377
365.80	20.431
366.01	20.457
366.21	20.459
366.42	18.944
366.63	22.570
366.83	19.398
367.04	16.604
367.24	19.320
367.45	18.394
367.66	19.068
367.86	18.969
368.07	18.905
368.28	18.921
368.48	18.847
368.69	18.037
368.89	18.154
369.10	20.618
369.31	18.384
369.51	21.345
369.72	21.240
369.92	22.819
370.13	16.463
370.34	19.880
370.54	14.382
370.75	19.259
370.95	17.719
371.16	19.596
371.37	16.386
371.57	18.276
371.78	16.763
371.98	19.079
372.19	19.566
372.40	18.963
372.60	18.320
372.81	19.731
373.01	15.909
373.22	17.213
373.43	18.999
373.63	19.542
373.84	19.674
374.04	19.271
374.25	19.152
374.46	19.537
374.66	18.899
374.87	20.566
375.07	15.748
375.28	17.247
375.48	17.309
375.69	19.248
375.90	15.123
376.10	14.768
376.31	15.302
376.51	15.738
376.72	16.094
376.92	15.201
377.13	18.121
377.34	18.107
377.54	17.027
377.75	19.631
377.95	16.278
378.16	16.889
378.36	17.977
378.57	19.624
378.77	15.997
378.98	17.080
379.19	16.207
379.39	16.250
379.60	16.423
379.80	17.376
380.01	17.047
380.21	17.003
380.42	17.489
380.62	17.480
380.83	17.539
381.04	15.397
381.24	17.632
381.45	16.700
381.65	15.515
381.86	16.819
382.06	17.340
382.27	15.510
382.47	14.834
382.68	17.005
382.88	14.031
383.09	14.715
383.29	15.581
383.50	17.241
383.71	14.859
383.91	16.372
384.12	14.545
384.32	16.686
384.53	15.254
384.73	14.508
384.94	14.969
385.14	15.133
385.35	13.438
385.55	15.792
385.76	14.887
385.96	15.292
386.17	16.824
386.37	16.433
386.58	15.341
386.78	16.738
386.99	14.299
387.19	16.022
387.40	14.217
387.60	17.161
387.81	14.824
388.01	15.388
388.22	16.575
388.42	16.984
388.63	16.660
388.83	17.410
389.04	13.650
389.24	16.608
389.45	15.580
389.65	14.306
389.86	14.594
390.06	14.060
390.27	14.619
390.47	15.729
390.68	13.523
390.88	16.871
391.09	15.917
391.29	15.888
391.50	14.507
391.70	16.015
391.91	14.563
392.11	15.606
392.32	15.569
392.52	15.216
392.73	14.959
392.93	15.025
393.14	14.394
393.34	14.962
393.55	15.785
393.75	15.223
393.95	14.613
394.16	15.261
394.36	15.462
394.57	16.358
394.77	15.164
394.98	14.408
395.18	15.285
395.39	14.854
395.59	15.069
395.80	16.126
396.00	14.471
396.21	15.867
396.41	14.150
396.61	15.299
396.82	15.335
397.02	16.846
397.23	14.717
397.43	13.807
397.64	12.538
397.84	16.455
398.05	12.168
398.25	15.706
398.45	13.143
398.66	14.322
398.86	14.039
399.07	15.803
399.27	12.810
399.48	14.956
399.68	13.034
399.89	13.084
400.09	14.175
400.29	13.804
400.50	12.712
400.70	15.628
400.91	13.837
401.11	13.567
401.32	14.644
401.52	13.291
401.72	13.925
401.93	16.704
402.13	13.987
402.34	13.828
402.54	12.262
402.75	15.822
402.95	11.574
403.15	15.269
403.36	13.974
403.56	13.285
403.77	12.472
403.97	13.495
404.17	11.430
404.38	13.721
404.58	12.684
404.79	13.394
404.99	14.268
405.19	13.247
405.40	13.094
405.60	13.357
405.81	12.558
406.01	13.674
406.21	12.809
406.42	13.737
406.62	13.936
406.83	13.805
407.03	13.796
407.23	13.024
407.44	12.478
407.64	14.065
407.85	13.407
408.05	13.473
408.25	12.304
408.46	14.129
408.66	13.249
408.87	13.057
409.07	12.398
409.27	12.140
409.48	12.259
409.68	13.410
409.88	10.997
410.09	13.828
410.29	13.778
410.50	14.674
410.70	11.403
410.90	13.179
411.11	11.490
411.31	12.885
411.51	13.145
411.72	12.906
411.92	12.349
412.12	12.803
412.33	10.892
412.53	12.552
412.74	11.023
412.94	12.305
413.14	12.224
413.35	12.136
413.55	11.643
413.75	13.101
413.96	11.333
414.16	12.679
414.36	11.954
414.57	12.584
414.77	11.419
414.97	12.972
415.18	12.167
415.38	11.656
415.58	11.930
415.79	11.619
415.99	10.826
416.19	13.421
416.40	11.734
416.60	12.180
416.80	11.621
417.01	12.567
417.21	9.891
417.41	13.874
417.62	12.320
417.82	12.437
418.02	11.481
418.23	12.744
418.43	11.489
418.63	13.030
418.84	12.164
419.04	11.322
419.24	12.372
419.45	12.286
419.65	12.975
419.85	12.979
420.06	12.304
420.26	12.643
420.46	12.533
420.67	12.809
420.87	12.763
421.07	13.400
421.28	12.014
421.48	12.800
421.68	12.202
421.88	12.934
422.09	12.894
422.29	12.500
422.49	11.958
422.70	12.566
422.90	12.673
423.10	12.884
423.31	12.709
423.51	13.123
423.71	12.212
423.91	13.014
424.12	12.635
424.32	12.951
424.52	12.651
424.73	12.094
424.93	12.661
425.13	12.300
425.33	12.245
425.54	12.531
425.74	12.448
425.94	13.162
426.15	12.333
426.35	12.442
426.55	12.443
426.75	12.597
426.96	12.236
427.16	12.606
427.36	12.638
427.57	12.970
427.77	12.320
427.97	13.324
428.17	12.471
428.38	13.176
428.58	10.525
428.78	12.834
428.98	10.640
429.19	12.221
429.39	11.004
429.59	12.130
429.79	11.287
430.00	11.460
430.20	10.687
430.40	11.559
430.60	10.832
430.81	10.937
431.01	11.063
431.21	12.264
431.41	10.181
431.62	11.349
431.82	10.379
432.02	11.714
432.22	11.461
432.43	11.045
432.63	10.613
432.83	11.672
433.03	10.609
433.24	10.831
433.44	10.957
433.64	11.840
433.84	10.782
434.05	11.736
434.25	11.145
434.45	11.774
434.65	11.905
434.85	12.037
435.06	11.583
435.26	11.834
435.46	11.643
435.66	11.959
435.87	11.119
436.07	11.803
436.27	11.721
436.47	11.620
436.67	11.426
436.88	11.915
437.08	11.242
437.28	11.942
437.48	11.711
437.69	11.815
437.89	11.159
438.09	12.251
438.29	10.577
438.49	12.072
438.70	11.837
438.90	11.117
439.10	11.092
439.30	11.905
439.50	10.894
439.71	11.732
439.91	10.995
440.11	12.303
440.31	11.184
440.51	11.300
440.72	11.268
440.92	11.665
441.12	11.329
441.32	12.096
441.52	11.428
441.72	11.784
441.93	11.727
442.13	11.769
442.33	11.889
442.53	12.083
442.73	11.481
442.94	11.531
443.14	11.387
443.34	12.092
443.54	11.932
443.74	12.313
443.94	11.716
444.15	12.036
444.35	11.511
444.55	12.088
444.75	11.710
444.95	12.168
445.15	11.615
445.36	11.735
445.56	10.501
445.76	11.684
445.96	11.259
446.16	11.669
446.36	10.683
446.57	11.981
446.77	11.176
446.97	11.339
447.17	11.748
447.37	11.657
447.57	11.691
447.77	11.627
447.98	11.478
448.18	11.868
448.38	11.329
448.58	12.186
448.78	11.776
448.98	11.884
449.18	11.690
449.39	11.951
449.59	11.447
449.79	12.235
449.99	11.624
450.19	11.365
450.39	12.228
450.59	12.230
450.79	11.211
451.00	11.885
451.20	12.331
451.40	11.628
451.60	11.534
451.80	11.943
452.00	11.323
452.20	12.056
452.40	11.245
452.61	10.775
452.81	11.029
453.01	11.633
453.21	11.725
453.41	11.256
453.61	11.215
453.81	11.562
454.01	11.480
454.21	11.747
454.42	11.311
454.62	11.984
454.82	10.760
455.02	11.467
455.22	10.768
455.42	11.571
455.62	10.423
455.82	11.106
456.02	10.555
456.23	11.446
456.43	10.893
456.63	11.188
456.83	10.218
457.03	11.362
457.23	11.241
457.43	11.780
457.63	10.792
457.83	11.951
458.03	10.793
458.23	11.746
458.43	10.771
458.64	11.013
458.84	10.939
459.04	10.963
459.24	11.190
459.44	11.157
459.64	11.176
459.84	11.597
460.04	10.884
460.24	11.115
460.44	11.391
460.64	11.566
460.84	11.016
461.04	11.556
461.24	11.344
461.45	12.045
461.65	11.816
461.85	11.593
462.05	11.275
462.25	11.924
462.45	12.132
462.65	11.914
462.85	10.810
463.05	12.082
463.25	11.125
463.45	12.184
463.65	11.386
463.85	11.701
464.05	10.695
464.25	11.149
464.45	11.735
464.65	11.067
464.85	10.809
465.05	11.067
465.26	10.806
465.46	11.692
465.66	11.278
465.86	11.544
466.06	11.151
466.26	11.520
466.46	10.468
466.66	11.017
466.86	10.594
467.06	11.437
467.26	10.325
467.46	11.127
467.66	10.586
467.86	11.061
468.06	10.928
468.26	10.435
468.46	10.722
468.66	11.337
468.86	10.363
469.06	11.896
469.26	10.735
469.46	11.383
469.66	10.194
469.86	11.448
470.06	10.727
470.26	11.286
470.46	10.223
470.66	11.543
470.86	10.399
471.06	10.967
471.26	10.305
471.46	10.601
471.66	10.666
471.86	11.167
472.06	10.921
472.26	11.540
472.46	11.237
472.66	11.159
472.86	10.796
473.06	10.920
473.26	10.744
473.46	11.218
473.66	10.525
473.86	10.946
474.06	10.662
474.26	11.544
474.46	10.903
474.66	11.535
474.86	11.261
475.06	11.686
475.26	10.293
475.46	11.481
475.66	10.430
475.86	11.341
476.06	11.403
476.26	11.331
476.46	10.471
476.66	11.535
476.86	10.396
477.06	10.810
477.26	10.623
477.46	11.055
477.65	10.863
477.85	11.402
478.05	10.296
478.25	11.400
478.45	10.492
478.65	11.424
478.85	10.311
479.05	11.864
479.25	10.820
479.45	11.546
479.65	10.686
479.85	11.162
480.05	10.936
480.25	11.118
480.45	10.505
480.65	11.430
480.85	11.282
481.05	11.437
481.25	11.476
481.44	12.077
481.64	10.513
481.84	11.697
482.04	11.087
482.24	11.246
482.44	10.912
482.64	11.009
482.84	11.288
483.04	11.328
483.24	10.917
483.44	11.220
483.64	10.580
483.84	10.754
484.04	10.732
484.23	10.584
484.43	10.867
484.63	10.824
484.83	11.033
485.03	11.233
485.23	11.354
485.43	11.420
485.63	11.631
485.83	11.949
486.03	11.975
486.23	11.902
486.42	12.071
486.62	12.172
486.82	11.890
487.02	11.740
487.22	11.604
487.42	11.390
487.62	11.308
487.82	11.308
488.02	11.096
488.22	11.315
488.41	11.199
488.61	11.070
488.81	11.021
489.01	11.105
489.21	11.524
489.41	11.462
489.61	11.626
489.81	11.990
490.01	11.602
490.20	11.865
490.40	11.736
490.60	11.970
490.80	11.481
491.00	11.985
491.20	11.315
491.40	11.409
491.60	11.050
491.79	11.103
491.99	10.848
492.19	11.105
492.39	11.270
492.59	11.220
492.79	11.263
492.99	11.286
493.19	11.580
493.38	11.651
493.58	11.583
493.78	11.931
493.98	12.016
494.18	12.427
494.38	11.983
494.58	12.189
494.77	11.475
494.97	11.682
495.17	11.239
495.37	11.764
495.57	11.493
495.77	11.554
495.96	11.638
496.16	11.513
496.36	10.828
496.56	11.175
496.76	10.803
496.96	11.249
497.15	11.257
497.35	11.429
497.55	11.109
497.75	11.544
497.95	11.156
498.15	11.173
498.34	11.180
498.54	11.450
498.74	11.715
498.94	11.609
499.14	11.077
499.34	11.714
499.53	11.690
499.73	11.999
499.93	11.018
500.13	11.665
500.33	11.326
500.52	12.130
500.72	11.616
500.92	11.628
501.12	11.274
501.32	11.543
501.52	11.661
501.71	11.871
501.91	11.460
502.11	11.977
502.31	11.339
502.51	11.487
502.70	11.088
502.90	11.698
503.10	11.615
503.30	11.838
503.50	11.074
503.69	11.725
503.89	11.782
504.09	12.019
504.29	11.248
504.48	12.025
504.68	11.511
504.88	11.838
505.08	11.241
505.28	11.805
505.47	11.854
505.67	11.563
505.87	11.455
506.07	11.690
506.27	11.579
506.46	11.663
506.66	11.052
506.86	12.142
507.06	12.167
507.25	11.997
507.45	11.773
507.65	12.201
507.85	11.586
508.04	12.228
508.24	11.559
508.44	11.779
508.64	11.329
508.83	11.738
509.03	11.411
509.23	12.075
509.43	11.856
509.63	11.577
509.82	11.867
510.02	12.259
510.22	11.772
510.42	12.358
510.61	11.922
510.81	11.956
511.01	11.931
511.21	12.394
511.40	12.026
511.60	12.301
511.80	12.054
511.99	12.121
512.19	11.964
512.39	12.562
512.59	11.776
512.78	12.213
512.98	12.213
513.18	12.099
513.38	11.912
513.57	12.380
513.77	11.964
513.97	11.973
514.17	12.094
514.36	12.218
514.56	11.913
514.76	12.497
514.95	12.142
515.15	12.319
515.35	12.164
515.55	12.191
515.74	11.988
515.94	12.762
516.14	11.762
516.33	12.372
516.53	12.041
516.73	12.115
516.93	12.050
517.12	12.626
517.32	11.382
517.52	12.001
517.71	12.066
517.91	12.214
518.11	12.078
518.30	12.205
518.50	12.035
518.70	12.127
518.90	12.045
519.09	11.963
519.29	11.990
519.49	12.268
519.68	11.969
519.88	12.248
520.08	12.254
520.27	12.434
520.47	12.479
520.67	12.620
520.86	12.553
521.06	12.799
521.26	12.671
521.45	12.475
521.65	12.629
521.85	12.565
522.04	12.278
522.24	12.737
522.44	12.507
522.63	12.462
522.83	12.122
523.03	12.552
523.22	12.132
523.42	12.920
523.62	13.058
523.81	12.293
524.01	12.655
524.21	12.371
524.40	12.415
524.60	12.500
524.80	12.526
524.99	11.928
525.19	12.549
525.39	12.357
525.58	12.079
525.78	12.265
525.98	12.256
526.17	12.583
526.37	12.526
526.57	12.531
526.76	12.690
526.96	12.380
527.15	12.383
527.35	12.662
527.55	12.428
527.74	12.880
527.94	12.610
528.14	12.132
528.33	11.862
528.53	12.081
528.72	12.014
528.92	12.204
529.12	11.905
529.31	12.330
529.51	12.292
529.71	12.369
529.90	12.459
530.10	12.609
530.29	12.789
530.49	12.773
530.69	12.961
530.88	13.047
531.08	13.076
531.28	13.215
531.47	13.142
531.67	13.057
531.86	12.955
532.06	13.251
532.26	13.088
532.45	12.961
532.65	13.011
532.84	12.465
533.04	12.635
533.24	12.815
533.43	12.454
533.63	12.800
533.82	12.756
534.02	12.848
534.22	12.672
534.41	12.652
534.61	12.794
534.80	12.968
535.00	13.043
535.19	13.298
535.39	13.343
535.59	13.400
535.78	13.330
535.98	13.462
536.17	13.184
536.37	13.033
536.57	12.986
536.76	12.948
536.96	13.043
537.15	13.176
537.35	12.925
537.54	13.179
537.74	13.083
537.93	13.444
538.13	13.246
538.33	13.605
538.52	13.514
538.72	13.792
538.91	13.582
539.11	13.555
539.30	13.803
539.50	13.898
539.70	13.574
539.89	13.850
540.09	13.372
540.28	13.553
540.48	13.501
540.67	13.128
540.87	13.379
541.06	13.549
541.26	13.024
541.45	13.154
541.65	13.071
541.85	13.213
542.04	13.322
542.24	13.566
542.43	13.162
542.63	13.556
542.82	13.527
543.02	13.901
543.21	13.672
543.41	13.926
543.60	14.058
543.80	14.381
543.99	14.311
544.19	14.332
544.38	14.189
544.58	14.394
544.77	14.176
544.97	14.448
545.16	14.334
545.36	14.383
545.56	14.337
545.75	14.731
545.95	14.247
546.14	14.851
546.34	14.476
546.53	14.907
546.73	14.422
546.92	14.714
547.12	14.374
547.31	14.718
547.51	14.480
547.70	14.734
547.90	14.600
548.09	14.849
548.29	14.818
548.48	14.950
548.68	15.067
548.87	15.066
549.07	14.902
549.26	15.334
549.46	15.049
549.65	15.588
549.84	15.502
550.04	15.746
550.23	15.415
550.43	15.711
550.62	15.649
550.82	16.048
551.01	15.011
551.21	15.624
551.40	15.457
551.60	15.884
551.79	15.063
551.99	15.312
552.18	15.526
552.38	15.781
552.57	15.606
552.77	16.312
552.96	16.109
553.16	15.812
553.35	16.062
553.54	16.104
553.74	15.861
553.93	16.676
554.13	16.614
554.32	16.098
554.52	16.359
554.71	16.820
554.91	16.656
555.10	17.221
555.29	16.925
555.49	17.217
555.68	16.645
555.88	16.880
556.07	17.224
556.27	16.847
556.46	17.120
556.66	16.901
556.85	16.954
557.04	17.381
557.24	17.130
557.43	17.518
557.63	17.118
557.82	17.732
558.02	17.073
558.21	17.710
558.40	17.775
558.60	18.015
558.79	17.880
558.99	18.151
559.18	18.159
559.38	17.881
559.57	18.422
559.76	18.398
559.96	19.008
560.15	18.053
560.35	18.305
560.54	18.840
560.73	17.987
560.93	19.166
561.12	18.747
561.32	19.324
561.51	19.228
561.70	19.098
561.90	19.390
562.09	19.001
562.29	19.284
562.48	19.855
562.67	19.582
562.87	19.635
563.06	19.565
563.26	20.395
563.45	19.715
563.64	19.876
563.84	19.822
564.03	20.509
564.23	19.600
564.42	20.815
564.61	20.028
564.81	20.837
565.00	20.575
565.20	20.768
565.39	20.791
565.58	20.566
565.78	20.587
565.97	20.735
566.16	21.413
566.36	21.088
566.55	20.622
566.74	21.333
566.94	21.125
567.13	21.038
567.33	21.468
567.52	22.115
567.71	21.829
567.91	21.899
568.10	21.592
568.29	22.054
568.49	21.943
568.68	22.835
568.87	22.547
569.07	22.605
569.26	22.270
569.45	22.340
569.65	22.221
569.84	22.157
570.04	22.689
570.23	22.889
570.42	22.657
570.62	22.861
570.81	22.933
571.00	23.012
571.20	22.912
571.39	23.030
571.58	23.077
571.78	23.210
571.97	23.466
572.16	23.166
572.36	22.934
572.55	23.023
572.74	23.805
572.94	23.470
573.13	23.774
573.32	23.659
573.51	23.885
573.71	23.818
573.90	23.705
574.09	24.293
574.29	24.018
574.48	24.222
574.67	24.522
574.87	24.250
575.06	23.613
575.25	23.805
575.45	24.327
575.64	24.639
575.83	23.647
576.03	24.789
576.22	24.644
576.41	24.862
576.60	24.021
576.80	24.553
576.99	24.344
577.18	24.952
577.38	24.951
577.57	24.960
577.76	24.987
577.95	25.582
578.15	25.201
578.34	25.782
578.53	24.985
578.73	25.628
578.92	25.281
579.11	25.167
579.30	25.797
579.50	25.091
579.69	25.691
579.88	25.669
580.08	25.867
580.27	25.721
580.46	25.607
580.65	26.038
580.85	26.287
581.04	25.669
581.23	25.455
581.42	25.412
581.62	25.619
581.81	25.845
582.00	25.987
582.19	25.442
582.39	26.306
582.58	26.275
582.77	26.111
582.96	25.792
583.16	25.642
583.35	26.159
583.54	26.420
583.73	26.364
583.93	26.144
584.12	25.889
584.31	26.302
584.50	25.940
584.70	25.698
584.89	26.463
585.08	25.953
585.27	26.723
585.47	25.731
585.66	26.705
585.85	26.466
586.04	26.024
586.24	26.336
586.43	25.767
586.62	24.695
586.81	25.616
587.00	25.887
587.20	25.817
587.39	25.304
587.58	26.125
587.77	25.861
587.97	25.897
588.16	25.843
588.35	26.064
588.54	25.736
588.73	26.038
588.93	26.051
589.12	25.811
589.31	26.294
589.50	25.854
589.69	26.139
589.89	26.988
590.08	25.480
590.27	25.906
590.46	25.083
590.65	25.621
590.85	25.522
591.04	26.288
591.23	26.405
591.42	25.575
591.61	26.544
591.81	27.523
592.00	26.017
592.19	25.541
592.38	25.872
592.57	26.172
592.77	26.381
592.96	26.724
593.15	26.452
593.34	26.045
593.53	26.411
593.72	25.870
593.92	25.953
594.11	26.835
594.30	26.487
594.49	25.966
594.68	26.010
594.87	26.037
595.07	25.709
595.26	26.122
595.45	26.863
595.64	26.705
595.83	26.865
596.02	26.654
596.22	26.289
596.41	26.639
596.60	26.299
596.79	27.036
596.98	26.380
597.17	26.483
597.37	26.489
597.56	26.913
597.75	27.071
597.94	26.762
598.13	27.682
598.32	27.423
598.51	27.241
598.71	27.638
598.90	27.747
599.09	27.295
599.28	27.932
599.47	27.505
599.66	27.387
599.85	27.678
600.05	28.213
600.24	28.585
600.43	28.408
600.62	28.741
600.81	28.460
601.00	29.024
601.19	28.391
601.38	28.457
601.58	28.455
601.77	28.752
601.96	28.932
602.15	29.142
602.34	28.278
602.53	28.708
602.72	28.164
602.91	28.940
603.10	28.124
603.30	29.372
603.49	28.242
603.68	28.230
603.87	28.144
604.06	28.004
604.25	28.457
604.44	28.029
604.63	27.632
604.82	27.882
605.01	28.341
605.21	27.983
605.40	27.490
605.59	28.423
605.78	28.443
605.97	28.119
606.16	27.963
606.35	28.602
606.54	28.591
606.73	28.373
606.92	28.463
607.11	27.985
607.30	28.065
607.50	28.915
607.69	28.423
607.88	28.293
608.07	28.359
608.26	28.293
608.45	28.599
608.64	27.754
608.83	27.050
609.02	28.369
609.21	27.033
609.40	27.856
609.59	27.464
609.78	26.896
609.97	27.773
610.16	27.521
610.35	27.225
610.55	26.998
610.74	27.846
610.93	27.282
611.12	27.491
611.31	27.350
611.50	27.427
611.69	27.163
611.88	27.048
612.07	27.469
612.26	27.554
612.45	28.103
612.64	26.942
612.83	27.292
613.02	27.825
613.21	27.393
613.40	26.037
613.59	27.394
613.78	26.144
613.97	25.915
614.16	27.243
614.35	26.577
614.54	25.800
614.73	26.910
614.92	27.184
615.11	26.568
615.30	26.003
615.49	25.281
615.68	25.621
615.87	26.228
616.07	25.177
616.26	26.426
616.45	25.791
616.64	25.438
616.83	25.019
617.02	25.238
617.21	24.520
617.40	25.897
617.59	25.328
617.78	24.925
617.97	24.018
618.16	25.492
618.35	23.982
618.54	24.061
618.73	24.237
618.92	24.472
619.11	24.494
619.30	25.563
619.49	23.813
619.68	24.391
619.86	24.224
620.05	23.720
620.24	23.450
620.43	23.610
620.62	23.246
620.81	24.348
621.00	24.634
621.19	24.613
621.38	24.712
621.57	24.187
621.76	24.555
621.95	23.488
622.14	24.065
622.33	24.059
622.52	22.310
622.71	23.133
622.90	23.843
623.09	23.390
623.28	22.483
623.47	23.668
623.66	23.592
623.85	23.374
624.04	24.345
624.23	23.707
624.42	23.389
624.61	23.158
624.80	23.247
624.99	22.643
625.18	22.974
625.36	24.273
625.55	23.567
625.74	23.438
625.93	22.477
626.12	24.144
626.31	23.463
626.50	22.365
626.69	23.181
626.88	23.850
627.07	23.484
627.26	23.240
627.45	22.984
627.64	23.234
627.83	22.364
628.02	22.533
628.20	22.715
628.39	22.746
628.58	23.382
628.77	23.240
628.96	22.720
629.15	22.951
629.34	23.077
629.53	23.250
629.72	22.476
629.91	23.375
630.10	22.880
630.29	22.521
630.47	22.320
630.66	22.656
630.85	22.531
631.04	22.984
631.23	22.978
631.42	22.657
631.61	22.549
631.80	23.260
631.99	22.791
632.18	23.017
632.36	21.657
632.55	24.202
632.74	23.254
632.93	21.986
633.12	22.283
633.31	23.498
633.50	21.799
633.69	23.563
633.88	22.013
634.06	22.119
634.25	22.148
634.44	22.179
634.63	22.493
634.82	23.107
635.01	22.211
635.20	21.860
635.39	22.660
635.57	22.544
635.76	22.591
635.95	22.325
636.14	21.753
636.33	21.692
636.52	22.323
636.71	22.027
636.89	21.982
637.08	22.294
637.27	21.987
637.46	22.162
637.65	22.186
637.84	22.457
638.03	21.666
638.21	22.663
638.40	22.801
638.59	22.151
638.78	22.296
638.97	22.927
639.16	21.983
639.34	22.310
639.53	21.397
639.72	23.142
639.91	21.850
640.10	21.117
640.29	22.695
640.47	23.795
640.66	22.811
640.85	22.549
641.04	21.471
641.23	21.704
641.42	21.878
641.60	22.653
641.79	21.362
641.98	22.675
642.17	21.388
642.36	21.806
642.54	21.203
642.73	22.877
642.92	20.078
643.11	21.772
643.30	20.954
643.49	22.598
643.67	20.842
643.86	21.350
644.05	20.733
644.24	23.014
644.43	21.296
644.61	22.232
644.80	22.319
644.99	22.798
645.18	22.581
645.37	22.453
645.55	21.231
645.74	21.809
645.93	21.955
646.12	23.045
646.31	21.436
646.49	21.516
646.68	21.753
646.87	21.830
647.06	21.163
647.24	22.383
647.43	20.787
647.62	22.385
647.81	20.527
648.00	21.000
648.18	19.561
648.37	20.993
648.56	22.587
648.75	22.358
648.93	20.852
649.12	21.893
649.31	21.665
649.50	21.402
649.68	21.341
649.87	21.043
650.06	20.082
650.25	20.900
650.43	21.122
650.62	21.084
650.81	21.300
651.00	20.426
651.18	19.925
651.37	22.182
651.56	19.581
651.75	22.137
651.93	20.173
652.12	22.286
652.31	19.578
652.50	20.769
652.68	20.358
652.87	21.006
653.06	20.861
653.25	20.575
653.43	19.766
653.62	21.591
653.81	19.851
654.00	21.292
654.18	19.139
654.37	21.092
654.56	18.673
654.74	19.138
654.93	19.621
655.12	20.891
655.31	18.668
655.49	21.471
655.68	19.436
655.87	18.075
656.05	17.985
656.24	18.746
656.43	17.929
656.62	19.116
656.80	18.184
656.99	17.961
657.18	17.586
657.36	18.235
657.55	17.515
657.74	19.639
657.93	17.655
658.11	18.091
658.30	18.388
658.49	16.693
658.67	18.937
658.86	16.534
659.05	16.660
659.23	17.411
659.42	16.063
659.61	17.916
659.79	15.976
659.98	17.049
660.17	17.086
660.35	16.581
660.54	16.746
660.73	17.690
660.91	15.853
661.10	16.820
661.29	14.836
661.47	15.518
661.66	15.394
661.85	16.402
662.03	15.336
662.22	14.939
662.41	13.509
662.59	14.593
662.78	14.046
662.97	14.042
663.15	13.442
663.34	13.593
663.53	13.250
663.71	13.807
663.90	13.464
664.09	15.663
664.27	12.409
664.46	14.132
664.65	12.253
664.83	12.357
665.02	13.113
665.21	11.823
665.39	9.990
665.58	13.221
665.77	12.014
665.95	12.855
666.14	10.596
666.32	12.335
666.51	12.659
666.70	11.506
666.88	11.007
667.07	12.119
667.26	10.423
667.44	12.113
667.63	12.043
667.81	10.196
668.00	11.894
668.19	13.134
668.37	10.301
668.56	12.338
668.75	9.913
668.93	13.090
669.12	10.467
669.30	12.051
669.49	10.833
669.68	12.992
669.86	11.507
670.05	12.436
670.23	11.202
670.42	11.688
670.61	12.915
670.79	12.263
670.98	9.890
671.16	13.427
671.35	11.065
671.54	12.373
671.72	11.379
671.91	12.674
672.09	9.778
672.28	12.412
672.46	12.564
672.65	13.980
672.84	13.358
673.02	13.239
673.21	9.764
673.39	11.669
673.58	13.141
673.77	12.276
673.95	12.375
674.14	13.612
674.32	11.686
674.51	14.516
674.69	13.874
674.88	13.339
675.07	12.426
675.25	16.253
675.44	13.169
675.62	13.578
675.81	12.609
675.99	16.609
676.18	15.215
676.36	14.565
676.55	12.198
676.74	14.408
676.92	14.387
677.11	13.582
677.29	12.608
677.48	15.163
677.66	15.480
677.85	15.039
678.03	12.818
678.22	16.697
678.40	14.900
678.59	12.994
678.78	13.051
678.96	13.402
679.15	12.905
679.33	15.683
679.52	15.114
679.70	15.260
679.89	15.371
680.07	13.912
680.26	13.079
680.44	13.736
680.63	14.971
680.81	14.315
681.00	11.809
681.18	15.946
681.37	13.446
681.55	16.085
681.74	15.455
681.92	15.401
682.11	15.578
682.29	16.030
682.48	14.249
682.66	15.465
682.85	15.564
683.03	17.258
683.22	16.597
683.40	17.915
683.59	17.896
683.77	17.406
683.96	15.204
684.14	18.532
684.33	14.588
684.51	19.170
684.70	16.484
684.88	20.622
685.07	17.126
685.25	18.084
685.44	17.428
685.62	18.660
685.81	17.217
685.99	20.247
686.18	17.760
686.36	19.061
686.55	17.406
686.73	19.356
686.92	19.968
687.10	20.677
687.29	22.841
687.47	21.686
687.65	21.223
687.84	21.065
688.02	21.570
688.21	23.548
688.39	21.115
688.58	23.859
688.76	21.766
688.95	22.159
689.13	20.785
689.32	24.392
689.50	25.689
689.68	25.149
689.87	23.938
690.05	26.543
690.24	26.519
690.42	26.468
690.61	26.752
690.79	29.023
690.98	27.560
691.16	29.067
691.34	26.972
691.53	30.159
691.71	26.932
691.90	31.474
692.08	29.433
692.27	33.572
692.45	33.110
692.63	32.369
692.82	34.223
693.00	35.497
693.19	33.256
693.37	37.514
693.56	35.885
693.74	37.772
693.92	36.050
694.11	41.494
694.29	39.333
694.48	40.445
694.66	40.509
694.84	41.585
695.03	40.333
695.21	43.100
695.40	43.704
695.58	43.768
695.76	43.617
695.95	46.853
696.13	45.336
696.32	47.675
696.50	48.064
696.68	47.720
696.87	45.901
697.05	49.123
697.24	48.246
697.42	50.373
697.60	49.767
697.79	50.884
697.97	51.577
698.16	51.046
698.34	49.619
698.52	51.271
698.71	51.231
698.89	52.043
699.07	52.099
699.26	53.977
699.44	52.390
699.63	54.096
699.81	53.399
699.99	54.662
700.18	54.623
700.36	54.872
700.54	55.802
700.73	56.955
700.91	56.856
701.09	58.983
701.28	59.997
701.46	59.540
701.64	61.812
701.83	59.769
702.01	62.517
702.20	63.078
702.38	64.248
702.56	63.385
702.75	64.397
702.93	64.213
703.11	66.133
703.30	67.112
703.48	67.318
703.66	69.012
703.85	68.769
704.03	70.412
704.21	68.169
704.40	69.425
704.58	70.262
704.76	69.761
704.95	69.745
705.13	71.434
705.31	72.002
705.50	73.851
705.68	73.312
705.86	74.356
706.04	72.681
706.23	74.970
706.41	71.290
706.59	72.994
706.78	73.916
706.96	71.379
707.14	72.402
707.33	74.995
707.51	75.664
707.69	73.449
707.88	74.815
708.06	76.110
708.24	77.811
708.42	75.381
708.61	74.912
708.79	78.765
708.97	76.861
709.16	74.921
709.34	78.513
709.52	76.730
709.71	76.004
709.89	75.163
710.07	74.049
710.25	76.798
710.44	77.586
710.62	77.029
710.80	77.601
710.98	77.074
711.17	79.474
711.35	80.378
711.53	79.186
711.72	77.109
711.90	79.379
712.08	78.342
712.26	78.118
712.45	78.766
712.63	78.108
712.81	79.723
712.99	78.083
713.18	78.399
713.36	78.756
713.54	78.538
713.72	77.681
713.91	81.142
714.09	79.169
714.27	82.146
714.45	81.438
714.64	78.625
714.82	81.727
715.00	81.504
715.18	80.778
715.37	78.435
715.55	78.885
715.73	80.993
715.91	79.721
716.10	80.619
716.28	78.838
716.46	80.871
716.64	79.337
716.83	81.957
717.01	80.958
717.19	82.354
717.37	80.773
717.55	79.215
717.74	83.548
717.92	80.888
718.10	81.440
718.28	81.370
718.47	82.230
718.65	83.625
718.83	83.668
719.01	82.718
719.19	80.782
719.38	82.732
719.56	81.966
719.74	81.387
719.92	82.610
720.10	83.169
720.29	80.428
720.47	84.592
720.65	86.502
720.83	85.557
721.01	82.805
721.20	83.113
721.38	84.458
721.56	84.477
721.74	86.463
721.92	90.107
722.11	87.325
722.29	85.926
722.47	86.756
722.65	85.732
722.83	89.294
723.01	86.091
723.20	88.490
723.38	90.119
723.56	85.688
723.74	86.971
723.92	84.637
724.10	90.255
724.29	87.772
724.47	87.380
724.65	85.841
724.83	87.123
725.01	84.994
725.19	86.276
725.38	86.104
725.56	87.737
725.74	85.162
725.92	86.995
726.10	87.000
726.28	85.095
726.46	90.940
726.65	86.689
726.83	86.126
727.01	86.383
727.19	87.589
727.37	86.735
727.55	85.010
727.73	89.226
727.92	88.399
728.10	85.381
728.28	86.466
728.46	86.989
728.64	85.369
728.82	88.905
729.00	85.479
729.19	89.027
729.37	87.742
729.55	89.123
729.73	86.054
729.91	86.005
730.09	85.246
730.27	89.852
730.45	84.203
730.63	85.868
730.82	84.287
731.00	89.058
731.18	86.000
731.36	89.051
731.54	88.062
731.72	85.779
731.90	87.053
732.08	87.886
732.26	86.412
732.45	88.565
732.63	89.648
732.81	86.846
732.99	88.113
733.17	90.913
733.35	89.527
733.53	88.495
733.71	87.416
733.89	89.971
734.07	89.193
734.25	91.648
734.44	86.520
734.62	89.621
734.80	87.912
734.98	90.132
735.16	88.802
735.34	90.272
735.52	90.325
735.70	90.237
735.88	92.197
736.06	90.719
736.24	94.133
736.42	95.914
736.60	94.260
736.78	95.760
736.97	94.088
737.15	94.885
737.33	92.435
737.51	97.132
737.69	94.216
737.87	94.169
738.05	95.597
738.23	96.235
738.41	94.131
738.59	93.838
738.77	93.051
738.95	94.730
739.13	92.592
739.31	94.516
739.49	98.431
739.67	93.462
739.85	95.460
740.03	93.461
740.21	93.273
740.39	93.157
740.57	91.958
740.75	93.050
740.93	93.085
741.11	94.190
741.30	93.248
741.48	97.102
741.66	97.037
741.84	96.819
742.02	93.474
742.20	94.957
742.38	92.389
742.56	96.615
742.74	94.971
742.92	96.709
743.10	96.260
743.28	99.180
743.46	95.005
743.64	99.703
743.82	91.469
744.00	97.531
744.18	97.769
744.36	100.097
744.54	97.272
744.72	96.722
744.90	102.032
745.08	97.119
745.26	97.779
745.44	99.828
745.62	98.541
745.80	96.762
745.98	98.382
746.16	101.671
746.34	100.361
746.52	97.230
746.70	96.123
746.87	103.679
747.05	102.724
747.23	96.705
747.41	102.711
747.59	99.469
747.77	94.944
747.95	101.754
748.13	99.107
748.31	101.671
748.49	98.460
748.67	100.281
748.85	99.388
749.03	97.502
749.21	95.388
749.39	100.396
749.57	96.644
749.75	97.066
749.93	93.668
750.11	96.259
750.29	96.603
750.47	98.141
750.65	97.889
750.83	96.752
751.01	94.379
751.18	97.237
751.36	99.682
751.54	102.547
751.72	96.135
751.90	97.992
752.08	95.618
752.26	98.494
752.44	97.695
752.62	97.587
752.80	97.277
752.98	97.177
753.16	98.102
753.34	93.933
753.52	99.071
753.69	96.369
753.87	94.429
754.05	96.975
754.23	98.227
754.41	97.735
754.59	96.865
754.77	98.373
754.95	94.621
755.13	100.505
755.31	100.036
755.49	94.944
755.66	96.351
755.84	100.279
756.02	97.356
756.20	100.566
756.38	98.157
756.56	95.871
756.74	100.374
756.92	93.806
757.10	100.753
757.28	96.946
757.45	102.018
757.63	100.178
757.81	96.226
757.99	97.267
758.17	96.389
758.35	98.005
758.53	96.840
758.71	95.770
758.88	93.359
759.06	97.054
759.24	89.210
759.42	93.800
759.60	88.809
759.78	88.372
759.96	87.670
760.13	89.080
760.31	84.666
760.49	88.409
760.67	85.694
760.85	85.966
761.03	80.409
761.21	81.504
761.38	81.554
761.56	85.679
761.74	79.168
761.92	83.523
762.10	81.925
762.28	83.595
762.46	82.955
762.63	83.070
762.81	85.635
762.99	82.416
763.17	82.517
763.35	80.590
763.53	82.847
763.70	80.537
763.88	81.979
764.06	80.232
764.24	80.218
764.42	83.285
764.60	84.052
764.77	79.090
764.95	81.889
765.13	81.676
765.31	80.995
765.49	81.188
765.66	81.586
765.84	87.420
766.02	82.174
766.20	89.510
766.38	87.352
766.56	86.317
766.73	87.949
766.91	85.693
767.09	90.980
767.27	88.783
767.45	93.263
767.62	93.107
767.80	94.208
767.98	88.581
768.16	89.756
768.33	90.332
768.51	92.237
768.69	92.411
768.87	93.559
769.05	95.494
769.22	96.545
769.40	100.487
769.58	98.419
769.76	99.957
769.94	100.512
770.11	97.093
770.29	97.593
770.47	98.617
770.65	98.961
770.82	98.781
771.00	98.002
771.18	98.875
771.36	97.649
771.53	97.462
771.71	92.461
771.89	103.100
772.07	97.239
772.25	102.423
772.42	95.513
772.60	97.472
772.78	104.083
772.96	100.337
773.13	106.422
773.31	101.526
773.49	97.072
773.67	99.673
773.84	99.854
774.02	102.018
774.20	94.463
774.37	102.696
774.55	98.421
774.73	101.935
774.91	98.653
775.08	104.426
775.26	103.104
775.44	103.547
775.62	102.842
775.79	100.593
775.97	102.856
776.15	100.531
776.32	97.062
776.50	101.584
776.68	100.414
776.86	103.791
777.03	100.928
777.21	100.481
777.39	98.614
777.56	104.194
777.74	98.387
777.92	98.617
778.10	97.627
778.27	105.632
778.45	100.431
778.63	99.218
778.80	104.418
778.98	105.054
779.16	101.999
779.34	101.607
779.51	100.222
779.69	98.742
779.87	99.174
780.04	99.779
780.22	93.417
780.40	98.054
780.57	101.941
780.75	102.621
780.93	97.282
781.10	96.508
781.28	103.464
781.46	103.958
781.63	106.372
781.81	98.744
781.99	97.716
782.16	98.714
782.34	99.697
782.52	99.030
782.69	105.012
782.87	103.075
783.05	98.491
783.22	98.624
783.40	98.845
783.58	105.750
783.75	103.338
783.93	103.370
784.11	102.636
784.28	105.319
784.46	93.868
784.64	99.561
784.81	98.739
784.99	105.573
785.17	98.964
785.34	96.339
785.52	100.779
785.69	104.747
785.87	97.732
786.05	93.894
786.22	97.636
786.40	107.605
786.58	102.667
786.75	105.522
786.93	105.484
787.11	97.838
787.28	102.742
787.46	102.916
787.63	98.801
787.81	95.936
787.99	97.270
788.16	95.964
788.34	94.765
788.51	102.814
788.69	91.285
788.87	88.948
789.04	98.018
789.22	96.508
789.39	92.536
789.57	95.840
789.75	91.164
789.92	92.400
790.10	99.665
790.27	93.272
790.45	91.895
790.63	95.452
790.80	89.525
790.98	97.628
791.15	101.296
791.33	93.566
791.51	94.553
791.68	93.952
791.86	99.873
792.03	96.506
792.21	90.844
792.39	97.268
792.56	95.916
792.74	91.226
792.91	96.256
793.09	93.372
793.26	86.027
793.44	106.764
793.62	94.631
793.79	93.933
793.97	93.703
794.14	101.130
794.32	89.655
794.49	94.850
794.67	91.331
794.84	93.437
795.02	93.075
795.20	95.787
795.37	91.044
795.55	95.254
795.72	97.351
795.90	101.228
796.07	95.700
796.25	94.811
796.42	95.663
796.60	97.182
796.77	84.644
796.95	94.417
797.13	89.395
797.30	91.944
797.48	90.105
797.65	94.956
797.83	86.048
798.00	93.988
798.18	91.240
798.35	100.129
798.53	87.990
798.70	94.270
798.88	87.856
799.05	94.106
799.23	95.704
799.40	94.061
799.58	86.280
799.75	92.909
799.93	91.299
800.10	96.932
800.28	91.860
800.45	94.126
800.63	90.448
800.80	94.829
800.98	94.241
801.15	93.452
801.33	96.582
801.50	94.535
801.68	92.518
801.85	93.472
802.03	94.472
802.20	102.137
802.38	88.782
802.55	96.608
802.73	83.839
802.90	90.028
803.08	84.976
803.25	98.405
803.43	86.957
803.60	89.539
803.78	88.428
803.95	95.887
804.13	95.447
804.30	94.351
804.48	91.375
804.65	93.270
804.83	91.393
805.00	90.674
805.17	97.974
805.35	100.218
805.52	88.739
805.70	92.285
805.87	92.852
806.05	90.607
806.22	85.745
806.40	87.331
806.57	90.808
806.75	101.014
806.92	96.081
807.09	91.974
807.27	90.873
807.44	99.073
807.62	87.983
807.79	94.805
807.97	86.026
808.14	97.626
808.31	87.757
808.49	89.962
808.66	87.189
808.84	93.558
809.01	90.032
809.19	85.598
809.36	95.407
809.53	89.956
809.71	88.127
809.88	89.271
810.06	97.530
810.23	85.941
810.41	89.561
810.58	104.266
810.75	88.161
810.93	94.809
811.10	89.627
811.28	94.415
811.45	86.547
811.62	96.262
811.80	86.852
811.97	98.002
812.15	89.865
812.32	82.109
812.49	92.539
812.67	92.710
812.84	89.211
813.02	97.747
813.19	90.736
813.36	82.744
813.54	83.750
813.71	91.171
813.89	81.906
814.06	88.803
814.23	83.781
814.41	85.515
814.58	81.198
814.75	83.201
814.93	88.349
815.10	82.254
815.28	81.481
815.45	84.887
815.62	86.776
815.80	78.310
815.97	81.244
816.14	91.092
816.32	79.231
816.49	87.655
816.66	77.881
816.84	83.625
817.01	80.795
817.18	81.651
817.36	81.885
817.53	90.459
817.71	72.798
817.88	88.198
818.05	77.857
818.23	87.488
818.40	70.323
818.57	82.033
818.75	75.321
818.92	79.106
819.09	78.035
819.27	80.983
819.44	84.258
819.61	83.279
819.79	70.160
819.96	86.449
820.13	80.498
820.31	82.070
820.48	88.435
820.65	81.345
820.82	77.607
821.00	86.279
821.17	72.989
821.34	77.866
821.52	82.092
821.69	76.303
821.86	80.147
822.04	82.032
822.21	80.294
822.38	78.089
822.56	75.232
822.73	75.724
822.90	73.990
823.07	75.407
823.25	75.805
823.42	74.048
823.59	75.472
823.77	73.866
823.94	75.330
824.11	73.646
824.29	74.823
824.46	76.050
824.63	77.733
824.80	80.075
824.98	78.766
825.15	76.653
825.32	77.597
825.49	80.207
825.67	81.271
825.84	82.598
826.01	78.977
826.19	80.655
826.36	78.591
826.53	84.478
826.70	80.933
826.88	78.521
827.05	77.512
827.22	80.840
827.39	79.029
827.57	75.393
827.74	77.692
827.91	78.646
828.08	75.484
828.26	76.671
828.43	74.698
828.60	76.571
828.77	74.382
828.95	78.214
829.12	74.054
829.29	76.396
829.46	78.598
829.64	80.267
829.81	73.803
829.98	80.036
830.15	75.690
830.32	83.607
830.50	76.923
830.67	85.779
830.84	72.242
831.01	73.849
831.19	77.540
831.36	79.065
831.53	76.031
831.70	86.744
831.87	74.071
832.05	89.326
832.22	83.743
832.39	81.018
832.56	67.570
832.74	77.193
832.91	73.289
833.08	90.391
833.25	72.714
833.42	77.994
833.60	73.155
833.77	70.933
833.94	73.509
834.11	75.466
834.28	73.956
834.45	78.303
834.63	72.032
834.80	75.502
834.97	69.686
835.14	77.244
835.31	74.504
835.49	77.253
835.66	73.468
835.83	75.403
836.00	74.722
836.17	76.179
836.34	77.323
836.52	72.806
836.69	77.019
836.86	78.954
837.03	77.214
837.20	74.796
837.37	76.377
837.55	69.773
837.72	80.551
837.89	80.842
838.06	85.213
838.23	86.635
838.40	81.437
838.58	75.943
838.75	77.778
838.92	83.503
839.09	90.996
839.26	82.755
839.43	88.124
839.60	94.402
839.78	101.573
839.95	87.322
840.12	80.144
840.29	89.784
840.46	85.273
840.63	90.238
840.80	84.255
840.98	90.135
841.15	79.375
841.32	77.800
841.49	80.424
841.66	86.211
841.83	71.315
842.00	81.395
842.17	81.465
842.34	78.902
842.52	96.250
842.69	92.126
842.86	81.283
843.03	108.895
843.20	83.604
843.37	97.008
843.54	83.152
843.71	94.493
843.88	90.953
844.06	102.492
844.23	101.250
844.40	86.391
844.57	95.667
844.74	107.749
844.91	103.178
845.08	108.995
845.25	88.911
845.42	110.516
845.59	94.792
845.76	93.230
845.94	125.121
846.11	107.447
846.28	119.022
846.45	114.085
846.62	110.615
846.79	113.636
846.96	91.093
847.13	93.678
847.30	99.786
847.47	94.981
847.64	100.422
847.81	122.876
847.98	116.836
848.15	119.060
848.32	122.197
848.50	113.915
848.67	104.338
848.84	114.355
849.01	120.581
849.18	125.000
849.35	130.024
849.52	98.778
849.69	121.975
849.86	134.383
850.03	107.216
850.20	128.855
850.37	112.414
850.54	120.976
850.71	120.621
850.88	109.440
851.05	126.077
851.22	115.842
851.39	114.687
851.56	99.010
851.73	141.193
851.90	122.442
852.07	100.777
852.24	104.795
852.41	103.205
852.58	113.613
852.75	125.057
852.92	90.819
853.09	135.620
853.26	111.429
853.43	116.545
853.60	131.105
853.77	114.988
853.94	100.414
854.11	138.292
854.28	134.015
854.45	98.498
854.62	107.460
854.79	117.680
854.96	99.078
855.13	130.456
855.30	108.676
855.47	131.707
855.64	109.034
855.81	98.891
855.98	120.556
856.15	119.010
856.32	144.108
856.49	106.923
856.66	131.410
856.83	111.192
857.00	98.361
857.17	131.989
857.34	104.787
857.51	130.645
857.68	143.034
857.85	116.332
858.02	101.382
858.19	136.538
858.36	102.299
858.53	112.874
858.70	94.301
858.87	129.012
859.04	91.389
859.21	119.020
859.38	120.384
859.55	117.010
859.72	138.674
859.89	135.754
860.05	107.862
860.22	129.487
860.39	132.317
860.56	110.334
860.73	105.176
860.90	119.122
861.07	131.268
861.24	87.828
861.41	125.201
861.58	92.647
861.75	114.151
861.92	111.594
862.09	140.674
862.26	104.306
862.43	111.751
862.59	116.846
862.76	120.807
862.93	138.108
863.10	99.130
863.27	114.576
863.44	100.948
863.61	126.074
863.78	120.495
863.95	116.754
864.12	89.655
864.29	116.253
864.45	110.937
864.62	92.573
864.79	105.141
864.96	101.453
865.13	118.681
865.30	114.568
865.47	103.004
865.64	94.737
865.81	99.732
865.97	94.322
866.14	105.789
866.31	117.708
866.48	127.160
866.65	96.063
866.82	122.248
866.99	120.597
867.16	96.122
867.33	128.527
867.49	138.776
867.66	109.870
867.83	107.278
868.00	105.679
868.17	108.586
868.34	131.136
868.51	91.258
868.67	115.249
868.84	135.185
869.01	133.226
869.18	92.691
869.35	110.215
869.52	95.543
869.69	125.501
869.85	95.337
870.02	125.168
870.19	114.058
870.36	130.462
870.53	79.812
870.70	106.061
870.86	113.939
871.03	102.446
871.20	105.191
871.37	150.000
871.54	108.046
871.71	87.961
871.87	93.225
872.04	89.130
872.21	93.391
872.38	125.893
872.55	115.493
872.72	86.921
872.88	110.918
873.05	91.485
873.22	115.319
873.39	113.102
873.56	128.696
873.72	98.691
873.89	104.870
874.06	110.557
874.23	84.030
874.40	98.466
874.56	136.826
874.73	107.809
874.90	90.793
875.07	127.946
875.24	110.380
875.40	89.269
875.57	112.921
875.74	93.521
875.91	90.024
876.08	106.269
876.24	147.154
876.41	110.765
876.58	130.060
876.75	116.056
876.92	129.085
877.08	104.511
877.25	91.878
877.42	103.152
877.59	93.175
877.75	129.480
877.92	105.319
878.09	79.634
878.26	110.705
878.42	96.176
878.59	105.305
878.76	78.554
878.93	110.412
879.09	101.558
879.26	98.641
879.43	92.568
879.60	108.101
879.76	76.342
879.93	81.648
880.10	75.407
880.27	72.658
880.43	76.766
880.60	80.836
880.77	72.787
880.94	70.318
881.10	58.971
881.27	62.284
881.44	51.642
881.61	66.720
881.77	69.393
881.94	60.505
882.11	58.751
882.28	59.086
882.44	62.451
882.61	70.062
882.78	64.985
882.94	72.746
883.11	66.360
883.28	69.942
883.45	70.152
883.61	70.393
883.78	64.643
883.95	71.818
884.11	70.599
884.28	73.654
>>>>>End Processed Spectral Data<<<<<
