SpectraSuite Data File
++++++++++++++++++++++++++++++++++++
Date: Mon Sep 23 04:47:22 EST 2019
User: sgrac
Dark Spectrum Present: Yes
Reference Spectrum Present: Yes
Number of Sampled Component Spectra: 1
Spectrometers: USB4E01596
Integration Time (usec): 100000 (USB4E01596)
Spectra Averaged: 3 (USB4E01596)
Boxcar Smoothing: 0 (USB4E01596)
Correct for Electrical Dark: No (USB4E01596)
Strobe/Lamp Enabled: Yes (USB4E01596)
Correct for Detector Non-linearity: No (USB4E01596)
Correct for Stray Light: No (USB4E01596)
Number of Pixels in Processed Spectrum: 3648
>>>>>Begin Processed Spectral Data<<<<<
178.44	1353.846
178.66	1353.846
178.87	1353.846
179.09	9766.667
179.30	-7975.000
179.52	-1087.097
179.74	-579.245
179.95	790.909
180.17	-702.778
180.38	570.175
180.60	-2954.545
180.82	815.556
181.03	4650.000
181.25	-2300.000
181.46	-1428.000
181.68	1412.500
181.89	-856.818
182.11	-2212.500
182.33	-2256.250
182.54	818.750
182.76	5450.000
182.97	-514.894
183.19	1475.000
183.40	313.223
183.62	447.436
183.84	380.000
184.05	5185.714
184.27	498.485
184.48	510.606
184.70	2158.824
184.91	1480.952
185.13	3290.000
185.34	-18250.000
185.56	1288.462
185.78	406.944
185.99	811.111
186.21	405.682
186.42	-5800.000
186.64	2650.000
186.85	-5160.000
187.07	660.000
187.28	397.368
187.50	649.091
187.72	288.462
187.93	867.273
188.15	371.875
188.36	532.895
188.58	693.878
188.79	293.269
189.01	546.479
189.22	937.838
189.44	-1027.273
189.65	378.814
189.87	-6775.000
190.09	573.016
190.30	1085.714
190.52	601.667
190.73	893.478
190.95	-3850.000
191.16	344.048
191.38	495.946
191.59	514.706
191.81	558.065
192.02	1926.667
192.24	931.250
192.45	961.765
192.67	-1725.000
192.88	475.472
193.10	555.738
193.31	872.500
193.53	313.710
193.74	422.667
193.96	2728.571
194.18	1165.385
194.39	2553.333
194.61	498.630
194.82	1727.273
195.04	412.195
195.25	-500.000
195.47	-522.222
195.68	5566.667
195.90	574.545
196.11	455.224
196.33	33100.000
196.54	792.683
196.76	1935.714
196.97	390.909
197.19	1008.108
197.40	2528.571
197.62	305.505
197.83	967.742
198.05	643.636
198.26	968.966
198.48	494.366
198.69	520.000
198.91	1538.889
199.12	727.907
199.34	717.391
199.55	442.857
199.77	1989.474
199.98	932.353
200.20	428.947
200.41	562.903
200.63	318.584
200.84	2307.143
201.06	3255.556
201.27	800.000
201.49	521.127
201.70	-630.000
201.91	515.278
202.13	579.661
202.34	432.759
202.56	-1368.000
202.77	595.556
202.99	5466.667
203.20	-4037.500
203.42	2343.750
203.63	406.579
203.85	5750.000
204.06	504.000
204.28	272.727
204.49	498.148
204.71	540.678
204.92	1223.077
205.14	0.000
205.35	800.000
205.56	-1350.000
205.78	7980.000
205.99	-2157.143
206.21	14300.000
206.42	870.455
206.64	1077.419
206.85	885.185
207.07	-2666.667
207.28	579.310
207.50	756.522
207.71	964.516
207.93	426.506
208.14	-1433.333
208.35	521.818
208.57	1240.000
208.78	-3577.778
209.00	394.681
209.21	-15250.000
209.43	-9666.667
209.64	-2266.667
209.86	360.825
210.07	413.953
210.28	542.254
210.50	1144.828
210.71	498.039
210.93	264.706
211.14	450.562
211.36	2106.250
211.57	575.758
211.78	451.429
212.00	455.294
212.21	477.143
212.43	1043.590
212.64	432.979
212.86	475.676
213.07	407.339
213.29	-1080.556
213.50	352.174
213.71	404.598
213.93	373.171
214.14	2209.091
214.36	527.941
214.57	412.658
214.78	782.222
215.00	355.208
215.21	1236.667
215.43	970.270
215.64	474.603
215.86	368.750
216.07	925.714
216.28	834.211
216.50	260.833
216.71	29300.000
216.93	557.576
217.14	1644.444
217.35	273.485
217.57	339.640
217.78	456.790
218.00	284.848
218.21	1373.913
218.42	723.404
218.64	503.571
218.85	648.000
219.07	1490.000
219.28	347.664
219.49	701.961
219.71	553.846
219.92	297.015
220.14	358.763
220.35	580.000
220.56	335.632
220.78	312.500
220.99	291.129
221.21	273.118
221.42	419.753
221.63	204.624
221.85	483.077
222.06	494.286
222.28	423.077
222.49	300.000
222.70	281.890
222.92	730.612
223.13	470.492
223.34	234.752
223.56	344.048
223.77	408.750
223.99	347.368
224.20	448.214
224.41	428.767
224.63	382.955
224.84	229.730
225.05	114.957
225.27	341.739
225.48	319.608
225.69	256.391
225.91	412.162
226.12	237.984
226.34	236.913
226.55	205.036
226.76	244.375
226.98	170.196
227.19	144.531
227.40	289.844
227.62	163.492
227.83	167.811
228.04	113.687
228.26	85.090
228.47	84.136
228.69	77.665
228.90	66.098
229.11	66.951
229.33	54.389
229.54	41.055
229.75	52.057
229.97	41.454
230.18	43.146
230.39	34.403
230.61	46.992
230.82	43.114
231.03	37.405
231.25	41.009
231.46	47.851
231.67	52.294
231.89	65.877
232.10	58.448
232.31	48.212
232.53	63.158
232.74	65.421
232.95	59.891
233.17	54.000
233.38	56.933
233.59	69.202
233.81	69.203
234.02	58.717
234.23	61.170
234.45	70.833
234.66	66.150
234.87	65.779
235.09	61.736
235.30	44.658
235.51	54.804
235.73	52.134
235.94	55.298
236.15	59.151
236.36	56.262
236.58	48.050
236.79	50.737
237.00	52.346
237.22	56.293
237.43	46.972
237.64	52.913
237.86	63.910
238.07	63.918
238.28	52.258
238.50	47.466
238.71	64.029
238.92	52.344
239.13	61.864
239.35	54.899
239.56	59.187
239.77	66.248
239.99	42.595
240.20	56.925
240.41	49.067
240.63	45.418
240.84	47.264
241.05	29.988
241.26	39.823
241.48	40.854
241.69	26.631
241.90	31.344
242.12	24.133
242.33	31.092
242.54	21.022
242.75	25.190
242.97	24.330
243.18	21.486
243.39	18.090
243.61	21.853
243.82	22.362
244.03	19.201
244.24	17.871
244.46	19.982
244.67	26.036
244.88	21.654
245.09	25.848
245.31	25.435
245.52	24.292
245.73	18.440
245.95	41.650
246.16	26.616
246.37	20.387
246.58	24.029
246.80	20.590
247.01	24.753
247.22	16.828
247.43	16.955
247.65	15.436
247.86	15.741
248.07	11.587
248.28	15.072
248.50	14.974
248.71	13.555
248.92	14.124
249.13	13.226
249.35	15.206
249.56	15.641
249.77	16.602
249.98	16.181
250.20	19.453
250.41	20.323
250.62	19.985
250.83	18.484
251.05	22.495
251.26	19.608
251.47	22.127
251.68	23.602
251.90	21.865
252.11	22.628
252.32	22.228
252.53	21.490
252.75	18.737
252.96	19.685
253.17	16.856
253.38	18.244
253.59	19.895
253.81	17.199
254.02	15.237
254.23	19.550
254.44	16.069
254.66	20.109
254.87	21.547
255.08	25.088
255.29	26.633
255.50	20.158
255.72	23.143
255.93	27.429
256.14	31.972
256.35	25.578
256.57	28.926
256.78	25.019
256.99	24.625
257.20	34.195
257.41	25.823
257.63	26.944
257.84	23.851
258.05	24.162
258.26	22.310
258.47	23.385
258.69	21.209
258.90	15.253
259.11	16.966
259.32	17.272
259.53	16.425
259.75	15.010
259.96	13.083
260.17	12.904
260.38	11.122
260.59	11.729
260.81	11.423
261.02	11.215
261.23	11.602
261.44	11.768
261.65	12.350
261.87	12.524
262.08	12.901
262.29	13.509
262.50	13.420
262.71	11.077
262.92	14.454
263.14	12.600
263.35	14.770
263.56	15.710
263.77	15.028
263.98	15.503
264.20	17.451
264.41	15.453
264.62	16.594
264.83	14.366
265.04	23.264
265.25	16.051
265.47	16.432
265.68	23.012
265.89	18.427
266.10	16.708
266.31	23.430
266.52	16.142
266.74	13.223
266.95	16.625
267.16	17.211
267.37	14.193
267.58	15.344
267.79	16.189
268.01	13.774
268.22	14.104
268.43	15.597
268.64	14.375
268.85	12.750
269.06	13.589
269.27	16.330
269.49	12.941
269.70	13.255
269.91	13.403
270.12	12.687
270.33	13.864
270.54	12.883
270.75	13.761
270.97	16.354
271.18	13.057
271.39	11.160
271.60	12.294
271.81	13.182
272.02	11.846
272.23	14.178
272.45	13.589
272.66	11.576
272.87	13.181
273.08	10.230
273.29	13.444
273.50	12.089
273.71	10.522
273.92	10.217
274.14	11.219
274.35	11.201
274.56	12.464
274.77	12.166
274.98	14.477
275.19	13.956
275.40	12.443
275.61	11.089
275.83	15.665
276.04	14.384
276.25	16.278
276.46	13.502
276.67	15.277
276.88	16.424
277.09	13.580
277.30	13.205
277.51	14.823
277.73	10.266
277.94	12.588
278.15	16.804
278.36	15.368
278.57	12.211
278.78	14.012
278.99	13.594
279.20	16.185
279.41	18.318
279.62	11.435
279.84	12.636
280.05	11.281
280.26	13.559
280.47	13.015
280.68	11.507
280.89	13.018
281.10	14.196
281.31	15.972
281.52	13.406
281.73	10.842
281.94	11.405
282.16	12.703
282.37	11.883
282.58	10.452
282.79	14.615
283.00	15.519
283.21	10.349
283.42	10.995
283.63	12.269
283.84	11.660
284.05	11.670
284.26	10.605
284.47	12.234
284.68	12.276
284.89	12.739
285.11	12.157
285.32	9.864
285.53	13.110
285.74	14.462
285.95	12.460
286.16	11.549
286.37	10.503
286.58	10.610
286.79	9.073
287.00	10.846
287.21	9.614
287.42	9.125
287.63	10.642
287.84	11.082
288.05	11.601
288.26	10.180
288.48	12.753
288.69	8.048
288.90	10.117
289.11	13.628
289.32	12.613
289.53	11.797
289.74	8.908
289.95	10.516
290.16	12.579
290.37	10.181
290.58	9.662
290.79	9.085
291.00	10.344
291.21	9.854
291.42	9.412
291.63	10.684
291.84	12.615
292.05	8.645
292.26	9.795
292.47	9.738
292.68	9.973
292.89	10.554
293.10	12.765
293.31	11.410
293.52	8.364
293.73	10.793
293.94	10.122
294.15	8.907
294.36	11.287
294.57	11.649
294.79	9.650
295.00	8.980
295.21	11.958
295.42	10.777
295.63	12.024
295.84	10.252
296.05	9.364
296.26	7.781
296.47	10.164
296.68	10.234
296.89	12.213
297.10	10.271
297.31	11.278
297.52	7.395
297.73	10.908
297.94	10.640
298.15	9.564
298.36	9.571
298.57	8.051
298.78	10.600
298.99	9.932
299.20	10.458
299.41	12.946
299.62	10.917
299.83	8.990
300.04	10.064
300.25	10.707
300.46	13.106
300.67	11.904
300.88	12.067
301.09	11.111
301.30	11.091
301.50	9.475
301.71	12.336
301.92	12.084
302.13	10.798
302.34	9.291
302.55	9.363
302.76	9.682
302.97	9.694
303.18	12.000
303.39	10.338
303.60	9.701
303.81	11.669
304.02	10.603
304.23	11.438
304.44	9.123
304.65	7.709
304.86	10.681
305.07	8.887
305.28	9.093
305.49	11.734
305.70	12.280
305.91	10.331
306.12	10.138
306.33	9.334
306.54	9.867
306.75	10.713
306.96	16.269
307.17	11.468
307.38	11.048
307.58	10.251
307.79	11.583
308.00	8.679
308.21	9.444
308.42	10.446
308.63	9.734
308.84	9.683
309.05	11.121
309.26	7.088
309.47	10.175
309.68	10.440
309.89	11.036
310.10	9.976
310.31	10.265
310.52	7.834
310.73	11.690
310.94	7.741
311.14	10.057
311.35	9.096
311.56	9.282
311.77	8.921
311.98	8.315
312.19	9.115
312.40	7.068
312.61	8.246
312.82	8.427
313.03	8.180
313.24	9.584
313.45	10.682
313.66	8.871
313.86	12.029
314.07	8.662
314.28	10.592
314.49	8.457
314.70	10.476
314.91	11.391
315.12	9.886
315.33	11.688
315.54	8.580
315.75	8.471
315.96	8.653
316.16	8.352
316.37	10.474
316.58	8.954
316.79	9.940
317.00	9.794
317.21	9.050
317.42	9.801
317.63	10.071
317.84	9.777
318.05	10.184
318.25	11.197
318.46	9.156
318.67	9.698
318.88	11.790
319.09	12.180
319.30	7.874
319.51	10.151
319.72	11.474
319.93	9.135
320.13	10.706
320.34	10.911
320.55	11.022
320.76	9.683
320.97	10.184
321.18	11.911
321.39	7.151
321.60	9.828
321.80	14.008
322.01	11.055
322.22	9.603
322.43	8.742
322.64	11.534
322.85	11.636
323.06	10.911
323.27	10.197
323.47	11.821
323.68	10.713
323.89	9.871
324.10	11.212
324.31	9.846
324.52	10.402
324.73	12.578
324.93	9.027
325.14	9.644
325.35	11.070
325.56	8.516
325.77	10.134
325.98	10.274
326.19	10.113
326.39	6.664
326.60	8.451
326.81	8.354
327.02	8.226
327.23	8.424
327.44	11.714
327.64	7.783
327.85	7.341
328.06	9.569
328.27	14.536
328.48	11.247
328.69	8.596
328.90	8.904
329.10	9.652
329.31	9.663
329.52	9.386
329.73	11.767
329.94	8.120
330.15	9.717
330.35	12.725
330.56	9.409
330.77	9.913
330.98	8.003
331.19	9.508
331.39	9.992
331.60	9.809
331.81	8.547
332.02	10.093
332.23	9.685
332.44	9.374
332.64	9.782
332.85	8.233
333.06	9.894
333.27	8.906
333.48	9.929
333.68	8.392
333.89	9.122
334.10	8.859
334.31	11.438
334.52	10.244
334.72	8.492
334.93	9.758
335.14	8.390
335.35	8.031
335.56	10.099
335.76	8.444
335.97	9.026
336.18	7.373
336.39	10.506
336.60	7.922
336.80	8.385
337.01	7.647
337.22	8.997
337.43	9.828
337.64	10.688
337.84	9.458
338.05	8.916
338.26	12.634
338.47	11.243
338.68	7.388
338.88	9.746
339.09	8.278
339.30	9.565
339.51	9.767
339.71	10.613
339.92	8.072
340.13	9.166
340.34	9.959
340.55	7.949
340.75	9.771
340.96	7.840
341.17	10.070
341.38	8.787
341.58	10.137
341.79	9.662
342.00	9.830
342.21	9.481
342.41	8.699
342.62	8.860
342.83	9.919
343.04	6.605
343.24	8.927
343.45	10.331
343.66	7.772
343.87	9.201
344.07	7.346
344.28	8.264
344.49	9.316
344.70	10.631
344.90	8.025
345.11	7.210
345.32	9.622
345.53	9.424
345.73	9.644
345.94	10.087
346.15	11.412
346.36	8.671
346.56	8.753
346.77	9.711
346.98	9.252
347.19	9.766
347.39	9.005
347.60	8.661
347.81	10.302
348.02	10.538
348.22	9.002
348.43	8.785
348.64	9.563
348.84	10.190
349.05	9.702
349.26	12.504
349.47	8.066
349.67	9.859
349.88	10.606
350.09	9.992
350.30	11.726
350.50	10.589
350.71	11.115
350.92	10.601
351.12	11.257
351.33	10.136
351.54	9.356
351.74	10.671
351.95	9.804
352.16	12.485
352.37	12.397
352.57	11.672
352.78	10.889
352.99	11.978
353.19	10.130
353.40	11.220
353.61	13.251
353.82	12.831
354.02	13.426
354.23	11.938
354.44	14.018
354.64	12.549
354.85	13.725
355.06	11.205
355.26	10.752
355.47	11.741
355.68	13.400
355.88	13.945
356.09	12.910
356.30	12.124
356.51	14.039
356.71	12.318
356.92	10.849
357.13	14.396
357.33	13.707
357.54	13.276
357.75	10.558
357.95	14.688
358.16	12.472
358.37	14.910
358.57	12.067
358.78	15.815
358.99	12.479
359.19	13.822
359.40	14.953
359.61	12.961
359.81	15.232
360.02	16.477
360.23	13.182
360.43	13.573
360.64	11.835
360.85	13.965
361.05	13.195
361.26	15.075
361.47	13.193
361.67	15.518
361.88	11.526
362.09	14.261
362.29	12.570
362.50	13.595
362.70	11.610
362.91	14.330
363.12	13.187
363.32	13.985
363.53	13.686
363.74	14.841
363.94	13.401
364.15	15.268
364.36	15.461
364.56	12.955
364.77	15.580
364.98	16.150
365.18	14.051
365.39	15.476
365.59	11.910
365.80	13.003
366.01	15.001
366.21	13.619
366.42	11.972
366.63	14.982
366.83	12.656
367.04	10.745
367.24	15.160
367.45	13.540
367.66	12.080
367.86	13.826
368.07	12.195
368.28	13.185
368.48	13.713
368.69	11.692
368.89	13.245
369.10	13.825
369.31	13.149
369.51	13.893
369.72	15.697
369.92	15.378
370.13	10.533
370.34	12.946
370.54	10.418
370.75	13.963
370.95	10.808
371.16	13.110
371.37	12.428
371.57	12.405
371.78	12.022
371.98	13.100
372.19	12.504
372.40	14.624
372.60	13.974
372.81	14.039
373.01	10.775
373.22	12.103
373.43	12.516
373.63	13.691
373.84	13.784
374.04	12.227
374.25	12.448
374.46	13.571
374.66	13.223
374.87	14.008
375.07	9.142
375.28	11.215
375.48	11.727
375.69	11.828
375.90	10.161
376.10	10.938
376.31	11.049
376.51	10.660
376.72	11.171
376.92	10.530
377.13	11.845
377.34	12.117
377.54	11.107
377.75	13.449
377.95	10.734
378.16	13.585
378.36	12.526
378.57	13.350
378.77	11.808
378.98	12.975
379.19	11.021
379.39	10.585
379.60	11.453
379.80	10.972
380.01	12.093
380.21	11.598
380.42	11.490
380.62	12.306
380.83	11.831
381.04	11.000
381.24	11.753
381.45	11.306
381.65	9.680
381.86	10.321
382.06	11.840
382.27	10.120
382.47	9.753
382.68	12.509
382.88	9.174
383.09	9.830
383.29	10.432
383.50	12.797
383.71	10.648
383.91	10.730
384.12	9.545
384.32	11.611
384.53	10.491
384.73	9.784
384.94	8.854
385.14	10.396
385.35	9.188
385.55	11.120
385.76	10.067
385.96	10.674
386.17	10.358
386.37	11.813
386.58	9.770
386.78	11.174
386.99	9.321
387.19	11.255
387.40	9.365
387.60	11.684
387.81	9.771
388.01	10.128
388.22	10.808
388.42	11.631
388.63	11.435
388.83	12.115
389.04	9.311
389.24	10.195
389.45	10.874
389.65	10.340
389.86	10.238
390.06	9.774
390.27	9.926
390.47	9.777
390.68	9.401
390.88	11.026
391.09	10.997
391.29	10.829
391.50	9.802
391.70	11.139
391.91	9.929
392.11	10.024
392.32	10.434
392.52	10.186
392.73	9.946
392.93	10.509
393.14	10.179
393.34	9.823
393.55	10.818
393.75	10.370
393.95	9.511
394.16	10.247
394.36	10.904
394.57	10.802
394.77	9.833
394.98	9.754
395.18	10.848
395.39	10.306
395.59	10.044
395.80	10.027
396.00	9.968
396.21	11.144
396.41	8.666
396.61	10.623
396.82	10.077
397.02	11.967
397.23	9.781
397.43	10.136
397.64	8.595
397.84	10.905
398.05	8.937
398.25	10.875
398.45	9.873
398.66	10.279
398.86	9.963
399.07	10.952
399.27	9.232
399.48	10.927
399.68	9.378
399.89	9.924
400.09	10.431
400.29	9.187
400.50	8.972
400.70	9.393
400.91	8.622
401.11	9.631
401.32	9.826
401.52	8.492
401.72	8.938
401.93	10.409
402.13	9.211
402.34	9.413
402.54	9.370
402.75	11.709
402.95	8.374
403.15	10.533
403.36	8.384
403.56	10.520
403.77	8.525
403.97	8.819
404.17	8.577
404.38	10.064
404.58	8.084
404.79	9.913
404.99	9.203
405.19	9.046
405.40	9.055
405.60	8.823
405.81	8.550
406.01	8.680
406.21	8.802
406.42	9.241
406.62	9.069
406.83	9.496
407.03	10.537
407.23	8.682
407.44	7.848
407.64	10.389
407.85	8.994
408.05	9.099
408.25	9.526
408.46	9.967
408.66	9.053
408.87	8.792
409.07	9.232
409.27	8.529
409.48	8.619
409.68	8.822
409.88	7.024
410.09	8.437
410.29	9.537
410.50	10.239
410.70	8.336
410.90	9.042
411.11	7.842
411.31	8.665
411.51	9.235
411.72	9.690
411.92	8.273
412.12	9.114
412.33	8.392
412.53	8.661
412.74	6.878
412.94	8.929
413.14	8.651
413.35	9.002
413.55	9.036
413.75	10.020
413.96	7.834
414.16	8.440
414.36	8.667
414.57	9.928
414.77	7.868
414.97	9.405
415.18	8.344
415.38	8.621
415.58	8.527
415.79	8.060
415.99	7.398
416.19	9.576
416.40	8.731
416.60	8.612
416.80	8.242
417.01	8.970
417.21	7.347
417.41	8.791
417.62	8.652
417.82	9.366
418.02	7.595
418.23	8.671
418.43	7.756
418.63	8.746
418.84	9.087
419.04	8.499
419.24	9.166
419.45	8.835
419.65	8.862
419.85	9.184
420.06	8.961
420.26	9.044
420.46	8.982
420.67	9.346
420.87	9.235
421.07	8.938
421.28	8.693
421.48	8.698
421.68	9.152
421.88	9.266
422.09	9.177
422.29	9.117
422.49	8.642
422.70	9.142
422.90	9.227
423.10	9.035
423.31	8.898
423.51	9.053
423.71	8.697
423.91	9.325
424.12	8.945
424.32	9.399
424.52	8.693
424.73	9.085
424.93	8.966
425.13	8.410
425.33	8.378
425.54	9.051
425.74	8.756
425.94	9.280
426.15	9.413
426.35	8.805
426.55	8.915
426.75	8.977
426.96	9.032
427.16	8.728
427.36	9.041
427.57	9.412
427.77	8.617
427.97	8.745
428.17	9.302
428.38	9.128
428.58	7.969
428.78	8.907
428.98	7.866
429.19	8.303
429.39	7.171
429.59	8.492
429.79	7.250
430.00	7.824
430.20	7.867
430.40	8.115
430.60	7.971
430.81	7.920
431.01	7.561
431.21	8.378
431.41	7.076
431.62	8.912
431.82	7.660
432.02	8.651
432.22	7.689
432.43	7.841
432.63	7.920
432.83	8.194
433.03	7.926
433.24	7.762
433.44	7.412
433.64	8.123
433.84	7.671
434.05	8.350
434.25	8.076
434.45	8.823
434.65	8.806
434.85	8.766
435.06	8.455
435.26	8.335
435.46	8.197
435.66	8.620
435.87	8.240
436.07	8.492
436.27	8.162
436.47	7.552
436.67	7.807
436.88	8.517
437.08	7.597
437.28	8.115
437.48	7.960
437.69	8.716
437.89	7.867
438.09	8.717
438.29	7.686
438.49	8.542
438.70	8.081
438.90	7.645
439.10	7.163
439.30	8.207
439.50	7.286
439.71	8.327
439.91	7.850
440.11	8.489
440.31	7.748
440.51	7.634
440.72	8.131
440.92	7.916
441.12	8.267
441.32	8.586
441.52	8.398
441.72	8.384
441.93	8.600
442.13	8.465
442.33	8.191
442.53	9.042
442.73	7.678
442.94	8.079
443.14	8.406
443.34	8.560
443.54	8.249
443.74	8.677
443.94	7.851
444.15	7.645
444.35	8.003
444.55	8.406
444.75	7.722
444.95	7.865
445.15	7.948
445.36	7.881
445.56	7.402
445.76	8.057
445.96	7.869
446.16	7.836
446.36	7.602
446.57	8.289
446.77	7.755
446.97	7.950
447.17	8.223
447.37	8.404
447.57	8.294
447.77	8.025
447.98	8.044
448.18	8.098
448.38	7.790
448.58	8.491
448.78	8.497
448.98	8.190
449.18	8.022
449.39	8.421
449.59	7.882
449.79	8.312
449.99	7.988
450.19	8.218
450.39	7.799
450.59	8.244
450.79	7.596
451.00	8.347
451.20	9.465
451.40	7.866
451.60	7.451
451.80	8.471
452.00	7.677
452.20	8.912
452.40	7.640
452.61	7.934
452.81	7.659
453.01	8.110
453.21	7.515
453.41	7.607
453.61	7.562
453.81	7.887
454.01	7.926
454.21	8.114
454.42	8.452
454.62	7.902
454.82	7.588
455.02	8.041
455.22	7.381
455.42	7.886
455.62	7.231
455.82	7.903
456.02	7.676
456.23	7.736
456.43	7.337
456.63	7.262
456.83	6.805
457.03	8.138
457.23	7.755
457.43	8.056
457.63	7.324
457.83	7.559
458.03	7.721
458.23	7.659
458.43	7.148
458.64	7.859
458.84	7.713
459.04	7.587
459.24	7.533
459.44	7.290
459.64	7.683
459.84	7.559
460.04	7.724
460.24	8.032
460.44	7.821
460.64	7.898
460.84	7.753
461.04	8.146
461.24	8.289
461.45	8.117
461.65	8.304
461.85	8.586
462.05	7.974
462.25	8.325
462.45	8.705
462.65	8.227
462.85	7.687
463.05	7.888
463.25	7.302
463.45	8.074
463.65	7.771
463.85	8.030
464.05	7.537
464.25	7.726
464.45	7.776
464.65	7.873
464.85	7.465
465.05	7.752
465.26	7.964
465.46	8.105
465.66	7.625
465.86	8.034
466.06	7.646
466.26	7.562
466.46	6.958
466.66	7.778
466.86	7.844
467.06	8.059
467.26	8.008
467.46	7.645
467.66	7.794
467.86	7.925
468.06	7.636
468.26	7.719
468.46	7.788
468.66	7.701
468.86	7.214
469.06	7.963
469.26	7.079
469.46	7.904
469.66	7.017
469.86	7.970
470.06	7.612
470.26	7.908
470.46	7.390
470.66	7.983
470.86	7.143
471.06	7.394
471.26	7.260
471.46	7.185
471.66	7.670
471.86	7.653
472.06	7.138
472.26	8.608
472.46	8.486
472.66	8.251
472.86	7.667
473.06	7.739
473.26	7.721
473.46	7.872
473.66	7.139
473.86	7.661
474.06	7.448
474.26	7.884
474.46	6.923
474.66	8.243
474.86	7.909
475.06	8.187
475.26	7.180
475.46	8.006
475.66	7.199
475.86	7.866
476.06	8.045
476.26	7.954
476.46	7.520
476.66	8.127
476.86	7.139
477.06	7.726
477.26	7.058
477.46	8.056
477.65	7.464
477.85	8.225
478.05	7.405
478.25	8.801
478.45	7.547
478.65	7.897
478.85	7.583
479.05	8.194
479.25	8.045
479.45	8.462
479.65	7.842
479.85	8.202
480.05	7.776
480.25	8.054
480.45	8.357
480.65	8.532
480.85	7.839
481.05	8.514
481.25	8.137
481.44	8.310
481.64	7.494
481.84	8.416
482.04	8.255
482.24	8.498
482.44	8.238
482.64	8.360
482.84	8.255
483.04	8.206
483.24	8.257
483.44	8.017
483.64	7.799
483.84	7.943
484.04	8.034
484.23	8.013
484.43	8.311
484.63	8.352
484.83	8.674
485.03	9.017
485.23	8.984
485.43	8.802
485.63	8.818
485.83	8.906
486.03	8.900
486.23	8.928
486.42	8.994
486.62	8.918
486.82	8.806
487.02	8.458
487.22	8.341
487.42	8.724
487.62	8.427
487.82	8.173
488.02	8.517
488.22	8.355
488.41	8.505
488.61	8.586
488.81	8.513
489.01	8.476
489.21	8.744
489.41	8.760
489.61	8.744
489.81	8.837
490.01	9.060
490.20	8.845
490.40	8.823
490.60	8.941
490.80	8.985
491.00	8.613
491.20	8.500
491.40	8.482
491.60	8.350
491.79	8.478
491.99	8.488
492.19	8.530
492.39	8.476
492.59	8.624
492.79	8.643
492.99	8.802
493.19	8.914
493.38	8.958
493.58	8.914
493.78	8.965
493.98	9.042
494.18	8.945
494.38	9.210
494.58	9.150
494.77	8.739
494.97	8.820
495.17	8.577
495.37	8.963
495.57	9.054
495.77	8.666
495.96	8.722
496.16	8.270
496.36	8.510
496.56	8.725
496.76	8.358
496.96	8.698
497.15	8.540
497.35	8.983
497.55	8.539
497.75	8.716
497.95	8.617
498.15	8.932
498.34	8.743
498.54	8.929
498.74	9.105
498.94	8.877
499.14	9.099
499.34	9.184
499.53	8.648
499.73	8.843
499.93	8.769
500.13	8.898
500.33	8.258
500.52	8.745
500.72	8.690
500.92	8.674
501.12	8.716
501.32	8.572
501.52	8.706
501.71	8.892
501.91	8.562
502.11	8.843
502.31	8.338
502.51	8.991
502.70	8.338
502.90	9.023
503.10	8.318
503.30	8.938
503.50	8.824
503.69	8.695
503.89	8.954
504.09	9.152
504.29	8.823
504.48	9.186
504.68	8.820
504.88	9.256
505.08	8.514
505.28	8.964
505.47	9.273
505.67	9.339
505.87	8.805
506.07	9.129
506.27	8.653
506.46	9.163
506.66	8.644
506.86	9.214
507.06	9.568
507.25	9.332
507.45	8.604
507.65	9.542
507.85	8.655
508.04	9.318
508.24	8.956
508.44	8.887
508.64	8.776
508.83	9.350
509.03	8.983
509.23	9.052
509.43	8.712
509.63	9.013
509.82	9.142
510.02	9.277
510.22	9.003
510.42	9.198
510.61	9.318
510.81	9.063
511.01	9.459
511.21	9.530
511.40	9.206
511.60	9.341
511.80	9.565
511.99	9.618
512.19	9.356
512.39	9.504
512.59	9.499
512.78	9.533
512.98	9.524
513.18	9.465
513.38	9.530
513.57	9.631
513.77	9.414
513.97	9.721
514.17	9.336
514.36	9.672
514.56	9.537
514.76	9.813
514.95	9.045
515.15	9.864
515.35	9.446
515.55	9.543
515.74	9.220
515.94	9.860
516.14	9.210
516.33	9.900
516.53	9.431
516.73	9.340
516.93	9.009
517.12	9.701
517.32	8.948
517.52	9.662
517.71	9.110
517.91	9.389
518.11	9.630
518.30	9.291
518.50	9.243
518.70	9.472
518.90	9.435
519.09	9.418
519.29	9.774
519.49	9.677
519.68	9.784
519.88	9.651
520.08	9.582
520.27	9.856
520.47	10.088
520.67	9.780
520.86	9.899
521.06	10.087
521.26	9.907
521.45	10.015
521.65	9.860
521.85	9.845
522.04	9.591
522.24	9.837
522.44	9.606
522.63	9.826
522.83	9.608
523.03	10.089
523.22	9.672
523.42	10.498
523.62	9.781
523.81	9.943
524.01	10.020
524.21	9.703
524.40	9.685
524.60	10.129
524.80	9.501
524.99	10.018
525.19	9.502
525.39	9.686
525.58	9.734
525.78	9.765
525.98	9.912
526.17	9.628
526.37	9.542
526.57	9.654
526.76	10.084
526.96	9.913
527.15	9.974
527.35	9.865
527.55	9.811
527.74	9.900
527.94	9.804
528.14	9.622
528.33	9.610
528.53	9.490
528.72	9.732
528.92	9.797
529.12	9.875
529.31	9.991
529.51	9.990
529.71	10.178
529.90	10.185
530.10	10.149
530.29	10.522
530.49	10.197
530.69	10.742
530.88	10.614
531.08	10.604
531.28	10.497
531.47	10.467
531.67	10.577
531.86	10.413
532.06	10.210
532.26	10.370
532.45	10.419
532.65	10.298
532.84	10.197
533.04	9.969
533.24	10.016
533.43	9.998
533.63	10.114
533.82	10.432
534.02	10.286
534.22	10.302
534.41	10.429
534.61	10.516
534.80	10.557
535.00	10.673
535.19	10.620
535.39	10.770
535.59	10.581
535.78	10.817
535.98	10.514
536.17	10.476
536.37	10.454
536.57	10.352
536.76	10.597
536.96	10.495
537.15	10.543
537.35	10.008
537.54	10.670
537.74	10.756
537.93	10.888
538.13	10.702
538.33	10.845
538.52	10.875
538.72	11.188
538.91	11.007
539.11	10.960
539.30	11.078
539.50	11.133
539.70	10.673
539.89	10.823
540.09	10.888
540.28	10.711
540.48	10.492
540.67	10.586
540.87	10.764
541.06	10.641
541.26	10.797
541.45	10.781
541.65	10.855
541.85	10.803
542.04	10.998
542.24	10.984
542.43	11.074
542.63	10.994
542.82	11.221
543.02	11.108
543.21	11.374
543.41	11.402
543.60	11.658
543.80	11.487
543.99	11.638
544.19	11.592
544.38	11.578
544.58	11.506
544.77	11.716
544.97	11.709
545.16	11.855
545.36	11.636
545.56	11.636
545.75	11.570
545.95	11.598
546.14	11.737
546.34	11.850
546.53	11.571
546.73	11.689
546.92	11.737
547.12	11.875
547.31	11.765
547.51	11.921
547.70	12.018
547.90	11.807
548.09	11.985
548.29	12.021
548.48	12.329
548.68	12.410
548.87	12.521
549.07	12.090
549.26	12.416
549.46	12.703
549.65	12.644
549.84	12.272
550.04	12.754
550.23	11.945
550.43	12.453
550.62	12.417
550.82	12.670
551.01	12.427
551.21	13.052
551.40	12.179
551.60	13.234
551.79	12.385
551.99	12.730
552.18	12.952
552.38	12.713
552.57	12.823
552.77	12.640
552.96	13.050
553.16	13.161
553.35	13.448
553.54	13.259
553.74	13.427
553.93	13.910
554.13	13.717
554.32	14.041
554.52	13.898
554.71	14.026
554.91	13.649
555.10	14.118
555.29	13.151
555.49	14.110
555.68	13.963
555.88	14.090
556.07	13.811
556.27	14.214
556.46	13.775
556.66	14.186
556.85	14.481
557.04	14.313
557.24	13.687
557.43	15.052
557.63	14.298
557.82	14.370
558.02	14.320
558.21	15.392
558.40	14.543
558.60	15.324
558.79	14.312
558.99	15.302
559.18	14.886
559.38	14.815
559.57	15.540
559.76	15.579
559.96	16.036
560.15	15.952
560.35	15.412
560.54	15.522
560.73	15.274
560.93	15.862
561.12	15.522
561.32	16.319
561.51	16.003
561.70	16.415
561.90	15.771
562.09	16.478
562.29	16.298
562.48	16.488
562.67	16.290
562.87	16.838
563.06	16.269
563.26	17.097
563.45	16.826
563.64	16.974
563.84	17.001
564.03	16.625
564.23	16.724
564.42	17.521
564.61	16.582
564.81	17.114
565.00	17.570
565.20	16.819
565.39	17.568
565.58	17.631
565.78	17.814
565.97	17.504
566.16	18.378
566.36	18.246
566.55	18.291
566.74	18.054
566.94	18.458
567.13	18.179
567.33	18.215
567.52	18.679
567.71	18.858
567.91	18.833
568.10	18.794
568.29	18.862
568.49	19.448
568.68	19.514
568.87	19.154
569.07	19.399
569.26	19.654
569.45	19.432
569.65	19.400
569.84	19.343
570.04	19.656
570.23	19.614
570.42	19.019
570.62	20.109
570.81	19.742
571.00	19.299
571.20	19.634
571.39	20.055
571.58	19.838
571.78	19.839
571.97	19.775
572.16	19.727
572.36	19.937
572.55	20.018
572.74	19.979
572.94	20.431
573.13	20.197
573.32	20.410
573.51	20.339
573.71	20.544
573.90	20.228
574.09	20.545
574.29	20.863
574.48	20.445
574.67	20.833
574.87	20.743
575.06	20.753
575.25	20.484
575.45	20.859
575.64	20.770
575.83	20.756
576.03	22.243
576.22	20.780
576.41	20.683
576.60	20.713
576.80	21.071
576.99	21.126
577.18	21.504
577.38	21.273
577.57	21.256
577.76	21.791
577.95	21.586
578.15	21.703
578.34	21.603
578.53	21.391
578.73	21.287
578.92	21.143
579.11	21.277
579.30	21.464
579.50	21.657
579.69	22.102
579.88	21.514
580.08	20.980
580.27	21.088
580.46	21.311
580.65	21.663
580.85	21.695
581.04	21.428
581.23	21.383
581.42	21.583
581.62	21.586
581.81	21.130
582.00	21.304
582.19	21.526
582.39	21.678
582.58	21.563
582.77	21.862
582.96	20.960
583.16	21.131
583.35	21.476
583.54	21.970
583.73	21.597
583.93	21.128
584.12	21.320
584.31	20.906
584.50	21.142
584.70	21.531
584.89	20.961
585.08	21.182
585.27	21.591
585.47	21.127
585.66	21.446
585.85	21.104
586.04	21.382
586.24	21.911
586.43	21.433
586.62	20.740
586.81	21.126
587.00	20.871
587.20	20.947
587.39	20.819
587.58	21.183
587.77	21.018
587.97	20.715
588.16	21.374
588.35	21.505
588.54	20.133
588.73	21.514
588.93	20.817
589.12	21.874
589.31	21.109
589.50	20.650
589.69	20.796
589.89	20.178
590.08	21.020
590.27	20.412
590.46	20.719
590.65	21.429
590.85	21.081
591.04	21.218
591.23	20.995
591.42	20.783
591.61	21.257
591.81	21.030
592.00	21.446
592.19	21.433
592.38	20.656
592.57	21.238
592.77	21.114
592.96	21.367
593.15	21.896
593.34	20.929
593.53	21.203
593.72	20.878
593.92	21.163
594.11	21.685
594.30	21.167
594.49	21.647
594.68	21.122
594.87	21.290
595.07	20.694
595.26	20.964
595.45	20.962
595.64	21.713
595.83	21.223
596.02	21.709
596.22	21.563
596.41	21.624
596.60	20.892
596.79	21.926
596.98	21.494
597.17	21.775
597.37	21.652
597.56	21.716
597.75	21.092
597.94	22.113
598.13	22.288
598.32	21.996
598.51	22.137
598.71	22.585
598.90	22.396
599.09	22.389
599.28	22.248
599.47	22.499
599.66	22.631
599.85	22.518
600.05	22.421
600.24	23.189
600.43	23.098
600.62	22.811
600.81	22.721
601.00	23.052
601.19	23.080
601.38	23.769
601.58	23.727
601.77	23.305
601.96	22.618
602.15	23.277
602.34	23.518
602.53	24.139
602.72	22.641
602.91	23.111
603.10	23.139
603.30	22.783
603.49	23.239
603.68	23.449
603.87	23.494
604.06	23.527
604.25	23.301
604.44	22.755
604.63	23.541
604.82	23.273
605.01	23.900
605.21	23.502
605.40	23.300
605.59	23.502
605.78	23.265
605.97	22.904
606.16	23.382
606.35	23.821
606.54	24.279
606.73	23.336
606.92	24.360
607.11	23.624
607.30	24.116
607.50	23.756
607.69	23.888
607.88	23.439
608.07	23.300
608.26	22.981
608.45	23.540
608.64	23.632
608.83	22.821
609.02	23.090
609.21	22.700
609.40	22.775
609.59	22.592
609.78	23.240
609.97	23.233
610.16	22.462
610.35	23.174
610.55	22.590
610.74	22.803
610.93	22.808
611.12	22.511
611.31	22.534
611.50	22.986
611.69	22.474
611.88	22.836
612.07	22.791
612.26	22.359
612.45	22.593
612.64	21.566
612.83	22.152
613.02	22.147
613.21	22.263
613.40	21.335
613.59	22.557
613.78	21.046
613.97	22.276
614.16	21.784
614.35	21.669
614.54	21.092
614.73	21.438
614.92	22.157
615.11	21.379
615.30	21.219
615.49	20.654
615.68	21.575
615.87	21.870
616.07	20.477
616.26	20.717
616.45	21.055
616.64	20.859
616.83	20.559
617.02	21.593
617.21	20.323
617.40	20.558
617.59	21.767
617.78	21.013
617.97	20.988
618.16	20.200
618.35	19.613
618.54	20.765
618.73	20.661
618.92	20.189
619.11	19.585
619.30	20.182
619.49	19.534
619.68	20.259
619.86	20.732
620.05	20.303
620.24	19.145
620.43	19.847
620.62	18.967
620.81	20.551
621.00	20.394
621.19	20.317
621.38	20.200
621.57	19.954
621.76	19.552
621.95	20.323
622.14	20.024
622.33	20.803
622.52	19.387
622.71	20.216
622.90	18.365
623.09	19.019
623.28	19.423
623.47	19.136
623.66	19.223
623.85	19.861
624.04	18.715
624.23	18.631
624.42	19.911
624.61	18.611
624.80	19.199
624.99	19.551
625.18	18.715
625.36	19.480
625.55	19.589
625.74	18.624
625.93	18.030
626.12	19.544
626.31	18.918
626.50	19.317
626.69	18.979
626.88	19.424
627.07	19.758
627.26	19.217
627.45	19.240
627.64	19.029
627.83	19.230
628.02	19.059
628.20	19.135
628.39	19.074
628.58	19.726
628.77	19.084
628.96	18.287
629.15	18.516
629.34	18.799
629.53	19.000
629.72	18.155
629.91	18.761
630.10	18.510
630.29	17.945
630.47	18.227
630.66	18.627
630.85	17.953
631.04	18.505
631.23	18.465
631.42	17.548
631.61	18.070
631.80	19.154
631.99	17.063
632.18	17.815
632.36	17.102
632.55	17.964
632.74	18.041
632.93	17.603
633.12	17.119
633.31	18.079
633.50	17.861
633.69	17.885
633.88	17.445
634.06	17.807
634.25	18.031
634.44	17.568
634.63	18.065
634.82	18.145
635.01	16.913
635.20	17.848
635.39	17.273
635.57	17.855
635.76	17.493
635.95	17.602
636.14	16.398
636.33	18.499
636.52	17.545
636.71	17.918
636.89	17.238
637.08	17.337
637.27	16.514
637.46	17.415
637.65	17.573
637.84	17.707
638.03	17.241
638.21	18.084
638.40	17.366
638.59	17.728
638.78	17.397
638.97	18.183
639.16	18.187
639.34	18.174
639.53	16.854
639.72	17.766
639.91	16.985
640.10	17.271
640.29	18.183
640.47	18.319
640.66	18.062
640.85	19.554
641.04	17.514
641.23	17.566
641.42	18.067
641.60	17.490
641.79	16.628
641.98	18.129
642.17	16.946
642.36	17.795
642.54	16.638
642.73	18.529
642.92	16.728
643.11	17.530
643.30	17.616
643.49	17.457
643.67	15.933
643.86	18.413
644.05	16.312
644.24	17.142
644.43	16.861
644.61	17.555
644.80	17.698
644.99	17.390
645.18	18.300
645.37	18.468
645.55	17.550
645.74	17.530
645.93	17.381
646.12	16.891
646.31	17.539
646.49	17.260
646.68	17.400
646.87	17.134
647.06	16.892
647.24	16.909
647.43	15.434
647.62	18.524
647.81	15.129
648.00	17.216
648.18	16.229
648.37	16.688
648.56	16.841
648.75	17.619
648.93	16.478
649.12	17.133
649.31	16.866
649.50	17.667
649.68	16.643
649.87	16.819
650.06	15.662
650.25	17.317
650.43	16.202
650.62	16.795
650.81	16.717
651.00	17.248
651.18	15.722
651.37	17.657
651.56	16.301
651.75	18.288
651.93	16.803
652.12	17.519
652.31	16.147
652.50	17.312
652.68	16.357
652.87	17.787
653.06	17.180
653.25	16.794
653.43	16.217
653.62	17.464
653.81	15.609
654.00	16.938
654.18	16.086
654.37	17.566
654.56	16.001
654.74	15.132
654.93	16.284
655.12	16.255
655.31	16.617
655.49	17.260
655.68	14.085
655.87	14.995
656.05	14.460
656.24	16.745
656.43	13.974
656.62	16.490
656.80	14.002
656.99	15.187
657.18	14.162
657.36	14.936
657.55	15.513
657.74	15.784
657.93	15.380
658.11	16.491
658.30	15.676
658.49	14.116
658.67	14.364
658.86	14.082
659.05	12.414
659.23	14.141
659.42	13.803
659.61	13.913
659.79	13.655
659.98	13.249
660.17	14.525
660.35	13.652
660.54	14.353
660.73	14.548
660.91	13.718
661.10	14.580
661.29	12.218
661.47	12.525
661.66	13.236
661.85	13.241
662.03	12.924
662.22	12.661
662.41	11.053
662.59	13.179
662.78	11.774
662.97	11.955
663.15	11.145
663.34	11.169
663.53	10.881
663.71	12.578
663.90	11.354
664.09	12.209
664.27	12.566
664.46	11.437
664.65	11.208
664.83	12.043
665.02	9.641
665.21	9.871
665.39	10.355
665.58	12.008
665.77	10.733
665.95	10.261
666.14	8.950
666.32	10.192
666.51	9.360
666.70	10.371
666.88	9.534
667.07	9.944
667.26	8.514
667.44	10.058
667.63	10.743
667.81	9.605
668.00	10.115
668.19	11.900
668.37	10.345
668.56	11.961
668.75	10.080
668.93	11.860
669.12	10.700
669.30	10.793
669.49	9.549
669.68	11.286
669.86	11.577
670.05	10.238
670.23	10.139
670.42	10.474
670.61	10.446
670.79	11.214
670.98	10.843
671.16	11.224
671.35	9.516
671.54	11.370
671.72	10.091
671.91	12.416
672.09	10.722
672.28	12.680
672.46	12.360
672.65	12.417
672.84	11.737
673.02	12.810
673.21	9.937
673.39	11.795
673.58	11.526
673.77	12.193
673.95	10.989
674.14	12.760
674.32	10.810
674.51	14.687
674.69	11.018
674.88	12.570
675.07	11.905
675.25	14.302
675.44	12.460
675.62	13.098
675.81	12.040
675.99	15.838
676.18	13.305
676.36	12.735
676.55	11.691
676.74	15.925
676.92	14.656
677.11	14.302
677.29	13.695
677.48	15.116
677.66	14.663
677.85	13.652
678.03	14.157
678.22	15.050
678.40	12.980
678.59	14.253
678.78	12.972
678.96	14.124
679.15	12.589
679.33	16.578
679.52	15.077
679.70	13.823
679.89	14.013
680.07	14.614
680.26	13.164
680.44	15.096
680.63	14.935
680.81	14.510
681.00	13.584
681.18	14.343
681.37	13.509
681.55	16.974
681.74	14.366
681.92	15.781
682.11	14.395
682.29	14.246
682.48	15.393
682.66	15.861
682.85	14.943
683.03	15.656
683.22	16.408
683.40	17.438
683.59	15.551
683.77	16.428
683.96	15.031
684.14	17.914
684.33	14.783
684.51	18.532
684.70	16.202
684.88	18.908
685.07	18.298
685.25	19.255
685.44	17.201
685.62	18.352
685.81	15.774
685.99	19.898
686.18	16.070
686.36	19.761
686.55	17.508
686.73	17.811
686.92	20.303
687.10	20.178
687.29	19.980
687.47	22.142
687.65	21.562
687.84	19.799
688.02	21.872
688.21	22.435
688.39	20.218
688.58	22.856
688.76	21.259
688.95	20.891
689.13	19.881
689.32	23.397
689.50	22.338
689.68	23.619
689.87	21.435
690.05	24.343
690.24	23.229
690.42	24.494
690.61	25.070
690.79	26.224
690.98	23.665
691.16	24.501
691.34	24.493
691.53	26.693
691.71	24.880
691.90	26.005
692.08	25.505
692.27	29.794
692.45	28.675
692.63	29.628
692.82	30.032
693.00	30.020
693.19	28.626
693.37	32.270
693.56	29.771
693.74	32.511
693.92	32.368
694.11	34.944
694.29	33.338
694.48	35.361
694.66	32.917
694.84	34.661
695.03	35.536
695.21	37.447
695.40	38.379
695.58	38.037
695.76	36.245
695.95	40.902
696.13	38.412
696.32	39.111
696.50	42.405
696.68	39.697
696.87	39.233
697.05	40.800
697.24	42.289
697.42	41.745
697.60	41.909
697.79	42.867
697.97	42.859
698.16	44.663
698.34	42.660
698.52	44.093
698.71	43.988
698.89	45.037
699.07	42.840
699.26	44.802
699.44	43.505
699.63	44.991
699.81	45.045
699.99	45.315
700.18	45.142
700.36	45.546
700.54	46.531
700.73	45.881
700.91	46.549
701.09	48.713
701.28	49.420
701.46	49.525
701.64	49.336
701.83	49.867
702.01	51.356
702.20	51.430
702.38	51.759
702.56	52.070
702.75	52.976
702.93	52.553
703.11	53.144
703.30	56.464
703.48	54.647
703.66	56.105
703.85	54.745
704.03	56.189
704.21	55.731
704.40	56.668
704.58	57.892
704.76	57.555
704.95	59.069
705.13	57.344
705.31	60.010
705.50	57.424
705.68	56.927
705.86	58.953
706.04	60.091
706.23	60.536
706.41	58.818
706.59	59.039
706.78	59.714
706.96	58.401
707.14	61.268
707.33	61.435
707.51	61.260
707.69	61.068
707.88	61.213
708.06	61.615
708.24	61.904
708.42	62.320
708.61	59.476
708.79	61.729
708.97	61.843
709.16	61.893
709.34	65.754
709.52	63.447
709.71	61.966
709.89	63.541
710.07	62.221
710.25	62.786
710.44	62.818
710.62	63.034
710.80	63.657
710.98	62.112
711.17	63.124
711.35	64.082
711.53	64.339
711.72	63.658
711.90	64.624
712.08	63.263
712.26	64.478
712.45	64.004
712.63	64.026
712.81	66.259
712.99	63.312
713.18	64.517
713.36	65.180
713.54	66.906
713.72	62.458
713.91	64.514
714.09	62.098
714.27	65.965
714.45	63.943
714.64	64.070
714.82	66.732
715.00	65.186
715.18	65.136
715.37	65.614
715.55	65.583
715.73	64.899
715.91	66.635
716.10	64.698
716.28	61.873
716.46	65.701
716.64	64.381
716.83	66.259
717.01	65.103
717.19	66.771
717.37	65.738
717.55	64.834
717.74	64.765
717.92	64.719
718.10	64.647
718.28	65.724
718.47	67.336
718.65	67.388
718.83	64.682
719.01	65.899
719.19	65.227
719.38	69.299
719.56	66.706
719.74	67.414
719.92	65.963
720.10	68.761
720.29	68.447
720.47	68.121
720.65	67.919
720.83	68.898
721.01	68.891
721.20	69.284
721.38	71.113
721.56	68.813
721.74	69.274
721.92	68.253
722.11	69.137
722.29	69.860
722.47	70.677
722.65	72.087
722.83	71.584
723.01	69.793
723.20	69.680
723.38	72.333
723.56	68.771
723.74	70.974
723.92	70.065
724.10	71.425
724.29	70.844
724.47	70.474
724.65	70.520
724.83	70.699
725.01	67.760
725.19	70.130
725.38	68.747
725.56	70.276
725.74	70.771
725.92	71.264
726.10	72.083
726.28	71.003
726.46	73.584
726.65	72.719
726.83	71.791
727.01	71.491
727.19	70.792
727.37	70.741
727.55	71.304
727.73	69.772
727.92	73.721
728.10	70.684
728.28	69.505
728.46	70.435
728.64	69.776
728.82	71.155
729.00	69.912
729.19	73.869
729.37	70.320
729.55	70.948
729.73	70.165
729.91	72.231
730.09	71.326
730.27	72.801
730.45	72.446
730.63	70.249
730.82	70.326
731.00	70.969
731.18	71.526
731.36	74.237
731.54	69.956
731.72	72.325
731.90	74.192
732.08	73.025
732.26	71.334
732.45	74.196
732.63	72.559
732.81	70.872
732.99	71.466
733.17	70.997
733.35	76.353
733.53	75.315
733.71	72.736
733.89	71.739
734.07	72.693
734.25	72.436
734.44	71.115
734.62	71.526
734.80	72.587
734.98	74.311
735.16	74.723
735.34	77.616
735.52	73.702
735.70	75.385
735.88	77.105
736.06	73.925
736.24	78.065
736.42	75.348
736.60	78.823
736.78	77.012
736.97	78.659
737.15	76.233
737.33	72.931
737.51	77.183
737.69	79.774
737.87	79.403
738.05	78.811
738.23	79.768
738.41	73.546
738.59	77.573
738.77	77.061
738.95	77.607
739.13	76.898
739.31	77.634
739.49	80.126
739.67	78.038
739.85	76.871
740.03	77.628
740.21	78.061
740.39	77.877
740.57	78.880
740.75	76.339
740.93	78.263
741.11	79.014
741.30	77.786
741.48	81.678
741.66	83.607
741.84	80.888
742.02	76.699
742.20	77.605
742.38	78.723
742.56	80.354
742.74	79.956
742.92	79.073
743.10	77.074
743.28	81.454
743.46	77.992
743.64	78.728
743.82	77.247
744.00	80.823
744.18	80.284
744.36	80.988
744.54	84.058
744.72	80.607
744.90	86.667
745.08	80.149
745.26	83.704
745.44	82.597
745.62	80.795
745.80	83.626
745.98	83.974
746.16	82.813
746.34	86.318
746.52	81.684
746.70	80.795
746.87	80.697
747.05	80.808
747.23	85.070
747.41	83.068
747.59	81.517
747.77	79.184
747.95	85.487
748.13	78.929
748.31	84.398
748.49	82.306
748.67	79.029
748.85	78.500
749.03	81.714
749.21	82.665
749.39	82.969
749.57	80.268
749.75	81.514
749.93	82.340
750.11	83.777
750.29	78.969
750.47	79.131
750.65	80.849
750.83	80.236
751.01	81.810
751.18	80.006
751.36	80.183
751.54	84.772
751.72	81.063
751.90	82.855
752.08	81.168
752.26	80.154
752.44	79.132
752.62	79.700
752.80	81.499
752.98	84.608
753.16	80.763
753.34	80.422
753.52	81.159
753.69	85.561
753.87	82.332
754.05	84.723
754.23	79.705
754.41	81.994
754.59	81.714
754.77	77.887
754.95	80.411
755.13	80.329
755.31	78.883
755.49	81.601
755.66	83.938
755.84	82.798
756.02	80.886
756.20	83.409
756.38	81.628
756.56	82.865
756.74	81.623
756.92	81.993
757.10	79.577
757.28	85.538
757.45	85.607
757.63	82.308
757.81	82.067
757.99	84.073
758.17	81.210
758.35	83.407
758.53	82.919
758.71	82.302
758.88	82.317
759.06	80.779
759.24	75.060
759.42	79.221
759.60	77.546
759.78	77.632
759.96	75.924
760.13	78.692
760.31	74.447
760.49	74.134
760.67	71.225
760.85	73.177
761.03	73.552
761.21	69.251
761.38	70.874
761.56	74.657
761.74	71.488
761.92	71.930
762.10	71.696
762.28	71.222
762.46	67.900
762.63	69.966
762.81	74.907
762.99	73.931
763.17	72.332
763.35	71.446
763.53	70.151
763.70	72.506
763.88	71.637
764.06	69.266
764.24	69.628
764.42	70.957
764.60	70.330
764.77	68.897
764.95	69.704
765.13	68.708
765.31	71.412
765.49	70.272
765.66	70.726
765.84	73.706
766.02	72.867
766.20	73.286
766.38	72.255
766.56	71.710
766.73	74.042
766.91	73.499
767.09	79.752
767.27	79.711
767.45	78.299
767.62	76.591
767.80	76.367
767.98	79.164
768.16	76.487
768.33	77.546
768.51	77.669
768.69	78.111
768.87	74.828
769.05	78.373
769.22	77.844
769.40	88.477
769.58	81.238
769.76	82.599
769.94	82.780
770.11	80.873
770.29	78.479
770.47	80.821
770.65	82.820
770.82	81.295
771.00	83.168
771.18	82.892
771.36	77.831
771.53	84.809
771.71	83.422
771.89	84.409
772.07	84.373
772.25	85.913
772.42	82.863
772.60	81.109
772.78	80.529
772.96	84.787
773.13	87.359
773.31	87.457
773.49	84.376
773.67	82.694
773.84	81.216
774.02	84.358
774.20	83.699
774.37	84.633
774.55	87.393
774.73	78.839
774.91	82.083
775.08	84.140
775.26	86.507
775.44	83.931
775.62	87.418
775.79	85.081
775.97	88.102
776.15	83.998
776.32	78.562
776.50	90.265
776.68	89.969
776.86	86.260
777.03	79.235
777.21	83.824
777.39	83.708
777.56	87.108
777.74	83.691
777.92	82.179
778.10	84.002
778.27	83.771
778.45	89.751
778.63	88.905
778.80	83.262
778.98	85.165
779.16	85.064
779.34	82.134
779.51	84.699
779.69	82.661
779.87	86.989
780.04	89.044
780.22	82.849
780.40	84.615
780.57	85.032
780.75	84.405
780.93	86.633
781.10	88.290
781.28	87.801
781.46	84.092
781.63	81.122
781.81	87.879
781.99	77.471
782.16	84.562
782.34	83.342
782.52	88.295
782.69	85.751
782.87	90.097
783.05	82.537
783.22	88.711
783.40	83.689
783.58	85.488
783.75	77.577
783.93	85.433
784.11	79.857
784.28	88.990
784.46	88.644
784.64	88.204
784.81	83.260
784.99	89.669
785.17	80.231
785.34	85.399
785.52	80.859
785.69	79.065
785.87	83.989
786.05	85.898
786.22	84.934
786.40	87.254
786.58	80.100
786.75	84.956
786.93	83.164
787.11	83.157
787.28	87.463
787.46	88.184
787.63	83.537
787.81	88.198
787.99	85.114
788.16	79.066
788.34	79.798
788.51	85.571
788.69	78.049
788.87	80.394
789.04	82.164
789.22	77.714
789.39	76.773
789.57	84.143
789.75	79.790
789.92	82.373
790.10	74.501
790.27	79.178
790.45	79.896
790.63	76.002
790.80	71.821
790.98	79.499
791.15	80.104
791.33	82.214
791.51	77.597
791.68	79.631
791.86	81.858
792.03	78.829
792.21	77.479
792.39	86.250
792.56	78.965
792.74	83.770
792.91	81.293
793.09	80.521
793.26	76.119
793.44	82.433
793.62	80.717
793.79	81.391
793.97	74.728
794.14	82.595
794.32	80.447
794.49	85.986
794.67	74.805
794.84	82.466
795.02	83.606
795.20	86.743
795.37	77.527
795.55	81.625
795.72	80.203
795.90	77.419
796.07	74.689
796.25	83.129
796.42	81.442
796.60	80.011
796.77	73.246
796.95	82.902
797.13	71.937
797.30	78.568
797.48	76.729
797.65	79.303
797.83	76.859
798.00	76.935
798.18	77.028
798.35	80.442
798.53	79.620
798.70	78.537
798.88	78.607
799.05	82.481
799.23	81.564
799.40	77.600
799.58	85.413
799.75	79.770
799.93	78.119
800.10	83.173
800.28	80.874
800.45	83.433
800.63	71.888
800.80	87.129
800.98	78.388
801.15	78.424
801.33	74.551
801.50	81.967
801.68	74.771
801.85	77.114
802.03	76.708
802.20	88.246
802.38	76.684
802.55	76.932
802.73	76.506
802.90	77.207
803.08	72.657
803.25	86.768
803.43	79.183
803.60	79.421
803.78	81.966
803.95	79.057
804.13	78.567
804.30	84.935
804.48	76.614
804.65	79.551
804.83	81.345
805.00	80.676
805.17	81.267
805.35	78.471
805.52	77.778
805.70	76.304
805.87	82.411
806.05	80.169
806.22	76.673
806.40	77.785
806.57	74.984
806.75	87.891
806.92	83.694
807.09	83.380
807.27	77.484
807.44	82.199
807.62	75.935
807.79	83.448
807.97	78.595
808.14	82.485
808.31	80.956
808.49	80.769
808.66	72.901
808.84	81.535
809.01	87.509
809.19	84.308
809.36	78.520
809.53	78.732
809.71	78.898
809.88	85.947
810.06	79.300
810.23	80.697
810.41	81.631
810.58	79.771
810.75	73.878
810.93	79.390
811.10	71.681
811.28	83.395
811.45	83.293
811.62	79.540
811.80	79.051
811.97	82.057
812.15	86.160
812.32	72.851
812.49	80.772
812.67	75.669
812.84	62.960
813.02	81.846
813.19	70.149
813.36	77.795
813.54	76.867
813.71	84.095
813.89	71.352
814.06	73.841
814.23	72.408
814.41	81.708
814.58	74.602
814.75	71.498
814.93	84.983
815.10	81.535
815.28	72.578
815.45	68.613
815.62	74.314
815.80	65.241
815.97	72.276
816.14	72.617
816.32	72.296
816.49	77.112
816.66	76.051
816.84	75.215
817.01	66.010
817.18	72.121
817.36	72.049
817.53	70.141
817.71	57.949
817.88	72.816
818.05	62.469
818.23	72.692
818.40	71.562
818.57	76.194
818.75	70.285
818.92	67.568
819.09	68.341
819.27	72.914
819.44	78.244
819.61	66.075
819.79	70.092
819.96	78.385
820.13	63.399
820.31	70.592
820.48	71.952
820.65	70.419
820.82	65.488
821.00	73.365
821.17	67.431
821.34	69.157
821.52	66.221
821.69	68.140
821.86	64.962
822.04	71.515
822.21	67.643
822.38	68.898
822.56	65.864
822.73	66.904
822.90	65.547
823.07	64.912
823.25	64.873
823.42	65.403
823.59	65.021
823.77	64.132
823.94	64.404
824.11	63.835
824.29	63.727
824.46	65.698
824.63	64.478
824.80	64.765
824.98	65.097
825.15	66.077
825.32	65.797
825.49	69.288
825.67	67.075
825.84	66.482
826.01	67.243
826.19	72.677
826.36	67.780
826.53	69.564
826.70	67.732
826.88	71.980
827.05	67.926
827.22	67.383
827.39	67.295
827.57	66.606
827.74	65.664
827.91	67.727
828.08	65.533
828.26	66.906
828.43	65.770
828.60	66.460
828.77	66.019
828.95	64.553
829.12	65.375
829.29	62.493
829.46	67.551
829.64	70.619
829.81	62.788
829.98	64.657
830.15	64.665
830.32	66.106
830.50	64.495
830.67	66.992
830.84	64.052
831.01	63.574
831.19	61.534
831.36	70.414
831.53	66.872
831.70	72.311
831.87	67.073
832.05	66.135
832.22	71.789
832.39	62.883
832.56	64.611
832.74	68.623
832.91	60.982
833.08	72.445
833.25	58.869
833.42	66.041
833.60	66.122
833.77	65.220
833.94	59.263
834.11	63.923
834.28	61.945
834.45	67.950
834.63	62.935
834.80	66.728
834.97	62.276
835.14	68.247
835.31	65.382
835.49	67.072
835.66	67.391
835.83	64.564
836.00	64.652
836.17	67.292
836.34	63.625
836.52	67.262
836.69	68.095
836.86	68.905
837.03	66.893
837.20	67.369
837.37	66.563
837.55	60.594
837.72	62.753
837.89	65.953
838.06	73.039
838.23	76.338
838.40	73.228
838.58	67.608
838.75	68.008
838.92	72.656
839.09	82.878
839.26	69.864
839.43	80.021
839.60	81.615
839.78	82.006
839.95	89.041
840.12	71.305
840.29	87.370
840.46	75.563
840.63	74.524
840.80	76.115
840.98	73.734
841.15	70.420
841.32	69.149
841.49	67.180
841.66	81.028
841.83	61.786
842.00	73.139
842.17	78.227
842.34	63.184
842.52	82.907
842.69	84.607
842.86	77.336
843.03	94.932
843.20	74.088
843.37	84.080
843.54	76.658
843.71	88.918
843.88	77.051
844.06	90.000
844.23	82.487
844.40	85.693
844.57	80.901
844.74	94.915
844.91	94.172
845.08	92.998
845.25	91.933
845.42	94.918
845.59	106.178
845.76	89.871
845.94	100.355
846.11	94.966
846.28	99.415
846.45	114.149
846.62	122.876
846.79	105.195
846.96	97.303
847.13	102.467
847.30	87.544
847.47	95.112
847.64	96.464
847.81	82.039
847.98	108.299
848.15	101.474
848.32	97.909
848.50	120.751
848.67	85.740
848.84	106.275
849.01	99.593
849.18	100.613
849.35	116.798
849.52	118.020
849.69	95.360
849.86	122.398
850.03	111.007
850.20	100.188
850.37	105.300
850.54	98.835
850.71	104.213
850.88	102.697
851.05	98.542
851.22	114.175
851.39	96.205
851.56	112.148
851.73	131.765
851.90	116.284
852.07	109.353
852.24	86.497
852.41	110.921
852.58	99.048
852.75	91.395
852.92	100.201
853.09	151.124
853.26	112.632
853.43	104.667
853.60	85.863
853.77	107.459
853.94	103.491
854.11	116.473
854.28	130.976
854.45	86.667
854.62	128.831
854.79	91.593
854.96	119.643
855.13	112.761
855.30	126.250
855.47	118.622
855.64	110.468
855.81	102.153
855.98	119.241
856.15	107.317
856.32	94.154
856.49	102.364
856.66	100.469
856.83	107.328
857.00	110.460
857.17	109.563
857.34	96.491
857.51	100.000
857.68	119.570
857.85	145.424
858.02	119.804
858.19	111.089
858.36	115.802
858.53	115.203
858.70	108.772
858.87	116.944
859.04	103.167
859.21	102.802
859.38	116.042
859.55	113.382
859.72	150.578
859.89	158.892
860.05	121.078
860.22	113.158
860.39	108.163
860.56	115.909
860.73	113.842
860.90	106.164
861.07	132.420
861.24	90.389
861.41	122.751
861.58	122.824
861.75	109.308
861.92	92.779
862.09	118.734
862.26	115.839
862.43	134.986
862.59	117.361
862.76	99.151
862.93	133.784
863.10	95.227
863.27	112.389
863.44	97.059
863.61	103.182
863.78	120.597
863.95	127.553
864.12	145.171
864.29	126.140
864.45	134.257
864.62	117.801
864.79	126.733
864.96	108.437
865.13	104.656
865.30	109.048
865.47	133.148
865.64	117.925
865.81	118.182
865.97	91.127
866.14	114.031
866.31	83.333
866.48	106.710
866.65	98.438
866.82	125.420
866.99	142.216
867.16	112.304
867.33	119.529
867.49	108.068
867.66	117.590
867.83	87.665
868.00	89.074
868.17	115.230
868.34	102.902
868.51	96.377
868.67	111.848
868.84	111.954
869.01	108.065
869.18	117.317
869.35	107.285
869.52	120.750
869.69	130.488
869.85	108.148
870.02	91.990
870.19	118.421
870.36	135.979
870.53	94.639
870.70	123.404
870.86	97.409
871.03	118.329
871.20	100.248
871.37	129.973
871.54	100.543
871.71	108.252
871.87	108.696
872.04	100.000
872.21	98.455
872.38	118.826
872.55	119.241
872.72	93.694
872.88	130.986
873.05	103.288
873.22	115.619
873.39	95.981
873.56	95.672
873.72	103.606
873.89	123.837
874.06	115.722
874.23	118.586
874.40	106.166
874.56	108.524
874.73	106.796
874.90	104.278
875.07	90.830
875.24	101.909
875.40	92.809
875.57	106.591
875.74	131.220
875.91	116.531
876.08	84.802
876.24	117.562
876.41	126.904
876.58	107.876
876.75	117.355
876.92	94.196
877.08	92.383
877.25	78.351
877.42	102.033
877.59	125.688
877.75	96.741
877.92	74.335
878.09	103.712
878.26	102.008
878.42	105.851
878.59	110.619
878.76	93.281
878.93	110.860
879.09	97.162
879.26	92.029
879.43	107.416
879.60	80.151
879.76	89.502
879.93	89.604
880.10	99.767
880.27	71.474
880.43	74.437
880.60	74.295
880.77	63.538
880.94	56.929
881.10	62.396
881.27	73.252
881.44	54.930
881.61	61.455
881.77	59.805
881.94	56.022
882.11	56.371
882.28	55.095
882.44	58.135
882.61	56.427
882.78	57.762
882.94	66.239
883.11	60.051
883.28	60.536
883.45	60.881
883.61	59.329
883.78	63.208
883.95	61.991
884.11	59.707
884.28	59.484
>>>>>End Processed Spectral Data<<<<<
