SpectraSuite Data File
++++++++++++++++++++++++++++++++++++
Date: Tue Sep 24 02:59:51 EST 2019
User: sgrac
Dark Spectrum Present: Yes
Reference Spectrum Present: Yes
Number of Sampled Component Spectra: 1
Spectrometers: USB4E01596
Integration Time (usec): 100000 (USB4E01596)
Spectra Averaged: 3 (USB4E01596)
Boxcar Smoothing: 0 (USB4E01596)
Correct for Electrical Dark: No (USB4E01596)
Strobe/Lamp Enabled: Yes (USB4E01596)
Correct for Detector Non-linearity: No (USB4E01596)
Correct for Stray Light: No (USB4E01596)
Number of Pixels in Processed Spectrum: 3648
>>>>>Begin Processed Spectral Data<<<<<
178.44	886.364
178.66	886.364
178.87	886.364
179.09	396.226
179.30	340.000
179.52	-606.667
179.74	386.792
179.95	413.433
180.17	-7100.000
180.38	-6266.667
180.60	255.056
180.82	-1364.286
181.03	500.000
181.25	-573.913
181.46	247.222
181.68	1977.778
181.89	-787.500
182.11	289.394
182.33	605.714
182.54	378.947
182.76	-267.500
182.97	181.988
183.19	304.444
183.40	2311.111
183.62	257.317
183.84	338.667
184.05	326.087
184.27	258.025
184.48	-900.000
184.70	188.172
184.91	277.632
185.13	268.421
185.34	238.710
185.56	540.625
185.78	691.667
185.99	731.250
186.21	250.000
186.42	226.190
186.64	176.344
186.85	408.333
187.07	-1840.000
187.28	-847.059
187.50	-23400.000
187.72	17300.000
187.93	-641.667
188.15	437.209
188.36	272.973
188.58	283.784
188.79	-2042.857
189.01	-1392.308
189.22	692.000
189.44	245.349
189.65	269.697
189.87	-2400.000
190.09	544.118
190.30	434.211
190.52	1152.381
190.73	3283.333
190.95	389.474
191.16	206.329
191.38	1263.636
191.59	1528.571
191.81	779.412
192.02	455.319
192.24	351.020
192.45	1194.118
192.67	253.247
192.88	256.122
193.10	246.970
193.31	217.172
193.53	476.316
193.74	-15000.000
193.96	421.127
194.18	156.604
194.39	215.217
194.61	254.630
194.82	199.153
195.04	242.056
195.25	0.000
195.47	-15500.000
195.68	184.000
195.90	263.529
196.11	263.855
196.33	290.698
196.54	200.000
196.76	542.424
196.97	-1350.000
197.19	277.907
197.40	408.772
197.62	458.491
197.83	200.962
198.05	263.014
198.26	0.000
198.48	-175.556
198.69	423.333
198.91	2300.000
199.12	-4150.000
199.34	223.333
199.55	-16300.000
199.77	1438.889
199.98	433.803
200.20	136.364
200.41	435.526
200.63	614.706
200.84	-1407.692
201.06	198.734
201.27	640.000
201.49	423.404
201.70	172.414
201.91	364.789
202.13	264.179
202.34	-704.000
202.56	157.746
202.77	2600.000
202.99	2050.000
203.20	368.116
203.42	518.919
203.63	2237.500
203.85	205.042
204.06	280.769
204.28	145.763
204.49	639.394
204.71	-434.375
204.92	184.783
205.14	393.548
205.35	416.667
205.56	256.190
205.78	-478.000
205.99	625.641
206.21	331.579
206.42	328.788
206.64	1160.870
206.85	224.096
207.07	-274.194
207.28	552.000
207.50	233.696
207.71	416.667
207.93	5933.333
208.14	597.368
208.35	-1091.667
208.57	-406.897
208.78	158.042
209.00	572.500
209.21	215.842
209.43	-2166.667
209.64	161.932
209.86	214.035
210.07	304.762
210.28	479.310
210.50	3233.333
210.71	677.419
210.93	-746.667
211.14	321.818
211.36	258.333
211.57	922.222
211.78	2400.000
212.00	-766.667
212.21	485.366
212.43	378.571
212.64	262.195
212.86	804.348
213.07	285.294
213.29	1257.143
213.50	143.651
213.71	240.964
213.93	158.462
214.14	171.795
214.36	167.059
214.57	-2240.000
214.78	638.462
215.00	228.099
215.21	470.000
215.43	600.000
215.64	244.444
215.86	191.509
216.07	4550.000
216.28	226.866
216.50	242.157
216.71	710.345
216.93	-332.558
217.14	191.919
217.35	378.571
217.57	217.949
217.78	320.968
218.00	219.192
218.21	200.000
218.42	822.222
218.64	1126.667
218.85	432.143
219.07	193.277
219.28	227.692
219.49	167.890
219.71	351.429
219.92	272.000
220.14	289.130
220.35	954.545
220.56	478.049
220.78	487.879
220.99	224.615
221.21	314.865
221.42	227.027
221.63	2800.000
221.85	682.143
222.06	483.333
222.28	216.456
222.49	219.355
222.70	238.000
222.92	373.684
223.13	766.667
223.34	628.125
223.56	145.669
223.77	117.361
223.99	190.000
224.20	142.466
224.41	233.333
224.63	159.184
224.84	162.143
225.05	164.800
225.27	256.863
225.48	191.919
225.69	251.042
225.91	230.120
226.12	108.163
226.34	106.704
226.55	89.787
226.76	123.684
226.98	123.750
227.19	56.373
227.40	80.087
227.62	66.505
227.83	69.613
228.04	66.566
228.26	51.652
228.47	43.226
228.69	32.041
228.90	27.156
229.11	31.744
229.33	27.057
229.54	20.764
229.75	21.675
229.97	23.838
230.18	22.518
230.39	17.907
230.61	14.880
230.82	23.972
231.03	17.363
231.25	21.714
231.46	24.069
231.67	15.013
231.89	21.691
232.10	26.479
232.31	30.879
232.53	32.484
232.74	32.283
232.95	39.274
233.17	26.923
233.38	33.836
233.59	36.551
233.81	38.699
234.02	41.591
234.23	32.753
234.45	41.627
234.66	43.818
234.87	33.643
235.09	22.888
235.30	25.436
235.51	32.762
235.73	26.725
235.94	27.116
236.15	26.667
236.36	31.866
236.58	28.251
236.79	32.965
237.00	21.230
237.22	20.159
237.43	32.853
237.64	35.667
237.86	28.255
238.07	29.393
238.28	22.074
238.50	29.762
238.71	31.579
238.92	24.404
239.13	25.036
239.35	27.500
239.56	26.667
239.77	33.424
239.99	27.070
240.20	24.063
240.41	23.030
240.63	18.027
240.84	21.790
241.05	23.751
241.26	18.489
241.48	13.553
241.69	14.420
241.90	14.031
242.12	10.669
242.33	14.819
242.54	10.251
242.75	8.861
242.97	9.943
243.18	8.949
243.39	8.275
243.61	10.843
243.82	10.492
244.03	6.195
244.24	10.235
244.46	11.126
244.67	11.450
244.88	9.234
245.09	11.715
245.31	10.433
245.52	8.686
245.73	12.103
245.95	15.500
246.16	10.904
246.37	5.624
246.58	10.825
246.80	8.932
247.01	7.544
247.22	6.975
247.43	4.610
247.65	7.676
247.86	5.952
248.07	6.546
248.28	4.453
248.50	4.529
248.71	4.212
248.92	6.502
249.13	4.714
249.35	4.305
249.56	7.054
249.77	6.166
249.98	4.259
250.20	9.402
250.41	4.998
250.62	8.780
250.83	8.583
251.05	9.078
251.26	14.896
251.47	12.675
251.68	13.087
251.90	9.235
252.11	6.253
252.32	12.703
252.53	9.922
252.75	11.506
252.96	7.917
253.17	9.971
253.38	8.426
253.59	10.911
253.81	7.398
254.02	7.643
254.23	9.712
254.44	9.779
254.66	6.223
254.87	12.744
255.08	11.665
255.29	12.388
255.50	12.871
255.72	18.057
255.93	10.580
256.14	11.370
256.35	10.173
256.57	16.724
256.78	16.632
256.99	12.625
257.20	18.566
257.41	14.754
257.63	15.195
257.84	15.362
258.05	15.647
258.26	7.577
258.47	8.355
258.69	7.086
258.90	8.718
259.11	7.772
259.32	7.943
259.53	6.943
259.75	6.537
259.96	3.954
260.17	5.862
260.38	4.625
260.59	4.012
260.81	3.561
261.02	3.889
261.23	3.971
261.44	4.877
261.65	4.433
261.87	2.517
262.08	4.697
262.29	5.565
262.50	6.312
262.71	6.582
262.92	5.092
263.14	4.394
263.35	5.890
263.56	10.880
263.77	10.173
263.98	7.266
264.20	8.860
264.41	9.460
264.62	8.455
264.83	5.446
265.04	9.147
265.25	5.980
265.47	10.000
265.68	8.558
265.89	10.134
266.10	4.381
266.31	11.121
266.52	6.982
266.74	8.964
266.95	7.632
267.16	5.665
267.37	7.522
267.58	7.560
267.79	5.657
268.01	5.093
268.22	5.304
268.43	5.627
268.64	6.507
268.85	5.650
269.06	5.839
269.27	7.764
269.49	6.808
269.70	6.258
269.91	5.844
270.12	7.759
270.33	8.422
270.54	5.626
270.75	6.556
270.97	4.507
271.18	5.800
271.39	5.618
271.60	6.068
271.81	5.536
272.02	6.594
272.23	6.288
272.45	4.715
272.66	4.931
272.87	5.049
273.08	4.799
273.29	5.689
273.50	5.393
273.71	4.844
273.92	3.731
274.14	5.023
274.35	4.572
274.56	5.822
274.77	6.593
274.98	6.442
275.19	8.380
275.40	5.901
275.61	4.838
275.83	5.226
276.04	7.524
276.25	7.975
276.46	8.465
276.67	8.172
276.88	7.459
277.09	4.780
277.30	5.948
277.51	7.145
277.73	8.110
277.94	6.626
278.15	6.869
278.36	7.428
278.57	5.423
278.78	4.478
278.99	6.755
279.20	6.823
279.41	9.110
279.62	4.563
279.84	5.608
280.05	5.232
280.26	3.631
280.47	7.092
280.68	6.509
280.89	4.469
281.10	5.894
281.31	8.108
281.52	3.574
281.73	5.432
281.94	6.808
282.16	6.289
282.37	5.217
282.58	6.566
282.79	7.226
283.00	3.444
283.21	3.650
283.42	5.222
283.63	5.346
283.84	5.885
284.05	5.575
284.26	6.381
284.47	4.072
284.68	5.194
284.89	2.977
285.11	5.269
285.32	4.691
285.53	5.155
285.74	5.653
285.95	5.074
286.16	4.389
286.37	2.088
286.58	4.518
286.79	3.588
287.00	4.792
287.21	3.608
287.42	5.380
287.63	2.499
287.84	3.172
288.05	3.806
288.26	4.039
288.48	4.456
288.69	3.652
288.90	4.275
289.11	4.290
289.32	4.864
289.53	6.332
289.74	4.579
289.95	5.071
290.16	4.757
290.37	3.548
290.58	3.971
290.79	4.744
291.00	3.252
291.21	3.824
291.42	4.675
291.63	3.686
291.84	4.663
292.05	4.638
292.26	3.111
292.47	5.627
292.68	4.431
292.89	3.843
293.10	5.182
293.31	4.702
293.52	4.681
293.73	3.863
293.94	4.787
294.15	5.823
294.36	5.367
294.57	3.977
294.79	5.916
295.00	5.013
295.21	5.465
295.42	3.861
295.63	5.750
295.84	4.107
296.05	4.332
296.26	4.176
296.47	4.004
296.68	3.922
296.89	3.038
297.10	4.268
297.31	4.640
297.52	4.218
297.73	3.375
297.94	3.365
298.15	4.093
298.36	3.750
298.57	3.429
298.78	4.001
298.99	2.902
299.20	3.387
299.41	3.879
299.62	2.749
299.83	2.623
300.04	3.921
300.25	4.555
300.46	6.081
300.67	5.909
300.88	4.593
301.09	3.971
301.30	6.445
301.50	2.777
301.71	3.858
301.92	5.858
302.13	4.617
302.34	2.729
302.55	5.706
302.76	3.737
302.97	3.455
303.18	5.040
303.39	5.943
303.60	5.506
303.81	5.613
304.02	3.887
304.23	5.084
304.44	3.948
304.65	5.585
304.86	4.034
305.07	4.290
305.28	4.135
305.49	3.909
305.70	5.370
305.91	4.795
306.12	3.769
306.33	4.624
306.54	3.935
306.75	2.673
306.96	4.828
307.17	4.315
307.38	3.836
307.58	2.420
307.79	4.674
308.00	5.075
308.21	6.296
308.42	4.568
308.63	4.308
308.84	5.438
309.05	4.786
309.26	2.628
309.47	2.844
309.68	4.945
309.89	6.577
310.10	3.480
310.31	3.197
310.52	3.715
310.73	4.629
310.94	3.183
311.14	4.056
311.35	3.390
311.56	3.808
311.77	2.538
311.98	2.100
312.19	3.078
312.40	3.215
312.61	3.290
312.82	4.594
313.03	3.741
313.24	2.942
313.45	3.973
313.66	4.151
313.86	5.357
314.07	3.619
314.28	4.576
314.49	4.962
314.70	4.759
314.91	5.648
315.12	4.265
315.33	4.158
315.54	3.474
315.75	4.721
315.96	3.178
316.16	3.851
316.37	5.028
316.58	3.680
316.79	4.742
317.00	5.549
317.21	5.356
317.42	5.097
317.63	6.385
317.84	4.655
318.05	4.623
318.25	3.714
318.46	3.089
318.67	4.381
318.88	5.284
319.09	3.074
319.30	4.442
319.51	4.766
319.72	3.992
319.93	4.006
320.13	4.968
320.34	5.114
320.55	4.165
320.76	5.648
320.97	5.826
321.18	5.940
321.39	5.800
321.60	5.001
321.80	3.803
322.01	5.039
322.22	5.261
322.43	4.219
322.64	3.497
322.85	4.856
323.06	5.791
323.27	4.667
323.47	5.441
323.68	5.815
323.89	4.915
324.10	5.682
324.31	5.024
324.52	5.254
324.73	4.725
324.93	4.466
325.14	4.312
325.35	4.944
325.56	5.936
325.77	4.408
325.98	4.444
326.19	4.933
326.39	3.556
326.60	4.662
326.81	3.262
327.02	3.662
327.23	4.641
327.44	4.201
327.64	2.980
327.85	4.793
328.06	4.066
328.27	5.233
328.48	5.093
328.69	3.551
328.90	3.502
329.10	4.236
329.31	6.966
329.52	3.448
329.73	4.319
329.94	4.046
330.15	5.210
330.35	4.094
330.56	5.354
330.77	4.750
330.98	5.798
331.19	4.558
331.39	4.230
331.60	5.339
331.81	3.948
332.02	6.482
332.23	5.814
332.44	4.700
332.64	6.004
332.85	4.993
333.06	3.445
333.27	4.451
333.48	4.392
333.68	3.575
333.89	5.004
334.10	3.559
334.31	4.869
334.52	4.371
334.72	4.673
334.93	4.337
335.14	4.009
335.35	4.482
335.56	5.763
335.76	4.177
335.97	6.192
336.18	2.855
336.39	4.454
336.60	4.672
336.80	4.355
337.01	4.321
337.22	4.234
337.43	4.853
337.64	5.049
337.84	4.545
338.05	4.195
338.26	5.914
338.47	4.877
338.68	3.584
338.88	5.179
339.09	4.051
339.30	4.440
339.51	3.146
339.71	5.700
339.92	4.303
340.13	4.456
340.34	2.977
340.55	3.512
340.75	3.463
340.96	2.930
341.17	5.151
341.38	5.016
341.58	4.325
341.79	4.256
342.00	3.625
342.21	4.236
342.41	3.422
342.62	4.666
342.83	4.253
343.04	4.650
343.24	4.346
343.45	4.294
343.66	3.171
343.87	3.302
344.07	3.719
344.28	4.284
344.49	3.575
344.70	4.481
344.90	3.474
345.11	4.247
345.32	3.288
345.53	3.602
345.73	3.933
345.94	4.567
346.15	4.459
346.36	3.743
346.56	3.512
346.77	3.953
346.98	4.804
347.19	3.805
347.39	3.261
347.60	2.689
347.81	4.902
348.02	6.065
348.22	3.912
348.43	3.646
348.64	4.218
348.84	3.487
349.05	4.215
349.26	4.939
349.47	3.907
349.67	4.041
349.88	4.093
350.09	3.983
350.30	6.127
350.50	3.319
350.71	4.856
350.92	3.096
351.12	3.374
351.33	3.525
351.54	3.470
351.74	4.623
351.95	2.935
352.16	4.292
352.37	4.108
352.57	3.744
352.78	4.555
352.99	4.006
353.19	4.015
353.40	4.043
353.61	5.310
353.82	3.794
354.02	4.447
354.23	4.141
354.44	4.386
354.64	4.627
354.85	4.750
355.06	3.725
355.26	2.846
355.47	3.545
355.68	5.676
355.88	3.314
356.09	3.992
356.30	4.033
356.51	4.843
356.71	2.989
356.92	2.973
357.13	4.252
357.33	4.054
357.54	2.989
357.75	3.071
357.95	3.965
358.16	2.890
358.37	4.849
358.57	3.774
358.78	3.977
358.99	3.088
359.19	3.508
359.40	3.684
359.61	2.968
359.81	4.855
360.02	3.869
360.23	4.102
360.43	3.733
360.64	3.173
360.85	3.340
361.05	3.489
361.26	4.582
361.47	3.458
361.67	3.760
361.88	2.355
362.09	3.420
362.29	2.855
362.50	2.570
362.70	2.457
362.91	4.192
363.12	2.276
363.32	2.283
363.53	3.145
363.74	3.123
363.94	2.450
364.15	3.639
364.36	3.782
364.56	2.998
364.77	4.330
364.98	4.700
365.18	2.858
365.39	4.554
365.59	3.194
365.80	2.663
366.01	3.856
366.21	3.370
366.42	2.557
366.63	4.460
366.83	2.606
367.04	2.983
367.24	4.249
367.45	2.912
367.66	2.249
367.86	3.178
368.07	2.766
368.28	3.357
368.48	2.610
368.69	3.142
368.89	4.059
369.10	4.181
369.31	3.653
369.51	4.175
369.72	4.035
369.92	4.514
370.13	3.087
370.34	3.129
370.54	2.365
370.75	3.668
370.95	2.697
371.16	3.167
371.37	3.088
371.57	2.852
371.78	3.352
371.98	3.515
372.19	3.254
372.40	3.149
372.60	3.127
372.81	3.455
373.01	2.340
373.22	2.676
373.43	2.970
373.63	3.351
373.84	3.332
374.04	3.559
374.25	2.779
374.46	3.252
374.66	3.313
374.87	3.633
375.07	2.815
375.28	2.174
375.48	3.381
375.69	3.402
375.90	2.847
376.10	2.089
376.31	2.663
376.51	3.188
376.72	2.073
376.92	2.360
377.13	2.352
377.34	3.640
377.54	3.010
377.75	3.291
377.95	3.334
378.16	3.963
378.36	3.246
378.57	2.815
378.77	2.923
378.98	2.489
379.19	2.855
379.39	2.185
379.60	4.148
379.80	2.888
380.01	3.178
380.21	2.553
380.42	2.802
380.62	2.313
380.83	3.175
381.04	2.655
381.24	3.477
381.45	2.911
381.65	2.301
381.86	2.758
382.06	3.718
382.27	2.371
382.47	3.110
382.68	3.521
382.88	3.236
383.09	3.025
383.29	2.182
383.50	3.298
383.71	3.326
383.91	2.772
384.12	2.896
384.32	3.151
384.53	2.592
384.73	2.242
384.94	2.336
385.14	2.683
385.35	2.310
385.55	2.646
385.76	3.055
385.96	2.392
386.17	2.641
386.37	2.825
386.58	2.814
386.78	2.904
386.99	2.198
387.19	3.153
387.40	2.267
387.60	3.123
387.81	3.582
388.01	2.720
388.22	3.040
388.42	3.490
388.63	4.078
388.83	3.229
389.04	2.100
389.24	2.208
389.45	2.734
389.65	2.411
389.86	2.476
390.06	2.786
390.27	2.306
390.47	2.825
390.68	2.406
390.88	3.564
391.09	2.913
391.29	2.944
391.50	2.328
391.70	3.204
391.91	2.144
392.11	2.398
392.32	3.188
392.52	2.420
392.73	2.993
392.93	2.722
393.14	2.403
393.34	2.297
393.55	3.215
393.75	1.893
393.95	2.089
394.16	3.163
394.36	3.167
394.57	2.741
394.77	2.734
394.98	2.411
395.18	3.246
395.39	2.596
395.59	2.683
395.80	1.974
396.00	2.458
396.21	3.020
396.41	2.386
396.61	2.981
396.82	2.893
397.02	3.688
397.23	2.932
397.43	3.147
397.64	1.850
397.84	3.498
398.05	2.219
398.25	3.109
398.45	2.091
398.66	2.998
398.86	2.911
399.07	3.788
399.27	2.644
399.48	3.066
399.68	2.540
399.89	2.391
400.09	3.054
400.29	3.368
400.50	2.671
400.70	2.664
400.91	2.983
401.11	2.359
401.32	3.020
401.52	1.886
401.72	2.590
401.93	3.708
402.13	2.723
402.34	2.917
402.54	2.376
402.75	3.936
402.95	2.243
403.15	2.888
403.36	1.960
403.56	2.824
403.77	2.421
403.97	2.596
404.17	2.610
404.38	2.957
404.58	2.018
404.79	2.638
404.99	2.839
405.19	1.997
405.40	2.968
405.60	2.713
405.81	2.256
406.01	2.570
406.21	2.333
406.42	2.768
406.62	2.815
406.83	3.043
407.03	3.116
407.23	2.354
407.44	2.525
407.64	2.873
407.85	2.915
408.05	2.410
408.25	2.887
408.46	3.276
408.66	2.709
408.87	2.208
409.07	2.598
409.27	2.583
409.48	2.924
409.68	3.237
409.88	2.303
410.09	2.894
410.29	2.886
410.50	3.633
410.70	1.921
410.90	2.420
411.11	2.291
411.31	2.359
411.51	3.159
411.72	2.940
411.92	2.313
412.12	2.134
412.33	2.556
412.53	2.273
412.74	1.561
412.94	2.694
413.14	2.421
413.35	2.905
413.55	3.158
413.75	3.489
413.96	2.701
414.16	2.918
414.36	2.529
414.57	2.430
414.77	2.621
414.97	2.790
415.18	2.411
415.38	2.493
415.58	2.670
415.79	2.161
415.99	2.764
416.19	2.789
416.40	2.728
416.60	2.588
416.80	2.010
417.01	1.931
417.21	1.884
417.41	2.363
417.62	2.181
417.82	2.529
418.02	1.853
418.23	2.202
418.43	2.162
418.63	2.738
418.84	2.656
419.04	2.070
419.24	2.516
419.45	2.791
419.65	2.834
419.85	2.322
420.06	2.370
420.26	2.556
420.46	2.348
420.67	2.758
420.87	2.977
421.07	3.305
421.28	2.573
421.48	3.053
421.68	2.850
421.88	2.849
422.09	3.011
422.29	2.424
422.49	2.229
422.70	2.942
422.90	2.984
423.10	2.853
423.31	2.541
423.51	3.262
423.71	2.244
423.91	2.931
424.12	2.742
424.32	2.923
424.52	2.886
424.73	2.360
424.93	2.831
425.13	2.470
425.33	2.697
425.54	3.080
425.74	2.912
425.94	3.402
426.15	2.612
426.35	2.548
426.55	3.186
426.75	2.950
426.96	2.633
427.16	2.723
427.36	2.836
427.57	3.158
427.77	2.499
427.97	2.758
428.17	2.926
428.38	3.038
428.58	1.917
428.78	2.983
428.98	2.083
429.19	2.696
429.39	1.793
429.59	2.531
429.79	1.746
430.00	1.671
430.20	1.956
430.40	2.352
430.60	2.301
430.81	2.097
431.01	1.859
431.21	2.469
431.41	2.628
431.62	1.900
431.82	2.266
432.02	3.241
432.22	1.885
432.43	1.542
432.63	1.895
432.83	2.430
433.03	1.829
433.24	1.705
433.44	2.169
433.64	2.634
433.84	1.876
434.05	2.297
434.25	1.892
434.45	2.595
434.65	2.953
434.85	3.080
435.06	2.334
435.26	2.203
435.46	2.342
435.66	2.470
435.87	1.896
436.07	2.739
436.27	2.510
436.47	2.146
436.67	2.030
436.88	2.766
437.08	2.191
437.28	2.379
437.48	2.580
437.69	2.819
437.89	2.006
438.09	2.588
438.29	2.239
438.49	2.477
438.70	2.814
438.90	1.899
439.10	1.905
439.30	2.366
439.50	1.721
439.71	2.432
439.91	2.227
440.11	3.010
440.31	2.589
440.51	2.011
440.72	2.268
440.92	2.395
441.12	2.536
441.32	2.901
441.52	2.521
441.72	2.480
441.93	2.209
442.13	2.653
442.33	2.523
442.53	3.199
442.73	1.858
442.94	2.389
443.14	2.300
443.34	2.647
443.54	2.721
443.74	2.855
443.94	2.393
444.15	2.011
444.35	1.838
444.55	2.750
444.75	2.309
444.95	2.634
445.15	2.283
445.36	2.495
445.56	1.809
445.76	2.347
445.96	2.042
446.16	1.830
446.36	1.956
446.57	3.029
446.77	1.938
446.97	2.504
447.17	3.097
447.37	2.459
447.57	2.687
447.77	2.747
447.98	2.315
448.18	2.861
448.38	2.445
448.58	2.899
448.78	2.561
448.98	2.669
449.18	2.426
449.39	2.467
449.59	2.395
449.79	2.327
449.99	2.210
450.19	2.390
450.39	1.928
450.59	2.426
450.79	2.094
451.00	2.794
451.20	2.749
451.40	1.792
451.60	1.876
451.80	2.755
452.00	2.260
452.20	2.143
452.40	2.155
452.61	2.300
452.81	2.291
453.01	2.223
453.21	2.258
453.41	2.212
453.61	2.392
453.81	2.408
454.01	2.359
454.21	2.024
454.42	2.625
454.62	2.472
454.82	2.289
455.02	2.222
455.22	1.411
455.42	2.330
455.62	1.664
455.82	2.307
456.02	2.101
456.23	2.179
456.43	2.339
456.63	1.918
456.83	1.371
457.03	2.000
457.23	2.016
457.43	2.195
457.63	2.081
457.83	2.366
458.03	1.822
458.23	2.111
458.43	1.876
458.64	2.051
458.84	2.348
459.04	2.069
459.24	2.123
459.44	2.459
459.64	2.713
459.84	2.547
460.04	2.166
460.24	2.426
460.44	2.230
460.64	2.369
460.84	2.186
461.04	3.010
461.24	2.658
461.45	2.970
461.65	2.777
461.85	2.874
462.05	2.420
462.25	2.825
462.45	3.326
462.65	2.514
462.85	1.837
463.05	2.689
463.25	1.596
463.45	2.489
463.65	2.158
463.85	2.440
464.05	2.215
464.25	1.992
464.45	2.987
464.65	1.766
464.85	2.013
465.05	1.737
465.26	1.916
465.46	2.587
465.66	2.398
465.86	2.618
466.06	2.184
466.26	1.774
466.46	1.580
466.66	1.867
466.86	2.164
467.06	2.413
467.26	2.200
467.46	2.559
467.66	2.134
467.86	1.928
468.06	2.155
468.26	1.855
468.46	2.193
468.66	2.106
468.86	1.551
469.06	2.487
469.26	1.609
469.46	2.237
469.66	2.108
469.86	2.146
470.06	2.333
470.26	2.587
470.46	1.579
470.66	2.655
470.86	1.315
471.06	1.868
471.26	1.431
471.46	1.744
471.66	1.843
471.86	1.815
472.06	2.210
472.26	2.525
472.46	2.577
472.66	2.551
472.86	1.641
473.06	2.239
473.26	2.147
473.46	2.148
473.66	1.760
473.86	2.341
474.06	2.065
474.26	2.588
474.46	1.311
474.66	2.330
474.86	2.181
475.06	2.550
475.26	1.639
475.46	2.216
475.66	1.580
475.86	1.921
476.06	2.625
476.26	2.208
476.46	1.563
476.66	2.078
476.86	1.458
477.06	1.932
477.26	1.625
477.46	1.721
477.65	2.075
477.85	2.351
478.05	1.545
478.25	2.587
478.45	1.834
478.65	2.028
478.85	1.920
479.05	2.480
479.25	2.229
479.45	2.717
479.65	1.639
479.85	2.037
480.05	1.899
480.25	2.415
480.45	2.193
480.65	2.414
480.85	1.960
481.05	2.543
481.25	2.499
481.44	2.309
481.64	1.551
481.84	2.584
482.04	2.299
482.24	2.637
482.44	1.796
482.64	2.327
482.84	2.535
483.04	2.734
483.24	2.623
483.44	2.785
483.64	2.809
483.84	2.994
484.04	3.054
484.23	3.233
484.43	3.278
484.63	3.558
484.83	3.394
485.03	3.919
485.23	3.925
485.43	3.815
485.63	3.675
485.83	3.795
486.03	3.664
486.23	3.844
486.42	3.417
486.62	3.683
486.82	3.074
487.02	3.326
487.22	2.719
487.42	3.234
487.62	3.153
487.82	3.158
488.02	2.998
488.22	3.369
488.41	3.065
488.61	3.318
488.81	3.220
489.01	3.539
489.21	3.452
489.41	3.565
489.61	3.568
489.81	3.597
490.01	3.209
490.20	3.441
490.40	3.178
490.60	3.256
490.80	3.014
491.00	3.462
491.20	2.891
491.40	2.703
491.60	2.716
491.79	2.971
491.99	2.987
492.19	2.940
492.39	3.154
492.59	3.309
492.79	3.201
492.99	3.498
493.19	3.347
493.38	3.513
493.58	2.866
493.78	3.338
493.98	3.509
494.18	3.581
494.38	2.933
494.58	3.132
494.77	1.788
494.97	2.826
495.17	2.428
495.37	2.638
495.57	2.639
495.77	2.627
495.96	2.476
496.16	2.273
496.36	2.507
496.56	3.053
496.76	2.056
496.96	2.278
497.15	2.494
497.35	2.411
497.55	2.252
497.75	2.352
497.95	2.100
498.15	2.819
498.34	2.667
498.54	2.383
498.74	3.030
498.94	2.913
499.14	2.089
499.34	3.181
499.53	2.572
499.73	2.743
499.93	2.639
500.13	2.536
500.33	2.191
500.52	2.675
500.72	2.156
500.92	2.082
501.12	1.619
501.32	2.207
501.52	2.430
501.71	2.340
501.91	2.048
502.11	2.105
502.31	2.184
502.51	2.373
502.70	1.786
502.90	2.366
503.10	2.061
503.30	2.730
503.50	2.441
503.69	2.377
503.89	2.602
504.09	2.765
504.29	2.338
504.48	2.509
504.68	2.441
504.88	2.999
505.08	1.801
505.28	2.323
505.47	2.150
505.67	3.473
505.87	2.062
506.07	2.187
506.27	2.391
506.46	2.601
506.66	2.354
506.86	2.265
507.06	3.073
507.25	2.203
507.45	2.005
507.65	2.977
507.85	2.046
508.04	2.727
508.24	2.317
508.44	2.410
508.64	2.408
508.83	2.466
509.03	2.144
509.23	2.715
509.43	2.211
509.63	2.684
509.82	2.288
510.02	2.339
510.22	2.374
510.42	2.707
510.61	2.859
510.81	2.741
511.01	2.867
511.21	2.921
511.40	2.286
511.60	2.977
511.80	2.327
511.99	2.768
512.19	2.797
512.39	3.053
512.59	2.381
512.78	3.222
512.98	2.919
513.18	2.606
513.38	2.416
513.57	3.047
513.77	2.696
513.97	3.021
514.17	2.464
514.36	2.512
514.56	2.608
514.76	3.245
514.95	2.289
515.15	2.413
515.35	1.817
515.55	2.568
515.74	2.846
515.94	2.964
516.14	2.134
516.33	2.852
516.53	2.197
516.73	2.422
516.93	2.174
517.12	3.126
517.32	1.658
517.52	2.790
517.71	2.334
517.91	2.803
518.11	2.867
518.30	2.753
518.50	2.236
518.70	2.683
518.90	2.890
519.09	2.869
519.29	3.103
519.49	3.336
519.68	2.580
519.88	3.739
520.08	2.991
520.27	3.260
520.47	3.239
520.67	2.900
520.86	3.442
521.06	3.545
521.26	2.330
521.45	3.288
521.65	2.644
521.85	2.699
522.04	2.411
522.24	3.149
522.44	2.124
522.63	2.768
522.83	2.650
523.03	2.981
523.22	2.771
523.42	3.282
523.62	3.217
523.81	2.763
524.01	2.895
524.21	2.740
524.40	2.269
524.60	2.726
524.80	2.716
524.99	2.641
525.19	3.077
525.39	2.988
525.58	2.447
525.78	2.855
525.98	3.141
526.17	3.449
526.37	2.797
526.57	3.465
526.76	3.356
526.96	3.462
527.15	3.068
527.35	3.425
527.55	3.048
527.74	3.734
527.94	3.494
528.14	3.478
528.33	3.497
528.53	3.726
528.72	3.453
528.92	3.957
529.12	3.626
529.31	3.879
529.51	3.887
529.71	4.112
529.90	4.158
530.10	4.081
530.29	4.207
530.49	4.193
530.69	4.106
530.88	4.265
531.08	3.951
531.28	3.963
531.47	3.624
531.67	3.807
531.86	3.654
532.06	3.583
532.26	3.153
532.45	3.663
532.65	3.386
532.84	3.641
533.04	2.910
533.24	3.419
533.43	3.174
533.63	3.756
533.82	3.580
534.02	3.680
534.22	3.633
534.41	3.969
534.61	3.981
534.80	3.873
535.00	4.000
535.19	4.037
535.39	3.851
535.59	3.947
535.78	3.432
535.98	3.780
536.17	3.172
536.37	3.441
536.57	3.210
536.76	3.821
536.96	3.426
537.15	3.978
537.35	2.979
537.54	3.337
537.74	3.581
537.93	3.965
538.13	3.482
538.33	3.645
538.52	3.468
538.72	3.594
538.91	3.399
539.11	3.597
539.30	3.032
539.50	3.577
539.70	3.294
539.89	4.061
540.09	3.405
540.28	3.529
540.48	2.792
540.67	3.679
540.87	3.241
541.06	3.753
541.26	3.456
541.45	3.770
541.65	3.806
541.85	4.107
542.04	3.849
542.24	4.256
542.43	3.999
542.63	4.239
542.82	4.286
543.02	4.555
543.21	4.102
543.41	4.389
543.60	4.164
543.80	4.397
543.99	3.738
544.19	4.317
544.38	3.848
544.58	4.247
544.77	3.703
544.97	4.495
545.16	3.288
545.36	4.152
545.56	3.528
545.75	3.926
545.95	3.441
546.14	3.973
546.34	3.108
546.53	4.033
546.73	3.259
546.92	4.085
547.12	3.395
547.31	4.113
547.51	3.431
547.70	4.061
547.90	3.165
548.09	3.723
548.29	3.766
548.48	4.035
548.68	3.750
548.87	4.406
549.07	3.738
549.26	3.335
549.46	3.826
549.65	3.545
549.84	3.279
550.04	3.127
550.23	2.841
550.43	3.482
550.62	3.176
550.82	3.085
551.01	2.697
551.21	3.650
551.40	3.261
551.60	3.779
551.79	2.904
551.99	3.309
552.18	3.068
552.38	3.348
552.57	3.446
552.77	3.891
552.96	3.798
553.16	3.797
553.35	4.011
553.54	4.387
553.74	4.147
553.93	4.513
554.13	4.252
554.32	4.146
554.52	3.429
554.71	4.476
554.91	3.635
555.10	4.185
555.29	3.670
555.49	4.114
555.68	3.498
555.88	4.319
556.07	3.049
556.27	4.738
556.46	3.918
556.66	3.924
556.85	4.503
557.04	4.492
557.24	3.478
557.43	4.683
557.63	4.049
557.82	3.786
558.02	3.762
558.21	4.749
558.40	3.473
558.60	4.141
558.79	4.169
558.99	5.088
559.18	3.811
559.38	4.059
559.57	4.862
559.76	4.734
559.96	4.188
560.15	4.595
560.35	3.886
560.54	4.006
560.73	3.679
560.93	4.631
561.12	4.010
561.32	4.610
561.51	4.812
561.70	4.887
561.90	4.272
562.09	5.299
562.29	4.217
562.48	4.510
562.67	4.522
562.87	5.406
563.06	4.507
563.26	4.700
563.45	4.969
563.64	5.658
563.84	5.032
564.03	5.399
564.23	4.508
564.42	6.011
564.61	4.950
564.81	5.451
565.00	5.163
565.20	6.119
565.39	6.031
565.58	5.618
565.78	5.322
565.97	6.306
566.16	5.975
566.36	6.847
566.55	6.126
566.74	5.952
566.94	5.847
567.13	6.660
567.33	6.064
567.52	6.613
567.71	6.196
567.91	6.894
568.10	6.358
568.29	7.036
568.49	6.233
568.68	6.670
568.87	5.827
569.07	6.681
569.26	6.236
569.45	7.311
569.65	6.342
569.84	6.554
570.04	6.480
570.23	7.421
570.42	5.584
570.62	6.371
570.81	6.576
571.00	7.137
571.20	6.848
571.39	7.418
571.58	6.634
571.78	7.564
571.97	6.694
572.16	7.189
572.36	7.362
572.55	7.863
572.74	7.526
572.94	7.243
573.13	7.394
573.32	7.899
573.51	7.035
573.71	8.076
573.90	6.736
574.09	8.052
574.29	7.256
574.48	7.952
574.67	6.711
574.87	7.684
575.06	6.786
575.25	7.820
575.45	7.350
575.64	7.549
575.83	7.103
576.03	7.832
576.22	7.471
576.41	7.538
576.60	7.192
576.80	7.393
576.99	7.859
577.18	8.322
577.38	7.096
577.57	7.188
577.76	7.705
577.95	7.501
578.15	6.091
578.34	7.629
578.53	6.688
578.73	7.417
578.92	6.021
579.11	7.044
579.30	7.478
579.50	6.872
579.69	7.541
579.88	6.870
580.08	5.702
580.27	7.322
580.46	6.606
580.65	7.002
580.85	7.395
581.04	7.050
581.23	5.977
581.42	6.883
581.62	6.100
581.81	7.051
582.00	6.568
582.19	6.452
582.39	6.831
582.58	6.770
582.77	6.688
582.96	6.102
583.16	5.773
583.35	7.562
583.54	6.361
583.73	6.846
583.93	6.542
584.12	6.098
584.31	5.135
584.50	6.225
584.70	6.209
584.89	6.989
585.08	5.975
585.27	7.347
585.47	6.327
585.66	6.653
585.85	5.778
586.04	6.103
586.24	7.081
586.43	6.040
586.62	5.757
586.81	7.015
587.00	5.479
587.20	7.001
587.39	5.137
587.58	6.817
587.77	5.934
587.97	5.827
588.16	5.850
588.35	7.088
588.54	5.631
588.73	6.309
588.93	6.505
589.12	6.327
589.31	5.858
589.50	5.628
589.69	7.260
589.89	6.980
590.08	5.707
590.27	6.406
590.46	6.781
590.65	6.203
590.85	5.522
591.04	6.705
591.23	6.151
591.42	6.842
591.61	6.012
591.81	6.829
592.00	5.417
592.19	6.649
592.38	5.588
592.57	6.853
592.77	6.829
592.96	6.254
593.15	6.921
593.34	6.315
593.53	6.235
593.72	6.997
593.92	5.806
594.11	7.449
594.30	5.698
594.49	7.006
594.68	6.509
594.87	6.634
595.07	5.427
595.26	7.087
595.45	5.889
595.64	7.021
595.83	5.303
596.02	7.003
596.22	6.226
596.41	6.912
596.60	6.558
596.79	7.814
596.98	6.797
597.17	7.423
597.37	7.205
597.56	7.896
597.75	6.711
597.94	8.165
598.13	7.615
598.32	7.171
598.51	7.170
598.71	7.961
598.90	7.052
599.09	7.562
599.28	6.643
599.47	6.827
599.66	6.798
599.85	7.359
600.05	6.523
600.24	7.378
600.43	6.855
600.62	7.283
600.81	7.136
601.00	7.772
601.19	5.429
601.38	7.317
601.58	7.083
601.77	6.091
601.96	6.634
602.15	7.402
602.34	6.910
602.53	7.804
602.72	5.661
602.91	6.977
603.10	6.093
603.30	7.585
603.49	6.691
603.68	7.440
603.87	6.490
604.06	7.380
604.25	7.629
604.44	7.782
604.63	7.721
604.82	8.115
605.01	7.808
605.21	8.123
605.40	7.080
605.59	8.225
605.78	8.624
605.97	7.898
606.16	7.868
606.35	8.144
606.54	7.165
606.73	8.990
606.92	6.804
607.11	8.114
607.30	6.676
607.50	7.269
607.69	6.776
607.88	7.305
608.07	6.196
608.26	7.007
608.45	6.889
608.64	7.943
608.83	6.237
609.02	7.214
609.21	6.686
609.40	7.651
609.59	6.988
609.78	7.331
609.97	6.625
610.16	7.521
610.35	6.995
610.55	7.338
610.74	7.429
610.93	7.212
611.12	7.342
611.31	7.240
611.50	6.430
611.69	6.495
611.88	6.254
612.07	7.604
612.26	5.966
612.45	6.563
612.64	6.006
612.83	6.429
613.02	5.828
613.21	5.895
613.40	6.182
613.59	7.228
613.78	5.232
613.97	5.883
614.16	5.638
614.35	6.622
614.54	4.523
614.73	5.977
614.92	5.324
615.11	5.683
615.30	5.364
615.49	4.401
615.68	4.550
615.87	4.462
616.07	5.075
616.26	4.732
616.45	5.368
616.64	4.842
616.83	4.310
617.02	6.128
617.21	3.938
617.40	4.547
617.59	5.611
617.78	4.906
617.97	4.596
618.16	4.592
618.35	3.267
618.54	5.006
618.73	4.666
618.92	4.626
619.11	3.985
619.30	5.304
619.49	3.322
619.68	4.801
619.86	4.766
620.05	5.470
620.24	4.308
620.43	4.692
620.62	3.334
620.81	4.681
621.00	5.221
621.19	5.168
621.38	5.107
621.57	5.030
621.76	4.695
621.95	5.307
622.14	4.120
622.33	5.016
622.52	3.672
622.71	4.249
622.90	4.605
623.09	5.217
623.28	4.647
623.47	5.147
623.66	4.579
623.85	4.397
624.04	4.135
624.23	4.435
624.42	3.920
624.61	4.204
624.80	2.939
624.99	4.696
625.18	3.925
625.36	4.068
625.55	4.715
625.74	3.572
625.93	3.601
626.12	4.739
626.31	5.010
626.50	4.893
626.69	4.090
626.88	5.300
627.07	4.993
627.26	4.456
627.45	5.190
627.64	4.221
627.83	4.573
628.02	4.910
628.20	4.132
628.39	4.981
628.58	4.324
628.77	5.084
628.96	4.230
629.15	4.346
629.34	4.680
629.53	3.751
629.72	3.012
629.91	5.795
630.10	4.239
630.29	4.989
630.47	4.035
630.66	4.168
630.85	3.985
631.04	4.830
631.23	4.150
631.42	4.463
631.61	4.140
631.80	4.718
631.99	3.396
632.18	4.104
632.36	3.590
632.55	4.660
632.74	3.953
632.93	3.302
633.12	3.926
633.31	4.704
633.50	3.728
633.69	4.542
633.88	3.408
634.06	4.305
634.25	3.973
634.44	4.061
634.63	3.927
634.82	5.636
635.01	3.611
635.20	4.309
635.39	3.205
635.57	4.027
635.76	3.683
635.95	4.452
636.14	2.810
636.33	4.122
636.52	4.003
636.71	3.934
636.89	3.708
637.08	3.839
637.27	3.920
637.46	3.327
637.65	3.749
637.84	4.050
638.03	3.485
638.21	5.007
638.40	3.881
638.59	3.539
638.78	3.729
638.97	4.501
639.16	4.620
639.34	4.012
639.53	2.439
639.72	4.751
639.91	3.185
640.10	2.183
640.29	4.941
640.47	4.655
640.66	3.590
640.85	5.146
641.04	2.943
641.23	3.699
641.42	4.202
641.60	4.043
641.79	3.500
641.98	3.532
642.17	3.860
642.36	4.712
642.54	3.792
642.73	4.108
642.92	3.721
643.11	3.453
643.30	3.663
643.49	3.788
643.67	2.861
643.86	3.307
644.05	3.622
644.24	4.043
644.43	4.152
644.61	3.572
644.80	3.878
644.99	3.578
645.18	4.895
645.37	3.916
645.55	3.650
645.74	3.933
645.93	4.444
646.12	4.750
646.31	4.528
646.49	3.568
646.68	4.046
646.87	3.388
647.06	3.656
647.24	4.304
647.43	3.075
647.62	4.334
647.81	3.434
648.00	4.535
648.18	2.550
648.37	3.350
648.56	4.311
648.75	2.765
648.93	3.797
649.12	4.314
649.31	3.795
649.50	3.330
649.68	3.037
649.87	3.713
650.06	2.923
650.25	4.131
650.43	2.504
650.62	3.140
650.81	3.433
651.00	3.961
651.18	3.748
651.37	4.323
651.56	2.779
651.75	4.764
651.93	3.508
652.12	3.960
652.31	2.458
652.50	4.115
652.68	3.565
652.87	4.871
653.06	4.611
653.25	3.929
653.43	3.103
653.62	4.015
653.81	3.425
654.00	3.612
654.18	3.536
654.37	4.431
654.56	2.374
654.74	2.905
654.93	3.545
655.12	3.934
655.31	4.936
655.49	4.321
655.68	2.863
655.87	2.729
656.05	2.616
656.24	4.025
656.43	3.197
656.62	3.861
656.80	3.092
656.99	2.687
657.18	2.680
657.36	2.992
657.55	3.570
657.74	3.717
657.93	3.670
658.11	4.091
658.30	3.523
658.49	2.827
658.67	4.112
658.86	2.192
659.05	2.681
659.23	3.838
659.42	3.284
659.61	2.986
659.79	2.986
659.98	3.255
660.17	3.229
660.35	2.920
660.54	4.007
660.73	4.447
660.91	4.088
661.10	3.633
661.29	2.576
661.47	3.065
661.66	3.895
661.85	3.187
662.03	3.105
662.22	1.811
662.41	2.533
662.59	3.016
662.78	2.467
662.97	3.553
663.15	2.990
663.34	3.087
663.53	2.613
663.71	3.273
663.90	3.353
664.09	2.662
664.27	3.081
664.46	3.383
664.65	3.169
664.83	2.819
665.02	2.519
665.21	2.703
665.39	2.400
665.58	3.807
665.77	3.126
665.95	3.136
666.14	3.438
666.32	3.589
666.51	2.559
666.70	2.500
666.88	2.496
667.07	2.089
667.26	1.782
667.44	2.726
667.63	2.786
667.81	3.467
668.00	2.845
668.19	4.839
668.37	3.871
668.56	3.225
668.75	2.796
668.93	4.574
669.12	2.555
669.30	2.977
669.49	2.250
669.68	2.923
669.86	4.267
670.05	2.742
670.23	2.916
670.42	2.998
670.61	3.960
670.79	4.500
670.98	3.539
671.16	3.211
671.35	3.715
671.54	3.130
671.72	3.694
671.91	3.696
672.09	3.275
672.28	4.087
672.46	5.342
672.65	4.904
672.84	4.487
673.02	4.867
673.21	3.239
673.39	2.704
673.58	4.875
673.77	4.575
673.95	3.928
674.14	4.440
674.32	3.878
674.51	4.754
674.69	3.967
674.88	4.295
675.07	4.614
675.25	6.087
675.44	4.030
675.62	4.228
675.81	3.488
675.99	7.100
676.18	5.722
676.36	4.122
676.55	5.452
676.74	4.788
676.92	6.081
677.11	5.687
677.29	4.926
677.48	5.167
677.66	5.043
677.85	4.493
678.03	5.257
678.22	5.546
678.40	5.291
678.59	3.527
678.78	4.233
678.96	3.769
679.15	3.993
679.33	6.867
679.52	4.981
679.70	5.414
679.89	4.565
680.07	5.069
680.26	3.055
680.44	4.370
680.63	4.855
680.81	4.798
681.00	3.244
681.18	3.765
681.37	4.630
681.55	5.771
681.74	5.498
681.92	5.215
682.11	5.573
682.29	4.396
682.48	4.209
682.66	5.399
682.85	5.391
683.03	5.465
683.22	6.015
683.40	6.435
683.59	5.589
683.77	5.513
683.96	3.962
684.14	6.012
684.33	5.055
684.51	7.565
684.70	5.911
684.88	6.631
685.07	5.130
685.25	5.918
685.44	4.703
685.62	4.540
685.81	3.689
685.99	6.088
686.18	3.887
686.36	6.654
686.55	4.530
686.73	4.578
686.92	6.738
687.10	5.943
687.29	6.039
687.47	6.714
687.65	5.975
687.84	5.483
688.02	7.525
688.21	7.397
688.39	6.008
688.58	7.325
688.76	6.556
688.95	6.246
689.13	5.145
689.32	7.971
689.50	7.528
689.68	6.943
689.87	5.869
690.05	7.511
690.24	6.982
690.42	7.434
690.61	7.147
690.79	7.700
690.98	7.021
691.16	6.024
691.34	6.398
691.53	6.516
691.71	5.195
691.90	7.161
692.08	5.486
692.27	6.946
692.45	8.586
692.63	6.396
692.82	8.240
693.00	6.995
693.19	6.188
693.37	8.551
693.56	6.380
693.74	8.419
693.92	7.160
694.11	7.977
694.29	8.320
694.48	8.555
694.66	7.957
694.84	10.874
695.03	7.652
695.21	9.520
695.40	9.030
695.58	12.493
695.76	8.832
695.95	10.239
696.13	8.590
696.32	9.784
696.50	14.532
696.68	10.935
696.87	8.878
697.05	11.720
697.24	11.299
697.42	12.608
697.60	10.139
697.79	11.844
697.97	11.910
698.16	13.704
698.34	10.116
698.52	14.738
698.71	11.852
698.89	13.810
699.07	13.085
699.26	14.311
699.44	14.005
699.63	14.385
699.81	12.301
699.99	16.762
700.18	15.932
700.36	15.281
700.54	15.356
700.73	14.935
700.91	14.051
701.09	15.910
701.28	16.268
701.46	15.778
701.64	14.351
701.83	15.953
702.01	12.565
702.20	18.975
702.38	17.633
702.56	14.976
702.75	14.864
702.93	13.497
703.11	14.498
703.30	16.346
703.48	15.268
703.66	16.357
703.85	15.451
704.03	19.175
704.21	15.224
704.40	19.342
704.58	13.172
704.76	17.502
704.95	14.043
705.13	16.613
705.31	15.498
705.50	18.736
705.68	13.290
705.86	19.356
706.04	16.690
706.23	17.135
706.41	17.782
706.59	17.880
706.78	15.906
706.96	18.768
707.14	19.249
707.33	18.549
707.51	16.672
707.69	18.560
707.88	15.473
708.06	20.268
708.24	18.346
708.42	18.918
708.61	17.267
708.79	21.058
708.97	19.970
709.16	20.429
709.34	19.974
709.52	20.499
709.71	19.630
709.89	21.353
710.07	18.574
710.25	21.970
710.44	19.021
710.62	19.702
710.80	20.953
710.98	23.557
711.17	19.246
711.35	21.149
711.53	17.630
711.72	22.760
711.90	23.150
712.08	22.047
712.26	17.835
712.45	22.829
712.63	22.318
712.81	23.912
712.99	20.429
713.18	23.354
713.36	22.632
713.54	22.203
713.72	20.539
713.91	20.706
714.09	20.266
714.27	22.737
714.45	22.883
714.64	27.480
714.82	20.932
715.00	24.913
715.18	21.822
715.37	26.367
715.55	23.034
715.73	23.681
715.91	24.738
716.10	25.191
716.28	20.392
716.46	26.242
716.64	23.410
716.83	25.064
717.01	22.549
717.19	25.810
717.37	25.219
717.55	27.660
717.74	25.410
717.92	27.966
718.10	21.667
718.28	25.202
718.47	22.142
718.65	27.636
718.83	24.755
719.01	27.414
719.19	25.607
719.38	24.637
719.56	23.803
719.74	24.385
719.92	20.953
720.10	23.263
720.29	25.431
720.47	27.036
720.65	25.809
720.83	29.309
721.01	21.839
721.20	23.526
721.38	24.392
721.56	23.868
721.74	25.514
721.92	23.058
722.11	22.983
722.29	27.453
722.47	24.005
722.65	26.491
722.83	25.818
723.01	25.398
723.20	27.368
723.38	27.631
723.56	25.929
723.74	30.146
723.92	27.190
724.10	30.055
724.29	22.375
724.47	30.688
724.65	24.214
724.83	29.653
725.01	26.886
725.19	31.959
725.38	26.291
725.56	29.512
725.74	29.765
725.92	29.733
726.10	26.070
726.28	31.627
726.46	28.668
726.65	30.527
726.83	27.176
727.01	29.605
727.19	28.939
727.37	31.380
727.55	28.553
727.73	29.488
727.92	28.680
728.10	31.474
728.28	26.863
728.46	33.161
728.64	28.721
728.82	34.176
729.00	29.485
729.19	31.768
729.37	30.012
729.55	34.354
729.73	26.890
729.91	31.583
730.09	31.889
730.27	31.933
730.45	28.385
730.63	33.544
730.82	28.514
731.00	31.951
731.18	29.737
731.36	33.498
731.54	29.679
731.72	34.462
731.90	28.330
732.08	33.841
732.26	29.430
732.45	32.347
732.63	32.157
732.81	33.282
732.99	30.609
733.17	33.480
733.35	29.841
733.53	34.447
733.71	31.785
733.89	33.716
734.07	31.306
734.25	35.871
734.44	32.829
734.62	34.527
734.80	30.101
734.98	35.084
735.16	33.205
735.34	33.919
735.52	33.965
735.70	35.250
735.88	31.506
736.06	33.133
736.24	34.553
736.42	37.314
736.60	33.089
736.78	35.171
736.97	28.375
737.15	36.406
737.33	31.117
737.51	37.065
737.69	29.962
737.87	35.599
738.05	32.831
738.23	33.399
738.41	33.392
738.59	35.786
738.77	30.600
738.95	35.327
739.13	32.660
739.31	34.369
739.49	32.058
739.67	37.642
739.85	28.997
740.03	34.925
740.21	32.931
740.39	37.126
740.57	33.808
740.75	34.512
740.93	33.309
741.11	36.727
741.30	32.664
741.48	33.308
741.66	33.350
741.84	33.218
742.02	29.927
742.20	35.513
742.38	31.562
742.56	39.240
742.74	29.951
742.92	33.968
743.10	29.373
743.28	33.916
743.46	31.161
743.64	32.601
743.82	28.915
744.00	37.313
744.18	31.771
744.36	34.541
744.54	28.161
744.72	36.768
744.90	30.599
745.08	35.036
745.26	31.003
745.44	33.913
745.62	30.185
745.80	31.081
745.98	31.581
746.16	34.742
746.34	30.609
746.52	35.335
746.70	30.612
746.87	29.719
747.05	32.537
747.23	33.561
747.41	28.087
747.59	34.994
747.77	29.265
747.95	30.886
748.13	31.258
748.31	33.429
748.49	30.943
748.67	31.480
748.85	31.276
749.03	36.459
749.21	29.035
749.39	34.017
749.57	27.485
749.75	31.624
749.93	30.129
750.11	32.935
750.29	32.592
750.47	34.750
750.65	29.518
750.83	31.868
751.01	26.646
751.18	35.029
751.36	27.913
751.54	31.080
751.72	31.519
751.90	34.290
752.08	26.952
752.26	30.467
752.44	30.852
752.62	31.097
752.80	31.186
752.98	33.040
753.16	29.671
753.34	31.964
753.52	31.621
753.69	33.563
753.87	32.903
754.05	32.691
754.23	28.821
754.41	33.283
754.59	28.079
754.77	33.333
754.95	27.256
755.13	32.856
755.31	31.167
755.49	30.024
755.66	31.019
755.84	30.760
756.02	26.040
756.20	34.923
756.38	26.796
756.56	32.075
756.74	28.765
756.92	30.645
757.10	26.643
757.28	32.811
757.45	34.597
757.63	34.705
757.81	29.077
757.99	38.382
758.17	29.064
758.35	33.608
758.53	34.647
758.71	34.041
758.88	31.353
759.06	33.764
759.24	26.987
759.42	30.755
759.60	29.853
759.78	32.023
759.96	26.650
760.13	30.538
760.31	23.954
760.49	30.982
760.67	25.075
760.85	29.905
761.03	26.387
761.21	27.756
761.38	22.810
761.56	28.984
761.74	25.678
761.92	30.326
762.10	22.149
762.28	31.350
762.46	23.296
762.63	23.788
762.81	25.256
762.99	26.699
763.17	26.981
763.35	27.884
763.53	26.705
763.70	32.168
763.88	32.003
764.06	32.479
764.24	29.352
764.42	33.618
764.60	31.961
764.77	31.212
764.95	31.822
765.13	32.520
765.31	31.156
765.49	33.998
765.66	30.641
765.84	31.307
766.02	31.124
766.20	32.472
766.38	27.989
766.56	33.285
766.73	29.262
766.91	29.168
767.09	28.997
767.27	33.895
767.45	26.621
767.62	27.746
767.80	23.717
767.98	31.763
768.16	26.195
768.33	27.824
768.51	25.584
768.69	29.229
768.87	28.984
769.05	28.174
769.22	24.417
769.40	27.856
769.58	27.154
769.76	31.993
769.94	25.057
770.11	28.417
770.29	26.071
770.47	27.060
770.65	29.735
770.82	30.599
771.00	26.840
771.18	31.553
771.36	24.513
771.53	27.549
771.71	22.689
771.89	28.816
772.07	28.358
772.25	29.567
772.42	24.883
772.60	32.027
772.78	25.624
772.96	30.484
773.13	28.398
773.31	30.273
773.49	23.371
773.67	28.934
773.84	24.485
774.02	25.112
774.20	25.140
774.37	29.256
774.55	24.398
774.73	29.184
774.91	30.672
775.08	30.867
775.26	25.799
775.44	28.558
775.62	26.352
775.79	24.815
775.97	22.307
776.15	28.606
776.32	19.447
776.50	30.664
776.68	29.495
776.86	30.165
777.03	27.840
777.21	31.856
777.39	24.133
777.56	28.938
777.74	23.008
777.92	29.776
778.10	18.848
778.27	29.909
778.45	30.212
778.63	26.094
778.80	24.435
778.98	28.722
779.16	27.177
779.34	28.013
779.51	24.634
779.69	30.101
779.87	26.136
780.04	24.112
780.22	23.923
780.40	31.158
780.57	26.162
780.75	26.089
780.93	28.418
781.10	25.670
781.28	33.085
781.46	23.746
781.63	27.781
781.81	30.053
781.99	25.100
782.16	29.351
782.34	18.256
782.52	27.099
782.69	24.908
782.87	27.344
783.05	21.493
783.22	22.995
783.40	24.188
783.58	24.406
783.75	22.871
783.93	26.025
784.11	29.778
784.28	27.577
784.46	22.768
784.64	28.844
784.81	24.274
784.99	32.782
785.17	24.562
785.34	22.497
785.52	22.640
785.69	28.491
785.87	19.837
786.05	24.542
786.22	25.933
786.40	36.343
786.58	24.689
786.75	32.867
786.93	25.099
787.11	24.900
787.28	20.213
787.46	23.923
787.63	20.309
787.81	24.493
787.99	28.706
788.16	22.454
788.34	23.902
788.51	19.469
788.69	26.427
788.87	22.940
789.04	22.530
789.22	29.899
789.39	25.663
789.57	24.786
789.75	23.918
789.92	26.682
790.10	23.438
790.27	26.362
790.45	23.337
790.63	25.883
790.80	24.050
790.98	24.687
791.15	20.259
791.33	23.830
791.51	19.045
791.68	27.804
791.86	23.198
792.03	24.196
792.21	19.200
792.39	24.386
792.56	23.034
792.74	28.084
792.91	26.373
793.09	24.305
793.26	27.078
793.44	24.576
793.62	19.785
793.79	26.663
793.97	29.702
794.14	23.663
794.32	27.918
794.49	27.021
794.67	19.524
794.84	27.916
795.02	21.553
795.20	29.632
795.37	23.384
795.55	25.692
795.72	25.834
795.90	22.080
796.07	23.050
796.25	26.890
796.42	24.110
796.60	25.285
796.77	21.254
796.95	23.339
797.13	19.101
797.30	24.640
797.48	20.577
797.65	28.099
797.83	20.302
798.00	26.952
798.18	23.555
798.35	23.609
798.53	26.194
798.70	27.677
798.88	23.350
799.05	19.708
799.23	19.549
799.40	23.423
799.58	26.835
799.75	23.373
799.93	20.156
800.10	23.655
800.28	23.862
800.45	24.158
800.63	22.182
800.80	29.261
800.98	22.558
801.15	23.830
801.33	25.047
801.50	20.534
801.68	22.208
801.85	23.834
802.03	20.554
802.20	18.116
802.38	20.997
802.55	20.929
802.73	27.667
802.90	23.092
803.08	20.447
803.25	26.129
803.43	21.793
803.60	26.121
803.78	25.554
803.95	23.678
804.13	26.219
804.30	23.751
804.48	22.155
804.65	23.522
804.83	21.202
805.00	24.532
805.17	28.333
805.35	22.465
805.52	14.342
805.70	27.826
805.87	23.452
806.05	27.723
806.22	16.752
806.40	19.974
806.57	27.661
806.75	25.173
806.92	28.140
807.09	23.450
807.27	23.259
807.44	25.785
807.62	19.355
807.79	30.112
807.97	18.738
808.14	26.334
808.31	20.242
808.49	22.620
808.66	20.535
808.84	15.987
809.01	24.366
809.19	20.326
809.36	31.782
809.53	24.062
809.71	24.011
809.88	33.954
810.06	28.256
810.23	26.352
810.41	27.770
810.58	27.529
810.75	26.567
810.93	18.452
811.10	25.089
811.28	21.937
811.45	21.467
811.62	24.846
811.80	21.130
811.97	26.412
812.15	30.398
812.32	22.713
812.49	28.882
812.67	23.871
812.84	26.411
813.02	15.802
813.19	30.322
813.36	23.448
813.54	17.825
813.71	21.784
813.89	22.746
814.06	30.714
814.23	31.865
814.41	25.814
814.58	28.816
814.75	26.821
814.93	24.918
815.10	18.235
815.28	23.430
815.45	22.958
815.62	31.596
815.80	25.858
815.97	30.068
816.14	24.247
816.32	27.325
816.49	24.163
816.66	18.627
816.84	17.184
817.01	28.029
817.18	22.619
817.36	21.389
817.53	26.265
817.71	19.197
817.88	21.024
818.05	25.828
818.23	23.382
818.40	29.736
818.57	22.060
818.75	18.999
818.92	13.097
819.09	23.507
819.27	21.336
819.44	25.457
819.61	19.890
819.79	21.016
819.96	26.136
820.13	19.713
820.31	21.371
820.48	22.222
820.65	21.220
820.82	20.361
821.00	25.483
821.17	17.485
821.34	22.721
821.52	23.481
821.69	22.065
821.86	21.107
822.04	23.193
822.21	28.358
822.38	30.895
822.56	27.099
822.73	33.859
822.90	30.406
823.07	34.128
823.25	32.823
823.42	33.834
823.59	33.427
823.77	34.048
823.94	32.448
824.11	34.065
824.29	31.029
824.46	34.446
824.63	33.757
824.80	32.942
824.98	31.865
825.15	35.954
825.32	27.674
825.49	31.927
825.67	29.241
825.84	32.399
826.01	28.132
826.19	29.052
826.36	24.772
826.53	29.754
826.70	25.007
826.88	29.253
827.05	24.024
827.22	28.543
827.39	26.562
827.57	25.885
827.74	24.280
827.91	30.462
828.08	24.409
828.26	27.937
828.43	26.379
828.60	29.644
828.77	24.060
828.95	28.539
829.12	20.122
829.29	24.418
829.46	23.980
829.64	24.122
829.81	22.067
829.98	25.585
830.15	24.057
830.32	21.917
830.50	22.365
830.67	25.630
830.84	21.509
831.01	23.266
831.19	21.275
831.36	22.546
831.53	15.977
831.70	26.748
831.87	25.300
832.05	21.152
832.22	28.197
832.39	19.564
832.56	26.142
832.74	17.440
832.91	18.673
833.08	26.576
833.25	22.011
833.42	27.387
833.60	22.674
833.77	19.055
833.94	18.070
834.11	18.921
834.28	19.069
834.45	23.131
834.63	18.217
834.80	24.643
834.97	19.802
835.14	22.238
835.31	19.157
835.49	19.525
835.66	22.069
835.83	20.398
836.00	19.424
836.17	22.414
836.34	18.429
836.52	18.706
836.69	25.136
836.86	23.380
837.03	24.147
837.20	21.481
837.37	20.337
837.55	18.897
837.72	20.853
837.89	19.234
838.06	19.919
838.23	21.640
838.40	23.117
838.58	18.820
838.75	23.424
838.92	21.958
839.09	26.394
839.26	26.972
839.43	28.935
839.60	31.098
839.78	36.316
839.95	27.431
840.12	24.893
840.29	27.173
840.46	27.156
840.63	32.252
840.80	19.901
840.98	31.041
841.15	25.747
841.32	30.522
841.49	16.667
841.66	30.563
841.83	23.209
842.00	23.509
842.17	29.226
842.34	24.566
842.52	30.894
842.69	32.702
842.86	29.124
843.03	34.208
843.20	30.778
843.37	33.377
843.54	33.155
843.71	25.277
843.88	38.217
844.06	36.984
844.23	27.219
844.40	31.085
844.57	37.147
844.74	34.796
844.91	36.101
845.08	37.621
845.25	31.358
845.42	42.045
845.59	37.396
845.76	32.188
845.94	52.883
846.11	50.964
846.28	33.816
846.45	51.331
846.62	51.877
846.79	47.517
846.96	34.866
847.13	53.521
847.30	45.487
847.47	37.163
847.64	55.577
847.81	47.925
847.98	47.451
848.15	42.518
848.32	33.267
848.50	46.314
848.67	38.545
848.84	42.299
849.01	41.256
849.18	50.976
849.35	52.288
849.52	48.049
849.69	35.581
849.86	54.635
850.03	50.191
850.20	43.347
850.37	44.286
850.54	39.075
850.71	55.645
850.88	40.443
851.05	43.636
851.22	43.471
851.39	52.452
851.56	55.078
851.73	54.406
851.90	39.869
852.07	33.191
852.24	47.837
852.41	54.839
852.58	62.435
852.75	47.146
852.92	44.010
853.09	53.982
853.26	35.435
853.43	31.630
853.60	51.677
853.77	55.983
853.94	44.444
854.11	58.099
854.28	51.896
854.45	55.605
854.62	41.593
854.79	59.620
854.96	41.038
855.13	49.784
855.30	43.704
855.47	55.376
855.64	28.283
855.81	45.870
855.98	48.322
856.15	51.357
856.32	47.273
856.49	44.000
856.66	49.794
856.83	34.615
857.00	51.596
857.17	57.275
857.34	43.418
857.51	41.339
857.68	51.813
857.85	55.579
858.02	59.031
858.19	36.590
858.36	40.868
858.53	62.175
858.70	34.685
858.87	48.817
859.04	40.950
859.21	62.376
859.38	56.813
859.55	58.195
859.72	69.697
859.89	40.470
860.05	52.473
860.22	60.220
860.39	50.104
860.56	42.935
860.73	42.237
860.90	30.064
861.07	61.446
861.24	50.926
861.41	53.797
861.58	51.670
861.75	43.717
861.92	40.359
862.09	60.938
862.26	47.143
862.43	64.815
862.59	55.342
862.76	51.546
862.93	55.319
863.10	46.194
863.27	64.348
863.44	56.145
863.61	47.321
863.78	37.961
863.95	77.044
864.12	53.571
864.29	50.000
864.45	59.204
864.62	32.126
864.79	38.519
864.96	52.670
865.13	60.117
865.30	45.434
865.47	55.408
865.64	52.195
865.81	61.519
865.97	49.351
866.14	47.193
866.31	33.247
866.48	41.212
866.65	50.985
866.82	42.697
866.99	66.006
867.16	47.794
867.33	47.962
867.49	56.573
867.66	57.353
867.83	60.912
868.00	48.437
868.17	30.455
868.34	50.935
868.51	43.424
868.67	62.707
868.84	43.990
869.01	54.499
869.18	37.302
869.35	65.698
869.52	51.064
869.69	46.782
869.85	71.076
870.02	63.145
870.19	64.631
870.36	55.388
870.53	37.838
870.70	53.919
870.86	34.383
871.03	44.000
871.20	42.636
871.37	44.595
871.54	55.587
871.71	43.164
871.87	53.175
872.04	49.177
872.21	53.604
872.38	49.005
872.55	65.026
872.72	49.660
872.88	45.082
873.05	58.537
873.22	42.092
873.39	50.000
873.56	41.837
873.72	59.645
873.89	47.059
874.06	36.103
874.23	51.487
874.40	44.384
874.56	43.505
874.73	57.531
874.90	36.156
875.07	48.434
875.24	35.800
875.40	41.602
875.57	41.573
875.74	47.750
875.91	39.198
876.08	42.334
876.24	54.955
876.41	51.464
876.58	36.036
876.75	50.380
876.92	59.062
877.08	53.555
877.25	61.263
877.42	44.401
877.59	36.853
877.75	53.935
877.92	58.230
878.09	43.956
878.26	39.095
878.42	71.331
878.59	47.153
878.76	39.773
878.93	39.548
879.09	59.956
879.26	48.929
879.43	72.749
879.60	36.986
879.76	31.052
879.93	41.499
880.10	37.343
880.27	28.105
880.43	32.718
880.60	29.188
880.77	15.732
880.94	37.531
881.10	29.639
881.27	23.840
881.44	19.109
881.61	25.517
881.77	30.028
881.94	17.458
882.11	18.551
882.28	18.461
882.44	17.096
882.61	18.229
882.78	24.742
882.94	25.259
883.11	23.322
883.28	24.559
883.45	26.405
883.61	20.771
883.78	23.008
883.95	29.014
884.11	24.139
884.28	20.071
>>>>>End Processed Spectral Data<<<<<
