SpectraSuite Data File
++++++++++++++++++++++++++++++++++++
Date: Tue Sep 24 03:05:29 EST 2019
User: sgrac
Dark Spectrum Present: Yes
Reference Spectrum Present: Yes
Number of Sampled Component Spectra: 1
Spectrometers: USB4E01596
Integration Time (usec): 100000 (USB4E01596)
Spectra Averaged: 3 (USB4E01596)
Boxcar Smoothing: 0 (USB4E01596)
Correct for Electrical Dark: No (USB4E01596)
Strobe/Lamp Enabled: Yes (USB4E01596)
Correct for Detector Non-linearity: No (USB4E01596)
Correct for Stray Light: No (USB4E01596)
Number of Pixels in Processed Spectrum: 3648
>>>>>Begin Processed Spectral Data<<<<<
178.44	1013.636
178.66	1013.636
178.87	1013.636
179.09	409.434
179.30	484.444
179.52	-750.000
179.74	326.415
179.95	392.537
180.17	-12050.000
180.38	-7800.000
180.60	388.764
180.82	-2042.857
181.03	556.757
181.25	-1113.043
181.46	375.000
181.68	2522.222
181.89	-987.500
182.11	383.333
182.33	957.143
182.54	454.386
182.76	-535.000
182.97	155.901
183.19	437.778
183.40	2577.778
183.62	362.195
183.84	397.333
184.05	532.609
184.27	337.037
184.48	-1022.222
184.70	322.581
184.91	410.526
185.13	407.895
185.34	416.129
185.56	743.750
185.78	841.667
185.99	1337.500
186.21	408.750
186.42	509.524
186.64	295.699
186.85	697.917
187.07	-2450.000
187.28	-1388.235
187.50	-26400.000
187.72	28300.000
187.93	-1200.000
188.15	641.860
188.36	425.676
188.58	401.351
188.79	-3242.857
189.01	-2092.308
189.22	1028.000
189.44	326.744
189.65	474.242
189.87	-3728.571
190.09	447.059
190.30	655.263
190.52	1585.714
190.73	4550.000
190.95	550.000
191.16	260.759
191.38	2290.909
191.59	1621.429
191.81	820.588
192.02	553.191
192.24	477.551
192.45	1235.294
192.67	281.818
192.88	314.286
193.10	372.727
193.31	268.687
193.53	631.579
193.74	-22400.000
193.96	480.282
194.18	274.528
194.39	334.783
194.61	329.630
194.82	227.966
195.04	328.037
195.25	0.000
195.47	-22400.000
195.68	287.000
195.90	300.000
196.11	351.807
196.33	455.814
196.54	317.431
196.76	727.273
196.97	-1958.333
197.19	337.209
197.40	421.053
197.62	632.075
197.83	267.308
198.05	402.740
198.26	0.000
198.48	-351.111
198.69	893.333
198.91	2357.143
199.12	-5525.000
199.34	378.889
199.55	-27000.000
199.77	1883.333
199.98	516.901
200.20	261.983
200.41	414.474
200.63	635.294
200.84	-2046.154
201.06	310.127
201.27	1028.000
201.49	597.872
201.70	335.632
201.91	461.972
202.13	335.821
202.34	-1224.000
202.56	237.324
202.77	2675.000
202.99	3675.000
203.20	447.826
203.42	567.568
203.63	2425.000
203.85	277.311
204.06	515.385
204.28	214.407
204.49	560.606
204.71	-725.000
204.92	228.261
205.14	838.710
205.35	516.667
205.56	362.857
205.78	-670.000
205.99	746.154
206.21	528.070
206.42	334.848
206.64	1213.043
206.85	389.157
207.07	-446.774
207.28	948.000
207.50	292.391
207.71	337.500
207.93	5666.667
208.14	852.632
208.35	-1916.667
208.57	-620.690
208.78	226.573
209.00	672.500
209.21	286.139
209.43	-4033.333
209.64	160.795
209.86	438.596
210.07	335.714
210.28	786.207
210.50	4750.000
210.71	845.161
210.93	-1820.000
211.14	354.545
211.36	289.583
211.57	1125.926
211.78	3044.444
212.00	-1394.444
212.21	568.293
212.43	526.786
212.64	368.293
212.86	891.304
213.07	452.941
213.29	1914.286
213.50	219.841
213.71	407.229
213.93	186.154
214.14	248.718
214.36	262.353
214.57	-2400.000
214.78	743.590
215.00	272.727
215.21	600.000
215.43	776.000
215.64	334.259
215.86	325.472
216.07	6075.000
216.28	408.955
216.50	277.451
216.71	934.483
216.93	-532.558
217.14	232.323
217.35	437.500
217.57	254.701
217.78	333.871
218.00	267.677
218.21	339.437
218.42	874.074
218.64	1400.000
218.85	416.071
219.07	223.529
219.28	389.231
219.49	244.037
219.71	405.714
219.92	692.000
220.14	508.696
220.35	2245.455
220.56	478.049
220.78	572.727
220.99	344.615
221.21	424.324
221.42	355.405
221.63	3925.000
221.85	1167.857
222.06	891.667
222.28	392.405
222.49	265.591
222.70	272.000
222.92	445.614
223.13	1183.333
223.34	725.000
223.56	198.425
223.77	165.278
223.99	232.222
224.20	147.945
224.41	392.000
224.63	248.980
224.84	212.143
225.05	209.600
225.27	498.039
225.48	257.576
225.69	287.500
225.91	289.157
226.12	183.673
226.34	151.397
226.55	131.064
226.76	144.737
226.98	135.625
227.19	128.431
227.40	100.866
227.62	104.369
227.83	79.558
228.04	97.590
228.26	78.078
228.47	64.516
228.69	47.755
228.90	43.303
229.11	41.133
229.33	28.731
229.54	33.055
229.75	28.691
229.97	22.288
230.18	26.919
230.39	21.227
230.61	21.436
230.82	34.704
231.03	24.544
231.25	27.582
231.46	33.623
231.67	22.646
231.89	43.995
232.10	39.296
232.31	51.663
232.53	40.764
232.74	51.024
232.95	46.530
233.17	48.427
233.38	44.221
233.59	45.411
233.81	45.719
234.02	45.750
234.23	45.645
234.45	50.718
234.66	42.909
234.87	47.752
235.09	42.550
235.30	52.035
235.51	36.878
235.73	32.012
235.94	35.266
236.15	37.778
236.36	53.111
236.58	38.714
236.79	37.697
237.00	41.874
237.22	36.349
237.43	40.778
237.64	50.833
237.86	40.443
238.07	49.611
238.28	30.667
238.50	38.492
238.71	41.053
238.92	31.978
239.13	41.821
239.35	41.029
239.56	35.238
239.77	37.653
239.99	31.150
240.20	28.174
240.41	33.576
240.63	23.264
240.84	29.682
241.05	29.972
241.26	27.200
241.48	24.327
241.69	21.630
241.90	16.589
242.12	20.518
242.33	15.097
242.54	10.742
242.75	14.208
242.97	11.648
243.18	12.556
243.39	14.379
243.61	13.638
243.82	11.824
244.03	10.270
244.24	11.997
244.46	10.293
244.67	15.194
244.88	14.450
245.09	12.507
245.31	12.431
245.52	13.084
245.73	14.891
245.95	18.750
246.16	15.277
246.37	10.022
246.58	12.208
246.80	11.329
247.01	11.662
247.22	8.216
247.43	7.198
247.65	8.313
247.86	7.421
248.07	7.121
248.28	6.136
248.50	5.460
248.71	7.275
248.92	4.572
249.13	6.872
249.35	4.401
249.56	8.143
249.77	9.001
249.98	5.081
250.20	13.478
250.41	5.723
250.62	13.008
250.83	14.707
251.05	13.923
251.26	14.697
251.47	15.532
251.68	13.418
251.90	9.454
252.11	11.621
252.32	15.003
252.53	11.235
252.75	14.888
252.96	13.799
253.17	9.230
253.38	9.005
253.59	10.952
253.81	12.947
254.02	11.283
254.23	11.442
254.44	11.735
254.66	12.819
254.87	15.889
255.08	18.581
255.29	16.752
255.50	19.670
255.72	15.162
255.93	15.724
256.14	18.715
256.35	14.544
256.57	20.562
256.78	12.596
256.99	15.548
257.20	20.308
257.41	18.600
257.63	16.772
257.84	17.513
258.05	16.253
258.26	10.192
258.47	12.175
258.69	10.371
258.90	9.107
259.11	11.063
259.32	7.035
259.53	8.986
259.75	9.287
259.96	5.751
260.17	7.972
260.38	5.367
260.59	4.869
260.81	4.176
261.02	4.805
261.23	4.985
261.44	5.441
261.65	5.756
261.87	3.998
262.08	4.757
262.29	6.128
262.50	8.023
262.71	6.556
262.92	7.208
263.14	6.152
263.35	8.377
263.56	13.896
263.77	12.633
263.98	8.792
264.20	12.382
264.41	12.708
264.62	9.251
264.83	10.976
265.04	12.655
265.25	10.567
265.47	12.172
265.68	8.999
265.89	12.861
266.10	9.867
266.31	9.890
266.52	12.033
266.74	9.546
266.95	9.667
267.16	9.064
267.37	9.800
267.58	10.870
267.79	9.324
268.01	7.010
268.22	6.514
268.43	7.982
268.64	9.552
268.85	7.761
269.06	8.560
269.27	7.884
269.49	7.746
269.70	7.166
269.91	8.625
270.12	8.414
270.33	10.366
270.54	8.074
270.75	8.333
270.97	8.106
271.18	8.028
271.39	8.102
271.60	8.383
271.81	6.490
272.02	7.819
272.23	7.505
272.45	6.764
272.66	5.217
272.87	6.276
273.08	5.884
273.29	5.168
273.50	6.441
273.71	6.756
273.92	4.788
274.14	6.104
274.35	6.780
274.56	5.608
274.77	6.446
274.98	6.090
275.19	9.316
275.40	8.278
275.61	6.459
275.83	7.277
276.04	5.974
276.25	9.598
276.46	8.409
276.67	8.779
276.88	7.402
277.09	7.226
277.30	6.403
277.51	8.251
277.73	7.769
277.94	8.581
278.15	7.550
278.36	6.059
278.57	8.433
278.78	6.936
278.99	8.192
279.20	9.047
279.41	11.813
279.62	6.480
279.84	6.350
280.05	9.058
280.26	7.633
280.47	7.033
280.68	8.122
280.89	6.060
281.10	7.701
281.31	8.554
281.52	7.784
281.73	7.522
281.94	7.589
282.16	7.494
282.37	6.867
282.58	8.465
282.79	7.863
283.00	7.323
283.21	3.922
283.42	4.367
283.63	7.121
283.84	6.829
284.05	5.975
284.26	7.729
284.47	4.495
284.68	5.932
284.89	4.724
285.11	5.313
285.32	6.784
285.53	6.907
285.74	5.556
285.95	5.777
286.16	5.106
286.37	3.294
286.58	4.838
286.79	4.244
287.00	4.539
287.21	5.090
287.42	5.380
287.63	4.555
287.84	4.253
288.05	5.191
288.26	4.371
288.48	3.946
288.69	4.007
288.90	5.389
289.11	6.095
289.32	4.757
289.53	5.984
289.74	4.894
289.95	6.531
290.16	5.501
290.37	5.171
290.58	5.977
290.79	5.147
291.00	3.534
291.21	5.501
291.42	5.244
291.63	4.374
291.84	6.714
292.05	6.215
292.26	4.193
292.47	5.514
292.68	5.829
292.89	5.064
293.10	5.100
293.31	5.770
293.52	4.484
293.73	4.596
293.94	7.181
294.15	5.665
294.36	5.900
294.57	6.042
294.79	7.684
295.00	5.849
295.21	6.455
295.42	5.009
295.63	6.105
295.84	4.030
296.05	4.834
296.26	4.937
296.47	4.255
296.68	5.378
296.89	4.496
297.10	5.367
297.31	4.421
297.52	5.423
297.73	3.229
297.94	3.703
298.15	4.613
298.36	3.884
298.57	4.166
298.78	4.151
298.99	4.052
299.20	3.787
299.41	4.979
299.62	4.146
299.83	3.637
300.04	4.873
300.25	5.706
300.46	5.742
300.67	6.347
300.88	4.242
301.09	4.398
301.30	5.680
301.50	4.775
301.71	5.222
301.92	6.385
302.13	5.541
302.34	4.393
302.55	4.998
302.76	5.318
302.97	5.693
303.18	4.328
303.39	6.234
303.60	6.273
303.81	5.875
304.02	4.525
304.23	5.401
304.44	4.245
304.65	6.016
304.86	4.394
305.07	5.373
305.28	5.065
305.49	4.891
305.70	6.851
305.91	5.549
306.12	4.515
306.33	5.805
306.54	5.192
306.75	5.968
306.96	6.009
307.17	6.451
307.38	5.816
307.58	4.709
307.79	7.659
308.00	6.567
308.21	5.988
308.42	5.323
308.63	5.545
308.84	4.502
309.05	6.773
309.26	3.345
309.47	4.180
309.68	4.597
309.89	5.723
310.10	4.472
310.31	4.726
310.52	4.434
310.73	6.060
310.94	3.746
311.14	4.762
311.35	4.197
311.56	5.097
311.77	4.026
311.98	2.899
312.19	4.089
312.40	3.262
312.61	3.805
312.82	5.875
313.03	4.489
313.24	4.397
313.45	4.422
313.66	4.889
313.86	5.200
314.07	5.230
314.28	5.484
314.49	6.151
314.70	5.472
314.91	5.180
315.12	5.412
315.33	6.567
315.54	5.260
315.75	4.392
315.96	5.349
316.16	4.549
316.37	5.601
316.58	4.701
316.79	5.051
317.00	5.373
317.21	7.525
317.42	6.239
317.63	5.890
317.84	5.834
318.05	5.446
318.25	5.196
318.46	6.259
318.67	4.883
318.88	6.068
319.09	5.339
319.30	5.709
319.51	5.031
319.72	5.423
319.93	4.758
320.13	6.376
320.34	5.939
320.55	4.691
320.76	6.537
320.97	5.262
321.18	5.545
321.39	7.621
321.60	5.389
321.80	5.553
322.01	5.552
322.22	7.335
322.43	6.372
322.64	5.039
322.85	5.433
323.06	6.327
323.27	5.767
323.47	6.348
323.68	6.778
323.89	5.705
324.10	6.486
324.31	5.599
324.52	5.457
324.73	6.044
324.93	3.932
325.14	4.172
325.35	5.241
325.56	6.004
325.77	5.345
325.98	5.276
326.19	5.685
326.39	3.278
326.60	4.265
326.81	3.932
327.02	5.116
327.23	5.075
327.44	4.933
327.64	3.189
327.85	4.291
328.06	5.218
328.27	5.338
328.48	4.969
328.69	4.968
328.90	4.818
329.10	4.846
329.31	6.966
329.52	6.285
329.73	5.789
329.94	4.930
330.15	4.533
330.35	6.531
330.56	6.433
330.77	4.412
330.98	6.559
331.19	5.772
331.39	6.382
331.60	6.229
331.81	3.987
332.02	6.044
332.23	6.973
332.44	5.523
332.64	6.379
332.85	5.366
333.06	4.874
333.27	5.707
333.48	4.501
333.68	5.480
333.89	5.481
334.10	5.214
334.31	5.982
334.52	6.791
334.72	4.520
334.93	4.942
335.14	5.299
335.35	5.616
335.56	6.121
335.76	4.952
335.97	5.215
336.18	4.521
336.39	5.563
336.60	5.433
336.80	4.837
337.01	5.236
337.22	5.491
337.43	5.817
337.64	5.593
337.84	4.936
338.05	4.965
338.26	6.859
338.47	5.759
338.68	4.294
338.88	5.588
339.09	4.723
339.30	4.791
339.51	4.710
339.71	5.946
339.92	4.987
340.13	6.169
340.34	5.781
340.55	4.475
340.75	4.082
340.96	4.072
341.17	5.996
341.38	5.706
341.58	6.240
341.79	5.788
342.00	4.372
342.21	4.799
342.41	4.716
342.62	5.153
342.83	6.466
343.04	4.930
343.24	4.823
343.45	4.199
343.66	4.949
343.87	5.015
344.07	3.906
344.28	4.707
344.49	5.140
344.70	4.721
344.90	4.805
345.11	4.247
345.32	4.813
345.53	5.570
345.73	4.427
345.94	4.724
346.15	5.328
346.36	4.078
346.56	4.908
346.77	4.473
346.98	4.570
347.19	4.967
347.39	3.605
347.60	3.827
347.81	4.390
348.02	6.211
348.22	3.958
348.43	3.983
348.64	5.764
348.84	3.643
349.05	5.054
349.26	5.803
349.47	3.907
349.67	4.886
349.88	5.472
350.09	4.339
350.30	6.263
350.50	4.415
350.71	5.638
350.92	4.996
351.12	5.024
351.33	4.091
351.54	4.994
351.74	4.506
351.95	3.758
352.16	4.436
352.37	5.363
352.57	4.987
352.78	4.525
352.99	5.155
353.19	5.071
353.40	4.722
353.61	5.490
353.82	3.125
354.02	4.863
354.23	4.636
354.44	4.386
354.64	4.905
354.85	3.797
355.06	4.069
355.26	3.308
355.47	3.463
355.68	6.204
355.88	4.481
356.09	4.057
356.30	3.256
356.51	4.522
356.71	4.133
356.92	2.353
357.13	5.427
357.33	4.441
357.54	3.254
357.75	3.452
357.95	3.977
358.16	4.220
358.37	4.234
358.57	3.990
358.78	4.122
358.99	3.434
359.19	3.346
359.40	4.052
359.61	4.114
359.81	4.122
360.02	3.985
360.23	4.009
360.43	3.554
360.64	3.318
360.85	4.025
361.05	3.210
361.26	4.450
361.47	3.733
361.67	3.818
361.88	2.627
362.09	3.368
362.29	2.320
362.50	2.562
362.70	2.238
362.91	3.362
363.12	1.907
363.32	2.351
363.53	2.834
363.74	2.762
363.94	2.205
364.15	3.147
364.36	3.877
364.56	2.862
364.77	3.977
364.98	4.558
365.18	2.795
365.39	4.513
365.59	3.625
365.80	3.668
366.01	3.835
366.21	3.328
366.42	3.140
366.63	3.572
366.83	3.431
367.04	3.014
367.24	3.762
367.45	2.507
367.66	2.917
367.86	4.099
368.07	2.510
368.28	3.368
368.48	3.136
368.69	3.368
368.89	3.168
369.10	3.792
369.31	3.467
369.51	4.141
369.72	4.179
369.92	3.243
370.13	3.221
370.34	3.483
370.54	2.728
370.75	3.087
370.95	3.727
371.16	2.793
371.37	3.013
371.57	3.291
371.78	4.063
371.98	3.822
372.19	3.294
372.40	3.639
372.60	3.565
372.81	3.092
373.01	2.464
373.22	2.849
373.43	3.050
373.63	3.057
373.84	3.036
374.04	2.548
374.25	3.417
374.46	2.897
374.66	4.479
374.87	3.297
375.07	3.127
375.28	2.316
375.48	2.826
375.69	3.068
375.90	2.249
376.10	2.388
376.31	3.041
376.51	3.160
376.72	2.705
376.92	2.350
377.13	2.735
377.34	3.499
377.54	3.268
377.75	3.542
377.95	3.003
378.16	2.960
378.36	3.289
378.57	2.340
378.77	2.572
378.98	2.489
379.19	2.590
379.39	2.194
379.60	3.401
379.80	2.414
380.01	2.648
380.21	2.553
380.42	3.111
380.62	2.340
380.83	2.813
381.04	2.779
381.24	2.740
381.45	2.859
381.65	2.952
381.86	2.917
382.06	3.655
382.27	2.845
382.47	3.119
382.68	3.493
382.88	3.307
383.09	2.452
383.29	3.093
383.50	3.471
383.71	3.290
383.91	2.860
384.12	2.227
384.32	2.861
384.53	3.264
384.73	2.597
384.94	2.239
385.14	2.716
385.35	2.949
385.55	2.776
385.76	2.647
385.96	2.361
386.17	2.763
386.37	2.637
386.58	2.806
386.78	3.590
386.99	2.230
387.19	2.507
387.40	2.336
387.60	2.942
387.81	2.609
388.01	2.124
388.22	2.905
388.42	3.334
388.63	4.078
388.83	3.205
389.04	2.181
389.24	2.442
389.45	3.313
389.65	2.605
389.86	2.417
390.06	2.786
390.27	2.557
390.47	2.641
390.68	2.253
390.88	3.175
391.09	3.417
391.29	2.738
391.50	2.934
391.70	2.712
391.91	2.290
392.11	2.483
392.32	2.923
392.52	2.749
392.73	2.868
392.93	2.498
393.14	2.578
393.34	2.048
393.55	3.103
393.75	2.529
393.95	2.591
394.16	3.369
394.36	3.592
394.57	2.652
394.77	2.811
394.98	2.005
395.18	2.741
395.39	2.655
395.59	2.932
395.80	1.934
396.00	2.804
396.21	2.841
396.41	2.622
396.61	2.974
396.82	2.893
397.02	3.575
397.23	3.351
397.43	2.564
397.64	1.843
397.84	3.240
398.05	2.995
398.25	2.929
398.45	2.538
398.66	3.885
398.86	3.027
399.07	3.152
399.27	2.764
399.48	3.324
399.68	2.718
399.89	3.269
400.09	3.233
400.29	3.307
400.50	2.465
400.70	3.339
400.91	2.736
401.11	2.582
401.32	3.189
401.52	2.082
401.72	2.820
401.93	3.768
402.13	2.905
402.34	3.172
402.54	2.519
402.75	3.613
402.95	1.956
403.15	3.274
403.36	1.937
403.56	3.200
403.77	2.612
403.97	3.196
404.17	3.148
404.38	3.252
404.58	2.363
404.79	2.591
404.99	2.917
405.19	2.288
405.40	3.075
405.60	2.761
405.81	2.224
406.01	2.812
406.21	2.480
406.42	3.037
406.62	2.193
406.83	2.943
407.03	2.782
407.23	2.220
407.44	2.445
407.64	2.786
407.85	3.032
408.05	3.087
408.25	2.761
408.46	3.435
408.66	2.608
408.87	3.152
409.07	2.886
409.27	3.350
409.48	3.201
409.68	3.790
409.88	2.339
410.09	2.773
410.29	2.565
410.50	3.901
410.70	2.206
410.90	2.828
411.11	2.264
411.31	2.449
411.51	3.165
411.72	2.946
411.92	2.047
412.12	2.614
412.33	2.823
412.53	2.172
412.74	1.886
412.94	3.028
413.14	2.876
413.35	2.506
413.55	2.946
413.75	3.599
413.96	2.784
414.16	2.946
414.36	3.275
414.57	2.437
414.77	3.058
414.97	3.315
415.18	2.734
415.38	2.480
415.58	2.754
415.79	2.325
415.99	2.221
416.19	2.975
416.40	3.232
416.60	2.516
416.80	2.010
417.01	1.897
417.21	2.165
417.41	2.863
417.62	2.430
417.82	2.931
418.02	1.719
418.23	2.515
418.43	2.190
418.63	2.625
418.84	2.446
419.04	1.912
419.24	2.395
419.45	2.457
419.65	2.759
419.85	1.969
420.06	2.457
420.26	2.381
420.46	2.249
420.67	2.528
420.87	2.554
421.07	2.766
421.28	2.298
421.48	2.682
421.68	2.380
421.88	2.467
422.09	2.268
422.29	2.058
422.49	1.728
422.70	2.462
422.90	2.321
423.10	2.414
423.31	2.358
423.51	2.581
423.71	2.145
423.91	2.152
424.12	2.297
424.32	2.391
424.52	2.498
424.73	2.251
424.93	2.559
425.13	1.981
425.33	2.156
425.54	2.737
425.74	2.148
425.94	3.081
426.15	2.216
426.35	2.055
426.55	2.429
426.75	2.409
426.96	2.191
427.16	2.459
427.36	2.150
427.57	2.663
427.77	2.310
427.97	2.369
428.17	2.691
428.38	2.852
428.58	1.676
428.78	3.022
428.98	2.059
429.19	2.314
429.39	2.120
429.59	2.258
429.79	1.662
430.00	1.491
430.20	2.141
430.40	2.538
430.60	2.256
430.81	1.756
431.01	2.106
431.21	2.645
431.41	2.425
431.62	2.074
431.82	2.323
432.02	2.604
432.22	1.987
432.43	1.749
432.63	2.172
432.83	2.157
433.03	1.807
433.24	1.495
433.44	1.868
433.64	2.622
433.84	1.732
434.05	1.898
434.25	1.795
434.45	2.370
434.65	2.712
434.85	2.462
435.06	2.101
435.26	2.183
435.46	2.242
435.66	2.494
435.87	1.808
436.07	2.288
436.27	2.147
436.47	2.045
436.67	1.871
436.88	2.584
437.08	2.000
437.28	1.873
437.48	2.528
437.69	2.431
437.89	1.823
438.09	2.563
438.29	2.322
438.49	2.260
438.70	2.389
438.90	1.617
439.10	1.841
439.30	2.074
439.50	1.627
439.71	2.129
439.91	1.959
440.11	2.389
440.31	2.149
440.51	1.821
440.72	2.118
440.92	1.797
441.12	2.117
441.32	2.580
441.52	2.175
441.72	2.147
441.93	2.094
442.13	2.290
442.33	2.160
442.53	2.600
442.73	1.591
442.94	1.788
443.14	2.004
443.34	2.540
443.54	2.390
443.74	2.294
443.94	2.102
444.15	1.843
444.35	1.858
444.55	2.554
444.75	2.048
444.95	2.290
445.15	1.955
445.36	2.367
445.56	1.772
445.76	2.171
445.96	1.869
446.16	1.662
446.36	1.720
446.57	2.526
446.77	1.614
446.97	2.261
447.17	2.672
447.37	2.218
447.57	2.187
447.77	2.273
447.98	1.968
448.18	2.622
448.38	1.899
448.58	2.357
448.78	2.101
448.98	2.156
449.18	1.788
449.39	1.755
449.59	1.772
449.79	1.880
449.99	1.825
450.19	1.881
450.39	1.866
450.59	2.190
450.79	2.098
451.00	2.412
451.20	2.904
451.40	1.733
451.60	1.685
451.80	2.612
452.00	2.252
452.20	2.278
452.40	1.951
452.61	2.127
452.81	1.826
453.01	1.990
453.21	1.852
453.41	2.020
453.61	2.196
453.81	2.273
454.01	2.119
454.21	2.131
454.42	2.443
454.62	2.281
454.82	2.026
455.02	2.099
455.22	1.691
455.42	2.058
455.62	1.668
455.82	1.988
456.02	1.791
456.23	1.750
456.43	2.176
456.63	1.779
456.83	1.295
457.03	1.904
457.23	1.990
457.43	1.869
457.63	1.836
457.83	2.126
458.03	1.899
458.23	1.961
458.43	2.025
458.64	1.675
458.84	1.761
459.04	2.460
459.24	1.640
459.44	1.948
459.64	2.168
459.84	2.005
460.04	2.036
460.24	1.865
460.44	2.016
460.64	2.077
460.84	1.864
461.04	2.467
461.24	2.164
461.45	2.399
461.65	2.193
461.85	2.117
462.05	1.978
462.25	2.320
462.45	2.653
462.65	2.150
462.85	1.659
463.05	2.322
463.25	1.880
463.45	2.124
463.65	2.021
463.85	1.942
464.05	1.965
464.25	2.034
464.45	2.234
464.65	1.697
464.85	1.452
465.05	1.766
465.26	2.016
465.46	2.233
465.66	2.157
465.86	2.155
466.06	1.824
466.26	1.782
466.46	1.491
466.66	1.783
466.86	1.962
467.06	1.958
467.26	1.899
467.46	2.164
467.66	1.651
467.86	1.968
468.06	1.859
468.26	1.641
468.46	1.865
468.66	2.091
468.86	1.547
469.06	2.403
469.26	1.264
469.46	1.852
469.66	2.206
469.86	2.166
470.06	2.044
470.26	2.320
470.46	1.518
470.66	2.530
470.86	1.364
471.06	1.647
471.26	1.285
471.46	1.796
471.66	1.823
471.86	1.617
472.06	1.813
472.26	2.430
472.46	2.231
472.66	1.936
472.86	1.350
473.06	2.061
473.26	2.059
473.46	2.012
473.66	1.837
473.86	2.223
474.06	1.712
474.26	2.042
474.46	1.177
474.66	2.066
474.86	2.011
475.06	2.429
475.26	1.558
475.46	1.660
475.66	1.211
475.86	1.583
476.06	2.496
476.26	2.279
476.46	1.626
476.66	1.911
476.86	1.593
477.06	1.746
477.26	1.640
477.46	1.620
477.65	1.865
477.85	2.180
478.05	1.464
478.25	2.099
478.45	1.610
478.65	1.769
478.85	1.574
479.05	2.014
479.25	1.921
479.45	2.088
479.65	1.583
479.85	1.902
480.05	1.584
480.25	1.982
480.45	1.865
480.65	2.309
480.85	1.580
481.05	2.136
481.25	1.998
481.44	1.957
481.64	1.466
481.84	2.305
482.04	2.096
482.24	2.113
482.44	1.329
482.64	1.901
482.84	1.932
483.04	2.161
483.24	2.148
483.44	2.279
483.64	2.354
483.84	2.542
484.04	2.531
484.23	2.588
484.43	2.630
484.63	2.939
484.83	2.805
485.03	3.332
485.23	2.925
485.43	3.132
485.63	2.922
485.83	2.851
486.03	2.822
486.23	2.855
486.42	2.393
486.62	2.818
486.82	2.256
487.02	2.554
487.22	2.277
487.42	2.610
487.62	2.668
487.82	2.494
488.02	2.402
488.22	2.838
488.41	2.572
488.61	2.641
488.81	2.492
489.01	2.773
489.21	2.586
489.41	2.772
489.61	2.803
489.81	2.853
490.01	2.454
490.20	2.444
490.40	2.286
490.60	2.490
490.80	1.990
491.00	2.509
491.20	2.161
491.40	2.200
491.60	2.146
491.79	2.462
491.99	2.403
492.19	2.346
492.39	2.496
492.59	2.769
492.79	2.587
492.99	2.766
493.19	2.562
493.38	2.709
493.58	2.205
493.78	2.358
493.98	2.621
494.18	2.664
494.38	2.335
494.58	2.395
494.77	1.316
494.97	2.185
495.17	2.032
495.37	2.156
495.57	2.384
495.77	1.931
495.96	1.854
496.16	1.849
496.36	1.924
496.56	2.532
496.76	1.704
496.96	1.786
497.15	1.764
497.35	2.026
497.55	2.241
497.75	2.153
497.95	1.668
498.15	2.228
498.34	2.108
498.54	1.914
498.74	2.300
498.94	2.549
499.14	1.744
499.34	2.685
499.53	1.872
499.73	2.321
499.93	2.115
500.13	1.887
500.33	1.572
500.52	1.868
500.72	1.877
500.92	1.890
501.12	1.593
501.32	1.950
501.52	2.191
501.71	1.888
501.91	2.123
502.11	1.952
502.31	1.920
502.51	2.172
502.70	1.712
502.90	2.052
503.10	1.620
503.30	2.215
503.50	2.190
503.69	1.844
503.89	1.970
504.09	2.240
504.29	1.854
504.48	1.952
504.68	2.370
504.88	2.189
505.08	1.682
505.28	1.928
505.47	2.008
505.67	2.983
505.87	1.976
506.07	1.893
506.27	1.775
506.46	2.158
506.66	1.912
506.86	2.167
507.06	2.529
507.25	2.149
507.45	2.042
507.65	2.482
507.85	1.926
508.04	2.525
508.24	2.191
508.44	2.227
508.64	2.147
508.83	2.283
509.03	1.927
509.23	2.280
509.43	2.187
509.63	2.403
509.82	2.008
510.02	2.167
510.22	2.104
510.42	2.437
510.61	2.471
510.81	2.184
511.01	2.469
511.21	2.212
511.40	2.075
511.60	2.399
511.80	2.333
511.99	2.215
512.19	2.226
512.39	2.465
512.59	1.909
512.78	2.588
512.98	2.319
513.18	2.353
513.38	2.358
513.57	2.846
513.77	2.221
513.97	2.486
514.17	2.020
514.36	2.064
514.56	2.257
514.76	2.529
514.95	2.006
515.15	2.293
515.35	1.888
515.55	2.094
515.74	2.829
515.94	2.404
516.14	1.615
516.33	2.442
516.53	2.350
516.73	1.863
516.93	2.177
517.12	2.941
517.32	2.025
517.52	2.617
517.71	2.260
517.91	2.326
518.11	2.552
518.30	2.401
518.50	1.850
518.70	2.224
518.90	2.416
519.09	2.736
519.29	2.858
519.49	2.969
519.68	2.149
519.88	3.066
520.08	2.524
520.27	2.863
520.47	2.720
520.67	2.489
520.86	2.918
521.06	3.106
521.26	1.834
521.45	2.554
521.65	2.260
521.85	2.388
522.04	2.166
522.24	2.816
522.44	2.029
522.63	2.411
522.83	2.338
523.03	2.674
523.22	2.439
523.42	3.034
523.62	2.872
523.81	2.579
524.01	2.647
524.21	2.206
524.40	1.734
524.60	2.356
524.80	2.385
524.99	2.403
525.19	2.499
525.39	2.909
525.58	2.395
525.78	2.620
525.98	2.668
526.17	2.927
526.37	2.562
526.57	2.995
526.76	3.098
526.96	3.236
527.15	2.647
527.35	2.894
527.55	2.631
527.74	3.293
527.94	2.982
528.14	3.027
528.33	3.054
528.53	3.391
528.72	3.181
528.92	3.617
529.12	3.321
529.31	3.524
529.51	3.545
529.71	3.533
529.90	3.460
530.10	3.650
530.29	3.658
530.49	3.726
530.69	3.617
530.88	3.769
531.08	3.412
531.28	3.470
531.47	3.152
531.67	3.384
531.86	3.048
532.06	3.413
532.26	2.855
532.45	3.305
532.65	3.017
532.84	3.226
533.04	2.723
533.24	2.964
533.43	2.973
533.63	3.329
533.82	3.255
534.02	3.510
534.22	3.266
534.41	3.655
534.61	3.525
534.80	3.452
535.00	3.433
535.19	3.439
535.39	3.496
535.59	3.513
535.78	2.955
535.98	3.328
536.17	3.116
536.37	3.191
536.57	3.083
536.76	3.583
536.96	3.035
537.15	3.567
537.35	2.937
537.54	3.230
537.74	3.261
537.93	3.640
538.13	3.063
538.33	3.263
538.52	3.183
538.72	3.264
538.91	3.192
539.11	3.180
539.30	2.926
539.50	3.380
539.70	3.077
539.89	3.815
540.09	3.161
540.28	3.225
540.48	2.968
540.67	3.506
540.87	2.897
541.06	3.659
541.26	3.374
541.45	3.680
541.65	3.643
541.85	3.846
542.04	3.717
542.24	4.220
542.43	3.816
542.63	3.984
542.82	3.772
543.02	4.082
543.21	3.821
543.41	4.143
543.60	3.926
543.80	4.174
543.99	3.480
544.19	3.956
544.38	3.637
544.58	4.048
544.77	3.549
544.97	4.202
545.16	3.341
545.36	3.700
545.56	3.642
545.75	3.595
545.95	3.150
546.14	3.833
546.34	3.386
546.53	3.858
546.73	3.298
546.92	3.970
547.12	3.406
547.31	4.100
547.51	3.377
547.70	3.884
547.90	3.255
548.09	3.634
548.29	3.572
548.48	4.091
548.68	3.692
548.87	4.388
549.07	3.716
549.26	3.423
549.46	4.116
549.65	3.878
549.84	3.385
550.04	3.473
550.23	3.387
550.43	3.840
550.62	3.674
550.82	3.529
551.01	2.944
551.21	3.646
551.40	3.544
551.60	3.474
551.79	3.454
551.99	3.439
552.18	3.434
552.38	4.006
552.57	3.799
552.77	4.295
552.96	4.111
553.16	4.191
553.35	4.297
553.54	4.985
553.74	4.322
553.93	4.681
554.13	4.263
554.32	4.611
554.52	3.939
554.71	4.863
554.91	4.331
555.10	4.604
555.29	4.175
555.49	4.389
555.68	4.010
555.88	4.644
556.07	3.657
556.27	5.011
556.46	4.390
556.66	4.544
556.85	4.744
557.04	4.985
557.24	4.317
557.43	5.408
557.63	4.499
557.82	4.518
558.02	4.507
558.21	5.669
558.40	4.494
558.60	5.013
558.79	5.421
558.99	5.281
559.18	4.832
559.38	5.048
559.57	5.476
559.76	5.322
559.96	5.550
560.15	5.934
560.35	4.681
560.54	5.073
560.73	4.172
560.93	6.098
561.12	5.389
561.32	5.959
561.51	5.741
561.70	6.140
561.90	5.573
562.09	6.571
562.29	5.504
562.48	5.989
562.67	5.808
562.87	6.045
563.06	5.672
563.26	6.517
563.45	6.042
563.64	7.011
563.84	6.252
564.03	6.866
564.23	5.925
564.42	7.694
564.61	6.812
564.81	7.421
565.00	6.658
565.20	7.820
565.39	7.731
565.58	7.589
565.78	6.708
565.97	8.022
566.16	7.938
566.36	8.664
566.55	7.664
566.74	7.819
566.94	7.771
567.13	8.538
567.33	7.894
567.52	8.736
567.71	8.288
567.91	8.792
568.10	8.329
568.29	8.591
568.49	8.471
568.68	8.595
568.87	8.053
569.07	9.074
569.26	8.965
569.45	9.262
569.65	8.272
569.84	8.885
570.04	8.801
570.23	9.386
570.42	8.194
570.62	9.109
570.81	8.637
571.00	9.103
571.20	9.258
571.39	9.793
571.58	8.880
571.78	9.552
571.97	9.123
572.16	9.596
572.36	9.667
572.55	9.923
572.74	9.971
572.94	9.938
573.13	10.231
573.32	10.237
573.51	9.433
573.71	10.379
573.90	9.606
574.09	10.261
574.29	9.895
574.48	10.240
574.67	9.628
574.87	10.302
575.06	9.378
575.25	10.492
575.45	9.855
575.64	10.285
575.83	9.649
576.03	10.682
576.22	9.901
576.41	10.258
576.60	9.602
576.80	10.366
576.99	10.117
577.18	10.764
577.38	9.866
577.57	10.639
577.76	10.771
577.95	9.911
578.15	9.141
578.34	9.946
578.53	9.105
578.73	10.170
578.92	8.933
579.11	9.915
579.30	10.435
579.50	9.768
579.69	10.828
579.88	9.924
580.08	8.683
580.27	10.229
580.46	9.382
580.65	10.018
580.85	9.394
581.04	10.070
581.23	9.105
581.42	9.787
581.62	9.120
581.81	9.482
582.00	9.370
582.19	9.352
582.39	9.826
582.58	9.779
582.77	10.125
582.96	9.239
583.16	8.606
583.35	9.892
583.54	9.366
583.73	10.262
583.93	9.564
584.12	9.291
584.31	8.470
584.50	9.705
584.70	9.361
584.89	10.064
585.08	8.746
585.27	9.870
585.47	8.587
585.66	9.929
585.85	8.523
586.04	9.051
586.24	10.125
586.43	9.004
586.62	8.952
586.81	9.402
587.00	8.270
587.20	9.737
587.39	8.613
587.58	9.586
587.77	9.366
587.97	8.512
588.16	8.536
588.35	10.205
588.54	8.928
588.73	9.143
588.93	9.675
589.12	9.275
589.31	8.774
589.50	8.727
589.69	10.037
589.89	9.760
590.08	8.560
590.27	9.360
590.46	8.998
590.65	9.251
590.85	7.724
591.04	9.473
591.23	9.244
591.42	10.071
591.61	9.010
591.81	9.519
592.00	9.076
592.19	9.467
592.38	9.002
592.57	9.939
592.77	9.509
592.96	9.043
593.15	10.138
593.34	9.736
593.53	9.013
593.72	10.019
593.92	8.559
594.11	10.331
594.30	8.242
594.49	10.117
594.68	9.924
594.87	10.069
595.07	8.276
595.26	10.271
595.45	8.638
595.64	10.052
595.83	8.504
596.02	10.601
596.22	9.814
596.41	10.739
596.60	9.847
596.79	10.605
596.98	10.227
597.17	10.559
597.37	10.467
597.56	10.864
597.75	10.005
597.94	11.384
598.13	10.587
598.32	10.851
598.51	10.699
598.71	11.051
598.90	10.214
599.09	11.453
599.28	9.945
599.47	10.836
599.66	10.151
599.85	11.215
600.05	10.137
600.24	11.176
600.43	10.139
600.62	10.445
600.81	10.473
601.00	10.925
601.19	9.123
601.38	11.520
601.58	10.313
601.77	10.089
601.96	9.635
602.15	11.179
602.34	10.428
602.53	12.038
602.72	9.756
602.91	11.130
603.10	10.111
603.30	11.524
603.49	10.415
603.68	11.424
603.87	10.308
604.06	11.418
604.25	10.879
604.44	11.556
604.63	11.350
604.82	12.114
605.01	11.136
605.21	11.858
605.40	11.286
605.59	11.855
605.78	11.469
605.97	11.553
606.16	11.456
606.35	11.819
606.54	10.815
606.73	12.666
606.92	10.879
607.11	11.895
607.30	10.606
607.50	11.225
607.69	10.739
607.88	11.519
608.07	10.572
608.26	11.283
608.45	11.212
608.64	11.820
608.83	10.139
609.02	10.651
609.21	10.894
609.40	11.608
609.59	10.252
609.78	10.848
609.97	10.419
610.16	11.227
610.35	10.695
610.55	11.236
610.74	10.793
610.93	11.480
611.12	10.538
611.31	10.875
611.50	9.979
611.69	10.189
611.88	9.453
612.07	11.021
612.26	9.436
612.45	10.140
612.64	9.237
612.83	10.544
613.02	9.058
613.21	9.959
613.40	8.994
613.59	10.248
613.78	9.084
613.97	9.276
614.16	8.773
614.35	9.733
614.54	7.845
614.73	8.711
614.92	8.394
615.11	8.640
615.30	8.520
615.49	7.829
615.68	7.704
615.87	8.340
616.07	8.048
616.26	8.238
616.45	8.630
616.64	7.850
616.83	7.321
617.02	9.239
617.21	7.079
617.40	7.968
617.59	8.123
617.78	8.219
617.97	7.345
618.16	7.925
618.35	6.115
618.54	8.061
618.73	7.563
618.92	7.964
619.11	6.803
619.30	8.108
619.49	5.682
619.68	8.156
619.86	6.783
620.05	7.688
620.24	7.487
620.43	7.222
620.62	6.028
620.81	7.543
621.00	7.395
621.19	8.151
621.38	7.625
621.57	7.539
621.76	6.325
621.95	8.004
622.14	6.567
622.33	8.072
622.52	6.684
622.71	6.825
622.90	7.163
623.09	7.046
623.28	7.448
623.47	7.981
623.66	7.612
623.85	6.542
624.04	6.752
624.23	6.333
624.42	6.943
624.61	6.364
624.80	5.142
624.99	6.852
625.18	5.877
625.36	7.437
625.55	7.111
625.74	5.855
625.93	6.510
626.12	7.380
626.31	7.469
626.50	7.254
626.69	6.640
626.88	8.162
627.07	7.449
627.26	7.269
627.45	7.282
627.64	7.539
627.83	6.884
628.02	7.708
628.20	6.764
628.39	7.370
628.58	6.524
628.77	7.403
628.96	6.655
629.15	6.921
629.34	6.713
629.53	6.056
629.72	6.221
629.91	8.436
630.10	6.740
630.29	7.624
630.47	6.166
630.66	6.597
630.85	6.606
631.04	7.037
631.23	6.513
631.42	6.654
631.61	6.622
631.80	7.010
631.99	6.104
632.18	5.923
632.36	6.154
632.55	7.613
632.74	6.211
632.93	5.245
633.12	6.516
633.31	6.595
633.50	5.979
633.69	5.770
633.88	6.070
634.06	6.499
634.25	6.103
634.44	6.657
634.63	5.580
634.82	7.487
635.01	6.376
635.20	6.252
635.39	5.384
635.57	6.629
635.76	5.392
635.95	6.148
636.14	5.205
636.33	6.620
636.52	5.454
636.71	6.066
636.89	6.076
637.08	6.682
637.27	5.593
637.46	6.015
637.65	6.121
637.84	6.045
638.03	5.417
638.21	6.689
638.40	5.999
638.59	5.604
638.78	5.308
638.97	6.956
639.16	6.524
639.34	6.758
639.53	4.861
639.72	7.056
639.91	5.683
640.10	4.224
640.29	7.050
640.47	6.943
640.66	6.222
640.85	7.002
641.04	4.637
641.23	5.921
641.42	6.408
641.60	5.954
641.79	5.739
641.98	5.968
642.17	5.882
642.36	6.504
642.54	5.404
642.73	5.447
642.92	5.693
643.11	5.541
643.30	4.977
643.49	5.440
643.67	5.068
643.86	4.830
644.05	5.767
644.24	5.826
644.43	5.968
644.61	5.996
644.80	5.292
644.99	5.308
645.18	6.183
645.37	5.096
645.55	4.772
645.74	5.702
645.93	5.607
646.12	6.160
646.31	6.032
646.49	5.494
646.68	5.887
646.87	5.277
647.06	5.091
647.24	5.507
647.43	4.935
647.62	6.350
647.81	5.260
648.00	5.639
648.18	4.248
648.37	5.145
648.56	5.314
648.75	4.129
648.93	5.802
649.12	5.425
649.31	5.452
649.50	5.078
649.68	5.035
649.87	5.651
650.06	4.973
650.25	6.146
650.43	4.501
650.62	4.637
650.81	5.199
651.00	5.910
651.18	4.383
651.37	6.030
651.56	4.820
651.75	5.631
651.93	4.577
652.12	5.708
652.31	4.391
652.50	5.033
652.68	4.802
652.87	5.406
653.06	6.437
653.25	6.014
653.43	4.660
653.62	5.261
653.81	5.138
654.00	5.408
654.18	4.979
654.37	6.491
654.56	4.362
654.74	3.788
654.93	4.873
655.12	5.066
655.31	5.941
655.49	5.991
655.68	4.056
655.87	4.656
656.05	4.196
656.24	4.379
656.43	4.436
656.62	4.817
656.80	4.988
656.99	4.429
657.18	4.304
657.36	4.872
657.55	4.829
657.74	4.671
657.93	4.983
658.11	5.643
658.30	5.195
658.49	4.724
658.67	4.744
658.86	3.501
659.05	4.018
659.23	4.569
659.42	4.315
659.61	4.353
659.79	3.408
659.98	4.198
660.17	4.576
660.35	4.091
660.54	4.634
660.73	4.868
660.91	4.929
661.10	4.128
661.29	3.601
661.47	3.661
661.66	4.374
661.85	3.947
662.03	4.160
662.22	2.992
662.41	3.496
662.59	4.028
662.78	4.131
662.97	4.242
663.15	4.143
663.34	3.647
663.53	3.336
663.71	4.331
663.90	3.859
664.09	3.482
664.27	3.817
664.46	4.199
664.65	4.064
664.83	3.240
665.02	3.876
665.21	3.259
665.39	3.539
665.58	4.575
665.77	4.853
665.95	4.794
666.14	4.461
666.32	4.187
666.51	3.772
666.70	3.705
666.88	4.328
667.07	2.719
667.26	3.016
667.44	4.017
667.63	3.958
667.81	3.965
668.00	3.779
668.19	5.495
668.37	4.746
668.56	4.827
668.75	3.739
668.93	5.244
669.12	3.806
669.30	4.046
669.49	3.396
669.68	4.632
669.86	5.179
670.05	4.215
670.23	3.551
670.42	3.625
670.61	4.838
670.79	6.158
670.98	4.833
671.16	4.397
671.35	4.888
671.54	4.807
671.72	4.794
671.91	4.686
672.09	3.893
672.28	5.175
672.46	5.156
672.65	4.730
672.84	5.108
673.02	5.159
673.21	4.319
673.39	4.044
673.58	6.055
673.77	4.988
673.95	4.583
674.14	5.147
674.32	4.334
674.51	5.994
674.69	4.593
674.88	6.045
675.07	4.687
675.25	6.591
675.44	5.459
675.62	5.076
675.81	4.774
675.99	8.515
676.18	5.954
676.36	5.597
676.55	5.917
676.74	6.586
676.92	7.441
677.11	5.909
677.29	5.813
677.48	6.643
677.66	6.700
677.85	6.189
678.03	5.721
678.22	6.833
678.40	6.123
678.59	5.431
678.78	6.130
678.96	5.242
679.15	5.827
679.33	7.697
679.52	6.478
679.70	6.767
679.89	5.913
680.07	5.711
680.26	4.494
680.44	4.698
680.63	6.466
680.81	6.181
681.00	5.066
681.18	5.188
681.37	5.875
681.55	6.639
681.74	6.614
681.92	6.874
682.11	6.887
682.29	5.871
682.48	5.417
682.66	6.426
682.85	6.788
683.03	6.839
683.22	6.420
683.40	6.468
683.59	7.069
683.77	6.984
683.96	5.988
684.14	8.414
684.33	6.448
684.51	9.890
684.70	7.798
684.88	8.498
685.07	7.702
685.25	7.867
685.44	6.360
685.62	6.957
685.81	7.129
685.99	9.614
686.18	6.419
686.36	8.259
686.55	6.636
686.73	6.574
686.92	9.128
687.10	8.654
687.29	8.169
687.47	10.345
687.65	10.095
687.84	7.644
688.02	10.108
688.21	9.796
688.39	8.359
688.58	10.842
688.76	8.857
688.95	7.847
689.13	8.539
689.32	10.875
689.50	10.840
689.68	10.229
689.87	9.043
690.05	10.739
690.24	10.992
690.42	11.294
690.61	11.728
690.79	12.153
690.98	11.694
691.16	11.485
691.34	8.906
691.53	11.532
691.71	10.884
691.90	13.696
692.08	10.115
692.27	13.838
692.45	14.200
692.63	14.103
692.82	14.992
693.00	13.022
693.19	13.812
693.37	16.020
693.56	14.583
693.74	16.368
693.92	13.903
694.11	15.493
694.29	18.041
694.48	18.681
694.66	17.339
694.84	19.814
695.03	16.101
695.21	20.188
695.40	19.045
695.58	21.802
695.76	19.295
695.95	21.561
696.13	18.776
696.32	22.543
696.50	25.721
696.68	23.599
696.87	21.933
697.05	24.343
697.24	24.299
697.42	25.231
697.60	24.719
697.79	25.173
697.97	25.733
698.16	29.139
698.34	25.023
698.52	28.334
698.71	26.521
698.89	29.033
699.07	29.549
699.26	29.347
699.44	29.267
699.63	30.992
699.81	28.990
699.99	30.775
700.18	31.444
700.36	31.692
700.54	32.036
700.73	31.926
700.91	31.024
701.09	33.570
701.28	33.988
701.46	34.700
701.64	33.096
701.83	35.051
702.01	33.247
702.20	37.546
702.38	35.950
702.56	35.896
702.75	35.667
702.93	35.688
703.11	36.943
703.30	37.064
703.48	36.498
703.66	38.650
703.85	36.929
704.03	39.929
704.21	36.936
704.40	42.542
704.58	37.125
704.76	41.422
704.95	38.800
705.13	41.248
705.31	39.129
705.50	42.182
705.68	38.676
705.86	40.388
706.04	40.821
706.23	43.649
706.41	41.179
706.59	43.164
706.78	40.250
706.96	44.742
707.14	43.279
707.33	43.935
707.51	40.419
707.69	44.518
707.88	41.653
708.06	45.038
708.24	43.784
708.42	46.169
708.61	43.200
708.79	45.937
708.97	44.784
709.16	45.268
709.34	47.116
709.52	45.934
709.71	46.042
709.89	46.650
710.07	44.508
710.25	47.122
710.44	45.438
710.62	47.862
710.80	47.512
710.98	47.131
711.17	46.361
711.35	48.631
711.53	45.360
711.72	47.518
711.90	49.480
712.08	48.739
712.26	44.625
712.45	49.285
712.63	48.269
712.81	50.633
712.99	46.498
713.18	50.209
713.36	48.442
713.54	49.442
713.72	48.780
713.91	49.406
714.09	48.414
714.27	50.039
714.45	48.713
714.64	53.594
714.82	50.372
715.00	50.584
715.18	49.776
715.37	51.122
715.55	50.040
715.73	50.393
715.91	50.588
716.10	51.240
716.28	48.351
716.46	50.777
716.64	49.351
716.83	49.130
717.01	49.309
717.19	50.768
717.37	51.297
717.55	52.152
717.74	49.343
717.92	51.386
718.10	49.833
718.28	51.596
718.47	49.694
718.65	53.299
718.83	52.972
719.01	52.437
719.19	49.962
719.38	51.568
719.56	51.340
719.74	52.509
719.92	47.677
720.10	50.845
720.29	50.461
720.47	54.318
720.65	51.659
720.83	54.985
721.01	49.070
721.20	50.779
721.38	49.947
721.56	51.987
721.74	51.765
721.92	51.739
722.11	51.221
722.29	53.242
722.47	51.078
722.65	54.065
722.83	51.635
723.01	52.431
723.20	52.459
723.38	56.363
723.56	51.458
723.74	57.980
723.92	52.026
724.10	54.245
724.29	49.288
724.47	56.437
724.65	52.815
724.83	54.183
725.01	51.339
725.19	56.316
725.38	52.672
725.56	53.792
725.74	53.268
725.92	56.533
726.10	52.726
726.28	55.084
726.46	53.701
726.65	56.593
726.83	54.939
727.01	58.077
727.19	55.680
727.37	55.946
727.55	54.013
727.73	54.767
727.92	54.850
728.10	55.200
728.28	52.157
728.46	55.447
728.64	54.452
728.82	57.122
729.00	54.713
729.19	56.911
729.37	55.621
729.55	59.053
729.73	54.822
729.91	55.014
730.09	56.070
730.27	56.928
730.45	54.789
730.63	55.019
730.82	54.557
731.00	56.122
731.18	53.864
731.36	56.958
731.54	52.166
731.72	59.212
731.90	52.401
732.08	57.485
732.26	55.099
732.45	58.184
732.63	53.907
732.81	58.073
732.99	54.773
733.17	56.894
733.35	55.308
733.53	59.348
733.71	56.256
733.89	57.504
734.07	55.027
734.25	58.191
734.44	57.120
734.62	58.667
734.80	53.871
734.98	58.797
735.16	58.264
735.34	57.334
735.52	55.546
735.70	57.419
735.88	57.191
736.06	58.278
736.24	57.316
736.42	59.759
736.60	58.077
736.78	59.556
736.97	52.274
737.15	60.603
737.33	53.997
737.51	60.155
737.69	57.867
737.87	60.953
738.05	58.547
738.23	58.214
738.41	57.781
738.59	57.812
738.77	56.059
738.95	58.741
739.13	57.258
739.31	60.922
739.49	57.877
739.67	60.223
739.85	58.413
740.03	62.108
740.21	59.204
740.39	61.269
740.57	57.896
740.75	62.073
740.93	58.729
741.11	60.206
741.30	56.937
741.48	59.553
741.66	58.789
741.84	59.653
742.02	55.189
742.20	62.290
742.38	58.490
742.56	61.158
742.74	55.837
742.92	57.419
743.10	57.088
743.28	61.146
743.46	57.285
743.64	59.628
743.82	53.944
744.00	60.764
744.18	57.775
744.36	59.585
744.54	55.959
744.72	62.114
744.90	58.565
745.08	57.588
745.26	58.602
745.44	61.543
745.62	54.582
745.80	58.289
745.98	57.016
746.16	60.156
746.34	57.692
746.52	62.508
746.70	55.139
746.87	58.833
747.05	53.741
747.23	61.285
747.41	56.802
747.59	59.589
747.77	53.106
747.95	55.956
748.13	56.538
748.31	59.854
748.49	56.644
748.67	57.686
748.85	55.461
749.03	60.105
749.21	53.966
749.39	60.914
749.57	53.970
749.75	57.377
749.93	56.552
750.11	56.127
750.29	57.264
750.47	57.384
750.65	57.265
750.83	57.744
751.01	52.439
751.18	59.914
751.36	53.022
751.54	56.011
751.72	56.653
751.90	55.833
752.08	53.968
752.26	55.068
752.44	58.202
752.62	58.124
752.80	58.952
752.98	57.632
753.16	55.493
753.34	57.780
753.52	60.826
753.69	58.346
753.87	56.181
754.05	59.106
754.23	54.727
754.41	59.267
754.59	57.728
754.77	59.028
754.95	53.327
755.13	58.915
755.31	55.097
755.49	55.633
755.66	56.409
755.84	59.109
756.02	53.220
756.20	58.677
756.38	53.655
756.56	55.985
756.74	52.363
756.92	56.400
757.10	54.403
757.28	55.500
757.45	59.086
757.63	61.621
757.81	51.946
757.99	60.453
758.17	55.234
758.35	60.520
758.53	59.936
758.71	60.194
758.88	56.236
759.06	60.209
759.24	51.738
759.42	53.352
759.60	54.258
759.78	56.371
759.96	50.123
760.13	53.622
760.31	51.243
760.49	54.181
760.67	48.539
760.85	54.435
761.03	49.528
761.21	53.473
761.38	47.341
761.56	55.198
761.74	47.301
761.92	57.423
762.10	44.470
762.28	54.456
762.46	43.242
762.63	50.126
762.81	49.100
762.99	51.151
763.17	50.855
763.35	53.138
763.53	49.385
763.70	53.584
763.88	56.628
764.06	55.066
764.24	53.080
764.42	54.482
764.60	54.879
764.77	54.935
764.95	54.218
765.13	55.685
765.31	53.505
765.49	55.581
765.66	50.974
765.84	55.000
766.02	53.057
766.20	56.109
766.38	52.724
766.56	56.317
766.73	52.762
766.91	53.405
767.09	52.711
767.27	55.275
767.45	51.692
767.62	53.461
767.80	49.715
767.98	55.476
768.16	50.310
768.33	57.498
768.51	53.275
768.69	55.911
768.87	53.344
769.05	54.494
769.22	48.697
769.40	57.228
769.58	52.744
769.76	59.094
769.94	52.683
770.11	52.216
770.29	51.089
770.47	53.573
770.65	51.136
770.82	58.793
771.00	50.400
771.18	57.955
771.36	50.244
771.53	53.125
771.71	51.541
771.89	57.194
772.07	51.285
772.25	53.649
772.42	50.149
772.60	56.422
772.78	52.124
772.96	55.433
773.13	56.494
773.31	51.861
773.49	46.697
773.67	48.210
773.84	52.405
774.02	51.609
774.20	47.668
774.37	53.172
774.55	49.376
774.73	57.190
774.91	51.339
775.08	50.867
775.26	48.708
775.44	49.637
775.62	50.344
775.79	50.278
775.97	47.774
776.15	54.317
776.32	43.613
776.50	54.914
776.68	51.203
776.86	60.136
777.03	46.979
777.21	53.878
777.39	44.894
777.56	52.933
777.74	50.797
777.92	57.651
778.10	47.146
778.27	56.986
778.45	51.651
778.63	53.796
778.80	45.527
778.98	56.247
779.16	57.474
779.34	49.105
779.51	48.463
779.69	53.817
779.87	46.690
780.04	53.254
780.22	43.586
780.40	55.741
780.57	44.798
780.75	50.351
780.93	54.150
781.10	55.772
781.28	55.109
781.46	48.083
781.63	52.595
781.81	55.599
781.99	42.878
782.16	46.455
782.34	44.154
782.52	49.723
782.69	53.225
782.87	50.885
783.05	46.667
783.22	47.743
783.40	43.633
783.58	50.977
783.75	46.277
783.93	52.734
784.11	48.890
784.28	52.132
784.46	45.853
784.64	49.639
784.81	49.260
784.99	54.105
785.17	47.783
785.34	45.669
785.52	46.263
785.69	50.676
785.87	42.616
786.05	52.574
786.22	47.292
786.40	53.725
786.58	44.011
786.75	50.296
786.93	43.229
787.11	47.281
787.28	42.560
787.46	51.492
787.63	44.868
787.81	47.172
787.99	44.885
788.16	46.110
788.34	42.339
788.51	46.295
788.69	50.025
788.87	50.120
789.04	44.574
789.22	47.930
789.39	46.496
789.57	45.877
789.75	41.512
789.92	50.136
790.10	43.888
790.27	51.374
790.45	45.432
790.63	48.327
790.80	43.650
790.98	47.571
791.15	42.953
791.33	47.991
791.51	37.822
791.68	50.130
791.86	49.810
792.03	49.295
792.21	37.355
792.39	50.200
792.56	45.183
792.74	54.790
792.91	45.423
793.09	47.309
793.26	42.755
793.44	52.421
793.62	40.584
793.79	48.953
793.97	47.993
794.14	45.563
794.32	46.628
794.49	50.241
794.67	33.229
794.84	44.631
795.02	42.806
795.20	48.510
795.37	42.479
795.55	45.787
795.72	46.938
795.90	42.185
796.07	45.176
796.25	47.462
796.42	42.082
796.60	43.896
796.77	43.896
796.95	42.010
797.13	38.202
797.30	49.973
797.48	43.465
797.65	47.584
797.83	43.400
798.00	45.987
798.18	41.005
798.35	45.921
798.53	46.348
798.70	51.025
798.88	46.700
799.05	46.884
799.23	42.626
799.40	47.430
799.58	45.235
799.75	43.746
799.93	42.763
800.10	46.732
800.28	40.957
800.45	50.975
800.63	39.029
800.80	46.304
800.98	42.984
801.15	41.995
801.33	41.349
801.50	42.594
801.68	41.129
801.85	45.466
802.03	41.108
802.20	41.155
802.38	42.866
802.55	37.337
802.73	50.447
802.90	44.857
803.08	41.091
803.25	47.677
803.43	42.016
803.60	52.177
803.78	44.529
803.95	47.103
804.13	42.242
804.30	46.918
804.48	45.522
804.65	45.968
804.83	41.546
805.00	44.318
805.17	44.733
805.35	39.430
805.52	38.202
805.70	47.826
805.87	43.808
806.05	49.072
806.22	41.271
806.40	43.331
806.57	45.072
806.75	49.906
806.92	53.264
807.09	47.804
807.27	42.475
807.44	47.228
807.62	42.567
807.79	46.220
807.97	39.513
808.14	50.000
808.31	39.911
808.49	47.604
808.66	45.176
808.84	36.856
809.01	47.113
809.19	42.345
809.36	52.926
809.53	45.506
809.71	44.065
809.88	56.660
810.06	45.836
810.23	44.313
810.41	44.109
810.58	47.254
810.75	39.701
810.93	39.732
811.10	38.418
811.28	41.012
811.45	43.468
811.62	41.744
811.80	37.074
811.97	45.573
812.15	53.936
812.32	41.550
812.49	44.412
812.67	47.437
812.84	37.773
813.02	42.707
813.19	42.113
813.36	44.199
813.54	39.657
813.71	46.488
813.89	39.805
814.06	48.017
814.23	44.996
814.41	42.752
814.58	46.573
814.75	42.845
814.93	44.326
815.10	37.635
815.28	29.786
815.45	36.275
815.62	39.294
815.80	39.414
815.97	44.123
816.14	42.008
816.32	41.762
816.49	39.633
816.66	39.037
816.84	37.547
817.01	44.750
817.18	40.397
817.36	35.355
817.53	42.008
817.71	29.076
817.88	41.667
818.05	39.985
818.23	41.176
818.40	33.851
818.57	41.660
818.75	37.138
818.92	35.747
819.09	38.549
819.27	45.482
819.44	37.553
819.61	38.889
819.79	34.135
819.96	47.030
820.13	39.164
820.31	44.412
820.48	40.912
820.65	43.211
820.82	40.394
821.00	39.008
821.17	38.949
821.34	42.964
821.52	44.550
821.69	47.126
821.86	41.679
822.04	49.006
822.21	49.738
822.38	56.608
822.56	50.915
822.73	55.408
822.90	54.565
823.07	55.638
823.25	54.935
823.42	54.195
823.59	53.827
823.77	54.970
823.94	52.567
824.11	53.930
824.29	52.531
824.46	54.373
824.63	53.549
824.80	53.890
824.98	52.429
825.15	55.008
825.32	49.677
825.49	50.619
825.67	51.161
825.84	54.422
826.01	49.843
826.19	51.902
826.36	43.945
826.53	53.188
826.70	46.607
826.88	53.023
827.05	47.731
827.22	50.364
827.39	49.626
827.57	50.013
827.74	47.590
827.91	52.842
828.08	47.748
828.26	51.484
828.43	48.639
828.60	54.000
828.77	49.731
828.95	52.010
829.12	45.496
829.29	46.991
829.46	46.849
829.64	49.846
829.81	44.448
829.98	48.428
830.15	41.604
830.32	44.052
830.50	41.530
830.67	45.342
830.84	41.841
831.01	35.472
831.19	37.783
831.36	43.265
831.53	36.529
831.70	49.219
831.87	35.618
832.05	43.429
832.22	45.251
832.39	26.787
832.56	40.674
832.74	38.024
832.91	30.786
833.08	44.571
833.25	29.958
833.42	39.700
833.60	37.338
833.77	37.627
833.94	37.577
834.11	42.427
834.28	36.907
834.45	43.385
834.63	38.585
834.80	45.718
834.97	43.461
835.14	41.974
835.31	43.003
835.49	42.493
835.66	43.655
835.83	42.272
836.00	39.163
836.17	44.171
836.34	36.561
836.52	39.274
836.69	40.574
836.86	44.276
837.03	38.966
837.20	42.457
837.37	39.863
837.55	35.844
837.72	30.603
837.89	40.419
838.06	39.514
838.23	44.535
838.40	39.394
838.58	33.565
838.75	43.274
838.92	43.092
839.09	48.805
839.26	40.275
839.43	46.065
839.60	43.902
839.78	56.400
839.95	48.414
840.12	41.560
840.29	46.454
840.46	45.491
840.63	46.509
840.80	36.931
840.98	49.140
841.15	39.016
841.32	39.872
841.49	28.497
841.66	46.320
841.83	37.171
842.00	46.316
842.17	49.952
842.34	39.788
842.52	47.358
842.69	48.160
842.86	43.914
843.03	48.689
843.20	48.316
843.37	46.494
843.54	51.471
843.71	42.787
843.88	52.707
844.06	51.270
844.23	49.260
844.40	45.455
844.57	58.475
844.74	46.445
844.91	57.220
845.08	41.961
845.25	65.774
845.42	57.955
845.59	54.758
845.76	73.056
845.94	66.063
846.11	47.109
846.28	54.973
846.45	67.490
846.62	64.334
846.79	61.755
846.96	56.897
847.13	73.768
847.30	65.841
847.47	52.424
847.64	68.242
847.81	62.264
847.98	72.745
848.15	66.971
848.32	61.723
848.50	59.357
848.67	50.727
848.84	72.451
849.01	58.969
849.18	71.367
849.35	91.068
849.52	70.431
849.69	56.512
849.86	69.625
850.03	53.244
850.20	70.565
850.37	59.796
850.54	57.584
850.71	78.226
850.88	55.332
851.05	72.987
851.22	64.959
851.39	66.738
851.56	59.180
851.73	75.670
851.90	61.220
852.07	63.383
852.24	79.567
852.41	66.129
852.58	78.238
852.75	65.751
852.92	78.240
853.09	67.478
853.26	67.826
853.43	52.555
853.60	63.511
853.77	86.325
853.94	75.163
854.11	73.866
854.28	73.054
854.45	73.991
854.62	72.566
854.79	69.359
854.96	63.208
855.13	64.224
855.30	52.840
855.47	90.860
855.64	63.131
855.81	67.174
855.98	82.998
856.15	58.824
856.32	70.649
856.49	72.267
856.66	66.461
856.83	64.530
857.00	78.723
857.17	65.358
857.34	76.443
857.51	54.734
857.68	77.979
857.85	65.665
858.02	75.110
858.19	68.399
858.36	61.872
858.53	80.378
858.70	75.000
858.87	66.022
859.04	76.018
859.21	77.228
859.38	78.197
859.55	78.860
859.72	92.837
859.89	92.950
860.05	76.774
860.22	76.044
860.39	64.182
860.56	83.424
860.73	86.301
860.90	63.539
861.07	67.229
861.24	50.463
861.41	60.970
861.58	59.243
861.75	80.890
861.92	57.399
862.09	66.071
862.26	70.571
862.43	75.926
862.59	64.658
862.76	96.907
862.93	86.383
863.10	77.428
863.27	79.348
863.44	83.855
863.61	72.991
863.78	56.616
863.95	104.403
864.12	64.706
864.29	69.886
864.45	70.896
864.62	58.454
864.79	60.000
864.96	67.233
865.13	60.895
865.30	63.242
865.47	70.968
865.64	84.634
865.81	75.949
865.97	66.450
866.14	59.459
866.31	65.714
866.48	58.788
866.65	57.768
866.82	71.236
866.99	77.904
867.16	64.706
867.33	76.739
867.49	69.484
867.66	69.363
867.83	92.508
868.00	69.271
868.17	68.409
868.34	92.290
868.51	59.553
868.67	85.635
868.84	60.337
869.01	78.920
869.18	77.778
869.35	66.570
869.52	79.255
869.69	76.980
869.85	71.749
870.02	78.133
870.19	78.880
870.36	75.940
870.53	55.180
870.70	84.561
870.86	54.593
871.03	70.353
871.20	67.183
871.37	80.180
871.54	89.971
871.71	72.118
871.87	77.778
872.04	58.025
872.21	73.649
872.38	91.542
872.55	96.632
872.72	73.923
872.88	65.027
873.05	70.067
873.22	57.178
873.39	59.223
873.56	64.286
873.72	58.537
873.89	67.320
874.06	69.341
874.23	75.515
874.40	72.603
874.56	72.784
874.73	69.136
874.90	49.199
875.07	66.747
875.24	62.053
875.40	66.925
875.57	59.270
875.74	85.000
875.91	59.911
876.08	53.776
876.24	89.189
876.41	57.113
876.58	82.583
876.75	52.152
876.92	66.738
877.08	73.934
877.25	64.211
877.42	64.637
877.59	60.248
877.75	76.620
877.92	74.280
878.09	76.264
878.26	61.523
878.42	82.594
878.59	84.966
878.76	54.545
878.93	75.706
879.09	72.345
879.26	58.214
879.43	88.808
879.60	72.407
879.76	57.262
879.93	59.781
880.10	46.320
880.27	50.763
880.43	57.886
880.60	42.660
880.77	28.933
880.94	53.401
881.10	40.000
881.27	40.992
881.44	33.488
881.61	42.448
881.77	46.788
881.94	36.585
882.11	29.692
882.28	36.368
882.44	36.008
882.61	38.976
882.78	44.701
882.94	48.765
883.11	43.789
883.28	46.093
883.45	45.857
883.61	40.960
883.78	40.345
883.95	48.800
884.11	43.750
884.28	41.841
>>>>>End Processed Spectral Data<<<<<
