SpectraSuite Data File
++++++++++++++++++++++++++++++++++++
Date: Tue Sep 24 03:12:53 EST 2019
User: sgrac
Dark Spectrum Present: Yes
Reference Spectrum Present: Yes
Number of Sampled Component Spectra: 1
Spectrometers: USB4E01596
Integration Time (usec): 100000 (USB4E01596)
Spectra Averaged: 3 (USB4E01596)
Boxcar Smoothing: 0 (USB4E01596)
Correct for Electrical Dark: No (USB4E01596)
Strobe/Lamp Enabled: Yes (USB4E01596)
Correct for Detector Non-linearity: No (USB4E01596)
Correct for Stray Light: No (USB4E01596)
Number of Pixels in Processed Spectrum: 3648
>>>>>Begin Processed Spectral Data<<<<<
178.44	1209.091
178.66	1209.091
178.87	1209.091
179.09	494.340
179.30	580.000
179.52	-923.333
179.74	560.377
179.95	500.000
180.17	-13100.000
180.38	-11000.000
180.60	408.989
180.82	-2678.571
181.03	781.081
181.25	-1547.826
181.46	406.944
181.68	3400.000
181.89	-1279.167
182.11	459.091
182.33	785.714
182.54	654.386
182.76	-505.000
182.97	195.652
183.19	546.667
183.40	3644.444
183.62	371.951
183.84	465.333
184.05	663.043
184.27	364.198
184.48	-1594.444
184.70	402.151
184.91	461.842
185.13	580.263
185.34	418.280
185.56	815.625
185.78	825.000
185.99	1825.000
186.21	418.750
186.42	721.429
186.64	302.151
186.85	685.417
187.07	-3040.000
187.28	-1417.647
187.50	-27400.000
187.72	26400.000
187.93	-1233.333
188.15	888.372
188.36	425.676
188.58	545.946
188.79	-4614.286
189.01	-2246.154
189.22	1444.000
189.44	408.140
189.65	556.061
189.87	-4700.000
190.09	820.588
190.30	707.895
190.52	1666.667
190.73	4783.333
190.95	797.368
191.16	359.494
191.38	2609.091
191.59	2307.143
191.81	838.235
192.02	646.809
192.24	571.429
192.45	1688.235
192.67	385.714
192.88	340.816
193.10	480.303
193.31	359.596
193.53	776.316
193.74	-25500.000
193.96	560.563
194.18	293.396
194.39	394.565
194.61	413.889
194.82	286.441
195.04	345.794
195.25	0.000
195.47	-24500.000
195.68	318.000
195.90	440.000
196.11	379.518
196.33	653.488
196.54	408.257
196.76	942.424
196.97	-3083.333
197.19	345.349
197.40	621.053
197.62	533.962
197.83	305.769
198.05	547.945
198.26	0.000
198.48	-566.667
198.69	1000.000
198.91	3785.714
199.12	-7625.000
199.34	412.222
199.55	-31400.000
199.77	1888.889
199.98	546.479
200.20	357.851
200.41	471.053
200.63	1200.000
200.84	-2169.231
201.06	363.291
201.27	1072.000
201.49	812.766
201.70	354.023
201.91	466.197
202.13	523.881
202.34	-1056.000
202.56	247.183
202.77	3487.500
202.99	4537.500
203.20	526.087
203.42	929.730
203.63	3662.500
203.85	321.008
204.06	571.154
204.28	289.831
204.49	1027.273
204.71	-946.875
204.92	335.507
205.14	983.871
205.35	850.000
205.56	365.714
205.78	-686.000
205.99	943.590
206.21	596.491
206.42	462.121
206.64	1543.478
206.85	393.976
207.07	-429.032
207.28	1048.000
207.50	357.609
207.71	679.167
207.93	8133.333
208.14	850.000
208.35	-2058.333
208.57	-844.828
208.78	254.545
209.00	785.000
209.21	362.376
209.43	-4116.667
209.64	227.273
209.86	522.807
210.07	611.905
210.28	858.621
210.50	5216.667
210.71	874.194
210.93	-2340.000
211.14	549.091
211.36	371.875
211.57	1281.481
211.78	3933.333
212.00	-1488.889
212.21	739.024
212.43	648.214
212.64	390.244
212.86	1278.261
213.07	498.529
213.29	2250.000
213.50	223.810
213.71	380.723
213.93	223.846
214.14	273.504
214.36	372.941
214.57	-3460.000
214.78	848.718
215.00	312.397
215.21	655.000
215.43	1256.000
215.64	288.889
215.86	348.113
216.07	7750.000
216.28	559.701
216.50	342.157
216.71	1310.345
216.93	-723.256
217.14	345.455
217.35	539.286
217.57	282.051
217.78	541.935
218.00	306.061
218.21	371.831
218.42	1074.074
218.64	1986.667
218.85	651.786
219.07	247.899
219.28	470.769
219.49	366.055
219.71	457.143
219.92	996.000
220.14	732.609
220.35	2781.818
220.56	641.463
220.78	706.061
220.99	418.462
221.21	462.162
221.42	452.703
221.63	7050.000
221.85	1246.429
222.06	1254.167
222.28	411.392
222.49	346.237
222.70	293.000
222.92	531.579
223.13	1555.556
223.34	793.750
223.56	240.157
223.77	194.444
223.99	340.000
224.20	199.315
224.41	337.333
224.63	342.857
224.84	215.714
225.05	264.000
225.27	501.961
225.48	288.889
225.69	351.042
225.91	444.578
226.12	195.408
226.34	175.978
226.55	133.191
226.76	183.158
226.98	167.500
227.19	114.216
227.40	153.680
227.62	164.078
227.83	97.790
228.04	109.337
228.26	97.297
228.47	73.548
228.69	62.653
228.90	51.560
229.11	40.686
229.33	40.028
229.54	41.527
229.75	33.717
229.97	37.187
230.18	41.556
230.39	26.962
230.61	35.588
230.82	39.619
231.03	27.974
231.25	36.502
231.46	43.797
231.67	37.023
231.89	35.907
232.10	44.507
232.31	46.200
232.53	54.140
232.74	56.693
232.95	64.984
233.17	52.098
233.38	40.201
233.59	62.184
233.81	60.616
234.02	65.461
234.23	54.007
234.45	61.722
234.66	56.182
234.87	58.915
235.09	54.531
235.30	54.651
235.51	53.002
235.73	55.066
235.94	49.530
236.15	50.476
236.36	46.282
236.58	49.925
236.79	52.208
237.00	33.529
237.22	49.048
237.43	46.686
237.64	68.333
237.86	47.507
238.07	48.989
238.28	45.630
238.50	43.915
238.71	52.632
238.92	39.972
239.13	44.381
239.35	47.353
239.56	45.578
239.77	53.479
239.99	36.712
240.20	47.521
240.41	43.394
240.63	41.535
240.84	41.932
241.05	28.275
241.26	31.111
241.48	25.109
241.69	24.295
241.90	25.426
242.12	23.990
242.33	21.783
242.54	16.957
242.75	15.990
242.97	17.424
243.18	16.385
243.39	13.847
243.61	17.620
243.82	16.182
244.03	15.634
244.24	16.611
244.46	16.995
244.67	16.630
244.88	16.507
245.09	14.301
245.31	18.257
245.52	16.712
245.73	19.855
245.95	25.813
246.16	19.009
246.37	13.697
246.58	17.024
246.80	16.776
247.01	12.755
247.22	12.877
247.43	13.206
247.65	10.544
247.86	10.287
248.07	9.863
248.28	8.972
248.50	7.974
248.71	8.700
248.92	8.344
249.13	10.441
249.35	9.729
249.56	9.984
249.77	10.707
249.98	9.522
250.20	15.648
250.41	12.011
250.62	18.808
250.83	16.629
251.05	17.733
251.26	18.371
251.47	18.545
251.68	18.332
251.90	16.503
252.11	14.942
252.32	18.139
252.53	14.689
252.75	14.625
252.96	15.436
253.17	17.264
253.38	15.324
253.59	13.690
253.81	16.183
254.02	13.694
254.23	16.779
254.44	16.349
254.66	13.723
254.87	18.764
255.08	22.802
255.29	18.806
255.50	24.356
255.72	18.884
255.93	19.398
256.14	29.873
256.35	22.833
256.57	25.223
256.78	22.060
256.99	22.259
257.20	22.453
257.41	21.627
257.63	21.185
257.84	18.231
258.05	22.479
258.26	15.315
258.47	14.315
258.69	14.313
258.90	13.681
259.11	13.283
259.32	13.086
259.53	10.245
259.75	11.387
259.96	7.702
260.17	10.856
260.38	7.297
260.59	6.993
260.81	7.646
261.02	6.861
261.23	6.303
261.44	7.529
261.65	8.162
261.87	5.812
262.08	6.628
262.29	10.762
262.50	8.763
262.71	9.365
262.92	10.927
263.14	10.703
263.35	10.668
263.56	17.774
263.77	14.249
263.98	10.919
264.20	15.714
264.41	17.337
264.62	12.181
264.83	12.065
265.04	15.053
265.25	13.759
265.47	18.235
265.68	13.983
265.89	17.338
266.10	14.513
266.31	16.440
266.52	14.045
266.74	14.785
266.95	11.272
267.16	12.098
267.37	14.010
267.58	12.881
267.79	12.579
268.01	11.003
268.22	12.004
268.43	11.621
268.64	10.030
268.85	12.965
269.06	8.988
269.27	13.452
269.49	11.528
269.70	13.294
269.91	11.563
270.12	11.717
270.33	11.986
270.54	11.125
270.75	10.723
270.97	10.526
271.18	9.493
271.39	9.994
271.60	10.669
271.81	9.735
272.02	9.851
272.23	10.573
272.45	8.640
272.66	9.004
272.87	9.930
273.08	8.030
273.29	8.364
273.50	9.367
273.71	9.511
273.92	7.800
274.14	8.532
274.35	9.144
274.56	10.242
274.77	7.966
274.98	9.235
275.19	12.608
275.40	8.304
275.61	8.486
275.83	10.509
276.04	10.741
276.25	12.418
276.46	12.118
276.67	13.399
276.88	13.175
277.09	8.250
277.30	11.155
277.51	12.787
277.73	9.135
277.94	10.975
278.15	10.729
278.36	11.739
278.57	9.595
278.78	10.331
278.99	11.009
279.20	11.940
279.41	14.135
279.62	8.518
279.84	9.792
280.05	10.045
280.26	10.234
280.47	9.970
280.68	11.434
280.89	7.595
281.10	10.314
281.31	10.863
281.52	8.631
281.73	8.932
281.94	8.346
282.16	9.157
282.37	10.895
282.58	9.243
282.79	11.452
283.00	10.399
283.21	7.549
283.42	8.087
283.63	9.706
283.84	9.398
284.05	8.907
284.26	8.740
284.47	8.367
284.68	9.022
284.89	7.679
285.11	8.299
285.32	7.925
285.53	8.659
285.74	9.045
285.95	7.773
286.16	7.695
286.37	5.868
286.58	7.186
286.79	6.676
287.00	7.509
287.21	6.990
287.42	7.739
287.63	6.345
287.84	6.711
288.05	7.778
288.26	7.285
288.48	7.067
288.69	6.909
288.90	8.144
289.11	8.701
289.32	6.621
289.53	6.537
289.74	6.532
289.95	7.972
290.16	8.359
290.37	7.216
290.58	7.168
290.79	6.914
291.00	6.862
291.21	7.504
291.42	7.866
291.63	7.143
291.84	7.077
292.05	7.403
292.26	7.627
292.47	7.024
292.68	7.444
292.89	8.767
293.10	8.333
293.31	7.502
293.52	7.874
293.73	7.060
293.94	8.533
294.15	8.453
294.36	8.924
294.57	7.498
294.79	9.811
295.00	6.664
295.21	8.517
295.42	7.840
295.63	9.019
295.84	5.704
296.05	6.618
296.26	7.053
296.47	7.240
296.68	6.816
296.89	8.649
297.10	6.579
297.31	8.214
297.52	5.600
297.73	6.399
297.94	6.547
298.15	6.433
298.36	6.040
298.57	5.211
298.78	6.193
298.99	5.927
299.20	5.417
299.41	6.137
299.62	5.118
299.83	6.051
300.04	6.874
300.25	8.921
300.46	6.687
300.67	8.262
300.88	5.686
301.09	4.921
301.30	9.753
301.50	6.353
301.71	8.398
301.92	7.518
302.13	6.887
302.34	6.058
302.55	7.969
302.76	7.671
302.97	6.733
303.18	6.877
303.39	7.477
303.60	6.777
303.81	9.247
304.02	7.594
304.23	7.834
304.44	6.050
304.65	7.545
304.86	8.248
305.07	7.223
305.28	7.262
305.49	7.366
305.70	7.601
305.91	7.347
306.12	7.055
306.33	7.359
306.54	7.581
306.75	7.667
306.96	8.599
307.17	5.943
307.38	7.963
307.58	6.518
307.79	8.097
308.00	8.870
308.21	9.239
308.42	8.634
308.63	7.763
308.84	7.829
309.05	6.971
309.26	6.053
309.47	6.433
309.68	7.527
309.89	9.349
310.10	6.838
310.31	6.342
310.52	6.827
310.73	7.928
310.94	5.482
311.14	6.141
311.35	5.811
311.56	7.370
311.77	5.938
311.98	5.297
312.19	5.176
312.40	5.887
312.61	5.276
312.82	7.078
313.03	5.985
313.24	6.796
313.45	7.113
313.66	7.033
313.86	7.590
314.07	7.293
314.28	9.392
314.49	6.449
314.70	7.900
314.91	8.471
315.12	7.267
315.33	8.180
315.54	6.491
315.75	7.488
315.96	6.298
316.16	7.482
316.37	9.578
316.58	6.301
316.79	7.432
317.00	8.695
317.21	8.346
317.42	9.427
317.63	8.203
317.84	9.151
318.05	7.130
318.25	7.645
318.46	7.894
318.67	7.355
318.88	7.515
319.09	8.069
319.30	8.322
319.51	8.269
319.72	6.351
319.93	7.198
320.13	6.959
320.34	7.837
320.55	7.036
320.76	8.208
320.97	8.352
321.18	10.177
321.39	8.891
321.60	6.575
321.80	10.134
322.01	7.759
322.22	8.775
322.43	6.894
322.64	7.732
322.85	8.193
323.06	7.976
323.27	8.376
323.47	7.708
323.68	7.680
323.89	6.277
324.10	8.667
324.31	7.416
324.52	7.946
324.73	8.005
324.93	5.036
325.14	7.076
325.35	7.495
325.56	7.317
325.77	7.133
325.98	7.735
326.19	7.329
326.39	5.325
326.60	7.166
326.81	6.473
327.02	6.788
327.23	6.394
327.44	7.547
327.64	4.583
327.85	5.797
328.06	6.471
328.27	8.598
328.48	8.311
328.69	6.367
328.90	6.898
329.10	7.233
329.31	8.413
329.52	7.805
329.73	8.234
329.94	5.814
330.15	6.470
330.35	7.959
330.56	8.198
330.77	6.002
330.98	7.947
331.19	7.484
331.39	7.251
331.60	7.516
331.81	6.605
332.02	8.160
332.23	8.702
332.44	7.224
332.64	9.362
332.85	6.806
333.06	5.607
333.27	6.963
333.48	6.497
333.68	6.109
333.89	7.673
334.10	5.392
334.31	7.094
334.52	7.801
334.72	6.236
334.93	6.169
335.14	6.589
335.35	7.453
335.56	8.218
335.76	5.834
335.97	7.483
336.18	5.931
336.39	7.782
336.60	7.905
336.80	6.699
337.01	6.100
337.22	6.599
337.43	7.994
337.64	7.227
337.84	6.874
338.05	7.505
338.26	8.260
338.47	7.540
338.68	5.252
338.88	7.653
339.09	5.665
339.30	5.959
339.51	5.748
339.71	7.786
339.92	5.921
340.13	7.216
340.34	6.659
340.55	6.434
340.75	6.357
340.96	5.264
341.17	7.735
341.38	6.890
341.58	7.346
341.79	6.239
342.00	5.564
342.21	5.508
342.41	5.977
342.62	6.190
342.83	8.741
343.04	5.754
343.24	6.383
343.45	6.005
343.66	7.262
343.87	5.863
344.07	5.680
344.28	5.570
344.49	7.028
344.70	5.785
344.90	5.065
345.11	5.790
345.32	5.465
345.53	5.671
345.73	5.992
345.94	6.950
346.15	6.995
346.36	5.838
346.56	6.194
346.77	5.171
346.98	6.025
347.19	5.645
347.39	5.415
347.60	4.894
347.81	5.985
348.02	7.302
348.22	5.186
348.43	5.776
348.64	5.734
348.84	4.973
349.05	6.128
349.26	6.837
349.47	4.840
349.67	5.685
349.88	6.698
350.09	5.900
350.30	6.778
350.50	5.117
350.71	5.999
350.92	6.268
351.12	5.262
351.33	5.876
351.54	6.054
351.74	5.516
351.95	5.046
352.16	6.026
352.37	6.140
352.57	5.935
352.78	6.261
352.99	5.773
353.19	5.829
353.40	6.419
353.61	6.657
353.82	6.497
354.02	6.767
354.23	6.615
354.44	7.261
354.64	7.045
354.85	6.187
355.06	6.034
355.26	6.013
355.47	5.744
355.68	7.582
355.88	5.782
356.09	6.316
356.30	4.692
356.51	5.871
356.71	6.303
356.92	4.654
357.13	6.915
357.33	6.150
357.54	5.206
357.75	4.202
357.95	5.218
358.16	4.821
358.37	6.871
358.57	4.798
358.78	6.477
358.99	5.262
359.19	4.747
359.40	5.387
359.61	5.800
359.81	6.698
360.02	7.092
360.23	5.392
360.43	5.471
360.64	5.534
360.85	5.450
361.05	4.638
361.26	6.443
361.47	5.114
361.67	6.035
361.88	4.429
362.09	5.108
362.29	4.529
362.50	3.519
362.70	4.137
362.91	5.499
363.12	4.427
363.32	4.135
363.53	5.236
363.74	5.093
363.94	4.164
364.15	5.803
364.36	5.701
364.56	4.361
364.77	5.981
364.98	6.878
365.18	5.894
365.39	6.605
365.59	4.602
365.80	4.777
366.01	5.961
366.21	5.045
366.42	5.323
366.63	6.079
366.83	5.407
367.04	4.531
367.24	6.362
367.45	4.672
367.66	4.763
367.86	5.880
368.07	4.913
368.28	5.137
368.48	5.563
368.69	4.987
368.89	5.863
369.10	5.250
369.31	5.272
369.51	6.417
369.72	6.086
369.92	6.698
370.13	5.316
370.34	5.397
370.54	4.443
370.75	5.446
370.95	5.262
371.16	4.990
371.37	4.830
371.57	4.639
371.78	5.190
371.98	6.268
372.19	4.806
372.40	5.326
372.60	5.941
372.81	4.741
373.01	5.044
373.22	4.235
373.43	5.771
373.63	4.791
373.84	5.197
374.04	5.136
374.25	6.011
374.46	5.734
374.66	6.585
374.87	6.136
375.07	5.379
375.28	4.124
375.48	5.200
375.69	6.267
375.90	3.991
376.10	4.554
376.31	4.484
376.51	5.317
376.72	4.100
376.92	4.082
377.13	4.966
377.34	5.809
377.54	5.151
377.75	5.537
377.95	4.361
378.16	5.717
378.36	5.780
378.57	4.425
378.77	4.871
378.98	5.492
379.19	4.545
379.39	4.832
379.60	6.003
379.80	5.113
380.01	6.059
380.21	4.505
380.42	5.550
380.62	5.051
380.83	5.472
381.04	5.105
381.24	5.646
381.45	4.716
381.65	4.566
381.86	5.445
382.06	6.038
382.27	4.545
382.47	4.229
382.68	5.943
382.88	5.037
383.09	4.824
383.29	5.533
383.50	6.287
383.71	5.445
383.91	5.405
384.12	4.939
384.32	5.201
384.53	5.252
384.73	4.942
384.94	3.750
385.14	4.377
385.35	4.890
385.55	4.928
385.76	4.985
385.96	4.972
386.17	4.312
386.37	5.160
386.58	5.204
386.78	6.052
386.99	4.371
387.19	5.629
387.40	4.341
387.60	5.974
387.81	5.111
388.01	4.585
388.22	5.319
388.42	6.761
388.63	6.507
388.83	6.180
389.04	4.507
389.24	5.315
389.45	4.817
389.65	4.660
389.86	5.744
390.06	5.269
390.27	5.066
390.47	5.539
390.68	4.787
390.88	6.755
391.09	6.518
391.29	5.941
391.50	5.535
391.70	6.010
391.91	4.808
392.11	5.781
392.32	5.311
392.52	5.853
392.73	5.609
392.93	5.715
393.14	5.352
393.34	5.159
393.55	6.514
393.75	5.542
393.95	5.398
394.16	6.718
394.36	6.773
394.57	6.643
394.77	6.110
394.98	5.933
395.18	6.340
395.39	5.561
395.59	6.377
395.80	6.253
396.00	5.739
396.21	6.556
396.41	5.362
396.61	7.105
396.82	6.485
397.02	7.638
397.23	6.915
397.43	6.400
397.64	4.653
397.84	7.080
398.05	4.986
398.25	6.788
398.45	5.607
398.66	6.608
398.86	6.069
399.07	7.161
399.27	5.010
399.48	7.155
399.68	5.880
399.89	5.999
400.09	7.480
400.29	6.683
400.50	5.960
400.70	6.685
400.91	6.012
401.11	5.730
401.32	6.716
401.52	5.514
401.72	5.974
401.93	7.423
402.13	6.252
402.34	6.994
402.54	5.549
402.75	8.253
402.95	4.487
403.15	6.993
403.36	5.438
403.56	7.168
403.77	5.323
403.97	6.356
404.17	6.154
404.38	6.684
404.58	5.546
404.79	7.144
404.99	6.312
405.19	5.838
405.40	6.151
405.60	6.872
405.81	5.532
406.01	6.865
406.21	5.473
406.42	6.563
406.62	6.290
406.83	7.363
407.03	6.444
407.23	6.327
407.44	5.764
407.64	6.372
407.85	6.153
408.05	6.174
408.25	6.067
408.46	7.244
408.66	6.653
408.87	6.283
409.07	5.801
409.27	6.129
409.48	5.812
409.68	6.700
409.88	4.606
410.09	5.701
410.29	5.849
410.50	7.279
410.70	5.030
410.90	6.465
411.11	5.476
411.31	5.354
411.51	6.688
411.72	6.582
411.92	5.176
412.12	6.046
412.33	5.767
412.53	5.672
412.74	5.157
412.94	6.384
413.14	5.772
413.35	6.482
413.55	6.711
413.75	6.896
413.96	6.133
414.16	5.786
414.36	6.557
414.57	5.572
414.77	5.512
414.97	6.513
415.18	5.419
415.38	6.110
415.58	6.196
415.79	5.581
415.99	5.157
416.19	6.087
416.40	6.109
416.60	5.794
416.80	5.529
417.01	5.361
417.21	5.034
417.41	6.055
417.62	6.093
417.82	6.030
418.02	5.113
418.23	5.733
418.43	5.470
418.63	6.153
418.84	5.875
419.04	5.962
419.24	6.159
419.45	6.274
419.65	6.404
419.85	6.252
420.06	6.051
420.26	6.450
420.46	6.173
420.67	6.838
420.87	6.314
421.07	6.857
421.28	6.069
421.48	6.973
421.68	6.365
421.88	6.576
422.09	6.310
422.29	6.713
422.49	6.109
422.70	6.567
422.90	6.111
423.10	6.489
423.31	6.546
423.51	7.027
423.71	6.038
423.91	6.595
424.12	6.289
424.32	6.561
424.52	6.471
424.73	6.108
424.93	6.260
425.13	6.069
425.33	6.229
425.54	6.541
425.74	6.431
425.94	7.165
426.15	6.540
426.35	6.426
426.55	6.845
426.75	6.744
426.96	6.497
427.16	6.586
427.36	6.631
427.57	6.926
427.77	5.964
427.97	6.724
428.17	6.607
428.38	6.820
428.58	5.136
428.78	6.672
428.98	5.604
429.19	5.808
429.39	5.343
429.59	6.270
429.79	4.960
430.00	5.154
430.20	4.919
430.40	5.647
430.60	5.564
430.81	5.499
431.01	5.197
431.21	6.515
431.41	5.323
431.62	5.412
431.82	5.249
432.02	6.515
432.22	4.861
432.43	5.182
432.63	4.956
432.83	5.672
433.03	5.294
433.24	5.000
433.44	5.507
433.64	5.807
433.84	5.257
434.05	5.995
434.25	5.157
434.45	6.124
434.65	6.200
434.85	6.157
435.06	6.089
435.26	6.033
435.46	5.909
435.66	6.440
435.87	5.385
436.07	6.227
436.27	6.066
436.47	5.873
436.67	5.538
436.88	6.199
437.08	5.502
437.28	5.701
437.48	5.565
437.69	5.891
437.89	5.961
438.09	6.241
438.29	5.506
438.49	5.909
438.70	5.751
438.90	5.523
439.10	5.032
439.30	5.783
439.50	4.961
439.71	5.928
439.91	5.455
440.11	6.245
440.31	6.030
440.51	5.464
440.72	5.590
440.92	5.600
441.12	5.617
441.32	6.624
441.52	5.997
441.72	6.292
441.93	5.903
442.13	6.125
442.33	6.091
442.53	6.746
442.73	5.671
442.94	6.240
443.14	5.834
443.34	6.579
443.54	6.282
443.74	6.371
443.94	5.991
444.15	5.761
444.35	5.178
444.55	6.329
444.75	5.506
444.95	5.930
445.15	5.546
445.36	6.075
445.56	5.044
445.76	6.162
445.96	5.451
446.16	5.273
446.36	5.261
446.57	6.384
446.77	5.559
446.97	5.930
447.17	6.396
447.37	6.163
447.57	6.089
447.77	6.221
447.98	5.868
448.18	6.472
448.38	5.958
448.58	6.644
448.78	6.127
448.98	5.983
449.18	5.974
449.39	6.306
449.59	5.759
449.79	5.993
449.99	5.805
450.19	6.040
450.39	5.466
450.59	6.285
450.79	5.671
451.00	6.465
451.20	6.800
451.40	5.513
451.60	5.025
451.80	6.207
452.00	5.891
452.20	6.022
452.40	5.541
452.61	5.967
452.81	5.486
453.01	5.970
453.21	5.097
453.41	5.927
453.61	5.388
453.81	5.804
454.01	5.655
454.21	5.761
454.42	6.299
454.62	5.814
454.82	5.721
455.02	5.706
455.22	5.266
455.42	5.887
455.62	4.764
455.82	5.951
456.02	5.281
456.23	5.439
456.43	6.135
456.63	5.514
456.83	4.594
457.03	5.371
457.23	5.344
457.43	5.735
457.63	5.314
457.83	6.186
458.03	4.891
458.23	5.419
458.43	4.911
458.64	5.782
458.84	5.485
459.04	5.528
459.24	5.249
459.44	5.599
459.64	5.904
459.84	5.687
460.04	5.216
460.24	5.477
460.44	5.651
460.64	6.041
460.84	5.962
461.04	6.284
461.24	5.945
461.45	6.322
461.65	6.494
461.85	6.389
462.05	6.021
462.25	6.474
462.45	6.727
462.65	6.186
462.85	5.507
463.05	6.233
463.25	5.044
463.45	5.866
463.65	5.903
463.85	6.227
464.05	5.813
464.25	5.434
464.45	6.259
464.65	5.815
464.85	5.227
465.05	5.642
465.26	5.571
465.46	6.066
465.66	5.742
465.86	5.668
466.06	5.493
466.26	5.518
466.46	5.096
466.66	5.763
466.86	5.874
467.06	5.842
467.26	5.231
467.46	5.921
467.66	5.533
467.86	5.687
468.06	5.297
468.26	5.693
468.46	5.553
468.66	5.632
468.86	5.091
469.06	6.111
469.26	4.974
469.46	5.758
469.66	5.310
469.86	5.799
470.06	5.427
470.26	5.959
470.46	5.159
470.66	6.351
470.86	4.964
471.06	5.298
471.26	4.602
471.46	5.517
471.66	5.584
471.86	5.630
472.06	5.681
472.26	6.212
472.46	5.930
472.66	5.556
472.86	4.652
473.06	5.959
473.26	5.439
473.46	5.810
473.66	4.846
473.86	6.089
474.06	5.163
474.26	6.494
474.46	4.693
474.66	6.142
474.86	5.906
475.06	6.195
475.26	5.080
475.46	6.059
475.66	4.887
475.86	5.723
476.06	6.328
476.26	6.239
476.46	5.231
476.66	5.728
476.86	5.223
477.06	5.322
477.26	5.503
477.46	5.822
477.65	5.486
477.85	5.948
478.05	5.149
478.25	6.339
478.45	5.585
478.65	5.981
478.85	5.781
479.05	6.349
479.25	5.803
479.45	6.389
479.65	5.418
479.85	6.310
480.05	5.764
480.25	6.045
480.45	5.577
480.65	6.528
480.85	5.658
481.05	6.537
481.25	6.369
481.44	6.322
481.64	5.264
481.84	6.589
482.04	6.163
482.24	6.164
482.44	5.448
482.64	6.164
482.84	6.022
483.04	6.184
483.24	6.117
483.44	6.006
483.64	5.940
483.84	6.074
484.04	6.090
484.23	6.242
484.43	6.377
484.63	6.688
484.83	6.901
485.03	7.330
485.23	7.354
485.43	7.232
485.63	7.246
485.83	7.226
486.03	7.357
486.23	7.387
486.42	7.161
486.62	7.242
486.82	6.917
487.02	6.867
487.22	6.438
487.42	6.606
487.62	6.543
487.82	6.538
488.02	6.543
488.22	6.431
488.41	6.585
488.61	6.734
488.81	6.655
489.01	6.969
489.21	6.966
489.41	7.129
489.61	7.195
489.81	7.176
490.01	7.118
490.20	6.891
490.40	6.892
490.60	7.325
490.80	6.912
491.00	6.964
491.20	6.505
491.40	6.410
491.60	6.198
491.79	6.460
491.99	6.494
492.19	6.534
492.39	6.589
492.59	6.708
492.79	6.816
492.99	6.898
493.19	6.867
493.38	7.135
493.58	7.078
493.78	7.388
493.98	7.372
494.18	7.349
494.38	7.201
494.58	7.289
494.77	6.277
494.97	6.845
495.17	6.452
495.37	6.640
495.57	6.422
495.77	6.750
495.96	6.446
496.16	6.616
496.36	6.437
496.56	6.886
496.76	6.362
496.96	6.375
497.15	6.424
497.35	6.800
497.55	6.364
497.75	6.728
497.95	6.368
498.15	6.855
498.34	6.900
498.54	6.644
498.74	7.013
498.94	6.981
499.14	6.656
499.34	7.527
499.53	6.593
499.73	7.405
499.93	6.757
500.13	6.990
500.33	6.281
500.52	6.863
500.72	6.447
500.92	6.753
501.12	6.162
501.32	6.893
501.52	6.580
501.71	6.762
501.91	6.362
502.11	6.949
502.31	6.364
502.51	6.796
502.70	6.373
502.90	6.976
503.10	6.190
503.30	6.966
503.50	6.820
503.69	6.968
503.89	6.888
504.09	7.092
504.29	6.561
504.48	6.971
504.68	7.024
504.88	7.386
505.08	6.429
505.28	6.831
505.47	6.883
505.67	7.501
505.87	6.428
506.07	7.171
506.27	6.733
506.46	7.307
506.66	6.624
506.86	7.269
507.06	7.282
507.25	6.993
507.45	6.847
507.65	7.415
507.85	6.866
508.04	7.373
508.24	6.898
508.44	7.394
508.64	7.021
508.83	7.515
509.03	6.504
509.23	7.378
509.43	6.801
509.63	7.465
509.82	7.070
510.02	7.112
510.22	7.204
510.42	7.734
510.61	7.721
510.81	7.381
511.01	7.322
511.21	8.000
511.40	6.946
511.60	7.568
511.80	7.273
511.99	7.528
512.19	7.598
512.39	7.483
512.59	7.171
512.78	7.704
512.98	7.826
513.18	7.702
513.38	7.332
513.57	7.797
513.77	7.673
513.97	7.863
514.17	7.483
514.36	7.751
514.56	7.256
514.76	8.031
514.95	7.181
515.15	7.857
515.35	7.106
515.55	7.560
515.74	7.627
515.94	7.892
516.14	7.299
516.33	7.789
516.53	7.316
516.73	7.687
516.93	7.495
517.12	8.002
517.32	7.050
517.52	7.798
517.71	7.339
517.91	7.591
518.11	7.706
518.30	7.493
518.50	7.157
518.70	7.891
518.90	7.852
519.09	7.871
519.29	7.839
519.49	7.947
519.68	7.684
519.88	8.220
520.08	7.884
520.27	8.278
520.47	8.306
520.67	8.039
520.86	8.580
521.06	8.721
521.26	7.821
521.45	8.450
521.65	8.157
521.85	8.285
522.04	7.638
522.24	8.387
522.44	7.502
522.63	8.191
522.83	7.858
523.03	8.259
523.22	8.135
523.42	8.519
523.62	8.121
523.81	7.998
524.01	8.209
524.21	8.132
524.40	7.494
524.60	8.165
524.80	7.771
524.99	8.054
525.19	7.846
525.39	8.184
525.58	7.729
525.78	8.044
525.98	8.009
526.17	8.307
526.37	8.174
526.57	8.301
526.76	8.443
526.96	8.419
527.15	8.335
527.35	8.204
527.55	8.483
527.74	8.599
527.94	8.212
528.14	8.202
528.33	8.004
528.53	8.202
528.72	8.007
528.92	8.229
529.12	8.149
529.31	8.376
529.51	8.550
529.71	8.533
529.90	8.873
530.10	8.730
530.29	8.848
530.49	9.051
530.69	9.011
530.88	9.269
531.08	9.076
531.28	9.115
531.47	8.792
531.67	8.928
531.86	8.739
532.06	9.026
532.26	8.515
532.45	8.715
532.65	8.606
532.84	8.558
533.04	8.206
533.24	8.313
533.43	8.399
533.63	8.642
533.82	8.904
534.02	8.650
534.22	8.822
534.41	9.008
534.61	8.950
534.80	9.057
535.00	9.105
535.19	9.150
535.39	9.132
535.59	9.423
535.78	9.215
535.98	9.262
536.17	8.992
536.37	9.009
536.57	8.702
536.76	9.007
536.96	8.798
537.15	9.299
537.35	8.769
537.54	8.947
537.74	9.117
537.93	9.370
538.13	9.273
538.33	9.330
538.52	9.336
538.72	9.778
538.91	9.421
539.11	9.472
539.30	9.055
539.50	9.460
539.70	9.219
539.89	9.371
540.09	8.890
540.28	9.262
540.48	8.760
540.67	9.051
540.87	8.799
541.06	8.825
541.26	8.982
541.45	9.043
541.65	9.115
541.85	9.230
542.04	9.230
542.24	9.561
542.43	9.488
542.63	9.719
542.82	9.565
543.02	9.836
543.21	9.639
543.41	9.915
543.60	10.008
543.80	10.033
543.99	9.637
544.19	10.062
544.38	9.922
544.58	10.349
544.77	9.922
544.97	10.241
545.16	9.855
545.36	9.928
545.56	9.734
545.75	9.927
545.95	9.733
546.14	9.982
546.34	9.867
546.53	10.288
546.73	9.631
546.92	9.979
547.12	9.607
547.31	10.289
547.51	9.826
547.70	10.195
547.90	9.975
548.09	10.399
548.29	10.332
548.48	10.577
548.68	10.627
548.87	11.098
549.07	10.552
549.26	10.647
549.46	11.108
549.65	10.583
549.84	10.423
550.04	10.548
550.23	10.022
550.43	10.358
550.62	10.553
550.82	10.635
551.01	10.090
551.21	10.385
551.40	10.414
551.60	10.634
551.79	10.163
551.99	10.940
552.18	10.461
552.38	10.553
552.57	10.792
552.77	10.822
552.96	11.130
553.16	11.050
553.35	11.433
553.54	11.512
553.74	11.343
553.93	11.661
554.13	11.582
554.32	11.504
554.52	11.483
554.71	11.855
554.91	11.406
555.10	11.868
555.29	11.455
555.49	11.914
555.68	11.456
555.88	12.197
556.07	10.928
556.27	12.483
556.46	11.790
556.66	11.950
556.85	12.023
557.04	12.349
557.24	11.433
557.43	12.778
557.63	12.135
557.82	12.051
558.02	11.941
558.21	12.724
558.40	11.495
558.60	12.482
558.79	12.707
558.99	12.772
559.18	12.131
559.38	12.548
559.57	12.940
559.76	13.322
559.96	13.167
560.15	13.496
560.35	12.503
560.54	12.539
560.73	12.052
560.93	13.175
561.12	12.559
561.32	13.463
561.51	13.397
561.70	13.694
561.90	13.281
562.09	13.714
562.29	13.202
562.48	13.553
562.67	13.216
562.87	14.099
563.06	13.649
563.26	14.336
563.45	13.729
563.64	14.570
563.84	14.274
564.03	14.593
564.23	13.446
564.42	15.417
564.61	14.278
564.81	14.882
565.00	14.583
565.20	15.233
565.39	14.863
565.58	14.660
565.78	14.422
565.97	14.924
566.16	14.997
566.36	15.073
566.55	15.152
566.74	15.597
566.94	15.902
567.13	15.704
567.33	15.514
567.52	15.656
567.71	15.352
567.91	15.785
568.10	15.836
568.29	15.785
568.49	15.736
568.68	15.753
568.87	15.335
569.07	16.542
569.26	16.148
569.45	16.494
569.65	15.962
569.84	16.460
570.04	16.083
570.23	16.517
570.42	15.706
570.62	16.354
570.81	16.490
571.00	16.343
571.20	16.574
571.39	17.065
571.58	16.365
571.78	16.587
571.97	16.516
572.16	16.503
572.36	16.617
572.55	16.813
572.74	16.857
572.94	16.862
573.13	17.056
573.32	17.124
573.51	16.625
573.71	17.113
573.90	17.109
574.09	17.153
574.29	16.765
574.48	17.302
574.67	16.940
574.87	17.354
575.06	16.784
575.25	17.265
575.45	17.387
575.64	17.147
575.83	16.794
576.03	18.250
576.22	17.081
576.41	17.504
576.60	17.039
576.80	17.654
576.99	17.411
577.18	17.890
577.38	17.746
577.57	17.686
577.76	18.083
577.95	17.641
578.15	17.513
578.34	17.513
578.53	17.435
578.73	17.674
578.92	17.153
579.11	18.171
579.30	17.811
579.50	17.511
579.69	17.654
579.88	17.348
580.08	17.457
580.27	17.512
580.46	17.190
580.65	17.950
580.85	17.715
581.04	17.598
581.23	17.064
581.42	17.324
581.62	17.726
581.81	17.409
582.00	16.902
582.19	17.060
582.39	17.574
582.58	17.603
582.77	17.569
582.96	17.365
583.16	16.687
583.35	18.354
583.54	17.454
583.73	17.670
583.93	17.543
584.12	17.487
584.31	16.840
584.50	17.631
584.70	16.880
584.89	17.672
585.08	17.425
585.27	17.801
585.47	17.428
585.66	17.849
585.85	16.904
586.04	17.602
586.24	17.490
586.43	16.930
586.62	17.470
586.81	17.373
587.00	16.727
587.20	18.095
587.39	16.676
587.58	17.256
587.77	16.680
587.97	16.683
588.16	16.884
588.35	17.272
588.54	16.983
588.73	17.550
588.93	17.319
589.12	17.490
589.31	16.931
589.50	17.217
589.69	17.287
589.89	17.128
590.08	16.609
590.27	17.677
590.46	17.153
590.65	17.357
590.85	16.556
591.04	18.170
591.23	16.853
591.42	17.618
591.61	16.687
591.81	17.823
592.00	17.134
592.19	17.798
592.38	17.319
592.57	17.778
592.77	17.622
592.96	17.423
593.15	17.246
593.34	17.535
593.53	17.153
593.72	17.894
593.92	16.610
594.11	17.592
594.30	17.045
594.49	17.716
594.68	17.724
594.87	17.176
595.07	16.965
595.26	17.863
595.45	17.576
595.64	17.800
595.83	17.217
596.02	18.140
596.22	17.720
596.41	17.661
596.60	17.168
596.79	18.358
596.98	17.683
597.17	17.943
597.37	18.065
597.56	17.755
597.75	17.804
597.94	18.322
598.13	18.206
598.32	18.402
598.51	18.043
598.71	19.077
598.90	18.373
599.09	18.916
599.28	18.097
599.47	18.595
599.66	18.222
599.85	18.526
600.05	17.953
600.24	18.425
600.43	17.877
600.62	18.673
600.81	18.563
601.00	19.196
601.19	17.385
601.38	18.729
601.58	18.007
601.77	18.267
601.96	18.218
602.15	19.202
602.34	18.110
602.53	19.522
602.72	17.695
602.91	18.130
603.10	18.027
603.30	19.071
603.49	18.782
603.68	18.859
603.87	18.161
604.06	18.793
604.25	18.669
604.44	18.497
604.63	18.842
604.82	19.102
605.01	18.903
605.21	19.283
605.40	18.345
605.59	19.099
605.78	18.884
605.97	18.654
606.16	19.222
606.35	19.126
606.54	18.856
606.73	19.377
606.92	18.994
607.11	19.575
607.30	18.805
607.50	19.459
607.69	18.500
607.88	19.271
608.07	18.595
608.26	19.576
608.45	18.865
608.64	20.092
608.83	18.098
609.02	18.112
609.21	17.899
609.40	19.128
609.59	18.118
609.78	18.912
609.97	18.204
610.16	18.724
610.35	18.057
610.55	19.155
610.74	18.970
610.93	19.056
611.12	18.474
611.31	18.891
611.50	18.713
611.69	18.701
611.88	17.805
612.07	19.210
612.26	17.937
612.45	18.650
612.64	17.743
612.83	18.322
613.02	17.270
613.21	17.583
613.40	17.294
613.59	18.507
613.78	16.975
613.97	17.770
614.16	16.982
614.35	18.055
614.54	16.716
614.73	16.901
614.92	16.365
615.11	17.651
615.30	17.461
615.49	16.765
615.68	16.682
615.87	16.803
616.07	16.628
616.26	16.789
616.45	17.049
616.64	16.607
616.83	15.635
617.02	17.431
617.21	14.759
617.40	16.502
617.59	16.362
617.78	16.087
617.97	15.319
618.16	16.826
618.35	14.902
618.54	16.738
618.73	16.014
618.92	16.509
619.11	15.806
619.30	16.824
619.49	15.265
619.68	16.644
619.86	15.633
620.05	16.789
620.24	16.033
620.43	16.240
620.62	14.799
620.81	16.038
621.00	15.776
621.19	16.374
621.38	16.135
621.57	16.496
621.76	14.843
621.95	16.764
622.14	15.419
622.33	16.431
622.52	14.959
622.71	16.052
622.90	14.608
623.09	16.322
623.28	14.745
623.47	16.589
623.66	15.578
623.85	14.849
624.04	14.071
624.23	15.677
624.42	14.192
624.61	15.364
624.80	14.055
624.99	15.682
625.18	13.891
625.36	15.843
625.55	15.486
625.74	15.408
625.93	14.512
626.12	15.421
626.31	15.871
626.50	15.664
626.69	15.049
626.88	16.470
627.07	15.694
627.26	15.958
627.45	15.598
627.64	15.397
627.83	15.244
628.02	15.889
628.20	15.240
628.39	15.439
628.58	14.931
628.77	16.014
628.96	14.944
629.15	16.180
629.34	15.197
629.53	15.222
629.72	14.950
629.91	16.271
630.10	14.984
630.29	15.726
630.47	14.799
630.66	15.242
630.85	14.838
631.04	15.524
631.23	15.083
631.42	15.069
631.61	14.718
631.80	15.334
631.99	14.156
632.18	14.717
632.36	14.648
632.55	15.942
632.74	14.256
632.93	14.787
633.12	14.236
633.31	14.931
633.50	13.507
633.69	14.904
633.88	14.450
634.06	15.172
634.25	14.447
634.44	14.613
634.63	14.910
634.82	16.152
635.01	14.077
635.20	14.645
635.39	13.740
635.57	15.190
635.76	14.738
635.95	14.892
636.14	14.058
636.33	14.978
636.52	14.700
636.71	14.748
636.89	14.264
637.08	14.889
637.27	13.239
637.46	13.795
637.65	13.969
637.84	14.070
638.03	13.038
638.21	15.114
638.40	14.510
638.59	13.718
638.78	13.258
638.97	14.647
639.16	14.048
639.34	13.848
639.53	12.502
639.72	15.912
639.91	13.220
640.10	12.663
640.29	15.063
640.47	14.627
640.66	12.690
640.85	15.034
641.04	12.841
641.23	13.978
641.42	13.079
641.60	13.922
641.79	13.144
641.98	13.719
642.17	12.605
642.36	14.447
642.54	12.633
642.73	13.689
642.92	12.877
643.11	13.608
643.30	13.058
643.49	13.438
643.67	11.444
643.86	13.528
644.05	12.277
644.24	13.692
644.43	13.698
644.61	13.541
644.80	12.759
644.99	13.044
645.18	13.572
645.37	14.263
645.55	11.648
645.74	13.790
645.93	13.193
646.12	14.260
646.31	13.913
646.49	12.704
646.68	12.621
646.87	13.164
647.06	12.348
647.24	13.546
647.43	11.533
647.62	14.077
647.81	11.872
648.00	14.030
648.18	11.376
648.37	13.063
648.56	13.013
648.75	12.314
648.93	12.118
649.12	13.662
649.31	12.589
649.50	12.915
649.68	12.456
649.87	12.167
650.06	11.059
650.25	13.263
650.43	11.820
650.62	13.098
650.81	12.532
651.00	13.329
651.18	11.870
651.37	13.253
651.56	12.056
651.75	14.176
651.93	11.220
652.12	13.066
652.31	11.331
652.50	13.159
652.68	12.832
652.87	14.908
653.06	13.599
653.25	12.977
653.43	12.165
653.62	13.236
653.81	12.578
654.00	13.147
654.18	12.363
654.37	12.897
654.56	11.600
654.74	11.877
654.93	11.503
655.12	12.723
655.31	12.356
655.49	12.769
655.68	10.825
655.87	11.610
656.05	10.212
656.24	12.046
656.43	10.416
656.62	12.002
656.80	11.232
656.99	10.991
657.18	9.989
657.36	11.407
657.55	11.841
657.74	11.414
657.93	11.657
658.11	13.173
658.30	11.700
658.49	10.857
658.67	11.970
658.86	10.745
659.05	10.120
659.23	11.811
659.42	10.430
659.61	11.044
659.79	9.978
659.98	10.649
660.17	11.086
660.35	10.670
660.54	11.193
660.73	11.997
660.91	11.345
661.10	11.047
661.29	9.161
661.47	10.653
661.66	10.820
661.85	10.219
662.03	10.086
662.22	8.452
662.41	8.755
662.59	9.950
662.78	9.369
662.97	10.015
663.15	8.394
663.34	9.220
663.53	7.436
663.71	9.444
663.90	8.182
664.09	9.511
664.27	8.938
664.46	9.544
664.65	7.826
664.83	7.853
665.02	9.022
665.21	7.575
665.39	7.255
665.58	8.601
665.77	7.833
665.95	9.420
666.14	8.110
666.32	9.017
666.51	7.311
666.70	7.846
666.88	7.431
667.07	7.661
667.26	6.683
667.44	8.572
667.63	7.119
667.81	8.010
668.00	7.591
668.19	10.489
668.37	9.055
668.56	9.168
668.75	7.325
668.93	9.456
669.12	7.307
669.30	9.041
669.49	7.084
669.68	9.383
669.86	9.363
670.05	7.789
670.23	7.446
670.42	7.229
670.61	9.254
670.79	10.196
670.98	8.947
671.16	9.306
671.35	8.252
671.54	8.407
671.72	8.521
671.91	8.222
672.09	8.380
672.28	9.984
672.46	9.687
672.65	9.727
672.84	9.779
673.02	10.072
673.21	7.973
673.39	8.428
673.58	10.203
673.77	9.729
673.95	8.606
674.14	10.461
674.32	8.367
674.51	10.615
674.69	9.064
674.88	10.883
675.07	8.718
675.25	11.942
675.44	9.920
675.62	9.574
675.81	8.458
675.99	14.260
676.18	10.979
676.36	10.045
676.55	10.391
676.74	11.846
676.92	11.818
677.11	11.003
677.29	9.828
677.48	11.846
677.66	11.508
677.85	10.827
678.03	11.466
678.22	11.945
678.40	10.944
678.59	10.955
678.78	10.456
678.96	10.078
679.15	11.120
679.33	12.482
679.52	12.922
679.70	12.798
679.89	10.807
680.07	11.970
680.26	9.040
680.44	10.836
680.63	11.682
680.81	11.801
681.00	9.899
681.18	11.705
681.37	12.315
681.55	12.631
681.74	13.052
681.92	12.484
682.11	11.996
682.29	12.124
682.48	12.586
682.66	12.954
682.85	11.881
683.03	12.558
683.22	14.010
683.40	14.764
683.59	12.990
683.77	14.669
683.96	12.480
684.14	14.855
684.33	12.815
684.51	16.298
684.70	13.829
684.88	16.529
685.07	14.638
685.25	15.415
685.44	13.659
685.62	14.135
685.81	13.382
685.99	17.115
686.18	13.415
686.36	16.407
686.55	14.123
686.73	14.719
686.92	15.891
687.10	15.984
687.29	16.742
687.47	17.997
687.65	17.090
687.84	16.290
688.02	19.016
688.21	19.058
688.39	15.622
688.58	19.779
688.76	16.564
688.95	17.805
689.13	16.379
689.32	20.352
689.50	19.211
689.68	18.443
689.87	19.232
690.05	19.618
690.24	20.933
690.42	20.670
690.61	20.385
690.79	22.523
690.98	19.325
691.16	21.346
691.34	19.910
691.53	22.211
691.71	20.646
691.90	22.814
692.08	19.427
692.27	22.089
692.45	23.579
692.63	22.770
692.82	24.635
693.00	23.777
693.19	22.152
693.37	26.301
693.56	22.501
693.74	25.668
693.92	23.995
694.11	26.645
694.29	25.535
694.48	27.034
694.66	25.940
694.84	27.780
695.03	24.942
695.21	28.293
695.40	28.836
695.58	30.768
695.76	26.143
695.95	29.426
696.13	27.125
696.32	30.111
696.50	32.273
696.68	29.803
696.87	28.045
697.05	29.654
697.24	29.725
697.42	31.149
697.60	29.173
697.79	30.187
697.97	31.153
698.16	33.485
698.34	30.058
698.52	32.492
698.71	29.963
698.89	32.162
699.07	31.969
699.26	32.819
699.44	32.521
699.63	33.330
699.81	31.811
699.99	33.532
700.18	33.912
700.36	34.692
700.54	34.025
700.73	34.345
700.91	33.453
701.09	34.143
701.28	34.848
701.46	35.944
701.64	32.879
701.83	35.389
702.01	33.286
702.20	36.979
702.38	36.375
702.56	35.592
702.75	33.859
702.93	35.717
703.11	35.593
703.30	35.186
703.48	35.144
703.66	35.635
703.85	34.996
704.03	39.430
704.21	34.914
704.40	37.759
704.58	34.240
704.76	39.739
704.95	35.853
705.13	39.432
705.31	35.641
705.50	37.896
705.68	35.200
705.86	37.019
706.04	37.750
706.23	39.695
706.41	37.448
706.59	39.385
706.78	36.413
706.96	40.607
707.14	38.619
707.33	39.459
707.51	38.257
707.69	39.234
707.88	36.834
708.06	41.707
708.24	38.292
708.42	41.297
708.61	37.100
708.79	41.966
708.97	39.956
709.16	40.859
709.34	41.809
709.52	40.412
709.71	38.810
709.89	38.878
710.07	38.126
710.25	40.790
710.44	37.429
710.62	39.148
710.80	40.727
710.98	42.012
711.17	40.767
711.35	41.365
711.53	39.137
711.72	40.971
711.90	40.740
712.08	41.864
712.26	36.947
712.45	41.550
712.63	40.927
712.81	41.978
712.99	39.540
713.18	41.800
713.36	41.179
713.54	41.345
713.72	39.627
713.91	40.738
714.09	37.888
714.27	40.672
714.45	40.651
714.64	42.804
714.82	40.375
715.00	41.748
715.18	39.225
715.37	42.986
715.55	41.096
715.73	41.661
715.91	41.532
716.10	42.098
716.28	37.900
716.46	42.701
716.64	39.678
716.83	40.957
717.01	41.554
717.19	42.469
717.37	39.777
717.55	43.193
717.74	39.741
717.92	42.988
718.10	38.623
718.28	41.633
718.47	38.474
718.65	43.126
718.83	43.567
719.01	42.671
719.19	40.205
719.38	42.005
719.56	39.946
719.74	41.212
719.92	37.563
720.10	39.336
720.29	40.200
720.47	44.369
720.65	40.961
720.83	43.591
721.01	38.244
721.20	39.869
721.38	39.548
721.56	42.564
721.74	40.134
721.92	41.950
722.11	38.618
722.29	41.510
722.47	40.698
722.65	40.819
722.83	42.062
723.01	40.331
723.20	42.259
723.38	45.310
723.56	39.884
723.74	43.300
723.92	39.914
724.10	42.734
724.29	38.701
724.47	44.055
724.65	39.340
724.83	42.507
725.01	40.297
725.19	45.346
725.38	40.965
725.56	41.596
725.74	40.128
725.92	44.600
726.10	41.753
726.28	44.602
726.46	43.472
726.65	43.165
726.83	39.513
727.01	43.427
727.19	41.178
727.37	42.708
727.55	42.591
727.73	41.251
727.92	43.104
728.10	42.253
728.28	39.531
728.46	44.263
728.64	41.298
728.82	46.036
729.00	42.400
729.19	45.793
729.37	43.101
729.55	46.520
729.73	38.367
729.91	44.394
730.09	43.291
730.27	44.301
730.45	41.964
730.63	42.142
730.82	40.381
731.00	44.354
731.18	40.485
731.36	44.253
731.54	41.036
731.72	44.603
731.90	41.591
732.08	44.871
732.26	40.977
732.45	46.184
732.63	43.062
732.81	43.035
732.99	43.138
733.17	45.177
733.35	41.571
733.53	47.017
733.71	41.510
733.89	43.138
734.07	41.932
734.25	48.446
734.44	41.634
734.62	45.871
734.80	39.597
734.98	45.669
735.16	44.045
735.34	44.256
735.52	45.402
735.70	44.403
735.88	40.112
736.06	44.008
736.24	45.084
736.42	47.888
736.60	42.972
736.78	46.051
736.97	40.024
737.15	48.688
737.33	40.112
737.51	46.006
737.69	42.785
737.87	46.316
738.05	43.514
738.23	44.755
738.41	44.086
738.59	45.009
738.77	39.927
738.95	44.444
739.13	45.007
739.31	44.830
739.49	43.175
739.67	46.859
739.85	43.952
740.03	49.373
740.21	45.356
740.39	48.237
740.57	43.678
740.75	45.812
740.93	46.725
741.11	45.852
741.30	42.214
741.48	45.400
741.66	45.281
741.84	46.409
742.02	42.191
742.20	47.694
742.38	40.311
742.56	49.336
742.74	41.135
742.92	42.796
743.10	41.586
743.28	45.824
743.46	42.430
743.64	44.398
743.82	38.834
744.00	47.383
744.18	42.167
744.36	44.594
744.54	43.103
744.72	47.748
744.90	46.126
745.08	47.007
745.26	44.894
745.44	46.813
745.62	41.007
745.80	45.708
745.98	43.412
746.16	47.449
746.34	43.686
746.52	47.749
746.70	41.082
746.87	42.028
747.05	41.261
747.23	46.507
747.41	42.664
747.59	45.392
747.77	43.646
747.95	43.857
748.13	45.268
748.31	44.954
748.49	44.441
748.67	43.560
748.85	41.912
749.03	45.930
749.21	41.654
749.39	49.969
749.57	40.242
749.75	43.159
749.93	44.887
750.11	44.455
750.29	42.893
750.47	44.364
750.65	42.705
750.83	45.605
751.01	42.805
751.18	46.007
751.36	42.181
751.54	43.622
751.72	45.455
751.90	43.735
752.08	39.016
752.26	42.199
752.44	47.003
752.62	46.073
752.80	43.821
752.98	46.011
753.16	42.396
753.34	43.531
753.52	43.211
753.69	47.048
753.87	43.204
754.05	44.628
754.23	42.234
754.41	44.579
754.59	44.335
754.77	44.483
754.95	45.457
755.13	44.544
755.31	43.825
755.49	41.261
755.66	43.530
755.84	43.851
756.02	38.860
756.20	45.631
756.38	40.853
756.56	44.506
756.74	42.911
756.92	43.444
757.10	39.311
757.28	46.130
757.45	49.822
757.63	48.555
757.81	39.080
757.99	46.977
758.17	40.442
758.35	47.604
758.53	45.962
758.71	45.722
758.88	42.247
759.06	45.879
759.24	38.018
759.42	44.343
759.60	41.017
759.78	42.984
759.96	37.754
760.13	41.659
760.31	36.568
760.49	42.292
760.67	33.244
760.85	39.642
761.03	36.600
761.21	38.161
761.38	34.320
761.56	39.083
761.74	35.219
761.92	39.922
762.10	34.010
762.28	42.612
762.46	35.685
762.63	35.080
762.81	37.330
762.99	37.937
763.17	35.852
763.35	36.542
763.53	36.539
763.70	41.451
763.88	41.377
764.06	40.348
764.24	40.779
764.42	39.928
764.60	40.309
764.77	40.620
764.95	40.799
765.13	41.135
765.31	40.535
765.49	43.679
765.66	39.550
765.84	41.017
766.02	41.656
766.20	41.283
766.38	37.488
766.56	41.059
766.73	39.572
766.91	40.751
767.09	42.512
767.27	42.873
767.45	36.259
767.62	40.503
767.80	38.457
767.98	43.339
768.16	37.306
768.33	42.757
768.51	36.835
768.69	42.521
768.87	39.803
769.05	43.438
769.22	37.894
769.40	45.557
769.58	38.132
769.76	45.326
769.94	39.872
770.11	41.974
770.29	39.542
770.47	44.319
770.65	40.303
770.82	44.716
771.00	39.240
771.18	43.409
771.36	38.068
771.53	40.995
771.71	40.696
771.89	44.436
772.07	44.279
772.25	43.464
772.42	39.193
772.60	41.827
772.78	40.385
772.96	43.468
773.13	42.208
773.31	42.266
773.49	39.281
773.67	41.049
773.84	39.948
774.02	38.472
774.20	40.112
774.37	42.538
774.55	42.194
774.73	44.460
774.91	39.267
775.08	42.295
775.26	39.028
775.44	44.651
775.62	39.676
775.79	40.787
775.97	37.961
776.15	42.258
776.32	36.034
776.50	44.404
776.68	42.048
776.86	46.605
777.03	38.521
777.21	41.644
777.39	36.272
777.56	44.353
777.74	42.081
777.92	43.372
778.10	36.565
778.27	41.872
778.45	42.385
778.63	42.986
778.80	41.620
778.98	44.854
779.16	45.798
779.34	42.561
779.51	39.385
779.69	41.479
779.87	39.773
780.04	39.793
780.22	38.237
780.40	45.625
780.57	43.737
780.75	39.625
780.93	43.701
781.10	42.718
781.28	46.577
781.46	40.167
781.63	44.439
781.81	45.274
781.99	36.554
782.16	42.836
782.34	31.487
782.52	41.026
782.69	40.063
782.87	38.073
783.05	36.693
783.22	42.273
783.40	35.802
783.58	43.265
783.75	41.082
783.93	43.113
784.11	37.574
784.28	43.713
784.46	33.967
784.64	39.783
784.81	41.808
784.99	46.391
785.17	37.515
785.34	38.133
785.52	36.989
785.69	43.637
785.87	34.823
786.05	39.760
786.22	38.628
786.40	48.871
786.58	41.695
786.75	43.679
786.93	36.601
787.11	38.466
787.28	37.619
787.46	42.873
787.63	35.486
787.81	42.583
787.99	39.457
788.16	38.486
788.34	38.509
788.51	37.302
788.69	35.776
788.87	35.133
789.04	38.832
789.22	38.638
789.39	37.926
789.57	38.576
789.75	39.039
789.92	41.727
790.10	38.649
790.27	43.083
790.45	37.686
790.63	37.593
790.80	37.700
790.98	35.854
791.15	36.580
791.33	40.671
791.51	36.588
791.68	41.210
791.86	37.561
792.03	40.384
792.21	36.369
792.39	42.319
792.56	37.652
792.74	42.156
792.91	37.357
793.09	39.030
793.26	39.727
793.44	43.826
793.62	35.459
793.79	42.303
793.97	41.227
794.14	37.382
794.32	36.598
794.49	42.340
794.67	29.161
794.84	37.551
795.02	38.411
795.20	38.106
795.37	35.723
795.55	40.247
795.72	39.964
795.90	35.619
796.07	38.995
796.25	39.039
796.42	36.384
796.60	36.300
796.77	37.791
796.95	36.903
797.13	27.584
797.30	39.147
797.48	37.428
797.65	41.807
797.83	38.647
798.00	41.649
798.18	35.116
798.35	39.222
798.53	39.758
798.70	39.863
798.88	37.992
799.05	39.641
799.23	32.967
799.40	38.084
799.58	38.828
799.75	35.597
799.93	34.031
800.10	39.445
800.28	33.956
800.45	40.284
800.63	37.710
800.80	40.867
800.98	38.780
801.15	39.963
801.33	37.039
801.50	34.011
801.68	35.112
801.85	38.731
802.03	39.262
802.20	36.535
802.38	38.193
802.55	35.108
802.73	39.780
802.90	37.359
803.08	36.884
803.25	39.161
803.43	34.948
803.60	43.799
803.78	42.659
803.95	40.302
804.13	39.645
804.30	43.024
804.48	35.152
804.65	38.374
804.83	35.535
805.00	42.112
805.17	40.600
805.35	33.797
805.52	29.874
805.70	40.134
805.87	44.137
806.05	48.700
806.22	37.805
806.40	34.014
806.57	39.028
806.75	43.109
806.92	38.793
807.09	39.858
807.27	36.940
807.44	40.214
807.62	40.252
807.79	38.133
807.97	33.596
808.14	40.492
808.31	35.455
808.49	40.958
808.66	36.180
808.84	35.920
809.01	39.366
809.19	37.068
809.36	45.146
809.53	40.057
809.71	36.426
809.88	45.549
810.06	45.907
810.23	37.101
810.41	41.515
810.58	44.798
810.75	37.090
810.93	34.598
811.10	39.130
811.28	39.105
811.45	34.989
811.62	39.815
811.80	31.579
811.97	38.168
812.15	44.817
812.32	39.690
812.49	40.203
812.67	40.780
812.84	41.460
813.02	38.979
813.19	40.429
813.36	38.480
813.54	32.625
813.71	47.040
813.89	37.530
814.06	40.087
814.23	40.192
814.41	38.599
814.58	44.003
814.75	38.560
814.93	44.572
815.10	36.553
815.28	35.911
815.45	37.582
815.62	42.342
815.80	40.586
815.97	39.779
816.14	36.988
816.32	42.088
816.49	39.952
816.66	39.929
816.84	36.942
817.01	45.800
817.18	41.111
817.36	38.468
817.53	43.855
817.71	34.699
817.88	43.043
818.05	38.102
818.23	37.500
818.40	35.093
818.57	41.199
818.75	38.468
818.92	32.897
819.09	33.409
819.27	41.838
819.44	41.561
819.61	29.835
819.79	30.082
819.96	36.758
820.13	33.616
820.31	31.106
820.48	36.296
820.65	33.535
820.82	31.856
821.00	37.180
821.17	28.929
821.34	39.645
821.52	34.899
821.69	37.368
821.86	31.357
822.04	33.670
822.21	37.539
822.38	41.485
822.56	36.931
822.73	42.702
822.90	41.240
823.07	42.430
823.25	40.669
823.42	41.203
823.59	39.490
823.77	41.236
823.94	40.921
824.11	41.947
824.29	39.899
824.46	41.949
824.63	41.787
824.80	41.414
824.98	40.658
825.15	42.139
825.32	37.428
825.49	40.770
825.67	38.778
825.84	42.513
826.01	38.236
826.19	40.829
826.36	36.607
826.53	43.527
826.70	33.867
826.88	41.731
827.05	33.247
827.22	38.039
827.39	39.188
827.57	36.925
827.74	35.680
827.91	40.970
828.08	36.949
828.26	38.215
828.43	35.229
828.60	40.618
828.77	37.567
828.95	38.951
829.12	33.190
829.29	34.849
829.46	35.534
829.64	35.983
829.81	34.711
829.98	38.414
830.15	34.180
830.32	33.072
830.50	35.127
830.67	38.703
830.84	33.440
831.01	34.324
831.19	34.684
831.36	35.502
831.53	31.078
831.70	43.177
831.87	37.102
832.05	37.245
832.22	41.810
832.39	32.054
832.56	33.558
832.74	31.512
832.91	39.942
833.08	45.558
833.25	28.129
833.42	38.258
833.60	32.332
833.77	30.381
833.94	33.419
834.11	30.157
834.28	29.745
834.45	35.251
834.63	30.336
834.80	35.687
834.97	33.358
835.14	33.143
835.31	34.751
835.49	29.959
835.66	33.160
835.83	32.423
836.00	30.794
836.17	30.460
836.34	32.229
836.52	34.295
836.69	36.764
836.86	35.097
837.03	32.356
837.20	33.819
837.37	34.872
837.55	31.876
837.72	35.951
837.89	34.924
838.06	36.356
838.23	44.165
838.40	40.952
838.58	38.335
838.75	41.204
838.92	44.282
839.09	49.602
839.26	41.651
839.43	43.519
839.60	40.650
839.78	52.862
839.95	55.271
840.12	44.765
840.29	42.957
840.46	44.797
840.63	51.622
840.80	46.634
840.98	51.765
841.15	38.401
841.32	44.455
841.49	32.038
841.66	47.446
841.83	37.262
842.00	43.772
842.17	51.480
842.34	40.848
842.52	48.679
842.69	41.640
842.86	46.758
843.03	50.057
843.20	46.806
843.37	42.727
843.54	59.893
843.71	45.623
843.88	55.892
844.06	63.810
844.23	48.077
844.40	53.372
844.57	63.277
844.74	56.430
844.91	61.372
845.08	62.540
845.25	68.834
845.42	64.448
845.59	71.786
845.76	64.738
845.94	74.959
846.11	77.088
846.28	61.664
846.45	75.856
846.62	77.474
846.79	65.397
846.96	53.831
847.13	81.338
847.30	76.991
847.47	54.039
847.64	67.297
847.81	58.868
847.98	79.216
848.15	62.591
848.32	79.158
848.50	69.565
848.67	67.636
848.84	72.451
849.01	69.731
849.18	73.102
849.35	88.235
849.52	79.055
849.69	76.744
849.86	79.487
850.03	71.565
850.20	77.218
850.37	60.612
850.54	91.774
850.71	87.702
850.88	67.203
851.05	77.922
851.22	69.421
851.39	73.348
851.56	84.961
851.73	80.460
851.90	88.889
852.07	55.032
852.24	81.490
852.41	83.871
852.58	88.860
852.75	64.482
852.92	86.308
853.09	91.150
853.26	69.783
853.43	71.533
853.60	68.836
853.77	85.256
853.94	73.856
854.11	93.305
854.28	73.054
854.45	72.422
854.62	79.425
854.79	95.724
854.96	83.019
855.13	80.819
855.30	78.519
855.47	98.387
855.64	80.808
855.81	78.913
855.98	74.497
856.15	72.851
856.32	69.610
856.49	93.867
856.66	89.095
856.83	73.077
857.00	96.809
857.17	84.296
857.34	68.360
857.51	68.822
857.68	93.782
857.85	77.682
858.02	85.683
858.19	87.318
858.36	59.361
858.53	83.688
858.70	77.703
858.87	76.989
859.04	82.353
859.21	88.366
859.38	84.067
859.55	101.900
859.72	109.642
859.89	80.418
860.05	94.409
860.22	89.890
860.39	72.878
860.56	76.902
860.73	91.781
860.90	75.906
861.07	105.060
861.24	51.852
861.41	72.996
861.58	67.261
861.75	106.283
861.92	77.354
862.09	69.643
862.26	105.143
862.43	95.370
862.59	83.562
862.76	92.268
862.93	93.191
863.10	95.538
863.27	81.522
863.44	114.940
863.61	93.304
863.78	76.139
863.95	103.459
864.12	77.731
864.29	86.364
864.45	92.786
864.62	81.643
864.79	74.074
864.96	82.039
865.13	85.214
865.30	70.091
865.47	62.619
865.64	85.366
865.81	86.076
865.97	74.675
866.14	74.636
866.31	78.701
866.48	74.747
866.65	59.519
866.82	84.270
866.99	109.348
867.16	80.147
867.33	93.525
867.49	95.305
867.66	85.049
867.83	96.091
868.00	74.740
868.17	64.545
868.34	92.523
868.51	80.645
868.67	98.619
868.84	64.904
869.01	77.378
869.18	91.005
869.35	90.407
869.52	98.138
869.69	99.505
869.85	73.543
870.02	80.590
870.19	82.188
870.36	86.967
870.53	82.658
870.70	98.575
870.86	87.664
871.03	79.294
871.20	102.584
871.37	70.495
871.54	99.427
871.71	78.820
871.87	115.873
872.04	77.778
872.21	88.288
872.38	84.080
872.55	102.850
872.72	82.540
872.88	78.415
873.05	69.401
873.22	73.236
873.39	81.311
873.56	83.418
873.72	85.588
873.89	70.588
874.06	72.779
874.23	92.449
874.40	83.014
874.56	81.031
874.73	88.148
874.90	66.133
875.07	83.133
875.24	74.224
875.40	89.147
875.57	85.393
875.74	83.500
875.91	69.488
876.08	75.744
876.24	93.994
876.41	64.854
876.58	81.682
876.75	86.076
876.92	79.957
877.08	70.142
877.25	84.842
877.42	80.550
877.59	66.046
877.75	69.907
877.92	77.160
878.09	88.132
878.26	83.745
878.42	100.341
878.59	89.294
878.76	74.318
878.93	83.898
879.09	91.593
879.26	73.571
879.43	91.484
879.60	60.470
879.76	65.109
879.93	71.664
880.10	57.810
880.27	71.460
880.43	59.899
880.60	66.149
880.77	36.528
880.94	57.053
881.10	45.663
881.27	38.619
881.44	37.941
881.61	36.804
881.77	39.804
881.94	31.772
882.11	30.178
882.28	26.861
882.44	30.707
882.61	28.472
882.78	36.330
882.94	36.255
883.11	32.963
883.28	35.902
883.45	33.826
883.61	31.830
883.78	32.161
883.95	38.870
884.11	34.019
884.28	31.252
>>>>>End Processed Spectral Data<<<<<
