SpectraSuite Data File
++++++++++++++++++++++++++++++++++++
Date: Tue Sep 24 03:20:41 EST 2019
User: sgrac
Dark Spectrum Present: Yes
Reference Spectrum Present: Yes
Number of Sampled Component Spectra: 1
Spectrometers: USB4E01596
Integration Time (usec): 100000 (USB4E01596)
Spectra Averaged: 3 (USB4E01596)
Boxcar Smoothing: 0 (USB4E01596)
Correct for Electrical Dark: No (USB4E01596)
Strobe/Lamp Enabled: Yes (USB4E01596)
Correct for Detector Non-linearity: No (USB4E01596)
Correct for Stray Light: No (USB4E01596)
Number of Pixels in Processed Spectrum: 3648
>>>>>Begin Processed Spectral Data<<<<<
178.44	1245.455
178.66	1245.455
178.87	1245.455
179.09	677.358
179.30	684.444
179.52	-1100.000
179.74	701.887
179.95	597.015
180.17	-18200.000
180.38	-12700.000
180.60	417.978
180.82	-3035.714
181.03	1037.838
181.25	-1565.217
181.46	551.389
181.68	3833.333
181.89	-1637.500
182.11	584.848
182.33	1100.000
182.54	663.158
182.76	-675.000
182.97	238.509
183.19	748.889
183.40	3477.778
183.62	479.268
183.84	485.333
184.05	839.130
184.27	509.877
184.48	-1783.333
184.70	433.333
184.91	606.579
185.13	513.158
185.34	456.989
185.56	1153.125
185.78	1241.667
185.99	2131.250
186.21	505.000
186.42	819.048
186.64	373.118
186.85	960.417
187.07	-3180.000
187.28	-1917.647
187.50	-34200.000
187.72	30000.000
187.93	-1683.333
188.15	886.047
188.36	494.595
188.58	548.649
188.79	-5757.143
189.01	-2576.923
189.22	1324.000
189.44	462.791
189.65	540.909
189.87	-3914.286
190.09	1076.471
190.30	1078.947
190.52	2157.143
190.73	5616.667
190.95	957.895
191.16	450.633
191.38	3018.182
191.59	3014.286
191.81	1205.882
192.02	848.936
192.24	569.388
192.45	2194.118
192.67	481.818
192.88	398.980
193.10	609.091
193.31	401.010
193.53	1089.474
193.74	-33300.000
193.96	574.648
194.18	367.925
194.39	445.652
194.61	438.889
194.82	322.881
195.04	406.542
195.25	0.000
195.47	-30600.000
195.68	384.000
195.90	423.529
196.11	478.313
196.33	811.628
196.54	415.596
196.76	1015.152
196.97	-2733.333
197.19	487.209
197.40	743.860
197.62	658.491
197.83	474.038
198.05	610.959
198.26	0.000
198.48	-508.889
198.69	1303.333
198.91	5300.000
199.12	-7150.000
199.34	462.222
199.55	-38300.000
199.77	2127.778
199.98	577.465
200.20	268.595
200.41	576.316
200.63	1058.824
200.84	-2715.385
201.06	377.215
201.27	1408.000
201.49	910.638
201.70	393.103
201.91	667.606
202.13	562.687
202.34	-1368.000
202.56	249.296
202.77	3475.000
202.99	5850.000
203.20	510.145
203.42	1067.568
203.63	3912.500
203.85	373.950
204.06	669.231
204.28	338.136
204.49	1087.879
204.71	-1040.625
204.92	305.072
205.14	1193.548
205.35	885.714
205.56	425.714
205.78	-844.000
205.99	971.795
206.21	782.456
206.42	536.364
206.64	1626.087
206.85	426.506
207.07	-617.742
207.28	1428.000
207.50	427.174
207.71	627.083
207.93	10000.000
208.14	955.263
208.35	-2558.333
208.57	-1003.448
208.78	290.210
209.00	895.000
209.21	364.356
209.43	-5650.000
209.64	251.136
209.86	492.982
210.07	859.524
210.28	1034.483
210.50	5966.667
210.71	1290.323
210.93	-2113.333
211.14	600.000
211.36	382.292
211.57	1474.074
211.78	4211.111
212.00	-2194.444
212.21	809.756
212.43	721.429
212.64	454.878
212.86	1413.043
213.07	545.588
213.29	2500.000
213.50	275.397
213.71	434.940
213.93	300.000
214.14	311.966
214.36	423.529
214.57	-3680.000
214.78	1020.513
215.00	408.264
215.21	810.000
215.43	1392.000
215.64	325.926
215.86	409.434
216.07	8725.000
216.28	550.746
216.50	461.765
216.71	1213.793
216.93	-795.349
217.14	362.626
217.35	664.286
217.57	331.624
217.78	616.129
218.00	386.869
218.21	436.620
218.42	1366.667
218.64	2726.667
218.85	714.286
219.07	352.101
219.28	630.769
219.49	380.734
219.71	508.571
219.92	1180.000
220.14	741.304
220.35	3272.727
220.56	746.341
220.78	1003.030
220.99	553.846
221.21	522.973
221.42	491.892
221.63	7325.000
221.85	1175.000
222.06	1112.500
222.28	500.000
222.49	511.828
222.70	324.000
222.92	642.105
223.13	1700.000
223.34	1037.500
223.56	281.890
223.77	254.861
223.99	422.222
224.20	217.123
224.41	526.667
224.63	338.776
224.84	242.143
225.05	285.600
225.27	649.020
225.48	402.020
225.69	390.625
225.91	421.687
226.12	231.633
226.34	200.000
226.55	168.936
226.76	198.421
226.98	223.750
227.19	170.588
227.40	161.472
227.62	150.000
227.83	114.641
228.04	111.446
228.26	105.706
228.47	95.484
228.69	72.857
228.90	57.431
229.11	58.122
229.33	44.909
229.54	45.107
229.75	37.906
229.97	40.644
230.18	41.146
230.39	35.312
230.61	35.692
230.82	36.510
231.03	35.691
231.25	45.305
231.46	52.854
231.67	48.728
231.89	49.387
232.10	48.873
232.31	61.520
232.53	63.057
232.74	71.496
232.95	72.240
233.17	53.671
233.38	58.961
233.59	69.778
233.81	73.459
234.02	76.854
234.23	61.498
234.45	71.292
234.66	59.455
234.87	66.357
235.09	61.137
235.30	49.273
235.51	58.491
235.73	57.122
235.94	51.724
236.15	58.413
236.36	55.842
236.58	53.214
236.79	52.050
237.00	53.294
237.22	48.571
237.43	50.144
237.64	62.333
237.86	52.632
238.07	62.986
238.28	51.111
238.50	47.487
238.71	58.947
238.92	54.558
239.13	55.050
239.35	57.059
239.56	56.054
239.77	56.753
239.99	45.241
240.20	51.028
240.41	47.030
240.63	34.470
240.84	46.996
241.05	33.836
241.26	34.044
241.48	37.185
241.69	26.959
241.90	27.984
242.12	26.010
242.33	19.387
242.54	19.193
242.75	17.277
242.97	19.886
243.18	16.518
243.39	15.117
243.61	18.806
243.82	16.828
244.03	15.052
244.24	15.227
244.46	17.915
244.67	18.198
244.88	19.234
245.09	18.364
245.31	18.535
245.52	21.220
245.73	21.472
245.95	31.125
246.16	23.382
246.37	18.597
246.58	18.169
246.80	16.209
247.01	13.994
247.22	11.502
247.43	11.660
247.65	12.351
247.86	9.674
248.07	10.991
248.28	7.842
248.50	7.757
248.71	9.806
248.92	7.878
249.13	8.392
249.35	9.253
249.56	11.878
249.77	11.120
249.98	9.340
250.20	16.535
250.41	12.213
250.62	15.546
250.83	14.797
251.05	20.414
251.26	22.046
251.47	20.260
251.68	21.590
251.90	18.470
252.11	17.598
252.32	20.700
252.53	20.768
252.75	17.655
252.96	16.851
253.17	17.511
253.38	16.233
253.59	16.347
253.81	15.511
254.02	15.423
254.23	18.317
254.44	19.308
254.66	17.872
254.87	16.377
255.08	26.260
255.29	25.096
255.50	22.178
255.72	23.846
255.93	20.426
256.14	27.613
256.35	22.909
256.57	25.497
256.78	26.931
256.99	20.532
257.20	28.217
257.41	28.689
257.63	25.221
257.84	20.980
258.05	23.636
258.26	15.048
258.47	20.581
258.69	15.345
258.90	16.098
259.11	14.076
259.32	13.956
259.53	12.015
259.75	10.086
259.96	7.933
260.17	8.324
260.38	7.467
260.59	7.032
260.81	6.616
261.02	6.239
261.23	6.691
261.44	8.042
261.65	6.357
261.87	6.274
262.08	6.350
262.29	8.207
262.50	9.341
262.71	10.094
262.92	10.927
263.14	10.075
263.35	11.486
263.56	18.384
263.77	14.947
263.98	13.930
264.20	17.077
264.41	16.768
264.62	14.902
264.83	15.207
265.04	16.075
265.25	13.085
265.47	19.186
265.68	18.218
265.89	17.175
266.10	11.283
266.31	17.495
266.52	14.949
266.74	14.280
266.95	15.029
267.16	13.523
267.37	12.871
267.58	12.427
267.79	11.094
268.01	9.903
268.22	9.957
268.43	11.590
268.64	12.000
268.85	11.121
269.06	7.887
269.27	13.632
269.49	12.012
269.70	11.025
269.91	11.906
270.12	11.561
270.33	13.541
270.54	10.426
270.75	11.734
270.97	11.918
271.18	10.867
271.39	10.792
271.60	11.205
271.81	9.681
272.02	10.086
272.23	8.063
272.45	9.899
272.66	8.671
272.87	8.440
273.08	8.629
273.29	8.772
273.50	8.581
273.71	10.956
273.92	6.339
274.14	8.147
274.35	9.590
274.56	8.531
274.77	7.966
274.98	9.713
275.19	10.684
275.40	7.290
275.61	9.514
275.83	11.773
276.04	11.746
276.25	13.500
276.46	10.646
276.67	13.572
276.88	10.689
277.09	11.721
277.30	10.159
277.51	12.787
277.73	9.533
277.94	11.617
278.15	9.026
278.36	12.322
278.57	11.859
278.78	11.414
278.99	11.124
279.20	11.879
279.41	13.870
279.62	10.009
279.84	9.614
280.05	9.626
280.26	10.234
280.47	10.415
280.68	11.377
280.89	8.637
281.10	12.788
281.31	11.021
281.52	9.955
281.73	11.021
281.94	10.224
282.16	11.229
282.37	10.143
282.58	10.867
282.79	9.941
283.00	8.035
283.21	7.028
283.42	7.671
283.63	8.019
283.84	9.640
284.05	8.485
284.26	9.324
284.47	6.943
284.68	9.290
284.89	7.455
285.11	8.957
285.32	8.622
285.53	9.617
285.74	7.310
285.95	7.013
286.16	7.089
286.37	5.940
286.58	6.955
286.79	6.503
287.00	7.644
287.21	6.781
287.42	7.010
287.63	6.735
287.84	6.101
288.05	7.039
288.26	7.802
288.48	7.362
288.69	7.047
288.90	6.118
289.11	7.077
289.32	6.942
289.53	7.520
289.74	7.498
289.95	8.327
290.16	7.635
290.37	7.376
290.58	8.161
290.79	7.874
291.00	6.900
291.21	7.540
291.42	7.169
291.63	7.072
291.84	6.786
292.05	7.885
292.26	6.128
292.47	7.685
292.68	7.247
292.89	7.646
293.10	7.421
293.31	8.506
293.52	6.999
293.73	5.995
293.94	8.865
294.15	9.150
294.36	8.072
294.57	9.324
294.79	9.179
295.00	6.705
295.21	8.022
295.42	8.592
295.63	8.685
295.84	7.027
296.05	5.838
296.26	6.533
296.47	5.881
296.68	5.172
296.89	7.379
297.10	7.194
297.31	7.274
297.52	6.276
297.73	5.391
297.94	5.251
298.15	5.530
298.36	5.076
298.57	5.586
298.78	6.234
298.99	5.476
299.20	5.817
299.41	5.703
299.62	5.529
299.83	5.182
300.04	5.922
300.25	7.494
300.46	7.400
300.67	7.532
300.88	6.390
301.09	5.327
301.30	8.682
301.50	5.650
301.71	7.833
301.92	8.514
302.13	6.637
302.34	6.232
302.55	7.399
302.76	6.406
302.97	6.184
303.18	7.905
303.39	6.953
303.60	7.100
303.81	9.691
304.02	7.255
304.23	6.924
304.44	7.360
304.65	8.152
304.86	6.071
305.07	7.243
305.28	7.321
305.49	7.209
305.70	7.838
305.91	7.637
306.12	7.257
306.33	7.320
306.54	6.407
306.75	7.460
306.96	9.117
307.17	6.832
307.38	7.421
307.58	6.148
307.79	8.139
308.00	8.081
308.21	9.259
308.42	7.502
308.63	6.078
308.84	7.550
309.05	8.441
309.26	6.432
309.47	5.688
309.68	6.612
309.89	8.407
310.10	7.308
310.31	6.325
310.52	6.509
310.73	7.322
310.94	5.627
311.14	6.766
311.35	5.650
311.56	7.186
311.77	5.906
311.98	5.234
312.19	4.364
312.40	5.638
312.61	5.625
312.82	7.187
313.03	5.237
313.24	6.588
313.45	6.745
313.66	6.827
313.86	7.468
314.07	6.062
314.28	7.614
314.49	7.972
314.70	7.148
314.91	7.984
315.12	7.420
315.33	6.956
315.54	6.411
315.75	6.521
315.96	8.605
316.16	7.602
316.37	7.972
316.58	7.129
316.79	7.509
317.00	6.565
317.21	9.109
317.42	8.404
317.63	8.796
317.84	8.791
318.05	9.207
318.25	8.100
318.46	7.188
318.67	7.395
318.88	7.997
319.09	8.069
319.30	7.658
319.51	8.126
319.72	6.431
319.93	7.564
320.13	7.462
320.34	8.785
320.55	6.996
320.76	7.700
320.97	7.768
321.18	8.930
321.39	8.933
321.60	7.954
321.80	7.001
322.01	7.781
322.22	8.885
322.43	7.199
322.64	7.189
322.85	9.005
323.06	8.306
323.27	7.479
323.47	8.718
323.68	6.557
323.89	7.580
324.10	8.073
324.31	7.100
324.52	7.061
324.73	7.024
324.93	5.498
325.14	6.380
325.35	6.744
325.56	6.430
325.77	8.105
325.98	7.922
326.19	6.769
326.39	5.585
326.60	7.857
326.81	5.203
327.02	6.353
327.23	5.860
327.44	8.036
327.64	5.715
327.85	6.766
328.06	7.793
328.27	7.541
328.48	6.012
328.69	7.048
328.90	7.680
329.10	6.733
329.31	8.069
329.52	7.768
329.73	7.039
329.94	7.582
330.15	7.166
330.35	7.521
330.56	8.531
330.77	7.234
330.98	6.958
331.19	7.803
331.39	7.798
331.60	7.156
331.81	4.866
332.02	7.817
332.23	9.177
332.44	7.059
332.64	7.786
332.85	8.283
333.06	7.587
333.27	7.370
333.48	6.915
333.68	6.216
333.89	6.630
334.10	5.517
334.31	7.181
334.52	8.114
334.72	5.743
334.93	7.154
335.14	7.181
335.35	7.900
335.56	7.502
335.76	7.191
335.97	8.146
336.18	5.438
336.39	7.696
336.60	7.075
336.80	6.366
337.01	7.150
337.22	7.046
337.43	7.894
337.64	7.078
337.84	7.167
338.05	6.276
338.26	9.368
338.47	6.774
338.68	6.491
338.88	7.997
339.09	5.900
339.30	6.410
339.51	6.802
339.71	7.014
339.92	6.471
340.13	7.034
340.34	5.592
340.55	5.724
340.75	6.390
340.96	5.992
341.17	7.668
341.38	6.660
341.58	7.643
341.79	7.061
342.00	5.787
342.21	6.346
342.41	6.386
342.62	6.174
342.83	7.784
343.04	6.407
343.24	6.081
343.45	6.544
343.66	5.623
343.87	7.067
344.07	5.633
344.28	5.649
344.49	6.951
344.70	7.103
344.90	6.580
345.11	5.922
345.32	5.539
345.53	5.440
345.73	6.288
345.94	6.180
346.15	6.397
346.36	4.986
346.56	6.235
346.77	5.062
346.98	6.808
347.19	5.479
347.39	4.754
347.60	4.880
347.81	6.204
348.02	7.418
348.22	4.519
348.43	6.328
348.64	6.169
348.84	4.941
349.05	6.065
349.26	6.359
349.47	5.167
349.67	5.808
349.88	7.403
350.09	6.539
350.30	8.139
350.50	4.942
350.71	6.270
350.92	5.460
351.12	6.034
351.33	5.585
351.54	6.228
351.74	5.150
351.95	6.214
352.16	6.156
352.37	7.171
352.57	5.979
352.78	5.865
352.99	6.627
353.19	5.799
353.40	6.315
353.61	6.013
353.82	5.988
354.02	6.336
354.23	6.078
354.44	6.419
354.64	6.016
354.85	6.059
355.06	4.646
355.26	5.425
355.47	4.356
355.68	7.204
355.88	4.816
356.09	6.237
356.30	4.429
356.51	5.331
356.71	5.211
356.92	4.692
357.13	5.727
357.33	6.213
357.54	4.495
357.75	4.429
357.95	4.839
358.16	4.497
358.37	5.921
358.57	3.911
358.78	4.799
358.99	4.615
359.19	4.145
359.40	5.249
359.61	5.058
359.81	5.003
360.02	5.278
360.23	5.171
360.43	4.608
360.64	4.732
360.85	4.515
361.05	4.177
361.26	4.825
361.47	4.193
361.67	4.059
361.88	3.837
362.09	3.740
362.29	3.364
362.50	3.527
362.70	3.563
362.91	4.307
363.12	2.974
363.32	2.959
363.53	3.940
363.74	3.791
363.94	3.148
364.15	3.816
364.36	3.982
364.56	3.797
364.77	4.743
364.98	5.399
365.18	4.858
365.39	5.579
365.59	4.276
365.80	4.073
366.01	5.326
366.21	4.494
366.42	4.845
366.63	4.752
366.83	3.735
367.04	3.710
367.24	4.661
367.45	3.627
367.66	3.299
367.86	4.565
368.07	3.663
368.28	4.279
368.48	3.963
368.69	4.451
368.89	5.100
369.10	3.824
369.31	4.528
369.51	4.952
369.72	4.634
369.92	4.313
370.13	4.647
370.34	4.225
370.54	3.751
370.75	3.556
370.95	4.703
371.16	4.137
371.37	3.516
371.57	4.148
371.78	4.276
371.98	4.179
372.19	3.664
372.40	3.757
372.60	4.344
372.81	4.143
373.01	4.018
373.22	3.571
373.43	4.336
373.63	3.851
373.84	4.524
374.04	3.225
374.25	4.128
374.46	4.174
374.66	4.583
374.87	4.854
375.07	4.132
375.28	4.124
375.48	4.522
375.69	3.787
375.90	3.822
376.10	3.829
376.31	3.583
376.51	4.124
376.72	3.996
376.92	3.268
377.13	3.510
377.34	3.658
377.54	4.227
377.75	3.749
377.95	3.491
378.16	4.132
378.36	3.787
378.57	3.137
378.77	3.136
378.98	3.157
379.19	3.893
379.39	3.222
379.60	4.380
379.80	3.044
380.01	4.084
380.21	3.345
380.42	3.305
380.62	3.564
380.83	3.880
381.04	3.125
381.24	3.899
381.45	3.391
381.65	3.629
381.86	3.350
382.06	4.278
382.27	3.651
382.47	3.801
382.68	4.210
382.88	3.735
383.09	3.907
383.29	3.793
383.50	4.434
383.71	4.095
383.91	3.801
384.12	2.955
384.32	3.912
384.53	3.782
384.73	2.899
384.94	2.675
385.14	3.354
385.35	2.760
385.55	3.204
385.76	3.983
385.96	2.869
386.17	3.594
386.37	3.380
386.58	3.845
386.78	4.072
386.99	3.404
387.19	3.083
387.40	3.231
387.60	3.371
387.81	3.279
388.01	3.355
388.22	3.636
388.42	3.694
388.63	4.397
388.83	3.644
389.04	3.158
389.24	2.763
389.45	3.667
389.65	3.147
389.86	3.722
390.06	3.310
390.27	3.723
390.47	3.564
390.68	2.695
390.88	4.056
391.09	3.771
391.29	3.508
391.50	3.457
391.70	3.081
391.91	2.988
392.11	3.460
392.32	3.419
392.52	3.245
392.73	3.321
392.93	3.075
393.14	3.179
393.34	2.579
393.55	3.530
393.75	2.804
393.95	2.747
394.16	3.824
394.36	3.487
394.57	3.383
394.77	3.341
394.98	2.980
395.18	3.502
395.39	3.122
395.59	3.418
395.80	3.093
396.00	3.289
396.21	3.185
396.41	3.185
396.61	3.080
396.82	3.468
397.02	3.763
397.23	4.592
397.43	3.551
397.64	2.516
397.84	3.422
398.05	2.888
398.25	4.093
398.45	3.213
398.66	4.072
398.86	3.304
399.07	3.906
399.27	3.365
399.48	3.945
399.68	3.083
399.89	3.630
400.09	4.254
400.29	3.551
400.50	3.495
400.70	3.559
400.91	3.725
401.11	3.066
401.32	4.341
401.52	2.165
401.72	2.991
401.93	4.101
402.13	3.499
402.34	3.318
402.54	3.692
402.75	4.310
402.95	2.864
403.15	3.705
403.36	2.913
403.56	4.239
403.77	2.972
403.97	3.456
404.17	3.629
404.38	3.392
404.58	2.817
404.79	3.435
404.99	3.199
405.19	2.700
405.40	3.509
405.60	3.385
405.81	2.877
406.01	2.837
406.21	3.211
406.42	3.245
406.62	2.815
406.83	3.772
407.03	3.212
407.23	2.923
407.44	2.678
407.64	3.426
407.85	3.677
408.05	3.346
408.25	3.495
408.46	3.497
408.66	3.634
408.87	3.118
409.07	3.563
409.27	3.300
409.48	3.775
409.68	3.932
409.88	2.897
410.09	3.050
410.29	3.451
410.50	4.114
410.70	2.776
410.90	3.293
411.11	3.192
411.31	2.703
411.51	4.059
411.72	3.642
411.92	3.098
412.12	2.952
412.33	3.411
412.53	2.718
412.74	2.399
412.94	3.438
413.14	3.771
413.35	3.264
413.55	3.744
413.75	3.551
413.96	3.797
414.16	3.261
414.36	3.254
414.57	3.375
414.77	3.448
414.97	3.357
415.18	3.386
415.38	3.012
415.58	3.183
415.79	2.964
415.99	2.850
416.19	3.065
416.40	2.989
416.60	3.379
416.80	2.201
417.01	2.140
417.21	2.559
417.41	2.578
417.62	2.659
417.82	2.688
418.02	2.097
418.23	2.672
418.43	2.512
418.63	2.711
418.84	2.446
419.04	2.089
419.24	2.662
419.45	2.765
419.65	2.462
419.85	2.207
420.06	2.332
420.26	2.186
420.46	2.146
420.67	2.667
420.87	2.475
421.07	2.542
421.28	2.383
421.48	2.524
421.68	2.312
421.88	2.201
422.09	2.426
422.29	2.006
422.49	1.864
422.70	2.253
422.90	2.200
423.10	2.194
423.31	2.253
423.51	2.353
423.71	1.957
423.91	2.374
424.12	2.157
424.32	2.443
424.52	2.432
424.73	2.052
424.93	2.468
425.13	2.134
425.33	1.958
425.54	2.411
425.74	2.386
425.94	2.671
426.15	2.001
426.35	1.775
426.55	2.831
426.75	2.061
426.96	2.273
427.16	2.116
427.36	2.606
427.57	2.834
427.77	2.342
427.97	2.602
428.17	2.778
428.38	2.469
428.58	2.248
428.78	2.959
428.98	2.204
429.19	2.812
429.39	2.478
429.59	2.600
429.79	2.295
430.00	2.088
430.20	2.245
430.40	2.674
430.60	2.705
430.81	2.022
431.01	2.543
431.21	2.847
431.41	2.724
431.62	2.113
431.82	2.605
432.02	3.116
432.22	2.433
432.43	2.135
432.63	2.417
432.83	2.189
433.03	2.077
433.24	1.619
433.44	2.436
433.64	2.670
433.84	1.932
434.05	2.082
434.25	1.777
434.45	2.298
434.65	2.683
434.85	2.523
435.06	2.289
435.26	2.128
435.46	2.353
435.66	2.609
435.87	1.976
436.07	2.255
436.27	2.147
436.47	2.286
436.67	2.465
436.88	2.534
437.08	2.280
437.28	2.340
437.48	2.541
437.69	2.554
437.89	2.359
438.09	2.447
438.29	2.008
438.49	2.473
438.70	2.451
438.90	1.822
439.10	2.074
439.30	2.062
439.50	1.669
439.71	2.203
439.91	2.407
440.11	2.687
440.31	2.059
440.51	1.758
440.72	1.900
440.92	1.991
441.12	2.175
441.32	2.331
441.52	2.366
441.72	2.110
441.93	2.159
442.13	2.142
442.33	2.023
442.53	2.505
442.73	1.865
442.94	2.234
443.14	2.036
443.34	2.440
443.54	2.243
443.74	2.544
443.94	2.261
444.15	1.934
444.35	1.947
444.55	2.392
444.75	2.223
444.95	2.153
445.15	1.899
445.36	2.350
445.56	1.913
445.76	2.165
445.96	1.792
446.16	1.492
446.36	1.549
446.57	2.155
446.77	1.597
446.97	1.912
447.17	2.485
447.37	2.082
447.57	2.140
447.77	1.906
447.98	1.706
448.18	2.172
448.38	1.753
448.58	1.983
448.78	2.215
448.98	1.979
449.18	1.819
449.39	2.050
449.59	2.168
449.79	2.002
449.99	2.098
450.19	2.223
450.39	2.034
450.59	2.050
450.79	2.148
451.00	2.463
451.20	3.239
451.40	1.843
451.60	1.982
451.80	2.404
452.00	2.472
452.20	2.307
452.40	2.098
452.61	2.356
452.81	2.319
453.01	2.313
453.21	2.171
453.41	2.307
453.61	2.169
453.81	2.462
454.01	2.293
454.21	2.332
454.42	2.462
454.62	2.312
454.82	2.173
455.02	2.173
455.22	1.971
455.42	2.351
455.62	2.000
455.82	2.206
456.02	2.304
456.23	1.700
456.43	2.490
456.63	1.682
456.83	1.660
457.03	2.186
457.23	2.129
457.43	2.209
457.63	2.055
457.83	2.504
458.03	1.958
458.23	2.303
458.43	2.169
458.64	2.027
458.84	2.473
459.04	2.106
459.24	1.972
459.44	1.834
459.64	2.335
459.84	2.180
460.04	1.769
460.24	1.870
460.44	2.014
460.64	1.959
460.84	1.827
461.04	2.055
461.24	2.100
461.45	2.250
461.65	2.275
461.85	2.120
462.05	1.966
462.25	2.005
462.45	2.358
462.65	2.262
462.85	1.837
463.05	2.216
463.25	1.854
463.45	2.224
463.65	2.138
463.85	2.169
464.05	2.294
464.25	2.244
464.45	2.442
464.65	2.137
464.85	2.017
465.05	1.940
465.26	2.398
465.46	2.567
465.66	2.406
465.86	2.594
466.06	2.144
466.26	1.887
466.46	1.871
466.66	2.054
466.86	2.235
467.06	2.367
467.26	1.899
467.46	2.528
467.66	1.987
467.86	1.790
468.06	1.941
468.26	2.003
468.46	2.279
468.66	2.260
468.86	1.822
469.06	2.244
469.26	1.985
469.46	2.229
469.66	2.230
469.86	2.110
470.06	2.052
470.26	2.540
470.46	1.888
470.66	2.382
470.86	1.732
471.06	1.897
471.26	1.634
471.46	1.776
471.66	2.235
471.86	1.887
472.06	2.349
472.26	2.653
472.46	2.598
472.66	2.393
472.86	1.681
473.06	2.383
473.26	2.305
473.46	2.012
473.66	2.174
473.86	2.314
474.06	2.006
474.26	2.271
474.46	1.793
474.66	2.322
474.86	2.413
475.06	2.507
475.26	2.133
475.46	2.200
475.66	1.789
475.86	2.070
476.06	2.775
476.26	2.240
476.46	1.992
476.66	2.012
476.86	2.192
477.06	1.890
477.26	2.046
477.46	1.974
477.65	2.100
477.85	2.187
478.05	1.894
478.25	2.217
478.45	1.897
478.65	1.952
478.85	1.800
479.05	1.875
479.25	1.994
479.45	2.316
479.65	2.078
479.85	1.963
480.05	1.865
480.25	1.935
480.45	2.119
480.65	2.401
480.85	1.797
481.05	2.165
481.25	2.222
481.44	2.100
481.64	1.657
481.84	2.261
482.04	1.949
482.24	2.250
482.44	1.414
482.64	1.906
482.84	2.020
483.04	2.214
483.24	2.064
483.44	2.218
483.64	2.087
483.84	2.083
484.04	2.201
484.23	2.350
484.43	2.394
484.63	2.610
484.83	2.495
485.03	2.982
485.23	2.665
485.43	2.738
485.63	2.617
485.83	2.693
486.03	2.559
486.23	2.599
486.42	2.233
486.62	2.584
486.82	2.128
487.02	2.241
487.22	2.173
487.42	2.493
487.62	2.367
487.82	2.173
488.02	2.173
488.22	2.641
488.41	2.388
488.61	2.497
488.81	2.417
489.01	2.515
489.21	2.568
489.41	2.506
489.61	2.691
489.81	2.657
490.01	2.311
490.20	2.415
490.40	2.163
490.60	2.446
490.80	2.127
491.00	2.628
491.20	2.227
491.40	2.025
491.60	2.145
491.79	2.193
491.99	2.360
492.19	2.342
492.39	2.294
492.59	2.522
492.79	2.505
492.99	2.702
493.19	2.531
493.38	2.578
493.58	2.261
493.78	2.433
493.98	2.822
494.18	2.653
494.38	2.485
494.58	2.631
494.77	1.666
494.97	2.191
495.17	2.174
495.37	2.257
495.57	2.311
495.77	2.186
495.96	2.362
496.16	2.376
496.36	2.255
496.56	2.667
496.76	2.009
496.96	2.092
497.15	2.101
497.35	2.103
497.55	2.316
497.75	2.282
497.95	1.826
498.15	2.477
498.34	2.533
498.54	1.909
498.74	2.789
498.94	2.633
499.14	2.131
499.34	2.802
499.53	2.303
499.73	2.509
499.93	2.459
500.13	2.379
500.33	2.102
500.52	2.435
500.72	2.182
500.92	2.383
501.12	1.600
501.32	2.220
501.52	2.279
501.71	2.367
501.91	2.332
502.11	2.605
502.31	2.270
502.51	2.404
502.70	2.220
502.90	2.686
503.10	1.837
503.30	2.813
503.50	2.615
503.69	2.273
503.89	2.877
504.09	2.720
504.29	2.257
504.48	2.663
504.68	2.888
504.88	2.832
505.08	2.301
505.28	2.369
505.47	2.600
505.67	3.136
505.87	2.447
506.07	2.424
506.27	2.560
506.46	2.672
506.66	2.327
506.86	2.609
507.06	3.369
507.25	2.885
507.45	2.496
507.65	2.957
507.85	2.493
508.04	2.809
508.24	2.631
508.44	2.732
508.64	2.519
508.83	2.785
509.03	2.647
509.23	2.729
509.43	2.641
509.63	2.790
509.82	2.427
510.02	2.396
510.22	2.346
510.42	2.902
510.61	2.963
510.81	2.835
511.01	2.973
511.21	2.775
511.40	2.621
511.60	2.907
511.80	2.739
511.99	2.907
512.19	3.029
512.39	3.033
512.59	2.617
512.78	2.982
512.98	3.141
513.18	2.841
513.38	2.841
513.57	3.044
513.77	2.921
513.97	2.870
514.17	2.552
514.36	2.739
514.56	3.279
514.76	3.455
514.95	2.546
515.15	2.876
515.35	2.389
515.55	2.756
515.74	3.145
515.94	3.167
516.14	2.495
516.33	3.241
516.53	2.841
516.73	2.761
516.93	2.632
517.12	3.529
517.32	2.492
517.52	3.263
517.71	2.825
517.91	2.957
518.11	2.927
518.30	2.777
518.50	2.368
518.70	2.762
518.90	3.032
519.09	3.028
519.29	3.375
519.49	3.444
519.68	2.878
519.88	3.727
520.08	3.170
520.27	3.324
520.47	3.324
520.67	3.193
520.86	3.534
521.06	3.874
521.26	2.665
521.45	3.439
521.65	2.983
521.85	3.282
522.04	2.889
522.24	3.584
522.44	2.886
522.63	3.129
522.83	3.121
523.03	3.706
523.22	3.290
523.42	3.792
523.62	3.463
523.81	3.408
524.01	3.216
524.21	2.939
524.40	2.627
524.60	3.331
524.80	3.083
524.99	3.127
525.19	3.188
525.39	3.348
525.58	2.927
525.78	3.273
525.98	3.577
526.17	3.639
526.37	3.291
526.57	3.584
526.76	3.768
526.96	3.771
527.15	3.439
527.35	3.502
527.55	3.320
527.74	3.867
527.94	3.719
528.14	3.592
528.33	3.584
528.53	3.918
528.72	3.732
528.92	3.972
529.12	3.909
529.31	4.104
529.51	4.100
529.71	4.291
529.90	4.241
530.10	4.244
530.29	4.222
530.49	4.494
530.69	4.258
530.88	4.453
531.08	4.270
531.28	4.181
531.47	3.970
531.67	4.150
531.86	3.784
532.06	4.041
532.26	3.488
532.45	4.085
532.65	3.611
532.84	3.830
533.04	3.440
533.24	3.775
533.43	3.686
533.63	4.148
533.82	4.038
534.02	4.204
534.22	3.978
534.41	4.251
534.61	4.142
534.80	4.290
535.00	4.344
535.19	4.308
535.39	4.202
535.59	4.454
535.78	3.960
535.98	4.207
536.17	3.807
536.37	4.075
536.57	3.709
536.76	4.543
536.96	3.840
537.15	4.322
537.35	3.668
537.54	3.910
537.74	4.271
537.93	4.219
538.13	4.011
538.33	4.285
538.52	4.164
538.72	4.344
538.91	4.032
539.11	4.045
539.30	3.976
539.50	4.434
539.70	4.004
539.89	4.304
540.09	4.217
540.28	4.419
540.48	3.827
540.67	4.495
540.87	3.892
541.06	4.343
541.26	4.130
541.45	4.629
541.65	4.534
541.85	4.768
542.04	4.462
542.24	4.870
542.43	4.467
542.63	4.772
542.82	4.620
543.02	4.974
543.21	4.722
543.41	5.103
543.60	4.710
543.80	5.099
543.99	4.495
544.19	4.906
544.38	4.768
544.58	4.967
544.77	4.513
544.97	5.249
545.16	4.522
545.36	5.009
545.56	4.540
545.75	4.929
545.95	4.426
546.14	5.029
546.34	4.262
546.53	5.036
546.73	4.391
546.92	4.870
547.12	4.366
547.31	5.187
547.51	4.709
547.70	4.746
547.90	4.517
548.09	4.814
548.29	4.478
548.48	5.322
548.68	4.901
548.87	5.282
549.07	4.988
549.26	4.732
549.46	5.074
549.65	5.214
549.84	4.913
550.04	4.754
550.23	4.231
550.43	5.012
550.62	4.850
550.82	4.905
551.01	4.481
551.21	4.964
551.40	4.629
551.60	5.126
551.79	4.587
551.99	4.892
552.18	4.602
552.38	4.947
552.57	5.215
552.77	5.637
552.96	5.487
553.16	5.424
553.35	5.452
553.54	6.127
553.74	5.357
553.93	5.768
554.13	5.681
554.32	5.799
554.52	5.552
554.71	5.977
554.91	5.040
555.10	6.183
555.29	5.585
555.49	5.625
555.68	5.588
555.88	6.417
556.07	4.967
556.27	6.376
556.46	5.792
556.66	6.139
556.85	5.992
557.04	6.383
557.24	5.335
557.43	6.407
557.63	5.809
557.82	6.059
558.02	5.443
558.21	7.065
558.40	5.795
558.60	6.223
558.79	6.161
558.99	6.803
559.18	6.410
559.38	6.401
559.57	6.779
559.76	6.579
559.96	6.852
560.15	7.300
560.35	6.065
560.54	6.444
560.73	5.763
560.93	7.303
561.12	6.447
561.32	7.159
561.51	7.125
561.70	7.496
561.90	6.838
562.09	7.733
562.29	6.954
562.48	7.045
562.67	7.035
562.87	7.686
563.06	6.829
563.26	7.721
563.45	7.615
563.64	8.501
563.84	7.375
564.03	7.889
564.23	7.046
564.42	9.040
564.61	7.694
564.81	8.053
565.00	7.820
565.20	8.720
565.39	8.555
565.58	8.311
565.78	8.148
565.97	8.807
566.16	8.876
566.36	9.835
566.55	8.720
566.74	8.483
566.94	8.740
567.13	9.403
567.33	8.793
567.52	9.372
567.71	9.086
567.91	9.722
568.10	9.311
568.29	9.490
568.49	9.243
568.68	9.461
568.87	9.022
569.07	9.787
569.26	8.998
569.45	9.914
569.65	8.860
569.84	9.653
570.04	9.455
570.23	9.802
570.42	8.547
570.62	9.193
570.81	9.469
571.00	9.807
571.20	10.078
571.39	10.251
571.58	9.691
571.78	10.295
571.97	9.795
572.16	10.199
572.36	9.953
572.55	10.575
572.74	10.085
572.94	9.928
573.13	10.118
573.32	9.986
573.51	10.061
573.71	10.620
573.90	9.558
574.09	10.651
574.29	10.297
574.48	10.326
574.67	9.397
574.87	10.518
575.06	9.581
575.25	10.544
575.45	10.285
575.64	10.311
575.83	10.419
576.03	11.007
576.22	9.982
576.41	10.220
576.60	10.002
576.80	10.218
576.99	10.427
577.18	10.956
577.38	9.939
577.57	10.764
577.76	11.106
577.95	10.677
578.15	9.744
578.34	10.339
578.53	9.251
578.73	10.385
578.92	9.326
579.11	10.303
579.30	10.372
579.50	9.793
579.69	9.935
579.88	10.015
580.08	8.815
580.27	10.184
580.46	9.761
580.65	10.620
580.85	9.815
581.04	9.860
581.23	8.994
581.42	9.650
581.62	9.372
581.81	9.838
582.00	9.247
582.19	9.749
582.39	9.901
582.58	9.371
582.77	9.886
582.96	9.448
583.16	8.871
583.35	10.268
583.54	9.218
583.73	10.629
583.93	9.542
584.12	8.741
584.31	8.043
584.50	9.346
584.70	8.863
584.89	9.489
585.08	8.884
585.27	9.920
585.47	9.203
585.66	9.501
585.85	9.013
586.04	9.675
586.24	10.303
586.43	9.088
586.62	8.832
586.81	10.121
587.00	8.827
587.20	9.921
587.39	8.318
587.58	9.844
587.77	9.269
587.97	9.347
588.16	8.872
588.35	10.018
588.54	8.760
588.73	8.775
588.93	9.441
589.12	9.890
589.31	9.139
589.50	9.344
589.69	10.079
589.89	9.728
590.08	8.612
590.27	9.329
590.46	9.362
590.65	9.078
590.85	8.682
591.04	9.993
591.23	9.071
591.42	9.734
591.61	8.941
591.81	9.471
592.00	9.270
592.19	9.554
592.38	8.493
592.57	9.540
592.77	9.403
592.96	9.060
593.15	10.297
593.34	9.400
593.53	9.104
593.72	9.767
593.92	8.773
594.11	9.999
594.30	9.118
594.49	9.747
594.68	9.165
594.87	9.173
595.07	8.071
595.26	9.882
595.45	8.623
595.64	9.419
595.83	8.468
596.02	10.131
596.22	9.692
596.41	9.938
596.60	9.808
596.79	10.414
596.98	9.509
597.17	10.370
597.37	9.786
597.56	10.423
597.75	9.786
597.94	10.561
598.13	10.545
598.32	10.312
598.51	10.310
598.71	10.876
598.90	9.912
599.09	10.629
599.28	9.743
599.47	10.287
599.66	9.456
599.85	10.498
600.05	9.779
600.24	10.371
600.43	10.162
600.62	10.387
600.81	9.882
601.00	10.995
601.19	8.442
601.38	10.616
601.58	10.115
601.77	9.432
601.96	9.736
602.15	10.350
602.34	10.120
602.53	11.018
602.72	9.627
602.91	10.056
603.10	9.565
603.30	10.888
603.49	10.099
603.68	10.294
603.87	9.581
604.06	10.702
604.25	11.105
604.44	11.048
604.63	10.129
604.82	11.051
605.01	10.480
605.21	11.086
605.40	10.292
605.59	10.853
605.78	11.050
605.97	10.681
606.16	10.835
606.35	11.021
606.54	10.312
606.73	11.855
606.92	9.906
607.11	11.310
607.30	9.643
607.50	10.395
607.69	9.941
607.88	10.010
608.07	9.576
608.26	10.338
608.45	10.408
608.64	10.851
608.83	9.250
609.02	10.301
609.21	9.843
609.40	10.787
609.59	9.807
609.78	10.240
609.97	9.680
610.16	10.594
610.35	10.147
610.55	10.255
610.74	10.141
610.93	10.491
611.12	9.822
611.31	10.408
611.50	9.380
611.69	9.949
611.88	9.272
612.07	10.279
612.26	8.513
612.45	9.684
612.64	9.327
612.83	9.566
613.02	8.494
613.21	8.973
613.40	8.514
613.59	9.933
613.78	8.313
613.97	9.156
614.16	7.991
614.35	9.671
614.54	7.265
614.73	8.009
614.92	7.908
615.11	8.466
615.30	8.535
615.49	7.991
615.68	8.352
615.87	8.022
616.07	7.400
616.26	7.468
616.45	9.000
616.64	7.253
616.83	7.538
617.02	9.196
617.21	6.464
617.40	7.838
617.59	8.318
617.78	7.861
617.97	6.855
618.16	7.253
618.35	6.236
618.54	8.236
618.73	7.464
618.92	7.830
619.11	6.677
619.30	8.222
619.49	6.431
619.68	8.654
619.86	7.025
620.05	7.429
620.24	7.290
620.43	7.567
620.62	5.977
620.81	7.650
621.00	8.160
621.19	8.587
621.38	8.103
621.57	7.947
621.76	6.859
621.95	8.436
622.14	7.134
622.33	8.115
622.52	6.640
622.71	7.012
622.90	6.998
623.09	8.054
623.28	7.506
623.47	7.353
623.66	7.582
623.85	6.707
624.04	6.730
624.23	7.002
624.42	6.353
624.61	6.798
624.80	5.576
624.99	7.308
625.18	5.998
625.36	7.303
625.55	7.458
625.74	5.960
625.93	6.937
626.12	7.386
626.31	7.126
626.50	7.128
626.69	6.735
626.88	8.320
627.07	7.520
627.26	7.239
627.45	7.247
627.64	6.922
627.83	6.817
628.02	7.290
628.20	7.135
628.39	7.387
628.58	7.050
628.77	7.170
628.96	6.454
629.15	6.503
629.34	6.713
629.53	6.619
629.72	6.515
629.91	7.695
630.10	6.571
630.29	6.804
630.47	6.668
630.66	6.423
630.85	6.406
631.04	6.561
631.23	6.991
631.42	6.087
631.61	6.466
631.80	7.361
631.99	6.397
632.18	6.424
632.36	5.627
632.55	7.526
632.74	6.357
632.93	5.596
633.12	6.179
633.31	6.495
633.50	5.743
633.69	6.755
633.88	5.683
634.06	6.534
634.25	6.040
634.44	6.285
634.63	6.594
634.82	7.167
635.01	5.550
635.20	6.061
635.39	5.486
635.57	6.239
635.76	5.775
635.95	6.480
636.14	5.329
636.33	6.208
636.52	6.215
636.71	5.850
636.89	6.447
637.08	6.448
637.27	5.384
637.46	5.092
637.65	6.463
637.84	5.869
638.03	5.603
638.21	6.267
638.40	6.590
638.59	5.417
638.78	5.197
638.97	7.296
639.16	6.507
639.34	5.864
639.53	4.967
639.72	6.958
639.91	5.336
640.10	5.119
640.29	7.008
640.47	7.275
640.66	6.189
640.85	7.905
641.04	4.739
641.23	5.878
641.42	6.557
641.60	6.124
641.79	5.386
641.98	5.933
642.17	5.629
642.36	6.548
642.54	5.395
642.73	5.979
642.92	5.435
643.11	6.246
643.30	5.994
643.49	5.194
643.67	4.787
643.86	4.975
644.05	5.840
644.24	5.808
644.43	5.904
644.61	6.206
644.80	5.822
644.99	5.961
645.18	6.452
645.37	5.919
645.55	5.516
645.74	6.282
645.93	6.573
646.12	6.352
646.31	6.278
646.49	5.669
646.68	6.278
646.87	5.508
647.06	5.258
647.24	5.588
647.43	5.140
647.62	5.976
647.81	4.712
648.00	6.173
648.18	4.550
648.37	5.666
648.56	5.756
648.75	4.738
648.93	5.504
649.12	6.344
649.31	6.322
649.50	5.841
649.68	5.640
649.87	6.052
650.06	4.642
650.25	6.036
650.43	4.491
650.62	5.294
650.81	6.078
651.00	5.617
651.18	5.400
651.37	6.533
651.56	5.522
651.75	5.817
651.93	5.601
652.12	6.208
652.31	5.026
652.50	5.915
652.68	5.593
652.87	6.334
653.06	6.840
653.25	6.730
653.43	5.083
653.62	5.784
653.81	6.018
654.00	6.108
654.18	5.922
654.37	6.170
654.56	5.327
654.74	4.605
654.93	5.683
655.12	6.093
655.31	6.641
655.49	6.953
655.68	5.249
655.87	4.998
656.05	4.397
656.24	6.082
656.43	4.869
656.62	5.782
656.80	5.247
656.99	5.184
657.18	4.893
657.36	4.911
657.55	5.722
657.74	5.245
657.93	5.272
658.11	6.620
658.30	5.651
658.49	4.697
658.67	5.678
658.86	3.839
659.05	4.211
659.23	4.954
659.42	4.584
659.61	4.720
659.79	4.242
659.98	4.995
660.17	5.015
660.35	4.113
660.54	5.418
660.73	5.673
660.91	4.626
661.10	5.017
661.29	4.257
661.47	4.481
661.66	5.009
661.85	4.488
662.03	5.069
662.22	3.756
662.41	4.175
662.59	5.104
662.78	4.358
662.97	5.159
663.15	4.866
663.34	4.286
663.53	4.371
663.71	5.164
663.90	4.571
664.09	4.429
664.27	4.974
664.46	4.613
664.65	4.657
664.83	4.774
665.02	5.624
665.21	4.850
665.39	4.944
665.58	5.156
665.77	4.639
665.95	5.130
666.14	4.995
666.32	4.435
666.51	4.996
666.70	4.464
666.88	4.699
667.07	3.504
667.26	3.598
667.44	5.038
667.63	4.435
667.81	5.075
668.00	3.824
668.19	6.574
668.37	5.756
668.56	5.678
668.75	4.847
668.93	5.946
669.12	4.784
669.30	5.399
669.49	3.980
669.68	5.041
669.86	5.263
670.05	4.588
670.23	4.907
670.42	4.544
670.61	5.880
670.79	6.320
670.98	5.010
671.16	5.420
671.35	4.964
671.54	4.550
671.72	5.681
671.91	5.652
672.09	5.408
672.28	5.679
672.46	5.574
672.65	6.489
672.84	7.087
673.02	6.489
673.21	4.841
673.39	4.878
673.58	6.055
673.77	6.061
673.95	5.511
674.14	5.386
674.32	5.450
674.51	6.042
674.69	5.122
674.88	6.021
675.07	5.743
675.25	7.180
675.44	6.198
675.62	5.616
675.81	5.422
675.99	8.890
676.18	7.434
676.36	4.267
676.55	7.078
676.74	7.070
676.92	7.000
677.11	6.874
677.29	6.527
677.48	6.102
677.66	5.871
677.85	6.152
678.03	6.453
678.22	7.194
678.40	6.400
678.59	6.389
678.78	5.251
678.96	4.813
679.15	6.257
679.33	7.830
679.52	6.623
679.70	5.630
679.89	5.467
680.07	6.218
680.26	4.001
680.44	5.264
680.63	5.886
680.81	5.514
681.00	4.793
681.18	5.255
681.37	5.584
681.55	5.828
681.74	6.340
681.92	6.459
682.11	5.761
682.29	5.871
682.48	5.940
682.66	5.984
682.85	6.048
683.03	5.814
683.22	7.069
683.40	7.245
683.59	6.274
683.77	7.084
683.96	6.414
684.14	7.004
684.33	6.356
684.51	8.213
684.70	7.631
684.88	8.235
685.07	6.434
685.25	7.634
685.44	6.787
685.62	7.153
685.81	6.516
685.99	8.026
686.18	5.918
686.36	7.914
686.55	6.129
686.73	6.374
686.92	7.896
687.10	7.924
687.29	8.573
687.47	8.883
687.65	8.315
687.84	8.377
688.02	9.391
688.21	9.063
688.39	7.657
688.58	9.023
688.76	8.189
688.95	7.435
689.13	7.926
689.32	9.125
689.50	8.954
689.68	8.610
689.87	8.438
690.05	8.892
690.24	10.005
690.42	9.052
690.61	10.859
690.79	11.114
690.98	9.565
691.16	9.992
691.34	9.265
691.53	9.657
691.71	9.348
691.90	10.542
692.08	8.978
692.27	10.728
692.45	11.215
692.63	8.933
692.82	11.991
693.00	11.045
693.19	10.028
693.37	13.235
693.56	11.250
693.74	12.144
693.92	11.685
694.11	12.882
694.29	12.465
694.48	13.272
694.66	12.363
694.84	14.028
695.03	12.000
695.21	14.750
695.40	16.149
695.58	16.617
695.76	15.312
695.95	15.804
696.13	13.773
696.32	17.702
696.50	21.157
696.68	16.810
696.87	15.369
697.05	18.407
697.24	17.171
697.42	18.279
697.60	17.603
697.79	17.741
697.97	19.432
698.16	22.084
698.34	17.176
698.52	21.095
698.71	19.061
698.89	19.319
699.07	20.676
699.26	21.020
699.44	20.605
699.63	22.283
699.81	20.694
699.99	23.413
700.18	22.331
700.36	22.611
700.54	22.977
700.73	22.544
700.91	21.544
701.09	23.880
701.28	24.029
701.46	24.151
701.64	22.148
701.83	24.190
702.01	21.872
702.20	27.822
702.38	25.962
702.56	24.896
702.75	24.993
702.93	23.645
703.11	24.826
703.30	25.496
703.48	26.366
703.66	25.605
703.85	24.907
704.03	29.826
704.21	26.275
704.40	30.383
704.58	25.552
704.76	29.380
704.95	26.144
705.13	27.829
705.31	28.581
705.50	30.544
705.68	26.475
705.86	30.876
706.04	28.168
706.23	30.418
706.41	29.742
706.59	29.492
706.78	27.678
706.96	30.811
707.14	31.160
707.33	30.088
707.51	28.762
707.69	30.532
707.88	28.843
708.06	32.151
708.24	30.542
708.42	33.317
708.61	30.900
708.79	33.589
708.97	31.111
709.16	32.403
709.34	33.998
709.52	33.233
709.71	32.278
709.89	34.554
710.07	29.982
710.25	34.858
710.44	31.923
710.62	33.542
710.80	33.861
710.98	34.812
711.17	32.242
711.35	35.143
711.53	30.329
711.72	36.115
711.90	36.709
712.08	36.180
712.26	33.465
712.45	36.072
712.63	35.564
712.81	36.979
712.99	35.249
713.18	37.432
713.36	36.840
713.54	37.233
713.72	35.146
713.91	36.308
714.09	34.460
714.27	38.365
714.45	38.225
714.64	40.151
714.82	36.509
715.00	39.129
715.18	37.288
715.37	40.758
715.55	38.491
715.73	39.541
715.91	40.404
716.10	40.934
716.28	36.944
716.46	42.901
716.64	36.584
716.83	42.349
717.01	39.202
717.19	41.585
717.37	40.843
717.55	44.233
717.74	41.678
717.92	44.278
718.10	39.509
718.28	42.927
718.47	40.574
718.65	43.802
718.83	43.802
719.01	45.298
719.19	43.622
719.38	43.994
719.56	43.681
719.74	44.125
719.92	39.976
720.10	44.347
720.29	44.429
720.47	48.144
720.65	45.743
720.83	48.586
721.01	44.236
721.20	45.998
721.38	44.578
721.56	46.902
721.74	45.657
721.92	46.594
722.11	44.222
722.29	46.864
722.47	44.988
722.65	48.058
722.83	47.823
723.01	45.912
723.20	50.524
723.38	49.934
723.56	46.428
723.74	53.109
723.92	48.019
724.10	50.452
724.29	47.954
724.47	53.375
724.65	47.728
724.83	51.372
725.01	49.037
725.19	53.768
725.38	49.547
725.56	51.951
725.74	50.399
725.92	54.022
726.10	51.082
726.28	53.019
726.46	52.804
726.65	53.714
726.83	51.308
727.01	53.194
727.19	52.406
727.37	54.579
727.55	52.217
727.73	54.395
727.92	52.235
728.10	54.084
728.28	49.539
728.46	56.152
728.64	53.940
728.82	55.777
729.00	53.115
729.19	55.528
729.37	53.328
729.55	57.583
729.73	51.948
729.91	55.961
730.09	55.851
730.27	55.600
730.45	54.135
730.63	55.571
730.82	53.807
731.00	56.618
731.18	54.501
731.36	57.081
731.54	52.912
731.72	58.539
731.90	53.667
732.08	57.567
732.26	52.790
732.45	59.286
732.63	55.542
732.81	55.178
732.99	58.274
733.17	58.063
733.35	57.078
733.53	60.203
733.71	56.948
733.89	57.874
734.07	55.599
734.25	62.037
734.44	55.628
734.62	57.294
734.80	55.403
734.98	59.169
735.16	58.649
735.34	58.757
735.52	58.066
735.70	59.482
735.88	56.652
736.06	60.356
736.24	62.768
736.42	62.733
736.60	58.687
736.78	62.205
736.97	57.617
737.15	62.295
737.33	57.345
737.51	62.009
737.69	59.147
737.87	62.292
738.05	59.377
738.23	62.321
738.41	60.000
738.59	63.110
738.77	58.360
738.95	63.676
739.13	60.010
739.31	61.214
739.49	60.913
739.67	62.915
739.85	59.300
740.03	62.373
740.21	61.399
740.39	65.135
740.57	60.895
740.75	60.501
740.93	61.943
741.11	63.399
741.30	60.489
741.48	63.072
741.66	58.026
741.84	63.231
742.02	58.097
742.20	62.480
742.38	62.824
742.56	65.329
742.74	58.320
742.92	61.900
743.10	57.143
743.28	64.193
743.46	61.582
743.64	62.697
743.82	58.440
744.00	63.678
744.18	61.852
744.36	64.494
744.54	60.738
744.72	65.411
744.90	66.586
745.08	64.420
745.26	62.496
745.44	63.373
745.62	59.431
745.80	63.557
745.98	61.602
746.16	67.418
746.34	63.686
746.52	68.762
746.70	57.669
746.87	61.767
747.05	61.796
747.23	67.060
747.41	59.032
747.59	64.508
747.77	58.940
747.95	61.337
748.13	61.021
748.31	66.667
748.49	61.012
748.67	63.567
748.85	60.557
749.03	65.924
749.21	58.407
749.39	66.449
749.57	59.636
749.75	63.279
749.93	59.859
750.11	63.940
750.29	62.523
750.47	63.954
750.65	60.684
750.83	64.536
751.01	58.628
751.18	63.614
751.36	60.405
751.54	60.691
751.72	63.416
751.90	62.068
752.08	60.730
752.26	60.657
752.44	66.246
752.62	64.833
752.80	59.938
752.98	66.803
753.16	61.515
753.34	62.413
753.52	61.713
753.69	65.898
753.87	63.838
754.05	65.014
754.23	61.172
754.41	65.990
754.59	60.222
754.77	63.828
754.95	60.589
755.13	62.791
755.31	62.858
755.49	63.825
755.66	61.211
755.84	61.886
756.02	57.535
756.20	67.262
756.38	60.119
756.56	62.615
756.74	58.601
756.92	60.386
757.10	58.488
757.28	63.240
757.45	67.736
757.63	61.369
757.81	59.151
757.99	66.247
758.17	62.939
758.35	64.710
758.53	64.712
758.71	64.169
758.88	59.796
759.06	62.977
759.24	56.361
759.42	60.692
759.60	56.485
759.78	61.038
759.96	55.552
760.13	60.745
760.31	56.216
760.49	59.380
760.67	52.952
760.85	58.191
761.03	54.280
761.21	53.976
761.38	53.927
761.56	58.058
761.74	53.728
761.92	60.169
762.10	49.557
762.28	60.029
762.46	52.075
762.63	53.993
762.81	54.860
762.99	56.242
763.17	55.199
763.35	57.281
763.53	55.459
763.70	59.261
763.88	59.610
764.06	58.650
764.24	57.969
764.42	57.590
764.60	59.903
764.77	57.074
764.95	59.183
765.13	57.977
765.31	55.702
765.49	60.459
765.66	55.499
765.84	57.905
766.02	58.344
766.20	60.338
766.38	54.966
766.56	58.625
766.73	57.415
766.91	58.466
767.09	58.752
767.27	62.823
767.45	57.631
767.62	60.126
767.80	53.798
767.98	62.683
768.16	55.835
768.33	64.327
768.51	57.166
768.69	60.647
768.87	61.902
769.05	62.161
769.22	54.561
769.40	64.951
769.58	59.106
769.76	61.196
769.94	57.407
770.11	58.659
770.29	57.226
770.47	59.898
770.65	61.439
770.82	62.737
771.00	62.040
771.18	64.015
771.36	55.317
771.53	60.238
771.71	59.264
771.89	62.321
772.07	59.784
772.25	62.557
772.42	59.745
772.60	64.012
772.78	60.972
772.96	61.579
773.13	59.654
773.31	60.505
773.49	58.472
773.67	62.323
773.84	58.677
774.02	59.160
774.20	60.354
774.37	61.251
774.55	57.181
774.73	65.771
774.91	59.371
775.08	60.047
775.26	58.651
775.44	62.239
775.62	57.965
775.79	56.065
775.97	56.056
776.15	61.119
776.32	48.618
776.50	64.331
776.68	58.943
776.86	67.798
777.03	58.772
777.21	61.773
777.39	59.297
777.56	65.196
777.74	57.919
777.92	61.452
778.10	53.691
778.27	61.461
778.45	62.740
778.63	65.158
778.80	58.569
778.98	63.332
779.16	63.060
779.34	61.111
779.51	55.745
779.69	66.443
779.87	62.500
780.04	60.848
780.22	56.018
780.40	60.142
780.57	61.414
780.75	57.377
780.93	59.619
781.10	58.938
781.28	66.617
781.46	59.685
781.63	60.010
781.81	67.378
781.99	60.110
782.16	61.973
782.34	51.538
782.52	59.527
782.69	60.829
782.87	59.792
783.05	51.147
783.22	60.117
783.40	53.330
783.58	61.648
783.75	57.686
783.93	63.197
784.11	59.773
784.28	59.741
784.46	53.143
784.64	58.566
784.81	54.356
784.99	62.534
785.17	58.226
785.34	58.886
785.52	54.283
785.69	65.878
785.87	50.954
786.05	59.611
786.22	58.664
786.40	65.745
786.58	53.729
786.75	61.485
786.93	55.071
787.11	60.504
787.28	54.183
787.46	63.425
787.63	58.333
787.81	60.672
787.99	56.524
788.16	58.903
788.34	50.664
788.51	53.654
788.69	54.674
788.87	51.470
789.04	57.713
789.22	60.534
789.39	57.860
789.57	56.016
789.75	55.159
789.92	57.727
790.10	53.952
790.27	60.363
790.45	50.050
790.63	57.667
790.80	52.500
790.98	58.938
791.15	50.155
791.33	55.146
791.51	53.702
791.68	58.998
791.86	56.369
792.03	56.289
792.21	49.420
792.39	60.251
792.56	52.713
792.74	58.383
792.91	54.920
793.09	55.411
793.26	60.629
793.44	62.833
793.62	51.728
793.79	59.483
793.97	59.518
794.14	59.723
794.32	57.478
794.49	59.710
794.67	50.250
794.84	52.583
795.02	50.572
795.20	58.387
795.37	51.998
795.55	56.924
795.72	56.519
795.90	54.038
796.07	52.397
796.25	56.749
796.42	53.151
796.60	53.337
796.77	50.777
796.95	54.366
797.13	46.966
797.30	61.227
797.48	55.276
797.65	57.983
797.83	53.971
798.00	57.918
798.18	49.109
798.35	56.510
798.53	53.762
798.70	58.030
798.88	52.745
799.05	57.720
799.23	48.814
799.40	55.724
799.58	54.217
799.75	54.216
799.93	51.495
800.10	55.350
800.28	50.642
800.45	59.598
800.63	50.659
800.80	62.615
800.98	49.970
801.15	56.712
801.33	58.276
801.50	57.533
801.68	52.481
801.85	56.088
802.03	49.169
802.20	52.705
802.38	55.016
802.55	50.650
802.73	57.743
802.90	50.564
803.08	45.496
803.25	60.323
803.43	55.955
803.60	56.135
803.78	54.501
803.95	55.101
804.13	56.998
804.30	55.613
804.48	54.343
804.65	57.460
804.83	52.312
805.00	59.626
805.17	59.933
805.35	51.557
805.52	45.274
805.70	59.064
805.87	58.432
806.05	56.559
806.22	55.777
806.40	54.946
806.57	49.014
806.75	58.213
806.92	59.360
807.09	56.525
807.27	52.736
807.44	63.393
807.62	55.049
807.79	53.386
807.97	47.074
808.14	60.055
808.31	48.886
808.49	55.272
808.66	50.587
808.84	49.365
809.01	58.239
809.19	51.987
809.36	58.644
809.53	54.848
809.71	53.138
809.88	64.803
810.06	59.929
810.23	54.369
810.41	63.604
810.58	61.416
810.75	55.672
810.93	55.729
811.10	54.170
811.28	51.798
811.45	60.581
811.62	55.710
811.80	50.697
811.97	54.275
812.15	59.548
812.32	52.791
812.49	55.370
812.67	57.077
812.84	54.327
813.02	54.052
813.19	52.297
813.36	58.497
813.54	46.688
813.71	61.168
813.89	49.147
814.06	56.236
814.23	53.963
814.41	54.642
814.58	56.153
814.75	62.211
814.93	57.155
815.10	50.708
815.28	46.631
815.45	44.935
815.62	58.621
815.80	49.791
815.97	46.252
816.14	45.946
816.32	55.873
816.49	53.429
816.66	57.219
816.84	47.161
817.01	58.158
817.18	53.413
817.36	43.895
817.53	59.518
817.71	41.285
817.88	51.911
818.05	49.247
818.23	51.838
818.40	53.028
818.57	53.420
818.75	46.443
818.92	42.835
819.09	53.212
819.27	61.731
819.44	50.352
819.61	46.022
819.79	47.321
819.96	58.351
820.13	49.086
820.31	50.806
820.48	50.541
820.65	52.062
820.82	47.838
821.00	57.285
821.17	44.155
821.34	54.839
821.52	50.969
821.69	53.441
821.86	54.214
822.04	55.286
822.21	57.870
822.38	62.127
822.56	57.162
822.73	60.602
822.90	59.424
823.07	59.200
823.25	56.932
823.42	58.280
823.59	55.829
823.77	56.907
823.94	56.120
824.11	56.324
824.29	54.828
824.46	56.565
824.63	56.550
824.80	57.709
824.98	55.925
825.15	57.960
825.32	52.873
825.49	56.772
825.67	55.972
825.84	56.546
826.01	55.827
826.19	59.041
826.36	54.290
826.53	57.853
826.70	51.941
826.88	57.913
827.05	54.351
827.22	57.283
827.39	54.939
827.57	56.478
827.74	51.033
827.91	58.474
828.08	54.342
828.26	56.960
828.43	55.357
828.60	57.423
828.77	55.154
828.95	56.404
829.12	51.865
829.29	51.538
829.46	50.240
829.64	54.097
829.81	48.581
829.98	53.947
830.15	46.765
830.32	49.281
830.50	47.577
830.67	52.136
830.84	49.010
831.01	41.628
831.19	47.318
831.36	52.340
831.53	46.930
831.70	60.014
831.87	54.064
832.05	49.895
832.22	58.340
832.39	46.275
832.56	51.311
832.74	48.129
832.91	45.133
833.08	61.807
833.25	38.186
833.42	47.988
833.60	44.523
833.77	43.478
833.94	45.021
834.11	47.775
834.28	47.188
834.45	53.081
834.63	48.514
834.80	51.540
834.97	50.367
835.14	52.521
835.31	51.763
835.49	50.861
835.66	50.279
835.83	51.715
836.00	48.085
836.17	47.126
836.34	44.161
836.52	50.814
836.69	51.113
836.86	50.216
837.03	52.452
837.20	47.504
837.37	48.160
837.55	44.855
837.72	45.362
837.89	49.168
838.06	52.389
838.23	49.557
838.40	43.550
838.58	45.013
838.75	52.775
838.92	56.084
839.09	59.462
839.26	58.807
839.43	58.333
839.60	52.846
839.78	68.783
839.95	61.310
840.12	51.603
840.29	63.037
840.46	52.032
840.63	63.029
840.80	57.228
840.98	58.009
841.15	49.561
841.32	56.187
841.49	43.869
841.66	60.087
841.83	45.784
842.00	52.807
842.17	61.700
842.34	51.156
842.52	63.008
842.69	62.040
842.86	53.242
843.03	69.897
843.20	63.531
843.37	70.779
843.54	73.529
843.71	67.571
843.88	69.586
844.06	75.079
844.23	77.811
844.40	58.651
844.57	68.644
844.74	68.986
844.91	83.574
845.08	65.273
845.25	78.585
845.42	74.513
845.59	72.454
845.76	81.917
845.94	88.962
846.11	85.225
846.28	77.577
846.45	102.471
846.62	87.201
846.79	76.325
846.96	83.908
847.13	89.613
847.30	86.726
847.47	75.404
847.64	85.444
847.81	99.811
847.98	101.765
848.15	85.219
848.32	81.162
848.50	98.299
848.67	76.364
848.84	89.154
849.01	94.395
849.18	90.672
849.35	106.536
849.52	97.331
849.69	88.605
849.86	113.215
850.03	85.878
850.20	96.976
850.37	72.041
850.54	108.483
850.71	91.129
850.88	75.855
851.05	93.766
851.22	84.132
851.39	84.222
851.56	82.812
851.73	93.487
851.90	97.168
852.07	90.150
852.24	101.202
852.41	101.613
852.58	112.953
852.75	84.989
852.92	94.866
853.09	113.053
853.26	94.783
853.43	92.457
853.60	89.546
853.77	106.838
853.94	88.889
854.11	103.024
854.28	92.016
854.45	95.740
854.62	107.522
854.79	124.941
854.96	103.302
855.13	100.647
855.30	107.407
855.47	131.720
855.64	82.071
855.81	89.783
855.98	100.671
856.15	109.276
856.32	102.338
856.49	123.200
856.66	99.588
856.83	91.453
857.00	106.117
857.17	103.002
857.34	107.390
857.51	82.910
857.68	105.959
857.85	87.124
858.02	105.286
858.19	95.218
858.36	101.826
858.53	97.163
858.70	112.613
858.87	83.441
859.04	88.009
859.21	116.089
859.38	88.260
859.55	98.100
859.72	109.917
859.89	108.355
860.05	100.860
860.22	113.187
860.39	88.820
860.56	119.565
860.73	106.393
860.90	84.648
861.07	120.000
861.24	93.287
861.41	94.726
861.58	91.982
861.75	120.157
861.92	102.915
862.09	95.536
862.26	114.571
862.43	125.463
862.59	116.438
862.76	119.330
862.93	102.553
863.10	108.661
863.27	96.739
863.44	101.687
863.61	97.098
863.78	94.577
863.95	140.252
864.12	92.437
864.29	115.057
864.45	107.960
864.62	101.691
864.79	85.926
864.96	100.971
865.13	91.051
865.30	93.379
865.47	86.528
865.64	103.171
865.81	111.899
865.97	86.147
866.14	98.129
866.31	80.260
866.48	98.788
866.65	81.838
866.82	96.629
866.99	121.246
867.16	105.147
867.33	108.393
867.49	111.737
867.66	94.608
867.83	114.984
868.00	90.104
868.17	96.364
868.34	107.009
868.51	89.826
868.67	88.122
868.84	91.827
869.01	108.226
869.18	103.968
869.35	97.674
869.52	125.532
869.69	110.396
869.85	102.691
870.02	86.978
870.19	110.687
870.36	117.544
870.53	109.459
870.70	99.762
870.86	80.840
871.03	99.765
871.20	112.920
871.37	83.784
871.54	111.175
871.71	107.775
871.87	108.201
872.04	89.095
872.21	102.252
872.38	95.025
872.55	105.959
872.72	97.279
872.88	110.383
873.05	95.122
873.22	102.190
873.39	100.971
873.56	101.020
873.72	101.109
873.89	76.471
874.06	94.842
874.23	104.577
874.40	108.493
874.56	86.392
874.73	99.012
874.90	78.490
875.07	100.000
875.24	88.783
875.40	94.832
875.57	96.348
875.74	115.500
875.91	87.528
876.08	95.881
876.24	142.342
876.41	80.335
876.58	96.997
876.75	91.392
876.92	92.537
877.08	95.972
877.25	88.211
877.42	88.802
877.59	83.023
877.75	91.204
877.92	77.366
878.09	96.923
878.26	82.099
878.42	125.256
878.59	99.544
878.76	91.136
878.93	114.124
879.09	99.779
879.26	77.500
879.43	119.221
879.60	84.344
879.76	84.641
879.93	81.901
880.10	79.533
880.27	77.342
880.43	70.470
880.60	74.784
880.77	63.834
880.94	62.343
881.10	55.422
881.27	59.978
881.44	43.599
881.61	51.113
881.77	52.584
881.94	44.994
882.11	40.400
882.28	44.567
882.44	45.368
882.61	48.307
882.78	49.979
882.94	55.378
883.11	53.356
883.28	53.079
883.45	54.251
883.61	49.873
883.78	47.918
883.95	58.583
884.11	50.299
884.28	46.740
>>>>>End Processed Spectral Data<<<<<
