SpectraSuite Data File
++++++++++++++++++++++++++++++++++++
Date: Tue Sep 24 03:28:50 EST 2019
User: sgrac
Dark Spectrum Present: Yes
Reference Spectrum Present: Yes
Number of Sampled Component Spectra: 1
Spectrometers: USB4E01596
Integration Time (usec): 100000 (USB4E01596)
Spectra Averaged: 3 (USB4E01596)
Boxcar Smoothing: 0 (USB4E01596)
Correct for Electrical Dark: No (USB4E01596)
Strobe/Lamp Enabled: Yes (USB4E01596)
Correct for Detector Non-linearity: No (USB4E01596)
Correct for Stray Light: No (USB4E01596)
Number of Pixels in Processed Spectrum: 3648
>>>>>Begin Processed Spectral Data<<<<<
178.44	1468.182
178.66	1468.182
178.87	1468.182
179.09	579.245
179.30	726.667
179.52	-1206.667
179.74	730.189
179.95	565.672
180.17	-16500.000
180.38	-14966.667
180.60	448.315
180.82	-3157.143
181.03	1048.649
181.25	-1443.478
181.46	588.889
181.68	4177.778
181.89	-1683.333
182.11	593.939
182.33	1242.857
182.54	682.456
182.76	-772.500
182.97	285.714
183.19	802.222
183.40	4522.222
183.62	537.805
183.84	545.333
184.05	771.739
184.27	525.926
184.48	-1888.889
184.70	494.624
184.91	593.421
185.13	536.842
185.34	415.054
185.56	1062.500
185.78	1679.167
185.99	2118.750
186.21	515.000
186.42	683.333
186.64	427.957
186.85	804.167
187.07	-4380.000
187.28	-1800.000
187.50	-37600.000
187.72	34500.000
187.93	-2087.500
188.15	1186.047
188.36	628.378
188.58	591.892
188.79	-5771.429
189.01	-2976.923
189.22	1648.000
189.44	503.488
189.65	513.636
189.87	-5557.143
190.09	1082.353
190.30	1078.947
190.52	1919.048
190.73	6216.667
190.95	986.842
191.16	421.519
191.38	3081.818
191.59	2792.857
191.81	1370.588
192.02	880.851
192.24	732.653
192.45	2170.588
192.67	407.792
192.88	469.388
193.10	662.121
193.31	442.424
193.53	973.684
193.74	-33500.000
193.96	571.831
194.18	371.698
194.39	398.913
194.61	495.370
194.82	355.085
195.04	386.916
195.25	0.000
195.47	-37100.000
195.68	418.000
195.90	474.118
196.11	528.916
196.33	930.233
196.54	434.862
196.76	1157.576
196.97	-3441.667
197.19	472.093
197.40	843.860
197.62	881.132
197.83	425.000
198.05	635.616
198.26	0.000
198.48	-740.000
198.69	1303.333
198.91	4957.143
199.12	-7625.000
199.34	482.222
199.55	-35900.000
199.77	2522.222
199.98	583.099
200.20	330.579
200.41	590.789
200.63	1214.706
200.84	-3100.000
201.06	479.747
201.27	1644.000
201.49	878.723
201.70	466.667
201.91	647.887
202.13	620.896
202.34	-1620.000
202.56	288.028
202.77	4587.500
202.99	6337.500
203.20	623.188
203.42	1205.405
203.63	4350.000
203.85	403.361
204.06	744.231
204.28	345.763
204.49	1233.333
204.71	-996.875
204.92	358.696
205.14	1519.355
205.35	988.095
205.56	371.429
205.78	-878.000
205.99	1017.949
206.21	647.368
206.42	601.515
206.64	1539.130
206.85	502.410
207.07	-541.935
207.28	1552.000
207.50	450.000
207.71	752.083
207.93	11433.333
208.14	1065.789
208.35	-2850.000
208.57	-979.310
208.78	320.979
209.00	972.500
209.21	450.495
209.43	-5916.667
209.64	276.136
209.86	596.491
210.07	840.476
210.28	1193.103
210.50	6166.667
210.71	1180.645
210.93	-2286.667
211.14	636.364
211.36	402.083
211.57	1503.704
211.78	4588.889
212.00	-2211.111
212.21	873.171
212.43	817.857
212.64	448.780
212.86	1791.304
213.07	567.647
213.29	2435.714
213.50	302.381
213.71	489.157
213.93	327.692
214.14	380.342
214.36	401.176
214.57	-4720.000
214.78	1074.359
215.00	369.421
215.21	1017.500
215.43	1552.000
215.64	371.296
215.86	394.340
216.07	9550.000
216.28	662.687
216.50	490.196
216.71	1427.586
216.93	-920.930
217.14	414.141
217.35	742.857
217.57	313.675
217.78	682.258
218.00	378.788
218.21	519.718
218.42	1562.963
218.64	2446.667
218.85	832.143
219.07	345.378
219.28	575.385
219.49	394.495
219.71	680.000
219.92	1288.000
220.14	893.478
220.35	3900.000
220.56	921.951
220.78	1000.000
220.99	480.000
221.21	562.162
221.42	471.622
221.63	8375.000
221.85	1428.571
222.06	1166.667
222.28	524.051
222.49	438.710
222.70	413.000
222.92	687.719
223.13	1844.444
223.34	984.375
223.56	342.520
223.77	256.250
223.99	470.000
224.20	245.890
224.41	478.667
224.63	421.429
224.84	320.000
225.05	334.400
225.27	631.373
225.48	393.939
225.69	407.292
225.91	471.084
226.12	240.816
226.34	186.592
226.55	180.851
226.76	197.368
226.98	251.875
227.19	166.176
227.40	183.117
227.62	178.155
227.83	129.282
228.04	125.000
228.26	109.610
228.47	89.247
228.69	68.776
228.90	68.073
229.11	59.762
229.33	54.951
229.54	42.721
229.75	45.550
229.97	50.179
230.18	38.997
230.39	34.708
230.61	37.565
230.82	41.324
231.03	40.193
231.25	48.474
231.46	48.635
231.67	40.331
231.89	55.270
232.10	49.296
232.31	64.371
232.53	68.949
232.74	67.087
232.95	64.511
233.17	70.979
233.38	66.667
233.59	82.278
233.81	83.562
234.02	79.024
234.23	82.404
234.45	79.904
234.66	70.364
234.87	62.171
235.09	63.902
235.30	55.378
235.51	58.491
235.73	57.269
235.94	59.248
236.15	65.556
236.36	56.449
236.58	54.410
236.79	70.505
237.00	59.151
237.22	55.714
237.43	58.790
237.64	64.333
237.86	52.493
238.07	61.897
238.28	54.074
238.50	53.704
238.71	65.414
238.92	55.680
239.13	58.748
239.35	53.824
239.56	56.463
239.77	69.031
239.99	44.129
240.20	48.247
240.41	46.788
240.63	44.823
240.84	39.929
241.05	40.811
241.26	38.222
241.48	33.102
241.69	34.953
241.90	25.736
242.12	28.157
242.33	24.847
242.54	21.865
242.75	19.356
242.97	21.875
243.18	18.433
243.39	19.787
243.61	16.942
243.82	16.505
244.03	17.256
244.24	16.485
244.46	17.696
244.67	19.504
244.88	21.053
245.09	20.633
245.31	21.476
245.52	19.461
245.73	28.667
245.95	32.500
246.16	21.866
246.37	16.982
246.58	17.263
246.80	20.523
247.01	14.140
247.22	13.917
247.43	10.738
247.65	11.846
247.86	13.152
248.07	10.172
248.28	8.086
248.50	9.534
248.71	11.147
248.92	8.256
249.13	10.044
249.35	7.398
249.56	11.592
249.77	11.616
249.98	13.051
250.20	15.911
250.41	12.737
250.62	17.318
250.83	18.909
251.05	18.909
251.26	25.223
251.47	24.519
251.68	22.971
251.90	18.743
252.11	19.203
252.32	19.707
252.53	17.558
252.75	20.729
252.96	18.930
253.17	17.017
253.38	14.622
253.59	17.409
253.81	18.453
254.02	16.561
254.23	16.394
254.44	17.753
254.66	19.255
254.87	21.150
255.08	27.374
255.29	26.701
255.50	23.696
255.72	22.054
255.93	28.435
256.14	30.932
256.35	24.642
256.57	29.815
256.78	24.287
256.99	26.512
257.20	31.971
257.41	26.356
257.63	27.175
257.84	22.056
258.05	27.273
258.26	19.157
258.47	18.492
258.69	17.034
258.90	15.451
259.11	17.129
259.32	13.691
259.53	13.342
259.75	12.570
259.96	10.911
260.17	9.683
260.38	9.313
260.59	8.278
260.81	7.339
261.02	6.948
261.23	8.009
261.44	7.683
261.65	7.268
261.87	7.847
262.08	8.758
262.29	8.618
262.50	11.561
262.71	10.562
262.92	12.414
263.14	12.775
263.35	14.300
263.56	18.061
263.77	16.599
263.98	16.459
264.20	18.591
264.41	15.591
264.62	15.697
264.83	14.872
265.04	18.606
265.25	15.018
265.47	19.638
265.68	20.071
265.89	19.943
266.10	14.381
266.31	16.703
266.52	17.700
266.74	14.164
266.95	14.129
267.16	13.670
267.37	15.114
267.58	14.082
267.79	14.254
268.01	8.551
268.22	13.741
268.43	14.801
268.64	12.149
268.85	13.767
269.06	12.748
269.27	13.271
269.49	11.679
269.70	13.392
269.91	12.187
270.12	13.992
270.33	14.351
270.54	12.810
270.75	13.051
270.97	11.373
271.18	12.851
271.39	12.123
271.60	12.899
271.81	10.308
272.02	10.633
272.23	9.965
272.45	9.405
272.66	9.219
272.87	10.267
273.08	8.929
273.29	10.086
273.50	9.956
273.71	11.644
273.92	8.384
274.14	10.166
274.35	9.166
274.56	8.508
274.77	9.902
274.98	9.512
275.19	12.582
275.40	9.426
275.61	9.378
275.83	12.194
276.04	10.597
276.25	13.386
276.46	11.636
276.67	12.879
276.88	11.689
277.09	10.100
277.30	12.777
277.51	12.107
277.73	10.074
277.94	12.785
278.15	10.871
278.36	10.953
278.57	10.638
278.78	10.887
278.99	11.383
279.20	14.316
279.41	14.428
279.62	8.944
279.84	11.157
280.05	11.151
280.26	11.492
280.47	10.831
280.68	12.327
280.89	10.995
281.10	12.038
281.31	13.304
281.52	9.505
281.73	10.212
281.94	9.126
282.16	10.337
282.37	10.410
282.58	10.707
282.79	11.570
283.00	10.239
283.21	9.499
283.42	8.064
283.63	9.991
283.84	9.947
284.05	8.841
284.26	10.177
284.47	8.723
284.68	9.066
284.89	6.694
285.11	8.847
285.32	9.087
285.53	10.595
285.74	8.791
285.95	7.146
286.16	8.871
286.37	7.631
286.58	8.093
286.79	7.211
287.00	8.454
287.21	7.844
287.42	8.316
287.63	6.682
287.84	7.425
288.05	8.387
288.26	7.986
288.48	7.636
288.69	7.718
288.90	9.218
289.11	8.340
289.32	6.792
289.53	7.398
289.74	6.511
289.95	8.623
290.16	8.634
290.37	6.855
290.58	8.241
290.79	7.413
291.00	6.580
291.21	7.143
291.42	7.536
291.63	8.889
291.84	7.839
292.05	7.607
292.26	6.299
292.47	8.195
292.68	7.109
292.89	6.886
293.10	9.619
293.31	7.309
293.52	8.268
293.73	8.215
293.94	9.131
294.15	9.577
294.36	9.755
294.57	9.281
294.79	9.663
295.00	8.335
295.21	9.157
295.42	8.414
295.63	9.492
295.84	7.456
296.05	7.102
296.26	7.294
296.47	8.455
296.68	6.713
296.89	8.581
297.10	6.870
297.31	8.559
297.52	6.996
297.73	6.443
297.94	6.082
298.15	6.392
298.36	5.866
298.57	5.787
298.78	6.453
298.99	6.571
299.20	5.960
299.41	6.209
299.62	6.470
299.83	5.809
300.04	6.616
300.25	8.302
300.46	8.006
300.67	8.973
300.88	7.316
301.09	7.265
301.30	9.180
301.50	6.791
301.71	9.275
301.92	9.959
302.13	7.195
302.34	6.193
302.55	8.717
302.76	7.177
302.97	7.892
303.18	7.510
303.39	8.448
303.60	8.511
303.81	9.429
304.02	6.737
304.23	8.803
304.44	7.697
304.65	8.916
304.86	7.010
305.07	7.282
305.28	7.499
305.49	7.562
305.70	8.569
305.91	8.488
306.12	8.224
306.33	7.576
306.54	7.952
306.75	8.496
306.96	8.226
307.17	5.964
307.38	10.152
307.58	6.889
307.79	9.495
308.00	8.657
308.21	10.453
308.42	7.942
308.63	8.637
308.84	9.323
309.05	8.640
309.26	6.372
309.47	5.955
309.68	8.059
309.89	9.101
310.10	7.500
310.31	7.203
310.52	6.175
310.73	7.659
310.94	5.756
311.14	7.712
311.35	6.392
311.56	6.142
311.77	6.784
311.98	5.798
312.19	6.126
312.40	6.198
312.61	5.033
312.82	8.719
313.03	7.170
313.24	6.860
313.45	5.896
313.66	7.461
313.86	7.084
314.07	7.872
314.28	8.373
314.49	7.564
314.70	8.362
314.91	8.530
315.12	7.344
315.33	7.810
315.54	7.900
315.75	6.985
315.96	7.616
316.16	8.140
316.37	9.941
316.58	7.900
316.79	8.129
317.00	8.714
317.21	9.363
317.42	9.762
317.63	9.468
317.84	9.431
318.05	9.128
318.25	8.040
318.46	8.197
318.67	6.752
318.88	8.600
319.09	7.563
319.30	9.045
319.51	7.678
319.72	8.790
319.93	8.825
320.13	8.186
320.34	10.291
320.55	7.319
320.76	8.991
320.97	7.496
321.18	10.447
321.39	8.531
321.60	9.032
321.80	10.501
322.01	9.275
322.22	9.299
322.43	9.395
322.64	7.580
322.85	9.711
323.06	8.409
323.27	8.254
323.47	9.831
323.68	9.545
323.89	8.429
324.10	9.221
324.31	7.397
324.52	7.799
324.73	8.522
324.93	6.797
325.14	7.284
325.35	8.927
325.56	8.426
325.77	8.712
325.98	7.854
326.19	7.189
326.39	5.568
326.60	7.287
326.81	6.113
327.02	8.025
327.23	6.528
327.44	8.192
327.64	5.001
327.85	8.168
328.06	6.590
328.27	8.791
328.48	7.657
328.69	7.532
328.90	7.538
329.10	7.103
329.31	7.708
329.52	8.287
329.73	8.712
329.94	8.348
330.15	8.181
330.35	9.406
330.56	10.139
330.77	7.413
330.98	9.544
331.19	8.300
331.39	9.139
331.60	7.724
331.81	6.547
332.02	9.037
332.23	9.994
332.44	7.736
332.64	8.856
332.85	8.508
333.06	6.835
333.27	7.407
333.48	7.078
333.68	6.378
333.89	8.716
334.10	5.713
334.31	7.981
334.52	7.923
334.72	6.593
334.93	7.327
335.14	6.048
335.35	7.711
335.56	8.474
335.76	6.556
335.97	8.564
336.18	6.458
336.39	7.730
336.60	7.414
336.80	5.984
337.01	8.133
337.22	6.798
337.43	8.260
337.64	7.293
337.84	8.487
338.05	7.160
338.26	7.804
338.47	6.891
338.68	5.400
338.88	7.932
339.09	7.312
339.30	6.593
339.51	7.296
339.71	8.262
339.92	6.971
340.13	6.352
340.34	7.502
340.55	6.923
340.75	6.440
340.96	5.794
341.17	8.360
341.38	7.203
341.58	7.197
341.79	6.932
342.00	6.169
342.21	6.426
342.41	7.025
342.62	6.536
342.83	8.208
343.04	6.921
343.24	6.543
343.45	6.608
343.66	6.833
343.87	6.573
344.07	5.913
344.28	6.480
344.49	6.982
344.70	6.354
344.90	6.274
345.11	6.848
345.32	6.413
345.53	6.424
345.73	5.851
345.94	6.979
346.15	5.984
346.36	5.950
346.56	6.304
346.77	5.472
346.98	6.725
347.19	7.126
347.39	4.668
347.60	6.302
347.81	6.731
348.02	7.825
348.22	5.610
348.43	6.864
348.64	7.385
348.84	5.645
349.05	5.863
349.26	7.146
349.47	5.089
349.67	7.053
349.88	6.668
350.09	5.959
350.30	7.352
350.50	5.439
350.71	6.104
350.92	6.028
351.12	6.272
351.33	5.977
351.54	6.359
351.74	6.262
351.95	6.543
352.16	6.243
352.37	7.320
352.57	6.068
352.78	5.515
352.99	5.758
353.19	7.732
353.40	6.419
353.61	6.776
353.82	7.195
354.02	6.454
354.23	6.205
354.44	6.041
354.64	5.947
354.85	6.471
355.06	6.254
355.26	5.733
355.47	6.046
355.68	6.609
355.88	5.782
356.09	5.265
356.30	4.890
356.51	5.550
356.71	4.626
356.92	4.072
357.13	6.340
357.33	6.038
357.54	4.688
357.75	5.000
357.95	5.298
358.16	4.960
358.37	6.167
358.57	4.877
358.78	5.011
358.99	5.039
359.19	5.268
359.40	5.215
359.61	5.126
359.81	6.309
360.02	6.353
360.23	5.264
360.43	5.123
360.64	4.443
360.85	5.244
361.05	4.649
361.26	5.158
361.47	5.124
361.67	4.233
361.88	3.706
362.09	4.588
362.29	3.623
362.50	3.477
362.70	3.614
362.91	4.603
363.12	3.629
363.32	3.145
363.53	3.672
363.74	3.914
363.94	3.439
364.15	4.419
364.36	4.870
364.56	4.322
364.77	5.216
364.98	5.855
365.18	5.245
365.39	5.733
365.59	4.150
365.80	4.580
366.01	5.211
366.21	5.109
366.42	4.543
366.63	4.972
366.83	4.180
367.04	4.095
367.24	5.274
367.45	4.192
367.66	3.819
367.86	5.186
368.07	4.304
368.28	4.840
368.48	4.833
368.69	4.022
368.89	4.853
369.10	4.904
369.31	5.753
369.51	5.374
369.72	5.387
369.92	5.171
370.13	5.060
370.34	4.860
370.54	4.300
370.75	4.697
370.95	4.736
371.16	4.691
371.37	4.168
371.57	4.513
371.78	4.083
371.98	5.169
372.19	4.405
372.40	4.512
372.60	4.938
372.81	4.447
373.01	4.046
373.22	4.149
373.43	4.764
373.63	4.350
373.84	4.555
374.04	3.862
374.25	4.766
374.46	3.870
374.66	6.058
374.87	4.549
375.07	4.735
375.28	4.185
375.48	3.967
375.69	4.060
375.90	4.011
376.10	4.167
376.31	3.777
376.51	3.990
376.72	3.393
376.92	3.165
377.13	3.706
377.34	4.927
377.54	3.925
377.75	4.803
377.95	4.466
378.16	4.511
378.36	4.002
378.57	3.264
378.77	4.213
378.98	3.507
379.19	3.773
379.39	3.300
379.60	4.526
379.80	4.139
380.01	4.300
380.21	3.722
380.42	4.764
380.62	3.609
380.83	4.143
381.04	3.472
381.24	4.531
381.45	3.583
381.65	3.790
381.86	3.324
382.06	4.792
382.27	3.463
382.47	4.138
382.68	4.364
382.88	4.626
383.09	4.445
383.29	4.566
383.50	4.379
383.71	4.372
383.91	3.740
384.12	3.533
384.32	3.262
384.53	3.867
384.73	3.497
384.94	2.732
385.14	3.338
385.35	3.383
385.55	3.965
385.76	3.617
385.96	3.393
386.17	3.162
386.37	3.429
386.58	4.357
386.78	4.395
386.99	3.317
387.19	3.371
387.40	3.308
387.60	3.988
387.81	3.598
388.01	3.355
388.22	3.906
388.42	3.710
388.63	4.851
388.83	4.174
389.04	3.723
389.24	3.358
389.45	3.788
389.65	3.463
389.86	3.613
390.06	3.655
390.27	3.456
390.47	3.556
390.68	3.403
390.88	4.016
391.09	3.991
391.29	3.653
391.50	3.601
391.70	3.551
391.91	3.267
392.11	3.256
392.32	3.500
392.52	3.185
392.73	3.481
392.93	3.156
393.14	3.401
393.34	2.786
393.55	3.831
393.75	3.145
393.95	3.296
394.16	3.728
394.36	3.620
394.57	3.069
394.77	3.467
394.98	3.244
395.18	3.772
395.39	3.070
395.59	3.492
395.80	2.722
396.00	3.143
396.21	3.509
396.41	3.227
396.61	3.545
396.82	4.056
397.02	4.227
397.23	4.470
397.43	3.043
397.64	3.337
397.84	3.931
398.05	3.078
398.25	4.100
398.45	3.129
398.66	3.975
398.86	3.474
399.07	3.847
399.27	3.373
399.48	4.149
399.68	3.205
399.89	3.512
400.09	4.028
400.29	3.809
400.50	3.846
400.70	3.940
400.91	3.928
401.11	2.857
401.32	4.441
401.52	3.153
401.72	3.198
401.93	4.237
402.13	3.803
402.34	3.537
402.54	3.008
402.75	4.633
402.95	2.981
403.15	3.994
403.36	3.362
403.56	3.750
403.77	3.254
403.97	3.651
404.17	3.777
404.38	3.272
404.58	2.905
404.79	3.194
404.99	3.264
405.19	2.910
405.40	2.981
405.60	3.463
405.81	3.086
406.01	3.172
406.21	2.871
406.42	3.092
406.62	3.362
406.83	3.772
407.03	3.488
407.23	3.090
407.44	3.279
407.64	3.286
407.85	3.135
408.05	3.705
408.25	3.292
408.46	3.698
408.66	3.475
408.87	3.685
409.07	3.606
409.27	3.018
409.48	4.074
409.68	3.755
409.88	2.911
410.09	3.185
410.29	3.827
410.50	4.327
410.70	3.197
410.90	2.936
411.11	3.212
411.31	3.106
411.51	3.989
411.72	3.415
411.92	2.743
412.12	3.536
412.33	3.217
412.53	3.015
412.74	3.028
412.94	3.547
413.14	3.666
413.35	3.430
413.55	3.962
413.75	3.963
413.96	3.638
414.16	3.633
414.36	3.585
414.57	3.621
414.77	3.146
414.97	3.350
415.18	3.043
415.38	3.284
415.58	3.878
415.79	3.366
415.99	3.121
416.19	3.190
416.40	3.333
416.60	3.230
416.80	2.567
417.01	2.521
417.21	2.750
417.41	2.896
417.62	2.848
417.82	2.460
418.02	2.178
418.23	2.658
418.43	2.328
418.63	2.820
418.84	2.442
419.04	2.243
419.24	2.703
419.45	2.332
419.65	2.488
419.85	2.560
420.06	2.461
420.26	2.246
420.46	2.122
420.67	2.211
420.87	2.318
421.07	2.523
421.28	2.195
421.48	2.545
421.68	2.207
421.88	2.252
422.09	2.036
422.29	1.835
422.49	1.725
422.70	2.122
422.90	2.128
423.10	1.963
423.31	2.083
423.51	2.226
423.71	2.047
423.91	2.109
424.12	2.191
424.32	2.030
424.52	2.361
424.73	1.823
424.93	2.090
425.13	1.850
425.33	1.882
425.54	2.425
425.74	2.061
425.94	2.517
426.15	1.988
426.35	1.907
426.55	2.630
426.75	1.869
426.96	2.008
427.16	2.062
427.36	2.394
427.57	2.934
427.77	2.378
427.97	2.441
428.17	2.663
428.38	2.636
428.58	1.812
428.78	3.200
428.98	2.490
429.19	2.851
429.39	2.334
429.59	2.702
429.79	2.052
430.00	2.274
430.20	2.131
430.40	2.757
430.60	2.540
430.81	2.107
431.01	2.650
431.21	2.675
431.41	2.763
431.62	2.346
431.82	2.706
432.02	2.762
432.22	2.315
432.43	2.020
432.63	2.562
432.83	2.090
433.03	2.004
433.24	1.701
433.44	2.390
433.64	2.339
433.84	1.932
434.05	2.098
434.25	1.636
434.45	2.655
434.65	2.584
434.85	2.570
435.06	2.258
435.26	2.097
435.46	2.023
435.66	2.188
435.87	1.860
436.07	2.489
436.27	2.446
436.47	2.102
436.67	2.340
436.88	2.593
437.08	2.220
437.28	2.170
437.48	2.515
437.69	2.389
437.89	2.399
438.09	2.331
438.29	2.235
438.49	2.095
438.70	2.480
438.90	1.899
439.10	1.917
439.30	2.070
439.50	1.612
439.71	2.048
439.91	2.271
440.11	2.399
440.31	2.049
440.51	1.629
440.72	1.784
440.92	1.650
441.12	2.154
441.32	2.340
441.52	2.381
441.72	2.016
441.93	2.029
442.13	1.970
442.33	2.035
442.53	2.470
442.73	1.739
442.94	1.831
443.14	1.929
443.34	2.475
443.54	2.250
443.74	2.619
443.94	2.337
444.15	2.018
444.35	1.896
444.55	2.388
444.75	2.146
444.95	2.048
445.15	2.080
445.36	2.211
445.56	1.850
445.76	2.197
445.96	1.648
446.16	1.471
446.36	1.578
446.57	2.161
446.77	1.560
446.97	1.734
447.17	2.520
447.37	1.792
447.57	1.889
447.77	1.754
447.98	1.837
448.18	2.078
448.38	1.652
448.58	2.033
448.78	1.926
448.98	1.907
449.18	1.562
449.39	2.005
449.59	1.856
449.79	1.982
449.99	1.902
450.19	2.150
450.39	1.815
450.59	1.950
450.79	1.955
451.00	2.494
451.20	3.308
451.40	1.988
451.60	2.011
451.80	2.334
452.00	2.505
452.20	2.156
452.40	2.200
452.61	2.413
452.81	2.033
453.01	2.037
453.21	1.787
453.41	2.091
453.61	2.260
453.81	2.235
454.01	2.204
454.21	2.237
454.42	2.563
454.62	2.433
454.82	2.054
455.02	1.996
455.22	1.807
455.42	2.234
455.62	1.888
455.82	2.151
456.02	2.051
456.23	1.622
456.43	2.542
456.63	1.737
456.83	1.567
457.03	1.852
457.23	2.086
457.43	2.301
457.63	1.958
457.83	2.697
458.03	1.814
458.23	1.973
458.43	2.437
458.64	1.963
458.84	2.401
459.04	2.166
459.24	1.892
459.44	2.056
459.64	2.238
459.84	1.962
460.04	1.737
460.24	1.519
460.44	1.664
460.64	1.842
460.84	1.651
461.04	2.105
461.24	1.840
461.45	2.107
461.65	2.023
461.85	2.041
462.05	1.811
462.25	1.993
462.45	2.496
462.65	1.967
462.85	1.964
463.05	2.383
463.25	1.884
463.45	2.163
463.65	1.939
463.85	1.961
464.05	2.194
464.25	2.169
464.45	2.601
464.65	2.108
464.85	2.210
465.05	1.887
465.26	2.227
465.46	2.253
465.66	2.406
465.86	2.267
466.06	2.399
466.26	1.790
466.46	2.085
466.66	1.871
466.86	2.425
467.06	2.248
467.26	2.066
467.46	2.501
467.66	1.960
467.86	1.679
468.06	2.084
468.26	1.866
468.46	2.085
468.66	2.128
468.86	1.760
469.06	2.165
469.26	1.989
469.46	2.093
469.66	2.069
469.86	2.090
470.06	2.143
470.26	2.615
470.46	2.124
470.66	2.600
470.86	1.663
471.06	1.999
471.26	1.719
471.46	1.720
471.66	2.289
471.86	1.948
472.06	2.198
472.26	2.761
472.46	2.511
472.66	2.304
472.86	1.968
473.06	2.255
473.26	2.259
473.46	2.020
473.66	1.795
473.86	2.302
474.06	1.956
474.26	2.359
474.46	1.652
474.66	2.388
474.86	2.220
475.06	2.227
475.26	1.971
475.46	2.292
475.66	1.449
475.86	1.784
476.06	2.601
476.26	2.460
476.46	1.897
476.66	1.996
476.86	2.099
477.06	1.947
477.26	2.106
477.46	1.739
477.65	2.374
477.85	2.077
478.05	1.753
478.25	2.127
478.45	1.935
478.65	2.004
478.85	1.759
479.05	1.831
479.25	1.961
479.45	2.022
479.65	1.601
479.85	1.976
480.05	1.818
480.25	1.932
480.45	1.992
480.65	2.506
480.85	1.921
481.05	2.252
481.25	2.307
481.44	1.923
481.64	1.597
481.84	2.404
482.04	2.093
482.24	2.001
482.44	1.365
482.64	1.841
482.84	1.930
483.04	2.032
483.24	2.050
483.44	1.966
483.64	1.919
483.84	2.071
484.04	2.084
484.23	2.171
484.43	2.306
484.63	2.575
484.83	2.215
485.03	2.896
485.23	2.562
485.43	2.538
485.63	2.398
485.83	2.556
486.03	2.400
486.23	2.585
486.42	2.146
486.62	2.417
486.82	1.912
487.02	2.215
487.22	1.914
487.42	2.354
487.62	2.216
487.82	2.069
488.02	2.080
488.22	2.416
488.41	2.260
488.61	2.295
488.81	2.128
489.01	2.526
489.21	2.529
489.41	2.517
489.61	2.408
489.81	2.565
490.01	2.324
490.20	2.372
490.40	2.068
490.60	2.327
490.80	2.128
491.00	2.312
491.20	2.141
491.40	1.987
491.60	2.053
491.79	2.210
491.99	2.230
492.19	2.204
492.39	2.471
492.59	2.516
492.79	2.352
492.99	2.692
493.19	2.511
493.38	2.680
493.58	2.204
493.78	2.323
493.98	2.690
494.18	2.747
494.38	2.278
494.58	2.425
494.77	1.748
494.97	2.291
495.17	2.024
495.37	2.308
495.57	2.350
495.77	2.306
495.96	2.344
496.16	2.225
496.36	2.316
496.56	2.720
496.76	1.910
496.96	1.994
497.15	2.020
497.35	2.070
497.55	2.109
497.75	2.397
497.95	1.839
498.15	2.535
498.34	2.483
498.54	2.041
498.74	2.676
498.94	2.516
499.14	2.081
499.34	2.924
499.53	2.206
499.73	2.800
499.93	2.309
500.13	2.258
500.33	1.998
500.52	2.575
500.72	2.090
500.92	2.360
501.12	1.716
501.32	2.233
501.52	2.521
501.71	2.204
501.91	2.394
502.11	2.395
502.31	2.329
502.51	2.401
502.70	2.409
502.90	2.544
503.10	2.253
503.30	2.744
503.50	2.584
503.69	2.294
503.89	2.836
504.09	2.734
504.29	2.457
504.48	2.763
504.68	2.776
504.88	2.628
505.08	2.211
505.28	2.471
505.47	2.633
505.67	3.404
505.87	2.540
506.07	2.414
506.27	2.550
506.46	2.889
506.66	2.672
506.86	2.782
507.06	3.209
507.25	2.713
507.45	2.507
507.65	3.450
507.85	2.460
508.04	3.288
508.24	2.606
508.44	2.763
508.64	2.495
508.83	2.949
509.03	2.580
509.23	2.996
509.43	2.456
509.63	2.945
509.82	2.531
510.02	2.717
510.22	2.874
510.42	3.094
510.61	3.152
510.81	2.964
511.01	2.970
511.21	3.233
511.40	2.723
511.60	3.192
511.80	3.012
511.99	3.297
512.19	3.005
512.39	3.245
512.59	2.669
512.78	3.575
512.98	3.482
513.18	2.841
513.38	3.228
513.57	3.683
513.77	3.310
513.97	3.277
514.17	3.171
514.36	3.154
514.56	3.344
514.76	3.787
514.95	2.708
515.15	3.333
515.35	2.735
515.55	3.333
515.74	3.352
515.94	3.409
516.14	2.697
516.33	3.457
516.53	3.134
516.73	3.195
516.93	3.216
517.12	4.257
517.32	2.724
517.52	3.387
517.71	3.144
517.91	3.530
518.11	3.607
518.30	3.338
518.50	2.688
518.70	3.275
518.90	3.669
519.09	3.696
519.29	3.943
519.49	3.966
519.68	3.423
519.88	4.218
520.08	3.890
520.27	4.005
520.47	3.880
520.67	3.728
520.86	3.946
521.06	4.631
521.26	3.293
521.45	3.987
521.65	3.587
521.85	3.823
522.04	3.317
522.24	3.928
522.44	3.319
522.63	3.736
522.83	3.675
523.03	4.096
523.22	3.723
523.42	4.436
523.62	4.136
523.81	3.862
524.01	4.000
524.21	3.820
524.40	3.287
524.60	3.971
524.80	3.702
524.99	3.817
525.19	3.941
525.39	4.515
525.58	3.778
525.78	3.978
525.98	3.958
526.17	4.540
526.37	4.135
526.57	4.532
526.76	4.589
526.96	4.371
527.15	4.309
527.35	4.460
527.55	4.229
527.74	4.882
527.94	4.568
528.14	4.549
528.33	4.415
528.53	4.699
528.72	4.474
528.92	5.014
529.12	4.716
529.31	4.961
529.51	4.947
529.71	5.036
529.90	4.995
530.10	5.134
530.29	5.191
530.49	5.241
530.69	5.260
530.88	5.328
531.08	5.117
531.28	5.074
531.47	5.074
531.67	5.215
531.86	4.820
532.06	4.934
532.26	4.759
532.45	5.008
532.65	4.816
532.84	4.978
533.04	4.496
533.24	4.782
533.43	4.707
533.63	5.224
533.82	5.066
534.02	5.216
534.22	5.159
534.41	5.332
534.61	5.452
534.80	5.388
535.00	5.300
535.19	5.425
535.39	5.510
535.59	5.699
535.78	5.135
535.98	5.677
536.17	5.020
536.37	5.231
536.57	5.054
536.76	5.619
536.96	5.052
537.15	5.825
537.35	5.078
537.54	5.353
537.74	5.444
537.93	5.762
538.13	5.307
538.33	5.613
538.52	5.562
538.72	5.720
538.91	5.581
539.11	5.789
539.30	5.261
539.50	5.800
539.70	5.607
539.89	6.203
540.09	5.621
540.28	5.497
540.48	5.287
540.67	5.935
540.87	5.469
541.06	5.833
541.26	5.585
541.45	5.971
541.65	5.785
541.85	6.161
542.04	5.931
542.24	6.433
542.43	6.143
542.63	6.416
542.82	6.266
543.02	6.536
543.21	6.306
543.41	6.624
543.60	6.542
543.80	6.811
543.99	6.275
544.19	6.760
544.38	6.559
544.58	6.605
544.77	6.368
544.97	7.085
545.16	6.359
545.36	6.652
545.56	6.536
545.75	6.939
545.95	6.266
546.14	6.920
546.34	6.214
546.53	6.881
546.73	6.426
546.92	6.804
547.12	6.368
547.31	7.266
547.51	6.641
547.70	7.037
547.90	6.655
548.09	7.070
548.29	6.828
548.48	7.380
548.68	7.286
548.87	7.700
549.07	7.248
549.26	7.046
549.46	7.542
549.65	7.332
549.84	7.151
550.04	7.324
550.23	6.497
550.43	7.524
550.62	7.213
550.82	7.250
551.01	6.785
551.21	7.604
551.40	7.574
551.60	7.436
551.79	6.854
551.99	7.582
552.18	7.364
552.38	7.689
552.57	8.058
552.77	8.145
552.96	8.448
553.16	8.196
553.35	8.489
553.54	8.936
553.74	8.333
553.93	8.938
554.13	9.016
554.32	8.702
554.52	8.220
554.71	9.377
554.91	7.978
555.10	9.435
555.29	8.453
555.49	9.402
555.68	8.636
555.88	9.533
556.07	8.368
556.27	9.762
556.46	9.501
556.66	9.910
556.85	9.668
557.04	10.059
557.24	9.236
557.43	10.298
557.63	9.534
557.82	9.796
558.02	9.937
558.21	10.799
558.40	9.905
558.60	10.281
558.79	10.202
558.99	10.888
559.18	10.155
559.38	10.627
559.57	11.151
559.76	11.175
559.96	11.374
560.15	11.260
560.35	10.498
560.54	10.864
560.73	10.182
560.93	11.645
561.12	11.198
561.32	11.689
561.51	11.504
561.70	12.360
561.90	11.466
562.09	12.350
562.29	12.158
562.48	12.483
562.67	12.122
562.87	13.212
563.06	12.244
563.26	12.873
563.45	12.556
563.64	13.637
563.84	12.747
564.03	13.680
564.23	12.443
564.42	14.136
564.61	13.383
564.81	13.827
565.00	13.890
565.20	13.926
565.39	14.233
565.58	14.102
565.78	13.875
565.97	14.316
566.16	14.477
566.36	14.724
566.55	14.484
566.74	14.785
566.94	14.697
567.13	15.453
567.33	14.813
567.52	15.206
567.71	14.994
567.91	15.276
568.10	15.566
568.29	15.426
568.49	15.287
568.68	15.793
568.87	15.755
569.07	16.028
569.26	15.549
569.45	16.162
569.65	15.739
569.84	16.153
570.04	15.632
570.23	16.517
570.42	15.693
570.62	16.341
570.81	16.473
571.00	16.400
571.20	16.579
571.39	16.508
571.58	16.633
571.78	16.617
571.97	16.493
572.16	16.968
572.36	16.606
572.55	17.151
572.74	16.433
572.94	16.833
573.13	16.936
573.32	17.498
573.51	16.777
573.71	16.966
573.90	16.994
574.09	17.543
574.29	17.275
574.48	17.495
574.67	17.409
574.87	17.767
575.06	16.861
575.25	17.632
575.45	17.638
575.64	17.403
575.83	17.621
576.03	18.076
576.22	17.150
576.41	17.631
576.60	17.442
576.80	17.650
576.99	17.769
577.18	18.270
577.38	17.511
577.57	17.831
577.76	18.314
577.95	18.144
578.15	17.299
578.34	17.817
578.53	17.326
578.73	17.724
578.92	16.966
579.11	18.072
579.30	18.266
579.50	18.043
579.69	17.891
579.88	17.922
580.08	16.972
580.27	17.698
580.46	17.490
580.65	17.394
580.85	17.468
581.04	18.302
581.23	16.313
581.42	17.740
581.62	16.923
581.81	18.158
582.00	17.256
582.19	17.797
582.39	17.585
582.58	17.418
582.77	18.048
582.96	17.633
583.16	16.643
583.35	17.923
583.54	17.048
583.73	17.427
583.93	17.593
584.12	16.860
584.31	15.932
584.50	17.195
584.70	16.992
584.89	17.799
585.08	16.425
585.27	17.929
585.47	16.321
585.66	17.804
585.85	16.628
586.04	16.295
586.24	17.663
586.43	16.527
586.62	17.037
586.81	16.878
587.00	16.005
587.20	17.112
587.39	16.279
587.58	17.357
587.77	16.281
587.97	16.711
588.16	16.673
588.35	17.426
588.54	16.530
588.73	17.045
588.93	16.796
589.12	17.468
589.31	16.641
589.50	16.068
589.69	17.101
589.89	17.622
590.08	15.912
590.27	16.847
590.46	16.419
590.65	16.996
590.85	15.510
591.04	17.395
591.23	16.532
591.42	16.576
591.61	16.397
591.81	16.966
592.00	16.088
592.19	16.911
592.38	16.522
592.57	16.964
592.77	17.153
592.96	16.580
593.15	17.382
593.34	17.132
593.53	16.515
593.72	16.808
593.92	16.244
594.11	17.730
594.30	16.329
594.49	18.042
594.68	17.599
594.87	17.331
595.07	16.223
595.26	17.794
595.45	16.356
595.64	17.618
595.83	16.321
596.02	17.700
596.22	17.314
596.41	17.083
596.60	17.381
596.79	17.961
596.98	17.268
597.17	18.070
597.37	17.724
597.56	17.679
597.75	17.458
597.94	18.503
598.13	18.577
598.32	18.380
598.51	18.402
598.71	18.390
598.90	18.263
599.09	19.223
599.28	18.668
599.47	18.732
599.66	18.482
599.85	19.077
600.05	18.266
600.24	19.112
600.43	18.101
600.62	18.563
600.81	18.241
601.00	19.549
601.19	17.885
601.38	18.975
601.58	18.774
601.77	18.297
601.96	18.218
602.15	19.689
602.34	19.063
602.53	19.546
602.72	18.367
602.91	19.357
603.10	18.690
603.30	19.675
603.49	18.528
603.68	19.155
603.87	18.604
604.06	19.739
604.25	19.085
604.44	19.258
604.63	19.265
604.82	19.583
605.01	19.715
605.21	19.550
605.40	19.711
605.59	19.941
605.78	19.511
605.97	19.760
606.16	20.005
606.35	19.534
606.54	19.337
606.73	20.873
606.92	19.332
607.11	19.711
607.30	19.365
607.50	19.782
607.69	19.133
607.88	19.484
608.07	19.203
608.26	19.668
608.45	19.116
608.64	19.814
608.83	18.528
609.02	19.190
609.21	18.265
609.40	19.238
609.59	18.823
609.78	19.129
609.97	18.508
610.16	18.829
610.35	18.761
610.55	18.815
610.74	18.831
610.93	19.252
611.12	18.494
611.31	19.319
611.50	18.671
611.69	18.873
611.88	18.059
612.07	19.468
612.26	17.675
612.45	18.445
612.64	18.222
612.83	18.359
613.02	17.182
613.21	17.119
613.40	17.145
613.59	18.330
613.78	16.486
613.97	17.288
614.16	17.063
614.35	17.862
614.54	15.536
614.73	16.581
614.92	16.520
615.11	16.700
615.30	16.620
615.49	15.517
615.68	16.632
615.87	16.709
616.07	15.793
616.26	15.556
616.45	16.148
616.64	15.923
616.83	14.982
617.02	16.822
617.21	14.282
617.40	15.806
617.59	16.001
617.78	16.073
617.97	14.806
618.16	15.941
618.35	13.124
618.54	15.514
618.73	15.295
618.92	15.469
619.11	14.485
619.30	15.461
619.49	13.583
619.68	15.682
619.86	14.625
620.05	14.935
620.24	14.503
620.43	15.078
620.62	13.128
620.81	15.285
621.00	14.968
621.19	15.981
621.38	15.137
621.57	15.220
621.76	13.451
621.95	15.965
622.14	13.731
622.33	15.150
622.52	13.720
622.71	14.321
622.90	13.729
623.09	14.950
623.28	14.289
623.47	14.642
623.66	14.713
623.85	13.637
624.04	13.344
624.23	14.193
624.42	13.609
624.61	13.390
624.80	12.133
624.99	13.690
625.18	12.445
625.36	14.169
625.55	14.632
625.74	13.201
625.93	13.231
626.12	14.137
626.31	14.078
626.50	13.871
626.69	13.932
626.88	15.060
627.07	14.540
627.26	13.683
627.45	14.241
627.64	14.237
627.83	13.758
628.02	14.083
628.20	14.041
628.39	13.918
628.58	13.764
628.77	14.056
628.96	13.605
629.15	13.581
629.34	13.164
629.53	13.293
629.72	12.921
629.91	14.535
630.10	13.480
630.29	14.127
630.47	12.755
630.66	13.067
630.85	12.752
631.04	13.914
631.23	13.684
631.42	12.817
631.61	12.648
631.80	13.598
631.99	12.415
632.18	12.999
632.36	12.207
632.55	13.684
632.74	12.620
632.93	11.609
633.12	11.807
633.31	13.428
633.50	11.615
633.69	12.554
633.88	11.013
634.06	12.545
634.25	12.017
634.44	12.818
634.63	11.780
634.82	13.715
635.01	11.845
635.20	12.641
635.39	11.315
635.57	12.546
635.76	11.857
635.95	12.213
636.14	11.284
636.33	12.480
636.52	11.596
636.71	11.895
636.89	11.510
637.08	12.141
637.27	11.141
637.46	11.730
637.65	11.315
637.84	11.089
638.03	11.121
638.21	12.104
638.40	11.762
638.59	10.444
638.78	11.020
638.97	12.317
639.16	12.128
639.34	12.070
639.53	9.180
639.72	12.347
639.91	10.233
640.10	9.903
640.29	11.907
640.47	11.921
640.66	10.396
640.85	12.638
641.04	9.411
641.23	11.686
641.42	10.216
641.60	10.736
641.79	10.763
641.98	10.552
642.17	10.242
642.36	11.493
642.54	9.807
642.73	11.205
642.92	9.763
643.11	10.172
643.30	9.800
643.49	10.063
643.67	8.592
643.86	10.375
644.05	9.525
644.24	10.409
644.43	10.440
644.61	10.324
644.80	10.258
644.99	10.671
645.18	10.754
645.37	11.372
645.55	9.718
645.74	11.017
645.93	10.202
646.12	10.470
646.31	10.269
646.49	9.897
646.68	9.682
646.87	9.961
647.06	9.377
647.24	10.073
647.43	8.486
647.62	11.158
647.81	9.114
648.00	10.853
648.18	8.413
648.37	9.786
648.56	9.922
648.75	8.830
648.93	9.216
649.12	10.813
649.31	9.729
649.50	9.567
649.68	9.148
649.87	10.447
650.06	8.071
650.25	10.496
650.43	8.003
650.62	8.881
650.81	9.009
651.00	10.027
651.18	9.066
651.37	10.556
651.56	8.529
651.75	9.704
651.93	8.727
652.12	9.791
652.31	8.455
652.50	9.768
652.68	9.676
652.87	11.366
653.06	9.508
653.25	10.193
653.43	9.310
653.62	9.725
653.81	9.284
654.00	9.812
654.18	9.657
654.37	10.601
654.56	8.203
654.74	7.899
654.93	8.329
655.12	9.499
655.31	9.755
655.49	9.808
655.68	7.664
655.87	8.177
656.05	7.305
656.24	8.641
656.43	7.475
656.62	8.838
656.80	9.117
656.99	7.398
657.18	8.172
657.36	7.500
657.55	8.806
657.74	8.806
657.93	8.713
658.11	9.149
658.30	9.278
658.49	7.063
658.67	7.494
658.86	6.906
659.05	7.077
659.23	8.110
659.42	7.249
659.61	7.676
659.79	7.206
659.98	7.138
660.17	8.199
660.35	7.480
660.54	8.178
660.73	9.227
660.91	8.388
661.10	7.638
661.29	5.825
661.47	6.984
661.66	7.650
661.85	7.244
662.03	6.921
662.22	5.984
662.41	5.892
662.59	6.612
662.78	6.391
662.97	7.067
663.15	6.156
663.34	6.016
663.53	5.567
663.71	6.567
663.90	6.634
664.09	6.334
664.27	6.740
664.46	6.235
664.65	6.748
664.83	6.146
665.02	5.602
665.21	6.040
665.39	6.370
665.58	5.826
665.77	6.625
665.95	6.026
666.14	6.875
666.32	6.771
666.51	5.842
666.70	6.339
666.88	6.172
667.07	5.649
667.26	6.054
667.44	6.204
667.63	6.596
667.81	6.673
668.00	5.353
668.19	8.220
668.37	6.407
668.56	7.047
668.75	5.362
668.93	7.317
669.12	5.850
669.30	6.696
669.49	4.943
669.68	7.642
669.86	7.685
670.05	5.954
670.23	5.800
670.42	5.536
670.61	6.476
670.79	6.761
670.98	6.525
671.16	7.031
671.35	6.378
671.54	6.383
671.72	6.938
671.91	6.300
672.09	7.459
672.28	7.820
672.46	7.567
672.65	7.537
672.84	7.743
673.02	8.777
673.21	5.482
673.39	7.335
673.58	8.927
673.77	8.243
673.95	7.773
674.14	8.306
674.32	6.663
674.51	8.148
674.69	7.627
674.88	8.277
675.07	7.795
675.25	9.818
675.44	7.714
675.62	7.423
675.81	7.674
675.99	11.974
676.18	9.414
676.36	9.029
676.55	8.472
676.74	9.749
676.92	10.040
677.11	8.938
677.29	8.350
677.48	9.374
677.66	8.888
677.85	8.502
678.03	9.283
678.22	9.912
678.40	9.967
678.59	8.631
678.78	8.617
678.96	7.828
679.15	8.683
679.33	10.688
679.52	10.163
679.70	10.113
679.89	8.938
680.07	9.673
680.26	6.994
680.44	8.631
680.63	8.729
680.81	9.267
681.00	6.869
681.18	8.857
681.37	8.424
681.55	9.823
681.74	10.615
681.92	10.373
682.11	9.713
682.29	9.354
682.48	9.749
682.66	9.772
682.85	9.663
683.03	10.211
683.22	11.466
683.40	12.739
683.59	10.273
683.77	11.205
683.96	10.678
684.14	12.407
684.33	10.006
684.51	14.783
684.70	12.610
684.88	13.728
685.07	12.078
685.25	13.712
685.44	11.076
685.62	12.307
685.81	11.231
685.99	14.339
686.18	11.008
686.36	13.469
686.55	10.849
686.73	11.226
686.92	13.870
687.10	13.446
687.29	15.582
687.47	15.182
687.65	16.032
687.84	14.434
688.02	17.126
688.21	17.504
688.39	14.477
688.58	17.136
688.76	15.178
688.95	15.864
689.13	14.651
689.32	18.262
689.50	17.562
689.68	17.393
689.87	16.348
690.05	19.681
690.24	19.908
690.42	20.595
690.61	20.523
690.79	21.573
690.98	20.286
691.16	21.661
691.34	19.711
691.53	22.120
691.71	22.396
691.90	25.196
692.08	21.461
692.27	25.872
692.45	27.413
692.63	25.557
692.82	28.540
693.00	26.320
693.19	25.134
693.37	30.647
693.56	26.987
693.74	30.603
693.92	30.530
694.11	32.314
694.29	31.848
694.48	33.540
694.66	34.033
694.84	35.107
695.03	33.348
695.21	37.113
695.40	37.299
695.58	39.854
695.76	36.899
695.95	39.353
696.13	38.095
696.32	41.936
696.50	43.728
696.68	42.296
696.87	41.697
697.05	44.168
697.24	43.284
697.42	44.845
697.60	43.432
697.79	45.894
697.97	47.353
698.16	48.406
698.34	46.713
698.52	48.362
698.71	47.720
698.89	47.621
699.07	49.481
699.26	49.812
699.44	50.376
699.63	50.036
699.81	48.981
699.99	51.832
700.18	52.358
700.36	52.580
700.54	54.481
700.73	53.628
700.91	54.176
701.09	54.808
701.28	55.773
701.46	57.446
701.64	54.919
701.83	57.450
702.01	58.014
702.20	59.946
702.38	61.392
702.56	59.878
702.75	62.439
702.93	61.727
703.11	61.981
703.30	62.816
703.48	64.016
703.66	65.505
703.85	66.385
704.03	66.951
704.21	65.949
704.40	69.001
704.58	65.265
704.76	68.987
704.95	65.777
705.13	69.380
705.31	67.676
705.50	69.422
705.68	70.541
705.86	69.588
706.04	72.166
706.23	72.133
706.41	70.624
706.59	72.776
706.78	72.304
706.96	73.272
707.14	74.161
707.33	74.787
707.51	73.781
707.69	73.629
707.88	72.837
708.06	73.992
708.24	74.865
708.42	76.277
708.61	73.267
708.79	79.810
708.97	75.996
709.16	76.036
709.34	78.082
709.52	77.075
709.71	76.671
709.89	78.960
710.07	74.637
710.25	78.030
710.44	78.734
710.62	78.840
710.80	78.223
710.98	78.334
711.17	78.417
711.35	81.510
711.53	78.636
711.72	77.470
711.90	81.307
712.08	79.694
712.26	76.083
712.45	79.699
712.63	80.742
712.81	80.670
712.99	77.701
713.18	80.703
713.36	79.895
713.54	81.973
713.72	80.338
713.91	81.910
714.09	80.455
714.27	80.151
714.45	84.088
714.64	84.001
714.82	83.387
715.00	82.092
715.18	80.980
715.37	82.496
715.55	84.162
715.73	85.270
715.91	84.144
716.10	82.588
716.28	84.419
716.46	85.864
716.64	82.904
716.83	82.867
717.01	85.524
717.19	84.473
717.37	85.807
717.55	85.234
717.74	84.357
717.92	84.188
718.10	85.566
718.28	85.769
718.47	86.785
718.65	87.071
718.83	87.550
719.01	86.882
719.19	87.244
719.38	87.529
719.56	86.825
719.74	88.860
719.92	86.427
720.10	88.837
720.29	90.441
720.47	89.703
720.65	89.136
720.83	93.127
721.01	87.190
721.20	89.322
721.38	89.135
721.56	90.769
721.74	94.823
721.92	89.794
722.11	93.742
722.29	90.550
722.47	91.932
722.65	90.214
722.83	91.726
723.01	93.373
723.20	92.077
723.38	92.889
723.56	90.585
723.74	97.396
723.92	92.823
724.10	93.958
724.29	90.414
724.47	96.267
724.65	91.409
724.83	94.038
725.01	92.343
725.19	92.287
725.38	90.602
725.56	94.745
725.74	93.441
725.92	96.178
726.10	92.947
726.28	93.490
726.46	95.559
726.65	94.703
726.83	91.385
727.01	93.743
727.19	94.946
727.37	93.945
727.55	93.749
727.73	94.201
727.92	93.463
728.10	95.326
728.28	94.661
728.46	96.168
728.64	94.939
728.82	95.537
729.00	96.906
729.19	93.618
729.37	93.222
729.55	96.081
729.73	95.980
729.91	91.473
730.09	93.331
730.27	93.657
730.45	94.834
730.63	92.901
730.82	93.742
731.00	92.677
731.18	95.068
731.36	96.880
731.54	94.881
731.72	97.123
731.90	94.495
732.08	97.989
732.26	96.260
732.45	97.694
732.63	96.093
732.81	95.123
732.99	97.733
733.17	94.151
733.35	96.103
733.53	96.877
733.71	94.880
733.89	98.131
734.07	96.642
734.25	98.067
734.44	98.693
734.62	94.507
734.80	92.702
734.98	98.636
735.16	97.712
735.34	97.008
735.52	96.619
735.70	98.420
735.88	96.674
736.06	101.178
736.24	98.649
736.42	100.590
736.60	101.000
736.78	98.020
736.97	97.810
737.15	100.515
737.33	97.433
737.51	102.730
737.69	101.355
737.87	99.950
738.05	100.754
738.23	99.085
738.41	98.789
738.59	99.485
738.77	97.381
738.95	98.614
739.13	98.636
739.31	99.223
739.49	98.900
739.67	99.248
739.85	102.045
740.03	100.965
740.21	100.965
740.39	101.167
740.57	102.224
740.75	98.895
740.93	97.127
741.11	103.193
741.30	99.511
741.48	101.031
741.66	100.738
741.84	101.068
742.02	97.248
742.20	103.988
742.38	100.681
742.56	102.125
742.74	99.727
742.92	98.283
743.10	98.011
743.28	102.991
743.46	97.496
743.64	99.324
743.82	96.085
744.00	103.225
744.18	100.874
744.36	103.390
744.54	98.639
744.72	101.178
744.90	105.236
745.08	102.449
745.26	102.607
745.44	104.636
745.62	101.908
745.80	101.859
745.98	99.755
746.16	103.443
746.34	103.141
746.52	104.440
746.70	98.815
746.87	104.050
747.05	99.904
747.23	104.409
747.41	100.314
747.59	103.923
747.77	99.748
747.95	99.378
748.13	95.859
748.31	103.884
748.49	96.384
748.67	105.401
748.85	105.033
749.03	104.302
749.21	97.672
749.39	105.255
749.57	97.667
749.75	100.745
749.93	98.255
750.11	102.757
750.29	105.291
750.47	100.362
750.65	101.435
750.83	102.827
751.01	95.884
751.18	100.863
751.36	97.788
751.54	103.977
751.72	102.328
751.90	100.463
752.08	100.476
752.26	98.802
752.44	101.104
752.62	103.339
752.80	101.325
752.98	101.916
753.16	96.834
753.34	97.290
753.52	102.263
753.69	100.959
753.87	101.845
754.05	101.806
754.23	102.793
754.41	103.271
754.59	98.522
754.77	99.824
754.95	99.514
755.13	99.165
755.31	98.799
755.49	97.564
755.66	101.407
755.84	100.641
756.02	95.254
756.20	100.738
756.38	97.396
756.56	98.036
756.74	97.196
756.92	96.823
757.10	97.862
757.28	102.883
757.45	106.997
757.63	103.706
757.81	97.266
757.99	106.738
758.17	102.048
758.35	102.539
758.53	101.891
758.71	100.091
758.88	100.031
759.06	100.861
759.24	95.255
759.42	99.606
759.60	94.102
759.78	98.250
759.96	95.003
760.13	98.076
760.31	96.634
760.49	96.260
760.67	92.636
760.85	97.544
761.03	93.713
761.21	94.561
761.38	92.931
761.56	96.068
761.74	91.231
761.92	99.819
762.10	86.882
762.28	94.978
762.46	92.175
762.63	91.286
762.81	91.443
762.99	93.041
763.17	93.709
763.35	93.872
763.53	93.854
763.70	94.279
763.88	99.335
764.06	95.675
764.24	93.581
764.42	94.182
764.60	96.097
764.77	94.042
764.95	94.606
765.13	94.491
765.31	95.053
765.49	92.976
765.66	91.822
765.84	92.510
766.02	94.846
766.20	97.086
766.38	91.032
766.56	96.331
766.73	96.934
766.91	92.773
767.09	98.230
767.27	98.906
767.45	96.185
767.62	97.769
767.80	95.977
767.98	101.123
768.16	95.810
768.33	102.808
768.51	97.049
768.69	95.656
768.87	95.213
769.05	102.033
769.22	92.970
769.40	102.292
769.58	96.438
769.76	103.442
769.94	97.884
770.11	99.143
770.29	95.425
770.47	100.078
770.65	95.682
770.82	101.932
771.00	94.000
771.18	99.659
771.36	94.399
771.53	102.138
771.71	94.958
771.89	97.496
772.07	96.849
772.25	101.773
772.42	99.830
772.60	103.545
772.78	99.431
772.96	97.110
773.13	98.095
773.31	95.947
773.49	96.629
773.67	96.420
773.84	93.385
774.02	98.615
774.20	95.989
774.37	100.411
774.55	93.399
774.73	104.950
774.91	96.712
775.08	103.888
775.26	92.992
775.44	99.003
775.62	99.312
775.79	98.704
775.97	95.596
776.15	98.167
776.32	91.373
776.50	97.589
776.68	100.849
776.86	108.002
777.03	97.728
777.21	99.492
777.39	89.788
777.56	100.485
777.74	95.267
777.92	96.979
778.10	96.112
778.27	93.699
778.45	96.304
778.63	108.849
778.80	93.879
778.98	100.335
779.16	102.114
779.34	100.000
779.51	96.927
779.69	102.592
779.87	96.097
780.04	96.795
780.22	96.880
780.40	101.062
780.57	99.293
780.75	92.412
780.93	98.145
781.10	102.094
781.28	102.579
781.46	97.001
781.63	96.935
781.81	101.648
781.99	93.376
782.16	99.455
782.34	88.821
782.52	100.804
782.69	95.752
782.87	94.792
783.05	97.173
783.22	99.150
783.40	84.337
783.58	104.596
783.75	89.288
783.93	104.154
784.11	95.019
784.28	100.162
784.46	86.793
784.64	93.653
784.81	94.356
784.99	103.196
785.17	92.007
785.34	97.975
785.52	87.561
785.69	98.874
785.87	82.616
786.05	93.478
786.22	97.894
786.40	107.901
786.58	89.379
786.75	97.579
786.93	92.181
787.11	100.744
787.28	90.792
787.46	97.901
787.63	93.543
787.81	91.035
787.99	91.441
788.16	94.778
788.34	88.611
788.51	93.153
788.69	93.128
788.87	93.783
789.04	95.426
789.22	92.778
789.39	94.602
789.57	92.204
789.75	89.729
789.92	94.591
790.10	90.349
790.27	97.671
790.45	87.140
790.63	95.307
790.80	89.700
790.98	97.246
791.15	86.580
791.33	97.303
791.51	93.133
791.68	99.635
791.86	92.249
792.03	96.898
792.21	83.063
792.39	94.403
792.56	85.382
792.74	99.581
792.91	90.789
793.09	92.904
793.26	90.499
793.44	102.542
793.62	85.221
793.79	102.032
793.97	93.807
794.14	101.322
794.32	92.610
794.49	98.552
794.67	82.541
794.84	91.759
795.02	87.056
795.20	96.669
795.37	87.192
795.55	93.223
795.72	101.273
795.90	88.960
796.07	93.530
796.25	95.194
796.42	90.904
796.60	93.326
796.77	88.346
796.95	90.719
797.13	82.697
797.30	98.080
797.48	89.186
797.65	93.960
797.83	90.716
798.00	94.414
798.18	84.603
798.35	93.571
798.53	89.951
798.70	99.487
798.88	90.017
799.05	93.655
799.23	85.714
799.40	96.203
799.58	84.666
799.75	91.115
799.93	88.696
800.10	92.539
800.28	88.506
800.45	96.279
800.63	84.233
800.80	103.543
800.98	88.573
801.15	94.951
801.33	86.758
801.50	93.134
801.68	82.816
801.85	95.531
802.03	78.585
802.20	85.714
802.38	86.667
802.55	88.297
802.73	95.871
802.90	96.085
803.08	77.909
803.25	95.290
803.43	85.013
803.60	96.438
803.78	93.213
803.95	90.113
804.13	88.790
804.30	93.381
804.48	87.879
804.65	97.984
804.83	84.941
805.00	91.243
805.17	95.333
805.35	88.204
805.52	76.735
805.70	99.197
805.87	90.119
806.05	95.792
806.22	86.906
806.40	90.491
806.57	87.845
806.75	96.161
806.92	90.948
807.09	93.411
807.27	83.271
807.44	99.866
807.62	91.655
807.79	92.768
807.97	82.972
808.14	95.759
808.31	85.296
808.49	89.265
808.66	81.160
808.84	84.482
809.01	92.746
809.19	86.384
809.36	95.878
809.53	89.243
809.71	81.787
809.88	99.241
810.06	94.591
810.23	92.233
810.41	88.079
810.58	97.182
810.75	83.955
810.93	87.798
811.10	85.460
811.28	82.245
811.45	88.770
811.62	95.910
811.80	81.269
811.97	84.504
812.15	95.323
812.32	89.612
812.49	84.325
812.67	82.326
812.84	77.878
813.02	92.139
813.19	74.349
813.36	98.938
813.54	80.376
813.71	97.869
813.89	80.585
814.06	86.950
814.23	95.276
814.41	78.746
814.58	90.966
814.75	91.774
814.93	86.020
815.10	85.679
815.28	73.124
815.45	82.761
815.62	91.018
815.80	83.180
815.97	86.882
816.14	81.622
816.32	92.251
816.49	87.959
816.66	87.790
816.84	76.533
817.01	85.380
817.18	88.016
817.36	78.691
817.53	86.667
817.71	69.157
817.88	85.321
818.05	71.687
818.23	80.735
818.40	79.193
818.57	83.551
818.75	80.688
818.92	78.737
819.09	84.278
819.27	90.661
819.44	86.287
819.61	75.857
819.79	85.165
819.96	100.140
820.13	81.854
820.31	86.060
820.48	82.963
820.65	86.971
820.82	86.864
821.00	94.465
821.17	84.578
821.34	89.154
821.52	89.660
821.69	92.996
821.86	89.179
822.04	98.959
822.21	98.767
822.38	101.279
822.56	97.547
822.73	94.888
822.90	96.031
823.07	93.437
823.25	93.192
823.42	92.938
823.59	91.023
823.77	89.946
823.94	89.767
824.11	89.170
824.29	87.966
824.46	91.364
824.63	90.780
824.80	88.600
824.98	92.006
825.15	91.940
825.32	90.541
825.49	92.918
825.67	92.847
825.84	94.177
826.01	94.209
826.19	98.593
826.36	91.697
826.53	99.172
826.70	93.333
826.88	98.340
827.05	91.587
827.22	96.611
827.39	92.178
827.57	95.185
827.74	91.737
827.91	96.464
828.08	91.988
828.26	94.982
828.43	93.479
828.60	93.038
828.77	90.498
828.95	95.381
829.12	88.099
829.29	89.222
829.46	90.786
829.64	91.590
829.81	88.371
829.98	91.557
830.15	88.487
830.32	97.603
830.50	86.038
830.67	94.390
830.84	85.072
831.01	80.177
831.19	81.526
831.36	85.046
831.53	72.807
831.70	97.420
831.87	83.180
832.05	85.313
832.22	93.269
832.39	73.815
832.56	73.558
832.74	78.817
832.91	70.224
833.08	96.887
833.25	69.761
833.42	76.757
833.60	82.803
833.77	80.032
833.94	84.908
834.11	85.483
834.28	86.204
834.45	93.303
834.63	85.848
834.80	90.458
834.97	90.338
835.14	90.704
835.31	87.495
835.49	86.915
835.66	89.952
835.83	89.524
836.00	83.932
836.17	85.016
836.34	79.108
836.52	85.947
836.69	88.669
836.86	91.253
837.03	86.834
837.20	81.268
837.37	79.164
837.55	77.673
837.72	77.861
837.89	77.440
838.06	78.462
838.23	80.133
838.40	71.688
838.58	71.032
838.75	82.220
838.92	77.493
839.09	84.363
839.26	72.936
839.43	89.931
839.60	77.947
839.78	93.340
839.95	91.812
840.12	75.748
840.29	89.510
840.46	88.404
840.63	94.789
840.80	81.980
840.98	88.326
841.15	74.517
841.32	76.810
841.49	65.112
841.66	83.290
841.83	70.444
842.00	77.632
842.17	86.342
842.34	82.852
842.52	87.907
842.69	86.120
842.86	86.803
843.03	101.254
843.20	80.256
843.37	92.727
843.54	101.471
843.71	91.369
843.88	102.866
844.06	101.429
844.23	96.006
844.40	79.912
844.57	94.774
844.74	91.225
844.91	92.419
845.08	86.977
845.25	104.589
845.42	93.831
845.59	94.157
845.76	86.980
845.94	102.471
846.11	105.782
846.28	100.723
846.45	113.878
846.62	100.171
846.79	92.053
846.96	89.847
847.13	104.930
847.30	103.540
847.47	96.768
847.64	102.457
847.81	103.396
847.98	114.902
848.15	89.416
848.32	104.810
848.50	99.811
848.67	91.091
848.84	110.629
849.01	89.462
849.18	114.100
849.35	133.987
849.52	118.275
849.69	102.791
849.86	122.288
850.03	95.992
850.20	122.984
850.37	97.755
850.54	131.105
850.71	108.065
850.88	96.579
851.05	97.922
851.22	100.496
851.39	102.559
851.56	108.789
851.73	123.372
851.90	110.675
852.07	106.210
852.24	118.269
852.41	117.281
852.58	125.389
852.75	106.342
852.92	123.472
853.09	137.168
853.26	119.783
853.43	115.328
853.60	102.367
853.77	126.496
853.94	110.240
854.11	137.365
854.28	112.774
854.45	127.803
854.62	103.319
854.79	116.152
854.96	122.642
855.13	107.974
855.30	109.877
855.47	143.280
855.64	109.091
855.81	108.478
855.98	119.687
856.15	111.538
856.32	112.727
856.49	118.133
856.66	127.778
856.83	114.103
857.00	125.798
857.17	109.931
857.34	116.397
857.51	103.002
857.68	122.280
857.85	112.661
858.02	125.110
858.19	100.832
858.36	105.936
858.53	125.296
858.70	118.018
858.87	107.312
859.04	94.344
859.21	127.228
859.38	126.415
859.55	129.216
859.72	149.311
859.89	129.504
860.05	120.860
860.22	124.835
860.39	94.824
860.56	145.380
860.73	136.073
860.90	110.235
861.07	124.819
861.24	97.454
861.41	114.346
861.58	89.087
861.75	137.958
861.92	104.709
862.09	109.152
862.26	136.857
862.43	138.657
862.59	105.205
862.76	136.340
862.93	130.851
863.10	123.622
863.27	118.043
863.44	117.349
863.61	124.107
863.78	124.946
863.95	158.491
864.12	102.731
864.29	138.352
864.45	124.129
864.62	118.841
864.79	90.926
864.96	121.602
865.13	101.167
865.30	119.635
865.47	102.277
865.64	126.341
865.81	120.506
865.97	113.203
866.14	115.385
866.31	93.506
866.48	103.030
866.65	97.812
866.82	129.663
866.99	131.445
867.16	105.882
867.33	106.475
867.49	136.854
867.66	115.196
867.83	165.472
868.00	121.875
868.17	94.773
868.34	132.944
868.51	105.459
868.67	138.674
868.84	102.163
869.01	124.679
869.18	128.042
869.35	126.163
869.52	115.691
869.69	139.356
869.85	112.108
870.02	113.514
870.19	122.646
870.36	130.075
870.53	98.198
870.70	128.266
870.86	106.299
871.03	133.412
871.20	125.323
871.37	120.946
871.54	126.074
871.71	111.796
871.87	129.101
872.04	105.144
872.21	110.360
872.38	131.095
872.55	131.606
872.72	117.234
872.88	127.322
873.05	118.404
873.22	121.655
873.39	110.680
873.56	133.673
873.72	116.186
873.89	94.989
874.06	126.934
874.23	116.705
874.40	127.123
874.56	108.041
874.73	105.926
874.90	101.602
875.07	113.012
875.24	103.103
875.40	92.765
875.57	114.607
875.74	106.000
875.91	110.245
876.08	100.229
876.24	142.342
876.41	97.280
876.58	134.835
876.75	113.418
876.92	109.168
877.08	111.848
877.25	96.632
877.42	103.733
877.59	96.687
877.75	113.657
877.92	91.975
878.09	125.055
878.26	103.086
878.42	138.567
878.59	116.173
878.76	119.318
878.93	157.910
879.09	115.929
879.26	101.250
879.43	134.063
879.60	104.501
879.76	100.668
879.93	101.463
880.10	96.589
880.27	79.085
880.43	98.993
880.60	100.345
880.77	78.300
880.94	85.139
881.10	70.723
881.27	87.055
881.44	64.193
881.61	82.671
881.77	88.128
881.94	79.204
882.11	71.282
882.28	80.080
882.44	86.199
882.61	88.325
882.78	90.515
882.94	91.594
883.11	88.246
883.28	93.338
883.45	91.066
883.61	88.614
883.78	86.217
883.95	95.681
884.11	84.356
884.28	83.169
>>>>>End Processed Spectral Data<<<<<
