SpectraSuite Data File
++++++++++++++++++++++++++++++++++++
Date: Tue Sep 24 03:36:11 EST 2019
User: sgrac
Dark Spectrum Present: Yes
Reference Spectrum Present: Yes
Number of Sampled Component Spectra: 1
Spectrometers: USB4E01596
Integration Time (usec): 100000 (USB4E01596)
Spectra Averaged: 3 (USB4E01596)
Boxcar Smoothing: 0 (USB4E01596)
Correct for Electrical Dark: No (USB4E01596)
Strobe/Lamp Enabled: Yes (USB4E01596)
Correct for Detector Non-linearity: No (USB4E01596)
Correct for Stray Light: No (USB4E01596)
Number of Pixels in Processed Spectrum: 3648
>>>>>Begin Processed Spectral Data<<<<<
178.44	1527.273
178.66	1527.273
178.87	1527.273
179.09	669.811
179.30	640.000
179.52	-1210.000
179.74	743.396
179.95	723.881
180.17	-19200.000
180.38	-15466.667
180.60	446.067
180.82	-3571.429
181.03	1127.027
181.25	-1652.174
181.46	625.000
181.68	4266.667
181.89	-1737.500
182.11	553.030
182.33	1305.714
182.54	700.000
182.76	-925.000
182.97	301.242
183.19	868.889
183.40	4888.889
183.62	520.732
183.84	618.667
184.05	882.609
184.27	514.815
184.48	-2211.111
184.70	474.194
184.91	585.526
185.13	600.000
185.34	539.785
185.56	1100.000
185.78	1379.167
185.99	2325.000
186.21	527.500
186.42	790.476
186.64	408.602
186.85	945.833
187.07	-4230.000
187.28	-2011.765
187.50	-38500.000
187.72	40300.000
187.93	-1995.833
188.15	1230.233
188.36	550.000
188.58	632.432
188.79	-6428.571
189.01	-3453.846
189.22	1964.000
189.44	512.791
189.65	624.242
189.87	-5800.000
190.09	1144.118
190.30	1134.211
190.52	2071.429
190.73	6800.000
190.95	1013.158
191.16	502.532
191.38	3818.182
191.59	2864.286
191.81	1220.588
192.02	957.447
192.24	720.408
192.45	2247.059
192.67	516.883
192.88	440.816
193.10	733.333
193.31	441.414
193.53	1113.158
193.74	-38400.000
193.96	771.831
194.18	453.774
194.39	476.087
194.61	475.000
194.82	381.356
195.04	395.327
195.25	0.000
195.47	-40700.000
195.68	405.000
195.90	470.588
196.11	573.494
196.33	820.930
196.54	421.101
196.76	1184.848
196.97	-2891.667
197.19	533.721
197.40	775.439
197.62	713.208
197.83	441.346
198.05	584.932
198.26	0.000
198.48	-728.889
198.69	1160.000
198.91	4900.000
199.12	-9025.000
199.34	462.222
199.55	-41000.000
199.77	2483.333
199.98	619.718
200.20	360.331
200.41	530.263
200.63	1391.176
200.84	-2992.308
201.06	465.823
201.27	1836.000
201.49	951.064
201.70	472.414
201.91	654.930
202.13	689.552
202.34	-1648.000
202.56	313.380
202.77	4562.500
202.99	5587.500
203.20	605.797
203.42	1137.838
203.63	4175.000
203.85	414.286
204.06	800.000
204.28	388.136
204.49	1042.424
204.71	-900.000
204.92	363.043
205.14	1390.323
205.35	880.952
205.56	438.095
205.78	-836.000
205.99	1051.282
206.21	803.509
206.42	634.848
206.64	1586.957
206.85	537.349
207.07	-627.419
207.28	1548.000
207.50	539.130
207.71	856.250
207.93	10400.000
208.14	1197.368
208.35	-2566.667
208.57	-1206.897
208.78	329.371
209.00	975.000
209.21	370.297
209.43	-6600.000
209.64	287.500
209.86	678.947
210.07	826.190
210.28	1375.862
210.50	6850.000
210.71	1325.806
210.93	-2520.000
211.14	721.818
211.36	460.417
211.57	1692.593
211.78	4811.111
212.00	-2466.667
212.21	1004.878
212.43	741.071
212.64	539.024
212.86	1891.304
213.07	675.000
213.29	2864.286
213.50	325.397
213.71	586.747
213.93	317.692
214.14	378.632
214.36	421.176
214.57	-4400.000
214.78	1374.359
215.00	368.595
215.21	972.500
215.43	1636.000
215.64	402.778
215.86	446.226
216.07	9550.000
216.28	664.179
216.50	494.118
216.71	1241.379
216.93	-1020.930
217.14	488.889
217.35	666.071
217.57	418.803
217.78	650.000
218.00	431.313
218.21	546.479
218.42	1455.556
218.64	2720.000
218.85	755.357
219.07	345.378
219.28	583.077
219.49	428.440
219.71	621.429
219.92	1220.000
220.14	806.522
220.35	3872.727
220.56	982.927
220.78	1215.152
220.99	595.385
221.21	609.459
221.42	470.270
221.63	9450.000
221.85	1446.429
222.06	1566.667
222.28	600.000
222.49	426.882
222.70	410.000
222.92	742.105
223.13	1972.222
223.34	1109.375
223.56	315.748
223.77	253.472
223.99	468.889
224.20	276.712
224.41	526.667
224.63	416.327
224.84	342.857
225.05	325.600
225.27	666.667
225.48	413.131
225.69	394.792
225.91	514.458
226.12	265.816
226.34	243.017
226.55	209.787
226.76	241.053
226.98	280.000
227.19	166.667
227.40	189.177
227.62	187.379
227.83	151.381
228.04	133.133
228.26	108.108
228.47	82.581
228.69	69.184
228.90	62.569
229.11	55.887
229.33	51.743
229.54	53.461
229.75	48.482
229.97	50.656
230.18	40.020
230.39	38.229
230.61	40.895
230.82	46.038
231.03	39.228
231.25	46.127
231.46	49.380
231.67	46.947
231.89	55.025
232.10	53.239
232.31	57.363
232.53	61.943
232.74	78.740
232.95	74.921
233.17	65.734
233.38	59.631
233.59	77.532
233.81	77.911
234.02	80.289
234.23	68.118
234.45	72.408
234.66	72.182
234.87	66.202
235.09	71.736
235.30	69.913
235.51	73.585
235.73	59.912
235.94	62.696
236.15	73.016
236.36	71.017
236.58	63.378
236.79	55.047
237.00	56.808
237.22	61.587
237.43	66.859
237.64	59.500
237.86	56.648
238.07	77.294
238.28	56.741
238.50	57.937
238.71	61.504
238.92	52.875
239.13	59.744
239.35	69.118
239.56	49.796
239.77	64.529
239.99	51.051
240.20	52.358
240.41	57.818
240.63	52.741
240.84	54.181
241.05	46.371
241.26	31.556
241.48	42.485
241.69	32.288
241.90	27.364
242.12	28.788
242.33	25.348
242.54	22.192
242.75	17.376
242.97	23.106
243.18	17.542
243.39	19.869
243.61	20.076
243.82	17.393
244.03	20.333
244.24	16.107
244.46	19.317
244.67	23.509
244.88	19.665
245.09	18.628
245.31	20.033
245.52	22.100
245.73	28.165
245.95	33.000
246.16	23.440
246.37	16.314
246.58	21.268
246.80	20.697
247.01	17.456
247.22	14.789
247.43	12.017
247.65	12.537
247.86	11.315
248.07	11.544
248.28	9.304
248.50	8.407
248.71	12.231
248.92	7.435
249.13	10.815
249.35	9.990
249.56	11.307
249.77	13.763
249.98	11.834
250.20	15.878
250.41	14.389
250.62	19.573
250.83	20.250
251.05	21.919
251.26	23.039
251.47	24.312
251.68	21.535
251.90	18.907
252.11	21.195
252.32	24.569
252.53	16.829
252.75	14.844
252.96	18.310
253.17	17.058
253.38	17.018
253.59	18.472
253.81	20.723
254.02	17.334
254.23	19.952
254.44	20.010
254.66	19.415
254.87	23.156
255.08	29.250
255.29	24.775
255.50	28.251
255.72	29.979
255.93	24.173
256.14	34.534
256.35	26.300
256.57	28.170
256.78	28.045
256.99	23.588
257.20	30.898
257.41	27.175
257.63	29.823
257.84	26.300
258.05	29.477
258.26	19.157
258.47	21.651
258.69	17.926
258.90	17.436
259.11	17.526
259.32	15.356
259.53	12.389
259.75	12.511
259.96	8.087
260.17	9.871
260.38	9.482
260.59	8.161
260.81	7.321
261.02	8.642
261.23	7.705
261.44	8.710
261.65	7.990
261.87	5.960
262.08	8.658
262.29	9.744
262.50	10.751
262.71	11.941
262.92	13.129
263.14	11.802
263.35	12.500
263.56	17.774
263.77	16.563
263.98	16.259
264.20	18.061
264.41	17.743
264.62	15.027
264.83	13.741
265.04	20.160
265.25	16.457
265.47	19.774
265.68	19.188
265.89	21.042
266.10	17.168
266.31	20.132
266.52	15.359
266.74	18.704
266.95	16.556
267.16	15.570
267.37	16.425
267.58	16.029
267.79	12.863
268.01	12.009
268.22	13.555
268.43	13.700
268.64	13.851
268.85	11.775
269.06	12.229
269.27	15.588
269.49	13.222
269.70	11.641
269.91	11.281
270.12	12.777
270.33	15.420
270.54	11.856
270.75	12.439
270.97	12.613
271.18	13.095
271.39	13.927
271.60	12.899
271.81	9.408
272.02	10.920
272.23	11.460
272.45	9.701
272.66	10.076
272.87	10.796
273.08	9.529
273.29	12.194
273.50	10.328
273.71	10.267
273.92	8.991
274.14	9.180
274.35	10.236
274.56	10.646
274.77	10.809
274.98	10.745
275.19	11.949
275.40	8.732
275.61	10.351
275.83	12.532
276.04	12.464
276.25	13.842
276.46	13.505
276.67	16.142
276.88	12.861
277.09	13.570
277.30	11.269
277.51	12.815
277.73	12.066
277.94	13.398
278.15	11.666
278.36	12.671
278.57	11.889
278.78	11.062
278.99	12.676
279.20	15.047
279.41	16.280
279.62	10.709
279.84	9.703
280.05	11.839
280.26	11.635
280.47	11.513
280.68	12.817
280.89	10.008
281.10	12.955
281.31	14.406
281.52	9.770
281.73	11.282
281.94	10.883
282.16	10.217
282.37	11.381
282.58	11.325
282.79	10.720
283.00	7.392
283.21	7.912
283.42	9.612
283.63	10.101
283.84	11.089
284.05	9.018
284.26	11.031
284.47	9.702
284.68	9.559
284.89	8.014
285.11	9.177
285.32	9.531
285.53	9.495
285.74	9.454
285.95	8.419
286.16	8.430
286.37	7.109
286.58	7.524
286.79	6.624
287.00	8.522
287.21	7.948
287.42	8.248
287.63	6.806
287.84	7.129
288.05	9.052
288.26	8.373
288.48	8.402
288.69	8.212
288.90	9.745
289.11	9.543
289.32	8.164
289.53	9.447
289.74	9.704
289.95	10.734
290.16	10.885
290.37	6.815
290.58	8.836
290.79	7.144
291.00	7.652
291.21	8.207
291.42	8.251
291.63	6.208
291.84	8.165
292.05	8.386
292.26	7.361
292.47	11.216
292.68	9.177
292.89	8.287
293.10	10.489
293.31	9.446
293.52	7.305
293.73	9.214
293.94	9.951
294.15	10.522
294.36	11.097
294.57	9.454
294.79	9.368
295.00	8.661
295.21	10.930
295.42	9.840
295.63	10.752
295.84	7.670
296.05	7.250
296.26	9.967
296.47	7.490
296.68	8.477
296.89	7.242
297.10	8.083
297.31	7.619
297.52	6.011
297.73	6.969
297.94	7.082
298.15	6.488
298.36	5.745
298.57	6.202
298.78	7.686
298.99	5.530
299.20	4.945
299.41	7.136
299.62	6.577
299.83	7.226
300.04	8.198
300.25	9.367
300.46	7.454
300.67	9.411
300.88	7.650
301.09	8.485
301.30	9.945
301.50	7.780
301.71	9.743
301.92	9.705
302.13	7.464
302.34	7.006
302.55	9.662
302.76	9.095
302.97	6.773
303.18	8.557
303.39	9.983
303.60	9.742
303.81	12.114
304.02	8.013
304.23	9.931
304.44	9.443
304.65	8.681
304.86	8.288
305.07	7.932
305.28	8.765
305.49	8.348
305.70	8.786
305.91	7.908
306.12	7.438
306.33	9.484
306.54	8.797
306.75	10.485
306.96	9.925
307.17	7.699
307.38	8.943
307.58	7.107
307.79	10.225
308.00	10.426
308.21	11.399
308.42	8.194
308.63	7.976
308.84	9.283
309.05	8.918
309.26	8.383
309.47	6.986
309.68	7.967
309.89	10.256
310.10	7.639
310.31	7.379
310.52	7.815
310.73	7.372
310.94	6.720
311.14	6.991
311.35	7.183
311.56	7.477
311.77	6.987
311.98	6.441
312.19	5.452
312.40	7.114
312.61	5.109
312.82	8.641
313.03	6.842
313.24	7.563
313.45	7.434
313.66	8.199
313.86	8.288
314.07	7.799
314.28	9.096
314.49	9.329
314.70	9.865
314.91	9.640
315.12	8.606
315.33	9.170
315.54	7.285
315.75	8.591
315.96	7.752
316.16	9.896
316.37	10.132
316.58	7.784
316.79	8.032
317.00	8.910
317.21	9.265
317.42	11.671
317.63	10.022
317.84	8.092
318.05	9.363
318.25	9.285
318.46	9.247
318.67	8.722
318.88	9.604
319.09	8.534
319.30	9.608
319.51	9.369
319.72	9.395
319.93	9.902
320.13	8.166
320.34	10.394
320.55	8.937
320.76	9.795
320.97	8.561
321.18	10.530
321.39	8.764
321.60	10.110
321.80	10.004
322.01	9.052
322.22	10.041
322.43	9.243
322.64	8.623
322.85	9.390
323.06	9.068
323.27	8.539
323.47	9.048
323.68	11.029
323.89	8.527
324.10	9.585
324.31	8.102
324.52	8.868
324.73	9.217
324.93	8.416
325.14	7.702
325.35	8.089
325.56	7.965
325.77	8.417
325.98	9.330
326.19	9.428
326.39	6.349
326.60	8.064
326.81	7.469
327.02	8.226
327.23	8.180
327.44	10.249
327.64	5.158
327.85	7.060
328.06	7.335
328.27	10.447
328.48	10.150
328.69	8.357
328.90	7.716
329.10	8.824
329.31	9.607
329.52	7.935
329.73	9.208
329.94	8.525
330.15	9.629
330.35	10.034
330.56	10.551
330.77	8.724
330.98	8.859
331.19	9.156
331.39	8.818
331.60	10.564
331.81	8.071
332.02	9.152
332.23	10.450
332.44	8.413
332.64	10.619
332.85	9.835
333.06	8.448
333.27	7.259
333.48	8.911
333.68	7.312
333.89	9.707
334.10	7.510
334.31	10.103
334.52	8.341
334.72	8.581
334.93	8.173
335.14	8.367
335.35	9.291
335.56	9.071
335.76	7.825
335.97	8.896
336.18	6.883
336.39	9.966
336.60	8.378
336.80	7.530
337.01	8.438
337.22	8.353
337.43	10.487
337.64	9.833
337.84	9.643
338.05	8.864
338.26	10.606
338.47	9.571
338.68	7.481
338.88	9.259
339.09	8.875
339.30	8.062
339.51	8.597
339.71	9.116
339.92	7.805
340.13	9.162
340.34	9.153
340.55	9.287
340.75	8.866
340.96	7.449
341.17	10.623
341.38	8.107
341.58	9.492
341.79	9.125
342.00	8.060
342.21	8.778
342.41	7.942
342.62	9.662
342.83	10.075
343.04	8.118
343.24	9.678
343.45	9.650
343.66	8.733
343.87	9.366
344.07	6.147
344.28	8.191
344.49	9.038
344.70	10.205
344.90	8.386
345.11	7.965
345.32	8.161
345.53	7.581
345.73	9.079
345.94	9.804
346.15	9.389
346.36	8.450
346.56	8.046
346.77	8.755
346.98	9.470
347.19	8.413
347.39	7.167
347.60	7.981
347.81	8.941
348.02	10.720
348.22	7.991
348.43	7.906
348.64	8.976
348.84	7.912
349.05	9.984
349.26	10.696
349.47	7.907
349.67	9.726
349.88	10.699
350.09	8.129
350.30	10.666
350.50	7.851
350.71	9.337
350.92	8.482
351.12	8.576
351.33	7.994
351.54	7.811
351.74	9.905
351.95	7.636
352.16	9.465
352.37	9.949
352.57	9.279
352.78	8.745
352.99	9.617
353.19	9.160
353.40	9.208
353.61	10.217
353.82	9.375
354.02	9.875
354.23	9.640
354.44	10.790
354.64	8.448
354.85	8.975
355.06	8.632
355.26	7.780
355.47	8.080
355.68	10.907
355.88	8.841
356.09	9.349
356.30	6.959
356.51	8.903
356.71	8.200
356.92	6.786
357.13	10.179
357.33	9.369
357.54	7.556
357.75	7.369
357.95	8.275
358.16	6.902
358.37	9.865
358.57	7.435
358.78	9.210
358.99	7.023
359.19	8.521
359.40	8.300
359.61	7.633
359.81	9.537
360.02	9.182
360.23	7.692
360.43	7.780
360.64	7.193
360.85	8.040
361.05	6.979
361.26	8.749
361.47	7.505
361.67	8.687
361.88	5.808
362.09	7.696
362.29	6.331
362.50	5.914
362.70	5.624
362.91	7.727
363.12	6.510
363.32	6.587
363.53	6.567
363.74	7.204
363.94	5.480
364.15	7.919
364.36	7.219
364.56	6.902
364.77	7.884
364.98	9.998
365.18	8.564
365.39	8.892
365.59	6.388
365.80	7.140
366.01	8.244
366.21	6.508
366.42	6.778
366.63	8.429
366.83	7.111
367.04	6.537
367.24	9.152
367.45	6.326
367.66	5.368
367.86	7.619
368.07	6.835
368.28	7.032
368.48	6.637
368.69	6.167
368.89	7.785
369.10	7.141
369.31	7.350
369.51	8.516
369.72	8.414
369.92	8.715
370.13	7.289
370.34	6.429
370.54	4.982
370.75	7.605
370.95	6.852
371.16	6.994
371.37	6.647
371.57	6.091
371.78	6.836
371.98	7.605
372.19	6.678
372.40	7.474
372.60	7.208
372.81	6.793
373.01	5.207
373.22	6.295
373.43	7.406
373.63	6.349
373.84	7.652
374.04	6.440
374.25	7.123
374.46	7.760
374.66	7.235
374.87	8.324
375.07	6.253
375.28	5.872
375.48	6.084
375.69	7.978
375.90	5.634
376.10	5.560
376.31	5.588
376.51	6.386
376.72	5.409
376.92	4.672
377.13	6.291
377.34	6.805
377.54	5.879
377.75	6.850
377.95	6.703
378.16	7.235
378.36	7.214
378.57	6.027
378.77	6.324
378.98	6.476
379.19	6.062
379.39	5.451
379.60	7.274
379.80	5.527
380.01	6.957
380.21	5.125
380.42	6.416
380.62	5.360
380.83	6.160
381.04	6.339
381.24	6.235
381.45	5.762
381.65	5.645
381.86	5.392
382.06	7.356
382.27	5.306
382.47	5.657
382.68	6.696
382.88	6.124
383.09	6.270
383.29	5.974
383.50	6.188
383.71	5.821
383.91	6.277
384.12	5.224
384.32	6.260
384.53	6.051
384.73	5.150
384.94	4.792
385.14	5.514
385.35	5.422
385.55	5.794
385.76	5.873
385.96	4.886
386.17	5.461
386.37	5.250
386.58	5.492
386.78	6.912
386.99	4.691
387.19	5.450
387.40	4.880
387.60	6.433
387.81	5.364
388.01	4.975
388.22	5.803
388.42	6.236
388.63	6.276
388.83	6.157
389.04	5.339
389.24	5.229
389.45	5.662
389.65	5.049
389.86	5.609
390.06	5.408
390.27	4.831
390.47	5.378
390.68	4.916
390.88	6.461
391.09	6.062
391.29	5.575
391.50	5.414
391.70	5.533
391.91	5.308
392.11	5.331
392.32	5.514
392.52	5.357
392.73	5.247
392.93	5.186
393.14	4.934
393.34	4.497
393.55	5.351
393.75	4.809
393.95	4.679
394.16	5.843
394.36	6.049
394.57	5.673
394.77	5.099
394.98	4.537
395.18	4.935
395.39	4.851
395.59	5.265
395.80	4.817
396.00	5.186
396.21	5.559
396.41	4.639
396.61	5.871
396.82	5.551
397.02	6.146
397.23	5.636
397.43	5.069
397.64	4.816
397.84	6.101
398.05	4.271
398.25	5.497
398.45	4.705
398.66	5.668
398.86	4.860
399.07	5.889
399.27	4.882
399.48	5.466
399.68	5.079
399.89	4.730
400.09	6.334
400.29	4.988
400.50	5.342
400.70	5.342
400.91	4.902
401.11	4.881
401.32	6.247
401.52	3.968
401.72	4.601
401.93	6.411
402.13	5.050
402.34	5.397
402.54	4.512
402.75	6.447
402.95	4.114
403.15	5.464
403.36	4.369
403.56	5.835
403.77	4.850
403.97	4.982
404.17	4.711
404.38	4.907
404.58	3.921
404.79	4.861
404.99	4.991
405.19	4.767
405.40	4.924
405.60	4.568
405.81	4.170
406.01	4.823
406.21	4.588
406.42	4.821
406.62	4.902
406.83	5.250
407.03	4.760
407.23	4.267
407.44	4.448
407.64	5.126
407.85	5.515
408.05	5.046
408.25	4.928
408.46	5.609
408.66	5.035
408.87	4.334
409.07	4.901
409.27	5.065
409.48	5.128
409.68	5.856
409.88	3.695
410.09	4.761
410.29	4.782
410.50	5.937
410.70	4.813
410.90	4.452
411.11	4.260
411.31	4.262
411.51	5.258
411.72	4.859
411.92	4.061
412.12	4.541
412.33	3.944
412.53	4.188
412.74	3.785
412.94	5.252
413.14	4.814
413.35	4.614
413.55	5.449
413.75	6.133
413.96	4.720
414.16	4.920
414.36	4.994
414.57	4.155
414.77	4.477
414.97	5.125
415.18	4.574
415.38	4.800
415.58	5.014
415.79	4.370
415.99	4.102
416.19	4.914
416.40	4.656
416.60	4.628
416.80	3.938
417.01	3.655
417.21	3.802
417.41	4.596
417.62	4.280
417.82	4.513
418.02	3.170
418.23	3.906
418.43	3.837
418.63	4.264
418.84	4.237
419.04	3.588
419.24	4.504
419.45	4.288
419.65	4.183
419.85	4.045
420.06	4.159
420.26	4.066
420.46	4.192
420.67	4.415
420.87	3.996
421.07	4.786
421.28	4.074
421.48	4.478
421.68	4.414
421.88	4.074
422.09	4.277
422.29	3.704
422.49	3.702
422.70	4.087
422.90	4.034
423.10	4.185
423.31	4.064
423.51	4.677
423.71	3.672
423.91	4.261
424.12	3.959
424.32	4.231
424.52	4.146
424.73	3.807
424.93	4.238
425.13	3.773
425.33	3.683
425.54	4.101
425.74	3.957
425.94	4.673
426.15	4.045
426.35	3.972
426.55	4.529
426.75	3.831
426.96	4.087
427.16	4.047
427.36	4.159
427.57	4.611
427.77	3.989
427.97	4.266
428.17	4.265
428.38	4.558
428.58	3.343
428.78	5.124
428.98	3.613
429.19	4.378
429.39	3.665
429.59	4.545
429.79	3.165
430.00	3.167
430.20	3.679
430.40	3.802
430.60	3.548
430.81	3.723
431.01	3.960
431.21	4.600
431.41	4.125
431.62	3.682
431.82	3.423
432.02	4.596
432.22	3.818
432.43	3.479
432.63	3.686
432.83	3.868
433.03	3.653
433.24	2.939
433.44	3.489
433.64	4.022
433.84	3.184
434.05	3.909
434.25	3.295
434.45	3.890
434.65	4.516
434.85	4.241
435.06	3.515
435.26	3.904
435.46	3.564
435.66	4.209
435.87	3.469
436.07	4.469
436.27	4.036
436.47	3.972
436.67	3.620
436.88	4.054
437.08	3.548
437.28	3.662
437.48	4.073
437.69	4.193
437.89	3.467
438.09	4.172
438.29	3.522
438.49	4.127
438.70	4.029
438.90	3.446
439.10	3.505
439.30	3.747
439.50	2.976
439.71	3.901
439.91	3.614
440.11	4.428
440.31	3.607
440.51	3.431
440.72	3.554
440.92	3.430
441.12	3.941
441.32	4.396
441.52	4.118
441.72	4.009
441.93	3.859
442.13	4.106
442.33	3.953
442.53	4.557
442.73	3.296
442.94	3.589
443.14	3.905
443.34	4.336
443.54	4.305
443.74	4.606
443.94	3.882
444.15	3.587
444.35	3.630
444.55	4.187
444.75	3.688
444.95	4.067
445.15	3.726
445.36	3.928
445.56	3.171
445.76	4.173
445.96	3.390
446.16	3.279
446.36	3.281
446.57	4.153
446.77	3.168
446.97	3.826
447.17	4.083
447.37	4.217
447.57	3.863
447.77	3.809
447.98	3.674
448.18	4.442
448.38	3.721
448.58	4.019
448.78	4.072
448.98	3.847
449.18	3.501
449.39	3.949
449.59	3.760
449.79	3.875
449.99	3.766
450.19	4.115
450.39	3.757
450.59	3.830
450.79	3.635
451.00	4.369
451.20	4.874
451.40	3.599
451.60	3.230
451.80	4.354
452.00	4.099
452.20	3.984
452.40	3.930
452.61	4.033
452.81	3.612
453.01	3.917
453.21	3.524
453.41	3.854
453.61	3.694
453.81	3.793
454.01	3.841
454.21	3.919
454.42	4.116
454.62	4.227
454.82	3.432
455.02	4.046
455.22	3.175
455.42	4.069
455.62	2.847
455.82	3.917
456.02	3.449
456.23	3.145
456.43	4.364
456.63	3.676
456.83	2.896
457.03	3.666
457.23	3.432
457.43	3.946
457.63	3.527
457.83	4.248
458.03	3.212
458.23	3.517
458.43	3.764
458.64	3.351
458.84	3.800
459.04	3.970
459.24	3.351
459.44	3.413
459.64	3.835
459.84	3.770
460.04	3.414
460.24	3.700
460.44	3.715
460.64	3.966
460.84	3.752
461.04	4.090
461.24	4.048
461.45	4.437
461.65	4.117
461.85	4.166
462.05	3.624
462.25	4.013
462.45	4.664
462.65	4.192
462.85	3.165
463.05	4.032
463.25	3.167
463.45	3.965
463.65	3.839
463.85	3.829
464.05	3.852
464.25	3.614
464.45	4.106
464.65	3.711
464.85	3.398
465.05	2.884
465.26	3.762
465.46	4.004
465.66	4.243
465.86	4.019
466.06	3.697
466.26	3.436
466.46	3.245
466.66	3.506
466.86	3.576
467.06	3.827
467.26	3.470
467.46	4.144
467.66	3.486
467.86	3.670
468.06	3.647
468.26	3.458
468.46	3.625
468.66	3.842
468.86	3.133
469.06	4.030
469.26	3.361
469.46	3.704
469.66	3.307
469.86	4.053
470.06	3.526
470.26	4.028
470.46	3.418
470.66	4.265
470.86	2.856
471.06	3.434
471.26	2.988
471.46	3.282
471.66	3.571
471.86	3.384
472.06	3.315
472.26	4.170
472.46	4.204
472.66	3.811
472.86	3.131
473.06	3.743
473.26	3.620
473.46	3.631
473.66	3.349
473.86	4.034
474.06	3.041
474.26	3.819
474.46	2.719
474.66	4.100
474.86	3.740
475.06	4.349
475.26	3.085
475.46	3.481
475.66	2.881
475.86	3.267
476.06	4.112
476.26	3.623
476.46	3.102
476.66	3.988
476.86	3.023
477.06	3.302
477.26	3.228
477.46	3.500
477.65	3.426
477.85	4.182
478.05	3.001
478.25	3.859
478.45	3.276
478.65	3.777
478.85	3.278
479.05	3.672
479.25	3.551
479.45	3.960
479.65	3.362
479.85	3.487
480.05	3.138
480.25	3.928
480.45	3.538
480.65	3.973
480.85	3.528
481.05	4.139
481.25	3.820
481.44	3.624
481.64	2.965
481.84	3.993
482.04	3.648
482.24	3.944
482.44	2.996
482.64	3.744
482.84	3.812
483.04	3.964
483.24	3.838
483.44	3.857
483.64	3.743
483.84	3.978
484.04	4.061
484.23	4.205
484.43	4.322
484.63	4.483
484.83	4.420
485.03	5.014
485.23	4.768
485.43	4.639
485.63	4.649
485.83	4.660
486.03	4.664
486.23	4.553
486.42	4.319
486.62	4.499
486.82	4.107
487.02	4.241
487.22	3.874
487.42	4.255
487.62	4.058
487.82	4.177
488.02	4.028
488.22	4.257
488.41	4.228
488.61	4.344
488.81	4.114
489.01	4.627
489.21	4.509
489.41	4.537
489.61	4.453
489.81	4.643
490.01	4.305
490.20	4.438
490.40	4.148
490.60	4.494
490.80	3.987
491.00	4.399
491.20	3.947
491.40	3.909
491.60	3.815
491.79	3.955
491.99	4.032
492.19	4.125
492.39	4.171
492.59	4.504
492.79	4.302
492.99	4.489
493.19	4.260
493.38	4.538
493.58	4.240
493.78	4.381
493.98	4.701
494.18	4.414
494.38	4.211
494.58	4.279
494.77	3.446
494.97	4.038
495.17	3.718
495.37	3.996
495.57	4.077
495.77	4.034
495.96	3.613
496.16	3.898
496.36	3.847
496.56	4.248
496.76	3.550
496.96	3.861
497.15	3.663
497.35	3.926
497.55	3.900
497.75	3.997
497.95	3.455
498.15	4.336
498.34	3.905
498.54	3.810
498.74	4.415
498.94	4.553
499.14	3.714
499.34	4.552
499.53	3.824
499.73	4.487
499.93	3.860
500.13	4.187
500.33	3.735
500.52	4.237
500.72	3.668
500.92	3.694
501.12	3.637
501.32	3.959
501.52	4.026
501.71	3.806
501.91	3.584
502.11	4.014
502.31	3.723
502.51	4.017
502.70	3.677
502.90	4.028
503.10	3.856
503.30	4.492
503.50	4.038
503.69	4.079
503.89	3.891
504.09	4.147
504.29	3.904
504.48	4.138
504.68	4.455
504.88	4.564
505.08	3.900
505.28	4.102
505.47	3.953
505.67	4.884
505.87	3.710
506.07	3.946
506.27	4.200
506.46	4.404
506.66	3.871
506.86	4.463
507.06	5.031
507.25	4.003
507.45	4.037
507.65	4.679
507.85	3.876
508.04	4.456
508.24	4.418
508.44	4.274
508.64	4.063
508.83	4.499
509.03	3.923
509.23	4.382
509.43	4.130
509.63	4.326
509.82	4.039
510.02	4.452
510.22	4.140
510.42	4.817
510.61	4.589
510.81	4.520
511.01	4.555
511.21	4.625
511.40	4.325
511.60	4.510
511.80	4.258
511.99	4.772
512.19	4.373
512.39	4.770
512.59	4.149
512.78	4.855
512.98	4.807
513.18	4.486
513.38	4.535
513.57	4.793
513.77	4.655
513.97	4.960
514.17	4.294
514.36	4.815
514.56	4.633
514.76	5.111
514.95	4.225
515.15	4.547
515.35	4.148
515.55	4.640
515.74	4.762
515.94	4.837
516.14	4.143
516.33	4.996
516.53	4.591
516.73	4.584
516.93	4.470
517.12	5.260
517.32	3.871
517.52	5.090
517.71	4.538
517.91	4.771
518.11	4.582
518.30	4.550
518.50	4.068
518.70	4.755
518.90	4.749
519.09	4.972
519.29	5.082
519.49	5.181
519.68	4.664
519.88	5.294
520.08	5.149
520.27	5.179
520.47	5.093
520.67	5.245
520.86	5.180
521.06	5.503
521.26	4.557
521.45	5.460
521.65	4.734
521.85	4.938
522.04	4.545
522.24	5.457
522.44	4.410
522.63	4.990
522.83	4.838
523.03	5.348
523.22	4.762
523.42	5.342
523.62	5.265
523.81	5.051
524.01	4.975
524.21	4.937
524.40	4.352
524.60	4.899
524.80	4.554
524.99	4.973
525.19	4.935
525.39	5.053
525.58	4.701
525.78	4.886
525.98	4.981
526.17	5.115
526.37	4.929
526.57	5.292
526.76	5.422
526.96	5.225
527.15	4.994
527.35	5.086
527.55	5.033
527.74	5.419
527.94	5.160
528.14	5.097
528.33	5.100
528.53	5.311
528.72	5.155
528.92	5.482
529.12	5.255
529.31	5.452
529.51	5.467
529.71	5.594
529.90	5.738
530.10	5.646
530.29	5.700
530.49	5.861
530.69	5.698
530.88	5.819
531.08	5.882
531.28	5.877
531.47	5.553
531.67	5.706
531.86	5.517
532.06	5.678
532.26	5.428
532.45	5.468
532.65	5.259
532.84	5.541
533.04	4.766
533.24	5.175
533.43	4.976
533.63	5.561
533.82	5.362
534.02	5.583
534.22	5.486
534.41	5.791
534.61	5.774
534.80	5.662
535.00	5.562
535.19	5.728
535.39	5.722
535.59	5.841
535.78	5.483
535.98	5.880
536.17	5.358
536.37	5.603
536.57	5.208
536.76	5.919
536.96	5.392
537.15	5.821
537.35	5.465
537.54	5.670
537.74	5.675
537.93	5.858
538.13	5.489
538.33	5.640
538.52	5.833
538.72	5.972
538.91	5.773
539.11	5.758
539.30	5.402
539.50	5.880
539.70	5.638
539.89	5.969
540.09	5.528
540.28	5.660
540.48	5.349
540.67	5.600
540.87	5.460
541.06	5.722
541.26	5.422
541.45	5.868
541.65	5.657
541.85	6.050
542.04	5.732
542.24	6.063
542.43	5.878
542.63	6.197
542.82	6.013
543.02	6.138
543.21	6.224
543.41	6.401
543.60	6.103
543.80	6.418
543.99	5.830
544.19	6.422
544.38	6.210
544.58	6.292
544.77	5.896
544.97	6.540
545.16	5.641
545.36	6.343
545.56	6.028
545.75	6.125
545.95	5.915
546.14	6.217
546.34	5.592
546.53	6.315
546.73	5.677
546.92	6.073
547.12	5.933
547.31	6.474
547.51	6.038
547.70	6.334
547.90	5.867
548.09	6.332
548.29	6.171
548.48	6.720
548.68	6.532
548.87	6.881
549.07	6.204
549.26	6.032
549.46	6.670
549.65	6.445
549.84	6.020
550.04	6.024
550.23	5.545
550.43	6.406
550.62	5.966
550.82	6.402
551.01	5.946
551.21	6.334
551.40	6.014
551.60	6.497
551.79	5.899
551.99	6.158
552.18	5.891
552.38	6.196
552.57	6.250
552.77	6.610
552.96	6.626
553.16	6.584
553.35	6.989
553.54	7.218
553.74	6.863
553.93	7.094
554.13	7.009
554.32	6.958
554.52	6.790
554.71	7.046
554.91	6.515
555.10	7.378
555.29	6.530
555.49	7.025
555.68	6.744
555.88	7.173
556.07	5.877
556.27	7.343
556.46	7.470
556.66	7.253
556.85	6.844
557.04	7.298
557.24	6.696
557.43	7.796
557.63	7.028
557.82	7.008
558.02	7.147
558.21	7.478
558.40	6.897
558.60	7.063
558.79	7.629
558.99	7.825
559.18	7.449
559.38	7.292
559.57	7.796
559.76	7.551
559.96	7.913
560.15	7.838
560.35	7.353
560.54	7.681
560.73	6.749
560.93	7.840
561.12	7.229
561.32	8.064
561.51	8.031
561.70	8.507
561.90	7.335
562.09	8.565
562.29	7.747
562.48	8.105
562.67	7.960
562.87	8.649
563.06	7.458
563.26	8.254
563.45	7.887
563.64	9.122
563.84	7.834
564.03	8.479
564.23	7.452
564.42	9.207
564.61	8.000
564.81	9.172
565.00	8.257
565.20	9.278
565.39	9.048
565.58	8.999
565.78	8.432
565.97	9.141
566.16	9.432
566.36	9.608
566.55	9.202
566.74	9.092
566.94	8.994
567.13	9.425
567.33	9.013
567.52	9.818
567.71	9.148
567.91	9.810
568.10	9.341
568.29	9.772
568.49	9.302
568.68	9.961
568.87	9.173
569.07	9.721
569.26	9.560
569.45	10.030
569.65	9.393
569.84	10.451
570.04	9.746
570.23	10.114
570.42	8.892
570.62	9.752
570.81	9.738
571.00	9.820
571.20	9.929
571.39	10.294
571.58	9.943
571.78	10.169
571.97	9.830
572.16	10.155
572.36	10.058
572.55	10.436
572.74	10.322
572.94	10.123
573.13	10.020
573.32	10.261
573.51	9.990
573.71	10.501
573.90	10.169
574.09	10.647
574.29	10.233
574.48	10.564
574.67	10.180
574.87	10.378
575.06	9.826
575.25	10.499
575.45	10.247
575.64	10.610
575.83	10.187
576.03	11.290
576.22	10.159
576.41	10.389
576.60	10.052
576.80	9.926
576.99	10.554
577.18	11.076
577.38	10.199
577.57	10.340
577.76	10.875
577.95	9.976
578.15	9.814
578.34	10.639
578.53	9.803
578.73	10.513
578.92	9.531
579.11	10.085
579.30	10.546
579.50	9.871
579.69	10.330
579.88	10.211
580.08	9.601
580.27	10.229
580.46	9.885
580.65	10.480
580.85	10.094
581.04	10.428
581.23	9.433
581.42	10.145
581.62	9.399
581.81	10.390
582.00	10.254
582.19	10.041
582.39	10.619
582.58	10.171
582.77	10.288
582.96	9.571
583.16	9.088
583.35	10.416
583.54	9.547
583.73	10.434
583.93	10.036
584.12	9.852
584.31	8.913
584.50	9.700
584.70	9.568
584.89	10.285
585.08	9.218
585.27	10.159
585.47	9.175
585.66	9.743
585.85	9.351
586.04	9.769
586.24	10.119
586.43	8.993
586.62	9.260
586.81	9.897
587.00	9.049
587.20	10.736
587.39	9.055
587.58	10.692
587.77	9.566
587.97	8.835
588.16	9.509
588.35	10.415
588.54	9.169
588.73	9.566
588.93	10.013
589.12	9.885
589.31	9.059
589.50	9.194
589.69	10.127
589.89	9.513
590.08	8.973
590.27	9.262
590.46	9.550
590.65	9.226
590.85	8.568
591.04	10.081
591.23	9.260
591.42	9.765
591.61	9.426
591.81	9.572
592.00	9.351
592.19	9.911
592.38	8.942
592.57	9.596
592.77	10.001
592.96	9.501
593.15	10.336
593.34	9.848
593.53	9.532
593.72	9.123
593.92	8.621
594.11	10.353
594.30	9.057
594.49	10.650
594.68	10.211
594.87	10.042
595.07	8.507
595.26	10.219
595.45	9.217
595.64	9.870
595.83	8.749
596.02	10.444
596.22	10.007
596.41	10.146
596.60	9.770
596.79	10.591
596.98	9.376
597.17	10.727
597.37	9.995
597.56	10.652
597.75	9.495
597.94	10.569
598.13	10.486
598.32	10.258
598.51	9.869
598.71	10.889
598.90	10.205
599.09	10.535
599.28	10.069
599.47	10.221
599.66	9.700
599.85	10.504
600.05	9.708
600.24	11.075
600.43	9.767
600.62	10.259
600.81	9.659
601.00	10.554
601.19	8.641
601.38	10.640
601.58	9.983
601.77	9.619
601.96	9.575
602.15	10.649
602.34	10.585
602.53	11.172
602.72	9.435
602.91	10.238
603.10	9.270
603.30	10.796
603.49	10.410
603.68	10.646
603.87	9.725
604.06	10.650
604.25	10.338
604.44	10.666
604.63	10.517
604.82	10.764
605.01	10.661
605.21	10.737
605.40	10.388
605.59	10.927
605.78	10.709
605.97	10.418
606.16	10.664
606.35	10.518
606.54	10.307
606.73	11.508
606.92	10.126
607.11	11.320
607.30	10.261
607.50	10.643
607.69	10.111
607.88	10.681
608.07	10.020
608.26	10.943
608.45	10.807
608.64	11.032
608.83	9.664
609.02	10.449
609.21	9.875
609.40	10.688
609.59	9.654
609.78	10.230
609.97	10.116
610.16	10.790
610.35	10.114
610.55	10.005
610.74	10.098
610.93	10.959
611.12	10.296
611.31	9.876
611.50	10.198
611.69	9.755
611.88	9.822
612.07	11.207
612.26	9.368
612.45	10.251
612.64	9.333
612.83	10.290
613.02	9.071
613.21	9.329
613.40	9.642
613.59	10.944
613.78	8.856
613.97	9.598
614.16	9.052
614.35	10.765
614.54	8.459
614.73	8.579
614.92	9.168
615.11	9.514
615.30	9.176
615.49	8.831
615.68	8.971
615.87	8.990
616.07	8.559
616.26	8.858
616.45	9.291
616.64	8.138
616.83	8.627
617.02	9.318
617.21	7.904
617.40	8.778
617.59	8.874
617.78	8.671
617.97	8.060
618.16	8.618
618.35	7.086
618.54	8.858
618.73	8.246
618.92	8.580
619.11	7.485
619.30	9.203
619.49	6.869
619.68	8.889
619.86	8.282
620.05	8.709
620.24	8.602
620.43	8.568
620.62	7.310
620.81	9.106
621.00	9.018
621.19	9.622
621.38	8.909
621.57	8.914
621.76	8.301
621.95	9.414
622.14	7.967
622.33	8.602
622.52	7.989
622.71	8.376
622.90	8.093
623.09	8.647
623.28	8.462
623.47	8.543
623.66	8.115
623.85	8.049
624.04	7.399
624.23	8.355
624.42	6.768
624.61	8.095
624.80	6.269
624.99	8.204
625.18	6.639
625.36	8.419
625.55	8.278
625.74	6.962
625.93	7.256
626.12	8.220
626.31	8.867
626.50	8.151
626.69	7.876
626.88	8.727
627.07	8.994
627.26	7.859
627.45	8.374
627.64	8.239
627.83	7.738
628.02	8.410
628.20	7.780
628.39	8.013
628.58	8.331
628.77	8.327
628.96	7.646
629.15	8.075
629.34	8.086
629.53	7.484
629.72	7.038
629.91	9.494
630.10	8.121
630.29	8.010
630.47	7.528
630.66	7.839
630.85	7.897
631.04	8.158
631.23	8.099
631.42	7.801
631.61	7.976
631.80	9.203
631.99	7.042
632.18	7.821
632.36	7.309
632.55	8.553
632.74	8.206
632.93	7.028
633.12	7.610
633.31	8.293
633.50	6.933
633.69	8.408
633.88	6.985
634.06	7.971
634.25	7.597
634.44	7.410
634.63	7.458
634.82	8.835
635.01	7.216
635.20	7.401
635.39	7.144
635.57	7.663
635.76	7.742
635.95	7.401
636.14	6.909
636.33	7.968
636.52	7.078
636.71	7.558
636.89	7.831
637.08	7.107
637.27	7.303
637.46	6.984
637.65	7.171
637.84	7.665
638.03	6.589
638.21	8.125
638.40	7.983
638.59	6.820
638.78	7.109
638.97	8.172
639.16	7.939
639.34	7.578
639.53	6.385
639.72	9.052
639.91	6.750
640.10	6.256
640.29	8.960
640.47	8.322
640.66	7.061
640.85	8.529
641.04	5.800
641.23	7.119
641.42	7.853
641.60	7.067
641.79	7.325
641.98	7.308
642.17	6.749
642.36	7.959
642.54	6.910
642.73	7.328
642.92	6.729
643.11	7.299
643.30	6.875
643.49	6.337
643.67	6.676
643.86	6.950
644.05	6.709
644.24	7.153
644.43	7.556
644.61	7.399
644.80	7.179
644.99	6.540
645.18	7.806
645.37	7.109
645.55	7.042
645.74	7.553
645.93	7.370
646.12	7.066
646.31	7.727
646.49	7.402
646.68	7.385
646.87	6.934
647.06	6.656
647.24	7.333
647.43	6.458
647.62	8.485
647.81	6.511
648.00	7.694
648.18	5.606
648.37	7.131
648.56	6.976
648.75	6.821
648.93	7.015
649.12	7.664
649.31	6.461
649.50	7.276
649.68	6.825
649.87	6.816
650.06	6.279
650.25	7.740
650.43	6.182
650.62	6.992
650.81	6.849
651.00	6.953
651.18	6.307
651.37	7.497
651.56	6.424
651.75	7.260
651.93	6.011
652.12	7.420
652.31	6.133
652.50	7.138
652.68	6.348
652.87	8.270
653.06	7.869
653.25	7.383
653.43	6.409
653.62	6.664
653.81	6.813
654.00	7.610
654.18	6.667
654.37	7.880
654.56	6.755
654.74	6.513
654.93	6.620
655.12	7.331
655.31	7.902
655.49	7.710
655.68	6.928
655.87	6.162
656.05	6.500
656.24	7.115
656.43	6.256
656.62	7.305
656.80	6.953
656.99	6.623
657.18	6.233
657.36	6.565
657.55	6.922
657.74	6.665
657.93	6.923
658.11	8.067
658.30	7.123
658.49	5.835
658.67	6.693
658.86	5.364
659.05	5.850
659.23	7.283
659.42	5.980
659.61	6.316
659.79	5.215
659.98	6.436
660.17	7.009
660.35	6.089
660.54	6.962
660.73	7.697
660.91	6.446
661.10	6.741
661.29	5.065
661.47	5.865
661.66	6.652
661.85	6.948
662.03	6.518
662.22	5.478
662.41	5.203
662.59	6.447
662.78	5.738
662.97	6.264
663.15	6.195
663.34	6.272
663.53	5.707
663.71	6.598
663.90	5.902
664.09	5.671
664.27	6.803
664.46	6.204
664.65	6.058
664.83	6.016
665.02	6.818
665.21	5.506
665.39	5.983
665.58	6.550
665.77	6.727
665.95	7.146
666.14	7.120
666.32	6.591
666.51	5.285
666.70	5.301
666.88	6.161
667.07	5.793
667.26	4.809
667.44	6.160
667.63	6.039
667.81	6.616
668.00	5.511
668.19	8.409
668.37	6.957
668.56	6.838
668.75	5.801
668.93	6.527
669.12	5.513
669.30	6.326
669.49	5.105
669.68	6.632
669.86	7.496
670.05	5.612
670.23	5.606
670.42	6.915
670.61	6.813
670.79	7.720
670.98	6.757
671.16	6.846
671.35	5.918
671.54	6.607
671.72	6.152
671.91	7.165
672.09	6.422
672.28	6.938
672.46	7.891
672.65	6.966
672.84	7.110
673.02	8.193
673.21	5.778
673.39	5.866
673.58	8.451
673.77	7.075
673.95	6.666
674.14	7.672
674.32	6.555
674.51	7.606
674.69	6.817
674.88	7.493
675.07	6.909
675.25	9.585
675.44	7.197
675.62	7.583
675.81	6.830
675.99	10.462
676.18	8.571
676.36	6.709
676.55	7.543
676.74	8.447
676.92	8.189
677.11	7.615
677.29	8.288
677.48	8.390
677.66	8.319
677.85	7.715
678.03	8.356
678.22	8.890
678.40	7.943
678.59	7.066
678.78	6.870
678.96	7.120
679.15	8.114
679.33	9.370
679.52	8.655
679.70	8.077
679.89	7.187
680.07	7.780
680.26	6.407
680.44	6.764
680.63	7.397
680.81	7.255
681.00	5.914
681.18	6.793
681.37	7.023
681.55	7.893
681.74	7.719
681.92	8.541
682.11	7.401
682.29	7.055
682.48	7.117
682.66	7.914
682.85	8.698
683.03	8.129
683.22	8.240
683.40	8.887
683.59	8.329
683.77	8.554
683.96	8.182
684.14	8.854
684.33	7.507
684.51	10.931
684.70	8.514
684.88	11.035
685.07	8.909
685.25	9.460
685.44	8.554
685.62	8.920
685.81	7.754
685.99	10.376
686.18	8.701
686.36	9.778
686.55	8.210
686.73	8.045
686.92	9.485
687.10	9.050
687.29	10.666
687.47	10.406
687.65	10.393
687.84	9.317
688.02	12.381
688.21	11.885
688.39	9.750
688.58	11.315
688.76	10.082
688.95	9.654
689.13	8.967
689.32	11.567
689.50	11.237
689.68	11.365
689.87	9.824
690.05	12.296
690.24	11.337
690.42	12.439
690.61	11.262
690.79	12.218
690.98	11.836
691.16	12.323
691.34	9.995
691.53	12.760
691.71	11.592
691.90	13.337
692.08	10.503
692.27	13.178
692.45	14.884
692.63	12.514
692.82	14.645
693.00	11.667
693.19	12.349
693.37	14.008
693.56	11.535
693.74	15.415
693.92	14.082
694.11	14.585
694.29	15.046
694.48	15.205
694.66	14.536
694.84	16.427
695.03	14.116
695.21	16.091
695.40	17.000
695.58	18.634
695.76	15.283
695.95	18.000
696.13	14.964
696.32	16.740
696.50	21.820
696.68	16.538
696.87	15.995
697.05	17.892
697.24	18.817
697.42	19.725
697.60	17.523
697.79	18.048
697.97	19.079
698.16	20.138
698.34	17.535
698.52	20.823
698.71	19.071
698.89	20.109
699.07	20.088
699.26	19.881
699.44	20.238
699.63	21.123
699.81	19.332
699.99	22.115
700.18	21.609
700.36	22.101
700.54	21.596
700.73	21.487
700.91	20.857
701.09	22.023
701.28	21.572
701.46	22.803
701.64	20.941
701.83	22.412
702.01	19.984
702.20	24.869
702.38	24.181
702.56	22.804
702.75	23.171
702.93	21.927
703.11	22.126
703.30	24.309
703.48	23.984
703.66	23.746
703.85	22.746
704.03	27.377
704.21	24.222
704.40	27.626
704.58	22.733
704.76	27.318
704.95	23.873
705.13	26.501
705.31	24.243
705.50	26.512
705.68	23.964
705.86	26.162
706.04	24.939
706.23	26.755
706.41	25.941
706.59	26.297
706.78	23.806
706.96	27.621
707.14	28.395
707.33	26.826
707.51	25.770
707.69	27.427
707.88	25.059
708.06	28.134
708.24	25.691
708.42	28.730
708.61	25.717
708.79	28.583
708.97	28.275
709.16	27.845
709.34	29.285
709.52	28.246
709.71	26.212
709.89	28.977
710.07	25.200
710.25	29.613
710.44	27.224
710.62	27.583
710.80	28.708
710.98	30.265
711.17	27.786
711.35	29.698
711.53	26.595
711.72	29.276
711.90	30.299
712.08	29.519
712.26	25.559
712.45	28.397
712.63	29.583
712.81	31.009
712.99	28.736
713.18	30.711
713.36	28.401
713.54	30.347
713.72	28.688
713.91	28.491
714.09	25.793
714.27	28.746
714.45	28.844
714.64	31.034
714.82	28.179
715.00	29.615
715.18	28.818
715.37	29.795
715.55	29.547
715.73	30.135
715.91	30.124
716.10	30.413
716.28	26.095
716.46	30.472
716.64	28.848
716.83	29.575
717.01	27.253
717.19	30.774
717.37	29.626
717.55	31.163
717.74	28.152
717.92	31.979
718.10	26.261
718.28	30.292
718.47	28.846
718.65	30.802
718.83	29.467
719.01	31.926
719.19	29.897
719.38	29.438
719.56	31.080
719.74	30.585
719.92	26.584
720.10	27.215
720.29	29.820
720.47	31.610
720.65	29.746
720.83	33.086
721.01	26.653
721.20	29.086
721.38	28.324
721.56	30.556
721.74	30.193
721.92	29.036
722.11	26.995
722.29	30.503
722.47	31.118
722.65	30.185
722.83	31.406
723.01	30.303
723.20	28.620
723.38	28.996
723.56	29.201
723.74	34.523
723.92	29.749
724.10	31.621
724.29	26.401
724.47	32.722
724.65	29.007
724.83	31.489
725.01	29.210
725.19	35.040
725.38	30.480
725.56	31.973
725.74	31.815
725.92	33.089
726.10	30.532
726.28	31.066
726.46	30.260
726.65	32.088
726.83	29.838
727.01	31.437
727.19	30.565
727.37	31.901
727.55	31.884
727.73	30.272
727.92	30.683
728.10	33.053
728.28	28.957
728.46	31.897
728.64	30.023
728.82	33.014
729.00	31.354
729.19	31.972
729.37	32.102
729.55	33.762
729.73	26.494
729.91	33.221
730.09	33.806
730.27	33.142
730.45	29.732
730.63	31.907
730.82	29.648
731.00	31.058
731.18	29.963
731.36	30.788
731.54	29.865
731.72	33.320
731.90	29.194
732.08	32.419
732.26	28.224
732.45	35.510
732.63	32.875
732.81	32.194
732.99	33.373
733.17	33.346
733.35	29.702
733.53	33.711
733.71	30.876
733.89	33.054
734.07	31.424
734.25	37.465
734.44	32.748
734.62	32.955
734.80	28.629
734.98	34.526
735.16	33.184
735.34	33.501
735.52	34.590
735.70	32.989
735.88	31.775
736.06	32.556
736.24	37.139
736.42	35.756
736.60	33.821
736.78	33.667
736.97	29.747
737.15	34.494
737.33	29.724
737.51	37.165
737.69	33.149
737.87	33.366
738.05	35.696
738.23	32.311
738.41	34.880
738.59	34.069
738.77	32.191
738.95	35.230
739.13	34.803
739.31	35.170
739.49	33.995
739.67	36.430
739.85	33.259
740.03	35.239
740.21	34.596
740.39	36.761
740.57	35.182
740.75	35.495
740.93	35.646
741.11	37.707
741.30	33.797
741.48	36.275
741.66	36.479
741.84	35.060
742.02	31.184
742.20	36.652
742.38	33.170
742.56	38.390
742.74	32.379
742.92	33.861
743.10	33.186
743.28	36.682
743.46	33.978
743.64	35.445
743.82	32.396
744.00	37.115
744.18	34.770
744.36	35.944
744.54	31.609
744.72	39.505
744.90	36.077
745.08	37.122
745.26	35.051
745.44	39.921
745.62	34.094
745.80	35.513
745.98	35.708
746.16	40.782
746.34	33.782
746.52	38.024
746.70	32.373
746.87	32.749
747.05	36.008
747.23	38.994
747.41	35.470
747.59	39.819
747.77	30.274
747.95	33.748
748.13	31.289
748.31	38.395
748.49	35.493
748.67	35.666
748.85	34.156
749.03	38.626
749.21	30.965
749.39	36.940
749.57	32.545
749.75	32.936
749.93	35.487
750.11	37.255
750.29	36.068
750.47	36.528
750.65	35.195
750.83	37.707
751.01	29.604
751.18	36.694
751.36	31.931
751.54	32.640
751.72	37.307
751.90	35.062
752.08	31.841
752.26	33.814
752.44	35.678
752.62	35.803
752.80	34.854
752.98	37.406
753.16	34.885
753.34	35.897
753.52	37.492
753.69	34.282
753.87	35.670
754.05	35.262
754.23	35.421
754.41	37.008
754.59	34.729
754.77	37.313
754.95	35.673
755.13	34.049
755.31	34.894
755.49	33.374
755.66	35.913
755.84	34.788
756.02	30.231
756.20	36.585
756.38	32.915
756.56	36.096
756.74	32.388
756.92	33.852
757.10	33.089
757.28	36.634
757.45	40.687
757.63	38.317
757.81	33.837
757.99	39.295
758.17	32.380
758.35	38.178
758.53	37.179
758.71	37.015
758.88	34.324
759.06	34.809
759.24	32.517
759.42	31.635
759.60	32.922
759.78	35.462
759.96	29.118
760.13	35.708
760.31	30.170
760.49	30.192
760.67	26.029
760.85	30.627
761.03	28.778
761.21	29.619
761.38	26.435
761.56	30.027
761.74	27.506
761.92	33.494
762.10	24.150
762.28	32.192
762.46	24.807
762.63	26.506
762.81	27.472
762.99	28.676
763.17	29.087
763.35	28.256
763.53	24.753
763.70	29.831
763.88	31.403
764.06	29.776
764.24	27.266
764.42	30.491
764.60	29.488
764.77	28.869
764.95	28.798
765.13	30.930
765.31	30.143
765.49	31.872
765.66	26.258
765.84	31.639
766.02	30.143
766.20	31.367
766.38	30.183
766.56	33.333
766.73	30.082
766.91	29.481
767.09	31.919
767.27	34.175
767.45	31.038
767.62	32.981
767.80	27.529
767.98	34.384
768.16	28.988
768.33	34.174
768.51	31.971
768.69	33.540
768.87	33.639
769.05	31.669
769.22	32.167
769.40	37.059
769.58	34.387
769.76	34.891
769.94	33.673
770.11	34.153
770.29	32.716
770.47	36.236
770.65	36.023
770.82	38.091
771.00	33.200
771.18	38.182
771.36	33.847
771.53	33.758
771.71	31.333
771.89	38.593
772.07	35.572
772.25	37.443
772.42	33.546
772.60	37.281
772.78	38.721
772.96	38.584
773.13	37.576
773.31	38.544
773.49	29.888
773.67	39.301
773.84	34.450
774.02	35.970
774.20	37.826
774.37	34.961
774.55	34.077
774.73	39.840
774.91	38.422
775.08	36.581
775.26	36.925
775.44	40.934
775.62	36.382
775.79	32.454
775.97	31.833
776.15	34.684
776.32	31.554
776.50	39.718
776.68	39.877
776.86	43.453
777.03	34.944
777.21	38.458
777.39	35.453
777.56	37.712
777.74	35.239
777.92	38.304
778.10	34.203
778.27	35.205
778.45	37.309
778.63	41.227
778.80	35.311
778.98	42.221
779.16	39.909
779.34	38.324
779.51	36.643
779.69	38.550
779.87	35.227
780.04	38.067
780.22	35.364
780.40	34.750
780.57	38.990
780.75	33.255
780.93	39.551
781.10	36.142
781.28	47.966
781.46	34.317
781.63	38.408
781.81	42.075
781.99	34.412
782.16	38.523
782.34	32.718
782.52	34.389
782.69	40.430
782.87	34.427
783.05	36.480
783.22	39.352
783.40	35.216
783.58	35.711
783.75	37.333
783.93	41.325
784.11	37.629
784.28	42.634
784.46	36.978
784.64	39.319
784.81	36.164
784.99	41.267
785.17	38.681
785.34	33.183
785.52	36.607
785.69	38.739
785.87	35.422
786.05	40.046
786.22	42.058
786.40	46.219
786.58	37.514
786.75	40.398
786.93	34.901
787.11	38.180
787.28	34.531
787.46	38.729
787.63	34.879
787.81	38.260
787.99	38.987
788.16	39.060
788.34	34.883
788.51	34.594
788.69	32.289
788.87	33.542
789.04	36.156
789.22	37.948
789.39	35.085
789.57	35.557
789.75	32.049
789.92	34.500
790.10	34.421
790.27	36.702
790.45	28.103
790.63	37.361
790.80	31.700
790.98	33.150
791.15	33.731
791.33	34.948
791.51	35.622
791.68	39.802
791.86	35.610
792.03	38.973
792.21	34.571
792.39	38.264
792.56	35.604
792.74	40.180
792.91	40.275
793.09	39.858
793.26	38.599
793.44	42.373
793.62	35.578
793.79	38.116
793.97	42.775
794.14	35.872
794.32	42.170
794.49	42.280
794.67	32.416
794.84	36.042
795.02	37.869
795.20	40.620
795.37	32.667
795.55	36.653
795.72	39.236
795.90	36.723
796.07	37.955
796.25	37.689
796.42	35.890
796.60	35.757
796.77	35.627
796.95	37.287
797.13	29.382
797.30	39.520
797.48	35.328
797.65	40.546
797.83	36.074
798.00	38.883
798.18	32.361
798.35	38.574
798.53	36.354
798.70	35.649
798.88	39.989
799.05	35.036
799.23	33.314
799.40	36.449
799.58	37.130
799.75	34.522
799.93	36.304
800.10	37.941
800.28	36.231
800.45	40.106
800.63	30.695
800.80	42.822
800.98	36.116
801.15	36.330
801.33	36.227
801.50	37.635
801.68	36.911
801.85	35.104
802.03	33.969
802.20	35.198
802.38	37.632
802.55	30.712
802.73	41.569
802.90	37.757
803.08	34.845
803.25	44.000
803.43	38.613
803.60	41.755
803.78	41.066
803.95	40.302
804.13	41.735
804.30	38.871
804.48	37.912
804.65	36.425
804.83	38.309
805.00	38.168
805.17	38.933
805.35	35.123
805.52	30.668
805.70	41.137
805.87	39.065
806.05	40.842
806.22	36.585
806.40	36.758
806.57	40.670
806.75	43.675
806.92	41.318
807.09	37.726
807.27	41.418
807.44	39.145
807.62	42.777
807.79	34.451
807.97	34.517
808.14	37.551
808.31	44.112
808.49	40.958
808.66	36.636
808.84	32.040
809.01	37.817
809.19	35.244
809.36	47.340
809.53	40.906
809.71	43.520
809.88	46.653
810.06	46.904
810.23	37.379
810.41	42.076
810.58	43.714
810.75	37.761
810.93	32.515
811.10	37.277
811.28	37.417
811.45	46.830
811.62	41.744
811.80	39.938
811.97	43.740
812.15	48.480
812.32	39.457
812.49	43.759
812.67	40.168
812.84	41.986
813.02	43.274
813.19	47.167
813.36	40.768
813.54	36.468
813.71	44.436
813.89	38.099
814.06	40.807
814.23	47.238
814.41	44.463
814.58	47.508
814.75	44.473
814.93	45.559
815.10	41.465
815.28	41.577
815.45	42.157
815.62	43.464
815.80	43.180
815.97	43.782
816.14	44.170
816.32	42.577
816.49	40.829
816.66	41.711
816.84	37.093
817.01	40.872
817.18	41.825
817.36	43.176
817.53	45.221
817.71	35.743
817.88	41.743
818.05	38.253
818.23	42.206
818.40	38.043
818.57	43.812
818.75	37.138
818.92	31.433
819.09	37.037
819.27	40.243
819.44	43.179
819.61	34.019
819.79	35.508
819.96	41.719
820.13	34.922
820.31	35.369
820.48	37.208
820.65	33.810
820.82	31.746
821.00	36.554
821.17	28.782
821.34	32.772
821.52	30.935
821.69	31.134
821.86	29.107
822.04	27.138
822.21	28.227
822.38	30.536
822.56	28.383
822.73	30.934
822.90	28.595
823.07	30.648
823.25	29.581
823.42	28.543
823.59	27.949
823.77	29.382
823.94	28.648
824.11	29.487
824.29	27.842
824.46	29.744
824.63	29.931
824.80	28.289
824.98	27.508
825.15	30.630
825.32	25.088
825.49	26.993
825.67	27.777
825.84	28.897
826.01	26.145
826.19	29.833
826.36	25.683
826.53	30.417
826.70	27.289
826.88	30.053
827.05	24.660
827.22	27.423
827.39	27.656
827.57	27.082
827.74	24.611
827.91	28.947
828.08	26.549
828.26	27.189
828.43	26.600
828.60	28.676
828.77	27.162
828.95	30.437
829.12	21.847
829.29	25.756
829.46	26.621
829.64	27.018
829.81	25.954
829.98	33.406
830.15	27.829
830.32	32.026
830.50	30.102
830.67	32.887
830.84	31.140
831.01	27.230
831.19	30.274
831.36	35.502
831.53	35.652
831.70	43.381
831.87	41.625
832.05	34.856
832.22	40.613
832.39	33.710
832.56	39.850
832.74	31.587
832.91	33.526
833.08	43.280
833.25	32.208
833.42	33.694
833.60	32.627
833.77	30.811
833.94	29.979
834.11	27.685
834.28	26.011
834.45	31.717
834.63	25.371
834.80	29.038
834.97	29.721
835.14	28.352
835.31	26.572
835.49	28.099
835.66	27.466
835.83	25.452
836.00	25.345
836.17	28.448
836.34	25.435
836.52	27.268
836.69	30.975
836.86	35.097
837.03	31.663
837.20	33.146
837.37	33.250
837.55	31.204
837.72	35.884
837.89	35.503
838.06	42.915
838.23	42.393
838.40	40.087
838.58	32.524
838.75	42.992
838.92	50.686
839.09	50.598
839.26	48.257
839.43	54.051
839.60	55.589
839.78	62.227
839.95	49.744
840.12	51.389
840.29	58.841
840.46	53.122
840.63	50.639
840.80	45.743
840.98	46.787
841.15	49.473
841.32	41.613
841.49	42.573
841.66	48.831
841.83	48.957
842.00	42.018
842.17	52.340
842.34	43.353
842.52	50.407
842.69	56.993
842.86	56.200
843.03	64.082
843.20	63.995
843.37	60.130
843.54	62.701
843.71	57.213
843.88	77.070
844.06	78.254
844.23	72.041
844.40	61.144
844.57	75.282
844.74	63.238
844.91	85.018
845.08	75.402
845.25	87.572
845.42	76.136
845.59	73.790
845.76	59.494
845.94	84.185
846.11	82.655
846.28	78.300
846.45	102.852
846.62	94.881
846.79	72.848
846.96	84.291
847.13	96.303
847.30	76.283
847.47	74.327
847.64	89.036
847.81	84.906
847.98	108.039
848.15	87.591
848.32	85.170
848.50	86.767
848.67	78.364
848.84	92.842
849.01	97.309
849.18	94.143
849.35	112.418
849.52	93.840
849.69	75.814
849.86	98.817
850.03	89.313
850.20	84.073
850.37	74.286
850.54	107.969
850.71	101.411
850.88	77.264
851.05	96.104
851.22	92.562
851.39	98.081
851.56	81.836
851.73	91.954
851.90	84.749
852.07	90.364
852.24	97.837
852.41	104.147
852.58	123.316
852.75	82.875
852.92	94.132
853.09	106.195
853.26	92.609
853.43	108.029
853.60	86.982
853.77	113.675
853.94	106.318
854.11	119.438
854.28	97.605
854.45	90.583
854.62	92.478
854.79	113.777
854.96	87.264
855.13	93.534
855.30	93.580
855.47	123.387
855.64	103.788
855.81	96.087
855.98	102.461
856.15	94.570
856.32	109.610
856.49	105.600
856.66	100.206
856.83	101.068
857.00	115.957
857.17	98.614
857.34	104.850
857.51	91.455
857.68	113.731
857.85	96.996
858.02	111.894
858.19	88.358
858.36	84.018
858.53	109.929
858.70	111.036
858.87	98.710
859.04	92.534
859.21	113.861
859.38	97.694
859.55	119.715
859.72	122.865
859.89	119.060
860.05	103.011
860.22	118.242
860.39	86.335
860.56	119.837
860.73	90.868
860.90	82.942
861.07	123.373
861.24	80.324
861.41	104.641
861.58	96.437
861.75	113.351
861.92	98.430
862.09	96.652
862.26	122.857
862.43	106.481
862.59	114.795
862.76	124.227
862.93	113.617
863.10	123.885
863.27	103.043
863.44	111.566
863.61	101.786
863.78	102.169
863.95	141.824
864.12	96.639
864.29	114.489
864.45	114.428
864.62	100.483
864.79	82.778
864.96	115.534
865.13	102.140
865.30	92.694
865.47	96.015
865.64	115.610
865.81	113.418
865.97	85.498
866.14	89.813
866.31	83.117
866.48	81.414
866.65	78.337
866.82	117.303
866.99	134.561
867.16	88.235
867.33	96.163
867.49	100.469
867.66	106.127
867.83	147.231
868.00	98.958
868.17	100.227
868.34	113.318
868.51	90.074
868.67	104.972
868.84	99.760
869.01	115.424
869.18	99.206
869.35	121.802
869.52	121.543
869.69	115.594
869.85	99.776
870.02	108.845
870.19	109.669
870.36	117.043
870.53	87.162
870.70	119.952
870.86	85.827
871.03	104.471
871.20	119.897
871.37	105.180
871.54	113.754
871.71	90.080
871.87	130.159
872.04	95.267
872.21	113.514
872.38	104.726
872.55	118.912
872.72	97.052
872.88	108.197
873.05	84.257
873.22	105.839
873.39	109.223
873.56	101.786
873.72	98.670
873.89	81.046
874.06	98.567
874.23	95.652
874.40	112.603
874.56	92.990
874.73	99.259
874.90	75.286
875.07	100.241
875.24	100.716
875.40	88.372
875.57	98.596
875.74	110.500
875.91	93.987
876.08	97.254
876.24	118.619
876.41	93.515
876.58	105.105
876.75	90.633
876.92	95.736
877.08	95.735
877.25	89.895
877.42	92.731
877.59	97.101
877.75	106.019
877.92	87.860
878.09	96.923
878.26	80.658
878.42	132.765
878.59	117.995
878.76	100.000
878.93	118.362
879.09	105.310
879.26	91.786
879.43	119.951
879.60	90.802
879.76	75.459
879.93	84.278
880.10	69.659
880.27	82.135
880.43	81.879
880.60	69.257
880.77	53.345
880.94	67.380
881.10	47.831
881.27	53.937
881.44	43.321
881.61	42.607
881.77	43.785
881.94	31.964
882.11	30.124
882.28	26.761
882.44	29.847
882.61	25.260
882.78	30.392
882.94	32.789
883.11	28.513
883.28	26.467
883.45	32.421
883.61	24.627
883.78	26.310
883.95	30.491
884.11	26.946
884.28	25.840
>>>>>End Processed Spectral Data<<<<<
