SpectraSuite Data File
++++++++++++++++++++++++++++++++++++
Date: Tue Sep 24 03:43:46 EST 2019
User: sgrac
Dark Spectrum Present: Yes
Reference Spectrum Present: Yes
Number of Sampled Component Spectra: 1
Spectrometers: USB4E01596
Integration Time (usec): 100000 (USB4E01596)
Spectra Averaged: 3 (USB4E01596)
Boxcar Smoothing: 0 (USB4E01596)
Correct for Electrical Dark: No (USB4E01596)
Strobe/Lamp Enabled: Yes (USB4E01596)
Correct for Detector Non-linearity: No (USB4E01596)
Correct for Stray Light: No (USB4E01596)
Number of Pixels in Processed Spectrum: 3648
>>>>>Begin Processed Spectral Data<<<<<
178.44	1536.364
178.66	1536.364
178.87	1536.364
179.09	671.698
179.30	788.889
179.52	-1430.000
179.74	784.906
179.95	770.149
180.17	-20550.000
180.38	-12433.333
180.60	549.438
180.82	-3600.000
181.03	889.189
181.25	-1721.739
181.46	622.222
181.68	3900.000
181.89	-1887.500
182.11	639.394
182.33	1320.000
182.54	770.175
182.76	-862.500
182.97	264.596
183.19	826.667
183.40	4544.444
183.62	539.024
183.84	606.667
184.05	1034.783
184.27	487.654
184.48	-2055.556
184.70	462.366
184.91	619.737
185.13	686.842
185.34	520.430
185.56	1143.750
185.78	1654.167
185.99	2412.500
186.21	573.750
186.42	835.714
186.64	492.473
186.85	914.583
187.07	-4130.000
187.28	-1735.294
187.50	-37900.000
187.72	40500.000
187.93	-1895.833
188.15	1111.628
188.36	613.514
188.58	604.054
188.79	-6828.571
189.01	-3600.000
189.22	1584.000
189.44	511.628
189.65	550.000
189.87	-6428.571
190.09	1200.000
190.30	1100.000
190.52	2190.476
190.73	7583.333
190.95	1173.684
191.16	468.354
191.38	3900.000
191.59	3407.143
191.81	1458.824
192.02	978.723
192.24	844.898
192.45	2894.118
192.67	553.247
192.88	475.510
193.10	684.848
193.31	462.626
193.53	1152.632
193.74	-35400.000
193.96	726.761
194.18	392.453
194.39	429.348
194.61	509.259
194.82	360.169
195.04	391.589
195.25	0.000
195.47	-45600.000
195.68	427.000
195.90	521.176
196.11	478.313
196.33	948.837
196.54	424.771
196.76	1178.788
196.97	-3391.667
197.19	536.047
197.40	822.807
197.62	773.585
197.83	472.115
198.05	731.507
198.26	0.000
198.48	-800.000
198.69	1413.333
198.91	5857.143
199.12	-9300.000
199.34	496.667
199.55	-37300.000
199.77	2522.222
199.98	676.056
200.20	355.372
200.41	628.947
200.63	1267.647
200.84	-3392.308
201.06	489.873
201.27	1800.000
201.49	823.404
201.70	565.517
201.91	688.732
202.13	623.881
202.34	-1680.000
202.56	312.676
202.77	5275.000
202.99	5800.000
203.20	695.652
203.42	1113.514
203.63	4850.000
203.85	473.950
204.06	719.231
204.28	340.678
204.49	1200.000
204.71	-1087.500
204.92	380.435
205.14	1390.323
205.35	1023.810
205.56	471.429
205.78	-892.000
205.99	1220.513
206.21	829.825
206.42	572.727
206.64	1891.304
206.85	491.566
207.07	-504.839
207.28	1488.000
207.50	546.739
207.71	808.333
207.93	11333.333
208.14	1150.000
208.35	-2966.667
208.57	-965.517
208.78	332.867
209.00	1082.500
209.21	491.089
209.43	-6450.000
209.64	263.636
209.86	703.509
210.07	866.667
210.28	1210.345
210.50	7366.667
210.71	1209.677
210.93	-2806.667
211.14	792.727
211.36	502.083
211.57	1722.222
211.78	4644.444
212.00	-2233.333
212.21	1156.098
212.43	830.357
212.64	508.537
212.86	1956.522
213.07	601.471
213.29	2750.000
213.50	334.921
213.71	572.289
213.93	371.538
214.14	417.094
214.36	421.176
214.57	-3940.000
214.78	1215.385
215.00	399.174
215.21	1217.500
215.43	1608.000
215.64	475.000
215.86	422.642
216.07	9550.000
216.28	708.955
216.50	489.216
216.71	1344.828
216.93	-1016.279
217.14	470.707
217.35	789.286
217.57	411.966
217.78	656.452
218.00	446.465
218.21	553.521
218.42	1737.037
218.64	2946.667
218.85	905.357
219.07	405.042
219.28	592.308
219.49	460.550
219.71	645.714
219.92	1236.000
220.14	826.087
220.35	3736.364
220.56	982.927
220.78	1315.152
220.99	578.462
221.21	617.568
221.42	555.405
221.63	7750.000
221.85	1746.429
222.06	1004.167
222.28	596.203
222.49	484.946
222.70	409.000
222.92	836.842
223.13	1927.778
223.34	1362.500
223.56	322.047
223.77	306.944
223.99	504.444
224.20	294.521
224.41	570.667
224.63	506.122
224.84	305.714
225.05	364.000
225.27	684.314
225.48	394.949
225.69	458.333
225.91	513.253
226.12	225.510
226.34	265.922
226.55	190.213
226.76	254.737
226.98	267.500
227.19	191.667
227.40	212.121
227.62	186.408
227.83	134.530
228.04	157.229
228.26	130.931
228.47	89.892
228.69	91.429
228.90	71.927
229.11	62.891
229.33	50.907
229.54	53.580
229.75	49.424
229.97	47.914
230.18	49.539
230.39	41.046
230.61	40.895
230.82	54.162
231.03	41.372
231.25	49.765
231.46	52.854
231.67	52.417
231.89	62.745
232.10	56.901
232.31	71.734
232.53	74.841
232.74	85.984
232.95	67.350
233.17	71.154
233.38	62.814
233.59	81.329
233.81	81.849
234.02	83.725
234.23	80.488
234.45	83.413
234.66	75.455
234.87	71.628
235.09	64.823
235.30	68.605
235.51	74.786
235.73	66.226
235.94	67.868
236.15	72.857
236.36	74.659
236.58	66.368
236.79	57.729
237.00	60.469
237.22	54.444
237.43	64.841
237.64	60.000
237.86	53.463
238.07	74.961
238.28	64.000
238.50	67.460
238.71	67.218
238.92	51.893
239.13	66.714
239.35	61.912
239.56	55.238
239.77	65.757
239.99	48.455
240.20	65.659
240.41	54.303
240.63	42.996
240.84	51.472
241.05	46.654
241.26	38.400
241.48	36.316
241.69	34.796
241.90	29.612
242.12	31.061
242.33	25.961
242.54	21.538
242.75	23.366
242.97	24.479
243.18	21.817
243.39	18.312
243.61	21.813
243.82	21.308
244.03	19.210
244.24	22.441
244.46	21.901
244.67	25.903
244.88	21.770
245.09	20.739
245.31	19.256
245.52	23.529
245.73	30.340
245.95	36.500
246.16	25.481
246.37	18.987
246.58	22.031
246.80	21.961
247.01	20.372
247.22	17.069
247.43	14.634
247.65	14.422
247.86	14.793
248.07	10.991
248.28	12.051
248.50	12.676
248.71	13.401
248.92	10.963
249.13	13.282
249.35	12.393
249.56	15.482
249.77	15.690
249.98	13.660
250.20	18.803
250.41	19.871
250.62	22.594
250.83	19.982
251.05	25.024
251.26	25.521
251.47	23.844
251.68	28.106
251.90	20.765
252.11	25.125
252.32	26.137
252.53	22.519
252.75	17.787
252.96	25.033
253.17	20.643
253.38	20.446
253.59	21.046
253.81	20.513
254.02	19.108
254.23	20.913
254.44	21.364
254.66	25.000
254.87	24.403
255.08	27.784
255.29	34.146
255.50	31.485
255.72	26.947
255.93	26.378
256.14	31.215
256.35	28.636
256.57	29.609
256.78	28.671
256.99	27.907
257.20	30.228
257.41	30.013
257.63	31.021
257.84	27.436
258.05	29.091
258.26	19.104
258.47	26.847
258.69	17.410
258.90	17.738
259.11	20.103
259.32	18.306
259.53	15.555
259.75	14.286
259.96	9.910
260.17	12.732
260.38	9.758
260.59	9.856
260.81	9.309
261.02	10.767
261.23	9.632
261.44	10.866
261.65	10.601
261.87	9.291
262.08	10.191
262.29	10.935
262.50	12.116
262.71	12.253
262.92	13.959
263.14	12.272
263.35	14.529
263.56	19.892
263.77	20.492
263.98	16.981
264.20	19.690
264.41	17.743
264.62	18.878
264.83	18.098
265.04	22.647
265.25	17.671
265.47	22.986
265.68	19.541
265.89	23.118
266.10	16.770
266.31	21.714
266.52	17.947
266.74	18.161
266.95	15.382
267.16	17.836
267.37	16.908
267.58	17.586
267.79	16.214
268.01	12.795
268.22	14.795
268.43	14.343
268.64	15.463
268.85	14.184
269.06	11.159
269.27	16.160
269.49	15.915
269.70	13.716
269.91	15.094
270.12	14.272
270.33	17.428
270.54	14.876
270.75	14.675
270.97	13.975
271.18	14.835
271.39	14.962
271.60	14.084
271.81	11.017
272.02	13.943
272.23	13.210
272.45	11.627
272.66	11.839
272.87	12.166
273.08	9.898
273.29	13.826
273.50	12.686
273.71	11.044
273.92	10.452
274.14	10.671
274.35	11.530
274.56	11.906
274.77	11.275
274.98	11.978
275.19	16.203
275.40	11.455
275.61	11.838
275.83	15.735
276.04	13.871
276.25	18.599
276.46	14.723
276.67	16.258
276.88	16.233
277.09	13.229
277.30	15.538
277.51	15.310
277.73	14.229
277.94	14.215
278.15	13.965
278.36	15.526
278.57	14.571
278.78	14.662
278.99	14.631
279.20	16.662
279.41	18.366
279.62	12.565
279.84	11.068
280.05	15.037
280.26	13.007
280.47	14.065
280.68	13.105
280.89	11.242
281.10	13.984
281.31	15.140
281.52	13.370
281.73	13.215
281.94	11.079
282.16	13.735
282.37	12.594
282.58	12.743
282.79	13.105
283.00	13.315
283.21	9.748
283.42	11.091
283.63	11.591
283.84	11.946
284.05	11.239
284.26	12.087
284.47	11.215
284.68	10.477
284.89	10.947
285.11	12.184
285.32	11.010
285.53	12.225
285.74	12.456
285.95	11.098
286.16	9.477
286.37	7.973
286.58	10.085
286.79	8.435
287.00	10.344
287.21	8.925
287.42	10.811
287.63	9.482
287.84	8.768
288.05	9.754
288.26	9.757
288.48	10.915
288.69	8.291
288.90	10.859
289.11	11.026
289.32	10.821
289.53	10.697
289.74	9.431
289.95	12.352
290.16	11.042
290.37	10.102
290.58	9.273
290.79	9.737
291.00	9.720
291.21	9.812
291.42	10.653
291.63	10.335
291.84	9.780
292.05	10.148
292.26	9.068
292.47	10.857
292.68	9.925
292.89	10.268
293.10	10.551
293.31	12.097
293.52	9.339
293.73	10.280
293.94	12.478
294.15	10.746
294.36	11.544
294.57	12.997
294.79	10.463
295.00	8.946
295.21	12.394
295.42	11.245
295.63	12.997
295.84	9.909
296.05	9.537
296.26	8.426
296.47	10.386
296.68	9.967
296.89	10.623
297.10	9.635
297.31	10.989
297.52	8.377
297.73	8.722
297.94	8.884
298.15	9.143
298.36	8.236
298.57	8.453
298.78	10.659
298.99	8.611
299.20	7.861
299.41	9.654
299.62	9.235
299.83	8.738
300.04	9.472
300.25	10.708
300.46	11.073
300.67	12.092
300.88	10.687
301.09	9.841
301.30	12.794
301.50	7.571
301.71	12.295
301.92	12.322
302.13	10.446
302.34	9.019
302.55	11.019
302.76	11.487
302.97	10.817
303.18	9.763
303.39	10.157
303.60	10.347
303.81	13.668
304.02	8.810
304.23	10.722
304.44	10.474
304.65	10.131
304.86	10.226
305.07	11.356
305.28	9.220
305.49	9.782
305.70	11.096
305.91	10.731
306.12	10.018
306.33	10.429
306.54	9.312
306.75	11.687
306.96	13.386
307.17	7.953
307.38	10.465
307.58	9.985
307.79	11.707
308.00	11.450
308.21	12.490
308.42	11.987
308.63	9.725
308.84	9.602
309.05	10.685
309.26	8.065
309.47	9.086
309.68	10.934
309.89	11.305
310.10	8.752
310.31	9.276
310.52	8.701
310.73	11.311
310.94	7.460
311.14	9.171
311.35	8.959
311.56	9.581
311.77	8.507
311.98	7.303
312.19	7.060
312.40	8.186
312.61	8.535
312.82	9.547
313.03	9.320
313.24	7.691
313.45	10.189
313.66	10.206
313.86	11.185
314.07	9.428
314.28	10.967
314.49	10.203
314.70	10.636
314.91	11.003
315.12	10.136
315.33	10.958
315.54	8.059
315.75	9.714
315.96	9.554
316.16	8.041
316.37	11.413
316.58	10.270
316.79	10.315
317.00	12.485
317.21	11.591
317.42	12.458
317.63	12.394
317.84	10.969
318.05	11.009
318.25	10.510
318.46	10.579
318.67	9.445
318.88	11.513
319.09	10.455
319.30	9.930
319.51	10.896
319.72	9.980
319.93	10.533
320.13	10.700
320.34	11.157
320.55	9.179
320.76	11.508
320.97	10.524
321.18	12.316
321.39	11.579
321.60	10.800
321.80	11.236
322.01	10.323
322.22	9.583
322.43	9.091
322.64	9.535
322.85	10.545
323.06	12.119
323.27	9.741
323.47	11.624
323.68	11.470
323.89	10.442
324.10	10.197
324.31	9.974
324.52	9.771
324.73	10.733
324.93	8.274
325.14	9.597
325.35	9.853
325.56	10.711
325.77	10.864
325.98	10.433
326.19	10.110
326.39	7.147
326.60	9.653
326.81	8.791
327.02	8.142
327.23	9.149
327.44	10.232
327.64	6.952
327.85	8.427
328.06	10.910
328.27	12.227
328.48	10.716
328.69	9.003
328.90	9.884
329.10	9.027
329.31	11.001
329.52	9.789
329.73	10.311
329.94	10.489
330.15	10.043
330.35	11.710
330.56	10.375
330.77	9.281
330.98	10.970
331.19	10.072
331.39	9.894
331.60	10.204
331.81	9.654
332.02	11.649
332.23	11.267
332.44	9.181
332.64	11.520
332.85	9.293
333.06	10.372
333.27	8.146
333.48	9.347
333.68	8.947
333.89	10.820
334.10	7.617
334.31	9.859
334.52	8.933
334.72	8.394
334.93	9.832
335.14	8.280
335.35	9.892
335.56	10.929
335.76	9.464
335.97	10.710
336.18	7.869
336.39	10.341
336.60	10.376
336.80	8.993
337.01	9.522
337.22	7.708
337.43	10.769
337.64	11.087
337.84	10.132
338.05	9.864
338.26	12.447
338.47	10.186
338.68	6.854
338.88	10.783
339.09	9.397
339.30	8.813
339.51	8.910
339.71	9.313
339.92	8.389
340.13	10.060
340.34	9.085
340.55	9.845
340.75	8.581
340.96	8.128
341.17	10.910
341.38	9.406
341.58	10.713
341.79	10.269
342.00	8.378
342.21	9.051
342.41	8.515
342.62	8.798
342.83	9.416
343.04	8.554
343.24	9.694
343.45	10.109
343.66	7.829
343.87	8.965
344.07	7.594
344.28	9.305
344.49	10.756
344.70	11.119
344.90	8.401
345.11	8.655
345.32	8.175
345.53	8.709
345.73	9.051
345.94	10.761
346.15	9.360
346.36	8.869
346.56	8.752
346.77	9.590
346.98	10.266
347.19	8.980
347.39	8.374
347.60	8.180
347.81	9.819
348.02	11.229
348.22	8.021
348.43	9.085
348.64	8.661
348.84	8.710
349.05	9.798
349.26	10.495
349.47	7.518
349.67	10.341
349.88	11.327
350.09	9.422
350.30	11.921
350.50	9.898
350.71	9.968
350.92	9.394
351.12	9.319
351.33	8.777
351.54	9.771
351.74	9.217
351.95	10.061
352.16	10.231
352.37	10.547
352.57	9.176
352.78	8.851
352.99	10.088
353.19	9.636
353.40	10.300
353.61	10.875
353.82	10.102
354.02	10.619
354.23	10.855
354.44	11.356
354.64	9.504
354.85	11.065
355.06	9.196
355.26	7.948
355.47	9.922
355.68	11.556
355.88	10.558
356.09	9.152
356.30	7.763
356.51	9.751
356.71	9.968
356.92	7.989
357.13	10.504
357.33	11.764
357.54	8.858
357.75	7.869
357.95	9.183
358.16	8.358
358.37	10.881
358.57	8.993
358.78	10.632
358.99	8.517
359.19	9.019
359.40	11.258
359.61	8.375
359.81	10.854
360.02	11.319
360.23	8.448
360.43	9.215
360.64	8.418
360.85	9.204
361.05	8.213
361.26	11.237
361.47	9.435
361.67	9.603
361.88	7.581
362.09	9.618
362.29	8.126
362.50	8.069
362.70	7.059
362.91	9.963
363.12	7.501
363.32	7.288
363.53	8.978
363.74	9.614
363.94	7.812
364.15	9.869
364.36	9.702
364.56	8.440
364.77	9.516
364.98	11.983
365.18	9.631
365.39	11.036
365.59	8.405
365.80	9.005
366.01	10.151
366.21	8.871
366.42	7.849
366.63	10.529
366.83	8.175
367.04	7.129
367.24	9.459
367.45	8.022
367.66	7.267
367.86	8.986
368.07	8.416
368.28	8.886
368.48	8.162
368.69	7.443
368.89	8.655
369.10	9.668
369.31	9.548
369.51	9.148
369.72	10.121
369.92	11.011
370.13	7.166
370.34	9.268
370.54	5.719
370.75	9.036
370.95	7.849
371.16	8.775
371.37	8.047
371.57	8.525
371.78	7.445
371.98	8.001
372.19	8.590
372.40	8.867
372.60	9.058
372.81	8.580
373.01	6.971
373.22	7.537
373.43	9.140
373.63	7.799
373.84	8.743
374.04	8.452
374.25	7.998
374.46	9.280
374.66	8.928
374.87	9.627
375.07	7.429
375.28	7.304
375.48	8.243
375.69	8.575
375.90	7.246
376.10	6.778
376.31	7.399
376.51	6.844
376.72	6.974
376.92	6.330
377.13	7.710
377.34	8.048
377.54	7.575
377.75	9.096
377.95	7.295
378.16	8.601
378.36	8.665
378.57	7.782
378.77	8.222
378.98	8.033
379.19	6.963
379.39	6.286
379.60	7.840
379.80	6.941
380.01	8.375
380.21	6.923
380.42	8.422
380.62	6.919
380.83	8.140
381.04	6.810
381.24	7.675
381.45	7.836
381.65	6.438
381.86	7.275
382.06	9.106
382.27	6.424
382.47	6.611
382.68	8.257
382.88	7.185
383.09	7.373
383.29	6.186
383.50	8.577
383.71	7.341
383.91	7.916
384.12	7.157
384.32	7.413
384.53	6.995
384.73	6.413
384.94	5.600
385.14	6.946
385.35	6.299
385.55	7.186
385.76	6.663
385.96	6.880
386.17	7.246
386.37	6.662
386.58	6.947
386.78	7.638
386.99	5.626
387.19	7.232
387.40	5.281
387.60	7.645
387.81	6.959
388.01	5.922
388.22	7.232
388.42	7.554
388.63	8.029
388.83	8.210
389.04	5.129
389.24	6.638
389.45	6.683
389.65	6.149
389.86	6.510
390.06	5.736
390.27	6.223
390.47	6.751
390.68	5.809
390.88	8.080
391.09	7.368
391.29	7.032
391.50	6.869
391.70	6.676
391.91	6.034
392.11	6.513
392.32	6.478
392.52	6.597
392.73	6.705
392.93	6.652
393.14	6.202
393.34	6.042
393.55	7.130
393.75	6.479
393.95	5.954
394.16	6.835
394.36	7.413
394.57	6.794
394.77	6.452
394.98	6.142
395.18	6.887
395.39	6.211
395.59	6.909
395.80	6.017
396.00	6.501
396.21	7.237
396.41	5.898
396.61	7.563
396.82	6.465
397.02	7.907
397.23	7.159
397.43	6.160
397.64	5.311
397.84	7.475
398.05	5.016
398.25	6.796
398.45	6.024
398.66	6.719
398.86	6.154
399.07	6.836
399.27	5.784
399.48	7.079
399.68	5.880
399.89	6.087
400.09	7.308
400.29	6.334
400.50	6.074
400.70	6.876
400.91	5.757
401.11	6.102
401.32	7.446
401.52	4.797
401.72	6.122
401.93	7.673
402.13	6.001
402.34	6.075
402.54	5.421
402.75	8.366
402.95	5.014
403.15	7.520
403.36	5.485
403.56	7.319
403.77	5.316
403.97	6.204
404.17	6.204
404.38	6.590
404.58	4.801
404.79	6.260
404.99	5.946
405.19	5.572
405.40	6.496
405.60	6.632
405.81	4.987
406.01	6.170
406.21	5.492
406.42	6.276
406.62	6.385
406.83	6.964
407.03	6.521
407.23	5.559
407.44	5.256
407.64	6.672
407.85	5.974
408.05	6.400
408.25	5.781
408.46	6.877
408.66	7.130
408.87	6.064
409.07	5.851
409.27	6.187
409.48	6.627
409.68	6.544
409.88	5.617
410.09	6.174
410.29	6.316
410.50	7.403
410.70	5.485
410.90	6.166
411.11	5.577
411.31	5.295
411.51	6.682
411.72	6.823
411.92	5.639
412.12	5.800
412.33	5.606
412.53	5.524
412.74	5.035
412.94	5.934
413.14	6.157
413.35	6.256
413.55	6.615
413.75	7.005
413.96	5.899
414.16	6.036
414.36	5.980
414.57	5.900
414.77	5.492
414.97	6.672
415.18	6.326
415.38	6.103
415.58	6.151
415.79	5.648
415.99	5.509
416.19	6.584
416.40	5.872
416.60	5.455
416.80	4.972
417.01	5.326
417.21	4.922
417.41	6.152
417.62	5.441
417.82	5.926
418.02	4.544
418.23	5.671
418.43	5.470
418.63	5.440
418.84	5.455
419.04	5.097
419.24	5.976
419.45	6.107
419.65	6.081
419.85	5.581
420.06	5.762
420.26	5.897
420.46	5.483
420.67	5.874
420.87	5.990
421.07	6.500
421.28	5.734
421.48	6.407
421.68	6.300
421.88	5.732
422.09	5.959
422.29	5.936
422.49	5.471
422.70	6.241
422.90	5.718
423.10	6.280
423.31	6.376
423.51	6.461
423.71	5.391
423.91	5.992
424.12	6.005
424.32	5.925
424.52	6.065
424.73	5.823
424.93	5.949
425.13	5.473
425.33	5.342
425.54	6.195
425.74	5.920
425.94	6.697
426.15	5.873
426.35	5.738
426.55	6.561
426.75	5.816
426.96	5.668
427.16	5.917
427.36	5.879
427.57	6.483
427.77	5.588
427.97	6.044
428.17	6.073
428.38	6.318
428.58	4.514
428.78	6.207
428.98	5.309
429.19	5.856
429.39	5.189
429.59	5.649
429.79	4.466
430.00	4.336
430.20	4.565
430.40	5.695
430.60	5.060
430.81	5.223
431.01	5.013
431.21	6.087
431.41	5.164
431.62	5.388
431.82	5.100
432.02	6.290
432.22	5.218
432.43	4.874
432.63	4.842
432.83	5.498
433.03	4.852
433.24	4.935
433.44	5.010
433.64	5.807
433.84	4.921
434.05	5.750
434.25	4.760
434.45	5.991
434.65	6.053
434.85	6.204
435.06	5.470
435.26	5.817
435.46	5.273
435.66	5.788
435.87	5.185
436.07	5.756
436.27	5.484
436.47	5.137
436.67	4.689
436.88	6.039
437.08	5.236
437.28	5.068
437.48	5.656
437.69	5.925
437.89	4.933
438.09	5.941
438.29	4.899
438.49	5.929
438.70	5.397
438.90	4.913
439.10	4.971
439.30	5.582
439.50	4.577
439.71	5.917
439.91	5.283
440.11	6.044
440.31	5.425
440.51	5.418
440.72	5.341
440.92	5.496
441.12	5.605
441.32	6.057
441.52	5.821
441.72	5.865
441.93	5.630
442.13	6.005
442.33	5.333
442.53	6.358
442.73	4.942
442.94	5.787
443.14	5.382
443.34	6.033
443.54	5.781
443.74	6.143
443.94	5.764
444.15	5.065
444.35	4.980
444.55	6.037
444.75	5.611
444.95	5.717
445.15	5.564
445.36	5.801
445.56	4.789
445.76	5.676
445.96	5.189
446.16	5.109
446.36	4.712
446.57	6.013
446.77	4.903
446.97	5.433
447.17	5.991
447.37	5.894
447.57	5.703
447.77	5.731
447.98	5.559
448.18	6.186
448.38	5.450
448.58	5.747
448.78	6.139
448.98	5.875
449.18	5.116
449.39	5.610
449.59	5.203
449.79	5.550
449.99	5.325
450.19	5.717
450.39	4.995
450.59	5.555
450.79	5.060
451.00	5.822
451.20	7.085
451.40	4.955
451.60	4.862
451.80	5.979
452.00	5.349
452.20	5.740
452.40	5.524
452.61	5.396
452.81	4.984
453.01	5.423
453.21	5.006
453.41	5.372
453.61	5.150
453.81	5.373
454.01	5.447
454.21	5.464
454.42	5.984
454.62	5.709
454.82	5.330
455.02	5.451
455.22	4.626
455.42	5.245
455.62	4.644
455.82	5.523
456.02	4.942
456.23	5.167
456.43	5.730
456.63	4.859
456.83	4.343
457.03	5.627
457.23	4.892
457.43	5.431
457.63	4.942
457.83	5.603
458.03	4.467
458.23	5.232
458.43	4.803
458.64	4.575
458.84	4.870
459.04	5.364
459.24	4.844
459.44	5.126
459.64	5.378
459.84	5.130
460.04	4.919
460.24	5.407
460.44	5.504
460.64	5.401
460.84	5.237
461.04	5.889
461.24	5.528
461.45	5.932
461.65	5.597
461.85	5.766
462.05	5.608
462.25	5.736
462.45	6.008
462.65	5.330
462.85	4.592
463.05	5.542
463.25	4.520
463.45	5.751
463.65	5.052
463.85	5.281
464.05	5.422
464.25	5.047
464.45	5.799
464.65	4.983
464.85	4.964
465.05	5.075
465.26	5.052
465.46	5.501
465.66	5.201
465.86	5.377
466.06	5.384
466.26	5.109
466.46	4.457
466.66	5.117
466.86	5.051
467.06	5.257
467.26	4.937
467.46	5.850
467.66	4.955
467.86	4.893
468.06	4.829
468.26	4.863
468.46	5.091
468.66	4.946
468.86	4.373
469.06	5.573
469.26	4.455
469.46	5.303
469.66	4.526
469.86	5.132
470.06	4.647
470.26	5.743
470.46	4.732
470.66	5.583
470.86	4.465
471.06	5.179
471.26	4.302
471.46	4.269
471.66	5.365
471.86	4.771
472.06	4.936
472.26	5.592
472.46	5.643
472.66	5.370
472.86	4.226
473.06	5.060
473.26	4.884
473.46	5.106
473.66	4.595
473.86	5.450
474.06	4.757
474.26	5.532
474.46	3.610
474.66	5.416
474.86	4.985
475.06	5.328
475.26	3.967
475.46	5.056
475.66	4.144
475.86	4.943
476.06	5.514
476.26	5.504
476.46	4.468
476.66	5.206
476.86	4.373
477.06	4.844
477.26	4.467
477.46	4.867
477.65	5.045
477.85	5.491
478.05	4.091
478.25	5.156
478.45	4.618
478.65	4.958
478.85	4.622
479.05	4.994
479.25	5.056
479.45	5.817
479.65	4.597
479.85	5.153
480.05	4.776
480.25	5.129
480.45	5.055
480.65	5.377
480.85	4.626
481.05	5.561
481.25	5.351
481.44	5.207
481.64	4.382
481.84	5.339
482.04	4.989
482.24	5.498
482.44	4.348
482.64	4.882
482.84	5.024
483.04	5.142
483.24	5.164
483.44	5.283
483.64	5.116
483.84	5.353
484.04	5.375
484.23	5.589
484.43	5.710
484.63	5.954
484.83	5.995
485.03	6.430
485.23	6.294
485.43	6.235
485.63	6.046
485.83	6.179
486.03	6.151
486.23	6.100
486.42	5.746
486.62	5.932
486.82	5.623
487.02	5.506
487.22	5.371
487.42	5.615
487.62	5.454
487.82	5.482
488.02	5.434
488.22	5.664
488.41	5.663
488.61	5.709
488.81	5.601
489.01	5.900
489.21	6.019
489.41	6.005
489.61	6.012
489.81	5.993
490.01	5.834
490.20	5.903
490.40	5.699
490.60	5.935
490.80	5.484
491.00	5.688
491.20	5.410
491.40	5.329
491.60	5.265
491.79	5.336
491.99	5.534
492.19	5.584
492.39	5.568
492.59	5.769
492.79	5.581
492.99	5.877
493.19	5.888
493.38	5.984
493.58	5.597
493.78	5.801
493.98	6.079
494.18	5.858
494.38	5.592
494.58	5.614
494.77	4.481
494.97	5.403
495.17	5.069
495.37	5.353
495.57	5.266
495.77	5.315
495.96	5.042
496.16	5.031
496.36	5.050
496.56	5.473
496.76	4.734
496.96	4.850
497.15	5.281
497.35	5.107
497.55	5.046
497.75	5.466
497.95	4.747
498.15	5.601
498.34	5.145
498.54	4.870
498.74	5.899
498.94	5.511
499.14	4.760
499.34	5.857
499.53	4.947
499.73	5.418
499.93	5.289
500.13	5.206
500.33	4.780
500.52	5.286
500.72	4.671
500.92	5.034
501.12	4.254
501.32	5.017
501.52	5.231
501.71	5.003
501.91	4.743
502.11	5.173
502.31	4.818
502.51	5.228
502.70	4.584
502.90	5.091
503.10	4.730
503.30	5.173
503.50	4.920
503.69	4.913
503.89	5.125
504.09	5.169
504.29	5.060
504.48	5.442
504.68	5.643
504.88	5.326
505.08	4.694
505.28	5.302
505.47	5.054
505.67	6.044
505.87	4.967
506.07	5.321
506.27	4.547
506.46	5.541
506.66	4.736
506.86	5.278
507.06	5.834
507.25	5.206
507.45	4.717
507.65	5.774
507.85	4.658
508.04	5.569
508.24	5.170
508.44	5.546
508.64	4.912
508.83	5.418
509.03	5.037
509.23	5.335
509.43	5.138
509.63	5.443
509.82	4.776
510.02	5.222
510.22	4.969
510.42	5.606
510.61	5.621
510.81	5.325
511.01	5.348
511.21	5.590
511.40	4.971
511.60	5.475
511.80	5.136
511.99	5.376
512.19	5.278
512.39	5.736
512.59	5.198
512.78	5.990
512.98	5.719
513.18	5.296
513.38	5.251
513.57	5.983
513.77	5.375
513.97	5.563
514.17	5.397
514.36	5.151
514.56	4.986
514.76	5.971
514.95	4.918
515.15	5.349
515.35	4.707
515.55	5.340
515.74	5.485
515.94	5.384
516.14	4.685
516.33	5.834
516.53	5.304
516.73	5.134
516.93	5.193
517.12	5.908
517.32	4.605
517.52	5.404
517.71	5.283
517.91	5.425
518.11	5.510
518.30	5.274
518.50	4.888
518.70	5.325
518.90	5.429
519.09	5.632
519.29	5.766
519.49	5.997
519.68	5.317
519.88	6.126
520.08	5.459
520.27	5.848
520.47	5.673
520.67	5.735
520.86	5.677
521.06	6.271
521.26	5.003
521.45	5.794
521.65	5.424
521.85	5.675
522.04	5.212
522.24	5.752
522.44	5.282
522.63	5.585
522.83	5.254
523.03	5.905
523.22	5.514
523.42	5.945
523.62	5.707
523.81	5.566
524.01	5.670
524.21	5.293
524.40	4.957
524.60	5.592
524.80	5.263
524.99	5.360
525.19	5.576
525.39	5.821
525.58	5.337
525.78	5.539
525.98	5.979
526.17	5.795
526.37	5.457
526.57	6.104
526.76	5.950
526.96	6.048
527.15	5.763
527.35	5.961
527.55	5.508
527.74	6.332
527.94	5.849
528.14	5.751
528.33	5.484
528.53	5.923
528.72	5.708
528.92	5.955
529.12	5.896
529.31	6.031
529.51	6.038
529.71	6.157
529.90	6.175
530.10	6.203
530.29	6.256
530.49	6.385
530.69	6.375
530.88	6.310
531.08	6.233
531.28	6.263
531.47	5.972
531.67	6.207
531.86	6.047
532.06	6.003
532.26	5.682
532.45	5.992
532.65	5.810
532.84	5.907
533.04	5.515
533.24	5.688
533.43	5.569
533.63	6.209
533.82	6.004
534.02	6.116
534.22	5.997
534.41	6.260
534.61	6.169
534.80	6.306
535.00	6.052
535.19	6.348
535.39	6.180
535.59	6.376
535.78	5.915
535.98	6.137
536.17	5.752
536.37	6.208
536.57	5.845
536.76	6.286
536.96	5.942
537.15	6.367
537.35	5.694
537.54	6.091
537.74	6.274
537.93	6.378
538.13	5.936
538.33	6.344
538.52	6.090
538.72	6.584
538.91	5.906
539.11	6.162
539.30	5.831
539.50	6.434
539.70	6.173
539.89	6.340
540.09	5.805
540.28	5.929
540.48	5.554
540.67	6.253
540.87	5.624
541.06	6.133
541.26	5.932
541.45	6.106
541.65	6.104
541.85	6.322
542.04	6.128
542.24	6.558
542.43	6.197
542.63	6.563
542.82	6.384
543.02	6.396
543.21	6.347
543.41	6.678
543.60	6.437
543.80	6.703
543.99	6.394
544.19	6.496
544.38	6.340
544.58	6.637
544.77	6.156
544.97	6.808
545.16	6.036
545.36	6.618
545.56	6.107
545.75	6.503
545.95	5.881
546.14	6.405
546.34	5.703
546.53	6.745
546.73	5.822
546.92	6.382
547.12	5.874
547.31	6.587
547.51	6.007
547.70	6.352
547.90	5.889
548.09	6.284
548.29	6.305
548.48	6.686
548.68	6.280
548.87	6.728
549.07	6.378
549.26	6.077
549.46	6.547
549.65	6.747
549.84	6.314
550.04	6.381
550.23	5.660
550.43	6.468
550.62	6.400
550.82	6.130
551.01	5.686
551.21	6.541
551.40	5.702
551.60	6.419
551.79	5.725
551.99	6.292
552.18	5.867
552.38	6.263
552.57	6.432
552.77	6.644
552.96	6.264
553.16	6.706
553.35	6.402
553.54	7.020
553.74	6.790
553.93	6.926
554.13	6.742
554.32	6.809
554.52	6.456
554.71	6.864
554.91	6.044
555.10	6.959
555.29	6.628
555.49	6.700
555.68	6.153
555.88	7.004
556.07	5.987
556.27	7.261
556.46	6.845
556.66	6.851
556.85	6.712
557.04	7.231
557.24	6.250
557.43	7.189
557.63	6.304
557.82	7.102
558.02	6.625
558.21	7.522
558.40	6.030
558.60	6.738
558.79	6.961
558.99	7.284
559.18	6.134
559.38	7.057
559.57	7.565
559.76	7.487
559.96	7.394
560.15	7.452
560.35	6.994
560.54	6.720
560.73	5.944
560.93	7.862
561.12	6.985
561.32	7.110
561.51	7.634
561.70	7.447
561.90	7.278
562.09	7.975
562.29	6.760
562.48	7.348
562.67	6.897
562.87	8.045
563.06	6.984
563.26	7.622
563.45	7.110
563.64	7.970
563.84	7.807
564.03	7.511
564.23	7.001
564.42	8.601
564.61	7.808
564.81	8.258
565.00	7.510
565.20	8.587
565.39	8.537
565.58	7.868
565.78	7.439
565.97	8.195
566.16	8.317
566.36	9.044
566.55	8.481
566.74	8.077
566.94	8.456
567.13	8.893
567.33	8.063
567.52	8.857
567.71	8.255
567.91	9.107
568.10	8.428
568.29	8.657
568.49	8.688
568.68	8.567
568.87	8.286
569.07	9.486
569.26	9.191
569.45	8.980
569.65	8.738
569.84	9.439
570.04	8.818
570.23	8.877
570.42	7.691
570.62	8.500
570.81	8.742
571.00	9.061
571.20	9.254
571.39	9.394
571.58	8.899
571.78	9.433
571.97	8.925
572.16	9.299
572.36	9.251
572.55	10.044
572.74	9.352
572.94	9.452
573.13	9.658
573.32	9.574
573.51	9.178
573.71	9.767
573.90	8.825
574.09	9.480
574.29	9.453
574.48	9.546
574.67	8.663
574.87	9.613
575.06	8.712
575.25	9.775
575.45	9.475
575.64	9.575
575.83	8.818
576.03	10.244
576.22	9.510
576.41	9.344
576.60	9.029
576.80	9.203
576.99	9.664
577.18	10.168
577.38	8.607
577.57	9.845
577.76	10.060
577.95	9.817
578.15	8.542
578.34	9.700
578.53	8.795
578.73	9.545
578.92	8.322
579.11	9.351
579.30	9.075
579.50	9.093
579.69	9.491
579.88	9.123
580.08	8.586
580.27	9.983
580.46	9.170
580.65	9.587
580.85	9.547
581.04	9.797
581.23	8.529
581.42	9.497
581.62	8.922
581.81	9.020
582.00	8.882
582.19	9.299
582.39	9.502
582.58	9.059
582.77	9.570
582.96	8.656
583.16	8.703
583.35	9.761
583.54	8.927
583.73	9.548
583.93	9.076
584.12	9.057
584.31	7.827
584.50	8.921
584.70	8.555
584.89	9.472
585.08	8.690
585.27	10.009
585.47	8.401
585.66	9.141
585.85	8.089
586.04	8.962
586.24	9.359
586.43	8.350
586.62	8.495
586.81	8.622
587.00	7.866
587.20	9.586
587.39	8.159
587.58	9.288
587.77	8.460
587.97	8.060
588.16	8.667
588.35	9.010
588.54	8.301
588.73	8.868
588.93	9.327
589.12	9.139
589.31	8.506
589.50	8.684
589.69	9.110
589.89	9.266
590.08	7.786
590.27	8.509
590.46	8.394
590.65	8.905
590.85	7.978
591.04	9.051
591.23	8.634
591.42	8.729
591.61	8.752
591.81	9.056
592.00	9.001
592.19	9.532
592.38	8.626
592.57	8.543
592.77	9.085
592.96	8.630
593.15	9.491
593.34	8.885
593.53	8.551
593.72	8.894
593.92	8.333
594.11	10.115
594.30	8.481
594.49	9.937
594.68	9.322
594.87	8.926
595.07	8.297
595.26	9.588
595.45	8.086
595.64	9.419
595.83	7.942
596.02	9.600
596.22	9.037
596.41	9.706
596.60	8.678
596.79	9.755
596.98	9.035
597.17	9.793
597.37	9.467
597.56	10.029
597.75	8.946
597.94	10.107
598.13	9.765
598.32	9.651
598.51	9.834
598.71	10.140
598.90	9.207
599.09	10.158
599.28	9.024
599.47	9.488
599.66	9.260
599.85	9.696
600.05	9.284
600.24	10.405
600.43	9.429
600.62	9.528
600.81	9.396
601.00	10.542
601.19	7.930
601.38	9.311
601.58	9.414
601.77	9.372
601.96	8.780
602.15	10.034
602.34	10.386
602.53	10.585
602.72	8.844
602.91	9.630
603.10	9.281
603.30	10.187
603.49	9.352
603.68	10.084
603.87	8.725
604.06	9.531
604.25	9.885
604.44	10.492
604.63	9.680
604.82	10.439
605.01	9.559
605.21	10.088
605.40	9.193
605.59	10.156
605.78	9.845
605.97	10.264
606.16	9.877
606.35	10.374
606.54	9.565
606.73	11.091
606.92	9.744
607.11	10.396
607.30	9.554
607.50	10.077
607.69	9.654
607.88	10.055
608.07	9.496
608.26	9.802
608.45	10.328
608.64	10.913
608.83	8.672
609.02	9.650
609.21	9.621
609.40	10.432
609.59	9.634
609.78	9.933
609.97	9.381
610.16	10.282
610.35	9.600
610.55	9.972
610.74	9.705
610.93	10.209
611.12	9.808
611.31	9.488
611.50	9.161
611.69	8.982
611.88	9.195
612.07	10.212
612.26	8.997
612.45	9.369
612.64	8.757
612.83	10.278
613.02	8.939
613.21	9.539
613.40	9.240
613.59	10.412
613.78	9.097
613.97	9.752
614.16	8.610
614.35	10.759
614.54	8.166
614.73	9.018
614.92	8.605
615.11	8.941
615.30	8.805
615.49	8.450
615.68	8.501
615.87	8.499
616.07	8.300
616.26	8.024
616.45	8.630
616.64	7.922
616.83	7.879
617.02	9.153
617.21	7.477
617.40	8.176
617.59	8.549
617.78	9.037
617.97	7.526
618.16	8.406
618.35	6.959
618.54	7.838
618.73	8.268
618.92	8.488
619.11	7.070
619.30	8.984
619.49	6.360
619.68	8.785
619.86	7.373
620.05	8.087
620.24	7.599
620.43	7.898
620.62	6.705
620.81	8.062
621.00	8.661
621.19	8.572
621.38	8.210
621.57	8.248
621.76	7.515
621.95	8.472
622.14	7.459
622.33	8.230
622.52	7.674
622.71	7.821
622.90	7.783
623.09	8.161
623.28	7.702
623.47	8.413
623.66	8.122
623.85	7.654
624.04	7.442
624.23	7.075
624.42	6.892
624.61	7.197
624.80	6.435
624.99	7.436
625.18	6.625
625.36	8.080
625.55	8.646
625.74	6.872
625.93	6.802
626.12	7.565
626.31	8.770
626.50	7.898
626.69	6.836
626.88	8.806
627.07	8.120
627.26	7.871
627.45	7.845
627.64	7.797
627.83	7.077
628.02	8.198
628.20	7.506
628.39	8.317
628.58	7.569
628.77	8.216
628.96	7.870
629.15	7.622
629.34	7.676
629.53	7.305
629.72	7.268
629.91	9.000
630.10	7.945
630.29	8.260
630.47	7.952
630.66	8.409
630.85	8.098
631.04	8.258
631.23	8.605
631.42	8.340
631.61	7.926
631.80	9.224
631.99	7.823
632.18	8.236
632.36	7.945
632.55	8.966
632.74	7.833
632.93	6.999
633.12	7.346
633.31	8.264
633.50	7.528
633.69	8.436
633.88	7.612
634.06	7.999
634.25	7.499
634.44	8.253
634.63	7.445
634.82	8.821
635.01	7.039
635.20	7.955
635.39	6.952
635.57	8.280
635.76	7.526
635.95	8.086
636.14	7.251
636.33	8.046
636.52	7.724
636.71	7.428
636.89	8.072
637.08	7.789
637.27	7.079
637.46	7.194
637.65	7.224
637.84	7.062
638.03	6.845
638.21	8.171
638.40	7.747
638.59	6.742
638.78	6.680
638.97	8.117
639.16	7.735
639.34	7.359
639.53	6.012
639.72	8.406
639.91	6.428
640.10	5.888
640.29	8.403
640.47	9.028
640.66	7.475
640.85	8.226
641.04	6.066
641.23	7.388
641.42	6.793
641.60	6.685
641.79	7.528
641.98	6.777
642.17	6.688
642.36	8.150
642.54	6.999
642.73	7.115
642.92	6.836
643.11	7.228
643.30	7.487
643.49	6.899
643.67	6.113
643.86	6.714
644.05	6.809
644.24	6.906
644.43	7.711
644.61	7.354
644.80	6.873
644.99	7.295
645.18	8.102
645.37	7.658
645.55	7.208
645.74	8.005
645.93	7.567
646.12	7.606
646.31	7.927
646.49	7.430
646.68	7.078
646.87	7.202
647.06	6.943
647.24	7.270
647.43	6.336
647.62	8.028
647.81	7.169
648.00	7.992
648.18	5.706
648.37	6.765
648.56	7.582
648.75	6.240
648.93	7.108
649.12	8.028
649.31	6.637
649.50	6.954
649.68	7.331
649.87	7.635
650.06	6.132
650.25	7.666
650.43	6.755
650.62	7.001
650.81	6.965
651.00	7.776
651.18	6.725
651.37	7.877
651.56	6.488
651.75	8.190
651.93	6.055
652.12	7.903
652.31	6.196
652.50	7.409
652.68	7.048
652.87	8.288
653.06	7.914
653.25	7.661
653.43	6.170
653.62	7.250
653.81	6.935
654.00	7.638
654.18	6.950
654.37	7.436
654.56	6.369
654.74	6.418
654.93	7.294
655.12	7.407
655.31	7.548
655.49	8.147
655.68	6.670
655.87	5.996
656.05	6.278
656.24	7.224
656.43	6.078
656.62	7.434
656.80	6.464
656.99	6.462
657.18	6.233
657.36	6.742
657.55	6.347
657.74	7.298
657.93	7.032
658.11	7.540
658.30	7.588
658.49	6.223
658.67	6.622
658.86	5.858
659.05	6.262
659.23	7.122
659.42	6.052
659.61	6.515
659.79	5.843
659.98	6.641
660.17	6.838
660.35	6.557
660.54	7.276
660.73	8.089
660.91	7.106
661.10	6.416
661.29	5.561
661.47	6.284
661.66	6.412
661.85	6.424
662.03	7.015
662.22	4.910
662.41	5.231
662.59	6.502
662.78	6.060
662.97	6.642
663.15	5.941
663.34	6.242
663.53	5.959
663.71	6.882
663.90	6.789
664.09	6.639
664.27	6.635
664.46	6.925
664.65	6.317
664.83	6.448
665.02	6.948
665.21	5.339
665.39	5.873
665.58	7.219
665.77	6.637
665.95	6.060
666.14	6.697
666.32	7.132
666.51	6.153
666.70	5.871
666.88	6.374
667.07	5.262
667.26	6.340
667.44	6.418
667.63	6.619
667.81	6.378
668.00	5.938
668.19	8.487
668.37	6.351
668.56	8.019
668.75	5.538
668.93	6.867
669.12	5.806
669.30	6.631
669.49	5.029
669.68	6.642
669.86	7.622
670.05	5.506
670.23	6.758
670.42	6.048
670.61	6.910
670.79	7.052
670.98	6.746
671.16	6.889
671.35	6.268
671.54	7.323
671.72	6.826
671.91	7.517
672.09	7.028
672.28	7.602
672.46	8.482
672.65	8.271
672.84	8.088
673.02	7.960
673.21	6.217
673.39	5.925
673.58	7.950
673.77	6.769
673.95	7.202
674.14	7.828
674.32	7.683
674.51	7.823
674.69	6.878
674.88	7.650
675.07	6.690
675.25	8.898
675.44	6.802
675.62	6.956
675.81	7.026
675.99	10.910
676.18	9.048
676.36	6.273
676.55	8.093
676.74	8.856
676.92	8.998
677.11	7.677
677.29	8.116
677.48	8.808
677.66	7.899
677.85	7.061
678.03	8.892
678.22	8.204
678.40	7.931
678.59	7.066
678.78	7.391
678.96	6.865
679.15	7.696
679.33	9.015
679.52	8.566
679.70	7.427
679.89	7.166
680.07	7.366
680.26	5.420
680.44	6.605
680.63	7.117
680.81	7.593
681.00	5.748
681.18	6.985
681.37	7.578
681.55	8.251
681.74	8.238
681.92	8.271
682.11	8.300
682.29	7.116
682.48	6.943
682.66	7.853
682.85	7.671
683.03	8.224
683.22	8.698
683.40	9.730
683.59	7.986
683.77	8.276
683.96	7.511
684.14	9.407
684.33	7.864
684.51	10.804
684.70	8.311
684.88	10.317
685.07	8.491
685.25	9.741
685.44	7.798
685.62	8.626
685.81	7.766
685.99	9.851
686.18	7.410
686.36	10.272
686.55	7.601
686.73	7.721
686.92	9.251
687.10	8.778
687.29	10.048
687.47	10.625
687.65	9.995
687.84	8.279
688.02	11.108
688.21	10.940
688.39	9.713
688.58	11.084
688.76	9.364
688.95	8.320
689.13	9.678
689.32	10.863
689.50	10.393
689.68	9.277
689.87	9.181
690.05	10.638
690.24	10.159
690.42	11.555
690.61	11.828
690.79	11.422
690.98	11.226
691.16	10.149
691.34	9.225
691.53	10.627
691.71	10.096
691.90	10.515
692.08	9.674
692.27	11.751
692.45	13.255
692.63	10.284
692.82	13.547
693.00	10.382
693.19	9.873
693.37	13.249
693.56	11.492
693.74	12.713
693.92	11.238
694.11	13.445
694.29	13.232
694.48	12.565
694.66	13.068
694.84	13.447
695.03	12.899
695.21	14.005
695.40	15.254
695.58	16.109
695.76	13.402
695.95	15.195
696.13	12.492
696.32	14.975
696.50	19.626
696.68	14.794
696.87	14.263
697.05	15.501
697.24	17.087
697.42	16.435
697.60	15.035
697.79	15.196
697.97	16.111
698.16	17.990
698.34	13.854
698.52	17.470
698.71	15.326
698.89	18.223
699.07	16.650
699.26	18.423
699.44	18.185
699.63	18.445
699.81	16.128
699.99	19.465
700.18	19.845
700.36	18.545
700.54	19.654
700.73	18.333
700.91	17.249
701.09	19.136
701.28	20.154
701.46	19.567
701.64	17.598
701.83	20.271
702.01	17.671
702.20	22.953
702.38	21.469
702.56	20.837
702.75	18.981
702.93	18.255
703.11	20.761
703.30	21.199
703.48	20.576
703.66	20.856
703.85	21.040
704.03	24.202
704.21	20.880
704.40	24.546
704.58	18.249
704.76	24.150
704.95	20.458
705.13	23.978
705.31	21.521
705.50	23.225
705.68	18.943
705.86	23.174
706.04	21.551
706.23	22.920
706.41	23.291
706.59	22.518
706.78	22.764
706.96	23.743
707.14	23.961
707.33	23.391
707.51	21.930
707.69	24.092
707.88	21.632
708.06	25.339
708.24	24.292
708.42	24.916
708.61	22.083
708.79	25.630
708.97	24.443
709.16	25.846
709.34	27.076
709.52	25.402
709.71	23.896
709.89	25.495
710.07	23.127
710.25	25.967
710.44	23.866
710.62	25.100
710.80	25.994
710.98	25.815
711.17	24.513
711.35	27.751
711.53	22.940
711.72	26.402
711.90	26.976
712.08	26.264
712.26	22.852
712.45	25.327
712.63	26.739
712.81	26.612
712.99	26.146
713.18	27.304
713.36	25.334
713.54	24.498
713.72	25.450
713.91	24.896
714.09	22.845
714.27	26.753
714.45	26.401
714.64	28.461
714.82	25.526
715.00	25.891
715.18	24.896
715.37	28.626
715.55	26.291
715.73	26.822
715.91	27.058
716.10	26.953
716.28	21.348
716.46	28.949
716.64	24.723
716.83	26.759
717.01	23.343
717.19	26.974
717.37	27.128
717.55	28.028
717.74	25.427
717.92	27.885
718.10	22.686
718.28	26.714
718.47	23.805
718.65	28.579
718.83	27.764
719.01	28.882
719.19	26.063
719.38	24.579
719.56	27.135
719.74	24.090
719.92	22.441
720.10	23.467
720.29	25.271
720.47	27.056
720.65	26.778
720.83	30.320
721.01	21.777
721.20	23.484
721.38	24.477
721.56	25.406
721.74	27.096
721.92	24.162
722.11	22.133
722.29	26.131
722.47	25.072
722.65	26.979
722.83	26.987
723.01	25.725
723.20	26.298
723.38	27.323
723.56	24.750
723.74	30.034
723.92	24.949
724.10	27.607
724.29	20.596
724.47	29.437
724.65	23.943
724.83	28.542
725.01	24.098
725.19	28.302
725.38	26.336
725.56	27.095
725.74	27.784
725.92	28.111
726.10	24.448
726.28	28.305
726.46	28.757
726.65	27.077
726.83	25.530
727.01	27.098
727.19	28.236
727.37	27.691
727.55	25.525
727.73	26.579
727.92	27.014
728.10	27.874
728.28	24.309
728.46	30.406
728.64	25.005
728.82	27.308
729.00	27.658
729.19	28.679
729.37	27.334
729.55	30.312
729.73	24.412
729.91	30.122
730.09	28.894
730.27	27.948
730.45	23.729
730.63	28.909
730.82	25.354
731.00	26.057
731.18	24.743
731.36	29.228
731.54	25.181
731.72	28.688
731.90	24.171
732.08	27.869
732.26	24.014
732.45	28.837
732.63	27.612
732.81	28.172
732.99	27.387
733.17	29.108
733.35	24.851
733.53	30.191
733.71	25.044
733.89	29.998
734.07	27.020
734.25	31.766
734.44	26.721
734.62	28.179
734.80	26.230
734.98	29.936
735.16	28.608
735.34	28.772
735.52	29.464
735.70	29.083
735.88	26.854
736.06	27.707
736.24	31.594
736.42	31.036
736.60	30.478
736.78	32.331
736.97	25.776
737.15	33.194
737.33	26.228
737.51	31.004
737.69	28.959
737.87	30.340
738.05	30.794
738.23	28.748
738.41	28.726
738.59	33.628
738.77	26.805
738.95	32.264
739.13	29.834
739.31	30.704
739.49	30.385
739.67	32.355
739.85	28.849
740.03	32.875
740.21	30.591
740.39	32.969
740.57	30.510
740.75	31.393
740.93	30.704
741.11	30.895
741.30	27.542
741.48	31.900
741.66	30.756
741.84	31.375
742.02	24.948
742.20	33.180
742.38	29.354
742.56	33.900
742.74	27.550
742.92	26.268
743.10	27.494
743.28	29.402
743.46	31.702
743.64	27.393
743.82	26.566
744.00	32.390
744.18	30.722
744.36	29.077
744.54	27.949
744.72	35.708
744.90	32.869
745.08	34.976
745.26	30.297
745.44	34.035
745.62	27.964
745.80	28.726
745.98	29.869
746.16	35.149
746.34	28.526
746.52	32.864
746.70	27.410
746.87	28.858
747.05	29.163
747.23	31.636
747.41	28.495
747.59	31.258
747.77	29.360
747.95	27.341
748.13	30.262
748.31	33.397
748.49	30.913
748.67	31.320
748.85	28.237
749.03	33.612
749.21	27.871
749.39	31.623
749.57	24.364
749.75	28.495
749.93	30.527
750.11	28.462
750.29	32.937
750.47	31.947
750.65	29.121
750.83	31.530
751.01	25.610
751.18	29.232
751.36	26.231
751.54	30.988
751.72	31.110
751.90	29.630
752.08	27.429
752.26	27.396
752.44	29.495
752.62	31.192
752.80	28.567
752.98	33.260
753.16	28.336
753.34	27.156
753.52	31.315
753.69	30.267
753.87	31.089
754.05	30.640
754.23	29.834
754.41	32.071
754.59	27.679
754.77	32.104
754.95	28.259
755.13	32.826
755.31	30.705
755.49	27.284
755.66	29.550
755.84	31.553
756.02	25.732
756.20	34.000
756.38	26.012
756.56	26.458
756.74	25.709
756.92	29.960
757.10	27.856
757.28	31.871
757.45	36.281
757.63	32.852
757.81	25.474
757.99	35.705
758.17	29.519
758.35	34.402
758.53	30.000
758.71	32.828
758.88	31.755
759.06	29.982
759.24	26.231
759.42	29.299
759.60	30.003
759.78	28.462
759.96	24.368
760.13	30.268
760.31	24.560
760.49	26.482
760.67	24.091
760.85	27.131
761.03	25.118
761.21	24.771
761.38	24.532
761.56	28.180
761.74	22.765
761.92	28.998
762.10	21.063
762.28	29.463
762.46	20.184
762.63	22.920
762.81	24.896
762.99	23.396
763.17	23.769
763.35	25.478
763.53	20.752
763.70	25.356
763.88	26.662
764.06	25.671
764.24	26.590
764.42	27.080
764.60	25.952
764.77	23.040
764.95	25.700
765.13	26.216
765.31	25.597
765.49	28.056
765.66	23.174
765.84	26.660
766.02	25.413
766.20	25.728
766.38	23.795
766.56	28.887
766.73	24.822
766.91	25.150
767.09	27.873
767.27	30.752
767.45	24.039
767.62	28.089
767.80	23.416
767.98	30.484
768.16	25.357
768.33	29.930
768.51	27.659
768.69	29.491
768.87	27.738
769.05	28.031
769.22	25.514
769.40	31.030
769.58	29.189
769.76	31.993
769.94	27.627
770.11	29.646
770.29	31.663
770.47	31.082
770.65	31.742
770.82	31.861
771.00	30.400
771.18	32.083
771.36	29.018
771.53	29.564
771.71	28.291
771.89	33.903
772.07	33.333
772.25	31.505
772.42	27.898
772.60	31.193
772.78	32.457
772.96	33.578
773.13	32.165
773.31	31.141
773.49	27.191
773.67	29.600
773.84	29.467
774.02	31.814
774.20	31.716
774.37	30.853
774.55	31.311
774.73	34.465
774.91	31.376
775.08	32.319
775.26	34.428
775.44	36.491
775.62	29.302
775.79	31.296
775.97	28.626
776.15	32.320
776.32	22.974
776.50	36.215
776.68	37.612
776.86	37.391
777.03	31.561
777.21	34.072
777.39	30.491
777.56	36.112
777.74	32.427
777.92	32.895
778.10	25.689
778.27	33.425
778.45	32.873
778.63	34.389
778.80	33.192
778.98	34.849
779.16	40.111
779.34	33.898
779.51	34.421
779.69	35.142
779.87	35.573
780.04	31.755
780.22	29.272
780.40	29.742
780.57	36.010
780.75	28.290
780.93	36.768
781.10	32.733
781.28	42.956
781.46	26.155
781.63	35.887
781.81	35.337
781.99	32.570
782.16	32.871
782.34	26.154
782.52	31.272
782.69	37.336
782.87	34.948
783.05	33.173
783.22	34.466
783.40	29.941
783.58	31.590
783.75	31.601
783.93	37.750
784.11	35.571
784.28	36.751
784.46	29.900
784.64	34.056
784.81	33.699
784.99	38.898
785.17	31.564
785.34	29.753
785.52	31.697
785.69	33.277
785.87	31.117
786.05	34.725
786.22	37.304
786.40	42.212
786.58	34.181
786.75	36.579
786.93	32.238
787.11	33.829
787.28	33.520
787.46	35.746
787.63	33.113
787.81	32.284
787.99	34.290
788.16	30.444
788.34	27.835
788.51	32.499
788.69	30.571
788.87	28.000
789.04	33.187
789.22	30.865
789.39	29.972
789.57	29.383
789.75	25.630
789.92	32.273
790.10	30.561
790.27	32.697
790.45	26.564
790.63	31.970
790.80	29.900
790.98	31.898
791.15	29.585
791.33	30.105
791.51	31.706
791.68	34.533
791.86	34.038
792.03	32.262
792.21	27.958
792.39	32.267
792.56	32.558
792.74	38.024
792.91	31.979
793.09	33.176
793.26	38.242
793.44	40.254
793.62	31.883
793.79	35.530
793.97	37.901
794.14	37.508
794.32	32.669
794.49	35.163
794.67	27.347
794.84	34.939
795.02	34.497
795.20	34.541
795.37	32.961
795.55	33.530
795.72	36.628
795.90	32.481
796.07	35.817
796.25	32.829
796.42	33.315
796.60	29.300
796.77	31.909
796.95	31.027
797.13	25.618
797.30	34.453
797.48	30.446
797.65	33.876
797.83	32.942
798.00	33.785
798.18	28.309
798.35	34.090
798.53	35.365
798.70	32.745
798.88	31.891
799.05	31.836
799.23	28.514
799.40	31.834
799.58	37.952
799.75	33.560
799.93	33.732
800.10	29.034
800.28	31.272
800.45	32.959
800.63	32.434
800.80	35.614
800.98	33.629
801.15	31.281
801.33	37.726
801.50	36.173
801.68	30.893
801.85	33.290
802.03	32.185
802.20	32.644
802.38	36.885
802.55	28.359
802.73	37.371
802.90	40.080
803.08	31.295
803.25	36.839
803.43	38.547
803.60	35.356
803.78	39.612
803.95	36.209
804.13	37.872
804.30	36.275
804.48	35.825
804.65	33.199
804.83	41.678
805.00	28.142
805.17	42.733
805.35	32.472
805.52	27.297
805.70	38.796
805.87	37.022
806.05	42.512
806.22	34.724
806.40	30.568
806.57	41.393
806.75	38.892
806.92	40.086
807.09	37.339
807.27	35.261
807.44	40.013
807.62	32.819
807.79	34.517
807.97	34.648
808.14	33.174
808.31	34.373
808.49	37.764
808.66	35.593
808.84	31.773
809.01	35.845
809.19	37.068
809.36	42.088
809.53	37.933
809.71	36.357
809.88	44.237
810.06	42.064
810.23	40.014
810.41	44.250
810.58	41.402
810.75	33.881
810.93	36.012
811.10	39.416
811.28	31.768
811.45	35.752
811.62	39.738
811.80	37.693
811.97	36.031
812.15	44.349
812.32	35.039
812.49	45.428
812.67	39.097
812.84	38.751
813.02	39.303
813.19	35.758
813.36	46.160
813.54	33.606
813.71	38.358
813.89	32.575
814.06	47.657
814.23	43.955
814.41	42.590
814.58	44.782
814.75	41.731
814.93	41.365
815.10	35.221
815.28	41.960
815.45	31.781
815.62	44.266
815.80	35.397
815.97	38.927
816.14	34.517
816.32	41.599
816.49	39.155
816.66	39.483
816.84	37.774
817.01	43.215
817.18	37.302
817.36	38.627
817.53	39.598
817.71	32.851
817.88	38.150
818.05	42.093
818.23	39.118
818.40	41.227
818.57	37.663
818.75	34.402
818.92	33.975
819.09	40.741
819.27	43.280
819.44	39.030
819.61	33.676
819.79	33.723
819.96	40.112
820.13	32.572
820.31	29.954
820.48	36.239
820.65	34.140
820.82	29.228
821.00	32.167
821.17	25.344
821.34	28.097
821.52	30.159
821.69	27.490
821.86	23.536
822.04	23.982
822.21	25.184
822.38	26.430
822.56	23.287
822.73	25.493
822.90	25.351
823.07	26.442
823.25	26.974
823.42	25.529
823.59	24.743
823.77	26.046
823.94	25.443
824.11	25.186
824.29	23.740
824.46	26.492
824.63	25.321
824.80	23.479
824.98	24.122
825.15	26.534
825.32	20.248
825.49	23.839
825.67	23.823
825.84	24.343
826.01	22.704
826.19	25.221
826.36	21.048
826.53	25.697
826.70	23.615
826.88	26.645
827.05	21.422
827.22	23.277
827.39	23.492
827.57	23.437
827.74	19.918
827.91	26.446
828.08	24.135
828.26	25.356
828.43	21.868
828.60	27.425
828.77	24.108
828.95	24.395
829.12	19.944
829.29	19.631
829.46	23.619
829.64	23.752
829.81	23.222
829.98	26.901
830.15	27.312
830.32	24.227
830.50	25.745
830.67	32.321
830.84	30.123
831.01	27.126
831.19	31.049
831.36	33.447
831.53	33.459
831.70	44.874
831.87	34.629
832.05	34.434
832.22	46.073
832.39	28.743
832.56	34.981
832.74	32.560
832.91	37.130
833.08	36.143
833.25	29.114
833.42	34.174
833.60	33.628
833.77	29.522
833.94	26.283
834.11	26.337
834.28	23.770
834.45	29.417
834.63	24.668
834.80	26.183
834.97	26.304
835.14	24.812
835.31	23.882
835.49	22.590
835.66	23.632
835.83	24.382
836.00	20.963
836.17	22.824
836.34	24.119
836.52	27.268
836.69	30.628
836.86	29.860
837.03	33.316
837.20	28.884
837.37	32.377
837.55	30.666
837.72	32.634
837.89	34.707
838.06	34.413
838.23	38.552
838.40	41.645
838.58	32.958
838.75	44.214
838.92	49.588
839.09	52.191
839.26	45.872
839.43	51.968
839.60	47.967
839.78	58.689
839.95	51.586
840.12	44.765
840.29	48.951
840.46	55.500
840.63	52.212
840.80	45.743
840.98	46.425
841.15	43.409
841.32	45.005
841.49	31.174
841.66	46.407
841.83	39.257
842.00	44.386
842.17	47.755
842.34	47.784
842.52	49.492
842.69	55.310
842.86	51.763
843.03	56.556
843.20	53.194
843.37	63.506
843.54	72.594
843.71	57.337
843.88	70.701
844.06	69.524
844.23	74.704
844.40	56.158
844.57	63.983
844.74	62.632
844.91	87.906
845.08	77.653
845.25	76.099
845.42	80.195
845.59	73.623
845.76	70.524
845.94	87.644
846.11	76.445
846.28	73.960
846.45	92.966
846.62	91.126
846.79	75.828
846.96	74.713
847.13	94.894
847.30	88.142
847.47	75.224
847.64	85.633
847.81	77.547
847.98	101.176
848.15	79.562
848.32	96.994
848.50	93.195
848.67	86.182
848.84	87.202
849.01	86.099
849.18	101.735
849.35	92.375
849.52	93.429
849.69	100.465
849.86	102.761
850.03	81.107
850.20	95.161
850.37	77.959
850.54	110.026
850.71	101.613
850.88	79.074
851.05	87.273
851.22	76.364
851.39	97.655
851.56	92.969
851.73	104.406
851.90	95.861
852.07	85.867
852.24	109.135
852.41	101.382
852.58	109.585
852.75	88.161
852.92	110.758
853.09	108.407
853.26	95.652
853.43	95.620
853.60	88.166
853.77	99.573
853.94	95.643
854.11	116.847
854.28	96.806
854.45	109.417
854.62	86.947
854.79	106.888
854.96	104.481
855.13	108.405
855.30	99.753
855.47	135.215
855.64	93.687
855.81	99.565
855.98	106.935
856.15	104.751
856.32	88.831
856.49	110.933
856.66	99.588
856.83	93.803
857.00	115.691
857.17	108.776
857.34	100.000
857.51	99.538
857.68	108.290
857.85	97.854
858.02	108.811
858.19	77.963
858.36	89.041
858.53	107.565
858.70	99.775
858.87	97.419
859.04	89.140
859.21	102.723
859.38	105.451
859.55	122.803
859.72	123.691
859.89	121.932
860.05	108.817
860.22	104.396
860.39	85.714
860.56	113.859
860.73	110.046
860.90	84.009
861.07	109.157
861.24	79.861
861.41	99.789
861.58	93.987
861.75	113.613
861.92	97.534
862.09	91.741
862.26	107.714
862.43	115.278
862.59	109.589
862.76	121.392
862.93	115.957
863.10	116.273
863.27	91.522
863.44	115.422
863.61	93.750
863.78	98.048
863.95	126.730
864.12	98.529
864.29	113.636
864.45	108.209
864.62	91.304
864.79	82.963
864.96	114.078
865.13	114.397
865.30	101.598
865.47	101.708
865.64	122.927
865.81	96.203
865.97	88.528
866.14	96.466
866.31	118.961
866.48	99.596
866.65	91.904
866.82	101.573
866.99	136.827
867.16	110.784
867.33	118.225
867.49	122.300
867.66	110.049
867.83	137.134
868.00	92.448
868.17	95.682
868.34	109.813
868.51	91.067
868.67	129.834
868.84	103.846
869.01	104.370
869.18	106.878
869.35	116.860
869.52	105.585
869.69	109.901
869.85	93.722
870.02	97.789
870.19	101.781
870.36	118.296
870.53	81.081
870.70	105.226
870.86	92.913
871.03	106.588
871.20	122.997
871.37	103.153
871.54	120.917
871.71	88.472
871.87	136.243
872.04	89.918
872.21	97.748
872.38	121.144
872.55	116.062
872.72	113.832
872.88	106.284
873.05	97.561
873.22	100.000
873.39	108.495
873.56	114.031
873.72	93.126
873.89	94.118
874.06	115.186
874.23	98.169
874.40	115.616
874.56	92.371
874.73	106.420
874.90	85.812
875.07	107.229
875.24	92.840
875.40	107.494
875.57	118.820
875.74	106.250
875.91	99.109
876.08	101.373
876.24	124.925
876.41	102.720
876.58	115.015
876.75	93.924
876.92	98.081
877.08	106.161
877.25	86.526
877.42	83.890
877.59	98.965
877.75	103.009
877.92	95.267
878.09	96.044
878.26	96.914
878.42	118.771
878.59	118.451
878.76	103.864
878.93	101.130
879.09	98.451
879.26	79.643
879.43	119.951
879.60	98.434
879.76	78.297
879.93	90.676
880.10	80.072
880.27	83.660
880.43	80.872
880.60	70.812
880.77	59.313
880.94	61.083
881.10	52.410
881.27	47.465
881.44	45.083
881.61	45.072
881.77	39.735
881.94	32.863
882.11	26.663
882.28	26.459
882.44	27.221
882.61	24.696
882.78	28.041
882.94	31.633
883.11	24.249
883.28	27.404
883.45	28.746
883.61	22.008
883.78	22.972
883.95	29.494
884.11	24.775
884.28	22.244
>>>>>End Processed Spectral Data<<<<<
