SpectraSuite Data File
++++++++++++++++++++++++++++++++++++
Date: Tue Sep 24 03:51:50 EST 2019
User: sgrac
Dark Spectrum Present: Yes
Reference Spectrum Present: Yes
Number of Sampled Component Spectra: 1
Spectrometers: USB4E01596
Integration Time (usec): 100000 (USB4E01596)
Spectra Averaged: 3 (USB4E01596)
Boxcar Smoothing: 0 (USB4E01596)
Correct for Electrical Dark: No (USB4E01596)
Strobe/Lamp Enabled: Yes (USB4E01596)
Correct for Detector Non-linearity: No (USB4E01596)
Correct for Stray Light: No (USB4E01596)
Number of Pixels in Processed Spectrum: 3648
>>>>>Begin Processed Spectral Data<<<<<
178.44	1536.364
178.66	1536.364
178.87	1536.364
179.09	679.245
179.30	775.556
179.52	-1263.333
179.74	807.547
179.95	589.552
180.17	-19150.000
180.38	-14900.000
180.60	507.865
180.82	-3292.857
181.03	1200.000
181.25	-1852.174
181.46	700.000
181.68	4322.222
181.89	-2037.500
182.11	622.727
182.33	1237.143
182.54	791.228
182.76	-840.000
182.97	285.714
183.19	1017.778
183.40	5388.889
183.62	593.902
183.84	644.000
184.05	952.174
184.27	545.679
184.48	-2255.556
184.70	478.495
184.91	680.263
185.13	731.579
185.34	552.688
185.56	1340.625
185.78	1612.500
185.99	2500.000
186.21	603.750
186.42	771.429
186.64	504.301
186.85	987.500
187.07	-4530.000
187.28	-2370.588
187.50	-39600.000
187.72	36000.000
187.93	-1662.500
188.15	1137.209
188.36	668.919
188.58	643.243
188.79	-6400.000
189.01	-3861.538
189.22	1884.000
189.44	504.651
189.65	639.394
189.87	-5871.429
190.09	1097.059
190.30	1092.105
190.52	2609.524
190.73	7916.667
190.95	1178.947
191.16	474.684
191.38	3718.182
191.59	3200.000
191.81	1202.941
192.02	989.362
192.24	863.265
192.45	2300.000
192.67	579.221
192.88	482.653
193.10	583.333
193.31	478.788
193.53	1123.684
193.74	-36700.000
193.96	704.225
194.18	413.208
194.39	530.435
194.61	524.074
194.82	422.881
195.04	406.542
195.25	0.000
195.47	-41000.000
195.68	471.000
195.90	456.471
196.11	583.133
196.33	981.395
196.54	478.899
196.76	1187.879
196.97	-3616.667
197.19	570.930
197.40	910.526
197.62	781.132
197.83	480.769
198.05	716.438
198.26	0.000
198.48	-702.222
198.69	1616.667
198.91	6171.429
199.12	-10150.000
199.34	491.111
199.55	-33400.000
199.77	2788.889
199.98	681.690
200.20	361.983
200.41	622.368
200.63	1208.824
200.84	-3438.462
201.06	573.418
201.27	1512.000
201.49	1038.298
201.70	541.379
201.91	763.380
202.13	670.149
202.34	-1700.000
202.56	361.268
202.77	5100.000
202.99	6250.000
203.20	588.406
203.42	1240.541
203.63	4975.000
203.85	417.647
204.06	726.923
204.28	347.458
204.49	1233.333
204.71	-1131.250
204.92	376.812
205.14	1445.161
205.35	1030.952
205.56	468.571
205.78	-968.000
205.99	1053.846
206.21	854.386
206.42	600.000
206.64	1956.522
206.85	533.735
207.07	-691.935
207.28	1512.000
207.50	546.739
207.71	756.250
207.93	13000.000
208.14	1323.684
208.35	-2741.667
208.57	-1096.552
208.78	317.483
209.00	990.000
209.21	429.703
209.43	-6066.667
209.64	316.477
209.86	692.982
210.07	909.524
210.28	1441.379
210.50	7383.333
210.71	1490.323
210.93	-3073.333
211.14	780.000
211.36	455.208
211.57	1733.333
211.78	4577.778
212.00	-2666.667
212.21	970.732
212.43	873.214
212.64	553.659
212.86	2139.130
213.07	575.000
213.29	3214.286
213.50	354.762
213.71	557.831
213.93	343.846
214.14	426.496
214.36	474.118
214.57	-4710.000
214.78	1197.436
215.00	429.752
215.21	1080.000
215.43	1760.000
215.64	442.593
215.86	478.302
216.07	8925.000
216.28	667.164
216.50	503.922
216.71	1296.552
216.93	-983.721
217.14	447.475
217.35	648.214
217.57	373.504
217.78	670.968
218.00	425.253
218.21	521.127
218.42	1922.222
218.64	2900.000
218.85	850.000
219.07	359.664
219.28	573.846
219.49	420.183
219.71	654.286
219.92	1564.000
220.14	930.435
220.35	3209.091
220.56	956.098
220.78	1166.667
220.99	575.385
221.21	648.649
221.42	628.378
221.63	9300.000
221.85	1332.143
222.06	1387.500
222.28	608.861
222.49	437.634
222.70	364.000
222.92	733.333
223.13	1933.333
223.34	1393.750
223.56	355.906
223.77	288.889
223.99	500.000
224.20	295.890
224.41	592.000
224.63	510.204
224.84	318.571
225.05	373.600
225.27	766.667
225.48	477.778
225.69	463.542
225.91	549.398
226.12	292.347
226.34	262.011
226.55	210.638
226.76	245.263
226.98	220.000
227.19	175.490
227.40	200.866
227.62	162.621
227.83	161.326
228.04	153.614
228.26	139.039
228.47	88.817
228.69	83.265
228.90	71.193
229.11	64.680
229.33	65.690
229.54	59.427
229.75	55.812
229.97	48.391
230.18	52.405
230.39	33.702
230.61	44.849
230.82	60.381
231.03	44.909
231.25	59.390
231.46	53.598
231.67	67.684
231.89	66.054
232.10	59.577
232.31	70.546
232.53	71.815
232.74	86.142
232.95	82.808
233.17	76.399
233.38	71.859
233.59	82.595
233.81	77.911
234.02	79.928
234.23	83.972
234.45	81.021
234.66	74.909
234.87	77.674
235.09	77.266
235.30	65.698
235.51	75.986
235.73	64.905
235.94	67.868
236.15	80.000
236.36	65.857
236.58	64.574
236.79	69.716
237.00	62.958
237.22	65.238
237.43	69.885
237.64	72.500
237.86	59.141
238.07	78.694
238.28	60.741
238.50	58.995
238.71	72.030
238.92	60.028
239.13	65.576
239.35	68.235
239.56	64.762
239.77	68.213
239.99	55.253
240.20	60.822
240.41	58.545
240.63	55.298
240.84	56.890
241.05	44.204
241.26	37.867
241.48	40.921
241.69	35.658
241.90	32.481
242.12	33.965
242.33	28.914
242.54	27.863
242.75	20.990
242.97	33.049
243.18	24.889
243.39	21.671
243.61	25.582
243.82	28.531
244.03	24.906
244.24	23.951
244.46	25.843
244.67	29.560
244.88	29.426
245.09	28.338
245.31	30.300
245.52	30.346
245.73	33.185
245.95	44.625
246.16	30.437
246.37	24.443
246.58	24.893
246.80	22.484
247.01	25.729
247.22	20.456
247.43	20.405
247.65	20.850
247.86	19.398
248.07	17.802
248.28	17.501
248.50	19.632
248.71	19.336
248.92	20.040
249.13	20.815
249.35	19.600
249.56	23.029
249.77	22.158
249.98	16.641
250.20	29.619
250.41	26.239
250.62	26.661
250.83	25.838
251.05	29.492
251.26	24.379
251.47	27.377
251.68	25.290
251.90	25.956
252.11	25.899
252.32	26.607
252.53	27.140
252.75	22.530
252.96	26.758
253.17	24.804
253.38	25.320
253.59	24.642
253.81	23.203
254.02	21.838
254.23	24.279
254.44	24.674
254.66	26.489
254.87	26.735
255.08	31.243
255.29	33.312
255.50	36.172
255.72	31.220
255.93	38.722
256.14	37.853
256.35	32.856
256.57	36.532
256.78	31.385
256.99	31.096
257.20	35.456
257.41	33.985
257.63	29.445
257.84	32.337
258.05	31.736
258.26	23.586
258.47	24.860
258.69	21.211
258.90	20.630
259.11	22.998
259.32	20.953
259.53	17.699
259.75	17.983
259.96	14.121
260.17	16.577
260.38	14.637
260.59	16.264
260.81	16.034
261.02	17.249
261.23	15.546
261.44	15.982
261.65	17.732
261.87	15.584
262.08	17.954
262.29	20.139
262.50	20.532
262.71	17.300
262.92	20.881
263.14	15.851
263.35	17.408
263.56	22.765
263.77	22.732
263.98	20.594
264.20	25.142
264.41	19.976
264.62	21.055
264.83	18.140
265.04	28.330
265.25	21.628
265.47	23.891
265.68	26.026
265.89	24.339
266.10	18.805
266.31	28.132
266.52	22.053
266.74	20.489
266.95	18.474
267.16	20.870
267.37	19.358
267.58	20.214
267.79	17.162
268.01	16.316
268.22	18.145
268.43	19.939
268.64	19.851
268.85	17.930
269.06	17.151
269.27	18.477
269.49	20.514
269.70	18.450
269.91	19.281
270.12	18.635
270.33	22.093
270.54	18.341
270.75	17.433
270.97	17.423
271.18	19.170
271.39	17.120
271.60	19.785
271.81	16.444
272.02	16.654
272.23	18.458
272.45	17.107
272.66	14.936
272.87	15.821
273.08	15.805
273.29	18.608
273.50	18.341
273.71	17.200
273.92	14.970
274.14	15.381
274.35	17.306
274.56	16.801
274.77	17.157
274.98	17.791
275.19	20.278
275.40	14.606
275.61	17.351
275.83	18.264
276.04	19.414
276.25	21.191
276.46	18.290
276.67	22.177
276.88	19.034
277.09	18.065
277.30	20.006
277.51	17.522
277.73	17.388
277.94	17.659
278.15	17.854
278.36	20.390
278.57	16.895
278.78	19.110
278.99	18.885
279.20	20.225
279.41	23.979
279.62	17.280
279.84	15.727
280.05	17.668
280.26	15.723
280.47	19.318
280.68	18.606
280.89	15.300
281.10	19.294
281.31	18.027
281.52	19.460
281.73	15.905
281.94	14.544
282.16	16.771
282.37	17.205
282.58	14.436
282.79	19.575
283.00	18.411
283.21	13.693
283.42	15.619
283.63	16.784
283.84	14.866
284.05	15.615
284.26	15.592
284.47	15.665
284.68	16.096
284.89	15.066
285.11	15.829
285.32	15.089
285.53	16.952
285.74	17.641
285.95	14.956
286.16	14.527
286.37	12.293
286.58	14.425
286.79	13.007
287.00	16.217
287.21	12.951
287.42	17.125
287.63	14.481
287.84	15.688
288.05	16.368
288.26	15.216
288.48	15.508
288.69	13.640
288.90	15.539
289.11	17.642
289.32	16.456
289.53	15.205
289.74	12.140
289.95	14.187
290.16	16.406
290.37	12.608
290.58	12.272
290.79	13.847
291.00	13.348
291.21	14.737
291.42	13.696
291.63	13.668
291.84	14.825
292.05	13.395
292.26	11.725
292.47	14.199
292.68	12.781
292.89	13.811
293.10	16.294
293.31	16.692
293.52	11.330
293.73	13.810
293.94	14.473
294.15	13.714
294.36	14.420
294.57	15.997
294.79	15.074
295.00	12.227
295.21	16.148
295.42	15.126
295.63	15.695
295.84	11.972
296.05	10.931
296.26	13.604
296.47	12.817
296.68	13.495
296.89	15.154
297.10	14.113
297.31	13.999
297.52	12.302
297.73	13.660
297.94	13.375
298.15	12.757
298.36	13.044
298.57	12.244
298.78	15.783
298.99	12.731
299.20	13.806
299.41	15.357
299.62	14.338
299.83	13.518
300.04	14.943
300.25	16.174
300.46	16.637
300.67	15.156
300.88	15.058
301.09	10.752
301.30	15.223
301.50	12.973
301.71	17.186
301.92	17.477
302.13	13.294
302.34	12.696
302.55	13.538
302.76	13.147
302.97	15.234
303.18	12.253
303.39	14.022
303.60	13.937
303.81	17.807
304.02	12.278
304.23	12.938
304.44	13.192
304.65	13.521
304.86	14.160
305.07	13.482
305.28	12.347
305.49	14.712
305.70	15.341
305.91	12.858
306.12	12.397
306.33	13.361
306.54	13.638
306.75	14.380
306.96	17.799
307.17	13.621
307.38	13.383
307.58	13.277
307.79	15.484
308.00	13.646
308.21	14.156
308.42	14.920
308.63	12.519
308.84	14.502
309.05	12.731
309.26	11.649
309.47	13.380
309.68	13.187
309.89	14.024
310.10	13.694
310.31	12.386
310.52	12.818
310.73	15.250
310.94	12.090
311.14	12.330
311.35	12.655
311.56	12.667
311.77	11.625
311.98	10.578
312.19	12.665
312.40	10.593
312.61	12.159
312.82	12.719
313.03	13.482
313.24	11.960
313.45	15.540
313.66	13.585
313.86	15.024
314.07	13.789
314.28	14.283
314.49	12.934
314.70	13.198
314.91	16.436
315.12	13.712
315.33	13.911
315.54	12.009
315.75	11.107
315.96	11.008
316.16	11.053
316.37	15.121
316.58	12.004
316.79	13.993
317.00	14.967
317.21	15.598
317.42	15.430
317.63	16.604
317.84	14.366
318.05	14.554
318.25	12.742
318.46	14.315
318.67	12.420
318.88	15.773
319.09	14.358
319.30	14.915
319.51	12.749
319.72	14.254
319.93	13.603
320.13	14.903
320.34	16.251
320.55	12.313
320.76	12.714
320.97	14.074
321.18	16.739
321.39	15.390
321.60	11.921
321.80	16.832
322.01	15.206
322.22	14.167
322.43	12.440
322.64	11.555
322.85	14.909
323.06	15.313
323.27	14.958
323.47	16.261
323.68	15.300
323.89	13.245
324.10	12.474
324.31	11.791
324.52	14.841
324.73	14.887
324.93	12.100
325.14	12.656
325.35	13.819
325.56	13.867
325.77	14.734
325.98	13.299
326.19	13.748
326.39	10.338
326.60	14.333
326.81	13.359
327.02	11.888
327.23	13.189
327.44	15.304
327.64	11.065
327.85	11.628
328.06	15.551
328.27	16.032
328.48	15.791
328.69	11.783
328.90	12.249
329.10	12.838
329.31	14.710
329.52	13.422
329.73	14.997
329.94	13.494
330.15	16.513
330.35	14.909
330.56	15.591
330.77	14.487
330.98	14.829
331.19	14.013
331.39	13.973
331.60	13.915
331.81	13.348
332.02	14.071
332.23	15.846
332.44	11.924
332.64	14.709
332.85	14.117
333.06	13.964
333.27	12.634
333.48	14.519
333.68	13.906
333.89	14.639
334.10	11.532
334.31	15.771
334.52	14.574
334.72	13.101
334.93	13.997
335.14	12.097
335.35	14.769
335.56	16.198
335.76	13.817
335.97	16.553
336.18	11.659
336.39	17.372
336.60	14.827
336.80	13.664
337.01	13.843
337.22	14.902
337.43	14.825
337.64	17.406
337.84	14.465
338.05	14.665
338.26	17.009
338.47	16.611
338.68	11.115
338.88	15.356
339.09	13.296
339.30	14.622
339.51	13.389
339.71	15.654
339.92	12.442
340.13	15.198
340.34	13.954
340.55	15.012
340.75	13.315
340.96	12.614
341.17	15.808
341.38	12.975
341.58	14.955
341.79	15.412
342.00	12.003
342.21	14.463
342.41	12.527
342.62	14.863
342.83	15.851
343.04	12.784
343.24	14.852
343.45	16.020
343.66	12.762
343.87	13.810
344.07	12.543
344.28	15.456
344.49	14.807
344.70	16.140
344.90	14.063
345.11	12.946
345.32	13.241
345.53	14.323
345.73	13.478
345.94	16.327
346.15	15.444
346.36	13.813
346.56	14.959
346.77	15.622
346.98	14.150
347.19	14.930
347.39	13.760
347.60	14.824
347.81	13.316
348.02	17.033
348.22	12.358
348.43	13.973
348.64	14.320
348.84	12.869
349.05	15.163
349.26	15.836
349.47	11.346
349.67	14.044
349.88	14.531
350.09	15.173
350.30	16.142
350.50	14.094
350.71	14.855
350.92	14.585
351.12	13.644
351.33	13.652
351.54	13.444
351.74	15.084
351.95	13.236
352.16	15.708
352.37	15.028
352.57	14.163
352.78	14.046
352.99	14.050
353.19	14.602
353.40	15.007
353.61	15.333
353.82	14.622
354.02	14.827
354.23	14.700
354.44	16.221
354.64	13.784
354.85	14.692
355.06	14.048
355.26	12.602
355.47	14.237
355.68	16.610
355.88	14.730
356.09	13.708
356.30	12.021
356.51	14.260
356.71	13.827
356.92	11.479
357.13	15.818
357.33	15.519
357.54	14.630
357.75	11.881
357.95	15.251
358.16	12.069
358.37	16.881
358.57	11.903
358.78	16.198
358.99	12.854
359.19	13.292
359.40	14.240
359.61	12.804
359.81	15.766
360.02	15.800
360.23	13.212
360.43	14.215
360.64	12.749
360.85	13.664
361.05	12.583
361.26	14.585
361.47	13.275
361.67	14.414
361.88	10.743
362.09	14.267
362.29	11.843
362.50	13.326
362.70	11.036
362.91	13.892
363.12	12.390
363.32	12.438
363.53	13.013
363.74	14.302
363.94	11.704
364.15	14.483
364.36	14.429
364.56	14.291
364.77	13.604
364.98	16.643
365.18	14.363
365.39	14.369
365.59	12.408
365.80	13.689
366.01	14.487
366.21	12.432
366.42	12.444
366.63	14.936
366.83	12.463
367.04	11.339
367.24	13.919
367.45	11.543
367.66	10.535
367.86	13.675
368.07	11.823
368.28	12.688
368.48	12.995
368.69	11.508
368.89	13.358
369.10	13.676
369.31	13.311
369.51	13.290
369.72	14.001
369.92	14.789
370.13	10.565
370.34	12.698
370.54	9.536
370.75	12.581
370.95	10.995
371.16	12.667
371.37	10.707
371.57	11.669
371.78	11.712
371.98	13.387
372.19	12.024
372.40	13.242
372.60	12.730
372.81	12.614
373.01	10.490
373.22	11.570
373.43	13.007
373.63	12.728
373.84	12.217
374.04	12.092
374.25	12.084
374.46	13.251
374.66	13.077
374.87	13.147
375.07	10.214
375.28	10.616
375.48	12.364
375.69	12.149
375.90	9.913
376.10	10.027
376.31	10.730
376.51	10.739
376.72	10.084
376.92	10.524
377.13	11.743
377.34	12.622
377.54	11.855
377.75	12.655
377.95	11.256
378.16	13.129
378.36	12.625
378.57	12.191
378.77	11.059
378.98	11.061
379.19	11.473
379.39	11.058
379.60	12.400
379.80	11.743
380.01	12.460
380.21	11.428
380.42	12.037
380.62	10.855
380.83	11.813
381.04	10.521
381.24	11.328
381.45	11.349
381.65	9.836
381.86	10.696
382.06	12.157
382.27	9.816
382.47	10.477
382.68	12.340
382.88	10.492
383.09	11.130
383.29	11.083
383.50	12.366
383.71	10.256
383.91	10.942
384.12	10.204
384.32	11.572
384.53	10.819
384.73	9.581
384.94	9.916
385.14	11.249
385.35	10.214
385.55	11.466
385.76	10.688
385.96	10.617
386.17	11.248
386.37	10.704
386.58	11.000
386.78	11.978
386.99	9.606
387.19	11.553
387.40	9.730
387.60	12.054
387.81	10.516
388.01	10.087
388.22	11.463
388.42	12.111
388.63	11.900
388.83	12.230
389.04	8.804
389.24	11.155
389.45	10.761
389.65	10.396
389.86	10.325
390.06	10.447
390.27	9.922
390.47	10.371
390.68	10.170
390.88	12.366
391.09	10.974
391.29	10.876
391.50	11.168
391.70	10.668
391.91	9.470
392.11	10.859
392.32	10.649
392.52	11.498
392.73	10.396
392.93	11.240
393.14	10.070
393.34	10.063
393.55	11.326
393.75	9.572
393.95	9.792
394.16	11.011
394.36	11.318
394.57	11.271
394.77	10.212
394.98	10.477
395.18	11.150
395.39	9.800
395.59	10.590
395.80	10.288
396.00	10.330
396.21	11.578
396.41	9.160
396.61	11.326
396.82	10.278
397.02	11.692
397.23	10.997
397.43	10.422
397.64	8.927
397.84	11.383
398.05	8.809
398.25	11.241
398.45	10.092
398.66	10.866
398.86	10.089
399.07	10.920
399.27	10.336
399.48	11.554
399.68	9.822
399.89	10.241
400.09	11.079
400.29	10.645
400.50	10.607
400.70	10.045
400.91	9.939
401.11	10.284
401.32	10.804
401.52	8.871
401.72	9.053
401.93	11.411
402.13	10.389
402.34	9.780
402.54	9.121
402.75	11.777
402.95	8.065
403.15	11.774
403.36	8.583
403.56	11.234
403.77	9.106
403.97	9.884
404.17	9.281
404.38	10.519
404.58	8.621
404.79	10.096
404.99	9.949
405.19	9.750
405.40	10.433
405.60	10.522
405.81	8.866
406.01	10.496
406.21	9.817
406.42	10.590
406.62	9.646
406.83	10.936
407.03	10.356
407.23	9.365
407.44	9.224
407.64	10.639
407.85	10.296
408.05	10.284
408.25	10.003
408.46	10.928
408.66	9.709
408.87	9.865
409.07	9.313
409.27	9.523
409.48	10.111
409.68	10.710
409.88	8.337
410.09	9.711
410.29	9.976
410.50	11.600
410.70	8.540
410.90	9.592
411.11	9.212
411.31	9.181
411.51	10.459
411.72	10.485
411.92	9.523
412.12	9.608
412.33	9.284
412.53	9.172
412.74	8.685
412.94	9.692
413.14	9.432
413.35	10.005
413.55	10.162
413.75	10.488
413.96	9.027
414.16	10.370
414.36	9.424
414.57	10.220
414.77	9.162
414.97	10.291
415.18	9.828
415.38	9.121
415.58	9.541
415.79	9.026
415.99	9.130
416.19	10.708
416.40	9.406
416.60	9.946
416.80	8.735
417.01	9.027
417.21	8.364
417.41	9.989
417.62	9.492
417.82	9.759
418.02	8.925
418.23	9.520
418.43	9.335
418.63	9.926
418.84	9.429
419.04	9.301
419.24	10.131
419.45	9.783
419.65	10.114
419.85	9.803
420.06	9.974
420.26	10.034
420.46	9.767
420.67	10.028
420.87	9.511
421.07	10.374
421.28	9.880
421.48	10.429
421.68	9.964
421.88	10.047
422.09	9.905
422.29	10.246
422.49	9.742
422.70	10.421
422.90	10.079
423.10	10.584
423.31	10.087
423.51	10.462
423.71	9.882
423.91	9.985
424.12	9.889
424.32	10.269
424.52	9.927
424.73	9.683
424.93	9.991
425.13	9.880
425.33	9.665
425.54	10.562
425.74	9.918
425.94	10.598
426.15	9.773
426.35	9.926
426.55	10.307
426.75	10.327
426.96	10.135
427.16	9.791
427.36	10.523
427.57	10.639
427.77	10.030
427.97	10.529
428.17	10.235
428.38	10.043
428.58	8.783
428.78	10.665
428.98	9.310
429.19	9.954
429.39	8.656
429.59	10.043
429.79	8.111
430.00	8.537
430.20	8.498
430.40	9.380
430.60	9.242
430.81	9.372
431.01	9.152
431.21	10.208
431.41	9.226
431.62	9.075
431.82	9.092
432.02	10.148
432.22	8.419
432.43	9.393
432.63	8.474
432.83	9.076
433.03	8.900
433.24	8.388
433.44	9.008
433.64	9.456
433.84	8.553
434.05	9.388
434.25	8.758
434.45	10.093
434.65	9.925
434.85	9.703
435.06	9.480
435.26	10.047
435.46	9.289
435.66	10.267
435.87	8.969
436.07	9.975
436.27	9.706
436.47	9.639
436.67	8.766
436.88	10.054
437.08	9.232
437.28	9.080
437.48	9.268
437.69	9.684
437.89	8.896
438.09	9.740
438.29	8.632
438.49	9.562
438.70	9.401
438.90	9.282
439.10	8.858
439.30	9.276
439.50	8.437
439.71	9.399
439.91	9.161
440.11	9.823
440.31	9.599
440.51	9.320
440.72	8.825
440.92	9.054
441.12	9.166
441.32	9.717
441.52	9.232
441.72	9.452
441.93	9.433
442.13	9.739
442.33	9.739
442.53	10.462
442.73	9.234
442.94	9.773
443.14	9.330
443.34	10.223
443.54	9.486
443.74	10.080
443.94	9.516
444.15	9.394
444.35	8.866
444.55	9.771
444.75	9.014
444.95	9.353
445.15	9.489
445.36	9.327
445.56	8.545
445.76	9.481
445.96	8.697
446.16	8.571
446.36	8.630
446.57	9.539
446.77	8.793
446.97	9.439
447.17	9.350
447.37	9.503
447.57	9.148
447.77	9.489
447.98	9.046
448.18	9.824
448.38	9.366
448.58	9.755
448.78	9.681
448.98	9.587
449.18	9.088
449.39	9.450
449.59	9.170
449.79	9.591
449.99	9.413
450.19	9.705
450.39	9.260
450.59	9.459
450.79	9.399
451.00	9.891
451.20	10.797
451.40	9.183
451.60	8.390
451.80	9.664
452.00	9.062
452.20	9.320
452.40	9.029
452.61	9.007
452.81	8.930
453.01	9.316
453.21	8.649
453.41	9.056
453.61	9.421
453.81	9.197
454.01	9.180
454.21	9.360
454.42	9.071
454.62	9.667
454.82	8.834
455.02	9.464
455.22	8.172
455.42	9.179
455.62	8.201
455.82	9.206
456.02	8.453
456.23	8.757
456.43	9.362
456.63	8.620
456.83	7.969
457.03	8.919
457.23	8.716
457.43	8.879
457.63	8.863
457.83	9.389
458.03	8.107
458.23	8.732
458.43	8.663
458.64	8.773
458.84	8.935
459.04	8.823
459.24	8.751
459.44	8.948
459.64	9.101
459.84	9.164
460.04	8.453
460.24	9.221
460.44	9.067
460.64	9.336
460.84	9.094
461.04	9.324
461.24	9.462
461.45	9.660
461.65	9.240
461.85	9.775
462.05	9.586
462.25	9.657
462.45	9.737
462.65	9.525
462.85	8.951
463.05	9.537
463.25	8.354
463.45	9.293
463.65	9.110
463.85	9.369
464.05	9.083
464.25	8.917
464.45	9.075
464.65	8.776
464.85	7.998
465.05	8.736
465.26	8.835
465.46	9.434
465.66	8.828
465.86	9.508
466.06	8.750
466.26	8.662
466.46	8.102
466.66	8.667
466.86	8.579
467.06	9.108
467.26	8.447
467.46	9.267
467.66	8.853
467.86	8.871
468.06	8.562
468.26	8.500
468.46	8.914
468.66	9.180
468.86	8.150
469.06	9.197
469.26	7.897
469.46	8.571
469.66	8.174
469.86	9.194
470.06	8.823
470.26	9.331
470.46	8.235
470.66	9.625
470.86	8.056
471.06	8.723
471.26	7.610
471.46	8.411
471.66	9.040
471.86	8.663
472.06	8.436
472.26	9.444
472.46	9.075
472.66	8.918
472.86	7.724
473.06	8.834
473.26	8.678
473.46	8.760
473.66	8.400
473.86	9.214
474.06	7.937
474.26	9.537
474.46	7.601
474.66	9.116
474.86	8.922
475.06	9.390
475.26	8.197
475.46	9.157
475.66	7.858
475.86	8.701
476.06	9.096
476.26	9.025
476.46	7.912
476.66	8.744
476.86	8.084
477.06	8.347
477.26	8.502
477.46	8.486
477.65	8.511
477.85	9.052
478.05	8.063
478.25	9.188
478.45	8.393
478.65	9.374
478.85	8.373
479.05	9.040
479.25	8.931
479.45	9.135
479.65	8.575
479.85	8.708
480.05	8.423
480.25	8.919
480.45	8.760
480.65	9.293
480.85	8.275
481.05	9.057
481.25	8.812
481.44	8.706
481.64	7.822
481.84	9.039
482.04	8.900
482.24	8.897
482.44	8.415
482.64	8.719
482.84	8.736
483.04	8.616
483.24	8.454
483.44	8.548
483.64	8.245
483.84	8.296
484.04	8.275
484.23	8.509
484.43	8.786
484.63	9.201
484.83	9.480
485.03	9.955
485.23	9.891
485.43	9.807
485.63	9.750
485.83	9.421
486.03	9.819
486.23	9.655
486.42	9.412
486.62	9.723
486.82	9.366
487.02	9.053
487.22	8.972
487.42	8.749
487.62	8.715
487.82	8.767
488.02	8.776
488.22	8.924
488.41	8.948
488.61	8.750
488.81	9.044
489.01	9.262
489.21	9.472
489.41	9.521
489.61	9.628
489.81	9.534
490.01	9.445
490.20	9.604
490.40	9.347
490.60	9.486
490.80	9.214
491.00	9.301
491.20	8.815
491.40	8.852
491.60	8.617
491.79	8.628
491.99	8.882
492.19	8.892
492.39	8.904
492.59	9.136
492.79	9.015
492.99	9.134
493.19	9.371
493.38	9.302
493.58	9.585
493.78	9.776
493.98	9.722
494.18	9.580
494.38	9.376
494.58	9.666
494.77	8.885
494.97	9.382
495.17	9.076
495.37	9.364
495.57	8.948
495.77	9.068
495.96	8.790
496.16	8.959
496.36	8.655
496.56	9.262
496.76	8.545
496.96	8.723
497.15	8.899
497.35	8.955
497.55	8.931
497.75	9.216
497.95	8.549
498.15	8.994
498.34	9.134
498.54	9.141
498.74	9.585
498.94	9.541
499.14	8.961
499.34	9.556
499.53	9.199
499.73	9.309
499.93	9.261
500.13	9.179
500.33	8.683
500.52	9.290
500.72	8.740
500.92	9.062
501.12	8.410
501.32	8.892
501.52	8.856
501.71	8.876
501.91	8.790
502.11	9.252
502.31	8.499
502.51	8.781
502.70	8.418
502.90	8.711
503.10	8.457
503.30	9.018
503.50	8.735
503.69	9.145
503.89	8.587
504.09	9.299
504.29	8.618
504.48	8.999
504.68	9.387
504.88	9.322
505.08	8.654
505.28	9.263
505.47	9.103
505.67	9.621
505.87	8.761
506.07	9.044
506.27	8.962
506.46	9.025
506.66	8.583
506.86	9.368
507.06	9.675
507.25	9.098
507.45	8.721
507.65	9.217
507.85	8.762
508.04	9.219
508.24	8.752
508.44	9.309
508.64	8.571
508.83	9.306
509.03	8.756
509.23	9.127
509.43	8.842
509.63	9.330
509.82	8.706
510.02	9.173
510.22	9.101
510.42	9.448
510.61	9.388
510.81	9.194
511.01	9.033
511.21	9.678
511.40	8.786
511.60	9.478
511.80	8.994
511.99	9.162
512.19	9.015
512.39	9.328
512.59	8.785
512.78	9.612
512.98	9.259
513.18	9.367
513.38	9.126
513.57	9.406
513.77	9.266
513.97	9.434
514.17	9.232
514.36	9.091
514.56	9.107
514.76	9.749
514.95	8.878
515.15	9.418
515.35	8.593
515.55	9.251
515.74	9.208
515.94	9.258
516.14	8.543
516.33	9.275
516.53	9.148
516.73	9.234
516.93	9.034
517.12	9.545
517.32	8.486
517.52	9.389
517.71	9.325
517.91	9.025
518.11	8.903
518.30	9.138
518.50	8.550
518.70	9.114
518.90	9.256
519.09	9.476
519.29	9.164
519.49	9.443
519.68	9.162
519.88	9.694
520.08	9.344
520.27	9.674
520.47	9.574
520.67	9.518
520.86	9.632
521.06	9.571
521.26	9.030
521.45	9.695
521.65	9.335
521.85	9.378
522.04	9.293
522.24	9.712
522.44	8.834
522.63	9.477
522.83	9.186
523.03	9.663
523.22	9.259
523.42	9.889
523.62	9.724
523.81	9.361
524.01	9.364
524.21	9.442
524.40	9.038
524.60	9.243
524.80	8.977
524.99	9.188
525.19	8.960
525.39	9.125
525.58	8.833
525.78	9.113
525.98	9.452
526.17	9.186
526.37	9.249
526.57	9.371
526.76	9.684
526.96	9.359
527.15	9.431
527.35	9.649
527.55	9.457
527.74	9.488
527.94	9.221
528.14	9.237
528.33	8.726
528.53	9.061
528.72	9.165
528.92	9.165
529.12	9.247
529.31	9.268
529.51	9.406
529.71	9.713
529.90	9.690
530.10	9.727
530.29	9.983
530.49	10.007
530.69	10.145
530.88	10.228
531.08	10.118
531.28	10.020
531.47	10.047
531.67	9.810
531.86	9.731
532.06	9.680
532.26	9.581
532.45	9.569
532.65	9.557
532.84	9.409
533.04	9.069
533.24	9.319
533.43	9.129
533.63	9.430
533.82	9.433
534.02	9.595
534.22	9.597
534.41	9.602
534.61	9.880
534.80	9.641
535.00	9.727
535.19	10.101
535.39	10.030
535.59	10.209
535.78	9.827
535.98	10.030
536.17	9.657
536.37	9.768
536.57	9.688
536.76	9.837
536.96	9.586
537.15	9.770
537.35	9.408
537.54	9.860
537.74	9.742
537.93	9.887
538.13	9.763
538.33	10.038
538.52	10.038
538.72	10.255
538.91	9.971
539.11	9.957
539.30	9.942
539.50	10.100
539.70	10.010
539.89	10.032
540.09	9.699
540.28	9.927
540.48	9.328
540.67	9.511
540.87	9.293
541.06	9.291
541.26	9.260
541.45	9.610
541.65	9.369
541.85	9.879
542.04	9.638
542.24	9.842
542.43	9.726
542.63	10.116
542.82	10.006
543.02	9.935
543.21	10.291
543.41	10.383
543.60	10.381
543.80	10.277
543.99	10.261
544.19	10.152
544.38	10.238
544.58	10.220
544.77	10.071
544.97	10.774
545.16	10.003
545.36	10.469
545.56	10.309
545.75	10.242
545.95	9.992
546.14	10.278
546.34	9.679
546.53	10.223
546.73	9.820
546.92	10.337
547.12	9.833
547.31	10.425
547.51	10.116
547.70	10.311
547.90	9.849
548.09	10.047
548.29	10.119
548.48	10.566
548.68	10.418
548.87	10.916
549.07	10.334
549.26	10.511
549.46	10.544
549.65	10.429
549.84	10.270
550.04	10.269
550.23	9.688
550.43	10.323
550.62	10.147
550.82	10.331
551.01	9.815
551.21	10.276
551.40	10.235
551.60	10.125
551.79	9.766
551.99	10.301
552.18	9.834
552.38	10.403
552.57	10.076
552.77	10.528
552.96	10.353
553.16	10.314
553.35	10.454
553.54	11.144
553.74	10.619
553.93	10.699
554.13	11.206
554.32	10.893
554.52	10.553
554.71	10.877
554.91	10.033
555.10	10.806
555.29	10.530
555.49	10.736
555.68	10.758
555.88	11.095
556.07	9.886
556.27	11.075
556.46	10.501
556.66	10.936
556.85	10.639
557.04	10.933
557.24	10.383
557.43	11.050
557.63	10.646
557.82	10.670
558.02	10.659
558.21	11.575
558.40	10.894
558.60	10.692
558.79	10.787
558.99	11.043
559.18	10.755
559.38	11.052
559.57	11.017
559.76	11.432
559.96	11.638
560.15	11.270
560.35	10.742
560.54	10.676
560.73	9.991
560.93	11.157
561.12	10.836
561.32	10.999
561.51	11.634
561.70	11.283
561.90	10.592
562.09	11.681
562.29	10.642
562.48	11.784
562.67	10.890
562.87	11.589
563.06	11.061
563.26	11.610
563.45	11.292
563.64	12.317
563.84	11.531
564.03	11.776
564.23	10.839
564.42	12.360
564.61	10.968
564.81	11.834
565.00	11.607
565.20	12.189
565.39	11.832
565.58	11.675
565.78	11.534
565.97	12.145
566.16	12.262
566.36	12.492
566.55	12.053
566.74	12.313
566.94	11.846
567.13	12.477
567.33	12.065
567.52	12.555
567.71	12.385
567.91	12.876
568.10	12.233
568.29	12.574
568.49	12.230
568.68	12.793
568.87	12.009
569.07	12.827
569.26	12.951
569.45	12.687
569.65	12.415
569.84	12.412
570.04	12.033
570.23	12.722
570.42	11.973
570.62	12.381
570.81	12.001
571.00	13.112
571.20	12.339
571.39	13.060
571.58	12.488
571.78	12.989
571.97	12.335
572.16	12.711
572.36	12.405
572.55	13.270
572.74	12.607
572.94	12.616
573.13	12.617
573.32	12.627
573.51	12.321
573.71	13.030
573.90	12.639
574.09	13.093
574.29	12.854
574.48	13.115
574.67	12.242
574.87	13.243
575.06	12.166
575.25	13.066
575.45	13.121
575.64	13.089
575.83	12.653
576.03	13.622
576.22	12.293
576.41	13.094
576.60	12.420
576.80	13.016
576.99	13.249
577.18	13.738
577.38	12.454
577.57	12.564
577.76	13.374
577.95	13.229
578.15	12.558
578.34	13.219
578.53	12.112
578.73	13.248
578.92	12.019
579.11	12.790
579.30	12.444
579.50	12.866
579.69	13.404
579.88	12.721
580.08	11.806
580.27	12.910
580.46	12.325
580.65	12.665
580.85	12.497
581.04	12.450
581.23	11.948
581.42	12.928
581.62	12.055
581.81	12.912
582.00	12.467
582.19	12.517
582.39	13.058
582.58	12.756
582.77	12.855
582.96	13.019
583.16	11.352
583.35	13.619
583.54	12.414
583.73	13.093
583.93	12.443
584.12	12.272
584.31	11.029
584.50	12.130
584.70	12.110
584.89	12.690
585.08	12.333
585.27	13.206
585.47	11.915
585.66	12.879
585.85	11.256
586.04	12.178
586.24	12.878
586.43	11.991
586.62	11.879
586.81	12.419
587.00	11.606
587.20	12.981
587.39	11.652
587.58	12.792
587.77	12.137
587.97	11.598
588.16	11.848
588.35	13.130
588.54	11.800
588.73	11.680
588.93	12.693
589.12	12.344
589.31	12.178
589.50	12.035
589.69	12.417
589.89	12.903
590.08	11.697
590.27	12.314
590.46	12.480
590.65	12.131
590.85	11.039
591.04	12.781
591.23	12.391
591.42	12.440
591.61	11.966
591.81	12.374
592.00	12.035
592.19	12.405
592.38	11.813
592.57	12.266
592.77	12.491
592.96	12.151
593.15	13.298
593.34	12.261
593.53	12.339
593.72	12.504
593.92	11.769
594.11	13.334
594.30	11.679
594.49	12.450
594.68	12.352
594.87	12.549
595.07	11.392
595.26	12.567
595.45	11.604
595.64	12.626
595.83	11.086
596.02	12.597
596.22	12.077
596.41	12.860
596.60	12.155
596.79	12.897
596.98	12.069
597.17	12.881
597.37	12.261
597.56	13.103
597.75	12.253
597.94	13.200
598.13	12.915
598.32	13.003
598.51	13.121
598.71	13.677
598.90	12.337
599.09	12.768
599.28	12.937
599.47	12.698
599.66	12.184
599.85	12.943
600.05	12.090
600.24	13.047
600.43	12.569
600.62	12.610
600.81	12.370
601.00	12.949
601.19	11.678
601.38	12.993
601.58	12.134
601.77	11.844
601.96	12.038
602.15	13.201
602.34	12.896
602.53	13.788
602.72	12.063
602.91	12.369
603.10	11.867
603.30	13.301
603.49	12.195
603.68	12.881
603.87	11.497
604.06	12.998
604.25	12.553
604.44	13.144
604.63	12.765
604.82	13.033
605.01	12.525
605.21	13.605
605.40	12.585
605.59	13.167
605.78	13.069
605.97	12.867
606.16	13.375
606.35	13.243
606.54	12.748
606.73	13.928
606.92	12.792
607.11	13.587
607.30	12.531
607.50	13.186
607.69	12.384
607.88	13.285
608.07	12.563
608.26	13.537
608.45	13.082
608.64	13.328
608.83	11.374
609.02	12.846
609.21	12.513
609.40	13.693
609.59	12.775
609.78	12.872
609.97	12.353
610.16	13.250
610.35	12.781
610.55	12.983
610.74	12.892
610.93	13.865
611.12	12.524
611.31	12.949
611.50	12.272
611.69	12.185
611.88	12.113
612.07	13.724
612.26	11.419
612.45	12.408
612.64	11.988
612.83	13.050
613.02	11.329
613.21	11.803
613.40	12.415
613.59	13.143
613.78	11.817
613.97	12.188
614.16	11.228
614.35	13.009
614.54	10.553
614.73	11.766
614.92	11.661
615.11	11.646
615.30	11.698
615.49	11.342
615.68	11.442
615.87	11.835
616.07	11.359
616.26	11.209
616.45	11.666
616.64	11.354
616.83	10.948
617.02	12.658
617.21	9.526
617.40	11.015
617.59	11.611
617.78	11.676
617.97	11.119
618.16	11.328
618.35	9.687
618.54	11.431
618.73	11.171
618.92	10.857
619.11	10.725
619.30	11.831
619.49	9.420
619.68	11.289
619.86	10.860
620.05	11.277
620.24	11.044
620.43	11.414
620.62	9.441
620.81	10.583
621.00	11.571
621.19	12.477
621.38	11.520
621.57	11.007
621.76	10.660
621.95	12.255
622.14	10.510
622.33	11.944
622.52	9.872
622.71	11.132
622.90	10.615
623.09	11.627
623.28	11.234
623.47	11.319
623.66	11.317
623.85	10.294
624.04	10.444
624.23	11.009
624.42	10.469
624.61	10.568
624.80	9.635
624.99	10.858
625.18	9.139
625.36	10.913
625.55	11.389
625.74	10.304
625.93	10.437
626.12	11.391
626.31	11.754
626.50	10.821
626.69	10.755
626.88	11.869
627.07	11.259
627.26	10.994
627.45	11.391
627.64	11.597
627.83	11.005
628.02	11.481
628.20	10.850
628.39	11.703
628.58	10.866
628.77	12.109
628.96	10.442
629.15	10.940
629.34	11.349
629.53	10.284
629.72	10.177
629.91	11.774
630.10	11.435
630.29	11.386
630.47	10.539
630.66	11.215
630.85	10.445
631.04	11.271
631.23	11.051
631.42	10.938
631.61	10.046
631.80	12.177
631.99	10.029
632.18	10.535
632.36	9.946
632.55	11.759
632.74	10.522
632.93	10.089
633.12	10.589
633.31	10.875
633.50	9.779
633.69	10.901
633.88	9.795
634.06	10.757
634.25	10.495
634.44	10.753
634.63	10.208
634.82	12.245
635.01	9.954
635.20	11.006
635.39	10.116
635.57	10.889
635.76	10.832
635.95	10.606
636.14	9.785
636.33	11.132
636.52	10.342
636.71	10.180
636.89	10.053
637.08	10.837
637.27	10.282
637.46	9.575
637.65	10.570
637.84	10.516
638.03	9.841
638.21	10.775
638.40	10.794
638.59	9.961
638.78	10.132
638.97	11.228
639.16	11.664
639.34	10.616
639.53	8.418
639.72	11.186
639.91	9.555
640.10	8.975
640.29	11.467
640.47	12.049
640.66	10.549
640.85	11.811
641.04	8.538
641.23	10.245
641.42	9.962
641.60	9.845
641.79	10.296
641.98	9.917
642.17	9.979
642.36	11.459
642.54	9.506
642.73	10.096
642.92	8.852
643.11	9.976
643.30	10.016
643.49	10.213
643.67	8.801
643.86	9.478
644.05	9.126
644.24	9.961
644.43	10.276
644.61	9.841
644.80	9.662
644.99	9.806
645.18	11.403
645.37	10.586
645.55	8.771
645.74	10.501
645.93	10.680
646.12	10.800
646.31	10.560
646.49	10.301
646.68	10.305
646.87	10.415
647.06	9.294
647.24	10.191
647.43	9.234
647.62	11.596
647.81	9.699
648.00	10.472
648.18	8.202
648.37	9.713
648.56	10.609
648.75	9.153
648.93	9.319
649.12	10.622
649.31	9.534
649.50	9.797
649.68	9.681
649.87	10.247
650.06	8.926
650.25	10.441
650.43	8.927
650.62	9.109
650.81	10.417
651.00	10.109
651.18	9.538
651.37	10.715
651.56	9.541
651.75	10.846
651.93	8.985
652.12	10.458
652.31	9.226
652.50	11.140
652.68	10.513
652.87	11.625
653.06	10.680
653.25	10.712
653.43	9.264
653.62	10.128
653.81	9.518
654.00	9.858
654.18	9.393
654.37	10.837
654.56	8.840
654.74	8.763
654.93	9.560
655.12	10.286
655.31	10.228
655.49	11.284
655.68	9.324
655.87	8.930
656.05	8.190
656.24	9.979
656.43	8.803
656.62	10.529
656.80	9.815
656.99	9.653
657.18	8.182
657.36	9.596
657.55	10.204
657.74	10.402
657.93	10.046
658.11	11.621
658.30	10.532
658.49	8.852
658.67	9.950
658.86	9.003
659.05	8.767
659.23	10.254
659.42	9.002
659.61	9.906
659.79	9.549
659.98	9.705
660.17	10.558
660.35	10.202
660.54	10.992
660.73	11.620
660.91	10.306
661.10	10.343
661.29	8.913
661.47	9.743
661.66	9.771
661.85	10.033
662.03	9.305
662.22	8.657
662.41	8.773
662.59	10.245
662.78	8.244
662.97	9.741
663.15	8.999
663.34	8.247
663.53	8.340
663.71	10.023
663.90	8.203
664.09	8.848
664.27	10.021
664.46	9.735
664.65	8.850
664.83	9.948
665.02	9.130
665.21	8.420
665.39	7.476
665.58	10.258
665.77	8.871
665.95	9.913
666.14	9.156
666.32	10.326
666.51	9.658
666.70	9.163
666.88	9.691
667.07	8.755
667.26	8.773
667.44	9.178
667.63	8.655
667.81	9.074
668.00	8.794
668.19	11.624
668.37	9.369
668.56	10.936
668.75	8.674
668.93	11.090
669.12	8.612
669.30	9.467
669.49	7.484
669.68	10.178
669.86	10.663
670.05	9.155
670.23	9.297
670.42	8.597
670.61	10.512
670.79	11.423
670.98	10.263
671.16	11.297
671.35	9.238
671.54	9.972
671.72	9.262
671.91	10.088
672.09	8.776
672.28	10.476
672.46	10.904
672.65	11.417
672.84	10.826
673.02	11.029
673.21	8.353
673.39	9.016
673.58	11.681
673.77	11.450
673.95	10.915
674.14	11.179
674.32	9.100
674.51	11.590
674.69	10.378
674.88	10.775
675.07	10.066
675.25	13.476
675.44	10.400
675.62	10.729
675.81	9.963
675.99	14.925
676.18	13.229
676.36	9.960
676.55	10.171
676.74	12.181
676.92	12.407
677.11	12.412
677.29	10.813
677.48	12.006
677.66	12.485
677.85	11.142
678.03	11.210
678.22	12.739
678.40	11.595
678.59	10.967
678.78	10.190
678.96	10.542
679.15	11.352
679.33	13.590
679.52	12.464
679.70	12.202
679.89	11.030
680.07	13.139
680.26	8.999
680.44	10.866
680.63	10.911
680.81	12.507
681.00	9.577
681.18	10.816
681.37	11.381
681.55	12.274
681.74	12.240
681.92	12.359
682.11	11.996
682.29	11.160
682.48	11.510
682.66	12.308
682.85	11.912
683.03	12.622
683.22	13.318
683.40	13.462
683.59	12.272
683.77	13.088
683.96	11.059
684.14	12.993
684.33	10.708
684.51	15.049
684.70	12.491
684.88	13.944
685.07	11.433
685.25	14.508
685.44	11.563
685.62	12.822
685.81	11.418
685.99	14.002
686.18	10.945
686.36	13.753
686.55	10.722
686.73	12.274
686.92	13.501
687.10	12.604
687.29	14.637
687.47	13.976
687.65	13.704
687.84	12.175
688.02	14.951
688.21	15.092
688.39	11.929
688.58	14.080
688.76	13.384
688.95	13.062
689.13	11.724
689.32	14.629
689.50	14.188
689.68	13.564
689.87	12.380
690.05	14.896
690.24	15.155
690.42	14.606
690.61	14.181
690.79	15.837
690.98	14.393
691.16	13.410
691.34	12.702
691.53	13.937
691.71	13.742
691.90	14.628
692.08	12.162
692.27	16.261
692.45	16.336
692.63	13.866
692.82	15.298
693.00	12.897
693.19	12.011
693.37	16.399
693.56	14.113
693.74	16.013
693.92	14.766
694.11	15.811
694.29	15.651
694.48	16.215
694.66	16.334
694.84	16.601
695.03	14.174
695.21	17.476
695.40	16.373
695.58	18.769
695.76	15.004
695.95	17.376
696.13	15.883
696.32	17.133
696.50	21.069
696.68	16.938
696.87	15.762
697.05	17.336
697.24	17.213
697.42	17.770
697.60	17.055
697.79	16.577
697.97	17.155
698.16	19.828
698.34	15.984
698.52	19.234
698.71	16.442
698.89	17.730
699.07	17.023
699.26	18.169
699.44	18.011
699.63	19.686
699.81	17.704
699.99	20.025
700.18	19.369
700.36	19.785
700.54	19.345
700.73	18.578
700.91	18.366
701.09	20.081
701.28	19.908
701.46	20.062
701.64	18.503
701.83	20.090
702.01	17.322
702.20	22.576
702.38	20.770
702.56	19.091
702.75	20.014
702.93	17.962
703.11	19.897
703.30	19.411
703.48	19.798
703.66	20.950
703.85	20.504
704.03	23.719
704.21	20.570
704.40	24.206
704.58	19.486
704.76	22.385
704.95	21.394
705.13	22.179
705.31	19.922
705.50	22.853
705.68	18.030
705.86	21.946
706.04	21.569
706.23	23.091
706.41	22.716
706.59	22.175
706.78	20.993
706.96	23.297
707.14	23.126
707.33	21.846
707.51	21.411
707.69	22.985
707.88	21.717
708.06	23.849
708.24	22.389
708.42	23.421
708.61	21.550
708.79	23.127
708.97	24.359
709.16	23.386
709.34	26.121
709.52	23.427
709.71	21.980
709.89	25.017
710.07	20.761
710.25	24.065
710.44	23.736
710.62	23.146
710.80	24.863
710.98	23.526
711.17	23.469
711.35	24.046
711.53	20.262
711.72	24.312
711.90	26.047
712.08	24.599
712.26	21.043
712.45	24.650
712.63	24.513
712.81	24.792
712.99	24.000
713.18	25.801
713.36	24.777
713.54	24.084
713.72	22.564
713.91	22.970
714.09	21.932
714.27	24.259
714.45	24.544
714.64	26.837
714.82	23.957
715.00	25.955
715.18	23.871
715.37	27.378
715.55	26.291
715.73	26.476
715.91	26.835
716.10	25.865
716.28	22.049
716.46	27.134
716.64	24.363
716.83	26.245
717.01	24.932
717.19	27.082
717.37	25.839
717.55	28.539
717.74	24.967
717.92	27.305
718.10	23.338
718.28	28.562
718.47	25.066
718.65	29.771
718.83	26.930
719.01	28.846
719.19	26.803
719.38	25.899
719.56	28.035
719.74	25.586
719.92	21.315
720.10	26.054
720.29	26.273
720.47	28.759
720.65	28.303
720.83	30.877
721.01	25.269
721.20	27.717
721.38	27.499
721.56	26.389
721.74	27.269
721.92	27.515
722.11	26.625
722.29	29.288
722.47	27.362
722.65	28.699
722.83	29.348
723.01	27.905
723.20	29.258
723.38	30.009
723.56	27.799
723.74	35.264
723.92	28.368
724.10	29.989
724.29	25.423
724.47	32.141
724.65	27.832
724.83	30.061
725.01	28.502
725.19	33.422
725.38	26.880
725.56	29.623
725.74	28.695
725.92	32.867
726.10	28.774
726.28	31.448
726.46	30.440
726.65	32.484
726.83	30.311
727.01	30.499
727.19	31.510
727.37	31.228
727.55	31.560
727.73	31.779
727.92	30.367
728.10	31.537
728.28	28.476
728.46	33.471
728.64	29.981
728.82	31.669
729.00	32.371
729.19	31.565
729.37	32.041
729.55	32.884
729.73	29.660
729.91	31.583
730.09	32.248
730.27	31.001
730.45	30.549
730.63	32.597
730.82	30.822
731.00	31.871
731.18	28.833
731.36	33.395
731.54	29.534
731.72	32.748
731.90	29.677
732.08	33.333
732.26	29.961
732.45	34.776
732.63	32.057
732.81	33.010
732.99	33.035
733.17	33.768
733.35	30.974
733.53	35.521
733.71	32.240
733.89	33.697
734.07	31.286
734.25	35.711
734.44	31.726
734.62	34.050
734.80	32.460
734.98	35.249
735.16	34.980
735.34	36.598
735.52	34.848
735.70	35.470
735.88	32.472
736.06	33.110
736.24	36.323
736.42	36.795
736.60	37.482
736.78	39.131
736.97	33.309
737.15	37.019
737.33	33.121
737.51	38.067
737.69	35.458
737.87	35.227
738.05	37.179
738.23	35.997
738.41	35.687
738.59	39.048
738.77	33.562
738.95	37.175
739.13	35.631
739.31	34.684
739.49	37.007
739.67	37.788
739.85	35.427
740.03	38.109
740.21	38.480
740.39	37.710
740.57	36.307
740.75	35.421
740.93	36.937
741.11	39.417
741.30	36.422
741.48	39.769
741.66	37.370
741.84	36.555
742.02	34.958
742.20	38.660
742.38	35.159
742.56	39.904
742.74	34.943
742.92	36.437
743.10	34.125
743.28	38.939
743.46	36.682
743.64	35.755
743.82	36.050
744.00	39.943
744.18	36.954
744.36	39.071
744.54	35.451
744.72	41.213
744.90	38.438
745.08	40.417
745.26	39.221
745.44	39.097
745.62	35.846
745.80	38.271
745.98	37.145
746.16	43.725
746.34	40.673
746.52	41.870
746.70	34.230
746.87	38.329
747.05	35.944
747.23	39.925
747.41	36.192
747.59	40.940
747.77	35.730
747.95	39.907
748.13	36.800
748.31	37.026
748.49	37.752
748.67	37.840
748.85	37.923
749.03	39.709
749.21	34.119
749.39	39.925
749.57	34.515
749.75	37.407
749.93	38.763
750.11	38.572
750.29	36.475
750.47	39.331
750.65	38.767
750.83	36.417
751.01	32.195
751.18	36.787
751.36	33.209
751.54	34.475
751.72	38.282
751.90	35.309
752.08	35.810
752.26	34.982
752.44	39.432
752.62	37.711
752.80	37.781
752.98	39.824
753.16	37.027
753.34	36.830
753.52	39.174
753.69	37.159
753.87	39.514
754.05	36.792
754.23	37.109
754.41	38.825
754.59	35.499
754.77	39.596
754.95	35.460
755.13	38.790
755.31	36.218
755.49	36.724
755.66	39.217
755.84	37.443
756.02	33.559
756.20	40.738
756.38	36.963
756.56	37.231
756.74	32.703
756.92	37.621
757.10	36.471
757.28	38.765
757.45	44.153
757.63	38.631
757.81	36.636
757.99	42.884
758.17	35.013
758.35	42.304
758.53	39.487
758.71	39.775
758.88	34.602
759.06	39.822
759.24	32.608
759.42	35.335
759.60	35.961
759.78	34.971
759.96	32.850
760.13	35.828
760.31	29.533
760.49	34.083
760.67	29.278
760.85	34.932
761.03	30.313
761.21	30.505
761.38	28.459
761.56	30.801
761.74	29.420
761.92	34.400
762.10	26.550
762.28	32.772
762.46	27.623
762.63	28.019
762.81	28.995
762.99	27.566
763.17	29.639
763.35	30.365
763.53	27.187
763.70	30.877
763.88	32.390
764.06	30.557
764.24	29.054
764.42	31.419
764.60	29.314
764.77	29.367
764.95	30.664
765.13	30.431
765.31	32.245
765.49	32.878
765.66	29.728
765.84	33.776
766.02	31.214
766.20	33.764
766.38	29.677
766.56	33.771
766.73	32.910
766.91	33.681
767.09	31.048
767.27	36.476
767.45	32.329
767.62	33.610
767.80	29.901
767.98	36.225
768.16	32.309
768.33	37.939
768.51	34.501
768.69	35.761
768.87	34.066
769.05	35.378
769.22	34.499
769.40	41.255
769.58	36.932
769.76	41.812
769.94	37.680
770.11	39.143
770.29	36.747
770.47	36.431
770.65	38.674
770.82	38.998
771.00	35.440
771.18	40.379
771.36	36.891
771.53	36.842
771.71	36.975
771.89	41.335
772.07	36.650
772.25	40.577
772.42	37.792
772.60	40.909
772.78	38.064
772.96	41.148
773.13	41.775
773.31	38.586
773.49	35.506
773.67	40.966
773.84	38.531
774.02	40.483
774.20	38.806
774.37	40.940
774.55	37.868
774.73	42.574
774.91	41.428
775.08	41.405
775.26	38.064
775.44	42.747
775.62	38.397
775.79	38.843
775.97	37.721
776.15	39.990
776.32	35.748
776.50	42.084
776.68	41.151
776.86	48.400
777.03	41.276
777.21	43.167
777.39	37.958
777.56	42.026
777.74	38.285
777.92	42.251
778.10	36.467
778.27	42.740
778.45	42.780
778.63	43.590
778.80	42.232
778.98	43.897
779.16	44.690
779.34	43.267
779.51	42.600
779.69	41.959
779.87	40.316
780.04	39.349
780.22	37.444
780.40	38.442
780.57	41.061
780.75	40.890
780.93	45.605
781.10	39.260
781.28	46.776
781.46	40.265
781.63	44.291
781.81	43.480
781.99	36.355
782.16	40.407
782.34	35.128
782.52	39.115
782.69	45.149
782.87	37.656
783.05	41.920
783.22	38.290
783.40	37.773
783.58	42.419
783.75	36.743
783.93	44.269
784.11	42.068
784.28	46.195
784.46	38.193
784.64	42.828
784.81	39.616
784.99	47.603
785.17	39.148
785.34	37.233
785.52	40.589
785.69	43.018
785.87	37.711
786.05	44.336
786.22	42.659
786.40	54.515
786.58	40.565
786.75	44.540
786.93	41.020
787.11	39.897
787.28	42.560
787.46	44.033
787.63	37.804
787.81	35.806
787.99	43.058
788.16	40.470
788.34	35.342
788.51	37.251
788.69	39.212
788.87	35.855
789.04	38.832
789.22	38.730
789.39	37.500
789.57	33.258
789.75	34.189
789.92	37.136
790.10	37.822
790.27	42.618
790.45	33.913
790.63	36.245
790.80	36.350
790.98	38.458
791.15	33.575
791.33	38.745
791.51	33.852
791.68	41.732
791.86	40.488
792.03	40.158
792.21	36.079
792.39	42.604
792.56	39.812
792.74	41.138
792.91	39.188
793.09	39.326
793.26	36.164
793.44	44.431
793.62	42.014
793.79	43.350
793.97	43.693
794.14	39.773
794.32	46.276
794.49	42.642
794.67	36.671
794.84	40.453
795.02	40.638
795.20	37.580
795.37	38.543
795.55	40.424
795.72	39.297
795.90	37.420
796.07	39.804
796.25	38.445
796.42	36.767
796.60	40.532
796.77	34.684
796.95	36.024
797.13	32.360
797.30	41.440
797.48	38.740
797.65	39.601
797.83	40.492
798.00	42.137
798.18	36.035
798.35	41.005
798.53	40.582
798.70	42.369
798.88	40.488
799.05	39.304
799.23	37.420
799.40	40.012
799.58	42.442
799.75	40.634
799.93	37.560
800.10	37.131
800.28	36.756
800.45	39.929
800.63	38.489
800.80	42.211
800.98	43.043
801.15	37.746
801.33	41.974
801.50	41.386
801.68	36.849
801.85	39.702
802.03	34.523
802.20	38.055
802.38	41.308
802.55	38.390
802.73	46.249
802.90	39.283
803.08	38.396
803.25	44.452
803.43	44.568
803.60	41.623
803.78	46.122
803.95	44.521
804.13	44.142
804.30	44.776
804.48	42.020
804.65	41.935
804.83	39.630
805.00	37.233
805.17	45.533
805.35	38.370
805.52	32.518
805.70	45.084
805.87	44.862
806.05	39.913
806.22	42.234
806.40	38.417
806.57	41.984
806.75	45.752
806.92	46.367
807.09	39.599
807.27	40.920
807.44	43.687
807.62	42.496
807.79	42.275
807.97	40.500
808.14	43.023
808.31	43.412
808.49	42.875
808.66	35.332
808.84	34.783
809.01	43.169
809.19	45.277
809.36	48.271
809.53	45.011
809.71	38.404
809.88	50.104
810.06	48.541
810.23	40.499
810.41	44.390
810.58	51.445
810.75	42.463
810.93	40.104
811.10	45.474
811.28	39.985
811.45	41.253
811.62	45.216
811.80	41.950
811.97	42.443
812.15	49.337
812.32	39.690
812.49	45.356
812.67	43.076
812.84	44.018
813.02	45.300
813.19	40.429
813.36	45.507
813.54	44.317
813.71	45.462
813.89	44.354
814.06	47.224
814.23	50.600
814.41	47.638
814.58	51.090
814.75	43.959
814.93	51.398
815.10	41.465
815.28	41.654
815.45	44.118
815.62	50.922
815.80	40.000
815.97	51.448
816.14	40.154
816.32	44.780
816.49	38.756
816.66	51.070
816.84	34.141
817.01	50.323
817.18	46.587
817.36	42.298
817.53	48.755
817.71	37.751
817.88	42.966
818.05	45.407
818.23	43.971
818.40	41.304
818.57	37.971
818.75	38.468
818.92	36.441
819.09	40.590
819.27	51.177
819.44	41.069
819.61	35.597
819.79	38.530
819.96	45.073
820.13	36.945
820.31	30.933
820.48	40.912
820.65	36.614
820.82	36.672
821.00	36.031
821.17	30.599
821.34	32.398
821.52	31.409
821.69	33.482
821.86	29.714
822.04	30.230
822.21	30.640
822.38	31.187
822.56	27.968
822.73	31.443
822.90	29.998
823.07	31.388
823.25	30.813
823.42	29.675
823.59	29.705
823.77	31.583
823.94	28.626
824.11	30.418
824.29	29.248
824.46	31.023
824.63	31.080
824.80	30.594
824.98	28.652
825.15	31.459
825.32	26.713
825.49	29.683
825.67	27.275
825.84	32.465
826.01	27.720
826.19	31.475
826.36	25.600
826.53	34.281
826.70	27.496
826.88	32.039
827.05	28.448
827.22	29.440
827.39	27.629
827.57	29.449
827.74	28.513
827.91	30.563
828.08	27.270
828.26	30.422
828.43	26.869
828.60	33.538
828.77	28.652
828.95	29.738
829.12	25.856
829.29	26.745
829.46	28.391
829.64	31.238
829.81	27.846
829.98	33.370
830.15	29.416
830.32	33.377
830.50	31.614
830.67	35.769
830.84	33.440
831.01	29.995
831.19	34.446
831.36	38.756
831.53	39.223
831.70	48.540
831.87	41.413
832.05	38.510
832.22	49.065
832.39	33.935
832.56	35.880
832.74	38.099
832.91	37.851
833.08	44.039
833.25	33.333
833.42	39.279
833.60	38.575
833.77	28.288
833.94	29.209
834.11	29.483
834.28	28.515
834.45	30.731
834.63	28.577
834.80	28.588
834.97	32.366
835.14	29.460
835.31	28.971
835.49	28.375
835.66	31.485
835.83	29.768
836.00	27.951
836.17	29.187
836.34	27.898
836.52	28.618
836.69	33.102
836.86	37.905
837.03	36.514
837.20	35.278
837.37	34.623
837.55	38.601
837.72	37.305
837.89	36.949
838.06	44.453
838.23	44.609
838.40	49.957
838.58	41.110
838.75	49.012
838.92	47.118
839.09	59.661
839.26	50.092
839.43	59.144
839.60	53.252
839.78	66.909
839.95	56.397
840.12	56.517
840.29	61.139
840.46	53.419
840.63	52.606
840.80	48.317
840.98	58.100
841.15	49.033
841.32	47.296
841.49	37.133
841.66	53.160
841.83	44.243
842.00	46.667
842.17	57.593
842.34	43.449
842.52	60.163
842.69	60.988
842.86	58.362
843.03	69.441
843.20	61.556
843.37	53.377
843.54	73.663
843.71	55.240
843.88	77.389
844.06	74.444
844.23	77.219
844.40	63.636
844.57	63.277
844.74	63.086
844.91	87.545
845.08	71.543
845.25	85.660
845.42	76.299
845.59	83.973
845.76	75.407
845.94	107.414
846.11	94.647
846.28	81.193
846.45	95.057
846.62	89.249
846.79	74.338
846.96	79.885
847.13	102.641
847.30	85.310
847.47	74.327
847.64	82.987
847.81	96.038
847.98	96.078
848.15	86.314
848.32	92.184
848.50	103.592
848.67	84.909
848.84	100.000
849.01	91.704
849.18	91.540
849.35	112.636
849.52	109.035
849.69	88.605
849.86	105.523
850.03	85.878
850.20	100.403
850.37	77.551
850.54	104.884
850.71	106.250
850.88	86.519
851.05	99.740
851.22	80.661
851.39	93.390
851.56	95.703
851.73	100.192
851.90	101.743
852.07	73.876
852.24	111.538
852.41	106.912
852.58	118.394
852.75	97.252
852.92	105.134
853.09	111.726
853.26	88.478
853.43	96.837
853.60	90.335
853.77	99.786
853.94	104.139
854.11	122.462
854.28	105.389
854.45	102.466
854.62	105.310
854.79	111.164
854.96	105.896
855.13	113.362
855.30	110.617
855.47	130.914
855.64	94.444
855.81	103.478
855.98	127.069
856.15	110.633
856.32	114.286
856.49	134.933
856.66	112.140
856.83	96.581
857.00	127.926
857.17	121.247
857.34	99.307
857.51	82.217
857.68	101.554
857.85	91.416
858.02	114.978
858.19	110.603
858.36	102.968
858.53	120.331
858.70	103.604
858.87	107.312
859.04	97.511
859.21	108.416
859.38	111.740
859.55	133.492
859.72	125.895
859.89	122.193
860.05	108.172
860.22	118.462
860.39	102.070
860.56	136.685
860.73	108.676
860.90	95.096
861.07	123.133
861.24	92.824
861.41	105.696
861.58	110.022
861.75	120.419
861.92	121.300
862.09	109.152
862.26	138.000
862.43	139.120
862.59	112.603
862.76	130.928
862.93	114.043
863.10	135.433
863.27	105.652
863.44	113.735
863.61	117.411
863.78	92.842
863.95	142.138
864.12	93.067
864.29	106.250
864.45	122.139
864.62	103.623
864.79	93.889
864.96	108.981
865.13	107.977
865.30	102.968
865.47	100.190
865.64	110.000
865.81	127.342
865.97	95.671
866.14	95.010
866.31	80.779
866.48	99.798
866.65	91.685
866.82	116.854
866.99	145.609
867.16	98.284
867.33	103.118
867.49	123.944
867.66	118.627
867.83	154.072
868.00	109.375
868.17	99.773
868.34	117.056
868.51	101.241
868.67	126.519
868.84	94.231
869.01	113.368
869.18	101.852
869.35	126.163
869.52	118.617
869.69	119.802
869.85	109.417
870.02	117.199
870.19	131.552
870.36	111.278
870.53	106.081
870.70	112.114
870.86	97.375
871.03	122.118
871.20	120.413
871.37	119.369
871.54	131.519
871.71	102.949
871.87	133.862
872.04	79.835
872.21	120.946
872.38	124.129
872.55	133.420
872.72	107.937
872.88	111.749
873.05	94.678
873.22	120.438
873.39	111.893
873.56	95.663
873.72	104.878
873.89	98.911
874.06	106.017
874.23	109.840
874.40	113.699
874.56	101.031
874.73	116.296
874.90	82.380
875.07	108.434
875.24	96.420
875.40	95.866
875.57	112.921
875.74	108.250
875.91	99.109
876.08	99.314
876.24	138.739
876.41	88.494
876.58	103.604
876.75	106.835
876.92	100.000
877.08	111.374
877.25	93.895
877.42	95.481
877.59	91.925
877.75	102.083
877.92	106.996
878.09	117.363
878.26	98.560
878.42	143.345
878.59	112.756
878.76	95.682
878.93	130.791
879.09	112.168
879.26	94.464
879.43	125.791
879.60	100.196
879.76	80.634
879.93	88.665
880.10	69.659
880.27	93.464
880.43	66.946
880.60	73.057
880.77	52.803
880.94	63.224
881.10	58.916
881.27	53.614
881.44	45.640
881.61	41.812
881.77	45.112
881.94	33.569
882.11	28.718
882.28	33.400
882.44	30.516
882.61	26.345
882.78	31.423
882.94	32.749
883.11	29.663
883.28	30.537
883.45	28.098
883.61	27.101
883.78	27.674
883.95	33.961
884.11	27.320
884.28	29.040
>>>>>End Processed Spectral Data<<<<<
