SpectraSuite Data File
++++++++++++++++++++++++++++++++++++
Date: Tue Sep 24 03:59:07 EST 2019
User: sgrac
Dark Spectrum Present: Yes
Reference Spectrum Present: Yes
Number of Sampled Component Spectra: 1
Spectrometers: USB4E01596
Integration Time (usec): 100000 (USB4E01596)
Spectra Averaged: 3 (USB4E01596)
Boxcar Smoothing: 0 (USB4E01596)
Correct for Electrical Dark: No (USB4E01596)
Strobe/Lamp Enabled: Yes (USB4E01596)
Correct for Detector Non-linearity: No (USB4E01596)
Correct for Stray Light: No (USB4E01596)
Number of Pixels in Processed Spectrum: 3648
>>>>>Begin Processed Spectral Data<<<<<
178.44	1595.455
178.66	1595.455
178.87	1595.455
179.09	624.528
179.30	900.000
179.52	-1423.333
179.74	783.019
179.95	713.433
180.17	-23200.000
180.38	-14900.000
180.60	595.506
180.82	-3407.143
181.03	1183.784
181.25	-1700.000
181.46	643.056
181.68	4411.111
181.89	-1912.500
182.11	669.697
182.33	1417.143
182.54	850.877
182.76	-860.000
182.97	300.621
183.19	900.000
183.40	4477.778
183.62	579.268
183.84	592.000
184.05	930.435
184.27	519.753
184.48	-2266.667
184.70	493.548
184.91	625.000
185.13	732.895
185.34	572.043
185.56	1278.125
185.78	1512.500
185.99	2700.000
186.21	552.500
186.42	873.810
186.64	480.645
186.85	995.833
187.07	-4270.000
187.28	-1864.706
187.50	-45100.000
187.72	41100.000
187.93	-2129.167
188.15	1209.302
188.36	737.838
188.58	683.784
188.79	-5857.143
189.01	-3530.769
189.22	1704.000
189.44	510.465
189.65	692.424
189.87	-5500.000
190.09	1070.588
190.30	1257.895
190.52	2257.143
190.73	7650.000
190.95	1160.526
191.16	570.886
191.38	3809.091
191.59	3114.286
191.81	1467.647
192.02	1104.255
192.24	887.755
192.45	2247.059
192.67	533.766
192.88	426.531
193.10	739.394
193.31	502.020
193.53	1076.316
193.74	-39900.000
193.96	805.634
194.18	433.962
194.39	483.696
194.61	505.556
194.82	424.576
195.04	408.411
195.25	0.000
195.47	-42900.000
195.68	420.000
195.90	535.294
196.11	607.229
196.33	851.163
196.54	496.330
196.76	1357.576
196.97	-3841.667
197.19	590.698
197.40	875.439
197.62	875.472
197.83	474.038
198.05	719.178
198.26	0.000
198.48	-848.889
198.69	1550.000
198.91	5800.000
199.12	-11050.000
199.34	551.111
199.55	-38000.000
199.77	2855.556
199.98	697.183
200.20	352.893
200.41	671.053
200.63	1350.000
200.84	-3707.692
201.06	550.633
201.27	1704.000
201.49	904.255
201.70	501.149
201.91	725.352
202.13	577.612
202.34	-1680.000
202.56	326.761
202.77	5437.500
202.99	6737.500
203.20	714.493
203.42	1208.108
203.63	4662.500
203.85	473.109
204.06	836.538
204.28	461.017
204.49	1318.182
204.71	-987.500
204.92	377.536
205.14	1474.194
205.35	878.571
205.56	476.190
205.78	-940.000
205.99	1002.564
206.21	859.649
206.42	657.576
206.64	1930.435
206.85	563.855
207.07	-737.097
207.28	1412.000
207.50	561.957
207.71	766.667
207.93	13433.333
208.14	1163.158
208.35	-3125.000
208.57	-1227.586
208.78	374.825
209.00	1150.000
209.21	433.663
209.43	-5700.000
209.64	298.295
209.86	643.860
210.07	857.143
210.28	1200.000
210.50	7166.667
210.71	1109.677
210.93	-2593.333
211.14	709.091
211.36	488.542
211.57	1774.074
211.78	5233.333
212.00	-2166.667
212.21	936.585
212.43	828.571
212.64	570.732
212.86	1813.043
213.07	776.471
213.29	3192.857
213.50	356.349
213.71	602.410
213.93	369.231
214.14	341.880
214.36	414.118
214.57	-4840.000
214.78	1220.513
215.00	428.926
215.21	892.500
215.43	1740.000
215.64	449.074
215.86	412.264
216.07	9800.000
216.28	673.134
216.50	516.667
216.71	1386.207
216.93	-1111.628
217.14	503.030
217.35	737.500
217.57	371.795
217.78	645.161
218.00	416.162
218.21	538.028
218.42	1762.963
218.64	3166.667
218.85	923.214
219.07	389.916
219.28	696.923
219.49	451.376
219.71	687.143
219.92	1276.000
220.14	843.478
220.35	3909.091
220.56	1041.463
220.78	1206.061
220.99	690.769
221.21	622.973
221.42	579.730
221.63	10475.000
221.85	1525.000
222.06	1195.833
222.28	631.646
222.49	478.495
222.70	473.000
222.92	740.351
223.13	1933.333
223.34	1218.750
223.56	356.693
223.77	295.139
223.99	587.778
224.20	307.534
224.41	573.333
224.63	464.286
224.84	352.857
225.05	313.600
225.27	807.843
225.48	431.313
225.69	437.500
225.91	472.289
226.12	275.000
226.34	274.302
226.55	193.617
226.76	238.421
226.98	261.250
227.19	203.922
227.40	191.342
227.62	197.087
227.83	130.939
228.04	135.843
228.26	117.718
228.47	104.946
228.69	78.776
228.90	76.514
229.11	62.444
229.33	60.948
229.54	51.909
229.75	54.555
229.97	46.961
230.18	44.831
230.39	40.342
230.61	42.872
230.82	58.576
231.03	38.692
231.25	57.512
231.46	53.970
231.67	55.089
231.89	68.260
232.10	57.606
232.31	65.439
232.53	77.229
232.74	77.953
232.95	75.079
233.17	74.825
233.38	63.652
233.59	83.544
233.81	77.740
234.02	83.183
234.23	83.275
234.45	82.775
234.66	69.636
234.87	82.326
235.09	75.115
235.30	73.983
235.51	62.093
235.73	70.338
235.94	71.003
236.15	67.460
236.36	68.892
236.58	71.749
236.79	76.025
237.00	56.223
237.22	58.095
237.43	67.291
237.64	78.333
237.86	65.097
238.07	73.872
238.28	65.333
238.50	61.376
238.71	69.474
238.92	58.626
239.13	64.438
239.35	73.235
239.56	57.687
239.77	75.989
239.99	46.848
240.20	56.832
240.41	56.364
240.63	47.381
240.84	55.006
241.05	43.355
241.26	44.533
241.48	42.311
241.69	34.561
241.90	36.589
242.12	29.924
242.33	27.577
242.54	24.155
242.75	23.267
242.97	25.616
243.18	20.926
243.39	20.606
243.61	21.220
243.82	22.599
244.03	19.834
244.24	20.847
244.46	21.551
244.67	22.638
244.88	24.880
245.09	24.327
245.31	23.585
245.52	23.419
245.73	31.567
245.95	42.625
246.16	25.481
246.37	19.599
246.58	23.128
246.80	22.527
247.01	20.372
247.22	16.030
247.43	15.348
247.65	16.122
247.86	14.671
248.07	12.340
248.28	12.960
248.50	12.568
248.71	14.210
248.92	11.696
249.13	14.339
249.35	12.203
249.56	16.027
249.77	15.717
249.98	14.451
250.20	21.335
250.41	19.065
250.62	22.755
250.83	23.022
251.05	25.400
251.26	26.117
251.47	28.779
251.68	25.566
251.90	22.678
252.11	25.125
252.32	27.026
252.53	21.595
252.75	22.486
252.96	24.679
253.17	21.961
253.38	18.505
253.59	21.823
253.81	21.900
254.02	19.973
254.23	24.471
254.44	21.013
254.66	22.447
254.87	24.458
255.08	31.477
255.29	32.670
255.50	33.729
255.72	26.671
255.93	33.064
256.14	36.229
256.35	28.335
256.57	35.709
256.78	27.001
256.99	27.774
257.20	32.038
257.41	32.346
257.63	26.545
257.84	28.990
258.05	29.311
258.26	22.145
258.47	26.439
258.69	20.319
258.90	19.163
259.11	19.588
259.32	17.133
259.53	16.406
259.75	15.735
259.96	10.655
260.17	12.778
260.38	11.116
260.59	10.479
260.81	9.852
261.02	11.044
261.23	9.463
261.44	10.986
261.65	10.722
261.87	9.421
262.08	12.619
262.29	13.361
262.50	13.688
262.71	12.877
262.92	15.789
263.14	14.030
263.35	13.678
263.56	20.072
263.77	19.684
263.98	17.704
264.20	23.552
264.41	18.433
264.62	18.794
264.83	19.732
265.04	23.890
265.25	21.358
265.47	22.262
265.68	21.482
265.89	21.652
266.10	17.345
266.31	23.297
266.52	19.097
266.74	16.841
266.95	18.239
267.16	17.982
267.37	18.737
267.58	15.834
267.79	16.182
268.01	15.561
268.22	15.323
268.43	16.269
268.64	15.940
268.85	15.403
269.06	16.234
269.27	16.280
269.49	17.186
269.70	15.499
269.91	16.062
270.12	16.734
270.33	17.622
270.54	16.720
270.75	15.502
270.97	16.273
271.18	15.781
271.39	15.198
271.60	15.044
271.81	13.799
272.02	11.754
272.23	13.793
272.45	11.405
272.66	11.363
272.87	12.190
273.08	11.237
273.29	12.285
273.50	13.559
273.71	11.933
273.92	10.632
274.14	12.665
274.35	11.931
274.56	13.118
274.77	13.186
274.98	13.840
275.19	16.911
275.40	12.203
275.61	10.892
275.83	16.269
276.04	15.939
276.25	17.317
276.46	15.345
276.67	17.499
276.88	16.062
277.09	13.798
277.30	15.908
277.51	14.999
277.73	13.290
277.94	13.835
278.15	14.391
278.36	16.021
278.57	12.485
278.78	14.018
278.99	14.487
279.20	16.357
279.41	18.689
279.62	12.565
279.84	12.700
280.05	14.021
280.26	13.951
280.47	16.499
280.68	15.467
280.89	12.174
281.10	12.761
281.31	16.820
281.52	13.820
281.73	11.335
281.94	12.201
282.16	13.012
282.37	13.152
282.58	11.164
282.79	14.829
283.00	13.889
283.21	10.179
283.42	11.969
283.63	12.993
283.84	12.275
284.05	11.528
284.26	12.671
284.47	12.417
284.68	10.298
284.89	10.432
285.11	10.231
285.32	10.545
285.53	12.775
285.74	12.943
285.95	10.319
286.16	9.752
286.37	8.225
286.58	10.245
286.79	10.454
287.00	10.749
287.21	8.907
287.42	11.762
287.63	9.943
287.84	7.844
288.05	12.304
288.26	9.535
288.48	11.072
288.69	9.278
288.90	11.082
289.11	12.630
289.32	11.442
289.53	12.213
289.74	9.578
289.95	11.701
290.16	12.940
290.37	9.501
290.58	9.948
290.79	8.930
291.00	10.754
291.21	11.346
291.42	10.121
291.63	10.106
291.84	10.488
292.05	10.501
292.26	9.239
292.47	11.122
292.68	9.965
292.89	11.409
293.10	12.832
293.31	10.836
293.52	8.727
293.73	10.724
293.94	11.525
294.15	11.915
294.36	12.439
294.57	11.498
294.79	11.389
295.00	9.721
295.21	11.322
295.42	11.028
295.63	10.516
295.84	9.870
296.05	9.314
296.26	8.927
296.47	9.171
296.68	9.813
296.89	11.206
297.10	10.006
297.31	10.299
297.52	8.995
297.73	8.240
297.94	8.461
298.15	8.527
298.36	8.665
298.57	7.783
298.78	8.960
298.99	8.460
299.20	7.575
299.41	8.771
299.62	8.703
299.83	8.513
300.04	9.440
300.25	10.932
300.46	10.307
300.67	11.855
300.88	9.539
301.09	8.621
301.30	11.321
301.50	9.720
301.71	11.535
301.92	12.205
302.13	10.139
302.34	7.548
302.55	11.826
302.76	9.292
302.97	10.483
303.18	9.289
303.39	11.323
303.60	11.093
303.81	11.690
304.02	9.567
304.23	10.267
304.44	8.590
304.65	9.877
304.86	10.445
305.07	9.742
305.28	9.616
305.49	10.843
305.70	11.056
305.91	10.480
306.12	10.018
306.33	10.685
306.54	9.745
306.75	10.588
306.96	13.262
307.17	11.125
307.38	10.381
307.58	9.832
307.79	11.749
308.00	10.981
308.21	10.761
308.42	10.289
308.63	11.132
308.84	10.837
309.05	11.480
309.26	7.368
309.47	9.257
309.68	9.560
309.89	11.945
310.10	9.796
310.31	8.538
310.52	9.153
310.73	10.183
310.94	7.588
311.14	8.979
311.35	8.119
311.56	9.335
311.77	7.849
311.98	6.927
312.19	7.550
312.40	8.077
312.61	7.323
312.82	9.906
313.03	8.978
313.24	9.946
313.45	9.388
313.66	10.978
313.86	10.749
314.07	9.283
314.28	10.245
314.49	11.020
314.70	11.195
314.91	11.217
315.12	8.931
315.33	10.414
315.54	8.952
315.75	8.978
315.96	9.147
316.16	9.956
316.37	11.738
316.58	8.497
316.79	9.386
317.00	10.649
317.21	10.594
317.42	10.707
317.63	11.682
317.84	10.949
318.05	12.086
318.25	9.759
318.46	9.509
318.67	9.285
318.88	10.850
319.09	10.859
319.30	10.633
319.51	10.876
319.72	10.161
319.93	11.082
320.13	10.217
320.34	11.239
320.55	10.594
320.76	10.704
320.97	10.796
321.18	12.191
321.39	11.622
321.60	11.166
321.80	12.727
322.01	12.196
322.22	11.875
322.43	10.679
322.64	9.752
322.85	10.096
323.06	11.562
323.27	9.843
323.47	11.006
323.68	11.430
323.89	9.870
324.10	10.350
324.31	9.956
324.52	10.398
324.73	10.483
324.93	9.911
325.14	8.953
325.35	11.198
325.56	9.142
325.77	10.292
325.98	10.025
326.19	10.338
326.39	7.181
326.60	9.670
326.81	8.637
327.02	9.647
327.23	8.197
327.44	10.371
327.64	6.221
327.85	7.579
328.06	9.842
328.27	12.297
328.48	9.549
328.69	9.774
328.90	8.889
329.10	9.656
329.31	9.680
329.52	10.141
329.73	9.465
329.94	9.959
330.15	9.818
330.35	11.519
330.56	10.394
330.77	7.989
330.98	10.456
331.19	10.251
331.39	11.084
331.60	10.488
331.81	9.361
332.02	9.609
332.23	11.343
332.44	8.906
332.64	11.088
332.85	9.985
333.06	9.382
333.27	8.053
333.48	8.730
333.68	9.307
333.89	10.785
334.10	7.297
334.31	11.042
334.52	10.517
334.72	9.329
334.93	8.986
335.14	8.105
335.35	9.600
335.56	10.656
335.76	7.702
335.97	10.099
336.18	7.444
336.39	11.672
336.60	9.851
336.80	8.743
337.01	10.251
337.22	9.577
337.43	10.504
337.64	10.444
337.84	9.432
338.05	9.291
338.26	10.655
338.47	10.603
338.68	7.002
338.88	9.751
339.09	8.573
339.30	8.696
339.51	8.877
339.71	8.525
339.92	8.706
340.13	8.946
340.34	9.704
340.55	8.578
340.75	8.096
340.96	7.747
341.17	9.694
341.38	8.502
341.58	9.904
341.79	8.415
342.00	7.647
342.21	8.488
342.41	7.909
342.62	8.044
342.83	9.761
343.04	7.170
343.24	8.294
343.45	10.236
343.66	7.247
343.87	8.872
344.07	6.832
344.28	8.960
344.49	8.424
344.70	9.411
344.90	7.085
345.11	6.936
345.32	7.168
345.53	8.247
345.73	7.627
345.94	9.234
346.15	8.064
346.36	6.592
346.56	7.493
346.77	8.673
346.98	8.468
347.19	7.873
347.39	7.239
347.60	7.028
347.81	8.150
348.02	10.051
348.22	7.415
348.43	7.921
348.64	8.316
348.84	7.522
349.05	7.994
349.26	8.782
349.47	6.506
349.67	7.268
349.88	9.534
350.09	8.902
350.30	9.879
350.50	9.064
350.71	8.059
350.92	7.255
351.12	8.621
351.33	7.878
351.54	8.319
351.74	7.754
351.95	7.935
352.16	8.367
352.37	9.725
352.57	7.563
352.78	7.861
352.99	8.277
353.19	8.922
353.40	8.514
353.61	9.888
353.82	8.721
354.02	9.250
354.23	9.201
354.44	10.238
354.64	7.837
354.85	9.942
355.06	8.234
355.26	7.878
355.47	9.166
355.68	11.637
355.88	8.854
356.09	9.126
356.30	7.961
356.51	9.635
356.71	9.032
356.92	7.420
357.13	10.304
357.33	11.090
357.54	10.002
357.75	8.393
357.95	10.573
358.16	8.948
358.37	12.356
358.57	9.141
358.78	11.988
358.99	10.379
359.19	10.733
359.40	11.903
359.61	10.679
359.81	13.442
360.02	14.033
360.23	10.342
360.43	11.816
360.64	11.368
360.85	10.759
361.05	10.898
361.26	14.079
361.47	12.119
361.67	13.845
361.88	10.218
362.09	13.332
362.29	10.748
362.50	11.512
362.70	10.327
362.91	14.040
363.12	11.609
363.32	12.167
363.53	13.808
363.74	14.557
363.94	11.885
364.15	15.319
364.36	14.544
364.56	12.802
364.77	14.289
364.98	16.633
365.18	13.819
365.39	16.513
365.59	13.301
365.80	14.953
366.01	14.768
366.21	13.969
366.42	13.089
366.63	16.148
366.83	13.668
367.04	11.630
367.24	15.092
367.45	13.431
367.66	11.468
367.86	15.404
368.07	13.340
368.28	15.219
368.48	14.166
368.69	12.634
368.89	13.916
369.10	15.426
369.31	13.901
369.51	15.666
369.72	15.331
369.92	17.007
370.13	12.226
370.34	14.859
370.54	9.723
370.75	14.874
370.95	13.221
371.16	14.351
371.37	13.358
371.57	14.375
371.78	13.367
371.98	15.972
372.19	14.467
372.40	14.409
372.60	15.038
372.81	15.000
373.01	12.187
373.22	13.630
373.43	15.599
373.63	14.785
373.84	14.622
374.04	14.185
374.25	14.380
374.46	15.226
374.66	15.327
374.87	15.223
375.07	12.557
375.28	12.881
375.48	13.618
375.69	15.025
375.90	11.367
376.10	11.458
376.31	12.609
376.51	12.400
376.72	12.110
376.92	11.554
377.13	12.779
377.34	14.896
377.54	13.178
377.75	14.902
377.95	13.041
378.16	14.478
378.36	14.248
378.57	14.369
378.77	13.025
378.98	13.867
379.19	13.780
379.39	12.460
379.60	13.954
379.80	13.580
380.01	14.237
380.21	13.361
380.42	14.529
380.62	13.213
380.83	13.938
381.04	12.874
381.24	12.961
381.45	12.979
381.65	11.780
381.86	13.286
382.06	13.782
382.27	11.435
382.47	12.514
382.68	14.581
382.88	11.883
383.09	12.867
383.29	12.520
383.50	14.447
383.71	12.223
383.91	13.208
384.12	11.502
384.32	13.656
384.53	11.635
384.73	11.260
384.94	10.449
385.14	12.656
385.35	11.221
385.55	12.591
385.76	11.673
385.96	12.134
386.17	12.666
386.37	12.737
386.58	13.031
386.78	14.409
386.99	10.829
387.19	13.017
387.40	11.126
387.60	13.296
387.81	11.882
388.01	12.028
388.22	12.225
388.42	14.197
388.63	13.978
388.83	13.606
389.04	10.686
389.24	12.189
389.45	12.192
389.65	11.715
389.86	12.582
390.06	11.226
390.27	11.063
390.47	12.297
390.68	10.966
390.88	13.977
391.09	12.462
391.29	12.698
391.50	11.699
391.70	12.281
391.91	11.210
392.11	11.816
392.32	12.250
392.52	12.142
392.73	11.568
392.93	12.204
393.14	11.649
393.34	11.484
393.55	13.112
393.75	11.052
393.95	10.966
394.16	12.589
394.36	12.564
394.57	12.931
394.77	11.642
394.98	12.109
395.18	11.905
395.39	11.746
395.59	12.154
395.80	11.622
396.00	11.555
396.21	12.466
396.41	10.189
396.61	12.257
396.82	12.258
397.02	14.031
397.23	12.467
397.43	10.923
397.64	10.429
397.84	12.589
398.05	9.820
398.25	12.338
398.45	11.002
398.66	11.731
398.86	11.322
399.07	12.451
399.27	10.824
399.48	12.727
399.68	10.695
399.89	11.141
400.09	11.991
400.29	11.131
400.50	10.730
400.70	11.763
400.91	10.951
401.11	10.871
401.32	11.480
401.52	9.052
401.72	10.441
401.93	13.314
402.13	10.907
402.34	11.895
402.54	9.828
402.75	13.388
402.95	8.694
403.15	12.532
403.36	9.025
403.56	12.145
403.77	10.059
403.97	11.338
404.17	10.059
404.38	11.478
404.58	9.772
404.79	10.980
404.99	10.368
405.19	10.225
405.40	10.974
405.60	10.996
405.81	9.766
406.01	11.284
406.21	10.663
406.42	11.085
406.62	10.966
406.83	12.276
407.03	11.377
407.23	10.306
407.44	9.892
407.64	10.999
407.85	10.323
408.05	10.888
408.25	11.023
408.46	11.101
408.66	11.219
408.87	10.515
409.07	10.559
409.27	10.283
409.48	10.591
409.68	11.804
409.88	8.768
410.09	10.637
410.29	10.394
410.50	12.288
410.70	9.456
410.90	10.299
411.11	9.380
411.31	9.824
411.51	11.232
411.72	11.259
411.92	9.472
412.12	10.114
412.33	9.798
412.53	9.894
412.74	8.591
412.94	9.965
413.14	10.495
413.35	10.132
413.55	10.223
413.75	12.177
413.96	9.516
414.16	10.570
414.36	10.804
414.57	10.302
414.77	9.639
414.97	10.415
415.18	9.602
415.38	10.012
415.58	9.528
415.79	9.452
415.99	8.883
416.19	10.523
416.40	10.231
416.60	10.018
416.80	9.449
417.01	9.836
417.21	8.774
417.41	10.205
417.62	9.486
417.82	10.017
418.02	8.752
418.23	9.804
418.43	9.717
418.63	9.945
418.84	9.728
419.04	9.415
419.24	10.085
419.45	10.379
419.65	9.945
419.85	9.795
420.06	9.898
420.26	9.858
420.46	9.705
420.67	10.209
420.87	10.051
421.07	10.205
421.28	9.746
421.48	10.386
421.68	10.245
421.88	10.137
422.09	10.060
422.29	9.716
422.49	9.442
422.70	10.552
422.90	10.198
423.10	10.397
423.31	10.183
423.51	10.450
423.71	9.694
423.91	10.004
424.12	9.613
424.32	10.364
424.52	9.954
424.73	9.563
424.93	9.973
425.13	9.495
425.33	9.810
425.54	10.126
425.74	10.019
425.94	10.653
426.15	9.982
426.35	10.005
426.55	10.245
426.75	10.185
426.96	10.079
427.16	10.207
427.36	10.189
427.57	10.375
427.77	10.276
427.97	10.170
428.17	10.149
428.38	10.303
428.58	8.379
428.78	10.496
428.98	8.787
429.19	10.012
429.39	8.884
429.59	10.258
429.79	8.373
430.00	8.673
430.20	8.259
430.40	9.200
430.60	9.027
430.81	9.051
431.01	9.055
431.21	9.865
431.41	8.936
431.62	9.240
431.82	8.963
432.02	10.330
432.22	9.100
432.43	8.754
432.63	8.375
432.83	8.701
433.03	8.416
433.24	8.697
433.44	8.933
433.64	9.884
433.84	8.589
434.05	9.618
434.25	8.773
434.45	9.968
434.65	10.138
434.85	9.844
435.06	9.781
435.26	9.447
435.46	9.393
435.66	10.000
435.87	9.021
436.07	9.724
436.27	9.500
436.47	9.661
436.67	8.904
436.88	10.008
437.08	9.279
437.28	9.302
437.48	9.289
437.69	9.987
437.89	9.111
438.09	9.903
438.29	9.106
438.49	9.851
438.70	9.298
438.90	8.865
439.10	9.095
439.30	9.141
439.50	8.621
439.71	9.255
439.91	9.340
440.11	9.983
440.31	9.386
440.51	9.243
440.72	8.971
440.92	9.245
441.12	9.536
441.32	9.814
441.52	9.596
441.72	9.985
441.93	9.747
442.13	10.013
442.33	9.773
442.53	10.204
442.73	9.346
442.94	9.611
443.14	9.622
443.34	9.837
443.54	9.578
443.74	10.391
443.94	9.539
444.15	9.699
444.35	9.260
444.55	10.294
444.75	9.135
444.95	9.711
445.15	9.201
445.36	9.843
445.56	8.646
445.76	9.536
445.96	8.953
446.16	8.837
446.36	8.819
446.57	9.772
446.77	8.841
446.97	9.581
447.17	9.915
447.37	9.619
447.57	9.721
447.77	9.715
447.98	9.555
448.18	9.798
448.38	9.536
448.58	9.853
448.78	10.045
448.98	9.785
449.18	9.318
449.39	10.204
449.59	9.529
449.79	9.617
449.99	9.966
450.19	9.774
450.39	9.461
450.59	9.868
450.79	9.194
451.00	10.061
451.20	11.017
451.40	9.462
451.60	8.916
451.80	10.100
452.00	9.418
452.20	9.816
452.40	9.372
452.61	9.586
452.81	9.467
453.01	9.825
453.21	9.186
453.41	9.989
453.61	9.462
453.81	9.882
454.01	9.608
454.21	9.893
454.42	9.922
454.62	9.787
454.82	9.421
455.02	9.781
455.22	8.852
455.42	9.515
455.62	8.595
455.82	9.705
456.02	8.962
456.23	9.641
456.43	9.569
456.63	9.482
456.83	8.466
457.03	9.661
457.23	9.215
457.43	9.892
457.63	9.363
457.83	10.259
458.03	8.603
458.23	9.479
458.43	8.567
458.64	9.349
458.84	9.240
459.04	9.769
459.24	9.137
459.44	9.375
459.64	9.418
459.84	9.424
460.04	8.833
460.24	9.547
460.44	9.451
460.64	9.798
460.84	9.394
461.04	9.885
461.24	9.787
461.45	9.914
461.65	9.844
461.85	9.987
462.05	10.076
462.25	9.976
462.45	10.347
462.65	10.052
462.85	9.398
463.05	10.341
463.25	9.077
463.45	10.200
463.65	9.730
463.85	10.006
464.05	9.706
464.25	9.435
464.45	10.093
464.65	9.849
464.85	9.195
465.05	9.105
465.26	9.590
465.46	10.214
465.66	9.689
465.86	10.230
466.06	9.534
466.26	9.421
466.46	8.890
466.66	9.748
466.86	9.489
467.06	9.735
467.26	9.330
467.46	10.370
467.66	9.696
467.86	10.087
468.06	9.427
468.26	9.551
468.46	9.827
468.66	9.914
468.86	9.193
469.06	10.235
469.26	9.363
469.46	9.774
469.66	8.982
469.86	10.276
470.06	9.746
470.26	10.497
470.46	9.362
470.66	10.713
470.86	8.918
471.06	9.667
471.26	8.668
471.46	9.204
471.66	10.170
471.86	9.869
472.06	9.709
472.26	10.493
472.46	10.464
472.66	10.319
472.86	8.930
473.06	9.857
473.26	9.749
473.46	10.040
473.66	9.309
473.86	10.557
474.06	9.378
474.26	10.475
474.46	8.621
474.66	10.460
474.86	9.839
475.06	10.556
475.26	9.084
475.46	10.414
475.66	8.913
475.86	9.798
476.06	10.222
476.26	10.420
476.46	9.333
476.66	10.358
476.86	9.422
477.06	9.824
477.26	9.429
477.46	9.792
477.65	9.794
477.85	10.373
478.05	9.050
478.25	10.461
478.45	9.619
478.65	10.387
478.85	9.656
479.05	10.269
479.25	9.970
479.45	10.529
479.65	9.807
479.85	10.479
480.05	9.692
480.25	10.117
480.45	9.805
480.65	10.582
480.85	9.550
481.05	10.036
481.25	10.085
481.44	10.105
481.64	9.242
481.84	10.158
482.04	9.884
482.24	10.067
482.44	9.226
482.64	9.744
482.84	9.931
483.04	9.361
483.24	9.243
483.44	9.198
483.64	8.945
483.84	8.782
484.04	8.998
484.23	9.167
484.43	9.329
484.63	9.735
484.83	10.203
485.03	10.560
485.23	10.587
485.43	10.468
485.63	10.105
485.83	10.258
486.03	10.418
486.23	10.487
486.42	10.193
486.62	10.349
486.82	9.856
487.02	9.944
487.22	9.740
487.42	9.604
487.62	9.479
487.82	9.433
488.02	9.382
488.22	9.464
488.41	9.629
488.61	9.679
488.81	9.701
489.01	9.893
489.21	10.064
489.41	10.174
489.61	10.179
489.81	10.087
490.01	10.324
490.20	10.379
490.40	10.341
490.60	10.110
490.80	10.122
491.00	10.219
491.20	9.672
491.40	9.607
491.60	9.491
491.79	9.468
491.99	9.557
492.19	9.576
492.39	9.638
492.59	9.828
492.79	9.831
492.99	9.941
493.19	10.154
493.38	10.022
493.58	10.436
493.78	10.534
493.98	10.879
494.18	10.664
494.38	10.665
494.58	10.677
494.77	10.114
494.97	10.700
495.17	10.650
495.37	10.481
495.57	10.344
495.77	10.497
495.96	10.293
496.16	10.292
496.36	10.041
496.56	10.431
496.76	9.828
496.96	9.767
497.15	9.989
497.35	9.797
497.55	10.009
497.75	10.102
497.95	9.786
498.15	10.314
498.34	10.351
498.54	10.164
498.74	10.382
498.94	10.491
499.14	9.789
499.34	10.543
499.53	10.153
499.73	10.505
499.93	10.444
500.13	10.684
500.33	9.909
500.52	10.212
500.72	10.111
500.92	10.112
501.12	9.766
501.32	10.281
501.52	10.300
501.71	10.295
501.91	10.094
502.11	10.306
502.31	10.069
502.51	10.297
502.70	10.032
502.90	10.240
503.10	10.103
503.30	10.343
503.50	10.094
503.69	10.491
503.89	10.278
504.09	10.872
504.29	10.042
504.48	10.784
504.68	10.030
504.88	10.661
505.08	9.837
505.28	10.244
505.47	9.764
505.67	10.660
505.87	10.282
506.07	10.119
506.27	10.134
506.46	10.456
506.66	10.167
506.86	10.533
507.06	10.895
507.25	10.523
507.45	10.221
507.65	10.801
507.85	9.933
508.04	10.766
508.24	10.018
508.44	10.403
508.64	10.050
508.83	10.710
509.03	10.111
509.23	10.019
509.43	9.987
509.63	10.439
509.82	10.101
510.02	10.121
510.22	9.982
510.42	10.569
510.61	10.491
510.81	10.156
511.01	10.301
511.21	10.659
511.40	10.127
511.60	10.378
511.80	10.340
511.99	10.377
512.19	10.483
512.39	10.451
512.59	10.026
512.78	10.831
512.98	10.355
513.18	10.798
513.38	10.444
513.57	10.701
513.77	10.626
513.97	10.836
514.17	10.485
514.36	10.457
514.56	10.492
514.76	10.832
514.95	10.318
515.15	10.908
515.35	9.880
515.55	10.506
515.74	10.798
515.94	10.542
516.14	9.814
516.33	10.438
516.53	10.174
516.73	10.573
516.93	10.111
517.12	10.686
517.32	9.724
517.52	10.476
517.71	10.303
517.91	10.069
518.11	10.168
518.30	10.113
518.50	9.665
518.70	10.235
518.90	10.286
519.09	10.066
519.29	10.395
519.49	10.509
519.68	9.914
519.88	10.599
520.08	10.312
520.27	10.686
520.47	10.822
520.67	10.768
520.86	10.819
521.06	10.886
521.26	10.207
521.45	10.748
521.65	10.439
521.85	10.392
522.04	10.188
522.24	10.941
522.44	10.059
522.63	10.644
522.83	10.459
523.03	10.619
523.22	10.528
523.42	11.092
523.62	10.637
523.81	10.626
524.01	10.556
524.21	10.392
524.40	9.953
524.60	10.275
524.80	10.196
524.99	10.486
525.19	10.062
525.39	10.056
525.58	9.968
525.78	10.139
525.98	10.359
526.17	10.087
526.37	10.177
526.57	10.426
526.76	10.725
526.96	10.419
527.15	10.387
527.35	10.045
527.55	10.261
527.74	10.404
527.94	10.143
528.14	9.933
528.33	9.598
528.53	9.542
528.72	9.724
528.92	9.898
529.12	9.979
529.31	10.078
529.51	10.294
529.71	10.347
529.90	10.281
530.10	10.492
530.29	10.671
530.49	10.837
530.69	10.891
530.88	10.972
531.08	10.776
531.28	10.937
531.47	10.658
531.67	10.710
531.86	10.379
532.06	10.762
532.26	10.499
532.45	10.611
532.65	10.435
532.84	10.195
533.04	10.018
533.24	9.886
533.43	10.006
533.63	10.396
533.82	10.340
534.02	10.414
534.22	10.563
534.41	10.471
534.61	10.605
534.80	10.558
535.00	10.822
535.19	10.906
535.39	10.839
535.59	11.032
535.78	11.044
535.98	10.607
536.17	10.550
536.37	10.643
536.57	10.448
536.76	10.606
536.96	10.521
537.15	10.855
537.35	10.377
537.54	10.559
537.74	10.803
537.93	10.718
538.13	10.578
538.33	10.845
538.52	11.123
538.72	11.178
538.91	11.044
539.11	11.106
539.30	10.967
539.50	10.960
539.70	10.850
539.89	11.248
540.09	10.775
540.28	10.891
540.48	10.607
540.67	10.543
540.87	10.150
541.06	10.168
541.26	10.203
541.45	10.510
541.65	10.358
541.85	10.447
542.04	10.597
542.24	10.612
542.43	10.887
542.63	11.118
542.82	10.905
543.02	10.850
543.21	10.962
543.41	11.520
543.60	11.365
543.80	11.554
543.99	11.083
544.19	11.286
544.38	11.699
544.58	11.314
544.77	10.921
544.97	11.427
545.16	11.189
545.36	11.391
545.56	11.324
545.75	11.535
545.95	11.282
546.14	11.287
546.34	11.126
546.53	11.390
546.73	10.858
546.92	11.188
547.12	10.956
547.31	11.575
547.51	11.299
547.70	11.451
547.90	11.339
548.09	11.425
548.29	11.352
548.48	11.789
548.68	11.778
548.87	12.114
549.07	11.533
549.26	11.652
549.46	12.171
549.65	11.901
549.84	11.526
550.04	12.000
550.23	11.312
550.43	12.023
550.62	11.713
550.82	11.851
551.01	11.413
551.21	11.889
551.40	11.616
551.60	11.809
551.79	11.417
551.99	12.010
552.18	11.571
552.38	11.719
552.57	11.982
552.77	12.021
552.96	12.186
553.16	12.224
553.35	12.060
553.54	12.610
553.74	11.822
553.93	12.329
554.13	12.343
554.32	12.630
554.52	12.395
554.71	12.477
554.91	12.045
555.10	12.609
555.29	12.233
555.49	12.719
555.68	12.014
555.88	12.826
556.07	11.528
556.27	13.317
556.46	12.502
556.66	12.540
556.85	12.734
557.04	13.073
557.24	12.285
557.43	12.985
557.63	12.990
557.82	13.067
558.02	12.309
558.21	13.595
558.40	12.520
558.60	13.020
558.79	13.232
558.99	13.157
559.18	13.241
559.38	13.255
559.57	13.416
559.76	12.882
559.96	13.677
560.15	13.482
560.35	12.577
560.54	12.883
560.73	11.870
560.93	13.807
561.12	13.065
561.32	13.664
561.51	13.371
561.70	13.694
561.90	12.921
562.09	14.220
562.29	13.277
562.48	13.293
562.67	13.723
562.87	14.552
563.06	13.498
563.26	14.130
563.45	13.879
563.64	14.615
563.84	14.008
564.03	14.888
564.23	13.414
564.42	15.218
564.61	13.903
564.81	14.728
565.00	14.419
565.20	14.733
565.39	14.405
565.58	14.571
565.78	14.259
565.97	14.626
566.16	15.061
566.36	15.442
566.55	14.894
566.74	15.066
566.94	14.476
567.13	14.778
567.33	15.018
567.52	15.149
567.71	15.049
567.91	15.701
568.10	15.242
568.29	15.464
568.49	15.693
568.68	15.467
568.87	15.183
569.07	15.855
569.26	15.583
569.45	15.680
569.65	15.500
569.84	16.170
570.04	15.809
570.23	15.768
570.42	15.055
570.62	15.665
570.81	16.116
571.00	15.617
571.20	15.739
571.39	16.145
571.58	15.833
571.78	15.732
571.97	15.687
572.16	15.702
572.36	15.940
572.55	16.100
572.74	15.866
572.94	15.805
573.13	16.096
573.32	15.865
573.51	15.944
573.71	16.455
573.90	15.946
574.09	16.729
574.29	16.221
574.48	16.567
574.67	15.968
574.87	16.281
575.06	16.102
575.25	16.525
575.45	16.003
575.64	16.396
575.83	16.108
576.03	17.450
576.22	16.098
576.41	16.724
576.60	16.182
576.80	16.281
576.99	16.716
577.18	17.053
577.38	16.739
577.57	16.954
577.76	16.932
577.95	16.999
578.15	16.220
578.34	16.994
578.53	16.099
578.73	16.596
578.92	16.070
579.11	16.897
579.30	17.047
579.50	16.817
579.69	16.647
579.88	17.010
580.08	16.120
580.27	16.767
580.46	16.314
580.65	16.616
580.85	16.774
581.04	17.036
581.23	15.822
581.42	16.475
581.62	16.398
581.81	16.602
582.00	15.986
582.19	15.968
582.39	17.261
582.58	16.438
582.77	16.890
582.96	16.412
583.16	15.820
583.35	17.329
583.54	16.318
583.73	16.632
583.93	16.183
584.12	16.043
584.31	15.616
584.50	16.438
584.70	16.455
584.89	16.904
585.08	16.170
585.27	17.027
585.47	15.813
585.66	16.920
585.85	15.411
586.04	16.428
586.24	16.876
586.43	15.755
586.62	15.930
586.81	16.418
587.00	15.716
587.20	17.062
587.39	15.321
587.58	16.891
587.77	15.796
587.97	16.121
588.16	15.740
588.35	16.781
588.54	15.830
588.73	16.507
588.93	16.817
589.12	16.516
589.31	16.270
589.50	15.321
589.69	17.043
589.89	16.151
590.08	15.670
590.27	16.369
590.46	15.961
590.65	15.647
590.85	15.686
591.04	17.067
591.23	15.748
591.42	16.374
591.61	16.334
591.81	16.540
592.00	16.261
592.19	16.603
592.38	16.439
592.57	16.288
592.77	15.942
592.96	16.374
593.15	16.968
593.34	16.130
593.53	15.893
593.72	15.801
593.92	15.228
594.11	16.962
594.30	16.130
594.49	17.155
594.68	16.190
594.87	16.295
595.07	15.869
595.26	16.623
595.45	15.999
595.64	17.193
595.83	15.078
596.02	16.619
596.22	16.771
596.41	16.578
596.60	16.251
596.79	16.715
596.98	16.513
597.17	16.846
597.37	16.777
597.56	16.712
597.75	16.471
597.94	16.709
598.13	17.047
598.32	16.987
598.51	16.780
598.71	17.340
598.90	17.302
599.09	17.720
599.28	17.185
599.47	17.308
599.66	16.673
599.85	17.419
600.05	16.759
600.24	17.811
600.43	16.914
600.62	16.718
600.81	16.930
601.00	17.714
601.19	15.854
601.38	17.346
601.58	16.982
601.77	16.777
601.96	16.502
602.15	18.008
602.34	17.211
602.53	18.472
602.72	16.924
602.91	17.118
603.10	16.198
603.30	17.590
603.49	16.697
603.68	17.749
603.87	16.574
604.06	17.516
604.25	16.848
604.44	17.514
604.63	16.878
604.82	17.428
605.01	17.477
605.21	17.714
605.40	16.892
605.59	17.664
605.78	17.750
605.97	17.461
606.16	17.316
606.35	17.443
606.54	17.427
606.73	18.510
606.92	17.801
607.11	18.444
607.30	17.659
607.50	17.686
607.69	17.393
607.88	17.801
608.07	16.945
608.26	17.588
608.45	17.491
608.64	17.750
608.83	16.251
609.02	16.831
609.21	17.087
609.40	17.984
609.59	16.713
609.78	17.121
609.97	16.686
610.16	17.430
610.35	17.146
610.55	17.598
610.74	17.158
610.93	17.411
611.12	17.208
611.31	17.335
611.50	16.889
611.69	17.071
611.88	16.726
612.07	18.389
612.26	16.160
612.45	16.610
612.64	16.394
612.83	17.889
613.02	15.959
613.21	15.962
613.40	16.465
613.59	17.332
613.78	16.573
613.97	16.471
614.16	15.778
614.35	17.105
614.54	15.222
614.73	15.934
614.92	15.992
615.11	16.372
615.30	15.516
615.49	15.390
615.68	15.116
615.87	15.958
616.07	15.448
616.26	14.886
616.45	16.214
616.64	15.607
616.83	15.548
617.02	16.514
617.21	13.818
617.40	15.950
617.59	15.691
617.78	16.345
617.97	14.987
618.16	15.333
618.35	13.598
618.54	15.179
618.73	15.217
618.92	14.790
619.11	13.894
619.30	15.871
619.49	13.039
619.68	15.855
619.86	14.717
620.05	15.320
620.24	14.665
620.43	14.916
620.62	13.092
620.81	14.497
621.00	15.269
621.19	15.739
621.38	15.836
621.57	15.163
621.76	14.995
621.95	15.541
622.14	15.234
622.33	14.885
622.52	14.094
622.71	14.501
622.90	14.586
623.09	15.286
623.28	14.976
623.47	15.875
623.66	14.816
623.85	14.311
624.04	13.591
624.23	14.324
624.42	13.915
624.61	14.045
624.80	13.325
624.99	14.373
625.18	13.399
625.36	15.094
625.55	14.938
625.74	13.096
625.93	13.095
626.12	14.812
626.31	15.262
626.50	15.033
626.69	14.478
626.88	15.808
627.07	14.885
627.26	14.549
627.45	14.305
627.64	14.119
627.83	14.249
628.02	14.814
628.20	14.880
628.39	14.566
628.58	14.330
628.77	14.869
628.96	14.029
629.15	14.470
629.34	14.258
629.53	14.060
629.72	13.266
629.91	15.492
630.10	14.268
630.29	15.025
630.47	13.707
630.66	14.832
630.85	14.076
631.04	14.290
631.23	13.933
631.42	14.385
631.61	14.236
631.80	14.589
631.99	13.447
632.18	13.686
632.36	12.575
632.55	15.985
632.74	13.343
632.93	13.165
633.12	13.488
633.31	14.320
633.50	13.235
633.69	13.912
633.88	12.619
634.06	14.030
634.25	13.400
634.44	14.427
634.63	13.283
634.82	15.158
635.01	13.381
635.20	14.317
635.39	13.192
635.57	14.197
635.76	13.657
635.95	13.764
636.14	12.529
636.33	14.155
636.52	13.968
636.71	13.617
636.89	12.851
637.08	13.357
637.27	12.269
637.46	12.676
637.65	13.695
637.84	14.138
638.03	12.456
638.21	15.030
638.40	13.321
638.59	13.063
638.78	12.948
638.97	13.897
639.16	13.706
639.34	13.645
639.53	11.627
639.72	15.086
639.91	12.665
640.10	11.944
640.29	14.274
640.47	14.585
640.66	12.961
640.85	15.135
641.04	11.293
641.23	13.518
641.42	12.930
641.60	13.293
641.79	12.385
641.98	13.249
642.17	12.876
642.36	13.910
642.54	12.004
642.73	13.458
642.92	11.967
643.11	13.170
643.30	12.338
643.49	12.691
643.67	11.444
643.86	12.894
644.05	12.422
644.24	13.418
644.43	13.479
644.61	12.730
644.80	13.606
644.99	13.209
645.18	14.314
645.37	13.376
645.55	12.531
645.74	13.725
645.93	13.840
646.12	14.141
646.31	13.695
646.49	12.961
646.68	13.997
646.87	13.294
647.06	12.932
647.24	12.650
647.43	12.355
647.62	14.187
647.81	11.726
648.00	14.256
648.18	10.624
648.37	13.109
648.56	12.697
648.75	11.927
648.93	12.799
649.12	13.853
649.31	12.237
649.50	13.071
649.68	12.519
649.87	13.168
650.06	11.215
650.25	13.931
650.43	11.505
650.62	12.267
650.81	11.833
651.00	13.174
651.18	12.115
651.37	13.571
651.56	12.183
651.75	14.043
651.93	11.959
652.12	14.138
652.31	12.129
652.50	12.809
652.68	12.841
652.87	14.301
653.06	12.954
653.25	13.809
653.43	11.880
653.62	12.933
653.81	11.858
654.00	13.507
654.18	12.467
654.37	13.398
654.56	11.243
654.74	11.469
654.93	12.362
655.12	12.310
655.31	12.977
655.49	13.148
655.68	11.123
655.87	11.160
656.05	10.564
656.24	12.440
656.43	10.760
656.62	12.102
656.80	11.372
656.99	11.565
657.18	9.938
657.36	12.047
657.55	12.584
657.74	12.085
657.93	12.483
658.11	13.662
658.30	12.697
658.49	11.164
658.67	10.600
658.86	11.023
659.05	10.196
659.23	12.486
659.42	11.437
659.61	11.754
659.79	10.537
659.98	11.109
660.17	11.905
660.35	11.754
660.54	12.574
660.73	13.105
660.91	11.527
661.10	12.137
661.29	10.218
661.47	11.610
661.66	11.793
661.85	12.070
662.03	11.664
662.22	9.571
662.41	9.094
662.59	10.456
662.78	9.832
662.97	11.423
663.15	9.341
663.34	10.145
663.53	9.837
663.71	10.481
663.90	9.626
664.09	10.752
664.27	10.925
664.46	10.276
664.65	9.303
664.83	9.397
665.02	9.912
665.21	9.188
665.39	8.051
665.58	11.421
665.77	10.068
665.95	10.741
666.14	9.612
666.32	9.988
666.51	9.069
666.70	9.911
666.88	9.466
667.07	8.678
667.26	8.545
667.44	10.502
667.63	8.859
667.81	9.324
668.00	9.109
668.19	11.657
668.37	9.987
668.56	10.659
668.75	8.323
668.93	10.871
669.12	8.764
669.30	10.328
669.49	7.127
669.68	10.522
669.86	11.449
670.05	9.080
670.23	9.254
670.42	9.088
670.61	10.740
670.79	11.832
670.98	10.451
671.16	11.646
671.35	8.888
671.54	10.218
671.72	9.992
671.91	11.043
672.09	9.627
672.28	11.461
672.46	12.306
672.65	11.288
672.84	11.516
673.02	12.045
673.21	9.290
673.39	10.098
673.58	12.300
673.77	11.309
673.95	9.820
674.14	11.442
674.32	10.324
674.51	12.793
674.69	10.857
674.88	11.861
675.07	10.563
675.25	14.077
675.44	11.571
675.62	11.343
675.81	10.355
675.99	16.715
676.18	13.449
676.36	10.637
676.55	11.137
676.74	13.557
676.92	13.044
677.11	12.165
677.29	11.712
677.48	13.101
677.66	11.644
677.85	11.784
678.03	12.015
678.22	13.136
678.40	12.535
678.59	12.252
678.78	10.710
678.96	11.585
679.15	11.909
679.33	14.409
679.52	14.027
679.70	12.646
679.89	12.081
680.07	13.066
680.26	10.131
680.44	12.098
680.63	12.883
680.81	13.146
681.00	10.298
681.18	12.517
681.37	12.374
681.55	14.233
681.74	13.384
681.92	14.142
682.11	13.864
682.29	12.505
682.48	12.576
682.66	13.786
682.85	13.114
683.03	13.541
683.22	14.990
683.40	15.683
683.59	13.797
683.77	14.736
683.96	12.077
684.14	15.249
684.33	12.435
684.51	17.363
684.70	15.715
684.88	16.110
685.07	14.291
685.25	15.378
685.44	13.281
685.62	15.706
685.81	12.669
685.99	16.965
686.18	13.277
686.36	16.951
686.55	12.257
686.73	13.696
686.92	16.038
687.10	15.959
687.29	17.637
687.47	15.962
687.65	17.077
687.84	14.703
688.02	17.744
688.21	19.306
688.39	15.955
688.58	18.761
688.76	16.663
688.95	16.264
689.13	15.019
689.32	18.821
689.50	18.777
689.68	17.641
689.87	16.839
690.05	18.588
690.24	18.704
690.42	19.873
690.61	18.900
690.79	19.674
690.98	18.728
691.16	18.727
691.34	17.600
691.53	18.888
691.71	17.388
691.90	20.098
692.08	16.296
692.27	21.833
692.45	21.375
692.63	19.287
692.82	21.092
693.00	19.201
693.19	18.861
693.37	22.911
693.56	19.667
693.74	23.094
693.92	20.527
694.11	21.365
694.29	21.980
694.48	23.615
694.66	21.909
694.84	23.608
695.03	20.203
695.21	24.061
695.40	25.015
695.58	26.375
695.76	23.292
695.95	24.915
696.13	22.529
696.32	24.920
696.50	29.122
696.68	25.343
696.87	22.981
697.05	26.373
697.24	25.192
697.42	27.254
697.60	26.003
697.79	25.876
697.97	26.387
698.16	27.898
698.34	24.306
698.52	27.572
698.71	25.248
698.89	27.048
699.07	26.582
699.26	27.625
699.44	27.864
699.63	28.699
699.81	26.248
699.99	29.788
700.18	29.698
700.36	27.972
700.54	29.341
700.73	28.597
700.91	28.585
701.09	30.386
701.28	30.605
701.46	29.725
701.64	28.715
701.83	29.850
702.01	27.986
702.20	32.461
702.38	31.703
702.56	29.870
702.75	29.957
702.93	29.916
703.11	29.785
703.30	30.814
703.48	32.669
703.66	31.058
703.85	32.071
704.03	35.385
704.21	30.644
704.40	34.079
704.58	29.773
704.76	34.065
704.95	29.854
705.13	33.294
705.31	31.933
705.50	34.152
705.68	30.636
705.86	32.769
706.04	31.923
706.23	34.663
706.41	33.665
706.59	34.559
706.78	32.853
706.96	34.088
707.14	34.029
707.33	33.073
707.51	31.114
707.69	32.645
707.88	32.168
708.06	36.000
708.24	32.935
708.42	34.862
708.61	32.950
708.79	34.557
708.97	34.200
709.16	34.368
709.34	36.140
709.52	35.609
709.71	33.928
709.89	36.370
710.07	32.659
710.25	35.913
710.44	34.442
710.62	34.439
710.80	34.572
710.98	34.955
711.17	34.564
711.35	35.618
711.53	33.008
711.72	35.362
711.90	36.803
712.08	35.539
712.26	32.051
712.45	35.546
712.63	35.719
712.81	36.964
712.99	35.019
713.18	37.432
713.36	35.378
713.54	36.197
713.72	33.344
713.91	34.510
714.09	33.467
714.27	35.603
714.45	35.928
714.64	38.141
714.82	35.134
715.00	35.248
715.18	35.159
715.37	38.436
715.55	35.044
715.73	37.013
715.91	37.162
716.10	37.550
716.28	33.758
716.46	37.563
716.64	35.474
716.83	37.021
717.01	34.562
717.19	37.614
717.37	35.688
717.55	37.946
717.74	35.079
717.92	37.282
718.10	32.492
718.28	36.122
718.47	33.975
718.65	39.410
718.83	36.535
719.01	38.087
719.19	35.251
719.38	35.941
719.56	37.438
719.74	36.646
719.92	32.214
720.10	34.182
720.29	36.874
720.47	41.210
720.65	36.261
720.83	41.115
721.01	33.202
721.20	34.794
721.38	34.855
721.56	35.919
721.74	36.561
721.92	36.451
722.11	35.325
722.29	35.708
722.47	34.697
722.65	37.466
722.83	36.885
723.01	35.840
723.20	36.293
723.38	36.922
723.56	33.341
723.74	41.796
723.92	36.201
724.10	39.162
724.29	34.208
724.47	40.791
724.65	37.102
724.83	40.014
725.01	37.287
725.19	42.642
725.38	34.647
725.56	38.470
725.74	38.419
725.92	39.289
726.10	36.818
726.28	39.708
726.46	39.547
726.65	41.670
726.83	38.385
727.01	40.157
727.19	39.552
727.37	41.536
727.55	36.967
727.73	38.981
727.92	40.658
728.10	40.021
728.28	34.652
728.46	40.017
728.64	37.540
728.82	39.963
729.00	38.372
729.19	41.606
729.37	39.651
729.55	43.172
729.73	36.201
729.91	42.933
730.09	40.455
730.27	40.535
730.45	38.350
730.63	39.815
730.82	38.072
731.00	40.286
731.18	38.286
731.36	39.984
731.54	37.430
731.72	41.889
731.90	36.729
732.08	41.763
732.26	36.910
732.45	44.306
732.63	38.258
732.81	40.859
732.99	38.743
733.17	41.400
733.35	38.509
733.53	42.860
733.71	39.573
733.89	43.021
734.07	39.364
734.25	43.185
734.44	41.369
734.62	43.522
734.80	39.032
734.98	43.684
735.16	41.351
735.34	42.603
735.52	42.063
735.70	42.340
735.88	39.371
736.06	42.323
736.24	45.363
736.42	45.480
736.60	41.776
736.78	43.331
736.97	38.315
737.15	44.423
737.33	37.644
737.51	44.879
737.69	42.710
737.87	44.455
738.05	43.087
738.23	42.256
738.41	42.497
738.59	44.739
738.77	40.318
738.95	46.754
739.13	43.229
739.31	43.592
739.49	42.912
739.67	47.854
739.85	41.217
740.03	46.334
740.21	45.332
740.39	46.754
740.57	42.504
740.75	44.338
740.93	43.487
741.11	45.726
741.30	44.015
741.48	44.671
741.66	44.594
741.84	42.964
742.02	41.247
742.20	46.799
742.38	41.346
742.56	45.643
742.74	39.444
742.92	42.823
743.10	39.072
743.28	45.683
743.46	43.825
743.64	43.975
743.82	39.472
744.00	45.035
744.18	43.069
744.36	45.266
744.54	43.406
744.72	46.659
744.90	45.188
745.08	45.677
745.26	42.901
745.44	48.887
745.62	42.665
745.80	44.438
745.98	44.482
746.16	49.671
746.34	42.372
746.52	47.999
746.70	40.474
746.87	43.208
747.05	42.566
747.23	47.314
747.41	44.801
747.59	49.471
747.77	41.816
747.95	44.821
748.13	41.438
748.31	48.520
748.49	43.025
748.67	45.574
748.85	43.305
749.03	48.777
749.21	41.194
749.39	48.165
749.57	40.818
749.75	40.924
749.93	43.784
750.11	45.006
750.29	47.339
750.47	44.846
750.65	43.315
750.83	46.220
751.01	37.287
751.18	46.469
751.36	38.536
751.54	43.836
751.72	44.354
751.90	43.056
752.08	40.603
752.26	41.032
752.44	43.659
752.62	42.989
752.80	43.359
752.98	45.195
753.16	43.451
753.34	44.406
753.52	46.086
753.69	46.419
753.87	44.557
754.05	46.618
754.23	39.196
754.41	45.336
754.59	40.825
754.77	45.303
754.95	42.662
755.13	46.750
755.31	45.611
755.49	44.458
755.66	43.561
755.84	44.370
756.02	39.938
756.20	46.769
756.38	42.360
756.56	43.186
756.74	39.351
756.92	43.382
757.10	42.087
757.28	45.503
757.45	50.081
757.63	45.917
757.81	39.981
757.99	48.835
758.17	43.043
758.35	49.572
758.53	47.885
758.71	47.907
758.88	42.216
759.06	44.649
759.24	39.166
759.42	44.677
759.60	40.656
759.78	43.752
759.96	38.341
760.13	42.411
760.31	38.175
760.49	39.039
760.67	37.209
760.85	39.497
761.03	34.563
761.21	37.511
761.38	36.254
761.56	38.844
761.74	37.418
761.92	43.211
762.10	35.010
762.28	41.887
762.46	33.343
762.63	35.276
762.81	36.029
762.99	35.770
763.17	37.773
763.35	38.378
763.53	34.755
763.70	39.671
763.88	42.750
764.06	40.549
764.24	37.579
764.42	41.349
764.60	39.324
764.77	40.214
764.95	39.306
765.13	38.750
765.31	39.160
765.49	42.217
765.66	39.367
765.84	38.963
766.02	40.071
766.20	39.873
766.38	38.139
766.56	44.072
766.73	40.656
766.91	39.551
767.09	41.135
767.27	45.286
767.45	38.267
767.62	41.133
767.80	35.995
767.98	44.119
768.16	38.175
768.33	45.086
768.51	39.364
768.69	43.730
768.87	43.377
769.05	40.942
769.22	38.134
769.40	45.451
769.58	40.422
769.76	48.007
769.94	43.348
770.11	41.750
770.29	42.229
770.47	43.577
770.65	45.530
770.82	46.175
771.00	43.880
771.18	47.045
771.36	40.787
771.53	44.572
771.71	42.177
771.89	46.860
772.07	42.496
772.25	45.649
772.42	44.246
772.60	47.540
772.78	41.875
772.96	45.828
773.13	47.316
773.31	47.270
773.49	39.191
773.67	42.881
773.84	45.060
774.02	45.174
774.20	41.185
774.37	46.417
774.55	45.406
774.73	49.081
774.91	42.085
775.08	44.543
775.26	43.189
775.44	44.923
775.62	43.314
775.79	43.148
775.97	44.280
776.15	42.595
776.32	38.656
776.50	48.999
776.68	47.664
776.86	51.115
777.03	38.811
777.21	46.030
777.39	40.559
777.56	46.631
777.74	44.189
777.92	49.513
778.10	40.748
778.27	43.470
778.45	43.273
778.63	50.578
778.80	41.667
778.98	47.870
779.16	52.944
779.34	44.303
779.51	43.830
779.69	46.615
779.87	43.725
780.04	44.231
780.22	40.862
780.40	45.372
780.57	46.667
780.75	42.201
780.93	47.705
781.10	44.179
781.28	54.911
781.46	42.085
781.63	45.180
781.81	51.478
781.99	39.890
782.16	45.563
782.34	36.923
782.52	43.741
782.69	49.554
782.87	49.271
783.05	40.907
783.22	47.637
783.40	41.716
783.58	48.177
783.75	40.279
783.93	52.103
784.11	45.858
784.28	50.890
784.46	37.031
784.64	47.626
784.81	43.014
784.99	52.121
785.17	45.974
785.34	43.082
785.52	45.717
785.69	47.016
785.87	39.782
786.05	45.309
786.22	51.865
786.40	53.781
786.58	47.627
786.75	48.843
786.93	44.419
787.11	46.251
787.28	43.459
787.46	49.392
787.63	46.468
787.81	44.824
787.99	44.833
788.16	42.350
788.34	38.100
788.51	40.726
788.69	42.698
788.87	39.422
789.04	44.964
789.22	43.744
789.39	40.909
789.57	43.173
789.75	39.563
789.92	46.500
790.10	40.074
790.27	43.363
790.45	36.544
790.63	40.892
790.80	41.150
790.98	44.216
791.15	40.052
791.33	43.753
791.51	37.661
791.68	43.975
791.86	42.439
792.03	45.234
792.21	39.443
792.39	44.603
792.56	41.085
792.74	49.102
792.91	43.764
793.09	44.352
793.26	39.074
793.44	46.792
793.62	38.975
793.79	48.707
793.97	47.649
794.14	42.794
794.32	47.155
794.49	49.578
794.67	36.483
794.84	39.408
795.02	45.816
795.20	45.354
795.37	47.297
795.55	42.310
795.72	45.482
795.90	42.708
796.07	44.367
796.25	43.790
796.42	41.699
796.60	42.051
796.77	41.953
796.95	40.527
797.13	30.674
797.30	46.187
797.48	40.157
797.65	47.006
797.83	40.660
798.00	44.252
798.18	37.547
798.35	42.085
798.53	43.877
798.70	45.615
798.88	45.036
799.05	41.044
799.23	40.833
799.40	46.671
799.58	44.688
799.75	42.501
799.93	42.703
800.10	43.551
800.28	44.924
800.45	45.659
800.63	44.544
800.80	48.442
800.98	40.557
801.15	42.303
801.33	43.660
801.50	43.166
801.68	41.005
801.85	45.855
802.03	39.323
802.20	41.033
802.38	44.174
802.55	37.337
802.73	48.727
802.90	42.734
803.08	41.420
803.25	48.581
803.43	45.026
803.60	46.768
803.78	50.208
803.95	44.521
804.13	50.665
804.30	43.608
804.48	45.455
804.65	48.858
804.83	40.423
805.00	45.053
805.17	54.867
805.35	41.021
805.52	36.418
805.70	48.227
805.87	47.694
806.05	43.131
806.22	42.105
806.40	42.884
806.57	47.700
806.75	46.256
806.92	47.414
807.09	47.287
807.27	46.766
807.44	48.898
807.62	45.021
807.79	47.929
807.97	44.839
808.14	47.401
808.31	45.258
808.49	47.859
808.66	39.896
808.84	41.271
809.01	44.014
809.19	49.055
809.36	52.194
809.53	46.143
809.71	40.314
809.88	53.968
810.06	51.103
810.23	44.313
810.41	46.774
810.58	52.529
810.75	42.015
810.93	43.080
811.10	47.755
811.28	48.789
811.45	44.079
811.62	46.991
811.80	38.622
811.97	46.260
812.15	56.196
812.32	39.690
812.49	52.395
812.67	46.366
812.84	41.836
813.02	45.462
813.19	44.487
813.36	51.307
813.54	43.336
813.71	43.331
813.89	49.878
814.06	52.992
814.23	50.440
814.41	51.466
814.58	50.701
814.75	47.215
814.93	50.329
815.10	44.130
815.28	46.784
815.45	43.137
815.62	49.800
815.80	41.590
815.97	50.767
816.14	49.730
816.32	45.269
816.49	46.411
816.66	46.078
816.84	38.910
817.01	54.362
817.18	48.413
817.36	42.219
817.53	55.341
817.71	37.912
817.88	47.018
818.05	46.687
818.23	41.250
818.40	42.624
818.57	47.118
818.75	43.941
818.92	38.906
819.09	42.857
819.27	48.443
819.44	46.624
819.61	38.409
819.79	42.582
819.96	49.336
820.13	40.992
820.31	41.359
820.48	40.627
820.65	39.967
820.82	40.120
821.00	43.708
821.17	34.627
821.34	37.588
821.52	36.622
821.69	38.785
821.86	36.071
822.04	36.005
822.21	37.434
822.38	39.601
822.56	36.082
822.73	41.469
822.90	38.781
823.07	41.992
823.25	41.331
823.42	40.354
823.59	37.851
823.77	38.668
823.94	37.099
824.11	39.430
824.29	35.833
824.46	39.842
824.63	40.178
824.80	38.685
824.98	40.031
825.15	39.934
825.32	35.655
825.49	40.499
825.67	37.356
825.84	40.368
826.01	37.315
826.19	40.750
826.36	35.200
826.53	44.825
826.70	33.185
826.88	43.065
827.05	33.796
827.22	36.723
827.39	37.133
827.57	37.084
827.74	35.170
827.91	39.656
828.08	37.099
828.26	38.987
828.43	35.058
828.60	40.878
828.77	37.689
828.95	37.328
829.12	30.246
829.29	33.351
829.46	36.224
829.64	36.383
829.81	34.781
829.98	38.085
830.15	39.023
830.32	38.562
830.50	35.794
830.67	43.078
830.84	42.483
831.01	33.803
831.19	38.737
831.36	36.929
831.53	42.607
831.70	48.201
831.87	45.866
832.05	43.710
832.22	53.254
832.39	39.278
832.56	41.873
832.74	39.671
832.91	39.798
833.08	44.343
833.25	38.045
833.42	43.964
833.60	40.342
833.77	35.051
833.94	35.370
834.11	35.371
834.28	28.735
834.45	38.784
834.63	35.575
834.80	35.988
834.97	34.313
835.14	35.145
835.31	33.660
835.49	32.094
835.66	36.249
835.83	32.682
836.00	33.675
836.17	35.755
836.34	34.310
836.52	35.458
836.69	41.712
836.86	38.229
837.03	38.539
837.20	39.316
837.37	42.732
837.55	40.081
837.72	42.451
837.89	41.866
838.06	47.854
838.23	48.966
838.40	51.429
838.58	44.753
838.75	51.364
838.92	62.580
839.09	59.064
839.26	52.936
839.43	57.986
839.60	60.163
839.78	63.788
839.95	58.649
840.12	54.594
840.29	57.343
840.46	55.104
840.63	53.491
840.80	59.010
840.98	59.005
841.15	50.615
841.32	50.962
841.49	40.415
841.66	57.576
841.83	51.133
842.00	49.737
842.17	53.486
842.34	55.010
842.52	57.724
842.69	61.830
842.86	68.942
843.03	70.696
843.20	60.046
843.37	64.545
843.54	69.251
843.71	61.159
843.88	76.752
844.06	80.794
844.23	78.402
844.40	72.287
844.57	68.362
844.74	73.525
844.91	88.809
845.08	78.939
845.25	89.675
845.42	77.110
845.59	85.309
845.76	91.501
845.94	100.000
846.11	93.790
846.28	85.714
846.45	109.125
846.62	96.416
846.79	74.503
846.96	90.613
847.13	110.563
847.30	87.080
847.47	71.095
847.64	92.439
847.81	91.509
847.98	104.314
848.15	87.044
848.32	105.210
848.50	101.701
848.67	79.091
848.84	101.518
849.01	114.350
849.18	114.751
849.35	113.508
849.52	113.142
849.69	97.442
849.86	107.101
850.03	90.649
850.20	101.815
850.37	83.061
850.54	121.851
850.71	107.460
850.88	96.781
851.05	108.571
851.22	92.562
851.39	104.478
851.56	97.266
851.73	112.835
851.90	93.028
852.07	89.722
852.24	101.923
852.41	115.207
852.58	133.679
852.75	106.342
852.92	112.958
853.09	113.717
853.26	109.565
853.43	95.620
853.60	97.830
853.77	123.932
853.94	97.168
854.11	123.974
854.28	115.170
854.45	108.072
854.62	107.743
854.79	129.216
854.96	107.783
855.13	103.233
855.30	122.716
855.47	129.032
855.64	101.263
855.81	108.913
855.98	103.132
856.15	122.398
856.32	117.403
856.49	117.867
856.66	112.551
856.83	93.162
857.00	112.500
857.17	104.850
857.34	102.309
857.51	88.684
857.68	108.808
857.85	103.219
858.02	110.573
858.19	87.110
858.36	103.425
858.53	126.241
858.70	99.099
858.87	112.688
859.04	85.294
859.21	117.574
859.38	97.065
859.55	131.591
859.72	125.895
859.89	122.715
860.05	119.785
860.22	130.989
860.39	97.308
860.56	160.054
860.73	119.635
860.90	99.787
861.07	118.313
861.24	93.750
861.41	103.586
861.58	122.494
861.75	107.592
861.92	97.534
862.09	104.464
862.26	123.714
862.43	112.269
862.59	120.274
862.76	126.546
862.93	118.085
863.10	114.173
863.27	101.522
863.44	125.301
863.61	108.482
863.78	104.555
863.95	168.868
864.12	109.454
864.29	125.000
864.45	115.423
864.62	110.145
864.79	85.000
864.96	128.883
865.13	95.525
865.30	93.379
865.47	103.416
865.64	129.268
865.81	115.949
865.97	109.957
866.14	95.634
866.31	98.701
866.48	90.303
866.65	104.376
866.82	117.079
866.99	151.841
867.16	110.539
867.33	102.878
867.49	125.352
867.66	114.706
867.83	133.876
868.00	105.208
868.17	93.182
868.34	120.561
868.51	82.630
868.67	128.453
868.84	115.385
869.01	121.337
869.18	98.413
869.35	128.779
869.52	114.894
869.69	126.733
869.85	101.570
870.02	119.656
870.19	123.664
870.36	110.025
870.53	103.604
870.70	130.166
870.86	90.026
871.03	117.176
871.20	128.165
871.37	116.216
871.54	137.249
871.71	109.920
871.87	135.714
872.04	105.761
872.21	114.189
872.38	110.945
872.55	134.715
872.72	103.855
872.88	122.404
873.05	96.674
873.22	104.623
873.39	114.320
873.56	109.949
873.72	116.408
873.89	86.710
874.06	112.894
874.23	102.975
874.40	116.986
874.56	101.649
874.73	115.062
874.90	102.746
875.07	102.892
875.24	93.317
875.40	120.413
875.57	125.281
875.74	120.750
875.91	91.759
876.08	96.339
876.24	152.853
876.41	96.234
876.58	131.231
876.75	104.810
876.92	95.736
877.08	123.697
877.25	98.105
877.42	90.177
877.59	89.441
877.75	112.500
877.92	77.778
878.09	112.088
878.26	103.086
878.42	136.860
878.59	108.200
878.76	101.818
878.93	120.339
879.09	115.708
879.26	85.357
879.43	141.363
879.60	81.605
879.76	80.968
879.93	89.214
880.10	88.510
880.27	86.275
880.43	94.295
880.60	75.130
880.77	63.653
880.94	71.914
881.10	55.904
881.27	58.252
881.44	44.991
881.61	49.046
881.77	46.788
881.94	34.467
882.11	31.693
882.28	31.087
882.44	35.864
882.61	32.943
882.78	38.433
882.94	39.044
883.11	37.412
883.28	39.251
883.45	40.490
883.61	33.358
883.78	34.530
883.95	38.169
884.11	36.040
884.28	33.939
>>>>>End Processed Spectral Data<<<<<
