SpectraSuite Data File
++++++++++++++++++++++++++++++++++++
Date: Wed Sep 18 04:04:59 EST 2019
User: sgrac
Dark Spectrum Present: Yes
Reference Spectrum Present: Yes
Number of Sampled Component Spectra: 1
Spectrometers: USB4E01596
Integration Time (usec): 100000 (USB4E01596)
Spectra Averaged: 3 (USB4E01596)
Boxcar Smoothing: 0 (USB4E01596)
Correct for Electrical Dark: No (USB4E01596)
Strobe/Lamp Enabled: Yes (USB4E01596)
Correct for Detector Non-linearity: No (USB4E01596)
Correct for Stray Light: No (USB4E01596)
Number of Pixels in Processed Spectrum: 3648
>>>>>Begin Processed Spectral Data<<<<<
178.44	-127.419
178.66	-127.419
178.87	-127.419
179.09	-274.000
179.30	285.870
179.52	765.789
179.74	-777.778
179.95	-1280.000
180.17	630.233
180.38	-843.333
180.60	398.571
180.82	1887.500
181.03	544.186
181.25	-2207.143
181.46	-517.500
181.68	-448.837
181.89	553.061
182.11	560.000
182.33	637.255
182.54	501.754
182.76	1043.478
182.97	1714.286
183.19	333.696
183.40	334.091
183.62	548.077
183.84	256.452
184.05	833.333
184.27	416.393
184.48	2925.000
184.70	758.333
184.91	630.435
185.13	-703.125
185.34	-346.667
185.56	-648.485
185.78	1400.000
185.99	439.344
186.21	643.902
186.42	-2360.000
186.64	281.818
186.85	1950.000
187.07	340.476
187.28	578.571
187.50	-964.706
187.72	532.000
187.93	448.193
188.15	452.941
188.36	-1564.706
188.58	275.325
188.79	-12350.000
189.01	148.980
189.22	377.922
189.44	1037.500
189.65	366.292
189.87	409.211
190.09	298.936
190.30	1006.667
190.52	1775.000
190.73	342.169
190.95	1200.000
191.16	314.925
191.38	-24000.000
191.59	526.087
191.81	435.714
192.02	-707.692
192.24	395.161
192.45	354.444
192.67	422.727
192.88	379.688
193.10	622.727
193.31	439.286
193.53	477.419
193.74	642.424
193.96	469.492
194.18	-1017.391
194.39	576.471
194.61	1158.621
194.82	1057.692
195.04	468.889
195.25	473.770
195.47	-5400.000
195.68	339.437
195.90	238.462
196.11	483.333
196.33	1982.353
196.54	746.512
196.76	-1016.000
196.97	227.000
197.19	1080.000
197.40	253.383
197.62	-493.939
197.83	415.385
198.05	221.477
198.26	-940.000
198.48	705.556
198.69	297.248
198.91	439.130
199.12	-1625.000
199.34	1056.000
199.55	20200.000
199.77	338.158
199.98	4733.333
200.20	891.176
200.41	342.254
200.63	429.630
200.84	1438.095
201.06	696.774
201.27	327.160
201.49	457.812
201.70	524.590
201.91	529.545
202.13	1520.000
202.34	-720.000
202.56	491.667
202.77	-189.535
202.99	387.805
203.20	685.106
203.42	445.714
203.63	244.954
203.85	-896.552
204.06	831.818
204.28	1293.333
204.49	651.163
204.71	272.269
204.92	1188.462
205.14	1073.684
205.35	5600.000
205.56	336.620
205.78	337.037
205.99	261.069
206.21	208.081
206.42	600.000
206.64	888.235
206.85	371.111
207.07	660.000
207.28	304.545
207.50	1169.565
207.71	555.814
207.93	522.917
208.14	611.628
208.35	398.305
208.57	366.000
208.78	293.617
209.00	266.667
209.21	208.451
209.43	412.500
209.64	1100.000
209.86	2045.455
210.07	321.519
210.28	253.012
210.50	440.580
210.71	412.121
210.93	525.455
211.14	707.500
211.36	1438.095
211.57	231.667
211.78	976.923
212.00	740.541
212.21	2500.000
212.43	2407.692
212.64	921.875
212.86	257.273
213.07	503.846
213.29	239.796
213.50	441.667
213.71	362.500
213.93	278.652
214.14	590.625
214.36	634.146
214.57	320.238
214.78	5800.000
215.00	334.146
215.21	482.222
215.43	-4820.000
215.64	342.857
215.86	379.412
216.07	356.164
216.28	508.000
216.50	562.000
216.71	1093.333
216.93	-27400.000
217.14	1305.263
217.35	-371.186
217.57	287.500
217.78	727.586
218.00	248.571
218.21	420.588
218.42	-6050.000
218.64	932.143
218.85	342.647
219.07	511.628
219.28	531.250
219.49	-11350.000
219.71	335.821
219.92	607.895
220.14	-24400.000
220.35	341.096
220.56	413.043
220.78	324.390
220.99	-355.556
221.21	262.651
221.42	241.447
221.63	1815.385
221.85	-716.667
222.06	247.475
222.28	-671.429
222.49	384.211
222.70	279.310
222.92	550.000
223.13	169.178
223.34	1975.000
223.56	212.821
223.77	285.185
223.99	263.636
224.20	323.810
224.41	236.364
224.63	201.705
224.84	163.710
225.05	259.836
225.27	630.909
225.48	343.902
225.69	415.625
225.91	356.923
226.12	377.333
226.34	198.039
226.55	233.019
226.76	196.124
226.98	361.538
227.19	187.143
227.40	194.366
227.62	129.744
227.83	105.714
228.04	166.486
228.26	154.730
228.47	75.481
228.69	47.541
228.90	67.575
229.11	60.955
229.33	72.360
229.54	53.861
229.75	45.961
229.97	39.594
230.18	39.696
230.39	35.676
230.61	22.619
230.82	50.857
231.03	31.837
231.25	51.453
231.46	36.910
231.67	46.009
231.89	40.375
232.10	35.702
232.31	63.396
232.53	75.111
232.74	52.209
232.95	53.861
233.17	55.188
233.38	53.901
233.59	71.965
233.81	62.900
234.02	70.317
234.23	72.656
234.45	64.525
234.66	50.495
234.87	65.618
235.09	50.718
235.30	47.739
235.51	59.900
235.73	51.544
235.94	53.361
236.15	53.945
236.36	45.169
236.58	58.712
236.79	45.709
237.00	47.486
237.22	51.197
237.43	53.878
237.64	39.315
237.86	66.260
238.07	59.243
238.28	51.717
238.50	43.763
238.71	55.385
238.92	39.636
239.13	30.769
239.35	52.876
239.56	62.420
239.77	69.531
239.99	31.224
240.20	65.625
240.41	38.493
240.63	42.647
240.84	50.990
241.05	45.778
241.26	36.600
241.48	38.218
241.69	40.323
241.90	21.040
242.12	31.568
242.33	23.823
242.54	24.077
242.75	17.385
242.97	26.958
243.18	18.447
243.39	15.034
243.61	14.252
243.82	18.772
244.03	18.491
244.24	19.365
244.46	15.241
244.67	19.561
244.88	16.137
245.09	20.922
245.31	16.748
245.52	13.737
245.73	21.463
245.95	38.822
246.16	22.678
246.37	21.456
246.58	22.068
246.80	25.667
247.01	22.507
247.22	16.371
247.43	10.791
247.65	15.407
247.86	13.560
248.07	11.018
248.28	11.493
248.50	11.310
248.71	10.090
248.92	9.767
249.13	8.303
249.35	10.228
249.56	9.079
249.77	9.489
249.98	9.901
250.20	13.194
250.41	17.366
250.62	14.849
250.83	16.620
251.05	22.928
251.26	16.938
251.47	16.558
251.68	21.053
251.90	18.376
252.11	20.918
252.32	23.983
252.53	25.690
252.75	10.438
252.96	17.621
253.17	18.773
253.38	13.803
253.59	14.862
253.81	14.113
254.02	15.757
254.23	16.580
254.44	20.771
254.66	16.176
254.87	17.804
255.08	22.022
255.29	20.645
255.50	23.939
255.72	23.867
255.93	22.679
256.14	26.316
256.35	26.619
256.57	30.399
256.78	29.784
256.99	24.910
257.20	27.826
257.41	16.120
257.63	22.469
257.84	21.746
258.05	17.098
258.26	12.203
258.47	21.547
258.69	22.568
258.90	14.127
259.11	15.669
259.32	12.310
259.53	15.717
259.75	8.333
259.96	11.222
260.17	10.506
260.38	7.851
260.59	9.593
260.81	9.804
261.02	9.007
261.23	7.801
261.44	9.502
261.65	7.810
261.87	6.742
262.08	8.598
262.29	11.868
262.50	8.989
262.71	9.528
262.92	7.974
263.14	10.156
263.35	9.367
263.56	12.134
263.77	11.639
263.98	10.580
264.20	11.322
264.41	19.620
264.62	11.830
264.83	11.765
265.04	16.903
265.25	12.269
265.47	16.875
265.68	15.951
265.89	16.100
266.10	13.402
266.31	12.615
266.52	16.647
266.74	16.122
266.95	13.166
267.16	14.431
267.37	13.261
267.58	9.783
267.79	14.945
268.01	13.193
268.22	7.523
268.43	11.438
268.64	12.299
268.85	12.406
269.06	13.433
269.27	10.605
269.49	9.352
269.70	13.418
269.91	12.619
270.12	13.030
270.33	12.719
270.54	12.484
270.75	11.871
270.97	11.813
271.18	11.740
271.39	12.155
271.60	11.786
271.81	10.510
272.02	11.871
272.23	9.098
272.45	7.700
272.66	7.948
272.87	8.601
273.08	8.732
273.29	12.025
273.50	8.182
273.71	8.201
273.92	8.498
274.14	8.824
274.35	10.878
274.56	9.292
274.77	5.863
274.98	9.704
275.19	10.335
275.40	13.074
275.61	7.922
275.83	10.624
276.04	10.846
276.25	12.003
276.46	11.307
276.67	10.395
276.88	12.456
277.09	14.786
277.30	12.400
277.51	7.428
277.73	11.009
277.94	10.613
278.15	13.495
278.36	13.559
278.57	10.866
278.78	12.921
278.99	8.272
279.20	13.814
279.41	13.469
279.62	9.216
279.84	13.496
280.05	9.583
280.26	9.501
280.47	13.235
280.68	9.208
280.89	7.563
281.10	9.915
281.31	11.509
281.52	12.820
281.73	7.756
281.94	6.342
282.16	10.694
282.37	11.374
282.58	10.956
282.79	8.520
283.00	11.479
283.21	9.972
283.42	7.888
283.63	11.585
283.84	10.412
284.05	9.351
284.26	9.418
284.47	9.458
284.68	7.964
284.89	5.820
285.11	8.845
285.32	10.386
285.53	8.519
285.74	10.745
285.95	8.615
286.16	9.808
286.37	5.052
286.58	7.241
286.79	5.435
287.00	5.896
287.21	6.657
287.42	8.167
287.63	7.330
287.84	8.112
288.05	6.405
288.26	7.339
288.48	8.054
288.69	7.003
288.90	9.147
289.11	7.873
289.32	8.575
289.53	10.481
289.74	7.386
289.95	7.961
290.16	6.897
290.37	10.330
290.58	7.547
290.79	5.844
291.00	7.613
291.21	9.000
291.42	7.289
291.63	7.735
291.84	7.713
292.05	5.255
292.26	7.959
292.47	8.459
292.68	4.348
292.89	8.944
293.10	8.023
293.31	9.037
293.52	7.898
293.73	7.003
293.94	9.867
294.15	5.900
294.36	8.410
294.57	9.347
294.79	8.358
295.00	6.607
295.21	8.225
295.42	9.407
295.63	9.856
295.84	5.960
296.05	7.619
296.26	7.714
296.47	8.994
296.68	7.269
296.89	8.869
297.10	8.343
297.31	7.542
297.52	6.682
297.73	6.634
297.94	5.144
298.15	6.304
298.36	6.038
298.57	5.913
298.78	8.017
298.99	5.721
299.20	6.523
299.41	6.673
299.62	5.188
299.83	6.744
300.04	6.583
300.25	6.614
300.46	8.160
300.67	8.469
300.88	7.211
301.09	7.327
301.30	8.848
301.50	7.517
301.71	8.056
301.92	8.213
302.13	6.909
302.34	5.834
302.55	7.367
302.76	7.971
302.97	6.985
303.18	6.652
303.39	9.987
303.60	9.345
303.81	8.108
304.02	5.839
304.23	7.484
304.44	8.085
304.65	7.291
304.86	6.971
305.07	6.546
305.28	7.606
305.49	8.493
305.70	9.783
305.91	7.091
306.12	5.217
306.33	6.492
306.54	9.531
306.75	8.062
306.96	10.267
307.17	6.183
307.38	8.980
307.58	7.540
307.79	8.348
308.00	8.390
308.21	8.348
308.42	6.456
308.63	7.061
308.84	9.897
309.05	9.070
309.26	7.038
309.47	9.717
309.68	7.135
309.89	8.500
310.10	7.419
310.31	6.238
310.52	5.848
310.73	9.256
310.94	5.091
311.14	6.565
311.35	6.644
311.56	8.665
311.77	5.121
311.98	4.284
312.19	5.584
312.40	5.360
312.61	5.067
312.82	6.428
313.03	6.553
313.24	7.459
313.45	7.216
313.66	7.124
313.86	6.943
314.07	6.816
314.28	7.461
314.49	4.529
314.70	6.383
314.91	6.953
315.12	7.788
315.33	10.229
315.54	7.327
315.75	6.819
315.96	5.459
316.16	6.971
316.37	9.059
316.58	8.410
316.79	8.218
317.00	10.451
317.21	8.901
317.42	9.554
317.63	8.031
317.84	8.253
318.05	8.349
318.25	7.576
318.46	9.007
318.67	7.543
318.88	9.340
319.09	7.636
319.30	8.218
319.51	7.202
319.72	6.856
319.93	5.348
320.13	8.779
320.34	8.074
320.55	6.833
320.76	8.887
320.97	10.422
321.18	9.997
321.39	7.831
321.60	6.997
321.80	11.785
322.01	9.962
322.22	10.460
322.43	8.365
322.64	10.662
322.85	8.252
323.06	8.181
323.27	10.863
323.47	10.369
323.68	8.990
323.89	6.623
324.10	8.322
324.31	8.854
324.52	9.308
324.73	7.934
324.93	6.058
325.14	5.384
325.35	8.465
325.56	8.241
325.77	9.573
325.98	6.131
326.19	8.731
326.39	5.941
326.60	8.436
326.81	4.686
327.02	6.108
327.23	8.902
327.44	9.874
327.64	6.585
327.85	6.977
328.06	7.785
328.27	11.395
328.48	9.489
328.69	5.181
328.90	7.540
329.10	6.126
329.31	7.482
329.52	6.936
329.73	9.409
329.94	10.185
330.15	10.471
330.35	9.746
330.56	9.107
330.77	8.802
330.98	8.280
331.19	8.188
331.39	7.874
331.60	8.658
331.81	7.649
332.02	9.002
332.23	10.424
332.44	8.369
332.64	10.020
332.85	8.910
333.06	11.655
333.27	6.881
333.48	7.970
333.68	8.869
333.89	8.321
334.10	7.074
334.31	9.149
334.52	9.097
334.72	9.378
334.93	7.958
335.14	5.847
335.35	8.065
335.56	10.169
335.76	7.155
335.97	9.256
336.18	8.051
336.39	11.067
336.60	8.034
336.80	9.095
337.01	8.141
337.22	7.040
337.43	9.581
337.64	8.459
337.84	8.133
338.05	8.661
338.26	10.178
338.47	11.269
338.68	8.337
338.88	10.928
339.09	8.466
339.30	8.851
339.51	7.988
339.71	9.511
339.92	8.085
340.13	9.903
340.34	8.073
340.55	6.688
340.75	7.769
340.96	7.797
341.17	11.066
341.38	7.431
341.58	9.372
341.79	9.738
342.00	7.375
342.21	8.708
342.41	7.972
342.62	8.549
342.83	6.888
343.04	8.105
343.24	6.758
343.45	9.983
343.66	8.993
343.87	7.398
344.07	8.907
344.28	11.414
344.49	9.050
344.70	11.399
344.90	8.495
345.11	6.006
345.32	8.721
345.53	8.702
345.73	7.581
345.94	9.591
346.15	10.489
346.36	7.637
346.56	7.919
346.77	9.486
346.98	8.837
347.19	8.209
347.39	8.995
347.60	8.034
347.81	10.061
348.02	9.735
348.22	9.151
348.43	8.332
348.64	9.154
348.84	9.572
349.05	7.152
349.26	9.801
349.47	7.336
349.67	8.277
349.88	10.359
350.09	8.584
350.30	11.657
350.50	9.765
350.71	10.312
350.92	8.436
351.12	9.015
351.33	8.250
351.54	6.990
351.74	8.395
351.95	6.649
352.16	9.635
352.37	10.420
352.57	8.792
352.78	9.577
352.99	8.307
353.19	9.900
353.40	10.121
353.61	10.440
353.82	10.204
354.02	10.427
354.23	9.601
354.44	12.365
354.64	9.405
354.85	11.047
355.06	8.750
355.26	7.933
355.47	9.996
355.68	11.616
355.88	10.079
356.09	8.362
356.30	6.663
356.51	9.552
356.71	8.204
356.92	8.006
357.13	9.812
357.33	11.708
357.54	7.299
357.75	6.468
357.95	8.955
358.16	8.305
358.37	11.429
358.57	6.772
358.78	11.142
358.99	10.107
359.19	8.019
359.40	11.062
359.61	8.865
359.81	9.549
360.02	12.172
360.23	8.950
360.43	7.615
360.64	8.572
360.85	8.702
361.05	7.356
361.26	9.919
361.47	7.627
361.67	9.590
361.88	6.572
362.09	9.691
362.29	6.995
362.50	7.212
362.70	5.884
362.91	8.949
363.12	8.299
363.32	7.035
363.53	9.317
363.74	8.859
363.94	6.298
364.15	9.030
364.36	7.642
364.56	7.507
364.77	8.894
364.98	11.229
365.18	8.475
365.39	9.077
365.59	7.244
365.80	8.925
366.01	8.556
366.21	8.270
366.42	7.248
366.63	9.377
366.83	6.535
367.04	6.113
367.24	10.152
367.45	7.484
367.66	7.465
367.86	7.261
368.07	7.519
368.28	8.257
368.48	7.250
368.69	6.539
368.89	7.836
369.10	8.592
369.31	9.170
369.51	9.158
369.72	10.716
369.92	9.694
370.13	6.530
370.34	8.539
370.54	5.645
370.75	8.719
370.95	8.288
371.16	8.846
371.37	6.757
371.57	7.230
371.78	6.216
371.98	8.095
372.19	7.982
372.40	7.810
372.60	8.428
372.81	8.040
373.01	6.366
373.22	6.942
373.43	7.448
373.63	7.877
373.84	7.804
374.04	7.517
374.25	8.261
374.46	7.812
374.66	7.990
374.87	8.800
375.07	5.499
375.28	7.644
375.48	7.667
375.69	9.263
375.90	5.619
376.10	4.861
376.31	6.441
376.51	5.272
376.72	6.803
376.92	5.461
377.13	6.949
377.34	6.550
377.54	6.664
377.75	7.163
377.95	5.654
378.16	6.399
378.36	6.089
378.57	8.085
378.77	5.784
378.98	7.098
379.19	5.868
379.39	6.297
379.60	7.231
379.80	6.006
380.01	7.050
380.21	6.886
380.42	6.906
380.62	6.705
380.83	6.694
381.04	6.478
381.24	6.890
381.45	5.430
381.65	6.922
381.86	6.110
382.06	7.960
382.27	5.975
382.47	5.955
382.68	6.546
382.88	5.106
383.09	4.584
383.29	6.357
383.50	7.844
383.71	6.122
383.91	5.917
384.12	5.566
384.32	6.954
384.53	5.636
384.73	5.167
384.94	6.057
385.14	5.405
385.35	4.384
385.55	5.649
385.76	6.182
385.96	5.339
386.17	6.346
386.37	6.198
386.58	5.289
386.78	6.787
386.99	5.141
387.19	6.667
387.40	4.095
387.60	7.148
387.81	5.764
388.01	5.053
388.22	6.108
388.42	6.206
388.63	6.624
388.83	7.318
389.04	4.575
389.24	6.320
389.45	5.274
389.65	4.403
389.86	5.578
390.06	4.651
390.27	4.715
390.47	6.213
390.68	4.843
390.88	6.200
391.09	5.892
391.29	6.080
391.50	5.438
391.70	5.616
391.91	5.242
392.11	5.453
392.32	5.548
392.52	5.826
392.73	5.386
392.93	4.909
393.14	4.551
393.34	5.056
393.55	6.166
393.75	4.800
393.95	4.790
394.16	5.454
394.36	6.216
394.57	5.617
394.77	4.925
394.98	4.164
395.18	5.517
395.39	4.703
395.59	4.368
395.80	5.701
396.00	5.210
396.21	6.347
396.41	5.190
396.61	4.981
396.82	4.518
397.02	6.899
397.23	5.676
397.43	5.248
397.64	3.842
397.84	6.374
398.05	3.925
398.25	6.214
398.45	4.937
398.66	5.860
398.86	5.520
399.07	6.186
399.27	4.676
399.48	5.157
399.68	4.282
399.89	4.768
400.09	5.989
400.29	4.601
400.50	4.963
400.70	5.872
400.91	5.121
401.11	4.336
401.32	5.794
401.52	4.270
401.72	5.124
401.93	6.579
402.13	5.082
402.34	5.176
402.54	3.167
402.75	5.949
402.95	4.402
403.15	5.560
403.36	5.505
403.56	5.922
403.77	4.123
403.97	4.833
404.17	3.769
404.38	5.108
404.58	4.177
404.79	4.589
404.99	5.464
405.19	4.110
405.40	4.409
405.60	4.713
405.81	4.329
406.01	5.157
406.21	4.417
406.42	3.936
406.62	4.474
406.83	5.073
407.03	5.589
407.23	3.800
407.44	4.626
407.64	4.722
407.85	4.469
408.05	4.104
408.25	4.827
408.46	5.625
408.66	4.878
408.87	4.885
409.07	4.868
409.27	3.030
409.48	5.151
409.68	5.190
409.88	3.912
410.09	5.072
410.29	5.790
410.50	6.311
410.70	3.548
410.90	3.854
411.11	4.372
411.31	4.682
411.51	4.936
411.72	4.681
411.92	4.432
412.12	4.459
412.33	4.045
412.53	3.821
412.74	3.683
412.94	4.164
413.14	4.554
413.35	4.317
413.55	4.798
413.75	5.087
413.96	4.021
414.16	4.625
414.36	5.024
414.57	5.151
414.77	4.478
414.97	5.242
415.18	4.341
415.38	4.412
415.58	4.339
415.79	3.556
415.99	3.227
416.19	4.778
416.40	4.088
416.60	4.223
416.80	3.788
417.01	4.053
417.21	2.909
417.41	5.287
417.62	4.216
417.82	4.220
418.02	3.017
418.23	4.105
418.43	3.807
418.63	4.406
418.84	3.586
419.04	3.269
419.24	4.228
419.45	4.338
419.65	4.775
419.85	4.507
420.06	4.218
420.26	3.991
420.46	3.998
420.67	4.394
420.87	3.945
421.07	5.042
421.28	3.989
421.48	3.978
421.68	4.486
421.88	4.955
422.09	4.478
422.29	3.641
422.49	3.579
422.70	3.878
422.90	3.867
423.10	4.255
423.31	4.099
423.51	4.715
423.71	4.079
423.91	4.321
424.12	4.340
424.32	3.990
424.52	3.810
424.73	3.811
424.93	4.261
425.13	3.929
425.33	3.548
425.54	4.234
425.74	4.164
425.94	4.746
426.15	3.913
426.35	3.683
426.55	4.360
426.75	4.363
426.96	4.179
427.16	3.724
427.36	4.711
427.57	4.619
427.77	4.184
427.97	4.496
428.17	4.463
428.38	4.533
428.58	2.843
428.78	4.746
428.98	3.528
429.19	3.866
429.39	3.106
429.59	4.552
429.79	3.834
430.00	3.055
430.20	3.310
430.40	3.976
430.60	3.777
430.81	3.679
431.01	3.593
431.21	3.790
431.41	3.151
431.62	3.756
431.82	3.531
432.02	4.714
432.22	3.608
432.43	3.514
432.63	3.030
432.83	3.999
433.03	3.572
433.24	3.304
433.44	3.359
433.64	3.627
433.84	3.320
434.05	3.737
434.25	3.007
434.45	4.028
434.65	3.839
434.85	4.398
435.06	3.461
435.26	3.618
435.46	3.726
435.66	4.361
435.87	3.720
436.07	3.855
436.27	3.937
436.47	3.882
436.67	3.509
436.88	3.720
437.08	4.099
437.28	4.020
437.48	3.489
437.69	3.904
437.89	3.627
438.09	4.132
438.29	3.268
438.49	4.268
438.70	3.894
438.90	3.479
439.10	3.455
439.30	3.841
439.50	3.402
439.71	3.844
439.91	3.649
440.11	4.320
440.31	3.810
440.51	2.980
440.72	3.249
440.92	3.718
441.12	3.779
441.32	4.328
441.52	3.664
441.72	4.030
441.93	3.619
442.13	4.114
442.33	3.443
442.53	4.366
442.73	3.448
442.94	3.523
443.14	3.720
443.34	3.957
443.54	4.072
443.74	4.351
443.94	3.870
444.15	3.261
444.35	3.316
444.55	3.773
444.75	3.497
444.95	3.959
445.15	3.930
445.36	3.970
445.56	2.843
445.76	3.679
445.96	3.491
446.16	3.827
446.36	3.051
446.57	4.140
446.77	3.373
446.97	3.685
447.17	4.015
447.37	3.461
447.57	4.032
447.77	3.861
447.98	3.728
448.18	4.250
448.38	3.709
448.58	3.967
448.78	3.907
448.98	3.889
449.18	3.384
449.39	3.583
449.59	3.599
449.79	3.336
449.99	3.738
450.19	4.017
450.39	4.223
450.59	3.914
450.79	3.479
451.00	4.289
451.20	4.589
451.40	3.364
451.60	3.557
451.80	3.962
452.00	3.794
452.20	4.288
452.40	3.900
452.61	3.779
452.81	3.042
453.01	3.946
453.21	3.356
453.41	3.400
453.61	3.718
453.81	3.609
454.01	3.425
454.21	3.806
454.42	4.178
454.62	3.752
454.82	3.371
455.02	3.579
455.22	3.378
455.42	3.464
455.62	3.208
455.82	3.317
456.02	2.922
456.23	3.411
456.43	3.733
456.63	3.286
456.83	2.862
457.03	3.855
457.23	3.547
457.43	3.654
457.63	3.403
457.83	3.780
458.03	3.641
458.23	3.958
458.43	3.131
458.64	3.705
458.84	3.693
459.04	3.283
459.24	3.614
459.44	3.395
459.64	3.611
459.84	3.583
460.04	3.181
460.24	3.320
460.44	3.358
460.64	3.709
460.84	3.107
461.04	4.095
461.24	3.811
461.45	4.173
461.65	3.880
461.85	3.818
462.05	3.547
462.25	3.753
462.45	4.392
462.65	3.673
462.85	3.039
463.05	3.701
463.25	2.863
463.45	3.827
463.65	3.706
463.85	3.333
464.05	3.640
464.25	3.265
464.45	4.072
464.65	3.333
464.85	3.121
465.05	3.455
465.26	3.595
465.46	3.842
465.66	3.766
465.86	3.953
466.06	3.458
466.26	3.845
466.46	2.915
466.66	3.448
466.86	3.619
467.06	3.690
467.26	3.558
467.46	4.116
467.66	3.065
467.86	3.406
468.06	3.213
468.26	2.956
468.46	3.753
468.66	3.854
468.86	3.088
469.06	4.196
469.26	2.738
469.46	3.920
469.66	3.079
469.86	3.731
470.06	2.819
470.26	3.900
470.46	3.210
470.66	3.838
470.86	3.378
471.06	3.392
471.26	2.806
471.46	3.072
471.66	3.230
471.86	3.356
472.06	2.877
472.26	4.080
472.46	4.180
472.66	3.488
472.86	3.255
473.06	3.239
473.26	3.747
473.46	3.190
473.66	3.084
473.86	3.553
474.06	3.096
474.26	3.521
474.46	3.135
474.66	3.824
474.86	3.775
475.06	3.967
475.26	2.462
475.46	3.343
475.66	2.552
475.86	3.398
476.06	4.235
476.26	4.249
476.46	3.215
476.66	3.655
476.86	2.814
477.06	2.935
477.26	2.854
477.46	3.189
477.65	3.335
477.85	3.910
478.05	2.802
478.25	3.817
478.45	2.835
478.65	3.365
478.85	2.839
479.05	3.664
479.25	3.541
479.45	3.658
479.65	2.760
479.85	3.726
480.05	3.440
480.25	3.272
480.45	3.147
480.65	3.946
480.85	3.556
481.05	3.883
481.25	3.881
481.44	3.566
481.64	3.084
481.84	4.110
482.04	3.957
482.24	3.785
482.44	2.849
482.64	3.203
482.84	3.458
483.04	3.773
483.24	3.674
483.44	3.835
483.64	3.813
483.84	3.938
484.04	3.846
484.23	4.037
484.43	3.966
484.63	4.284
484.83	4.076
485.03	4.303
485.23	4.173
485.43	4.350
485.63	4.227
485.83	4.505
486.03	4.371
486.23	4.585
486.42	4.293
486.62	4.462
486.82	3.986
487.02	4.262
487.22	4.007
487.42	4.174
487.62	4.250
487.82	4.064
488.02	3.920
488.22	4.145
488.41	3.930
488.61	4.258
488.81	3.979
489.01	4.186
489.21	4.229
489.41	4.066
489.61	4.112
489.81	4.569
490.01	4.278
490.20	4.390
490.40	4.088
490.60	4.289
490.80	3.840
491.00	4.378
491.20	3.907
491.40	3.965
491.60	3.965
491.79	4.166
491.99	3.856
492.19	3.925
492.39	4.215
492.59	4.106
492.79	4.195
492.99	4.237
493.19	4.109
493.38	4.288
493.58	3.646
493.78	4.236
493.98	4.327
494.18	4.603
494.38	3.917
494.58	4.349
494.77	3.143
494.97	3.752
495.17	3.513
495.37	3.657
495.57	3.809
495.77	3.913
495.96	3.897
496.16	3.395
496.36	3.312
496.56	3.638
496.76	3.176
496.96	3.530
497.15	3.481
497.35	3.832
497.55	3.433
497.75	4.034
497.95	3.362
498.15	3.723
498.34	3.535
498.54	3.552
498.74	4.036
498.94	3.975
499.14	3.325
499.34	4.363
499.53	3.784
499.73	4.091
499.93	3.373
500.13	4.029
500.33	3.253
500.52	3.971
500.72	3.771
500.92	3.536
501.12	3.238
501.32	3.483
501.52	3.869
501.71	3.914
501.91	3.122
502.11	3.673
502.31	3.642
502.51	4.237
502.70	3.506
502.90	3.736
503.10	3.375
503.30	3.710
503.50	3.834
503.69	3.635
503.89	3.642
504.09	3.898
504.29	3.591
504.48	4.244
504.68	4.210
504.88	4.303
505.08	3.377
505.28	3.620
505.47	3.573
505.67	4.342
505.87	3.664
506.07	3.661
506.27	3.933
506.46	3.866
506.66	2.992
506.86	4.038
507.06	4.591
507.25	3.840
507.45	3.975
507.65	4.610
507.85	3.702
508.04	4.184
508.24	4.087
508.44	4.081
508.64	3.702
508.83	4.210
509.03	3.762
509.23	3.909
509.43	3.511
509.63	4.033
509.82	3.946
510.02	3.898
510.22	3.886
510.42	4.627
510.61	4.529
510.81	4.356
511.01	3.873
511.21	4.238
511.40	4.216
511.60	4.319
511.80	4.086
511.99	4.250
512.19	4.230
512.39	4.694
512.59	4.074
512.78	4.337
512.98	4.488
513.18	4.162
513.38	4.104
513.57	4.686
513.77	4.422
513.97	4.381
514.17	3.763
514.36	4.101
514.56	4.064
514.76	4.570
514.95	3.660
515.15	4.074
515.35	4.002
515.55	4.319
515.74	4.135
515.94	4.667
516.14	3.685
516.33	4.458
516.53	3.810
516.73	3.778
516.93	4.214
517.12	4.778
517.32	3.113
517.52	3.977
517.71	4.117
517.91	4.279
518.11	4.278
518.30	4.020
518.50	3.659
518.70	4.355
518.90	4.124
519.09	4.305
519.29	4.284
519.49	4.801
519.68	4.013
519.88	4.420
520.08	4.454
520.27	4.675
520.47	4.421
520.67	4.620
520.86	4.840
521.06	5.111
521.26	4.214
521.45	4.892
521.65	4.393
521.85	4.509
522.04	3.982
522.24	4.539
522.44	4.559
522.63	4.452
522.83	3.926
523.03	4.802
523.22	3.859
523.42	4.982
523.62	4.764
523.81	4.247
524.01	4.726
524.21	4.511
524.40	4.149
524.60	4.463
524.80	3.917
524.99	4.355
525.19	4.692
525.39	4.708
525.58	4.273
525.78	4.854
525.98	4.576
526.17	5.058
526.37	4.467
526.57	4.954
526.76	4.858
526.96	4.669
527.15	4.681
527.35	5.091
527.55	4.495
527.74	5.216
527.94	4.955
528.14	4.805
528.33	4.709
528.53	4.935
528.72	4.824
528.92	5.135
529.12	4.919
529.31	5.189
529.51	5.143
529.71	5.127
529.90	5.149
530.10	5.222
530.29	5.218
530.49	5.325
530.69	5.338
530.88	5.461
531.08	5.272
531.28	5.323
531.47	5.002
531.67	5.471
531.86	5.408
532.06	5.350
532.26	4.956
532.45	5.102
532.65	5.020
532.84	5.300
533.04	4.765
533.24	5.273
533.43	5.002
533.63	5.390
533.82	5.129
534.02	5.243
534.22	4.967
534.41	5.278
534.61	5.384
534.80	5.354
535.00	5.309
535.19	5.323
535.39	5.384
535.59	5.437
535.78	5.271
535.98	5.299
536.17	5.091
536.37	5.110
536.57	5.216
536.76	5.765
536.96	5.396
537.15	5.560
537.35	4.871
537.54	5.399
537.74	5.215
537.93	5.547
538.13	5.056
538.33	5.740
538.52	5.021
538.72	5.612
538.91	5.323
539.11	5.177
539.30	5.087
539.50	5.534
539.70	5.227
539.89	5.564
540.09	5.377
540.28	5.381
540.48	4.721
540.67	5.489
540.87	5.349
541.06	5.677
541.26	5.304
541.45	5.637
541.65	5.631
541.85	5.708
542.04	5.444
542.24	5.984
542.43	5.621
542.63	5.806
542.82	5.677
543.02	6.030
543.21	5.833
543.41	6.055
543.60	6.055
543.80	6.246
543.99	5.606
544.19	6.047
544.38	5.801
544.58	6.115
544.77	6.186
544.97	6.213
545.16	5.684
545.36	6.047
545.56	5.677
545.75	6.239
545.95	5.862
546.14	6.762
546.34	5.440
546.53	6.434
546.73	5.856
546.92	5.949
547.12	5.550
547.31	6.396
547.51	5.824
547.70	6.166
547.90	5.896
548.09	6.473
548.29	6.234
548.48	6.334
548.68	6.174
548.87	6.993
549.07	6.240
549.26	6.189
549.46	6.245
549.65	6.470
549.84	6.364
550.04	6.284
550.23	6.483
550.43	6.186
550.62	6.664
550.82	6.422
551.01	6.179
551.21	6.535
551.40	5.889
551.60	6.453
551.79	5.884
551.99	6.826
552.18	6.251
552.38	7.053
552.57	6.874
552.77	7.442
552.96	7.577
553.16	6.987
553.35	7.050
553.54	7.266
553.74	7.078
553.93	7.609
554.13	7.821
554.32	6.970
554.52	7.282
554.71	7.526
554.91	6.879
555.10	7.688
555.29	6.663
555.49	7.862
555.68	7.066
555.88	8.365
556.07	7.038
556.27	7.607
556.46	7.757
556.66	7.388
556.85	7.527
557.04	8.165
557.24	7.216
557.43	8.163
557.63	7.637
557.82	8.470
558.02	7.838
558.21	8.419
558.40	8.405
558.60	8.658
558.79	8.142
558.99	8.394
559.18	8.048
559.38	8.293
559.57	8.272
559.76	8.987
559.96	8.418
560.15	8.821
560.35	8.484
560.54	8.728
560.73	7.973
560.93	9.729
561.12	8.752
561.32	9.232
561.51	8.921
561.70	9.444
561.90	9.574
562.09	9.120
562.29	8.968
562.48	9.821
562.67	9.041
562.87	10.058
563.06	9.038
563.26	9.921
563.45	9.623
563.64	10.372
563.84	10.202
564.03	10.914
564.23	9.424
564.42	10.901
564.61	10.329
564.81	11.410
565.00	10.536
565.20	10.687
565.39	10.925
565.58	10.392
565.78	9.923
565.97	11.168
566.16	11.210
566.36	11.790
566.55	11.263
566.74	11.194
566.94	10.931
567.13	11.346
567.33	11.045
567.52	11.811
567.71	11.607
567.91	11.719
568.10	11.300
568.29	11.864
568.49	11.786
568.68	12.348
568.87	11.673
569.07	12.086
569.26	11.895
569.45	11.927
569.65	11.479
569.84	11.900
570.04	11.928
570.23	12.476
570.42	11.420
570.62	12.241
570.81	11.980
571.00	12.624
571.20	12.506
571.39	12.668
571.58	12.148
571.78	12.800
571.97	12.823
572.16	12.348
572.36	12.366
572.55	12.740
572.74	12.796
572.94	12.594
573.13	12.941
573.32	12.990
573.51	12.807
573.71	13.099
573.90	13.085
574.09	13.182
574.29	13.106
574.48	13.490
574.67	12.890
574.87	13.322
575.06	12.945
575.25	13.377
575.45	13.102
575.64	13.202
575.83	12.815
576.03	13.860
576.22	13.405
576.41	13.722
576.60	12.761
576.80	13.459
576.99	13.639
577.18	14.004
577.38	13.457
577.57	13.465
577.76	13.581
577.95	13.911
578.15	13.119
578.34	13.795
578.53	13.459
578.73	13.929
578.92	12.880
579.11	13.923
579.30	13.696
579.50	13.899
579.69	13.971
579.88	13.766
580.08	13.612
580.27	13.604
580.46	13.492
580.65	14.079
580.85	13.466
581.04	13.914
581.23	13.173
581.42	13.862
581.62	12.688
581.81	13.618
582.00	13.308
582.19	13.089
582.39	13.422
582.58	12.832
582.77	13.586
582.96	13.424
583.16	12.971
583.35	13.572
583.54	13.791
583.73	13.862
583.93	13.326
584.12	13.476
584.31	12.577
584.50	13.822
584.70	13.023
584.89	13.550
585.08	13.598
585.27	14.077
585.47	13.227
585.66	13.533
585.85	13.538
586.04	13.432
586.24	13.855
586.43	13.856
586.62	12.577
586.81	13.055
587.00	12.370
587.20	13.024
587.39	11.987
587.58	12.986
587.77	13.011
587.97	12.742
588.16	12.279
588.35	13.480
588.54	12.512
588.73	12.480
588.93	13.469
589.12	13.040
589.31	13.404
589.50	12.526
589.69	13.198
589.89	13.274
590.08	13.064
590.27	12.599
590.46	12.303
590.65	13.013
590.85	11.785
591.04	12.847
591.23	13.445
591.42	13.037
591.61	12.810
591.81	13.317
592.00	12.960
592.19	13.073
592.38	12.515
592.57	13.553
592.77	13.230
592.96	13.263
593.15	13.717
593.34	13.082
593.53	12.680
593.72	12.790
593.92	12.890
594.11	13.580
594.30	12.199
594.49	13.918
594.68	13.103
594.87	13.134
595.07	12.679
595.26	13.981
595.45	12.892
595.64	13.750
595.83	12.900
596.02	13.670
596.22	13.373
596.41	13.822
596.60	13.808
596.79	14.010
596.98	13.337
597.17	14.588
597.37	13.257
597.56	14.145
597.75	13.716
597.94	13.881
598.13	14.437
598.32	14.096
598.51	13.895
598.71	14.899
598.90	14.237
599.09	14.495
599.28	14.119
599.47	14.276
599.66	13.837
599.85	14.297
600.05	13.636
600.24	14.388
600.43	14.720
600.62	14.587
600.81	14.640
601.00	15.241
601.19	13.852
601.38	14.863
601.58	14.423
601.77	13.546
601.96	14.501
602.15	15.455
602.34	14.829
602.53	14.790
602.72	14.130
602.91	15.003
603.10	14.742
603.30	15.334
603.49	14.375
603.68	15.012
603.87	13.993
604.06	14.641
604.25	14.564
604.44	14.737
604.63	14.403
604.82	14.930
605.01	14.878
605.21	15.063
605.40	14.580
605.59	15.100
605.78	15.020
605.97	15.264
606.16	14.915
606.35	15.572
606.54	15.097
606.73	15.475
606.92	14.605
607.11	15.106
607.30	14.451
607.50	15.127
607.69	14.400
607.88	15.317
608.07	14.297
608.26	14.992
608.45	14.954
608.64	15.445
608.83	13.871
609.02	15.125
609.21	14.617
609.40	14.748
609.59	14.318
609.78	13.890
609.97	14.067
610.16	14.724
610.35	14.473
610.55	14.143
610.74	14.280
610.93	14.514
611.12	14.261
611.31	14.670
611.50	13.140
611.69	14.261
611.88	13.730
612.07	14.842
612.26	13.940
612.45	14.079
612.64	13.706
612.83	14.345
613.02	13.942
613.21	13.357
613.40	13.816
613.59	15.119
613.78	12.809
613.97	14.073
614.16	13.383
614.35	13.342
614.54	12.378
614.73	14.477
614.92	13.075
615.11	13.641
615.30	13.140
615.49	12.474
615.68	13.032
615.87	12.505
616.07	11.752
616.26	13.016
616.45	12.455
616.64	11.872
616.83	12.109
617.02	11.881
617.21	11.692
617.40	12.039
617.59	12.387
617.78	12.592
617.97	11.798
618.16	11.989
618.35	10.709
618.54	11.825
618.73	11.544
618.92	12.116
619.11	11.005
619.30	12.196
619.49	10.659
619.68	12.260
619.86	11.210
620.05	11.044
620.24	10.898
620.43	11.454
620.62	9.971
620.81	10.706
621.00	11.670
621.19	11.926
621.38	11.462
621.57	11.650
621.76	11.515
621.95	11.869
622.14	11.364
622.33	11.440
622.52	9.889
622.71	11.087
622.90	10.078
623.09	11.246
623.28	10.508
623.47	12.241
623.66	10.711
623.85	10.983
624.04	10.230
624.23	11.106
624.42	10.986
624.61	10.700
624.80	10.369
624.99	10.543
625.18	10.359
625.36	11.892
625.55	10.534
625.74	11.208
625.93	9.738
626.12	11.509
626.31	10.977
626.50	11.303
626.69	10.338
626.88	11.789
627.07	11.110
627.26	10.164
627.45	11.458
627.64	11.010
627.83	9.902
628.02	10.979
628.20	10.509
628.39	11.159
628.58	10.353
628.77	10.917
628.96	9.995
629.15	10.766
629.34	10.752
629.53	10.894
629.72	9.605
629.91	11.891
630.10	10.764
630.29	10.979
630.47	11.543
630.66	10.318
630.85	11.262
631.04	12.110
631.23	11.618
631.42	11.921
631.61	11.246
631.80	11.800
631.99	10.877
632.18	11.158
632.36	9.875
632.55	12.441
632.74	10.111
632.93	10.331
633.12	10.668
633.31	10.451
633.50	10.675
633.69	10.813
633.88	10.323
634.06	10.448
634.25	10.534
634.44	10.494
634.63	10.187
634.82	11.249
635.01	10.516
635.20	10.403
635.39	10.186
635.57	10.137
635.76	9.424
635.95	10.894
636.14	8.982
636.33	10.867
636.52	10.087
636.71	9.577
636.89	9.158
637.08	10.549
637.27	9.505
637.46	10.088
637.65	10.138
637.84	10.608
638.03	8.322
638.21	10.758
638.40	9.243
638.59	10.016
638.78	9.136
638.97	9.556
639.16	9.248
639.34	9.349
639.53	8.198
639.72	10.430
639.91	8.465
640.10	8.580
640.29	10.335
640.47	11.809
640.66	9.475
640.85	11.847
641.04	8.486
641.23	9.782
641.42	8.602
641.60	8.960
641.79	9.390
641.98	10.050
642.17	8.039
642.36	10.071
642.54	8.787
642.73	9.046
642.92	8.927
643.11	9.632
643.30	8.635
643.49	10.268
643.67	8.337
643.86	8.705
644.05	7.481
644.24	9.447
644.43	9.251
644.61	10.263
644.80	9.258
644.99	10.582
645.18	9.937
645.37	9.952
645.55	8.903
645.74	9.517
645.93	9.272
646.12	9.339
646.31	9.357
646.49	8.981
646.68	9.021
646.87	10.365
647.06	9.122
647.24	9.746
647.43	7.942
647.62	10.884
647.81	8.612
648.00	9.691
648.18	7.606
648.37	8.077
648.56	9.450
648.75	9.363
648.93	8.505
649.12	9.538
649.31	8.315
649.50	9.776
649.68	9.016
649.87	9.277
650.06	7.917
650.25	8.870
650.43	8.915
650.62	8.387
650.81	8.522
651.00	8.025
651.18	7.983
651.37	10.383
651.56	8.070
651.75	9.570
651.93	8.708
652.12	9.877
652.31	7.624
652.50	9.715
652.68	8.719
652.87	9.983
653.06	9.539
653.25	8.749
653.43	8.441
653.62	8.685
653.81	8.727
654.00	9.806
654.18	8.355
654.37	9.162
654.56	7.962
654.74	7.533
654.93	8.964
655.12	7.956
655.31	7.492
655.49	9.316
655.68	7.352
655.87	6.587
656.05	5.928
656.24	8.282
656.43	6.365
656.62	7.793
656.80	7.761
656.99	7.333
657.18	6.589
657.36	7.874
657.55	7.027
657.74	7.297
657.93	7.866
658.11	8.367
658.30	7.844
658.49	6.356
658.67	8.104
658.86	6.469
659.05	6.664
659.23	7.949
659.42	6.252
659.61	6.981
659.79	5.663
659.98	6.974
660.17	8.039
660.35	6.097
660.54	6.688
660.73	8.127
660.91	6.208
661.10	7.098
661.29	5.685
661.47	5.454
661.66	6.490
661.85	7.079
662.03	6.459
662.22	5.550
662.41	5.364
662.59	6.276
662.78	5.392
662.97	6.242
663.15	6.109
663.34	5.306
663.53	5.126
663.71	5.474
663.90	6.088
664.09	7.556
664.27	6.677
664.46	6.991
664.65	5.488
664.83	5.372
665.02	5.524
665.21	5.087
665.39	4.272
665.58	6.014
665.77	5.274
665.95	6.611
666.14	5.078
666.32	5.501
666.51	5.662
666.70	5.465
666.88	5.268
667.07	6.867
667.26	4.495
667.44	5.901
667.63	5.545
667.81	4.751
668.00	5.558
668.19	6.788
668.37	4.895
668.56	6.766
668.75	4.331
668.93	7.233
669.12	4.719
669.30	5.657
669.49	5.164
669.68	5.954
669.86	6.239
670.05	6.844
670.23	5.335
670.42	5.972
670.61	6.508
670.79	6.182
670.98	5.073
671.16	6.701
671.35	6.473
671.54	6.109
671.72	6.139
671.91	7.565
672.09	5.335
672.28	7.918
672.46	8.853
672.65	8.629
672.84	7.821
673.02	8.830
673.21	6.699
673.39	6.924
673.58	8.522
673.77	7.499
673.95	8.208
674.14	8.237
674.32	6.998
674.51	8.954
674.69	7.295
674.88	8.249
675.07	7.822
675.25	10.417
675.44	8.511
675.62	8.059
675.81	9.710
675.99	11.892
676.18	8.571
676.36	8.762
676.55	7.444
676.74	10.634
676.92	11.333
677.11	9.055
677.29	8.756
677.48	10.914
677.66	11.106
677.85	9.417
678.03	9.076
678.22	10.551
678.40	10.433
678.59	9.026
678.78	7.890
678.96	9.433
679.15	7.382
679.33	11.309
679.52	10.564
679.70	10.140
679.89	9.994
680.07	9.565
680.26	8.260
680.44	8.850
680.63	8.744
680.81	8.643
681.00	7.038
681.18	9.708
681.37	8.691
681.55	10.198
681.74	10.390
681.92	9.647
682.11	9.894
682.29	9.931
682.48	9.081
682.66	11.504
682.85	10.774
683.03	9.996
683.22	11.027
683.40	11.696
683.59	11.683
683.77	11.372
683.96	8.694
684.14	12.064
684.33	8.481
684.51	14.268
684.70	12.008
684.88	13.117
685.07	11.310
685.25	12.344
685.44	11.385
685.62	12.281
685.81	10.961
685.99	12.393
686.18	10.826
686.36	12.344
686.55	9.452
686.73	12.132
686.92	13.760
687.10	13.216
687.29	13.503
687.47	13.988
687.65	13.851
687.84	13.287
688.02	15.351
688.21	16.568
688.39	11.776
688.58	15.803
688.76	12.781
688.95	12.918
689.13	11.136
689.32	13.916
689.50	14.423
689.68	15.235
689.87	14.615
690.05	15.841
690.24	15.754
690.42	15.855
690.61	17.132
690.79	17.648
690.98	17.423
691.16	16.889
691.34	14.906
691.53	18.641
691.71	17.096
691.90	18.866
692.08	17.045
692.27	19.173
692.45	19.596
692.63	18.021
692.82	19.709
693.00	19.939
693.19	17.903
693.37	20.471
693.56	19.599
693.74	22.943
693.92	20.971
694.11	23.999
694.29	22.088
694.48	23.812
694.66	23.595
694.84	26.015
695.03	21.786
695.21	26.348
695.40	24.570
695.58	25.433
695.76	25.513
695.95	27.529
696.13	25.526
696.32	27.938
696.50	30.656
696.68	29.560
696.87	26.873
697.05	31.199
697.24	28.585
697.42	32.165
697.60	30.248
697.79	31.340
697.97	30.717
698.16	30.538
698.34	28.399
698.52	30.210
698.71	29.727
698.89	30.951
699.07	30.967
699.26	31.008
699.44	30.125
699.63	31.464
699.81	31.311
699.99	32.214
700.18	32.906
700.36	32.963
700.54	32.660
700.73	35.158
700.91	33.970
701.09	34.831
701.28	35.861
701.46	36.360
701.64	34.967
701.83	36.644
702.01	36.857
702.20	39.187
702.38	39.308
702.56	39.869
702.75	38.527
702.93	39.304
703.11	39.438
703.30	40.171
703.48	40.128
703.66	44.295
703.85	39.342
704.03	42.523
704.21	41.484
704.40	43.606
704.58	41.735
704.76	42.354
704.95	42.475
705.13	43.630
705.31	44.629
705.50	47.463
705.68	42.697
705.86	44.950
706.04	45.747
706.23	45.380
706.41	46.649
706.59	44.372
706.78	46.040
706.96	46.259
707.14	45.762
707.33	45.741
707.51	45.081
707.69	46.821
707.88	46.072
708.06	46.803
708.24	45.758
708.42	46.875
708.61	45.660
708.79	47.142
708.97	48.573
709.16	48.029
709.34	48.977
709.52	47.862
709.71	48.275
709.89	46.682
710.07	44.594
710.25	47.431
710.44	47.913
710.62	47.463
710.80	47.828
710.98	49.603
711.17	48.430
711.35	48.591
711.53	49.191
711.72	47.781
711.90	48.592
712.08	49.273
712.26	46.689
712.45	49.778
712.63	49.002
712.81	48.891
712.99	48.950
713.18	48.584
713.36	49.742
713.54	50.463
713.72	48.732
713.91	49.298
714.09	48.472
714.27	50.538
714.45	51.393
714.64	49.429
714.82	50.217
715.00	50.709
715.18	49.403
715.37	48.811
715.55	49.568
715.73	51.540
715.91	49.169
716.10	50.655
716.28	47.821
716.46	48.639
716.64	49.018
716.83	51.118
717.01	49.955
717.19	50.672
717.37	50.365
717.55	49.014
717.74	49.905
717.92	50.191
718.10	48.440
718.28	50.847
718.47	49.346
718.65	51.969
718.83	49.749
719.01	52.601
719.19	49.615
719.38	49.696
719.56	50.500
719.74	51.248
719.92	49.079
720.10	49.691
720.29	51.894
720.47	52.873
720.65	54.468
720.83	53.740
721.01	51.007
721.20	52.675
721.38	52.034
721.56	51.031
721.74	53.322
721.92	56.927
722.11	52.079
722.29	54.259
722.47	53.786
722.65	57.022
722.83	58.023
723.01	52.975
723.20	55.303
723.38	56.363
723.56	54.333
723.74	56.865
723.92	53.860
724.10	54.204
724.29	52.730
724.47	56.525
724.65	52.866
724.83	56.091
725.01	55.159
725.19	55.485
725.38	52.779
725.56	57.324
725.74	55.714
725.92	57.176
726.10	53.676
726.28	55.010
726.46	55.232
726.65	55.851
726.83	53.955
727.01	54.189
727.19	52.278
727.37	55.126
727.55	54.517
727.73	53.994
727.92	55.507
728.10	53.460
728.28	52.319
728.46	52.718
728.64	53.409
728.82	55.383
729.00	53.689
729.19	54.048
729.37	53.230
729.55	54.940
729.73	54.778
729.91	55.869
730.09	52.005
730.27	54.253
730.45	53.920
730.63	54.970
730.82	54.761
731.00	54.850
731.18	56.278
731.36	57.226
731.54	55.168
731.72	57.789
731.90	54.686
732.08	56.863
732.26	53.247
732.45	55.006
732.63	56.878
732.81	55.708
732.99	55.464
733.17	58.451
733.35	55.157
733.53	56.717
733.71	54.053
733.89	56.451
734.07	55.618
734.25	58.465
734.44	56.473
734.62	56.666
734.80	56.775
734.98	58.428
735.16	56.331
735.34	57.461
735.52	57.339
735.70	60.946
735.88	57.411
736.06	58.837
736.24	62.460
736.42	62.682
736.60	59.106
736.78	62.889
736.97	60.453
737.15	63.423
737.33	63.920
737.51	61.164
737.69	62.392
737.87	62.310
738.05	61.227
738.23	61.056
738.41	62.417
738.59	62.393
738.77	60.829
738.95	63.274
739.13	60.777
739.31	63.669
739.49	62.739
739.67	63.709
739.85	61.074
740.03	61.956
740.21	61.136
740.39	62.804
740.57	61.416
740.75	62.943
740.93	61.872
741.11	61.414
741.30	60.914
741.48	65.258
741.66	67.624
741.84	67.115
742.02	62.175
742.20	66.252
742.38	60.703
742.56	64.689
742.74	61.231
742.92	64.842
743.10	65.764
743.28	65.497
743.46	66.770
743.64	66.546
743.82	62.476
744.00	65.734
744.18	66.267
744.36	63.577
744.54	62.782
744.72	64.211
744.90	67.986
745.08	66.767
745.26	61.854
745.44	65.842
745.62	61.397
745.80	64.344
745.98	63.970
746.16	67.081
746.34	65.968
746.52	65.512
746.70	62.635
746.87	68.153
747.05	69.179
747.23	62.679
747.41	66.557
747.59	65.746
747.77	65.619
747.95	68.688
748.13	67.088
748.31	65.892
748.49	65.150
748.67	69.371
748.85	62.131
749.03	66.153
749.21	65.213
749.39	66.679
749.57	63.582
749.75	63.031
749.93	67.206
750.11	64.773
750.29	64.606
750.47	66.278
750.65	67.800
750.83	68.786
751.01	61.381
751.18	66.631
751.36	64.897
751.54	67.934
751.72	67.206
751.90	64.244
752.08	65.481
752.26	66.605
752.44	66.835
752.62	65.734
752.80	63.253
752.98	65.354
753.16	63.802
753.34	61.255
753.52	63.718
753.69	68.558
753.87	64.271
754.05	67.171
754.23	66.145
754.41	64.354
754.59	66.467
754.77	68.086
754.95	63.655
755.13	67.147
755.31	65.782
755.49	66.351
755.66	61.652
755.84	62.975
756.02	65.158
756.20	64.437
756.38	67.438
756.56	66.935
756.74	65.558
756.92	63.623
757.10	64.143
757.28	67.010
757.45	72.795
757.63	66.750
757.81	62.363
757.99	68.393
758.17	66.513
758.35	66.334
758.53	63.770
758.71	62.724
758.88	63.213
759.06	66.205
759.24	58.093
759.42	58.801
759.60	59.480
759.78	60.465
759.96	53.440
760.13	58.242
760.31	50.433
760.49	53.395
760.67	50.558
760.85	47.123
761.03	49.267
761.21	46.156
761.38	45.756
761.56	51.065
761.74	49.096
761.92	50.134
762.10	44.737
762.28	52.195
762.46	47.527
762.63	50.362
762.81	48.855
762.99	47.279
763.17	48.709
763.35	46.738
763.53	48.595
763.70	49.220
763.88	48.963
764.06	47.066
764.24	46.703
764.42	48.838
764.60	47.603
764.77	48.831
764.95	48.140
765.13	51.457
765.31	50.556
765.49	49.128
765.66	50.109
765.84	53.782
766.02	51.588
766.20	54.519
766.38	54.538
766.56	57.172
766.73	54.097
766.91	56.895
767.09	57.522
767.27	57.796
767.45	61.002
767.62	60.768
767.80	57.513
767.98	60.736
768.16	58.274
768.33	61.255
768.51	56.439
768.69	62.351
768.87	61.630
769.05	63.612
769.22	62.155
769.40	66.207
769.58	65.433
769.76	66.382
769.94	68.430
770.11	67.317
770.29	69.703
770.47	67.502
770.65	63.853
770.82	68.081
771.00	67.302
771.18	66.982
771.36	68.897
771.53	65.806
771.71	64.035
771.89	71.724
772.07	62.310
772.25	69.152
772.42	64.894
772.60	66.820
772.78	67.440
772.96	67.711
773.13	71.611
773.31	65.633
773.49	62.393
773.67	66.527
773.84	62.616
774.02	68.264
774.20	61.627
774.37	66.633
774.55	66.938
774.73	68.839
774.91	67.202
775.08	73.109
775.26	74.612
775.44	70.037
775.62	70.656
775.79	69.343
775.97	69.765
776.15	69.161
776.32	64.948
776.50	68.542
776.68	70.217
776.86	70.989
777.03	66.685
777.21	70.513
777.39	65.192
777.56	70.033
777.74	64.785
777.92	66.436
778.10	68.824
778.27	70.920
778.45	71.121
778.63	69.953
778.80	69.650
778.98	68.711
779.16	70.178
779.34	65.844
779.51	65.295
779.69	71.389
779.87	68.024
780.04	75.676
780.22	72.902
780.40	72.374
780.57	70.164
780.75	68.375
780.93	68.630
781.10	70.787
781.28	76.257
781.46	66.938
781.63	71.032
781.81	70.235
781.99	65.734
782.16	68.907
782.34	67.554
782.52	70.907
782.69	75.804
782.87	72.797
783.05	69.240
783.22	70.455
783.40	73.982
783.58	70.750
783.75	70.539
783.93	70.831
784.11	71.429
784.28	77.347
784.46	65.695
784.64	72.431
784.81	67.688
784.99	75.078
785.17	66.904
785.34	68.944
785.52	63.271
785.69	71.772
785.87	67.297
786.05	71.947
786.22	70.387
786.40	81.588
786.58	71.000
786.75	75.582
786.93	71.903
787.11	65.905
787.28	70.663
787.46	70.318
787.63	66.309
787.81	65.489
787.99	62.552
788.16	64.332
788.34	66.005
788.51	66.120
788.69	61.819
788.87	62.306
789.04	65.088
789.22	64.868
789.39	59.550
789.57	61.295
789.75	58.992
789.92	66.059
790.10	62.291
790.27	66.848
790.45	59.803
790.63	64.683
790.80	58.386
790.98	63.072
791.15	65.077
791.33	65.003
791.51	67.870
791.68	65.608
791.86	65.397
792.03	70.013
792.21	57.597
792.39	62.706
792.56	67.390
792.74	70.462
792.91	66.817
793.09	63.514
793.26	59.047
793.44	68.340
793.62	66.174
793.79	65.800
793.97	65.503
794.14	65.889
794.32	59.973
794.49	70.772
794.67	65.257
794.84	59.608
795.02	61.779
795.20	71.409
795.37	66.599
795.55	69.181
795.72	65.082
795.90	66.098
796.07	64.039
796.25	63.869
796.42	64.401
796.60	64.746
796.77	60.207
796.95	63.374
797.13	59.617
797.30	63.658
797.48	63.446
797.65	63.745
797.83	59.341
798.00	62.619
798.18	56.074
798.35	70.039
798.53	61.357
798.70	61.676
798.88	63.631
799.05	64.506
799.23	64.111
799.40	60.089
799.58	59.987
799.75	62.956
799.93	64.875
800.10	67.502
800.28	65.625
800.45	60.178
800.63	66.472
800.80	67.938
800.98	66.802
801.15	61.664
801.33	62.184
801.50	57.346
801.68	61.871
801.85	59.861
802.03	61.442
802.20	70.965
802.38	58.706
802.55	60.353
802.73	58.998
802.90	61.981
803.08	59.539
803.25	67.440
803.43	63.551
803.60	60.863
803.78	65.575
803.95	61.400
804.13	71.193
804.30	66.618
804.48	64.907
804.65	61.302
804.83	63.772
805.00	61.406
805.17	65.485
805.35	64.312
805.52	58.934
805.70	67.416
805.87	69.658
806.05	63.842
806.22	59.551
806.40	58.719
806.57	60.193
806.75	62.925
806.92	68.500
807.09	65.696
807.27	59.603
807.44	64.051
807.62	61.107
807.79	62.915
807.97	64.702
808.14	71.068
808.31	61.364
808.49	66.464
808.66	55.463
808.84	61.648
809.01	61.831
809.19	61.099
809.36	63.417
809.53	58.578
809.71	56.653
809.88	57.754
810.06	70.954
810.23	61.398
810.41	64.043
810.58	66.724
810.75	68.934
810.93	63.149
811.10	68.880
811.28	68.085
811.45	59.897
811.62	62.375
811.80	59.981
811.97	66.290
812.15	68.074
812.32	61.581
812.49	65.878
812.67	60.806
812.84	63.645
813.02	65.598
813.19	58.268
813.36	60.559
813.54	57.857
813.71	63.413
813.89	65.137
814.06	60.855
814.23	61.559
814.41	54.875
814.58	56.240
814.75	56.852
814.93	62.310
815.10	63.286
815.28	62.183
815.45	56.035
815.62	58.880
815.80	53.397
815.97	54.875
816.14	59.738
816.32	57.640
816.49	62.167
816.66	54.089
816.84	62.006
817.01	52.791
817.18	51.273
817.36	55.535
817.53	63.276
817.71	45.941
817.88	56.267
818.05	59.196
818.23	51.158
818.40	53.145
818.57	54.900
818.75	53.213
818.92	53.816
819.09	56.813
819.27	54.795
819.44	56.852
819.61	55.925
819.79	50.880
819.96	57.246
820.13	49.964
820.31	53.593
820.48	58.241
820.65	50.444
820.82	55.385
821.00	51.512
821.17	45.551
821.34	47.246
821.52	48.450
821.69	44.026
821.86	46.464
822.04	43.623
822.21	46.736
822.38	42.612
822.56	42.665
822.73	44.797
822.90	42.936
823.07	44.581
823.25	42.754
823.42	41.935
823.59	42.707
823.77	43.349
823.94	43.130
824.11	43.787
824.29	43.887
824.46	44.935
824.63	46.173
824.80	45.979
824.98	45.591
825.15	45.082
825.32	43.114
825.49	48.953
825.67	46.236
825.84	46.679
826.01	45.455
826.19	48.334
826.36	43.655
826.53	51.741
826.70	46.243
826.88	45.090
827.05	42.308
827.22	46.352
827.39	43.945
827.57	44.378
827.74	40.940
827.91	44.792
828.08	43.532
828.26	42.327
828.43	41.215
828.60	45.350
828.77	43.820
828.95	48.322
829.12	41.767
829.29	41.212
829.46	43.141
829.64	45.351
829.81	40.858
829.98	50.734
830.15	42.637
830.32	47.225
830.50	44.071
830.67	55.063
830.84	39.146
831.01	47.506
831.19	46.019
831.36	50.432
831.53	44.591
831.70	49.793
831.87	51.337
832.05	55.118
832.22	53.768
832.39	54.120
832.56	51.049
832.74	55.054
832.91	46.661
833.08	57.813
833.25	47.695
833.42	42.897
833.60	45.179
833.77	41.699
833.94	41.537
834.11	42.994
834.28	40.465
834.45	45.161
834.63	40.431
834.80	43.144
834.97	40.677
835.14	44.559
835.31	42.429
835.49	45.374
835.66	45.046
835.83	43.739
836.00	43.390
836.17	46.427
836.34	46.415
836.52	47.692
836.69	47.209
836.86	46.482
837.03	51.562
837.20	51.970
837.37	48.768
837.55	45.106
837.72	55.092
837.89	55.241
838.06	54.597
838.23	58.673
838.40	56.886
838.58	48.012
838.75	58.152
838.92	58.418
839.09	63.385
839.26	60.417
839.43	61.045
839.60	73.919
839.78	72.477
839.95	62.796
840.12	58.971
840.29	72.957
840.46	59.938
840.63	60.386
840.80	61.064
840.98	61.267
841.15	52.500
841.32	51.239
841.49	50.252
841.66	62.324
841.83	56.076
842.00	51.052
842.17	62.929
842.34	61.033
842.52	61.375
842.69	60.367
842.86	69.519
843.03	80.559
843.20	73.713
843.37	68.346
843.54	66.848
843.71	62.464
843.88	68.336
844.06	79.751
844.23	80.893
844.40	64.067
844.57	71.667
844.74	78.598
844.91	82.839
845.08	82.716
845.25	92.023
845.42	74.187
845.59	92.500
845.76	68.472
845.94	105.797
846.11	91.915
846.28	109.783
846.45	89.336
846.62	94.413
846.79	86.957
846.96	78.138
847.13	86.590
847.30	93.803
847.47	68.340
847.64	75.527
847.81	109.150
847.98	105.477
848.15	88.773
848.32	94.737
848.50	106.368
848.67	92.625
848.84	101.217
849.01	113.075
849.18	96.818
849.35	116.707
849.52	90.428
849.69	103.457
849.86	112.107
850.03	88.247
850.20	107.048
850.37	106.207
850.54	97.805
850.71	112.147
850.88	71.976
851.05	95.215
851.22	100.495
851.39	96.976
851.56	96.040
851.73	132.670
851.90	111.881
852.07	94.041
852.24	96.347
852.41	87.393
852.58	102.880
852.75	90.888
852.92	74.442
853.09	94.459
853.26	98.810
853.43	86.131
853.60	101.744
853.77	91.155
853.94	93.168
854.11	108.815
854.28	112.532
854.45	79.185
854.62	103.427
854.79	104.420
854.96	81.336
855.13	112.230
855.30	95.434
855.47	114.329
855.64	106.854
855.81	81.375
855.98	103.889
856.15	115.885
856.32	104.377
856.49	88.462
856.66	106.410
856.83	89.051
857.00	98.087
857.17	114.785
857.34	96.277
857.51	106.989
857.68	100.619
857.85	100.000
858.02	104.378
858.19	122.436
858.36	101.379
858.53	84.431
858.70	87.047
858.87	118.210
859.04	96.111
859.21	97.695
859.38	106.954
859.55	84.794
859.72	100.829
859.89	125.419
860.05	91.155
860.22	113.141
860.39	113.110
860.56	92.705
860.73	95.059
860.90	106.583
861.07	103.380
861.24	96.659
861.41	112.332
861.58	90.931
861.75	85.849
861.92	98.551
862.09	111.399
862.26	98.086
862.43	100.691
862.59	108.602
862.76	113.043
862.93	126.486
863.10	99.420
863.27	107.458
863.44	95.498
863.61	122.393
863.78	100.450
863.95	87.173
864.12	88.046
864.29	95.868
864.45	98.750
864.62	89.920
864.79	107.712
864.96	97.337
865.13	101.648
865.30	100.494
865.47	89.056
865.64	100.263
865.81	83.914
865.97	88.328
866.14	92.895
866.31	95.052
866.48	100.988
866.65	84.252
866.82	98.361
866.99	122.388
867.16	94.737
867.33	106.583
867.49	137.551
867.66	85.195
867.83	82.210
868.00	81.481
868.17	91.414
868.34	91.941
868.51	74.414
868.67	82.111
868.84	98.148
869.01	107.419
869.18	78.738
869.35	102.419
869.52	83.565
869.69	93.123
869.85	81.865
870.02	96.980
870.19	107.029
870.36	120.308
870.53	77.465
870.70	118.182
870.86	84.545
871.03	105.163
871.20	92.350
871.37	116.456
871.54	100.000
871.71	78.624
871.87	97.019
872.04	88.859
872.21	90.805
872.38	113.690
872.55	106.479
872.72	67.575
872.88	105.211
873.05	90.175
873.22	138.298
873.39	97.594
873.56	105.217
873.72	99.476
873.89	74.351
874.06	87.097
874.23	74.144
874.40	88.037
874.56	100.299
874.73	79.597
874.90	94.373
875.07	122.222
875.24	87.342
875.40	74.201
875.57	104.494
875.74	87.324
875.91	85.401
876.08	107.761
876.24	96.477
876.41	114.731
876.58	105.952
876.75	101.972
876.92	110.458
877.08	84.461
877.25	77.411
877.42	71.920
877.59	72.107
877.75	102.312
877.92	85.372
878.09	76.501
878.26	85.117
878.42	102.941
878.59	89.920
878.76	85.536
878.93	102.906
879.09	80.519
879.26	72.011
879.43	82.432
879.60	93.924
879.76	72.565
879.93	79.588
880.10	83.333
880.27	56.979
880.43	60.754
880.60	54.179
880.77	40.951
880.94	64.076
881.10	43.162
881.27	42.706
881.44	30.474
881.61	41.579
881.77	46.372
881.94	38.139
882.11	27.090
882.28	29.855
882.44	35.771
882.61	39.365
882.78	35.235
882.94	43.631
883.11	35.729
883.28	39.221
883.45	38.109
883.61	37.510
883.78	34.824
883.95	37.718
884.11	39.805
884.28	40.972
>>>>>End Processed Spectral Data<<<<<
