SpectraSuite Data File
++++++++++++++++++++++++++++++++++++
Date: Tue Sep 24 04:05:48 EST 2019
User: sgrac
Dark Spectrum Present: Yes
Reference Spectrum Present: Yes
Number of Sampled Component Spectra: 1
Spectrometers: USB4E01596
Integration Time (usec): 100000 (USB4E01596)
Spectra Averaged: 3 (USB4E01596)
Boxcar Smoothing: 0 (USB4E01596)
Correct for Electrical Dark: No (USB4E01596)
Strobe/Lamp Enabled: Yes (USB4E01596)
Correct for Detector Non-linearity: No (USB4E01596)
Correct for Stray Light: No (USB4E01596)
Number of Pixels in Processed Spectrum: 3648
>>>>>Begin Processed Spectral Data<<<<<
178.44	1695.455
178.66	1695.455
178.87	1695.455
179.09	824.528
179.30	768.889
179.52	-1446.667
179.74	871.698
179.95	677.612
180.17	-19000.000
180.38	-15333.333
180.60	577.528
180.82	-4007.143
181.03	1178.378
181.25	-1726.087
181.46	631.944
181.68	4788.889
181.89	-2137.500
182.11	666.667
182.33	1491.429
182.54	914.035
182.76	-972.500
182.97	250.311
183.19	984.444
183.40	5000.000
183.62	573.171
183.84	629.333
184.05	917.391
184.27	519.753
184.48	-2411.111
184.70	503.226
184.91	625.000
185.13	680.263
185.34	555.914
185.56	1375.000
185.78	1566.667
185.99	2706.250
186.21	612.500
186.42	1042.857
186.64	461.290
186.85	850.000
187.07	-4060.000
187.28	-2029.412
187.50	-42200.000
187.72	42200.000
187.93	-1875.000
188.15	1227.907
188.36	705.405
188.58	608.108
188.79	-6642.857
189.01	-3284.615
189.22	1980.000
189.44	540.698
189.65	730.303
189.87	-6114.286
190.09	1173.529
190.30	1213.158
190.52	2161.905
190.73	6900.000
190.95	1368.421
191.16	558.228
191.38	3790.909
191.59	3457.143
191.81	1364.706
192.02	1110.638
192.24	989.796
192.45	2729.412
192.67	580.519
192.88	425.510
193.10	698.485
193.31	453.535
193.53	1055.263
193.74	-38900.000
193.96	826.761
194.18	402.830
194.39	480.435
194.61	492.593
194.82	376.271
195.04	442.991
195.25	0.000
195.47	-42300.000
195.68	489.000
195.90	532.941
196.11	548.193
196.33	886.047
196.54	504.587
196.76	1287.879
196.97	-3825.000
197.19	576.744
197.40	919.298
197.62	935.849
197.83	474.038
198.05	775.342
198.26	0.000
198.48	-822.222
198.69	1513.333
198.91	4842.857
199.12	-10175.000
199.34	563.333
199.55	-44800.000
199.77	2444.444
199.98	722.535
200.20	375.207
200.41	638.158
200.63	1205.882
200.84	-3330.769
201.06	470.886
201.27	1848.000
201.49	1021.277
201.70	564.368
201.91	726.761
202.13	661.194
202.34	-1780.000
202.56	318.310
202.77	5862.500
202.99	6012.500
203.20	713.043
203.42	1224.324
203.63	5000.000
203.85	424.370
204.06	786.538
204.28	412.712
204.49	1454.545
204.71	-1296.875
204.92	373.913
205.14	1325.806
205.35	985.714
205.56	451.429
205.78	-986.000
205.99	1043.590
206.21	847.368
206.42	565.152
206.64	2213.043
206.85	562.651
207.07	-609.677
207.28	1568.000
207.50	506.522
207.71	864.583
207.93	14366.667
208.14	1281.579
208.35	-2691.667
208.57	-1103.448
208.78	360.839
209.00	1160.000
209.21	470.297
209.43	-6350.000
209.64	267.614
209.86	782.456
210.07	1002.381
210.28	1417.241
210.50	7566.667
210.71	1564.516
210.93	-2793.333
211.14	840.000
211.36	503.125
211.57	1825.926
211.78	4544.444
212.00	-2527.778
212.21	1124.390
212.43	969.643
212.64	608.537
212.86	1913.043
213.07	741.176
213.29	3150.000
213.50	360.317
213.71	530.120
213.93	360.000
214.14	365.812
214.36	458.824
214.57	-4200.000
214.78	1217.949
215.00	416.529
215.21	1092.500
215.43	1848.000
215.64	418.519
215.86	405.660
216.07	9825.000
216.28	632.836
216.50	529.412
216.71	1631.034
216.93	-1188.372
217.14	505.051
217.35	762.500
217.57	346.154
217.78	672.581
218.00	443.434
218.21	516.901
218.42	1837.037
218.64	3126.667
218.85	882.143
219.07	412.605
219.28	672.308
219.49	462.385
219.71	668.571
219.92	1372.000
220.14	915.217
220.35	3954.545
220.56	992.683
220.78	1321.212
220.99	766.154
221.21	652.703
221.42	613.514
221.63	9225.000
221.85	1446.429
222.06	1600.000
222.28	660.759
222.49	548.387
222.70	509.000
222.92	705.263
223.13	1916.667
223.34	1150.000
223.56	392.913
223.77	300.000
223.99	565.556
224.20	328.082
224.41	529.333
224.63	519.388
224.84	299.286
225.05	358.400
225.27	807.843
225.48	456.566
225.69	548.958
225.91	555.422
226.12	278.061
226.34	262.011
226.55	197.021
226.76	247.895
226.98	251.875
227.19	216.176
227.40	226.840
227.62	207.282
227.83	130.939
228.04	148.193
228.26	119.520
228.47	90.108
228.69	77.347
228.90	66.239
229.11	70.939
229.33	60.809
229.54	54.773
229.75	51.414
229.97	52.205
230.18	57.114
230.39	40.644
230.61	43.392
230.82	55.366
231.03	42.337
231.25	59.507
231.46	59.057
231.67	65.522
231.89	68.505
232.10	64.930
232.31	68.409
232.53	87.261
232.74	74.173
232.95	87.697
233.17	76.748
233.38	68.844
233.59	91.614
233.81	82.534
234.02	86.618
234.23	79.965
234.45	93.461
234.66	70.909
234.87	83.876
235.09	78.187
235.30	69.186
235.51	81.990
235.73	70.338
235.94	67.398
236.15	77.460
236.36	70.410
236.58	74.290
236.79	75.079
237.00	60.322
237.22	72.698
237.43	69.597
237.64	68.333
237.86	67.729
238.07	79.316
238.28	65.185
238.50	60.714
238.71	69.474
238.92	59.748
239.13	69.844
239.35	71.176
239.56	71.973
239.77	69.986
239.99	58.096
240.20	61.306
240.41	56.121
240.63	51.888
240.84	58.068
241.05	38.454
241.26	44.444
241.48	46.481
241.69	39.890
241.90	32.481
242.12	27.336
242.33	29.359
242.54	27.481
242.75	24.851
242.97	26.610
243.18	22.084
243.39	23.638
243.61	25.709
243.82	25.787
244.03	22.204
244.24	20.050
244.46	23.259
244.67	26.513
244.88	26.555
245.09	28.549
245.31	26.471
245.52	26.553
245.73	33.742
245.95	44.000
246.16	30.845
246.37	24.332
246.58	20.982
246.80	20.828
247.01	21.866
247.22	19.148
247.43	17.787
247.65	18.539
247.86	17.218
248.07	14.883
248.28	14.798
248.50	15.233
248.71	16.762
248.92	16.378
249.13	16.960
249.35	14.534
249.56	20.591
249.77	18.580
249.98	17.919
250.20	25.378
250.41	19.790
250.62	26.259
250.83	22.441
251.05	28.504
251.26	29.196
251.47	30.649
251.68	24.296
251.90	25.738
252.11	28.832
252.32	26.451
252.53	27.724
252.75	21.124
252.96	26.183
253.17	22.785
253.38	22.429
253.59	24.275
253.81	20.513
254.02	21.793
254.23	28.221
254.44	22.467
254.66	24.202
254.87	27.115
255.08	36.753
255.29	32.670
255.50	32.739
255.72	30.462
255.93	38.281
256.14	41.455
256.35	30.445
256.57	38.040
256.78	28.810
256.99	32.292
257.20	35.121
257.41	29.004
257.63	32.598
257.84	29.588
258.05	30.248
258.26	22.625
258.47	25.420
258.69	19.474
258.90	20.803
259.11	19.905
259.32	20.840
259.53	17.120
259.75	16.593
259.96	11.784
260.17	14.631
260.38	12.452
260.59	13.050
260.81	12.889
261.02	13.239
261.23	13.349
261.44	13.364
261.65	13.643
261.87	12.586
262.08	15.088
262.29	15.461
262.50	14.682
262.71	15.635
262.92	18.822
263.14	13.779
263.35	18.455
263.56	22.765
263.77	21.227
263.98	20.755
264.20	22.681
264.41	21.112
264.62	20.260
264.83	19.522
265.04	26.732
265.25	20.369
265.47	23.891
265.68	22.408
265.89	22.629
266.10	17.478
266.31	23.560
266.52	20.164
266.74	18.510
266.95	16.595
267.16	18.019
267.37	19.669
267.58	19.079
267.79	16.308
268.01	16.630
268.22	17.835
268.43	18.226
268.64	17.731
268.85	17.128
269.06	15.316
269.27	20.825
269.49	18.517
269.70	17.121
269.91	16.969
270.12	17.856
270.33	19.274
270.54	15.416
270.75	14.491
270.97	15.003
271.18	18.315
271.39	16.706
271.60	17.556
271.81	14.590
272.02	15.090
272.23	17.064
272.45	14.762
272.66	13.078
272.87	15.773
273.08	13.752
273.29	16.228
273.50	13.079
273.71	15.067
273.92	12.497
274.14	13.122
274.35	15.076
274.56	15.827
274.77	15.637
274.98	13.563
275.19	17.165
275.40	13.351
275.61	14.676
275.83	17.758
276.04	18.036
276.25	18.770
276.46	19.281
276.67	20.156
276.88	19.834
277.09	16.245
277.30	17.843
277.51	17.550
277.73	16.989
277.94	16.492
278.15	17.599
278.36	19.604
278.57	15.137
278.78	17.237
278.99	16.010
279.20	19.708
279.41	22.157
279.62	12.595
279.84	13.947
280.05	15.187
280.26	13.408
280.47	14.036
280.68	16.676
280.89	14.286
281.10	16.569
281.31	18.132
281.52	15.224
281.73	12.405
281.94	13.909
282.16	16.964
282.37	15.724
282.58	13.658
282.79	17.379
283.00	15.748
283.21	11.245
283.42	14.071
283.63	15.951
283.84	13.658
284.05	12.283
284.26	14.581
284.47	12.795
284.68	14.462
284.89	13.365
285.11	13.436
285.32	12.384
285.53	14.018
285.74	15.302
285.95	12.923
286.16	11.589
286.37	10.331
286.58	12.949
286.79	11.351
287.00	12.892
287.21	11.173
287.42	14.155
287.63	11.893
287.84	11.365
288.05	15.075
288.26	11.158
288.48	13.113
288.69	11.607
288.90	13.776
289.11	13.933
289.32	12.878
289.53	12.828
289.74	11.258
289.95	12.352
290.16	13.352
290.37	11.285
290.58	11.120
290.79	11.446
291.00	12.220
291.21	11.237
291.42	11.276
291.63	11.376
291.84	12.647
292.05	11.206
292.26	11.023
292.47	12.897
292.68	11.993
292.89	12.330
293.10	13.308
293.31	13.635
293.52	9.996
293.73	12.478
293.94	13.675
294.15	12.500
294.36	12.865
294.57	14.193
294.79	14.716
295.00	9.599
295.21	14.993
295.42	14.017
295.63	14.100
295.84	10.726
296.05	10.876
296.26	11.470
296.47	11.012
296.68	10.909
296.89	13.987
297.10	13.304
297.31	12.667
297.52	10.641
297.73	11.424
297.94	11.291
298.15	11.319
298.36	10.821
298.57	10.583
298.78	12.810
298.99	9.952
299.20	10.805
299.41	12.245
299.62	12.485
299.83	10.975
300.04	11.925
300.25	14.215
300.46	14.051
300.67	14.408
300.88	12.891
301.09	9.744
301.30	13.655
301.50	10.786
301.71	15.783
301.92	15.153
302.13	11.370
302.34	11.515
302.55	11.885
302.76	12.396
302.97	12.819
303.18	12.708
303.39	13.012
303.60	13.312
303.81	15.708
304.02	10.923
304.23	11.771
304.44	10.990
304.65	12.679
304.86	12.562
305.07	11.317
305.28	11.338
305.49	12.394
305.70	13.623
305.91	11.408
306.12	10.764
306.33	11.846
306.54	10.919
306.75	13.655
306.96	14.774
307.17	11.294
307.38	12.341
307.58	12.601
307.79	13.168
308.00	12.836
308.21	12.634
308.42	12.867
308.63	11.794
308.84	12.390
309.05	12.473
309.26	10.076
309.47	10.956
309.68	12.106
309.89	13.900
310.10	10.788
310.31	10.892
310.52	10.659
310.73	13.617
310.94	8.762
311.14	10.358
311.35	11.203
311.56	11.347
311.77	9.588
311.98	8.604
312.19	9.740
312.40	9.817
312.61	10.597
312.82	11.578
313.03	10.645
313.24	10.953
313.45	12.272
313.66	11.630
313.86	13.017
314.07	12.523
314.28	12.412
314.49	11.392
314.70	13.353
314.91	14.372
315.12	11.321
315.33	12.376
315.54	11.393
315.75	10.275
315.96	10.407
316.16	9.457
316.37	13.726
316.58	11.040
316.79	11.206
317.00	13.775
317.21	11.845
317.42	14.269
317.63	14.232
317.84	11.349
318.05	11.381
318.25	11.972
318.46	11.973
318.67	10.752
318.88	12.317
319.09	12.781
319.30	13.548
319.51	11.711
319.72	13.609
319.93	11.997
320.13	11.565
320.34	12.621
320.55	11.241
320.76	13.285
320.97	12.612
321.18	14.039
321.39	13.251
321.60	12.028
321.80	13.418
322.01	12.285
322.22	11.679
322.43	10.831
322.64	11.425
322.85	12.920
323.06	13.747
323.27	12.166
323.47	13.335
323.68	12.452
323.89	12.021
324.10	12.015
324.31	10.567
324.52	11.744
324.73	13.050
324.93	9.609
325.14	11.561
325.35	12.334
325.56	12.349
325.77	12.964
325.98	12.095
326.19	12.034
326.39	8.205
326.60	11.570
326.81	10.628
327.02	10.166
327.23	9.833
327.44	13.544
327.64	7.841
327.85	9.033
328.06	11.232
328.27	13.848
328.48	13.599
328.69	10.689
328.90	10.631
329.10	12.412
329.31	12.466
329.52	11.068
329.73	11.450
329.94	10.862
330.15	13.015
330.35	12.243
330.56	12.512
330.77	11.029
330.98	12.205
331.19	12.818
331.39	11.801
331.60	10.848
331.81	10.143
332.02	12.660
332.23	13.015
332.44	9.620
332.64	11.970
332.85	11.892
333.06	11.618
333.27	9.956
333.48	11.252
333.68	10.349
333.89	12.111
334.10	9.041
334.31	12.207
334.52	11.057
334.72	11.045
334.93	11.146
335.14	10.493
335.35	10.871
335.56	13.316
335.76	11.068
335.97	12.245
336.18	9.330
336.39	13.362
336.60	11.324
336.80	11.386
337.01	10.861
337.22	11.512
337.43	12.647
337.64	13.744
337.84	12.885
338.05	11.683
338.26	13.734
338.47	13.515
338.68	8.869
338.88	13.618
339.09	9.850
339.30	11.417
339.51	10.359
339.71	13.108
339.92	10.207
340.13	11.174
340.34	11.321
340.55	10.520
340.75	11.843
340.96	9.949
341.17	12.971
341.38	10.492
341.58	11.836
341.79	11.817
342.00	10.493
342.21	11.902
342.41	9.579
342.62	11.720
342.83	12.806
343.04	9.720
343.24	11.923
343.45	12.518
343.66	10.510
343.87	11.187
344.07	9.960
344.28	10.686
344.49	11.554
344.70	12.753
344.90	10.742
345.11	11.271
345.32	10.471
345.53	10.735
345.73	10.320
345.94	12.901
346.15	13.250
346.36	10.894
346.56	11.420
346.77	12.804
346.98	11.515
347.19	11.402
347.39	11.275
347.60	11.381
347.81	11.618
348.02	13.004
348.22	9.780
348.43	11.399
348.64	10.417
348.84	10.555
349.05	11.415
349.26	13.459
349.47	9.899
349.67	10.971
349.88	13.136
350.09	11.755
350.30	13.873
350.50	12.325
350.71	12.855
350.92	12.012
351.12	11.430
351.33	11.853
351.54	10.540
351.74	11.822
351.95	11.918
352.16	11.777
352.37	12.399
352.57	11.292
352.78	12.401
352.99	13.137
353.19	11.762
353.40	12.970
353.61	13.388
353.82	13.154
354.02	13.162
354.23	13.583
354.44	13.912
354.64	12.783
354.85	13.640
355.06	12.234
355.26	11.438
355.47	12.038
355.68	15.435
355.88	13.134
356.09	12.605
356.30	10.663
356.51	13.271
356.71	11.787
356.92	9.953
357.13	13.217
357.33	14.870
357.54	12.497
357.75	9.976
357.95	13.228
358.16	10.370
358.37	14.456
358.57	10.380
358.78	14.254
358.99	11.717
359.19	12.678
359.40	12.893
359.61	12.264
359.81	12.846
360.02	14.657
360.23	11.585
360.43	12.612
360.64	11.658
360.85	11.858
361.05	10.973
361.26	14.211
361.47	12.246
361.67	13.305
361.88	9.251
362.09	12.510
362.29	10.722
362.50	10.980
362.70	9.812
362.91	13.769
363.12	11.088
363.32	11.584
363.53	12.253
363.74	12.710
363.94	10.080
364.15	14.205
364.36	13.121
364.56	11.361
364.77	13.402
364.98	15.164
365.18	11.673
365.39	13.621
365.59	10.937
365.80	12.591
366.01	13.111
366.21	11.934
366.42	10.604
366.63	13.453
366.83	11.269
367.04	10.310
367.24	12.947
367.45	10.348
367.66	9.580
367.86	11.905
368.07	10.691
368.28	12.402
368.48	11.191
368.69	11.529
368.89	11.758
369.10	12.401
369.31	12.020
369.51	13.434
369.72	13.058
369.92	13.697
370.13	10.242
370.34	11.891
370.54	8.161
370.75	11.597
370.95	10.305
371.16	11.835
371.37	10.665
371.57	11.168
371.78	10.929
371.98	11.813
372.19	11.053
372.40	11.761
372.60	12.039
372.81	11.338
373.01	9.320
373.22	10.501
373.43	11.333
373.63	11.944
373.84	11.382
374.04	11.687
374.25	10.870
374.46	12.704
374.66	11.570
374.87	12.578
375.07	9.480
375.28	10.839
375.48	10.483
375.69	11.360
375.90	8.968
376.10	8.838
376.31	9.636
376.51	9.775
376.72	9.462
376.92	8.942
377.13	10.847
377.34	11.097
377.54	10.239
377.75	12.120
377.95	10.481
378.16	11.721
378.36	11.113
378.57	10.622
378.77	10.426
378.98	10.898
379.19	9.878
379.39	9.708
379.60	10.442
379.80	10.433
380.01	10.978
380.21	9.576
380.42	11.507
380.62	9.676
380.83	10.420
381.04	9.598
381.24	10.195
381.45	10.251
381.65	9.319
381.86	10.130
382.06	11.264
382.27	8.429
382.47	9.895
382.68	11.387
382.88	10.082
383.09	9.163
383.29	10.237
383.50	11.694
383.71	9.147
383.91	10.331
384.12	8.882
384.32	10.351
384.53	9.434
384.73	8.793
384.94	8.211
385.14	9.834
385.35	8.977
385.55	9.888
385.76	9.457
385.96	9.898
386.17	9.479
386.37	9.732
386.58	9.505
386.78	10.976
386.99	8.503
387.19	9.809
387.40	8.566
387.60	11.181
387.81	9.363
388.01	8.933
388.22	10.328
388.42	11.319
388.63	10.888
388.83	11.454
389.04	8.578
389.24	8.924
389.45	9.772
389.65	9.701
389.86	9.719
390.06	8.661
390.27	8.886
390.47	9.656
390.68	8.536
390.88	10.223
391.09	9.596
391.29	10.761
391.50	8.871
391.70	10.205
391.91	8.413
392.11	9.601
392.32	9.700
392.52	9.889
392.73	9.642
392.93	9.530
393.14	8.497
393.34	9.028
393.55	9.435
393.75	9.054
393.95	8.660
394.16	9.826
394.36	9.877
394.57	10.676
394.77	9.312
394.98	9.048
395.18	9.295
395.39	9.143
395.59	9.329
395.80	8.914
396.00	9.139
396.21	10.257
396.41	8.485
396.61	10.467
396.82	9.586
397.02	11.145
397.23	9.877
397.43	9.173
397.64	8.106
397.84	10.275
398.05	7.867
398.25	9.514
398.45	8.403
398.66	9.934
398.86	9.219
399.07	10.158
399.27	8.796
399.48	10.312
399.68	8.742
399.89	8.965
400.09	9.981
400.29	9.466
400.50	9.341
400.70	9.635
400.91	8.590
401.11	8.766
401.32	9.144
401.52	7.566
401.72	8.311
401.93	10.504
402.13	8.632
402.34	9.094
402.54	7.467
402.75	11.042
402.95	6.978
403.15	10.097
403.36	7.739
403.56	9.600
403.77	7.582
403.97	8.597
404.17	8.212
404.38	9.051
404.58	7.842
404.79	8.891
404.99	8.889
405.19	8.241
405.40	8.792
405.60	9.609
405.81	7.972
406.01	8.820
406.21	8.568
406.42	9.129
406.62	8.521
406.83	9.726
407.03	9.193
407.23	7.920
407.44	8.175
407.64	9.812
407.85	9.198
408.05	8.877
408.25	8.926
408.46	9.605
408.66	9.449
408.87	8.266
409.07	9.033
409.27	8.177
409.48	9.158
409.68	9.625
409.88	7.284
410.09	8.345
410.29	8.811
410.50	10.313
410.70	7.522
410.90	8.389
411.11	7.713
411.31	7.881
411.51	9.368
411.72	9.574
411.92	8.129
412.12	8.920
412.33	7.775
412.53	8.444
412.74	6.408
412.94	8.512
413.14	8.249
413.35	8.722
413.55	8.518
413.75	10.213
413.96	7.711
414.16	8.446
414.36	8.360
414.57	8.700
414.77	8.180
414.97	9.289
415.18	8.125
415.38	8.377
415.58	7.963
415.79	7.857
415.99	7.557
416.19	8.428
416.40	8.594
416.60	8.156
416.80	7.359
417.01	7.720
417.21	7.245
417.41	8.724
417.62	7.989
417.82	8.623
418.02	7.139
418.23	8.395
418.43	8.037
418.63	8.342
418.84	8.402
419.04	8.160
419.24	8.559
419.45	8.917
419.65	8.795
419.85	8.444
420.06	8.595
420.26	8.562
420.46	8.373
420.67	8.879
420.87	8.448
421.07	9.049
421.28	8.458
421.48	9.172
421.68	8.554
421.88	8.371
422.09	8.588
422.29	8.603
422.49	8.026
422.70	9.247
422.90	8.676
423.10	8.744
423.31	8.738
423.51	8.911
423.71	8.304
423.91	9.148
424.12	8.586
424.32	8.713
424.52	8.643
424.73	8.321
424.93	8.385
425.13	8.464
425.33	8.385
425.54	8.776
425.74	8.681
425.94	9.396
426.15	8.796
426.35	8.584
426.55	9.178
426.75	8.799
426.96	8.272
427.16	8.525
427.36	8.773
427.57	9.166
427.77	8.282
427.97	8.789
428.17	8.559
428.38	8.808
428.58	7.307
428.78	9.065
428.98	7.581
429.19	7.842
429.39	7.494
429.59	8.474
429.79	7.245
430.00	7.177
430.20	7.243
430.40	8.258
430.60	7.710
430.81	7.742
431.01	7.396
431.21	8.591
431.41	7.453
431.62	7.457
431.82	7.863
432.02	8.636
432.22	7.705
432.43	7.276
432.63	7.672
432.83	8.205
433.03	7.448
433.24	7.270
433.44	7.609
433.64	8.162
433.84	7.701
434.05	8.059
434.25	7.766
434.45	8.319
434.65	8.590
434.85	8.846
435.06	8.494
435.26	8.220
435.46	7.994
435.66	8.791
435.87	7.881
436.07	8.474
436.27	8.160
436.47	7.927
436.67	7.603
436.88	8.889
437.08	7.803
437.28	8.119
437.48	7.936
437.69	8.672
437.89	8.159
438.09	8.529
438.29	7.493
438.49	8.458
438.70	8.066
438.90	7.657
439.10	8.022
439.30	8.183
439.50	7.332
439.71	8.279
439.91	7.902
440.11	8.551
440.31	8.069
440.51	8.002
440.72	7.798
440.92	8.028
441.12	8.515
441.32	8.701
441.52	8.665
441.72	8.706
441.93	8.311
442.13	8.683
442.33	8.226
442.53	8.894
442.73	7.858
442.94	8.566
443.14	8.323
443.34	8.972
443.54	8.307
443.74	8.940
443.94	8.358
444.15	8.103
444.35	7.655
444.55	8.496
444.75	8.497
444.95	8.615
445.15	8.384
445.36	8.406
445.56	7.714
445.76	8.304
445.96	7.960
446.16	7.710
446.36	7.648
446.57	8.542
446.77	7.728
446.97	8.307
447.17	8.554
447.37	8.563
447.57	8.501
447.77	8.424
447.98	8.322
448.18	8.881
448.38	8.306
448.58	8.682
448.78	8.655
448.98	8.579
449.18	8.053
449.39	8.584
449.59	8.435
449.79	8.912
449.99	8.555
450.19	8.815
450.39	8.220
450.59	8.659
450.79	7.924
451.00	8.703
451.20	9.157
451.40	8.503
451.60	7.529
451.80	9.105
452.00	8.089
452.20	8.505
452.40	8.219
452.61	8.283
452.81	8.282
453.01	8.792
453.21	7.950
453.41	8.260
453.61	8.414
453.81	8.639
454.01	8.585
454.21	8.835
454.42	8.858
454.62	9.015
454.82	8.502
455.02	8.405
455.22	7.885
455.42	8.478
455.62	7.844
455.82	8.551
456.02	7.998
456.23	8.584
456.43	8.487
456.63	8.539
456.83	7.481
457.03	8.355
457.23	8.112
457.43	8.570
457.63	8.009
457.83	8.986
458.03	7.607
458.23	8.511
458.43	8.258
458.64	8.449
458.84	8.493
459.04	8.487
459.24	8.194
459.44	8.374
459.64	8.479
459.84	8.740
460.04	8.268
460.24	8.722
460.44	8.474
460.64	8.647
460.84	8.239
461.04	8.947
461.24	8.780
461.45	9.053
461.65	8.679
461.85	9.176
462.05	8.951
462.25	9.109
462.45	9.350
462.65	9.338
462.85	8.225
463.05	9.268
463.25	8.155
463.45	9.585
463.65	8.513
463.85	9.064
464.05	8.402
464.25	8.740
464.45	9.014
464.65	9.029
464.85	8.534
465.05	8.606
465.26	8.856
465.46	9.453
465.66	9.119
465.86	9.197
466.06	8.875
466.26	9.168
466.46	8.413
466.66	8.846
466.86	8.733
467.06	9.004
467.26	8.570
467.46	9.278
467.66	8.842
467.86	8.671
468.06	8.506
468.26	8.846
468.46	9.059
468.66	9.176
468.86	8.413
469.06	9.379
469.26	8.087
469.46	9.303
469.66	8.543
469.86	9.364
470.06	8.823
470.26	9.697
470.46	8.390
470.66	10.042
470.86	8.248
471.06	8.670
471.26	8.015
471.46	8.605
471.66	9.312
471.86	8.986
472.06	8.571
472.26	9.349
472.46	9.546
472.66	9.460
472.86	8.341
473.06	9.105
473.26	9.229
473.46	9.266
473.66	8.814
473.86	9.960
474.06	8.839
474.26	9.869
474.46	8.162
474.66	9.656
474.86	9.611
475.06	9.872
475.26	8.412
475.46	9.290
475.66	8.859
475.86	9.480
476.06	9.703
476.26	9.748
476.46	8.829
476.66	9.483
476.86	9.020
477.06	9.251
477.26	8.832
477.46	9.079
477.65	9.245
477.85	9.520
478.05	8.839
478.25	9.721
478.45	8.945
478.65	9.544
478.85	9.313
479.05	9.284
479.25	9.371
479.45	9.683
479.65	9.156
479.85	9.504
480.05	8.912
480.25	9.530
480.45	9.326
480.65	9.714
480.85	8.875
481.05	9.219
481.25	9.499
481.44	9.333
481.64	8.655
481.84	9.675
482.04	9.095
482.24	9.212
482.44	8.526
482.64	9.052
482.84	8.762
483.04	8.810
483.24	8.581
483.44	8.543
483.64	8.222
483.84	8.244
484.04	8.274
484.23	8.501
484.43	8.677
484.63	8.899
484.83	9.294
485.03	9.730
485.23	9.588
485.43	9.413
485.63	9.338
485.83	9.285
486.03	9.381
486.23	9.442
486.42	9.233
486.62	9.202
486.82	8.965
487.02	8.940
487.22	8.855
487.42	8.797
487.62	8.702
487.82	8.599
488.02	8.788
488.22	8.607
488.41	8.743
488.61	8.922
488.81	8.943
489.01	9.284
489.21	9.311
489.41	9.470
489.61	9.587
489.81	9.385
490.01	9.469
490.20	9.346
490.40	9.511
490.60	9.643
490.80	9.129
491.00	9.512
491.20	8.881
491.40	8.964
491.60	8.715
491.79	8.848
491.99	8.972
492.19	8.852
492.39	8.925
492.59	9.026
492.79	9.000
492.99	9.197
493.19	9.208
493.38	9.342
493.58	9.637
493.78	9.553
493.98	9.811
494.18	9.823
494.38	9.512
494.58	9.552
494.77	9.347
494.97	9.743
495.17	9.726
495.37	9.659
495.57	9.435
495.77	9.801
495.96	9.652
496.16	9.750
496.36	9.471
496.56	9.636
496.76	9.136
496.96	9.141
497.15	9.188
497.35	9.519
497.55	9.245
497.75	9.718
497.95	9.141
498.15	9.726
498.34	9.692
498.54	9.399
498.74	9.917
498.94	10.006
499.14	9.282
499.34	10.142
499.53	9.691
499.73	9.788
499.93	9.802
500.13	9.828
500.33	9.477
500.52	9.884
500.72	9.476
500.92	9.644
501.12	9.322
501.32	10.200
501.52	9.610
501.71	9.936
501.91	9.535
502.11	9.908
502.31	9.858
502.51	9.866
502.70	9.419
502.90	9.955
503.10	9.502
503.30	9.699
503.50	10.081
503.69	10.086
503.89	9.889
504.09	10.078
504.29	9.276
504.48	9.860
504.68	10.098
504.88	9.897
505.08	9.371
505.28	9.618
505.47	9.559
505.67	10.297
505.87	9.584
506.07	9.591
506.27	9.518
506.46	10.311
506.66	9.536
506.86	9.629
507.06	10.538
507.25	10.050
507.45	9.663
507.65	10.141
507.85	9.588
508.04	10.182
508.24	9.883
508.44	10.063
508.64	9.662
508.83	9.899
509.03	9.367
509.23	9.996
509.43	9.686
509.63	9.843
509.82	9.824
510.02	9.683
510.22	9.717
510.42	9.821
510.61	10.132
510.81	9.776
511.01	9.950
511.21	10.186
511.40	9.810
511.60	9.810
511.80	9.705
511.99	9.743
512.19	10.008
512.39	10.259
512.59	9.779
512.78	10.124
512.98	10.183
513.18	9.869
513.38	9.807
513.57	10.272
513.77	10.160
513.97	10.281
514.17	10.065
514.36	10.100
514.56	9.982
514.76	10.196
514.95	9.943
515.15	10.166
515.35	9.805
515.55	10.322
515.74	10.207
515.94	10.348
516.14	9.754
516.33	10.297
516.53	9.523
516.73	10.261
516.93	9.859
517.12	10.174
517.32	9.254
517.52	10.210
517.71	9.670
517.91	9.976
518.11	9.692
518.30	9.750
518.50	9.317
518.70	9.755
518.90	9.768
519.09	9.807
519.29	10.086
519.49	9.981
519.68	9.936
519.88	10.106
520.08	9.880
520.27	10.082
520.47	10.185
520.67	10.142
520.86	10.405
521.06	10.575
521.26	9.814
521.45	10.283
521.65	9.991
521.85	10.415
522.04	9.929
522.24	10.559
522.44	9.904
522.63	10.247
522.83	10.306
523.03	10.576
523.22	10.055
523.42	10.545
523.62	10.686
523.81	10.215
524.01	10.304
524.21	10.112
524.40	9.727
524.60	10.201
524.80	9.795
524.99	9.869
525.19	9.869
525.39	9.880
525.58	9.657
525.78	9.529
525.98	10.070
526.17	9.975
526.37	9.816
526.57	9.968
526.76	10.017
526.96	9.854
527.15	9.761
527.35	9.802
527.55	9.697
527.74	9.847
527.94	9.512
528.14	9.532
528.33	9.121
528.53	9.220
528.72	9.396
528.92	9.482
529.12	9.546
529.31	9.456
529.51	9.722
529.71	9.851
529.90	9.927
530.10	9.948
530.29	10.057
530.49	10.116
530.69	10.277
530.88	10.291
531.08	10.188
531.28	9.980
531.47	10.023
531.67	9.881
531.86	9.974
532.06	9.923
532.26	9.802
532.45	9.870
532.65	9.855
532.84	9.541
533.04	9.535
533.24	9.360
533.43	9.386
533.63	9.887
533.82	9.679
534.02	9.888
534.22	9.891
534.41	10.002
534.61	9.991
534.80	10.071
535.00	10.202
535.19	10.182
535.39	10.235
535.59	10.317
535.78	10.077
535.98	10.423
536.17	10.180
536.37	10.106
536.57	10.043
536.76	9.987
536.96	10.113
537.15	10.451
537.35	10.041
537.54	10.007
537.74	10.177
537.93	10.230
538.13	10.122
538.33	10.385
538.52	10.458
538.72	10.568
538.91	10.437
539.11	10.395
539.30	10.303
539.50	10.554
539.70	10.340
539.89	10.534
540.09	9.793
540.28	10.362
540.48	10.022
540.67	10.035
540.87	9.485
541.06	9.963
541.26	9.729
541.45	9.914
541.65	9.948
541.85	10.104
542.04	9.808
542.24	10.336
542.43	10.141
542.63	10.329
542.82	10.242
543.02	10.206
543.21	10.368
543.41	10.534
543.60	10.612
543.80	10.539
543.99	10.409
544.19	10.702
544.38	10.687
544.58	10.467
544.77	10.360
544.97	10.670
545.16	10.560
545.36	10.715
545.56	10.634
545.75	10.651
545.95	10.532
546.14	10.320
546.34	10.422
546.53	10.629
546.73	10.280
546.92	10.493
547.12	10.554
547.31	10.921
547.51	10.460
547.70	10.596
547.90	10.697
548.09	10.402
548.29	10.627
548.48	10.957
548.68	11.227
548.87	11.155
549.07	10.945
549.26	10.981
549.46	11.163
549.65	11.007
549.84	10.827
550.04	10.838
550.23	10.648
550.43	11.065
550.62	10.410
550.82	10.455
551.01	10.597
551.21	11.193
551.40	11.321
551.60	10.947
551.79	10.714
551.99	11.457
552.18	10.778
552.38	10.978
552.57	11.033
552.77	11.041
552.96	11.424
553.16	11.157
553.35	11.246
553.54	11.515
553.74	11.515
553.93	11.478
554.13	11.608
554.32	11.504
554.52	10.981
554.71	11.726
554.91	10.990
555.10	11.559
555.29	11.618
555.49	11.315
555.68	11.250
555.88	11.487
556.07	10.626
556.27	11.974
556.46	11.541
556.66	11.552
556.85	11.737
557.04	12.012
557.24	11.709
557.43	12.176
557.63	11.366
557.82	11.562
558.02	11.636
558.21	12.608
558.40	11.079
558.60	11.792
558.79	11.880
558.99	12.093
559.18	11.401
559.38	12.049
559.57	12.066
559.76	12.120
559.96	12.481
560.15	11.835
560.35	11.869
560.54	11.862
560.73	11.135
560.93	12.380
561.12	11.401
561.32	12.325
561.51	11.982
561.70	12.616
561.90	11.699
562.09	12.711
562.29	12.250
562.48	12.255
562.67	11.949
562.87	12.835
563.06	12.000
563.26	12.752
563.45	11.856
563.64	13.030
563.84	12.270
564.03	12.804
564.23	11.764
564.42	13.655
564.61	12.579
564.81	12.462
565.00	12.477
565.20	13.337
565.39	13.035
565.58	12.811
565.78	12.702
565.97	13.047
566.16	12.972
566.36	12.846
566.55	13.002
566.74	12.940
566.94	13.161
567.13	13.446
567.33	13.078
567.52	13.355
567.71	13.183
567.91	13.569
568.10	13.214
568.29	13.241
568.49	13.341
568.68	13.457
568.87	12.977
569.07	13.857
569.26	13.579
569.45	13.650
569.65	13.120
569.84	13.814
570.04	13.324
570.23	13.908
570.42	12.922
570.62	13.338
570.81	13.668
571.00	13.606
571.20	13.736
571.39	13.999
571.58	13.524
571.78	13.817
571.97	13.395
572.16	13.775
572.36	13.827
572.55	14.161
572.74	13.680
572.94	13.822
573.13	13.931
573.32	13.579
573.51	13.457
573.71	14.106
573.90	13.672
574.09	14.082
574.29	13.769
574.48	14.370
574.67	13.668
574.87	14.057
575.06	13.353
575.25	13.895
575.45	13.676
575.64	14.395
575.83	13.709
576.03	14.710
576.22	14.048
576.41	14.227
576.60	13.888
576.80	14.012
576.99	14.215
577.18	14.535
577.38	14.058
577.57	14.231
577.76	14.560
577.95	13.862
578.15	13.187
578.34	14.463
578.53	13.736
578.73	13.687
578.92	13.256
579.11	14.401
579.30	14.448
579.50	14.152
579.69	14.194
579.88	14.122
580.08	13.322
580.27	14.036
580.46	14.190
580.65	14.072
580.85	14.181
581.04	14.205
581.23	13.328
581.42	14.156
581.62	13.645
581.81	13.894
582.00	13.645
582.19	13.911
582.39	14.229
582.58	13.906
582.77	14.318
582.96	13.318
583.16	13.085
583.35	14.404
583.54	14.054
583.73	14.303
583.93	13.776
584.12	13.269
584.31	13.057
584.50	13.726
584.70	13.885
584.89	14.266
585.08	13.282
585.27	14.571
585.47	13.423
585.66	14.303
585.85	13.184
586.04	13.713
586.24	13.849
586.43	13.389
586.62	12.786
586.81	13.991
587.00	12.874
587.20	14.298
587.39	12.616
587.58	14.179
587.77	13.049
587.97	13.514
588.16	13.879
588.35	13.851
588.54	13.081
588.73	13.646
588.93	13.903
589.12	13.845
589.31	13.113
589.50	13.710
589.69	13.805
589.89	13.738
590.08	12.786
590.27	13.529
590.46	13.640
590.65	13.770
590.85	12.826
591.04	13.556
591.23	13.006
591.42	13.404
591.61	13.605
591.81	13.599
592.00	13.302
592.19	13.898
592.38	13.318
592.57	13.385
592.77	13.574
592.96	13.545
593.15	14.092
593.34	13.571
593.53	12.978
593.72	13.870
593.92	13.152
594.11	13.986
594.30	13.436
594.49	14.098
594.68	13.734
594.87	14.041
595.07	12.655
595.26	14.064
595.45	13.176
595.64	13.570
595.83	13.095
596.02	14.193
596.22	13.757
596.41	13.844
596.60	13.068
596.79	13.970
596.98	13.184
597.17	13.934
597.37	13.558
597.56	14.159
597.75	13.540
597.94	14.318
598.13	14.159
598.32	14.161
598.51	13.895
598.71	14.666
598.90	14.058
599.09	14.615
599.28	13.701
599.47	14.087
599.66	13.935
599.85	14.451
600.05	13.751
600.24	14.644
600.43	14.157
600.62	14.316
600.81	13.904
601.00	14.313
601.19	12.938
601.38	14.119
601.58	13.974
601.77	14.063
601.96	13.341
602.15	14.657
602.34	14.543
602.53	15.021
602.72	13.278
602.91	14.187
603.10	13.880
603.30	14.476
603.49	13.839
603.68	14.942
603.87	13.453
604.06	14.380
604.25	13.981
604.44	14.261
604.63	13.892
604.82	14.471
605.01	14.048
605.21	14.566
605.40	14.093
605.59	14.669
605.78	14.655
605.97	14.465
606.16	14.128
606.35	14.297
606.54	14.128
606.73	14.913
606.92	13.775
607.11	15.031
607.30	13.813
607.50	14.614
607.69	13.882
607.88	14.604
608.07	14.043
608.26	14.839
608.45	14.554
608.64	14.984
608.83	13.079
609.02	14.193
609.21	13.616
609.40	14.435
609.59	14.359
609.78	14.232
609.97	13.891
610.16	14.429
610.35	13.984
610.55	14.417
610.74	14.230
610.93	15.022
611.12	14.061
611.31	14.276
611.50	14.247
611.69	13.946
611.88	13.929
612.07	14.938
612.26	13.077
612.45	14.044
612.64	13.673
612.83	14.448
613.02	13.738
613.21	13.653
613.40	13.393
613.59	14.640
613.78	13.619
613.97	14.263
614.16	13.268
614.35	14.950
614.54	12.884
614.73	13.652
614.92	13.400
615.11	13.757
615.30	13.372
615.49	13.133
615.68	13.030
615.87	13.135
616.07	12.806
616.26	12.699
616.45	12.981
616.64	12.218
616.83	13.081
617.02	13.589
617.21	11.502
617.40	12.579
617.59	12.954
617.78	12.522
617.97	12.230
618.16	13.076
618.35	11.373
618.54	12.480
618.73	11.911
618.92	12.442
619.11	11.940
619.30	13.194
619.49	11.527
619.68	12.673
619.86	11.556
620.05	12.914
620.24	11.521
620.43	12.231
620.62	10.694
620.81	12.487
621.00	13.609
621.19	13.597
621.38	13.589
621.57	13.049
621.76	11.980
621.95	13.218
622.14	11.660
622.33	12.888
622.52	11.646
622.71	12.301
622.90	11.797
623.09	12.721
623.28	12.653
623.47	12.739
623.66	12.294
623.85	11.973
624.04	11.411
624.23	12.790
624.42	11.205
624.61	12.007
624.80	10.646
624.99	12.089
625.18	10.721
625.36	12.396
625.55	12.514
625.74	11.418
625.93	11.217
626.12	12.172
626.31	12.706
626.50	12.930
626.69	12.138
626.88	13.358
627.07	12.597
627.26	12.274
627.45	11.971
627.64	12.124
627.83	11.514
628.02	12.345
628.20	12.443
628.39	12.532
628.58	11.952
628.77	12.702
628.96	11.788
629.15	12.439
629.34	12.754
629.53	11.847
629.72	11.390
629.91	13.009
630.10	12.966
630.29	13.274
630.47	12.834
630.66	12.819
630.85	12.564
631.04	13.411
631.23	13.005
631.42	12.769
631.61	12.655
631.80	12.881
631.99	12.157
632.18	12.426
632.36	12.243
632.55	14.075
632.74	12.145
632.93	11.850
633.12	11.536
633.31	13.205
633.50	11.643
633.69	12.899
633.88	11.232
634.06	12.703
634.25	11.913
634.44	12.507
634.63	11.868
634.82	13.062
635.01	12.015
635.20	12.237
635.39	10.973
635.57	12.211
635.76	11.969
635.95	11.901
636.14	11.772
636.33	12.324
636.52	11.908
636.71	11.801
636.89	11.984
637.08	12.126
637.27	10.992
637.46	11.152
637.65	12.136
637.84	11.532
638.03	10.493
638.21	12.856
638.40	11.195
638.59	11.154
638.78	10.838
638.97	12.017
639.16	11.737
639.34	11.785
639.53	9.650
639.72	12.625
639.91	10.754
640.10	9.819
640.29	12.331
640.47	12.526
640.66	10.896
640.85	12.242
641.04	10.104
641.23	11.478
641.42	10.286
641.60	10.838
641.79	11.425
641.98	11.144
642.17	10.268
642.36	12.307
642.54	10.666
642.73	11.152
642.92	10.673
643.11	10.966
643.30	10.403
643.49	10.520
643.67	8.992
643.86	10.765
644.05	10.222
644.24	11.122
644.43	11.060
644.61	10.479
644.80	9.783
644.99	11.416
645.18	11.653
645.37	11.638
645.55	10.131
645.74	11.247
645.93	10.408
646.12	11.981
646.31	11.417
646.49	11.292
646.68	11.393
646.87	11.202
647.06	10.275
647.24	10.598
647.43	9.682
647.62	12.608
647.81	9.297
648.00	11.866
648.18	8.881
648.37	9.648
648.56	11.224
648.75	10.019
648.93	10.709
649.12	11.304
649.31	10.479
649.50	10.045
649.68	10.657
649.87	10.975
650.06	9.386
650.25	10.899
650.43	9.352
650.62	10.168
650.81	10.363
651.00	10.859
651.18	9.783
651.37	11.520
651.56	9.687
651.75	11.351
651.93	10.062
652.12	11.178
652.31	9.344
652.50	10.765
652.68	10.668
652.87	12.606
653.06	11.262
653.25	11.652
653.43	9.743
653.62	10.623
653.81	10.332
654.00	11.037
654.18	9.949
654.37	12.207
654.56	10.625
654.74	9.409
654.93	10.116
655.12	10.315
655.31	10.395
655.49	11.527
655.68	9.125
655.87	9.576
656.05	8.542
656.24	10.107
656.43	8.705
656.62	11.545
656.80	10.564
656.99	9.723
657.18	8.426
657.36	10.256
657.55	9.679
657.74	9.828
657.93	10.473
658.11	11.841
658.30	11.292
658.49	9.864
658.67	10.217
658.86	8.908
659.05	9.288
659.23	10.671
659.42	9.129
659.61	10.089
659.79	9.664
659.98	10.254
660.17	11.168
660.35	10.495
660.54	10.820
660.73	11.014
660.91	10.670
661.10	10.660
661.29	8.585
661.47	9.888
661.66	10.234
661.85	9.898
662.03	9.897
662.22	7.982
662.41	8.241
662.59	9.803
662.78	9.028
662.97	9.741
663.15	8.951
663.34	8.277
663.53	8.772
663.71	9.779
663.90	8.894
664.09	8.669
664.27	9.590
664.46	8.971
664.65	9.022
664.83	8.652
665.02	9.065
665.21	8.343
665.39	7.819
665.58	9.029
665.77	9.831
665.95	10.226
666.14	8.499
666.32	9.344
666.51	8.746
666.70	7.902
666.88	8.926
667.07	8.203
667.26	6.945
667.44	9.133
667.63	8.109
667.81	8.871
668.00	8.772
668.19	10.456
668.37	8.876
668.56	10.229
668.75	7.479
668.93	9.829
669.12	8.231
669.30	9.325
669.49	7.279
669.68	9.555
669.86	9.939
670.05	8.355
670.23	8.071
670.42	8.440
670.61	9.438
670.79	10.174
670.98	9.412
671.16	9.828
671.35	8.186
671.54	8.854
671.72	9.375
671.91	9.314
672.09	8.298
672.28	9.618
672.46	9.907
672.65	10.566
672.84	10.343
673.02	10.411
673.21	8.092
673.39	8.746
673.58	9.547
673.77	9.764
673.95	9.654
674.14	9.922
674.32	8.920
674.51	10.771
674.69	8.610
674.88	10.847
675.07	8.949
675.25	12.310
675.44	9.168
675.62	9.832
675.81	9.376
675.99	13.643
676.18	11.322
676.36	8.763
676.55	9.450
676.74	11.399
676.92	12.321
677.11	11.040
677.29	9.692
677.48	10.838
677.66	11.199
677.85	10.101
678.03	10.588
678.22	11.921
678.40	9.751
678.59	9.729
678.78	9.473
678.96	8.814
679.15	10.261
679.33	11.297
679.52	11.581
679.70	10.437
679.89	9.915
680.07	10.325
680.26	8.310
680.44	9.505
680.63	9.920
680.81	9.808
681.00	8.203
681.18	9.832
681.37	9.932
681.55	11.165
681.74	10.615
681.92	11.038
682.11	10.840
682.29	10.277
682.48	9.923
682.66	10.932
682.85	10.721
683.03	11.321
683.22	12.020
683.40	12.367
683.59	11.068
683.77	11.606
683.96	10.242
684.14	11.685
684.33	9.488
684.51	13.592
684.70	10.998
684.88	13.058
685.07	10.954
685.25	12.229
685.44	10.515
685.62	12.626
685.81	9.942
685.99	12.427
686.18	10.356
686.36	12.778
686.55	10.519
686.73	10.590
686.92	12.737
687.10	12.418
687.29	14.183
687.47	13.062
687.65	13.841
687.84	11.711
688.02	14.099
688.21	14.794
688.39	11.338
688.58	14.431
688.76	13.224
688.95	12.868
689.13	11.932
689.32	14.727
689.50	14.101
689.68	13.539
689.87	13.060
690.05	14.519
690.24	14.310
690.42	14.307
690.61	15.427
690.79	14.541
690.98	14.238
691.16	13.463
691.34	12.822
691.53	14.609
691.71	13.822
691.90	15.972
692.08	12.497
692.27	15.924
692.45	16.267
692.63	15.092
692.82	17.077
693.00	14.390
693.19	13.755
693.37	16.624
693.56	15.252
693.74	15.927
693.92	14.960
694.11	17.080
694.29	17.333
694.48	17.628
694.66	17.354
694.84	18.128
695.03	15.362
695.21	18.400
695.40	17.149
695.58	20.786
695.76	17.340
695.95	18.593
696.13	17.857
696.32	21.260
696.50	24.293
696.68	19.568
696.87	17.596
697.05	19.894
697.24	18.371
697.42	21.542
697.60	19.409
697.79	20.056
697.97	19.507
698.16	21.499
698.34	18.056
698.52	22.151
698.71	20.417
698.89	21.639
699.07	20.676
699.26	22.130
699.44	21.971
699.63	21.712
699.81	21.068
699.99	23.075
700.18	22.962
700.36	22.356
700.54	23.595
700.73	22.603
700.91	21.462
701.09	24.326
701.28	23.883
701.46	23.771
701.64	22.040
701.83	23.718
702.01	21.936
702.20	25.273
702.38	24.675
702.56	23.137
702.75	22.740
702.93	22.676
703.11	24.416
703.30	24.294
703.48	25.261
703.66	25.434
703.85	25.183
704.03	28.279
704.21	24.531
704.40	26.702
704.58	22.568
704.76	26.361
704.95	24.809
705.13	27.947
705.31	26.250
705.50	27.681
705.68	23.051
705.86	26.959
706.04	25.079
706.23	28.107
706.41	26.290
706.59	25.816
706.78	24.813
706.96	26.746
707.14	26.743
707.33	26.288
707.51	24.473
707.69	26.717
707.88	26.671
708.06	27.649
708.24	26.533
708.42	29.066
708.61	25.883
708.79	29.985
708.97	29.186
709.16	28.439
709.34	29.466
709.52	29.334
709.71	28.195
709.89	28.267
710.07	26.310
710.25	29.165
710.44	26.433
710.62	28.944
710.80	29.338
710.98	29.630
711.17	27.193
711.35	29.444
711.53	26.201
711.72	28.861
711.90	29.858
712.08	28.464
712.26	27.049
712.45	28.473
712.63	28.624
712.81	30.978
712.99	27.525
713.18	30.277
713.36	29.688
713.54	28.419
713.72	26.934
713.91	29.615
714.09	25.505
714.27	29.060
714.45	28.160
714.64	32.899
714.82	27.515
715.00	30.167
715.18	28.450
715.37	31.090
715.55	29.373
715.73	30.166
715.91	30.966
716.10	29.219
716.28	25.824
716.46	30.518
716.64	28.083
716.83	30.059
717.01	29.414
717.19	29.936
717.37	28.719
717.55	30.907
717.74	28.037
717.92	30.706
718.10	26.395
718.28	28.478
718.47	28.041
718.65	30.180
718.83	29.159
719.01	31.020
719.19	28.474
719.38	28.080
719.56	29.261
719.74	28.695
719.92	25.598
720.10	26.482
720.29	27.214
720.47	31.241
720.65	28.571
720.83	32.735
721.01	27.355
721.20	29.949
721.38	28.112
721.56	30.235
721.74	30.972
721.92	28.432
722.11	25.491
722.29	29.586
722.47	28.940
722.65	30.185
722.83	30.626
723.01	29.671
723.20	28.051
723.38	31.000
723.56	28.956
723.74	34.276
723.92	29.613
724.10	31.951
724.29	28.648
724.47	32.879
724.65	29.460
724.83	32.170
725.01	28.524
725.19	32.535
725.38	28.034
725.56	31.951
725.74	29.879
725.92	32.022
726.10	29.315
726.28	31.201
726.46	30.485
726.65	31.341
726.83	28.101
727.01	31.567
727.19	29.576
727.37	31.098
727.55	29.656
727.73	30.107
727.92	29.397
728.10	29.432
728.28	27.387
728.46	31.980
728.64	29.618
728.82	30.895
729.00	30.689
729.19	32.093
729.37	29.748
729.55	32.905
729.73	26.953
729.91	31.800
730.09	31.090
730.27	31.596
730.45	28.548
730.63	30.901
730.82	28.250
731.00	31.990
731.18	28.751
731.36	31.240
731.54	28.394
731.72	32.810
731.90	28.210
732.08	33.374
732.26	27.774
732.45	31.633
732.63	31.041
732.81	32.252
732.99	31.086
733.17	33.116
733.35	30.815
733.53	33.115
733.71	29.334
733.89	31.497
734.07	31.503
734.25	34.994
734.44	29.949
734.62	32.657
734.80	27.480
734.98	33.678
735.16	32.222
735.34	33.459
735.52	33.491
735.70	31.980
735.88	33.124
736.06	32.695
736.24	35.135
736.42	35.473
736.60	33.407
736.78	34.860
736.97	31.745
737.15	36.847
737.33	29.895
737.51	34.611
737.69	34.053
737.87	34.408
738.05	34.691
738.23	34.265
738.41	33.972
738.59	35.320
738.77	31.408
738.95	33.893
739.13	33.122
739.31	34.490
739.49	33.230
739.67	36.648
739.85	32.446
740.03	34.877
740.21	35.006
740.39	34.841
740.57	34.483
740.75	34.684
740.93	33.723
741.11	35.244
741.30	32.947
741.48	35.294
741.66	36.403
741.84	34.766
742.02	32.390
742.20	35.757
742.38	32.298
742.56	38.789
742.74	33.006
742.92	30.588
743.10	32.633
743.28	33.578
743.46	33.409
743.64	34.657
743.82	31.961
744.00	37.030
744.18	34.799
744.36	35.243
744.54	32.940
744.72	38.269
744.90	37.984
745.08	36.487
745.26	35.020
745.44	37.511
745.62	35.408
745.80	35.172
745.98	34.974
746.16	36.776
746.34	35.929
746.52	39.212
746.70	31.956
746.87	35.332
747.05	34.479
747.23	37.845
747.41	35.281
747.59	38.481
747.77	33.680
747.95	34.401
748.13	34.184
748.31	36.899
748.49	34.649
748.67	35.283
748.85	35.169
749.03	35.314
749.21	32.527
749.39	36.132
749.57	31.758
749.75	32.250
749.93	33.497
750.11	37.286
750.29	36.287
750.47	36.106
750.65	35.287
750.83	37.154
751.01	30.427
751.18	35.646
751.36	31.464
751.54	33.099
751.72	34.885
751.90	33.951
752.08	32.063
752.26	31.081
752.44	36.309
752.62	35.294
752.80	36.980
752.98	36.526
753.16	34.823
753.34	34.499
753.52	36.086
753.69	36.560
753.87	36.132
754.05	36.272
754.23	33.886
754.41	36.705
754.59	34.945
754.77	37.050
754.95	34.731
755.13	36.613
755.31	33.015
755.49	33.435
755.66	35.362
755.84	37.351
756.02	29.831
756.20	36.492
756.38	33.480
756.56	34.254
756.74	31.569
756.92	32.140
757.10	32.578
757.28	37.825
757.45	40.784
757.63	36.244
757.81	32.165
757.99	39.295
758.17	34.980
758.35	39.130
758.53	37.340
758.71	37.348
758.88	35.190
759.06	35.025
759.24	30.432
759.42	33.303
759.60	30.033
759.78	31.501
759.96	27.668
760.13	33.724
760.31	30.746
760.49	32.016
760.67	27.609
760.85	30.598
761.03	28.276
761.21	27.816
761.38	25.619
761.56	30.354
761.74	26.307
761.92	31.895
762.10	22.978
762.28	30.798
762.46	23.533
762.63	26.534
762.81	25.561
762.99	26.103
763.17	28.297
763.35	26.693
763.53	24.199
763.70	28.451
763.88	30.438
764.06	29.555
764.24	26.610
764.42	27.610
764.60	29.662
764.77	28.759
764.95	28.574
765.13	29.229
765.31	28.348
765.49	30.638
765.66	26.542
765.84	30.996
766.02	31.392
766.20	30.052
766.38	26.013
766.56	32.119
766.73	28.602
766.91	30.133
767.09	30.205
767.27	33.361
767.45	30.666
767.62	32.923
767.80	26.929
767.98	33.853
768.16	29.236
768.33	35.578
768.51	32.296
768.69	31.581
768.87	35.377
769.05	33.024
769.22	30.693
769.40	37.165
769.58	33.951
769.76	37.210
769.94	33.182
770.11	33.333
770.29	33.660
770.47	35.845
770.65	35.038
770.82	37.224
771.00	34.560
771.18	37.424
771.36	34.984
771.53	36.719
771.71	36.735
771.89	40.103
772.07	39.013
772.25	39.505
772.42	33.376
772.60	37.740
772.78	37.757
772.96	40.090
773.13	39.134
773.31	37.634
773.49	36.584
773.67	37.219
773.84	36.082
774.02	36.416
774.20	34.049
774.37	38.384
774.55	36.708
774.73	39.368
774.91	38.234
775.08	38.501
775.26	36.093
775.44	40.435
775.62	36.676
775.79	37.546
775.97	37.674
776.15	38.495
776.32	31.173
776.50	43.813
776.68	37.140
776.86	47.915
777.03	37.554
777.21	38.596
777.39	32.755
777.56	40.087
777.74	38.519
777.92	39.815
778.10	32.234
778.27	41.096
778.45	40.710
778.63	40.975
778.80	39.218
778.98	38.392
779.16	39.205
779.34	38.748
779.51	37.967
779.69	41.191
779.87	37.154
780.04	41.223
780.22	36.899
780.40	40.870
780.57	38.485
780.75	35.457
780.93	39.941
781.10	40.916
781.28	48.958
781.46	33.923
781.63	41.967
781.81	43.383
781.99	35.259
782.16	38.225
782.34	34.051
782.52	39.718
782.69	42.056
782.87	35.625
783.05	38.720
783.22	41.423
783.40	34.843
783.58	40.940
783.75	38.725
783.93	42.324
784.11	42.122
784.28	42.903
784.46	35.711
784.64	37.564
784.81	36.658
784.99	44.187
785.17	39.965
785.34	35.939
785.52	38.407
785.69	42.286
785.87	35.804
786.05	38.158
786.22	42.238
786.40	47.968
786.58	41.243
786.75	44.970
786.93	38.244
787.11	42.129
787.28	41.269
787.46	41.934
787.63	42.494
787.81	35.752
787.99	42.276
788.16	39.478
788.34	33.759
788.51	34.032
788.69	32.946
788.87	35.711
789.04	38.686
789.22	39.374
789.39	36.458
789.57	35.286
789.75	32.763
789.92	38.364
790.10	35.846
790.27	36.796
790.45	31.331
790.63	34.991
790.80	36.450
790.98	34.352
791.15	34.249
791.33	35.498
791.51	40.021
791.68	41.002
791.86	39.892
792.03	36.323
792.21	37.587
792.39	41.976
792.56	37.818
792.74	41.617
792.91	39.188
793.09	35.305
793.26	38.361
793.44	45.884
793.62	36.055
793.79	43.658
793.97	41.571
794.14	38.515
794.32	44.282
794.49	41.375
794.67	33.479
794.84	37.319
795.02	40.759
795.20	38.866
795.37	41.598
795.55	40.896
795.72	41.540
795.90	37.188
796.07	40.266
796.25	35.259
796.42	38.247
796.60	38.795
796.77	35.849
796.95	36.903
797.13	35.112
797.30	40.533
797.48	34.436
797.65	41.597
797.83	37.248
798.00	40.347
798.18	33.766
798.35	38.196
798.53	39.264
798.70	40.547
798.88	37.216
799.05	40.876
799.23	36.784
799.40	38.376
799.58	41.238
799.75	43.237
799.93	39.892
800.10	36.669
800.28	35.298
800.45	42.056
800.63	35.372
800.80	40.379
800.98	41.030
801.15	39.039
801.33	40.412
801.50	40.305
801.68	33.871
801.85	37.630
802.03	33.169
802.20	33.799
802.38	38.006
802.55	33.560
802.73	43.427
802.90	36.430
803.08	38.001
803.25	40.387
803.43	40.445
803.60	43.602
803.78	45.637
803.95	39.673
804.13	39.835
804.30	41.077
804.48	39.125
804.65	42.339
804.83	40.092
805.00	39.372
805.17	47.733
805.35	34.526
805.52	33.906
805.70	44.348
805.87	45.455
806.05	44.059
806.22	39.987
806.40	35.418
806.57	43.101
806.75	41.158
806.92	40.456
807.09	41.860
807.27	41.107
807.44	43.487
807.62	44.320
807.79	42.143
807.97	36.621
808.14	40.492
808.31	42.775
808.49	41.853
808.66	38.592
808.84	36.120
809.01	40.845
809.19	37.459
809.36	48.803
809.53	44.515
809.71	43.724
809.88	50.035
810.06	46.406
810.23	42.233
810.41	49.790
810.58	50.289
810.75	42.090
810.93	39.658
811.10	43.550
811.28	45.635
811.45	36.975
811.62	43.904
811.80	41.796
811.97	44.198
812.15	49.182
812.32	41.008
812.49	49.057
812.67	43.152
812.84	41.610
813.02	45.462
813.19	45.100
813.36	49.592
813.54	42.028
813.71	44.041
813.89	46.060
814.06	48.234
814.23	53.883
814.41	44.463
814.58	45.872
814.75	48.500
814.93	47.944
815.10	42.714
815.28	44.410
815.45	39.297
815.62	52.045
815.80	34.728
815.97	47.274
816.14	43.398
816.32	45.024
816.49	43.620
816.66	43.850
816.84	39.213
817.01	49.515
817.18	47.540
817.36	45.810
817.53	46.667
817.71	33.896
817.88	38.379
818.05	45.557
818.23	41.838
818.40	42.547
818.57	41.968
818.75	36.200
818.92	36.903
819.09	39.229
819.27	42.825
819.44	40.506
819.61	34.431
819.79	38.255
819.96	45.353
820.13	34.922
820.31	33.756
820.48	37.322
820.65	38.868
820.82	33.826
821.00	37.180
821.17	29.420
821.34	31.744
821.52	33.735
821.69	30.364
821.86	27.464
822.04	26.949
822.21	26.915
822.38	30.761
822.56	26.816
822.73	30.046
822.90	27.810
823.07	30.004
823.25	29.283
823.42	27.744
823.59	26.791
823.77	29.107
823.94	29.153
824.11	28.312
824.29	26.014
824.46	28.770
824.63	28.755
824.80	26.761
824.98	26.975
825.15	29.055
825.32	23.277
825.49	27.264
825.67	25.978
825.84	26.292
826.01	23.964
826.19	27.957
826.36	25.379
826.53	30.196
826.70	26.400
826.88	29.964
827.05	26.395
827.22	26.723
827.39	27.816
827.57	25.459
827.74	23.795
827.91	28.315
828.08	27.121
828.26	25.597
828.43	25.325
828.60	30.021
828.77	26.453
828.95	27.191
829.12	24.131
829.29	24.418
829.46	27.611
829.64	27.511
829.81	23.187
829.98	32.127
830.15	27.670
830.32	29.935
830.50	30.591
830.67	32.373
830.84	30.658
831.01	31.560
831.19	31.526
831.36	37.614
831.53	32.206
831.70	42.227
831.87	39.929
832.05	41.813
832.22	44.727
832.39	37.246
832.56	39.850
832.74	43.937
832.91	40.447
833.08	43.508
833.25	32.841
833.42	37.477
833.60	36.042
833.77	28.556
833.94	31.776
834.11	28.270
834.28	25.659
834.45	31.430
834.63	29.633
834.80	28.287
834.97	29.206
835.14	28.459
835.31	26.681
835.49	25.758
835.66	28.954
835.83	26.190
836.00	27.438
836.17	30.049
836.34	28.620
836.52	27.966
836.69	33.399
836.86	31.911
837.03	34.328
837.20	33.090
837.37	32.813
837.55	36.180
837.72	36.222
837.89	34.418
838.06	35.385
838.23	45.938
838.40	49.697
838.58	40.763
838.75	46.190
838.92	47.758
839.09	57.271
839.26	55.872
839.43	50.694
839.60	56.402
839.78	59.521
839.95	60.082
840.12	54.701
840.29	52.448
840.46	53.221
840.63	56.834
840.80	43.564
840.98	55.928
841.15	45.255
841.32	43.446
841.49	40.587
841.66	54.632
841.83	42.611
842.00	50.000
842.17	53.391
842.34	46.435
842.52	57.215
842.69	63.302
842.86	61.547
843.03	72.064
843.20	53.542
843.37	67.143
843.54	79.144
843.71	60.173
843.88	86.306
844.06	72.222
844.23	70.710
844.40	71.114
844.57	71.328
844.74	74.130
844.91	79.242
845.08	97.588
845.25	98.470
845.42	91.396
845.59	85.476
845.76	75.407
845.94	98.682
846.11	76.231
846.28	80.289
846.45	101.141
846.62	84.300
846.79	74.503
846.96	83.333
847.13	102.641
847.30	92.389
847.47	82.047
847.64	97.353
847.81	98.113
847.98	113.529
848.15	81.752
848.32	104.208
848.50	116.446
848.67	83.636
848.84	111.931
849.01	94.170
849.18	96.746
849.35	108.932
849.52	96.099
849.69	99.535
849.86	111.834
850.03	80.916
850.20	92.540
850.37	88.571
850.54	118.252
850.71	108.468
850.88	107.042
851.05	111.169
851.22	86.612
851.39	110.448
851.56	91.992
851.73	103.257
851.90	102.614
852.07	86.510
852.24	110.337
852.41	129.724
852.58	133.938
852.75	93.869
852.92	116.137
853.09	122.345
853.26	95.435
853.43	100.973
853.60	95.661
853.77	115.812
853.94	94.553
854.11	117.063
854.28	101.597
854.45	114.126
854.62	99.115
854.79	124.941
854.96	110.377
855.13	92.457
855.30	115.556
855.47	153.495
855.64	89.394
855.81	116.304
855.98	113.870
856.15	100.452
856.32	109.610
856.49	107.733
856.66	103.498
856.83	90.598
857.00	113.564
857.17	99.307
857.34	112.471
857.51	103.233
857.68	121.244
857.85	108.369
858.02	104.405
858.19	86.694
858.36	107.991
858.53	128.369
858.70	109.910
858.87	99.355
859.04	100.226
859.21	118.317
859.38	114.675
859.55	129.454
859.72	123.967
859.89	108.616
860.05	121.075
860.22	126.374
860.39	93.168
860.56	118.207
860.73	122.831
860.90	109.168
861.07	127.952
861.24	97.222
861.41	114.768
861.58	98.441
861.75	118.063
861.92	108.520
862.09	100.893
862.26	126.857
862.43	116.667
862.59	112.877
862.76	138.144
862.93	122.766
863.10	116.535
863.27	105.217
863.44	120.241
863.61	113.170
863.78	111.931
863.95	137.107
864.12	94.748
864.29	116.477
864.45	103.234
864.62	112.077
864.79	98.519
864.96	125.728
865.13	110.895
865.30	103.425
865.47	111.195
865.64	125.610
865.81	109.873
865.97	90.043
866.14	99.792
866.31	107.532
866.48	89.495
866.65	86.433
866.82	127.640
866.99	156.091
867.16	90.931
867.33	108.153
867.49	118.310
867.66	114.216
867.83	146.580
868.00	102.344
868.17	103.182
868.34	122.897
868.51	109.677
868.67	114.641
868.84	100.240
869.01	126.735
869.18	104.497
869.35	130.233
869.52	138.032
869.69	110.891
869.85	107.623
870.02	103.194
870.19	131.552
870.36	120.551
870.53	109.459
870.70	137.055
870.86	98.163
871.03	120.235
871.20	122.222
871.37	105.856
871.54	126.648
871.71	100.804
871.87	126.455
872.04	90.947
872.21	124.775
872.38	124.378
872.55	136.010
872.72	107.256
872.88	124.044
873.05	99.335
873.22	114.112
873.39	113.592
873.56	102.551
873.72	101.996
873.89	99.129
874.06	107.736
874.23	108.009
874.40	120.274
874.56	111.753
874.73	114.568
874.90	81.693
875.07	106.024
875.24	100.955
875.40	98.708
875.57	127.528
875.74	108.750
875.91	102.673
876.08	89.931
876.24	160.060
876.41	99.791
876.58	111.111
876.75	101.772
876.92	102.985
877.08	111.848
877.25	109.474
877.42	94.106
877.59	102.899
877.75	108.333
877.92	91.770
878.09	101.758
878.26	103.498
878.42	133.788
878.59	101.367
878.76	99.773
878.93	121.186
879.09	106.195
879.26	83.750
879.43	134.793
879.60	92.955
879.76	79.299
879.93	82.450
880.10	83.842
880.27	74.074
880.43	73.322
880.60	70.121
880.77	60.759
880.94	66.625
881.10	65.663
881.27	53.074
881.44	41.651
881.61	45.787
881.77	43.715
881.94	34.339
882.11	29.746
882.28	29.024
882.44	30.181
882.61	28.472
882.78	28.907
882.94	30.359
883.11	29.811
883.28	28.124
883.45	28.026
883.61	24.773
883.78	25.772
883.95	31.709
884.11	27.395
884.28	26.906
>>>>>End Processed Spectral Data<<<<<
