SpectraSuite Data File
++++++++++++++++++++++++++++++++++++
Date: Wed Sep 25 03:21:54 EST 2019
User: sgrac
Dark Spectrum Present: Yes
Reference Spectrum Present: Yes
Number of Sampled Component Spectra: 1
Spectrometers: USB4E01596
Integration Time (usec): 100000 (USB4E01596)
Spectra Averaged: 3 (USB4E01596)
Boxcar Smoothing: 0 (USB4E01596)
Correct for Electrical Dark: No (USB4E01596)
Strobe/Lamp Enabled: Yes (USB4E01596)
Correct for Detector Non-linearity: No (USB4E01596)
Correct for Stray Light: No (USB4E01596)
Number of Pixels in Processed Spectrum: 3648
>>>>>Begin Processed Spectral Data<<<<<
178.44	-292.308
178.66	-292.308
178.87	-292.308
179.09	-696.875
179.30	696.774
179.52	1426.087
179.74	-813.158
179.95	-483.333
180.17	518.367
180.38	-1142.857
180.60	-1840.000
180.82	-3755.556
181.03	720.930
181.25	-2733.333
181.46	-472.222
181.68	433.333
181.89	-964.516
182.11	8066.667
182.33	705.769
182.54	-18300.000
182.76	556.863
182.97	705.263
183.19	1291.667
183.40	552.174
183.62	1395.000
183.84	421.429
184.05	1038.462
184.27	-2681.818
184.48	24700.000
184.70	1029.630
184.91	571.698
185.13	2357.143
185.34	727.119
185.56	441.379
185.78	1166.667
185.99	568.000
186.21	365.060
186.42	1050.000
186.64	-2666.667
186.85	795.122
187.07	-1092.000
187.28	311.458
187.50	-595.349
187.72	1657.143
187.93	1008.108
188.15	2271.429
188.36	493.750
188.58	460.000
188.79	564.063
189.01	440.984
189.22	366.667
189.44	361.321
189.65	-695.122
189.87	1264.286
190.09	340.385
190.30	281.481
190.52	-363.793
190.73	331.325
190.95	-2471.429
191.16	584.783
191.38	550.000
191.59	362.963
191.81	1516.667
192.02	-2575.000
192.24	-2200.000
192.45	427.419
192.67	-5980.000
192.88	337.209
193.10	395.588
193.31	211.475
193.53	-340.323
193.74	1736.364
193.96	-5350.000
194.18	1921.429
194.39	535.593
194.61	733.333
194.82	422.727
195.04	271.930
195.25	575.000
195.47	-25200.000
195.68	540.000
195.90	364.444
196.11	1423.810
196.33	-257.143
196.54	757.143
196.76	559.677
196.97	230.247
197.19	287.218
197.40	-468.000
197.62	512.500
197.83	1776.471
198.05	401.250
198.26	533.333
198.48	1647.059
198.69	-712.821
198.91	493.750
199.12	-14200.000
199.34	617.073
199.55	1675.000
199.77	522.222
199.98	1252.381
200.20	447.619
200.41	400.000
200.63	334.146
200.84	757.778
201.06	201.899
201.27	-492.982
201.49	-4242.857
201.70	418.182
201.91	-4500.000
202.13	-1706.250
202.34	-790.909
202.56	1568.421
202.77	805.263
202.99	834.043
203.20	380.645
203.42	443.860
203.63	505.634
203.85	-2073.333
204.06	1436.364
204.28	-5940.000
204.49	1190.000
204.71	343.011
204.92	500.000
205.14	2218.750
205.35	840.625
205.56	1607.143
205.78	576.364
205.99	417.073
206.21	761.538
206.42	422.034
206.64	439.062
206.85	651.163
207.07	-676.316
207.28	371.014
207.50	762.162
207.71	787.500
207.93	340.404
208.14	532.000
208.35	688.636
208.57	1806.667
208.78	1268.000
209.00	697.872
209.21	653.333
209.43	320.388
209.64	-2890.909
209.86	623.077
210.07	-1485.714
210.28	326.087
210.50	1247.368
210.71	251.429
210.93	411.538
211.14	363.636
211.36	-2950.000
211.57	484.722
211.78	514.000
212.00	691.489
212.21	705.405
212.43	30500.000
212.64	1044.118
212.86	518.750
213.07	1015.152
213.29	-2193.333
213.50	787.097
213.71	1096.000
213.93	1772.222
214.14	260.000
214.36	199.367
214.57	532.787
214.78	539.216
215.00	447.059
215.21	2038.462
215.43	333.333
215.64	651.163
215.86	751.515
216.07	591.111
216.28	1008.696
216.50	362.037
216.71	418.966
216.93	852.632
217.14	284.685
217.35	1311.538
217.57	233.065
217.78	1289.474
218.00	390.698
218.21	1315.000
218.42	10933.333
218.64	289.076
218.85	782.222
219.07	504.918
219.28	279.825
219.49	887.879
219.71	377.027
219.92	1495.000
220.14	1981.250
220.35	412.121
220.56	183.871
220.78	4720.000
220.99	500.000
221.21	279.661
221.42	621.951
221.63	488.333
221.85	623.913
222.06	249.573
222.28	715.789
222.49	650.000
222.70	248.624
222.92	391.011
223.13	359.091
223.34	265.354
223.56	407.246
223.77	473.016
223.99	1188.462
224.20	251.049
224.41	223.770
224.63	213.934
224.84	429.577
225.05	395.604
225.27	377.922
225.48	250.000
225.69	176.786
225.91	561.538
226.12	233.582
226.34	231.724
226.55	222.609
226.76	188.571
226.98	141.102
227.19	160.345
227.40	148.649
227.62	117.814
227.83	127.046
228.04	90.444
228.26	70.927
228.47	74.936
228.69	68.922
228.90	50.333
229.11	53.592
229.33	51.788
229.54	38.313
229.75	38.813
229.97	36.415
230.18	36.193
230.39	37.531
230.61	44.325
230.82	40.187
231.03	36.014
231.25	47.661
231.46	35.966
231.67	45.046
231.89	43.140
232.10	48.606
232.31	50.903
232.53	54.032
232.74	47.411
232.95	71.534
233.17	47.379
233.38	46.992
233.59	68.151
233.81	53.452
234.02	54.669
234.23	64.567
234.45	58.508
234.66	59.345
234.87	67.298
235.09	49.845
235.30	54.225
235.51	52.690
235.73	49.259
235.94	46.889
236.15	53.191
236.36	34.118
236.58	40.168
236.79	48.125
237.00	42.969
237.22	58.610
237.43	52.709
237.64	35.913
237.86	51.988
238.07	39.662
238.28	54.927
238.50	47.287
238.71	57.602
238.92	58.815
239.13	54.503
239.35	54.911
239.56	39.230
239.77	45.396
239.99	43.759
240.20	52.022
240.41	43.758
240.63	41.467
240.84	36.790
241.05	34.582
241.26	24.876
241.48	24.979
241.69	23.829
241.90	27.408
242.12	17.121
242.33	20.996
242.54	20.971
242.75	16.855
242.97	23.242
243.18	16.021
243.39	16.056
243.61	16.826
243.82	15.605
244.03	15.447
244.24	14.466
244.46	14.588
244.67	16.246
244.88	21.008
245.09	17.241
245.31	20.494
245.52	16.176
245.73	21.205
245.95	39.295
246.16	18.124
246.37	21.185
246.58	18.526
246.80	17.689
247.01	13.714
247.22	9.956
247.43	9.959
247.65	13.343
247.86	10.806
248.07	8.273
248.28	10.103
248.50	10.760
248.71	11.121
248.92	8.773
249.13	9.865
249.35	10.023
249.56	10.224
249.77	11.555
249.98	11.907
250.20	14.534
250.41	14.620
250.62	14.920
250.83	15.374
251.05	20.160
251.26	14.731
251.47	16.534
251.68	18.040
251.90	13.894
252.11	20.492
252.32	19.156
252.53	20.148
252.75	19.875
252.96	14.960
253.17	17.622
253.38	15.787
253.59	13.636
253.81	15.036
254.02	13.703
254.23	18.217
254.44	18.148
254.66	17.695
254.87	19.808
255.08	15.514
255.29	20.122
255.50	22.863
255.72	21.579
255.93	24.865
256.14	19.612
256.35	19.877
256.57	22.523
256.78	23.928
256.99	23.495
257.20	26.473
257.41	18.568
257.63	23.714
257.84	22.516
258.05	18.508
258.26	16.480
258.47	19.611
258.69	14.410
258.90	16.704
259.11	16.874
259.32	11.196
259.53	11.274
259.75	10.793
259.96	11.006
260.17	6.181
260.38	11.046
260.59	7.859
260.81	7.099
261.02	8.492
261.23	5.761
261.44	8.001
261.65	8.257
261.87	5.770
262.08	7.330
262.29	9.347
262.50	6.305
262.71	8.413
262.92	9.358
263.14	9.542
263.35	9.556
263.56	12.304
263.77	13.853
263.98	13.420
264.20	10.515
264.41	16.297
264.62	14.012
264.83	14.247
265.04	19.061
265.25	11.661
265.47	14.483
265.68	19.175
265.89	16.211
266.10	14.324
266.31	14.529
266.52	12.260
266.74	14.309
266.95	15.690
267.16	12.388
267.37	12.496
267.58	12.345
267.79	13.345
268.01	9.771
268.22	7.760
268.43	11.587
268.64	12.523
268.85	9.849
269.06	9.207
269.27	13.961
269.49	9.253
269.70	9.510
269.91	11.107
270.12	10.398
270.33	11.274
270.54	9.677
270.75	11.720
270.97	10.366
271.18	9.624
271.39	10.832
271.60	11.365
271.81	9.772
272.02	10.284
272.23	9.669
272.45	9.917
272.66	9.415
272.87	8.092
273.08	8.252
273.29	9.970
273.50	8.159
273.71	7.843
273.92	7.573
274.14	9.862
274.35	8.755
274.56	10.465
274.77	6.831
274.98	9.545
275.19	9.430
275.40	8.960
275.61	8.736
275.83	12.223
276.04	9.741
276.25	10.272
276.46	11.789
276.67	12.749
276.88	8.890
277.09	8.755
277.30	10.512
277.51	11.582
277.73	10.338
277.94	11.695
278.15	11.165
278.36	13.947
278.57	11.327
278.78	11.055
278.99	10.200
279.20	12.998
279.41	12.855
279.62	11.225
279.84	10.693
280.05	11.042
280.26	10.505
280.47	10.535
280.68	10.812
280.89	11.385
281.10	9.714
281.31	10.496
281.52	10.372
281.73	7.957
281.94	8.229
282.16	9.194
282.37	8.266
282.58	6.912
282.79	10.902
283.00	8.120
283.21	7.681
283.42	9.461
283.63	9.160
283.84	8.380
284.05	8.482
284.26	8.083
284.47	7.736
284.68	8.911
284.89	7.179
285.11	8.090
285.32	6.903
285.53	6.756
285.74	7.888
285.95	8.070
286.16	6.637
286.37	7.167
286.58	7.321
286.79	6.393
287.00	7.639
287.21	7.841
287.42	7.007
287.63	6.344
287.84	6.862
288.05	8.097
288.26	7.305
288.48	8.476
288.69	7.264
288.90	8.145
289.11	8.002
289.32	8.381
289.53	7.625
289.74	5.008
289.95	5.978
290.16	7.383
290.37	7.380
290.58	7.209
290.79	8.084
291.00	6.876
291.21	6.362
291.42	7.394
291.63	7.037
291.84	6.207
292.05	7.802
292.26	6.346
292.47	7.063
292.68	7.562
292.89	10.205
293.10	6.600
293.31	7.349
293.52	8.979
293.73	7.335
293.94	10.101
294.15	7.783
294.36	6.464
294.57	8.481
294.79	7.638
295.00	6.742
295.21	10.179
295.42	6.890
295.63	8.357
295.84	7.116
296.05	4.969
296.26	7.504
296.47	6.660
296.68	7.269
296.89	7.691
297.10	7.240
297.31	5.543
297.52	6.443
297.73	5.980
297.94	4.737
298.15	6.031
298.36	5.890
298.57	5.300
298.78	5.469
298.99	5.326
299.20	5.975
299.41	6.460
299.62	5.850
299.83	4.029
300.04	7.148
300.25	7.129
300.46	6.885
300.67	8.161
300.88	7.249
301.09	6.382
301.30	7.656
301.50	5.253
301.71	8.512
301.92	8.156
302.13	6.183
302.34	7.337
302.55	6.310
302.76	7.379
302.97	6.783
303.18	10.806
303.39	6.314
303.60	8.604
303.81	8.637
304.02	5.283
304.23	6.950
304.44	6.387
304.65	8.705
304.86	6.115
305.07	8.328
305.28	7.552
305.49	9.415
305.70	8.107
305.91	7.028
306.12	9.334
306.33	7.505
306.54	8.075
306.75	7.770
306.96	11.197
307.17	8.559
307.38	8.241
307.58	7.839
307.79	6.965
308.00	7.395
308.21	7.951
308.42	7.207
308.63	6.835
308.84	6.114
309.05	5.305
309.26	6.667
309.47	5.972
309.68	7.070
309.89	8.063
310.10	4.691
310.31	4.614
310.52	5.859
310.73	7.803
310.94	5.856
311.14	6.068
311.35	6.225
311.56	6.394
311.77	6.110
311.98	6.413
312.19	3.578
312.40	6.746
312.61	5.880
312.82	6.042
313.03	5.732
313.24	6.642
313.45	6.188
313.66	6.107
313.86	8.250
314.07	5.435
314.28	7.516
314.49	7.905
314.70	5.885
314.91	8.284
315.12	6.802
315.33	5.942
315.54	8.050
315.75	6.727
315.96	8.308
316.16	6.528
316.37	7.490
316.58	6.264
316.79	7.116
317.00	8.444
317.21	8.878
317.42	7.483
317.63	7.480
317.84	7.253
318.05	7.848
318.25	9.362
318.46	7.746
318.67	7.256
318.88	7.409
319.09	8.435
319.30	6.798
319.51	6.917
319.72	8.613
319.93	7.915
320.13	6.357
320.34	7.482
320.55	7.453
320.76	9.367
320.97	7.823
321.18	9.340
321.39	7.053
321.60	7.583
321.80	9.788
322.01	8.534
322.22	8.972
322.43	7.906
322.64	8.381
322.85	8.465
323.06	8.103
323.27	7.865
323.47	7.450
323.68	8.418
323.89	7.568
324.10	7.739
324.31	5.758
324.52	8.994
324.73	6.117
324.93	6.914
325.14	8.272
325.35	7.408
325.56	7.119
325.77	8.221
325.98	6.432
326.19	7.838
326.39	4.833
326.60	7.288
326.81	7.202
327.02	5.928
327.23	6.657
327.44	8.300
327.64	5.476
327.85	6.893
328.06	6.158
328.27	8.573
328.48	7.143
328.69	5.563
328.90	6.225
329.10	8.032
329.31	7.738
329.52	5.749
329.73	8.199
329.94	6.540
330.15	7.729
330.35	8.282
330.56	8.109
330.77	6.610
330.98	7.567
331.19	6.740
331.39	7.385
331.60	7.336
331.81	6.917
332.02	7.137
332.23	8.176
332.44	5.777
332.64	6.635
332.85	5.817
333.06	7.691
333.27	5.921
333.48	8.329
333.68	6.364
333.89	7.034
334.10	7.976
334.31	7.875
334.52	5.734
334.72	8.277
334.93	5.901
335.14	6.898
335.35	7.855
335.56	8.517
335.76	7.449
335.97	8.097
336.18	5.066
336.39	8.588
336.60	8.621
336.80	6.554
337.01	6.482
337.22	7.373
337.43	7.302
337.64	9.447
337.84	9.519
338.05	8.825
338.26	8.728
338.47	8.716
338.68	5.948
338.88	9.187
339.09	7.637
339.30	7.546
339.51	8.963
339.71	10.060
339.92	7.621
340.13	7.430
340.34	9.350
340.55	7.854
340.75	8.028
340.96	6.469
341.17	8.745
341.38	8.249
341.58	9.591
341.79	8.818
342.00	9.427
342.21	9.025
342.41	7.365
342.62	9.965
342.83	10.950
343.04	6.195
343.24	10.767
343.45	10.917
343.66	9.409
343.87	11.056
344.07	8.639
344.28	11.534
344.49	10.830
344.70	12.577
344.90	9.445
345.11	8.600
345.32	11.080
345.53	11.900
345.73	11.482
345.94	14.223
346.15	14.101
346.36	12.199
346.56	13.195
346.77	14.926
346.98	14.129
347.19	13.896
347.39	13.024
347.60	14.844
347.81	14.724
348.02	14.333
348.22	12.597
348.43	14.130
348.64	12.605
348.84	14.867
349.05	15.156
349.26	17.511
349.47	13.989
349.67	13.920
349.88	16.966
350.09	16.454
350.30	17.770
350.50	16.523
350.71	18.224
350.92	18.284
351.12	15.857
351.33	17.225
351.54	16.664
351.74	19.088
351.95	16.205
352.16	18.680
352.37	20.057
352.57	17.460
352.78	16.266
352.99	19.574
353.19	17.665
353.40	19.451
353.61	20.965
353.82	18.993
354.02	20.022
354.23	19.852
354.44	22.128
354.64	19.758
354.85	20.592
355.06	19.462
355.26	17.834
355.47	19.329
355.68	20.214
355.88	21.283
356.09	20.931
356.30	19.484
356.51	22.101
356.71	21.203
356.92	17.850
357.13	21.860
357.33	21.684
357.54	20.803
357.75	18.035
357.95	21.671
358.16	19.085
358.37	23.747
358.57	18.790
358.78	22.823
358.99	20.955
359.19	21.978
359.40	22.157
359.61	20.702
359.81	22.529
360.02	24.252
360.23	18.594
360.43	20.371
360.64	18.942
360.85	21.452
361.05	19.329
361.26	22.876
361.47	20.579
361.67	21.786
361.88	19.422
362.09	21.646
362.29	18.870
362.50	20.764
362.70	18.807
362.91	21.607
363.12	20.738
363.32	21.514
363.53	21.630
363.74	22.450
363.94	19.418
364.15	23.196
364.36	19.795
364.56	21.530
364.77	21.409
364.98	22.271
365.18	20.417
365.39	21.784
365.59	18.839
365.80	20.106
366.01	21.346
366.21	19.810
366.42	18.091
366.63	22.978
366.83	19.847
367.04	17.662
367.24	21.683
367.45	18.972
367.66	18.472
367.86	19.937
368.07	19.081
368.28	19.732
368.48	20.606
368.69	18.311
368.89	19.362
369.10	21.233
369.31	20.193
369.51	20.303
369.72	20.996
369.92	21.838
370.13	17.047
370.34	19.844
370.54	15.087
370.75	20.878
370.95	17.231
371.16	19.826
371.37	17.428
371.57	18.858
371.78	17.960
371.98	19.723
372.19	20.051
372.40	20.295
372.60	19.916
372.81	19.184
373.01	17.605
373.22	18.592
373.43	19.823
373.63	19.201
373.84	19.733
374.04	19.812
374.25	17.820
374.46	20.149
374.66	18.225
374.87	19.287
375.07	16.871
375.28	18.116
375.48	18.443
375.69	20.017
375.90	16.656
376.10	17.048
376.31	17.452
376.51	16.542
376.72	16.721
376.92	17.068
377.13	18.303
377.34	19.239
377.54	16.867
377.75	19.836
377.95	16.404
378.16	19.621
378.36	18.031
378.57	18.442
378.77	17.360
378.98	18.807
379.19	17.771
379.39	17.132
379.60	17.899
379.80	18.851
380.01	17.910
380.21	17.803
380.42	18.443
380.62	17.674
380.83	17.981
381.04	16.256
381.24	17.133
381.45	18.397
381.65	16.132
381.86	18.421
382.06	17.743
382.27	15.758
382.47	16.702
382.68	18.319
382.88	16.473
383.09	17.076
383.29	16.203
383.50	18.290
383.71	16.520
383.91	18.265
384.12	16.453
384.32	17.955
384.53	16.231
384.73	15.215
384.94	14.847
385.14	16.130
385.35	15.529
385.55	17.033
385.76	15.602
385.96	16.767
386.17	16.828
386.37	17.172
386.58	17.158
386.78	18.172
386.99	14.540
387.19	18.219
387.40	15.748
387.60	18.147
387.81	16.432
388.01	16.298
388.22	16.939
388.42	18.252
388.63	17.694
388.83	17.463
389.04	16.322
389.24	16.604
389.45	16.602
389.65	15.957
389.86	16.042
390.06	15.731
390.27	15.240
390.47	16.574
390.68	15.339
390.88	17.753
391.09	16.747
391.29	16.772
391.50	15.122
391.70	16.397
391.91	15.686
392.11	16.007
392.32	16.195
392.52	16.518
392.73	17.129
392.93	17.196
393.14	16.143
393.34	16.588
393.55	16.254
393.75	16.614
393.95	16.024
394.16	17.045
394.36	16.542
394.57	17.138
394.77	16.089
394.98	16.011
395.18	16.607
395.39	16.223
395.59	15.931
395.80	16.383
396.00	15.608
396.21	16.894
396.41	15.014
396.61	17.017
396.82	16.473
397.02	16.871
397.23	16.021
397.43	16.103
397.64	13.877
397.84	17.507
398.05	13.826
398.25	16.021
398.45	15.279
398.66	16.637
398.86	15.365
399.07	17.393
399.27	15.047
399.48	16.159
399.68	14.650
399.89	15.606
400.09	16.472
400.29	15.496
400.50	15.625
400.70	16.252
400.91	14.383
401.11	15.338
401.32	14.396
401.52	14.252
401.72	14.413
401.93	16.824
402.13	14.204
402.34	14.881
402.54	14.061
402.75	17.154
402.95	13.290
403.15	16.432
403.36	14.035
403.56	15.466
403.77	13.959
403.97	14.209
404.17	12.673
404.38	14.741
404.58	13.748
404.79	15.327
404.99	15.023
405.19	14.916
405.40	14.267
405.60	15.221
405.81	13.343
406.01	15.007
406.21	13.822
406.42	15.300
406.62	15.178
406.83	15.113
407.03	15.817
407.23	14.949
407.44	14.104
407.64	14.488
407.85	14.920
408.05	15.371
408.25	13.278
408.46	15.306
408.66	14.674
408.87	13.844
409.07	13.994
409.27	13.780
409.48	13.853
409.68	14.496
409.88	12.803
410.09	14.523
410.29	13.962
410.50	15.349
410.70	12.896
410.90	14.382
411.11	12.703
411.31	13.643
411.51	13.810
411.72	14.453
411.92	13.480
412.12	13.981
412.33	12.817
412.53	14.262
412.74	12.457
412.94	13.900
413.14	12.993
413.35	13.260
413.55	12.456
413.75	14.919
413.96	12.262
414.16	14.037
414.36	13.962
414.57	13.728
414.77	12.064
414.97	13.984
415.18	13.459
415.38	12.874
415.58	13.094
415.79	13.105
415.99	12.605
416.19	13.972
416.40	13.324
416.60	13.411
416.80	13.458
417.01	13.396
417.21	11.827
417.41	14.155
417.62	13.139
417.82	13.284
418.02	12.670
418.23	13.645
418.43	13.339
418.63	13.481
418.84	13.649
419.04	13.213
419.24	13.401
419.45	13.865
419.65	13.751
419.85	13.862
420.06	13.769
420.26	14.415
420.46	13.769
420.67	14.462
420.87	13.849
421.07	13.720
421.28	13.748
421.48	14.082
421.68	13.680
421.88	14.217
422.09	13.788
422.29	13.880
422.49	13.373
422.70	14.098
422.90	13.927
423.10	14.040
423.31	14.284
423.51	14.259
423.71	13.248
423.91	13.569
424.12	13.810
424.32	13.985
424.52	13.726
424.73	13.535
424.93	13.388
425.13	13.491
425.33	13.689
425.54	13.720
425.74	13.497
425.94	14.211
426.15	13.866
426.35	14.047
426.55	13.319
426.75	14.628
426.96	13.782
427.16	14.161
427.36	14.153
427.57	14.124
427.77	13.491
427.97	13.870
428.17	13.389
428.38	13.796
428.58	11.954
428.78	13.911
428.98	12.762
429.19	12.948
429.39	11.934
429.59	12.812
429.79	12.196
430.00	12.135
430.20	11.775
430.40	12.924
430.60	12.331
430.81	12.927
431.01	12.401
431.21	13.853
431.41	12.472
431.62	12.979
431.82	12.392
432.02	12.921
432.22	12.301
432.43	12.629
432.63	12.367
432.83	12.937
433.03	12.675
433.24	12.272
433.44	12.169
433.64	12.801
433.84	12.782
434.05	12.735
434.25	12.613
434.45	13.117
434.65	12.980
434.85	13.073
435.06	12.728
435.26	13.282
435.46	13.068
435.66	13.537
435.87	12.580
436.07	12.539
436.27	12.429
436.47	13.009
436.67	11.887
436.88	13.307
437.08	12.989
437.28	13.182
437.48	12.373
437.69	13.240
437.89	12.317
438.09	13.531
438.29	11.935
438.49	12.889
438.70	12.845
438.90	12.544
439.10	12.368
439.30	12.978
439.50	12.234
439.71	12.711
439.91	12.207
440.11	13.305
440.31	12.721
440.51	12.531
440.72	12.202
440.92	12.635
441.12	12.835
441.32	12.906
441.52	12.945
441.72	12.912
441.93	12.934
442.13	13.424
442.33	12.851
442.53	13.471
442.73	12.512
442.94	13.063
443.14	13.361
443.34	13.595
443.54	12.731
443.74	12.821
443.94	12.869
444.15	12.528
444.35	12.238
444.55	12.403
444.75	12.655
444.95	12.687
445.15	12.377
445.36	12.738
445.56	11.623
445.76	12.631
445.96	12.290
446.16	12.316
446.36	12.405
446.57	12.679
446.77	12.241
446.97	12.588
447.17	12.461
447.37	12.763
447.57	12.754
447.77	12.929
447.98	12.490
448.18	12.953
448.38	12.774
448.58	12.884
448.78	13.287
448.98	13.260
449.18	13.005
449.39	12.959
449.59	12.402
449.79	12.977
449.99	12.781
450.19	13.011
450.39	12.573
450.59	12.747
450.79	12.199
451.00	13.066
451.20	13.284
451.40	12.443
451.60	11.807
451.80	12.828
452.00	11.992
452.20	12.406
452.40	12.033
452.61	12.233
452.81	12.087
453.01	12.396
453.21	11.652
453.41	12.514
453.61	11.852
453.81	12.280
454.01	11.997
454.21	12.532
454.42	12.437
454.62	12.522
454.82	11.948
455.02	12.478
455.22	11.820
455.42	12.296
455.62	12.037
455.82	11.956
456.02	11.483
456.23	11.961
456.43	11.625
456.63	12.038
456.83	11.317
457.03	12.351
457.23	11.588
457.43	11.921
457.63	11.161
457.83	12.609
458.03	11.037
458.23	11.830
458.43	11.326
458.64	12.247
458.84	11.239
459.04	12.083
459.24	11.636
459.44	12.242
459.64	11.872
459.84	11.903
460.04	11.670
460.24	11.937
460.44	11.898
460.64	12.226
460.84	11.835
461.04	12.297
461.24	12.357
461.45	12.412
461.65	12.406
461.85	12.435
462.05	12.372
462.25	12.208
462.45	12.750
462.65	12.259
462.85	11.476
463.05	12.546
463.25	11.753
463.45	12.347
463.65	11.629
463.85	11.405
464.05	11.729
464.25	12.005
464.45	11.789
464.65	11.724
464.85	11.343
465.05	11.757
465.26	11.904
465.46	11.709
465.66	11.734
465.86	11.694
466.06	10.994
466.26	11.688
466.46	10.710
466.66	11.556
466.86	11.533
467.06	12.058
467.26	11.180
467.46	12.035
467.66	11.201
467.86	11.936
468.06	11.702
468.26	11.296
468.46	11.562
468.66	11.806
468.86	11.059
469.06	11.990
469.26	11.258
469.46	11.708
469.66	11.433
469.86	11.843
470.06	11.364
470.26	12.028
470.46	11.058
470.66	11.667
470.86	10.897
471.06	11.717
471.26	10.208
471.46	11.516
471.66	11.286
471.86	12.136
472.06	11.436
472.26	12.077
472.46	11.861
472.66	11.604
472.86	11.165
473.06	11.436
473.26	11.802
473.46	11.510
473.66	11.269
473.86	11.834
474.06	11.145
474.26	11.425
474.46	10.500
474.66	12.209
474.86	11.588
475.06	11.595
475.26	10.811
475.46	11.746
475.66	10.523
475.86	11.219
476.06	11.982
476.26	11.346
476.46	10.593
476.66	11.568
476.86	10.875
477.06	12.077
477.26	11.014
477.46	11.762
477.65	11.171
477.85	11.660
478.05	10.584
478.25	12.035
478.45	11.177
478.65	11.908
478.85	11.469
479.05	11.628
479.25	11.056
479.45	11.891
479.65	11.035
479.85	11.781
480.05	11.260
480.25	11.765
480.45	11.224
480.65	11.798
480.85	11.124
481.05	11.853
481.25	11.111
481.44	11.593
481.64	11.229
481.84	11.694
482.04	11.693
482.24	11.224
482.44	11.176
482.64	11.403
482.84	11.439
483.04	11.453
483.24	11.259
483.44	11.080
483.64	10.844
483.84	10.922
484.04	11.225
484.23	11.545
484.43	11.514
484.63	11.839
484.83	12.088
485.03	12.730
485.23	12.721
485.43	12.477
485.63	12.300
485.83	12.563
486.03	12.361
486.23	12.556
486.42	12.288
486.62	12.395
486.82	11.833
487.02	11.779
487.22	11.661
487.42	11.545
487.62	11.627
487.82	11.498
488.02	11.298
488.22	11.565
488.41	11.661
488.61	11.874
488.81	11.916
489.01	12.034
489.21	11.988
489.41	12.084
489.61	12.202
489.81	12.251
490.01	12.193
490.20	12.271
490.40	12.267
490.60	12.206
490.80	11.634
491.00	11.677
491.20	11.440
491.40	11.264
491.60	11.381
491.79	11.655
491.99	11.430
492.19	11.613
492.39	11.725
492.59	11.603
492.79	11.663
492.99	11.975
493.19	11.969
493.38	12.104
493.58	12.236
493.78	12.228
493.98	12.081
494.18	11.997
494.38	11.947
494.58	12.359
494.77	11.091
494.97	11.662
495.17	11.449
495.37	11.743
495.57	11.335
495.77	11.444
495.96	11.320
496.16	11.519
496.36	11.424
496.56	11.595
496.76	11.029
496.96	11.557
497.15	11.480
497.35	11.712
497.55	11.192
497.75	11.655
497.95	11.266
498.15	11.767
498.34	11.421
498.54	11.298
498.74	12.057
498.94	12.004
499.14	11.378
499.34	11.822
499.53	11.540
499.73	11.694
499.93	11.363
500.13	11.580
500.33	11.393
500.52	11.837
500.72	11.304
500.92	11.105
501.12	11.413
501.32	11.741
501.52	11.626
501.71	11.599
501.91	11.315
502.11	11.632
502.31	11.009
502.51	12.089
502.70	10.891
502.90	11.552
503.10	11.111
503.30	11.378
503.50	11.299
503.69	11.639
503.89	11.365
504.09	11.647
504.29	11.120
504.48	12.071
504.68	11.299
504.88	11.622
505.08	11.342
505.28	11.457
505.47	11.442
505.67	12.124
505.87	11.311
506.07	11.912
506.27	11.349
506.46	11.846
506.66	11.245
506.86	11.674
507.06	12.042
507.25	11.302
507.45	11.143
507.65	11.283
507.85	11.309
508.04	11.463
508.24	11.836
508.44	11.825
508.64	11.372
508.83	11.795
509.03	11.620
509.23	11.490
509.43	11.658
509.63	11.385
509.82	11.120
510.02	11.539
510.22	11.487
510.42	11.931
510.61	11.522
510.81	11.454
511.01	11.547
511.21	12.058
511.40	11.129
511.60	11.798
511.80	11.510
511.99	12.014
512.19	11.712
512.39	11.632
512.59	11.516
512.78	12.116
512.98	11.749
513.18	12.102
513.38	11.879
513.57	11.935
513.77	11.686
513.97	11.590
514.17	11.826
514.36	11.692
514.56	11.464
514.76	12.280
514.95	11.674
515.15	11.955
515.35	11.430
515.55	11.651
515.74	11.696
515.94	12.177
516.14	11.573
516.33	11.844
516.53	11.759
516.73	11.592
516.93	11.518
517.12	12.020
517.32	11.340
517.52	11.886
517.71	11.587
517.91	11.711
518.11	11.883
518.30	11.690
518.50	11.377
518.70	11.453
518.90	11.924
519.09	12.004
519.29	11.831
519.49	12.072
519.68	11.727
519.88	12.141
520.08	12.002
520.27	12.019
520.47	12.064
520.67	12.187
520.86	12.017
521.06	12.205
521.26	12.112
521.45	12.393
521.65	11.922
521.85	11.964
522.04	11.417
522.24	11.853
522.44	11.833
522.63	11.991
522.83	11.500
523.03	12.017
523.22	11.823
523.42	12.174
523.62	12.169
523.81	11.777
524.01	11.709
524.21	11.846
524.40	11.216
524.60	12.153
524.80	11.762
524.99	11.726
525.19	11.514
525.39	11.521
525.58	11.894
525.78	11.764
525.98	11.793
526.17	12.088
526.37	11.619
526.57	11.874
526.76	12.168
526.96	11.936
527.15	12.037
527.35	12.046
527.55	12.047
527.74	11.987
527.94	12.167
528.14	11.689
528.33	11.833
528.53	11.768
528.72	11.816
528.92	11.765
529.12	11.939
529.31	12.239
529.51	12.250
529.71	12.405
529.90	12.425
530.10	12.501
530.29	12.773
530.49	12.829
530.69	12.851
530.88	12.792
531.08	12.770
531.28	12.660
531.47	12.295
531.67	12.277
531.86	12.335
532.06	12.426
532.26	12.391
532.45	12.250
532.65	12.086
532.84	12.081
533.04	11.816
533.24	11.800
533.43	11.832
533.63	12.396
533.82	12.283
534.02	12.552
534.22	12.341
534.41	12.366
534.61	12.642
534.80	12.513
535.00	12.519
535.19	12.622
535.39	12.604
535.59	12.931
535.78	12.405
535.98	12.396
536.17	12.367
536.37	12.465
536.57	12.287
536.76	12.530
536.96	12.025
537.15	12.433
537.35	11.991
537.54	12.463
537.74	12.739
537.93	12.750
538.13	12.378
538.33	12.743
538.52	12.916
538.72	12.557
538.91	12.905
539.11	12.836
539.30	12.726
539.50	12.933
539.70	12.440
539.89	12.874
540.09	12.253
540.28	12.494
540.48	12.159
540.67	12.484
540.87	12.368
541.06	11.945
541.26	11.963
541.45	12.378
541.65	12.958
541.85	12.771
542.04	12.609
542.24	12.874
542.43	12.940
542.63	12.939
542.82	12.852
543.02	13.237
543.21	13.340
543.41	13.226
543.60	13.489
543.80	13.627
543.99	13.384
544.19	13.327
544.38	13.232
544.58	13.547
544.77	13.191
544.97	13.430
545.16	13.458
545.36	13.522
545.56	13.358
545.75	13.364
545.95	13.108
546.14	13.480
546.34	13.321
546.53	13.561
546.73	13.133
546.92	13.238
547.12	13.454
547.31	13.492
547.51	13.373
547.70	13.402
547.90	13.559
548.09	13.590
548.29	13.572
548.48	13.789
548.68	13.524
548.87	13.890
549.07	13.912
549.26	13.869
549.46	13.704
549.65	14.138
549.84	13.803
550.04	13.762
550.23	13.305
550.43	13.997
550.62	13.770
550.82	14.117
551.01	13.082
551.21	13.980
551.40	13.692
551.60	13.921
551.79	13.421
551.99	13.928
552.18	13.799
552.38	13.788
552.57	14.271
552.77	13.805
552.96	14.023
553.16	14.403
553.35	14.226
553.54	14.603
553.74	14.568
553.93	14.939
554.13	15.157
554.32	14.790
554.52	14.540
554.71	15.348
554.91	14.754
555.10	15.224
555.29	15.010
555.49	15.254
555.68	14.539
555.88	15.039
556.07	14.185
556.27	15.262
556.46	14.951
556.66	15.141
556.85	14.983
557.04	14.996
557.24	15.100
557.43	15.698
557.63	15.232
557.82	15.025
558.02	14.882
558.21	15.609
558.40	14.989
558.60	16.260
558.79	15.479
558.99	16.097
559.18	15.597
559.38	16.097
559.57	16.045
559.76	15.986
559.96	16.266
560.15	16.775
560.35	15.186
560.54	15.946
560.73	15.640
560.93	16.351
561.12	16.196
561.32	16.623
561.51	16.660
561.70	16.896
561.90	16.572
562.09	17.308
562.29	16.593
562.48	16.994
562.67	16.721
562.87	16.881
563.06	17.300
563.26	17.262
563.45	17.300
563.64	17.503
563.84	17.446
564.03	17.629
564.23	17.092
564.42	17.643
564.61	17.433
564.81	17.609
565.00	17.831
565.20	18.111
565.39	17.968
565.58	17.837
565.78	17.731
565.97	17.852
566.16	18.338
566.36	18.607
566.55	18.725
566.74	18.746
566.94	18.654
567.13	18.815
567.33	18.892
567.52	19.324
567.71	18.925
567.91	19.471
568.10	19.136
568.29	19.214
568.49	19.101
568.68	19.407
568.87	19.535
569.07	19.401
569.26	19.837
569.45	19.765
569.65	19.384
569.84	19.376
570.04	19.591
570.23	19.874
570.42	19.268
570.62	19.751
570.81	19.292
571.00	19.790
571.20	19.390
571.39	20.115
571.58	19.699
571.78	20.183
571.97	20.093
572.16	20.063
572.36	19.755
572.55	19.750
572.74	20.026
572.94	20.064
573.13	20.317
573.32	19.944
573.51	20.090
573.71	20.453
573.90	20.770
574.09	20.751
574.29	20.551
574.48	19.961
574.67	20.447
574.87	20.886
575.06	20.298
575.25	20.716
575.45	20.520
575.64	21.137
575.83	20.049
576.03	21.419
576.22	20.820
576.41	20.711
576.60	20.974
576.80	20.767
576.99	20.946
577.18	21.512
577.38	20.919
577.57	20.833
577.76	21.042
577.95	20.953
578.15	20.778
578.34	21.473
578.53	20.652
578.73	21.004
578.92	20.973
579.11	21.483
579.30	21.418
579.50	20.919
579.69	21.181
579.88	21.362
580.08	20.455
580.27	21.568
580.46	20.759
580.65	20.963
580.85	20.170
581.04	21.656
581.23	20.530
581.42	20.846
581.62	20.078
581.81	20.344
582.00	20.907
582.19	21.207
582.39	20.819
582.58	20.898
582.77	20.939
582.96	21.150
583.16	20.768
583.35	20.766
583.54	20.806
583.73	20.766
583.93	20.404
584.12	21.030
584.31	19.437
584.50	20.583
584.70	20.566
584.89	21.248
585.08	20.362
585.27	21.254
585.47	19.788
585.66	20.971
585.85	20.389
586.04	20.579
586.24	20.367
586.43	20.425
586.62	19.823
586.81	20.854
587.00	19.569
587.20	20.487
587.39	20.023
587.58	20.302
587.77	20.473
587.97	20.378
588.16	19.991
588.35	20.564
588.54	19.749
588.73	20.321
588.93	20.736
589.12	20.657
589.31	19.968
589.50	20.406
589.69	20.501
589.89	20.855
590.08	19.734
590.27	20.662
590.46	19.933
590.65	20.272
590.85	19.719
591.04	20.586
591.23	20.240
591.42	20.713
591.61	20.662
591.81	20.455
592.00	20.205
592.19	20.967
592.38	20.340
592.57	20.893
592.77	20.794
592.96	20.562
593.15	21.216
593.34	20.870
593.53	20.527
593.72	20.722
593.92	20.090
594.11	21.119
594.30	20.326
594.49	20.747
594.68	20.774
594.87	21.052
595.07	20.209
595.26	20.841
595.45	21.107
595.64	21.102
595.83	19.843
596.02	21.732
596.22	21.272
596.41	21.604
596.60	20.534
596.79	20.909
596.98	20.590
597.17	21.257
597.37	20.656
597.56	21.267
597.75	21.396
597.94	21.778
598.13	21.577
598.32	21.551
598.51	21.489
598.71	21.796
598.90	21.334
599.09	22.010
599.28	21.736
599.47	21.475
599.66	21.918
599.85	22.038
600.05	21.532
600.24	21.288
600.43	22.128
600.62	22.046
600.81	21.841
601.00	22.348
601.19	21.631
601.38	22.245
601.58	22.078
601.77	21.493
601.96	21.766
602.15	23.063
602.34	21.611
602.53	22.372
602.72	21.735
602.91	22.135
603.10	21.762
603.30	22.593
603.49	22.122
603.68	22.557
603.87	22.224
604.06	22.200
604.25	22.793
604.44	22.381
604.63	22.577
604.82	22.656
605.01	22.526
605.21	22.700
605.40	22.441
605.59	22.785
605.78	22.827
605.97	22.492
606.16	22.956
606.35	22.937
606.54	23.291
606.73	22.388
606.92	22.200
607.11	22.341
607.30	22.632
607.50	23.142
607.69	21.957
607.88	23.784
608.07	22.255
608.26	22.192
608.45	21.957
608.64	22.419
608.83	21.100
609.02	22.178
609.21	21.932
609.40	22.551
609.59	22.109
609.78	22.166
609.97	21.558
610.16	22.053
610.35	21.417
610.55	21.463
610.74	22.033
610.93	22.098
611.12	21.501
611.31	21.909
611.50	21.434
611.69	21.740
611.88	21.245
612.07	22.049
612.26	20.786
612.45	20.925
612.64	21.296
612.83	21.702
613.02	20.042
613.21	20.909
613.40	20.657
613.59	21.751
613.78	19.948
613.97	21.179
614.16	20.495
614.35	20.422
614.54	19.116
614.73	20.063
614.92	20.362
615.11	20.155
615.30	20.348
615.49	20.734
615.68	19.137
615.87	20.176
616.07	19.527
616.26	19.768
616.45	19.710
616.64	19.281
616.83	19.841
617.02	20.447
617.21	17.769
617.40	19.912
617.59	19.907
617.78	19.814
617.97	18.707
618.16	18.554
618.35	17.744
618.54	19.690
618.73	18.735
618.92	19.350
619.11	19.044
619.30	19.768
619.49	17.517
619.68	19.568
619.86	17.893
620.05	19.222
620.24	17.972
620.43	18.960
620.62	17.300
620.81	19.077
621.00	19.118
621.19	20.491
621.38	18.753
621.57	19.713
621.76	18.088
621.95	19.252
622.14	18.668
622.33	19.399
622.52	18.571
622.71	18.327
622.90	17.315
623.09	18.174
623.28	17.919
623.47	18.946
623.66	17.981
623.85	18.146
624.04	16.878
624.23	18.372
624.42	17.519
624.61	18.069
624.80	17.004
624.99	18.288
625.18	16.420
625.36	18.288
625.55	18.793
625.74	18.428
625.93	17.829
626.12	18.130
626.31	18.730
626.50	18.562
626.69	18.635
626.88	18.759
627.07	18.542
627.26	18.057
627.45	18.422
627.64	18.737
627.83	18.218
628.02	18.945
628.20	18.065
628.39	18.972
628.58	18.640
628.77	19.077
628.96	18.045
629.15	17.849
629.34	18.345
629.53	18.147
629.72	17.259
629.91	18.761
630.10	17.257
630.29	18.321
630.47	16.940
630.66	17.854
630.85	17.296
631.04	18.252
631.23	18.254
631.42	18.177
631.61	17.031
631.80	19.014
631.99	16.683
632.18	17.158
632.36	16.552
632.55	17.699
632.74	16.723
632.93	16.561
633.12	17.160
633.31	17.965
633.50	17.763
633.69	17.525
633.88	16.639
634.06	18.090
634.25	16.703
634.44	17.694
634.63	17.468
634.82	18.616
635.01	16.391
635.20	17.576
635.39	16.663
635.57	17.795
635.76	16.474
635.95	17.922
636.14	16.409
636.33	17.490
636.52	16.876
636.71	17.299
636.89	17.268
637.08	17.066
637.27	16.793
637.46	17.300
637.65	17.201
637.84	16.946
638.03	16.056
638.21	17.825
638.40	16.831
638.59	16.752
638.78	17.155
638.97	17.387
639.16	16.804
639.34	16.690
639.53	14.753
639.72	17.527
639.91	16.321
640.10	16.038
640.29	17.284
640.47	17.045
640.66	16.147
640.85	17.871
641.04	15.335
641.23	17.265
641.42	16.168
641.60	16.289
641.79	16.069
641.98	15.790
642.17	16.436
642.36	16.390
642.54	14.519
642.73	16.096
642.92	15.528
643.11	16.041
643.30	15.385
643.49	16.735
643.67	14.231
643.86	15.915
644.05	14.421
644.24	16.994
644.43	15.705
644.61	16.646
644.80	15.626
644.99	16.260
645.18	16.078
645.37	16.673
645.55	14.741
645.74	16.391
645.93	16.083
646.12	17.285
646.31	16.028
646.49	15.840
646.68	16.274
646.87	16.876
647.06	15.153
647.24	16.618
647.43	15.483
647.62	18.043
647.81	14.862
648.00	16.548
648.18	13.400
648.37	16.262
648.56	15.382
648.75	16.923
648.93	15.201
649.12	16.052
649.31	15.030
649.50	15.524
649.68	15.699
649.87	15.923
650.06	14.493
650.25	15.977
650.43	15.046
650.62	17.002
650.81	14.286
651.00	15.020
651.18	15.024
651.37	16.870
651.56	14.598
651.75	16.225
651.93	14.908
652.12	16.634
652.31	14.765
652.50	15.735
652.68	15.965
652.87	16.305
653.06	15.399
653.25	16.197
653.43	15.988
653.62	16.058
653.81	14.325
654.00	16.610
654.18	14.685
654.37	15.996
654.56	14.569
654.74	14.984
654.93	13.955
655.12	14.445
655.31	14.644
655.49	15.919
655.68	13.180
655.87	13.568
656.05	12.399
656.24	13.929
656.43	12.228
656.62	14.616
656.80	14.134
656.99	12.959
657.18	12.314
657.36	13.213
657.55	13.316
657.74	13.799
657.93	13.609
658.11	15.048
658.30	14.127
658.49	12.592
658.67	12.469
658.86	12.568
659.05	12.897
659.23	13.963
659.42	11.778
659.61	14.227
659.79	13.288
659.98	14.450
660.17	13.634
660.35	14.444
660.54	13.885
660.73	14.749
660.91	13.442
661.10	13.098
661.29	10.911
661.47	13.068
661.66	12.607
661.85	12.621
662.03	12.499
662.22	11.813
662.41	9.823
662.59	11.273
662.78	10.817
662.97	10.141
663.15	9.975
663.34	10.311
663.53	10.559
663.71	11.620
663.90	10.574
664.09	11.763
664.27	10.391
664.46	10.245
664.65	10.229
664.83	10.269
665.02	9.695
665.21	8.554
665.39	8.906
665.58	10.465
665.77	9.792
665.95	10.295
666.14	8.387
666.32	9.965
666.51	8.570
666.70	9.137
666.88	8.996
667.07	9.524
667.26	8.175
667.44	8.969
667.63	9.718
667.81	8.564
668.00	10.732
668.19	11.188
668.37	9.505
668.56	11.216
668.75	8.412
668.93	9.994
669.12	8.803
669.30	9.836
669.49	9.595
669.68	9.952
669.86	10.053
670.05	8.610
670.23	9.151
670.42	8.894
670.61	10.410
670.79	10.706
670.98	9.405
671.16	11.133
671.35	8.992
671.54	10.485
671.72	8.194
671.91	10.525
672.09	8.170
672.28	10.450
672.46	10.997
672.65	9.634
672.84	11.398
673.02	10.296
673.21	7.624
673.39	9.289
673.58	10.728
673.77	10.883
673.95	9.730
674.14	12.015
674.32	9.311
674.51	12.443
674.69	10.280
674.88	11.073
675.07	9.394
675.25	12.486
675.44	10.455
675.62	9.650
675.81	9.644
675.99	15.635
676.18	11.090
676.36	10.733
676.55	9.761
676.74	10.953
676.92	12.641
677.11	11.621
677.29	10.325
677.48	13.317
677.66	11.547
677.85	11.910
678.03	10.674
678.22	12.924
678.40	12.092
678.59	10.914
678.78	8.803
678.96	11.098
679.15	9.806
679.33	13.566
679.52	13.072
679.70	11.821
679.89	10.697
680.07	12.579
680.26	10.867
680.44	12.134
680.63	12.500
680.81	11.196
681.00	10.225
681.18	11.972
681.37	11.322
681.55	13.726
681.74	13.563
681.92	13.244
682.11	12.941
682.29	12.537
682.48	11.414
682.66	13.293
682.85	12.517
683.03	12.743
683.22	13.732
683.40	15.574
683.59	13.759
683.77	13.508
683.96	12.320
684.14	15.261
684.33	10.742
684.51	15.692
684.70	13.479
684.88	16.518
685.07	13.974
685.25	15.937
685.44	12.935
685.62	15.498
685.81	12.451
685.99	14.867
686.18	13.094
686.36	15.472
686.55	12.579
686.73	15.862
686.92	15.086
687.10	16.338
687.29	16.858
687.47	16.367
687.65	16.099
687.84	15.108
688.02	20.073
688.21	19.276
688.39	15.870
688.58	18.524
688.76	16.702
688.95	17.984
689.13	16.933
689.32	19.723
689.50	18.531
689.68	19.319
689.87	18.521
690.05	18.850
690.24	18.992
690.42	20.054
690.61	20.594
690.79	21.196
690.98	20.628
691.16	19.675
691.34	17.942
691.53	21.285
691.71	19.909
691.90	21.964
692.08	18.758
692.27	24.566
692.45	24.022
692.63	22.577
692.82	24.714
693.00	22.708
693.19	22.323
693.37	25.385
693.56	23.573
693.74	27.101
693.92	23.220
694.11	26.728
694.29	26.654
694.48	28.189
694.66	25.899
694.84	28.929
695.03	26.062
695.21	31.997
695.40	29.451
695.58	31.420
695.76	28.936
695.95	31.353
696.13	30.197
696.32	32.909
696.50	34.820
696.68	33.289
696.87	30.050
697.05	34.883
697.24	33.088
697.42	35.331
697.60	32.914
697.79	35.555
697.97	34.292
698.16	36.926
698.34	34.878
698.52	38.157
698.71	35.849
698.89	36.882
699.07	37.731
699.26	38.214
699.44	38.962
699.63	39.604
699.81	38.671
699.99	38.808
700.18	39.129
700.36	40.839
700.54	39.954
700.73	39.828
700.91	41.142
701.09	40.989
701.28	42.441
701.46	43.169
701.64	41.789
701.83	43.018
702.01	39.666
702.20	43.701
702.38	43.559
702.56	44.162
702.75	42.861
702.93	44.700
703.11	43.009
703.30	46.806
703.48	46.492
703.66	47.462
703.85	45.952
704.03	49.155
704.21	46.522
704.40	48.444
704.58	46.133
704.76	48.575
704.95	45.595
705.13	50.840
705.31	48.331
705.50	50.771
705.68	47.410
705.86	48.667
706.04	47.989
706.23	50.227
706.41	49.349
706.59	51.658
706.78	46.589
706.96	49.126
707.14	48.466
707.33	50.885
707.51	49.612
707.69	49.045
707.88	48.971
708.06	51.763
708.24	50.759
708.42	50.659
708.61	52.079
708.79	54.193
708.97	50.979
709.16	52.717
709.34	53.070
709.52	54.270
709.71	51.950
709.89	52.860
710.07	49.842
710.25	55.021
710.44	51.019
710.62	52.315
710.80	51.502
710.98	54.550
711.17	51.554
711.35	52.873
711.53	50.367
711.72	52.523
711.90	53.521
712.08	53.260
712.26	50.719
712.45	54.192
712.63	53.048
712.81	54.457
712.99	53.255
713.18	53.989
713.36	53.973
713.54	54.682
713.72	52.838
713.91	54.297
714.09	53.439
714.27	56.293
714.45	53.743
714.64	56.347
714.82	53.781
715.00	54.485
715.18	54.553
715.37	55.520
715.55	54.482
715.73	55.531
715.91	54.389
716.10	54.937
716.28	52.989
716.46	55.582
716.64	54.380
716.83	57.052
717.01	55.169
717.19	55.907
717.37	55.244
717.55	54.954
717.74	52.484
717.92	53.518
718.10	54.384
718.28	56.275
718.47	53.650
718.65	56.348
718.83	56.809
719.01	57.186
719.19	53.172
719.38	56.720
719.56	56.392
719.74	56.071
719.92	51.983
720.10	55.217
720.29	54.827
720.47	55.950
720.65	56.598
720.83	55.651
721.01	52.419
721.20	56.837
721.38	53.961
721.56	56.970
721.74	55.420
721.92	57.479
722.11	56.618
722.29	57.366
722.47	55.487
722.65	60.189
722.83	59.087
723.01	57.196
723.20	56.341
723.38	57.430
723.56	56.778
723.74	58.596
723.92	58.612
724.10	57.256
724.29	52.535
724.47	59.104
724.65	57.092
724.83	62.082
725.01	56.183
725.19	53.474
725.38	56.872
725.56	58.816
725.74	57.002
725.92	59.689
726.10	55.647
726.28	60.309
726.46	59.613
726.65	58.047
726.83	54.998
727.01	58.380
727.19	59.614
727.37	56.566
727.55	57.516
727.73	55.882
727.92	55.906
728.10	60.200
728.28	54.453
728.46	57.226
728.64	56.966
728.82	58.439
729.00	58.957
729.19	60.817
729.37	56.592
729.55	57.734
729.73	57.137
729.91	58.941
730.09	57.256
730.27	57.988
730.45	56.447
730.63	57.295
730.82	57.271
731.00	59.279
731.18	56.731
731.36	59.626
731.54	57.959
731.72	58.300
731.90	57.823
732.08	60.282
732.26	56.629
732.45	60.514
732.63	55.947
732.81	57.797
732.99	58.123
733.17	61.344
733.35	58.432
733.53	56.878
733.71	59.881
733.89	60.102
734.07	59.426
734.25	59.653
734.44	56.910
734.62	59.365
734.80	56.731
734.98	61.058
735.16	59.283
735.34	59.739
735.52	59.186
735.70	60.947
735.88	58.493
736.06	60.670
736.24	59.809
736.42	59.375
736.60	60.964
736.78	62.289
736.97	58.681
737.15	61.372
737.33	56.067
737.51	59.762
737.69	60.597
737.87	60.981
738.05	59.943
738.23	60.504
738.41	59.806
738.59	60.269
738.77	57.705
738.95	61.086
739.13	59.043
739.31	59.405
739.49	60.422
739.67	59.370
739.85	61.244
740.03	61.059
740.21	61.760
740.39	59.947
740.57	59.810
740.75	60.281
740.93	58.277
741.11	59.848
741.30	58.843
741.48	60.813
741.66	62.143
741.84	61.842
742.02	58.549
742.20	61.666
742.38	61.005
742.56	66.113
742.74	55.119
742.92	59.491
743.10	58.333
743.28	61.082
743.46	58.491
743.64	61.376
743.82	59.921
744.00	61.279
744.18	59.479
744.36	58.989
744.54	59.015
744.72	62.686
744.90	62.179
745.08	62.567
745.26	61.229
745.44	61.997
745.62	58.538
745.80	60.282
745.98	58.567
746.16	64.189
746.34	58.506
746.52	58.267
746.70	56.806
746.87	63.129
747.05	59.346
747.23	62.837
747.41	61.549
747.59	60.308
747.77	58.778
747.95	62.968
748.13	60.134
748.31	63.609
748.49	61.127
748.67	60.876
748.85	59.295
749.03	62.924
749.21	62.114
749.39	63.254
749.57	55.158
749.75	63.491
749.93	59.910
750.11	61.075
750.29	59.166
750.47	60.237
750.65	60.502
750.83	61.075
751.01	58.941
751.18	59.415
751.36	58.483
751.54	60.206
751.72	62.570
751.90	57.984
752.08	58.284
752.26	58.730
752.44	60.321
752.62	59.701
752.80	60.406
752.98	59.932
753.16	58.784
753.34	57.216
753.52	58.876
753.69	62.398
753.87	57.962
754.05	59.723
754.23	59.007
754.41	59.659
754.59	60.472
754.77	58.918
754.95	56.906
755.13	60.437
755.31	55.566
755.49	61.876
755.66	59.089
755.84	58.320
756.02	61.720
756.20	62.169
756.38	58.129
756.56	61.621
756.74	57.047
756.92	62.747
757.10	57.689
757.28	65.458
757.45	61.827
757.63	61.566
757.81	55.660
757.99	64.093
758.17	59.993
758.35	60.291
758.53	58.860
758.71	59.527
758.88	56.414
759.06	59.225
759.24	56.226
759.42	57.666
759.60	57.898
759.78	54.672
759.96	54.878
760.13	58.074
760.31	53.542
760.49	53.538
760.67	47.430
760.85	55.772
761.03	49.768
761.21	51.582
761.38	49.270
761.56	55.259
761.74	51.803
761.92	59.658
762.10	47.724
762.28	54.559
762.46	48.596
762.63	50.840
762.81	49.244
762.99	52.783
763.17	51.701
763.35	53.651
763.53	53.300
763.70	56.112
763.88	55.321
764.06	55.001
764.24	54.248
764.42	54.802
764.60	52.055
764.77	56.143
764.95	56.541
765.13	58.399
765.31	55.666
765.49	56.602
765.66	54.771
765.84	54.975
766.02	51.802
766.20	59.689
766.38	56.178
766.56	55.478
766.73	54.594
766.91	55.152
767.09	58.138
767.27	61.519
767.45	54.413
767.62	55.312
767.80	57.134
767.98	59.349
768.16	54.323
768.33	59.812
768.51	58.114
768.69	59.350
768.87	53.936
769.05	59.486
769.22	53.329
769.40	62.630
769.58	58.817
769.76	59.799
769.94	58.471
770.11	59.477
770.29	58.058
770.47	58.967
770.65	57.652
770.82	59.859
771.00	56.043
771.18	60.550
771.36	56.381
771.53	56.448
771.71	56.608
771.89	57.709
772.07	55.997
772.25	59.102
772.42	57.523
772.60	60.286
772.78	55.637
772.96	64.535
773.13	60.591
773.31	61.981
773.49	53.422
773.67	56.940
773.84	55.205
774.02	57.858
774.20	57.601
774.37	58.171
774.55	57.909
774.73	61.948
774.91	57.480
775.08	61.395
775.26	57.315
775.44	60.309
775.62	54.554
775.79	57.245
775.97	55.753
776.15	56.871
776.32	53.916
776.50	64.861
776.68	55.192
776.86	60.421
777.03	55.189
777.21	60.785
777.39	55.724
777.56	58.153
777.74	54.581
777.92	57.993
778.10	53.570
778.27	62.059
778.45	55.622
778.63	59.115
778.80	60.455
778.98	62.986
779.16	60.694
779.34	56.913
779.51	58.361
779.69	62.523
779.87	57.617
780.04	57.265
780.22	55.835
780.40	58.527
780.57	54.845
780.75	58.781
780.93	65.794
781.10	59.468
781.28	61.182
781.46	54.057
781.63	55.507
781.81	60.997
781.99	48.974
782.16	52.079
782.34	54.507
782.52	58.186
782.69	60.522
782.87	60.493
783.05	58.277
783.22	55.326
783.40	53.491
783.58	61.239
783.75	57.409
783.93	58.535
784.11	55.482
784.28	59.475
784.46	53.142
784.64	61.742
784.81	54.291
784.99	64.731
785.17	54.716
785.34	58.958
785.52	54.896
785.69	58.913
785.87	50.029
786.05	55.556
786.22	56.236
786.40	61.530
786.58	55.437
786.75	60.541
786.93	52.955
787.11	57.426
787.28	53.454
787.46	62.390
787.63	54.896
787.81	57.633
787.99	56.119
788.16	58.560
788.34	53.423
788.51	56.331
788.69	54.292
788.87	58.550
789.04	49.806
789.22	60.251
789.39	54.730
789.57	53.387
789.75	48.476
789.92	56.090
790.10	52.837
790.27	56.628
790.45	54.935
790.63	60.340
790.80	52.558
790.98	57.446
791.15	51.580
791.33	52.891
791.51	47.479
791.68	53.242
791.86	57.859
792.03	59.443
792.21	47.377
792.39	56.500
792.56	55.297
792.74	57.352
792.91	57.981
793.09	58.725
793.26	48.419
793.44	59.140
793.62	48.170
793.79	58.173
793.97	51.761
794.14	52.212
794.32	50.588
794.49	62.875
794.67	51.047
794.84	52.680
795.02	55.978
795.20	56.496
795.37	46.224
795.55	58.640
795.72	54.193
795.90	52.860
796.07	55.369
796.25	60.263
796.42	52.410
796.60	52.977
796.77	55.190
796.95	56.185
797.13	48.475
797.30	59.989
797.48	51.711
797.65	57.490
797.83	49.944
798.00	57.288
798.18	51.737
798.35	58.888
798.53	57.489
798.70	57.175
798.88	48.987
799.05	56.957
799.23	53.206
799.40	54.256
799.58	57.007
799.75	54.540
799.93	46.021
800.10	57.380
800.28	53.663
800.45	53.244
800.63	45.409
800.80	54.384
800.98	54.888
801.15	54.418
801.33	55.211
801.50	55.975
801.68	47.145
801.85	49.123
802.03	50.782
802.20	56.631
802.38	53.380
802.55	53.648
802.73	54.430
802.90	52.996
803.08	49.031
803.25	58.477
803.43	52.635
803.60	62.859
803.78	47.706
803.95	50.633
804.13	53.821
804.30	54.423
804.48	56.951
804.65	49.653
804.83	51.208
805.00	55.994
805.17	50.034
805.35	53.278
805.52	45.545
805.70	57.249
805.87	55.424
806.05	50.457
806.22	50.031
806.40	54.539
806.57	53.655
806.75	58.276
806.92	54.492
807.09	56.899
807.27	53.072
807.44	59.461
807.62	50.097
807.79	52.802
807.97	54.420
808.14	55.848
808.31	47.047
808.49	51.116
808.66	51.416
808.84	49.472
809.01	56.101
809.19	53.376
809.36	59.785
809.53	53.772
809.71	47.547
809.88	55.917
810.06	58.891
810.23	54.334
810.41	57.290
810.58	57.185
810.75	51.417
810.93	49.552
811.10	54.464
811.28	52.885
811.45	52.348
811.62	50.708
811.80	49.656
811.97	58.632
812.15	58.984
812.32	48.516
812.49	53.428
812.67	53.232
812.84	48.795
813.02	60.447
813.19	44.825
813.36	58.190
813.54	50.000
813.71	55.253
813.89	51.130
814.06	52.636
814.23	49.878
814.41	43.695
814.58	50.813
814.75	49.872
814.93	47.634
815.10	51.274
815.28	36.417
815.45	46.282
815.62	63.677
815.80	48.401
815.97	50.353
816.14	56.653
816.32	53.188
816.49	40.592
816.66	47.155
816.84	49.146
817.01	55.141
817.18	54.623
817.36	51.253
817.53	47.261
817.71	46.477
817.88	51.214
818.05	48.589
818.23	48.796
818.40	47.239
818.57	58.127
818.75	47.591
818.92	47.032
819.09	48.782
819.27	51.852
819.44	44.376
819.61	45.080
819.79	44.818
819.96	56.815
820.13	46.198
820.31	51.627
820.48	52.588
820.65	46.785
820.82	46.744
821.00	49.132
821.17	41.856
821.34	49.276
821.52	52.381
821.69	49.196
821.86	47.756
822.04	54.952
822.21	53.899
822.38	54.307
822.56	53.923
822.73	55.036
822.90	53.391
823.07	54.640
823.25	52.035
823.42	54.453
823.59	52.239
823.77	54.053
823.94	52.329
824.11	52.130
824.29	51.803
824.46	53.421
824.63	53.136
824.80	52.410
824.98	52.759
825.15	53.434
825.32	51.766
825.49	54.108
825.67	50.439
825.84	56.385
826.01	53.744
826.19	54.422
826.36	49.930
826.53	55.255
826.70	52.088
826.88	52.359
827.05	47.844
827.22	50.771
827.39	52.442
827.57	52.215
827.74	46.964
827.91	53.447
828.08	50.923
828.26	51.016
828.43	50.135
828.60	55.217
828.77	51.585
828.95	52.484
829.12	48.729
829.29	47.389
829.46	49.622
829.64	49.843
829.81	43.765
829.98	52.524
830.15	47.872
830.32	50.168
830.50	46.150
830.67	46.176
830.84	40.131
831.01	45.838
831.19	41.020
831.36	49.083
831.53	53.825
831.70	51.573
831.87	44.500
832.05	51.187
832.22	52.436
832.39	42.086
832.56	44.628
832.74	47.866
832.91	45.556
833.08	50.803
833.25	42.075
833.42	43.067
833.60	49.263
833.77	43.335
833.94	45.250
834.11	45.980
834.28	41.674
834.45	47.638
834.63	44.148
834.80	47.642
834.97	45.390
835.14	45.716
835.31	47.120
835.49	45.705
835.66	46.203
835.83	44.886
836.00	43.035
836.17	46.218
836.34	42.027
836.52	43.033
836.69	47.833
836.86	47.006
837.03	44.369
837.20	45.841
837.37	41.014
837.55	42.769
837.72	43.027
837.89	43.333
838.06	49.173
838.23	52.757
838.40	48.815
838.58	44.900
838.75	51.925
838.92	55.205
839.09	57.642
839.26	55.131
839.43	56.715
839.60	62.179
839.78	61.583
839.95	55.991
840.12	48.688
840.29	65.941
840.46	62.628
840.63	50.153
840.80	53.242
840.98	55.498
841.15	50.251
841.32	49.158
841.49	42.130
841.66	59.078
841.83	50.610
842.00	46.344
842.17	57.172
842.34	50.298
842.52	59.177
842.69	62.745
842.86	51.499
843.03	63.451
843.20	60.386
843.37	54.000
843.54	59.903
843.71	60.541
843.88	55.099
844.06	71.368
844.23	59.872
844.40	55.503
844.57	62.697
844.74	67.334
844.91	59.742
845.08	68.462
845.25	64.310
845.42	78.514
845.59	65.549
845.76	70.497
845.94	73.906
846.11	68.591
846.28	68.803
846.45	85.890
846.62	86.932
846.79	74.811
846.96	75.922
847.13	80.665
847.30	68.958
847.47	70.330
847.64	80.864
847.81	73.393
847.98	93.644
848.15	76.693
848.32	75.488
848.50	74.242
848.67	63.027
848.84	86.430
849.01	65.490
849.18	95.047
849.35	88.235
849.52	79.963
849.69	81.237
849.86	97.192
850.03	88.125
850.20	84.762
850.37	70.000
850.54	76.559
850.71	65.638
850.88	94.872
851.05	78.587
851.22	80.086
851.39	78.624
851.56	90.148
851.73	87.793
851.90	84.841
852.07	77.263
852.24	82.456
852.41	89.391
852.58	93.013
852.75	83.871
852.92	88.176
853.09	85.934
853.26	93.246
853.43	88.110
853.60	87.327
853.77	90.506
853.94	73.763
854.11	99.740
854.28	103.401
854.45	79.021
854.62	78.308
854.79	93.864
854.96	86.538
855.13	91.364
855.30	71.486
855.47	112.601
855.64	70.541
855.81	91.980
855.98	88.208
856.15	87.636
856.32	83.333
856.49	95.775
856.66	80.186
856.83	83.300
857.00	82.857
857.17	96.145
857.34	81.299
857.51	109.593
857.68	69.263
857.85	80.769
858.02	90.719
858.19	70.944
858.36	79.733
858.53	89.130
858.70	76.566
858.87	73.673
859.04	72.314
859.21	80.296
859.38	87.972
859.55	121.779
859.72	70.276
859.89	96.250
860.05	101.628
860.22	97.808
860.39	76.650
860.56	91.202
860.73	84.797
860.90	112.462
861.07	130.280
861.24	75.810
861.41	86.585
861.58	87.437
861.75	90.000
861.92	99.032
862.09	79.648
862.26	77.694
862.43	109.302
862.59	95.814
862.76	86.427
862.93	105.682
863.10	108.602
863.27	98.762
863.44	75.389
863.61	74.944
863.78	57.684
863.95	111.337
864.12	81.667
864.29	86.311
864.45	86.611
864.62	80.392
864.79	80.549
864.96	78.261
865.13	71.990
865.30	90.295
865.47	84.726
865.64	80.668
865.81	65.021
865.97	62.937
866.14	104.497
866.31	84.320
866.48	84.900
866.65	83.934
866.82	79.825
866.99	105.028
867.16	73.504
867.33	104.511
867.49	77.124
867.66	98.577
867.83	94.752
868.00	69.193
868.17	96.626
868.34	76.503
868.51	81.524
868.67	112.329
868.84	79.474
869.01	86.872
869.18	96.757
869.35	100.239
869.52	65.944
869.69	97.778
869.85	88.489
870.02	80.096
870.19	83.073
870.36	95.370
870.53	82.276
870.70	99.099
870.86	100.802
871.03	81.720
871.20	83.077
871.37	99.007
871.54	90.172
871.71	76.190
871.87	66.667
872.04	66.667
872.21	76.447
872.38	80.042
872.55	105.926
872.72	87.106
872.88	101.807
873.05	77.251
873.22	101.554
873.39	83.721
873.56	86.364
873.72	93.750
873.89	89.583
874.06	74.074
874.23	79.055
874.40	99.474
874.56	115.773
874.73	98.108
874.90	76.650
875.07	108.357
875.24	75.126
875.40	64.502
875.57	89.027
875.74	80.272
875.91	81.882
876.08	78.747
876.24	77.754
876.41	109.581
876.58	86.651
876.75	86.667
876.92	83.175
877.08	80.679
877.25	91.781
877.42	81.389
877.59	86.364
877.75	104.416
877.92	78.182
878.09	67.954
878.26	76.056
878.42	83.668
878.59	81.368
878.76	78.742
878.93	91.714
879.09	65.789
879.26	72.587
879.43	75.884
879.60	76.866
879.76	95.364
879.93	72.401
880.10	70.667
880.27	67.976
880.43	67.668
880.60	70.772
880.77	50.638
880.94	59.379
881.10	46.438
881.27	45.913
881.44	40.321
881.61	43.453
881.77	39.687
881.94	37.276
882.11	31.810
882.28	34.422
882.44	34.976
882.61	43.961
882.78	43.550
882.94	50.964
883.11	41.876
883.28	47.786
883.45	44.623
883.61	44.924
883.78	43.539
883.95	47.059
884.11	45.065
884.28	42.805
>>>>>End Processed Spectral Data<<<<<
