SpectraSuite Data File
++++++++++++++++++++++++++++++++++++
Date: Wed Sep 25 02:51:59 EST 2019
User: sgrac
Dark Spectrum Present: Yes
Reference Spectrum Present: Yes
Number of Sampled Component Spectra: 1
Spectrometers: USB4E01596
Integration Time (usec): 100000 (USB4E01596)
Spectra Averaged: 3 (USB4E01596)
Boxcar Smoothing: 0 (USB4E01596)
Correct for Electrical Dark: No (USB4E01596)
Strobe/Lamp Enabled: Yes (USB4E01596)
Correct for Detector Non-linearity: No (USB4E01596)
Correct for Stray Light: No (USB4E01596)
Number of Pixels in Processed Spectrum: 3648
>>>>>Begin Processed Spectral Data<<<<<
178.44	-111.538
178.66	-111.538
178.87	-111.538
179.09	87.500
179.30	87.097
179.52	65.217
179.74	-97.368
179.95	7.407
180.17	136.735
180.38	-96.429
180.60	-426.667
180.82	-455.556
181.03	123.256
181.25	-633.333
181.46	-100.000
181.68	106.410
181.89	-54.839
182.11	2366.667
182.33	98.077
182.54	-2800.000
182.76	-52.941
182.97	160.526
183.19	325.000
183.40	93.478
183.62	280.000
183.84	88.095
184.05	276.923
184.27	-209.091
184.48	5600.000
184.70	237.037
184.91	24.528
185.13	371.429
185.34	172.881
185.56	102.299
185.78	55.556
185.99	66.000
186.21	15.663
186.42	271.429
186.64	-600.000
186.85	46.341
187.07	-300.000
187.28	143.750
187.50	-69.767
187.72	128.571
187.93	270.270
188.15	7.143
188.36	95.833
188.58	238.333
188.79	150.000
189.01	116.393
189.22	89.247
189.44	96.226
189.65	-104.878
189.87	178.571
190.09	63.462
190.30	62.963
190.52	10.345
190.73	13.253
190.95	21.429
191.16	0.000
191.38	71.154
191.59	23.457
191.81	161.111
192.02	-533.333
192.24	-863.636
192.45	12.903
192.67	-680.000
192.88	-10.465
193.10	1.471
193.31	6.557
193.53	11.290
193.74	-845.455
193.96	-916.667
194.18	71.429
194.39	67.797
194.61	116.667
194.82	36.364
195.04	96.491
195.25	156.667
195.47	-100.000
195.68	81.538
195.90	64.444
196.11	100.000
196.33	16.667
196.54	21.429
196.76	45.161
196.97	75.926
197.19	57.895
197.40	-62.667
197.62	39.583
197.83	276.471
198.05	70.000
198.26	212.500
198.48	441.176
198.69	-161.538
198.91	168.750
199.12	-300.000
199.34	90.244
199.55	145.000
199.77	44.444
199.98	119.048
200.20	207.143
200.41	11.364
200.63	13.415
200.84	-73.333
201.06	82.911
201.27	78.947
201.49	271.429
201.70	103.896
201.91	314.286
202.13	87.500
202.34	-78.788
202.56	210.526
202.77	121.053
202.99	10.638
203.20	112.903
203.42	140.351
203.63	163.380
203.85	66.667
204.06	-31.818
204.28	-440.000
204.49	226.667
204.71	31.183
204.92	205.882
205.14	543.750
205.35	-65.625
205.56	-100.000
205.78	150.909
205.99	29.268
206.21	241.026
206.42	61.017
206.64	78.125
206.85	132.558
207.07	-34.211
207.28	56.522
207.50	81.081
207.71	43.750
207.93	100.000
208.14	118.000
208.35	190.909
208.57	380.000
208.78	220.000
209.00	210.638
209.21	68.889
209.43	96.117
209.64	-300.000
209.86	56.410
210.07	-304.762
210.28	98.913
210.50	115.789
210.71	59.286
210.93	61.538
211.14	131.818
211.36	-100.000
211.57	126.389
211.78	-38.000
212.00	-8.511
212.21	67.568
212.43	1000.000
212.64	97.059
212.86	41.667
213.07	309.091
213.29	-426.667
213.50	235.484
213.71	296.000
213.93	188.889
214.14	9.565
214.36	56.962
214.57	163.934
214.78	127.451
215.00	61.765
215.21	346.154
215.43	19.192
215.64	95.349
215.86	24.242
216.07	-13.333
216.28	86.957
216.50	116.667
216.71	86.207
216.93	44.737
217.14	65.766
217.35	426.923
217.57	26.613
217.78	57.895
218.00	112.791
218.21	180.000
218.42	-333.333
218.64	100.000
218.85	157.778
219.07	145.902
219.28	49.123
219.49	121.212
219.71	14.865
219.92	-110.000
220.14	243.750
220.35	80.303
220.56	27.742
220.78	600.000
220.99	69.512
221.21	23.729
221.42	58.537
221.63	13.333
221.85	158.696
222.06	47.009
222.28	221.053
222.49	25.000
222.70	51.376
222.92	108.989
223.13	145.455
223.34	35.433
223.56	57.971
223.77	49.206
223.99	380.769
224.20	74.126
224.41	21.311
224.63	28.689
224.84	22.535
225.05	49.451
225.27	6.494
225.48	46.226
225.69	32.738
225.91	53.846
226.12	-2.239
226.34	37.931
226.55	-31.304
226.76	37.714
226.98	33.898
227.19	14.368
227.40	13.063
227.62	28.745
227.83	-3.559
228.04	11.263
228.26	19.799
228.47	10.230
228.69	17.794
228.90	18.404
229.11	8.350
229.33	8.087
229.54	5.809
229.75	5.686
229.97	15.784
230.18	10.256
230.39	1.008
230.61	5.567
230.82	-1.519
231.03	9.004
231.25	10.881
231.46	4.982
231.67	3.567
231.89	-0.566
232.10	14.475
232.31	10.837
232.53	4.637
232.74	11.812
232.95	0.185
233.17	0.000
233.38	7.519
233.59	-3.118
233.81	-3.156
234.02	15.175
234.23	4.331
234.45	-1.632
234.66	13.873
234.87	34.423
235.09	1.858
235.30	13.239
235.51	8.386
235.73	2.471
235.94	5.615
236.15	-6.219
236.36	-7.059
236.58	-2.521
236.79	0.156
237.00	15.937
237.22	10.423
237.43	3.660
237.64	-2.786
237.86	9.633
238.07	1.316
238.28	8.724
238.50	7.752
238.71	5.556
238.92	3.111
239.13	6.832
239.35	9.984
239.56	-0.999
239.77	16.496
239.99	-1.028
240.20	8.787
240.41	8.323
240.63	14.000
240.84	7.096
241.05	8.549
241.26	7.037
241.48	6.078
241.69	4.120
241.90	4.777
242.12	-0.000
242.33	6.765
242.54	2.889
242.75	3.608
242.97	6.983
243.18	3.410
243.39	2.470
243.61	3.859
243.82	5.188
244.03	1.355
244.24	2.749
244.46	4.694
244.67	2.278
244.88	4.509
245.09	5.172
245.31	5.390
245.52	2.766
245.73	4.962
245.95	7.376
246.16	2.027
246.37	3.645
246.58	6.108
246.80	6.176
247.01	1.265
247.22	0.037
247.43	2.354
247.65	3.021
247.86	1.094
248.07	2.531
248.28	3.376
248.50	0.733
248.71	1.556
248.92	0.677
249.13	4.112
249.35	2.398
249.56	3.887
249.77	1.484
249.98	1.665
250.20	3.344
250.41	0.000
250.62	2.384
250.83	5.324
251.05	5.667
251.26	1.373
251.47	2.711
251.68	4.207
251.90	0.572
252.11	6.640
252.32	4.686
252.53	3.639
252.75	3.329
252.96	1.715
253.17	3.016
253.38	3.969
253.59	1.661
253.81	6.734
254.02	2.418
254.23	6.917
254.44	2.788
254.66	2.567
254.87	7.619
255.08	-0.436
255.29	0.544
255.50	7.191
255.72	3.684
255.93	5.560
256.14	-2.759
256.35	1.926
256.57	2.566
256.78	5.256
256.99	4.516
257.20	1.164
257.41	4.443
257.63	0.802
257.84	0.755
258.05	3.982
258.26	3.855
258.47	1.729
258.69	4.292
258.90	4.445
259.11	3.968
259.32	3.427
259.53	4.460
259.75	1.114
259.96	2.617
260.17	1.939
260.38	2.949
260.59	0.268
260.81	0.522
261.02	1.245
261.23	1.108
261.44	2.989
261.65	2.023
261.87	0.968
262.08	1.572
262.29	1.689
262.50	0.985
262.71	1.836
262.92	3.167
263.14	0.736
263.35	1.933
263.56	2.884
263.77	3.731
263.98	0.669
264.20	0.206
264.41	4.346
264.62	0.305
264.83	1.389
265.04	2.665
265.25	-1.435
265.47	1.707
265.68	3.657
265.89	2.084
266.10	3.772
266.31	1.287
266.52	2.898
266.74	3.034
266.95	2.745
267.16	1.493
267.37	3.963
267.58	-0.510
267.79	1.959
268.01	2.876
268.22	-1.046
268.43	1.843
268.64	3.178
268.85	1.957
269.06	2.206
269.27	3.545
269.49	2.239
269.70	-0.161
269.91	-1.465
270.12	4.376
270.33	1.829
270.54	0.781
270.75	2.722
270.97	1.420
271.18	1.426
271.39	1.727
271.60	3.788
271.81	1.902
272.02	0.710
272.23	2.751
272.45	1.562
272.66	2.242
272.87	1.374
273.08	2.783
273.29	1.689
273.50	1.448
273.71	1.549
273.92	2.453
274.14	2.868
274.35	1.727
274.56	1.676
274.77	1.296
274.98	1.216
275.19	2.364
275.40	2.057
275.61	1.320
275.83	4.609
276.04	0.582
276.25	1.360
276.46	4.028
276.67	2.974
276.88	-0.187
277.09	1.048
277.30	2.666
277.51	3.688
277.73	0.800
277.94	-0.809
278.15	2.593
278.36	2.186
278.57	3.138
278.78	1.461
278.99	1.356
279.20	1.224
279.41	4.425
279.62	2.085
279.84	1.717
280.05	0.902
280.26	1.011
280.47	0.755
280.68	1.286
280.89	1.754
281.10	-0.086
281.31	1.626
281.52	2.483
281.73	2.533
281.94	-0.668
282.16	1.392
282.37	-1.469
282.58	1.275
282.79	1.654
283.00	2.603
283.21	1.579
283.42	1.200
283.63	0.619
283.84	1.564
284.05	-0.282
284.26	2.009
284.47	0.165
284.68	1.739
284.89	2.538
285.11	0.506
285.32	2.664
285.53	0.173
285.74	1.078
285.95	-0.183
286.16	1.261
286.37	1.970
286.58	3.697
286.79	1.634
287.00	2.802
287.21	1.038
287.42	1.971
287.63	0.521
287.84	0.926
288.05	1.430
288.26	1.122
288.48	1.225
288.69	2.221
288.90	1.829
289.11	1.936
289.32	1.207
289.53	0.537
289.74	0.066
289.95	-0.452
290.16	1.284
290.37	1.931
290.58	2.089
290.79	2.853
291.00	0.823
291.21	1.151
291.42	2.341
291.63	0.135
291.84	1.464
292.05	2.257
292.26	2.156
292.47	1.123
292.68	1.388
292.89	2.448
293.10	0.304
293.31	0.091
293.52	1.631
293.73	1.336
293.94	2.742
294.15	0.670
294.36	1.154
294.57	2.019
294.79	1.876
295.00	1.404
295.21	2.658
295.42	0.062
295.63	2.324
295.84	1.059
296.05	0.372
296.26	2.374
296.47	0.000
296.68	1.494
296.89	1.923
297.10	1.324
297.31	0.811
297.52	1.843
297.73	0.658
297.94	0.090
298.15	1.431
298.36	1.515
298.57	0.348
298.78	1.400
298.99	1.267
299.20	0.854
299.41	1.800
299.62	1.615
299.83	0.886
300.04	1.526
300.25	1.306
300.46	1.868
300.67	0.721
300.88	1.163
301.09	-0.477
301.30	1.147
301.50	0.381
301.71	3.388
301.92	1.789
302.13	0.439
302.34	2.514
302.55	2.041
302.76	2.170
302.97	0.430
303.18	4.209
303.39	0.843
303.60	3.005
303.81	1.614
304.02	0.697
304.23	0.499
304.44	1.533
304.65	3.725
304.86	1.451
305.07	2.503
305.28	1.395
305.49	3.179
305.70	1.276
305.91	-0.753
306.12	4.114
306.33	1.903
306.54	0.814
306.75	1.593
306.96	2.731
307.17	1.582
307.38	0.997
307.58	2.016
307.79	0.611
308.00	1.302
308.21	0.445
308.42	-0.549
308.63	2.286
308.84	1.753
309.05	0.400
309.26	0.899
309.47	1.457
309.68	1.944
309.89	2.515
310.10	-0.757
310.31	0.465
310.52	1.083
310.73	1.479
310.94	1.267
311.14	1.715
311.35	1.847
311.56	1.082
311.77	1.183
311.98	1.110
312.19	2.182
312.40	1.086
312.61	1.546
312.82	2.037
313.03	-0.033
313.24	2.018
313.45	1.175
313.66	1.398
313.86	2.523
314.07	0.547
314.28	1.821
314.49	0.800
314.70	-0.102
314.91	2.259
315.12	2.745
315.33	0.395
315.54	3.208
315.75	1.329
315.96	1.121
316.16	1.391
316.37	2.483
316.58	1.535
316.79	2.412
317.00	1.460
317.21	1.620
317.42	2.120
317.63	1.844
317.84	2.431
318.05	2.122
318.25	3.700
318.46	1.280
318.67	2.641
318.88	0.274
319.09	1.986
319.30	2.602
319.51	1.069
319.72	2.227
319.93	-0.085
320.13	2.176
320.34	0.682
320.55	2.168
320.76	1.232
320.97	2.130
321.18	2.473
321.39	0.000
321.60	1.264
321.80	3.045
322.01	2.474
322.22	2.599
322.43	1.919
322.64	3.398
322.85	1.671
323.06	2.150
323.27	0.610
323.47	3.196
323.68	2.438
323.89	1.846
324.10	1.466
324.31	0.500
324.52	2.170
324.73	0.799
324.93	1.115
325.14	3.016
325.35	1.998
325.56	1.269
325.77	1.777
325.98	0.852
326.19	1.560
326.39	-0.056
326.60	2.082
326.81	0.550
327.02	0.448
327.23	0.072
327.44	1.267
327.64	1.603
327.85	1.812
328.06	1.213
328.27	1.337
328.48	1.818
328.69	-0.287
328.90	0.924
329.10	2.532
329.31	3.563
329.52	1.278
329.73	1.428
329.94	1.635
330.15	1.238
330.35	1.734
330.56	2.143
330.77	1.792
330.98	2.409
331.19	1.836
331.39	1.574
331.60	1.579
331.81	1.122
332.02	1.712
332.23	1.643
332.44	0.976
332.64	0.358
332.85	0.518
333.06	1.903
333.27	0.574
333.48	1.746
333.68	1.083
333.89	0.686
334.10	2.461
334.31	1.881
334.52	0.854
334.72	2.598
334.93	0.894
335.14	1.569
335.35	1.860
335.56	2.400
335.76	2.732
335.97	2.397
336.18	0.969
336.39	2.503
336.60	2.024
336.80	1.095
337.01	0.272
337.22	1.347
337.43	1.689
337.64	3.044
337.84	1.474
338.05	2.684
338.26	1.857
338.47	2.790
338.68	0.832
338.88	3.207
339.09	1.527
339.30	1.623
339.51	3.641
339.71	2.584
339.92	1.549
340.13	1.986
340.34	2.415
340.55	1.393
340.75	3.058
340.96	1.763
341.17	2.718
341.38	2.987
341.58	3.524
341.79	2.270
342.00	2.705
342.21	2.054
342.41	2.252
342.62	2.244
342.83	4.727
343.04	1.166
343.24	3.561
343.45	3.423
343.66	1.520
343.87	2.961
344.07	2.536
344.28	3.740
344.49	2.655
344.70	3.689
344.90	1.883
345.11	1.269
345.32	3.277
345.53	4.129
345.73	2.774
345.94	4.856
346.15	4.233
346.36	4.219
346.56	4.562
346.77	4.337
346.98	4.300
347.19	4.770
347.39	3.614
347.60	4.153
347.81	4.716
348.02	4.476
348.22	4.038
348.43	4.223
348.64	3.183
348.84	3.276
349.05	4.260
349.26	5.260
349.47	5.001
349.67	2.526
349.88	5.251
350.09	4.930
350.30	6.268
350.50	4.115
350.71	6.075
350.92	6.354
351.12	3.964
351.33	6.690
351.54	5.202
351.74	6.190
351.95	4.865
352.16	5.069
352.37	6.903
352.57	4.632
352.78	4.582
352.99	4.449
353.19	5.320
353.40	6.299
353.61	6.236
353.82	5.966
354.02	5.882
354.23	5.951
354.44	8.007
354.64	4.495
354.85	7.434
355.06	6.992
355.26	4.321
355.47	6.046
355.68	5.950
355.88	7.391
356.09	6.265
356.30	5.073
356.51	6.999
356.71	5.863
356.92	4.476
357.13	7.606
357.33	7.800
357.54	6.269
357.75	4.945
357.95	7.968
358.16	5.795
358.37	8.876
358.57	5.833
358.78	9.326
358.99	7.005
359.19	7.197
359.40	7.447
359.61	5.197
359.81	8.197
360.02	9.775
360.23	5.145
360.43	6.687
360.64	5.752
360.85	6.945
361.05	6.131
361.26	10.258
361.47	6.769
361.67	8.394
361.88	5.885
362.09	8.957
362.29	6.158
362.50	6.853
362.70	5.695
362.91	8.868
363.12	6.459
363.32	7.044
363.53	8.161
363.74	7.801
363.94	5.500
364.15	7.981
364.36	6.997
364.56	6.646
364.77	7.435
364.98	9.619
365.18	6.335
365.39	8.232
365.59	5.969
365.80	6.650
366.01	7.668
366.21	6.186
366.42	5.239
366.63	8.022
366.83	6.223
367.04	3.881
367.24	7.277
367.45	5.432
367.66	6.265
367.86	6.426
368.07	5.905
368.28	5.597
368.48	6.280
368.69	4.252
368.89	5.649
369.10	6.871
369.31	6.824
369.51	6.826
369.72	6.716
369.92	8.419
370.13	5.811
370.34	6.534
370.54	2.489
370.75	6.852
370.95	4.479
371.16	5.946
371.37	5.230
371.57	5.467
371.78	4.807
371.98	6.954
372.19	6.436
372.40	6.901
372.60	6.081
372.81	6.533
373.01	4.689
373.22	6.077
373.43	6.608
373.63	6.579
373.84	6.487
374.04	5.879
374.25	5.786
374.46	7.141
374.66	6.079
374.87	7.034
375.07	4.100
375.28	4.661
375.48	6.377
375.69	7.732
375.90	4.485
376.10	4.465
376.31	4.198
376.51	4.365
376.72	5.044
376.92	5.240
377.13	6.017
377.34	7.184
377.54	5.175
377.75	7.304
377.95	4.976
378.16	7.876
378.36	6.007
378.57	7.279
378.77	5.708
378.98	7.352
379.19	5.884
379.39	5.207
379.60	5.659
379.80	6.220
380.01	6.388
380.21	4.730
380.42	6.110
380.62	4.988
380.83	6.717
381.04	5.412
381.24	5.558
381.45	5.061
381.65	5.220
381.86	6.333
382.06	6.466
382.27	3.939
382.47	4.809
382.68	6.645
382.88	3.900
383.09	4.324
383.29	4.552
383.50	6.291
383.71	4.586
383.91	6.045
384.12	4.594
384.32	5.979
384.53	5.141
384.73	3.629
384.94	3.710
385.14	4.708
385.35	4.655
385.55	5.698
385.76	4.799
385.96	5.106
386.17	5.096
386.37	5.947
386.58	5.235
386.78	6.582
386.99	4.973
387.19	7.177
387.40	4.689
387.60	7.360
387.81	5.676
388.01	4.866
388.22	5.887
388.42	6.864
388.63	5.828
388.83	7.318
389.04	4.148
389.24	6.140
389.45	4.909
389.65	5.033
389.86	4.611
390.06	4.629
390.27	5.381
390.47	4.836
390.68	5.166
390.88	6.190
391.09	5.375
391.29	6.169
391.50	5.014
391.70	6.105
391.91	5.507
392.11	5.770
392.32	6.228
392.52	7.180
392.73	5.400
392.93	6.182
393.14	5.386
393.34	6.061
393.55	5.204
393.75	5.618
393.95	5.498
394.16	6.126
394.36	6.545
394.57	6.741
394.77	5.823
394.98	6.325
395.18	6.055
395.39	6.595
395.59	5.484
395.80	5.899
396.00	4.977
396.21	7.001
396.41	4.773
396.61	6.290
396.82	5.412
397.02	6.946
397.23	5.105
397.43	5.536
397.64	4.091
397.84	6.864
398.05	4.077
398.25	6.242
398.45	5.064
398.66	6.776
398.86	5.476
399.07	7.101
399.27	5.346
399.48	6.305
399.68	5.240
399.89	5.531
400.09	5.954
400.29	5.514
400.50	5.355
400.70	5.983
400.91	5.743
401.11	5.273
401.32	4.180
401.52	4.420
401.72	5.178
401.93	7.395
402.13	5.342
402.34	5.323
402.54	4.645
402.75	7.491
402.95	3.373
403.15	6.372
403.36	4.273
403.56	5.273
403.77	4.461
403.97	5.274
404.17	3.986
404.38	5.745
404.58	4.979
404.79	5.609
404.99	5.666
405.19	5.223
405.40	4.804
405.60	5.492
405.81	4.622
406.01	5.542
406.21	4.752
406.42	5.503
406.62	5.520
406.83	5.995
407.03	5.934
407.23	5.289
407.44	4.872
407.64	5.937
407.85	4.694
408.05	4.985
408.25	4.043
408.46	5.356
408.66	5.372
408.87	5.077
409.07	4.186
409.27	4.546
409.48	4.475
409.68	5.368
409.88	3.722
410.09	5.311
410.29	4.986
410.50	5.930
410.70	3.911
410.90	5.284
411.11	3.779
411.31	5.078
411.51	4.325
411.72	5.385
411.92	4.311
412.12	5.132
412.33	4.291
412.53	4.849
412.74	3.794
412.94	5.021
413.14	4.020
413.35	4.182
413.55	3.941
413.75	5.640
413.96	3.826
414.16	4.601
414.36	4.546
414.57	4.672
414.77	3.204
414.97	5.433
415.18	4.297
415.38	5.004
415.58	4.632
415.79	3.909
415.99	4.718
416.19	5.202
416.40	4.372
416.60	5.125
416.80	4.514
417.01	4.878
417.21	3.982
417.41	5.991
417.62	4.769
417.82	5.573
418.02	4.673
418.23	5.737
418.43	4.957
418.63	5.876
418.84	6.266
419.04	4.848
419.24	5.917
419.45	6.479
419.65	6.130
419.85	6.218
420.06	5.898
420.26	6.088
420.46	5.851
420.67	6.871
420.87	6.493
421.07	6.894
421.28	6.109
421.48	6.634
421.68	6.614
421.88	7.078
422.09	6.813
422.29	6.497
422.49	6.076
422.70	6.721
422.90	6.516
423.10	6.761
423.31	6.780
423.51	7.318
423.71	5.681
423.91	6.226
424.12	6.309
424.32	6.911
424.52	6.780
424.73	6.439
424.93	6.630
425.13	6.550
425.33	6.114
425.54	6.762
425.74	6.552
425.94	6.926
426.15	6.503
426.35	6.042
426.55	6.316
426.75	6.532
426.96	5.812
427.16	6.281
427.36	5.993
427.57	6.426
427.77	5.472
427.97	5.302
428.17	5.945
428.38	5.748
428.58	4.216
428.78	5.862
428.98	5.171
429.19	5.211
429.39	4.279
429.59	5.627
429.79	4.121
430.00	4.005
430.20	3.817
430.40	4.887
430.60	4.197
430.81	5.041
431.01	4.726
431.21	5.049
431.41	4.474
431.62	5.128
431.82	4.655
432.02	5.321
432.22	4.427
432.43	4.910
432.63	4.390
432.83	5.459
433.03	5.010
433.24	4.740
433.44	4.368
433.64	5.797
433.84	5.125
434.05	5.533
434.25	5.228
434.45	5.943
434.65	5.614
434.85	5.844
435.06	5.254
435.26	5.447
435.46	5.687
435.66	5.532
435.87	5.007
436.07	5.495
436.27	4.846
436.47	4.957
436.67	4.456
436.88	5.643
437.08	5.337
437.28	5.732
437.48	5.436
437.69	5.900
437.89	4.442
438.09	5.656
438.29	4.369
438.49	5.670
438.70	5.473
438.90	5.250
439.10	4.833
439.30	5.579
439.50	4.344
439.71	5.863
439.91	5.055
440.11	6.082
440.31	5.414
440.51	5.619
440.72	5.095
440.92	6.019
441.12	5.873
441.32	6.354
441.52	6.103
441.72	6.001
441.93	5.606
442.13	6.167
442.33	5.536
442.53	6.440
442.73	5.376
442.94	5.744
443.14	5.191
443.34	6.067
443.54	5.202
443.74	6.084
443.94	5.175
444.15	5.169
444.35	4.752
444.55	5.404
444.75	5.145
444.95	5.638
445.15	5.547
445.36	5.571
445.56	4.792
445.76	5.964
445.96	5.578
446.16	6.025
446.36	5.550
446.57	6.269
446.77	5.139
446.97	6.170
447.17	6.174
447.37	6.152
447.57	6.168
447.77	6.437
447.98	5.705
448.18	6.252
448.38	5.657
448.58	6.324
448.78	5.909
448.98	5.984
449.18	5.569
449.39	5.845
449.59	5.144
449.79	5.411
449.99	5.173
450.19	5.613
450.39	5.048
450.59	5.510
450.79	4.776
451.00	5.790
451.20	4.768
451.40	5.330
451.60	4.549
451.80	5.358
452.00	4.580
452.20	5.249
452.40	5.120
452.61	5.141
452.81	5.137
453.01	5.143
453.21	5.025
453.41	5.287
453.61	5.014
453.81	5.243
454.01	4.938
454.21	5.330
454.42	5.662
454.62	5.087
454.82	4.502
455.02	4.970
455.22	4.779
455.42	4.717
455.62	4.776
455.82	4.816
456.02	4.270
456.23	4.921
456.43	4.265
456.63	4.891
456.83	4.542
457.03	5.240
457.23	4.259
457.43	4.574
457.63	4.248
457.83	4.973
458.03	4.267
458.23	5.146
458.43	3.858
458.64	5.082
458.84	4.401
459.04	5.593
459.24	4.869
459.44	5.548
459.64	5.689
459.84	5.715
460.04	5.598
460.24	5.923
460.44	5.670
460.64	6.129
460.84	5.474
461.04	6.383
461.24	5.942
461.45	6.430
461.65	6.116
461.85	5.995
462.05	5.511
462.25	5.800
462.45	5.724
462.65	5.598
462.85	4.311
463.05	5.384
463.25	4.313
463.45	5.196
463.65	4.609
463.85	4.967
464.05	4.572
464.25	4.770
464.45	4.886
464.65	5.029
464.85	4.030
465.05	4.625
465.26	4.371
465.46	5.293
465.66	4.878
465.86	4.846
466.06	4.543
466.26	4.965
466.46	4.123
466.66	4.919
466.86	4.652
467.06	5.394
467.26	4.428
467.46	5.595
467.66	4.294
467.86	4.921
468.06	4.978
468.26	4.603
468.46	4.821
468.66	4.753
468.86	3.872
469.06	5.174
469.26	4.051
469.46	4.773
469.66	4.260
469.86	5.208
470.06	4.454
470.26	5.266
470.46	4.162
470.66	5.408
470.86	4.289
471.06	4.872
471.26	3.820
471.46	4.794
471.66	4.291
471.86	4.947
472.06	4.301
472.26	5.251
472.46	5.550
472.66	4.879
472.86	4.558
473.06	5.483
473.26	4.619
473.46	4.684
473.66	4.581
473.86	4.959
474.06	4.124
474.26	4.974
474.46	4.054
474.66	5.088
474.86	4.449
475.06	4.898
475.26	3.837
475.46	5.226
475.66	4.202
475.86	4.732
476.06	5.243
476.26	5.197
476.46	4.101
476.66	5.074
476.86	4.091
477.06	4.982
477.26	4.374
477.46	5.368
477.65	5.075
477.85	5.346
478.05	4.593
478.25	5.901
478.45	4.633
478.65	5.572
478.85	4.934
479.05	5.556
479.25	4.987
479.45	5.858
479.65	4.378
479.85	5.254
480.05	4.562
480.25	5.051
480.45	4.796
480.65	5.858
480.85	4.967
481.05	5.726
481.25	5.541
481.44	5.564
481.64	5.347
481.84	5.996
482.04	5.752
482.24	5.811
482.44	5.328
482.64	5.690
482.84	5.852
483.04	6.385
483.24	6.234
483.44	6.415
483.64	6.448
483.84	6.538
484.04	6.541
484.23	6.602
484.43	6.723
484.63	6.925
484.83	6.974
485.03	7.213
485.23	7.112
485.43	7.217
485.63	6.951
485.83	6.953
486.03	6.799
486.23	6.879
486.42	6.795
486.62	6.804
486.82	6.588
487.02	6.732
487.22	6.570
487.42	6.549
487.62	6.583
487.82	6.549
488.02	6.446
488.22	6.684
488.41	6.621
488.61	6.738
488.81	6.751
489.01	6.966
489.21	6.717
489.41	6.813
489.61	6.885
489.81	6.730
490.01	6.712
490.20	6.653
490.40	6.554
490.60	6.685
490.80	6.095
491.00	6.468
491.20	6.263
491.40	6.618
491.60	6.421
491.79	6.452
491.99	6.453
492.19	6.704
492.39	6.585
492.59	6.776
492.79	6.456
492.99	6.820
493.19	6.744
493.38	6.934
493.58	6.712
493.78	6.963
493.98	6.676
494.18	6.477
494.38	6.452
494.58	6.454
494.77	5.494
494.97	6.227
495.17	5.534
495.37	6.153
495.57	5.469
495.77	5.701
495.96	5.669
496.16	5.739
496.36	5.655
496.56	6.086
496.76	5.250
496.96	5.816
497.15	5.660
497.35	6.098
497.55	5.337
497.75	6.164
497.95	5.874
498.15	6.099
498.34	5.963
498.54	5.827
498.74	6.223
498.94	6.209
499.14	5.592
499.34	6.144
499.53	5.917
499.73	6.264
499.93	5.749
500.13	5.779
500.33	5.188
500.52	5.784
500.72	5.323
500.92	5.525
501.12	5.519
501.32	5.943
501.52	5.461
501.71	5.636
501.91	4.757
502.11	5.891
502.31	5.398
502.51	5.944
502.70	4.823
502.90	5.745
503.10	5.532
503.30	5.795
503.50	5.535
503.69	5.751
503.89	5.188
504.09	5.718
504.29	5.630
504.48	5.946
504.68	5.844
504.88	6.140
505.08	5.549
505.28	5.895
505.47	5.578
505.67	6.390
505.87	5.547
506.07	5.840
506.27	5.147
506.46	5.875
506.66	5.104
506.86	5.802
507.06	5.758
507.25	5.862
507.45	5.213
507.65	6.102
507.85	5.577
508.04	5.940
508.24	5.709
508.44	6.188
508.64	5.592
508.83	6.389
509.03	5.960
509.23	6.066
509.43	5.852
509.63	6.184
509.82	5.582
510.02	6.408
510.22	6.120
510.42	6.689
510.61	6.090
510.81	6.025
511.01	6.041
511.21	6.453
511.40	5.505
511.60	6.288
511.80	5.772
511.99	6.497
512.19	5.800
512.39	6.562
512.59	5.979
512.78	6.622
512.98	6.125
513.18	6.697
513.38	6.070
513.57	6.750
513.77	6.025
513.97	6.585
514.17	6.120
514.36	6.293
514.56	5.914
514.76	6.616
514.95	5.820
515.15	6.395
515.35	5.490
515.55	6.571
515.74	6.118
515.94	6.631
516.14	5.945
516.33	6.156
516.53	6.023
516.73	5.971
516.93	6.227
517.12	6.710
517.32	5.830
517.52	6.345
517.71	6.292
517.91	6.589
518.11	6.529
518.30	6.736
518.50	6.480
518.70	6.554
518.90	6.921
519.09	6.958
519.29	6.748
519.49	7.122
519.68	6.652
519.88	7.149
520.08	6.703
520.27	7.097
520.47	6.913
520.67	7.132
520.86	6.825
521.06	7.084
521.26	6.665
521.45	6.857
521.65	6.383
521.85	6.815
522.04	6.023
522.24	6.545
522.44	6.308
522.63	6.725
522.83	6.413
523.03	6.986
523.22	6.194
523.42	6.765
523.62	6.516
523.81	6.882
524.01	6.649
524.21	6.113
524.40	6.202
524.60	6.930
524.80	6.415
524.99	6.694
525.19	6.943
525.39	6.875
525.58	6.731
525.78	7.450
525.98	7.107
526.17	7.298
526.37	6.974
526.57	7.275
526.76	7.220
526.96	7.486
527.15	7.345
527.35	7.319
527.55	7.342
527.74	7.627
527.94	7.498
528.14	7.472
528.33	7.637
528.53	7.470
528.72	7.508
528.92	7.554
529.12	7.727
529.31	7.708
529.51	7.898
529.71	7.802
529.90	7.853
530.10	7.970
530.29	7.953
530.49	7.901
530.69	7.925
530.88	7.828
531.08	7.837
531.28	7.751
531.47	7.403
531.67	7.581
531.86	7.401
532.06	7.632
532.26	7.407
532.45	7.743
532.65	7.541
532.84	7.762
533.04	7.403
533.24	7.549
533.43	7.559
533.63	7.896
533.82	7.701
534.02	7.880
534.22	7.744
534.41	7.955
534.61	8.002
534.80	8.053
535.00	7.660
535.19	7.720
535.39	7.862
535.59	7.853
535.78	7.697
535.98	7.770
536.17	7.543
536.37	7.515
536.57	7.576
536.76	8.026
536.96	7.647
537.15	7.668
537.35	7.450
537.54	7.954
537.74	7.592
537.93	7.865
538.13	7.482
538.33	7.865
538.52	7.536
538.72	7.631
538.91	7.520
539.11	7.916
539.30	7.295
539.50	7.404
539.70	7.509
539.89	7.987
540.09	7.507
540.28	7.841
540.48	7.212
540.67	7.726
540.87	7.685
541.06	7.853
541.26	7.967
541.45	8.004
541.65	8.218
541.85	8.217
542.04	8.375
542.24	8.399
542.43	8.457
542.63	8.422
542.82	8.413
543.02	8.265
543.21	8.463
543.41	8.488
543.60	8.535
543.80	8.628
543.99	8.337
544.19	8.605
544.38	8.467
544.58	8.521
544.77	8.227
544.97	8.395
545.16	8.247
545.36	8.128
545.56	8.135
545.75	8.682
545.95	7.901
546.14	8.351
546.34	8.257
546.53	8.542
546.73	8.176
546.92	8.644
547.12	8.075
547.31	8.666
547.51	8.326
547.70	8.825
547.90	8.436
548.09	8.630
548.29	7.980
548.48	8.645
548.68	8.002
548.87	8.749
549.07	8.082
549.26	8.373
549.46	8.052
549.65	8.575
549.84	8.079
550.04	8.308
550.23	7.410
550.43	7.796
550.62	7.692
550.82	8.236
551.01	7.335
551.21	8.062
551.40	7.940
551.60	8.363
551.79	7.626
551.99	8.097
552.18	7.622
552.38	8.260
552.57	8.446
552.77	8.773
552.96	8.934
553.16	8.638
553.35	8.209
553.54	8.938
553.74	8.729
553.93	9.320
554.13	8.808
554.32	9.061
554.52	8.310
554.71	9.298
554.91	8.891
555.10	9.122
555.29	8.469
555.49	8.954
555.68	8.066
555.88	9.397
556.07	8.513
556.27	9.302
556.46	8.838
556.66	9.030
556.85	8.618
557.04	9.154
557.24	9.143
557.43	9.728
557.63	8.978
557.82	9.287
558.02	8.861
558.21	9.480
558.40	8.485
558.60	9.674
558.79	8.378
558.99	9.582
559.18	8.835
559.38	9.807
559.57	9.300
559.76	9.794
559.96	8.963
560.15	10.354
560.35	9.019
560.54	9.879
560.73	9.207
560.93	10.401
561.12	9.516
561.32	10.445
561.51	9.807
561.70	10.552
561.90	9.710
562.09	10.713
562.29	10.010
562.48	10.739
562.67	10.736
562.87	10.796
563.06	10.485
563.26	10.919
563.45	10.602
563.64	11.464
563.84	10.761
564.03	11.443
564.23	10.568
564.42	11.376
564.61	10.923
564.81	11.223
565.00	11.983
565.20	11.467
565.39	11.671
565.58	11.578
565.78	11.675
565.97	11.822
566.16	12.452
566.36	12.623
566.55	11.991
566.74	12.656
566.94	12.108
567.13	12.614
567.33	12.132
567.52	12.831
567.71	12.627
567.91	12.717
568.10	12.114
568.29	12.377
568.49	12.619
568.68	13.089
568.87	12.364
569.07	12.612
569.26	12.595
569.45	12.959
569.65	12.401
569.84	12.564
570.04	12.633
570.23	12.992
570.42	12.390
570.62	12.757
570.81	12.434
571.00	13.433
571.20	12.953
571.39	13.779
571.58	13.225
571.78	13.562
571.97	13.489
572.16	13.270
572.36	13.456
572.55	13.488
572.74	13.417
572.94	13.215
573.13	13.566
573.32	13.564
573.51	13.585
573.71	13.492
573.90	13.765
574.09	13.834
574.29	13.600
574.48	13.539
574.67	13.500
574.87	14.040
575.06	13.256
575.25	14.422
575.45	13.835
575.64	14.005
575.83	13.476
576.03	14.074
576.22	13.618
576.41	14.074
576.60	13.602
576.80	13.574
576.99	13.429
577.18	13.920
577.38	13.606
577.57	13.648
577.76	14.007
577.95	13.844
578.15	13.223
578.34	13.821
578.53	12.890
578.73	13.818
578.92	13.013
579.11	13.779
579.30	13.200
579.50	13.483
579.69	13.608
579.88	13.359
580.08	12.596
580.27	13.355
580.46	13.203
580.65	13.586
580.85	11.921
581.04	13.103
581.23	12.571
581.42	13.209
581.62	12.877
581.81	13.506
582.00	12.839
582.19	13.229
582.39	12.836
582.58	13.056
582.77	13.254
582.96	13.784
583.16	12.203
583.35	13.312
583.54	13.055
583.73	13.404
583.93	12.614
584.12	12.504
584.31	12.381
584.50	12.798
584.70	12.537
584.89	13.370
585.08	13.234
585.27	12.557
585.47	12.179
585.66	12.899
585.85	11.978
586.04	12.646
586.24	12.856
586.43	12.483
586.62	12.238
586.81	13.215
587.00	12.269
587.20	12.623
587.39	11.584
587.58	12.787
587.77	12.343
587.97	13.156
588.16	12.066
588.35	12.617
588.54	12.046
588.73	13.212
588.93	12.698
589.12	13.321
589.31	12.940
589.50	12.915
589.69	12.826
589.89	13.543
590.08	12.246
590.27	12.688
590.46	12.786
590.65	12.969
590.85	12.162
591.04	13.203
591.23	12.698
591.42	13.648
591.61	12.341
591.81	13.444
592.00	12.099
592.19	12.842
592.38	11.962
592.57	13.069
592.77	12.632
592.96	12.791
593.15	12.274
593.34	12.367
593.53	12.104
593.72	12.738
593.92	12.436
594.11	13.405
594.30	11.906
594.49	12.976
594.68	13.640
594.87	12.905
595.07	12.324
595.26	13.880
595.45	13.027
595.64	13.364
595.83	12.644
596.02	13.912
596.22	12.551
596.41	14.002
596.60	13.318
596.79	13.843
596.98	12.957
597.17	14.196
597.37	13.398
597.56	14.215
597.75	13.853
597.94	14.177
598.13	14.039
598.32	14.023
598.51	13.870
598.71	14.034
598.90	13.516
599.09	14.179
599.28	13.499
599.47	13.732
599.66	13.373
599.85	14.024
600.05	13.198
600.24	13.312
600.43	13.157
600.62	13.992
600.81	13.367
601.00	13.940
601.19	13.183
601.38	13.908
601.58	12.913
601.77	13.386
601.96	13.344
602.15	13.455
602.34	13.108
602.53	14.434
602.72	12.737
602.91	13.926
603.10	13.522
603.30	14.021
603.49	13.842
603.68	14.612
603.87	13.193
604.06	14.392
604.25	14.484
604.44	14.650
604.63	14.244
604.82	14.714
605.01	14.207
605.21	14.858
605.40	14.468
605.59	14.759
605.78	14.690
605.97	14.504
606.16	14.585
606.35	14.895
606.54	14.557
606.73	14.749
606.92	13.953
607.11	14.774
607.30	14.128
607.50	14.562
607.69	13.465
607.88	14.243
608.07	13.029
608.26	14.066
608.45	14.094
608.64	14.460
608.83	13.449
609.02	13.571
609.21	13.903
609.40	14.121
609.59	13.682
609.78	13.936
609.97	13.793
610.16	13.880
610.35	13.530
610.55	14.014
610.74	13.845
610.93	14.807
611.12	13.595
611.31	14.070
611.50	13.396
611.69	13.323
611.88	13.093
612.07	13.617
612.26	12.340
612.45	13.075
612.64	12.680
612.83	12.925
613.02	11.964
613.21	12.383
613.40	12.559
613.59	12.723
613.78	11.581
613.97	12.123
614.16	11.412
614.35	12.757
614.54	10.153
614.73	12.405
614.92	11.345
615.11	11.686
615.30	11.552
615.49	11.775
615.68	11.025
615.87	11.490
616.07	10.777
616.26	11.261
616.45	11.174
616.64	11.543
616.83	11.100
617.02	11.795
617.21	9.809
617.40	11.828
617.59	11.204
617.78	12.038
617.97	10.230
618.16	10.740
618.35	9.826
618.54	10.423
618.73	10.485
618.92	10.914
619.11	10.663
619.30	11.505
619.49	9.813
619.68	12.103
619.86	10.041
620.05	11.168
620.24	10.278
620.43	10.601
620.62	8.871
620.81	9.960
621.00	10.765
621.19	11.615
621.38	10.055
621.57	11.042
621.76	9.440
621.95	11.041
622.14	10.233
622.33	10.901
622.52	9.578
622.71	10.132
622.90	9.282
623.09	9.686
623.28	10.190
623.47	11.124
623.66	9.902
623.85	9.527
624.04	9.526
624.23	10.473
624.42	10.102
624.61	9.935
624.80	8.849
624.99	9.983
625.18	9.069
625.36	10.124
625.55	10.135
625.74	10.194
625.93	9.448
626.12	10.117
626.31	10.323
626.50	11.208
626.69	9.724
626.88	11.360
627.07	10.860
627.26	10.675
627.45	10.064
627.64	11.508
627.83	10.385
628.02	11.262
628.20	10.399
628.39	11.051
628.58	10.714
628.77	10.946
628.96	9.856
629.15	10.629
629.34	10.271
629.53	10.167
629.72	9.473
629.91	11.235
630.10	9.937
630.29	10.584
630.47	9.291
630.66	9.692
630.85	9.500
631.04	10.199
631.23	9.640
631.42	10.261
631.61	9.321
631.80	10.260
631.99	9.239
632.18	9.129
632.36	9.227
632.55	10.453
632.74	8.417
632.93	9.308
633.12	8.715
633.31	9.251
633.50	9.480
633.69	9.365
633.88	9.407
634.06	9.950
634.25	8.900
634.44	9.211
634.63	9.381
634.82	10.736
635.01	8.960
635.20	9.638
635.39	8.490
635.57	8.940
635.76	8.884
635.95	9.719
636.14	8.153
636.33	9.733
636.52	8.479
636.71	9.814
636.89	9.020
637.08	9.074
637.27	8.564
637.46	9.035
637.65	8.101
637.84	9.094
638.03	7.949
638.21	9.053
638.40	8.857
638.59	8.331
638.78	8.742
638.97	9.255
639.16	8.588
639.34	8.370
639.53	7.457
639.72	8.643
639.91	7.475
640.10	8.167
640.29	9.638
640.47	9.823
640.66	7.761
640.85	9.588
641.04	7.957
641.23	8.615
641.42	7.682
641.60	8.223
641.79	8.171
641.98	8.214
642.17	7.985
642.36	7.914
642.54	6.661
642.73	7.845
642.92	7.248
643.11	7.322
643.30	6.645
643.49	8.242
643.67	5.560
643.86	7.462
644.05	6.798
644.24	8.720
644.43	7.320
644.61	8.295
644.80	7.613
644.99	6.925
645.18	8.149
645.37	8.158
645.55	5.940
645.74	8.508
645.93	6.660
646.12	8.179
646.31	7.479
646.49	8.086
646.68	8.161
646.87	7.663
647.06	6.557
647.24	7.669
647.43	6.151
647.62	9.143
647.81	6.602
648.00	8.250
648.18	5.572
648.37	8.764
648.56	7.343
648.75	6.887
648.93	6.753
649.12	7.260
649.31	6.662
649.50	7.585
649.68	6.388
649.87	7.706
650.06	6.224
650.25	8.026
650.43	5.808
650.62	7.495
650.81	7.282
651.00	7.237
651.18	7.265
651.37	8.850
651.56	6.987
651.75	8.339
651.93	7.024
652.12	8.177
652.31	6.530
652.50	6.474
652.68	7.130
652.87	7.581
653.06	7.250
653.25	8.029
653.43	7.662
653.62	7.611
653.81	6.540
654.00	8.399
654.18	7.209
654.37	8.224
654.56	5.417
654.74	6.485
654.93	6.019
655.12	6.140
655.31	6.533
655.49	7.217
655.68	4.461
655.87	5.951
656.05	4.137
656.24	5.709
656.43	4.380
656.62	6.720
656.80	6.394
656.99	5.771
657.18	3.632
657.36	5.855
657.55	6.273
657.74	4.931
657.93	5.540
658.11	6.333
658.30	6.243
658.49	5.250
658.67	5.182
658.86	5.829
659.05	4.912
659.23	6.575
659.42	4.901
659.61	6.793
659.79	6.181
659.98	6.461
660.17	6.078
660.35	6.411
660.54	6.520
660.73	7.458
660.91	6.188
661.10	6.094
661.29	4.322
661.47	5.985
661.66	5.794
661.85	5.040
662.03	4.950
662.22	4.073
662.41	4.018
662.59	4.962
662.78	3.883
662.97	3.784
663.15	3.578
663.34	3.947
663.53	3.662
663.71	4.772
663.90	3.205
664.09	4.740
664.27	3.354
664.46	3.956
664.65	3.203
664.83	3.552
665.02	3.874
665.21	1.525
665.39	3.112
665.58	3.363
665.77	3.688
665.95	3.705
666.14	2.761
666.32	3.283
666.51	2.551
666.70	2.965
666.88	2.132
667.07	3.220
667.26	1.671
667.44	3.081
667.63	2.588
667.81	2.462
668.00	3.953
668.19	4.772
668.37	1.889
668.56	4.168
668.75	2.598
668.93	3.827
669.12	2.931
669.30	2.899
669.49	3.191
669.68	3.390
669.86	3.486
670.05	2.446
670.23	1.872
670.42	3.011
670.61	3.009
670.79	4.009
670.98	3.491
671.16	3.889
671.35	2.018
671.54	3.453
671.72	1.657
671.91	3.891
672.09	1.592
672.28	3.846
672.46	4.060
672.65	3.679
672.84	5.015
673.02	3.330
673.21	2.048
673.39	4.170
673.58	2.996
673.77	3.792
673.95	2.697
674.14	4.227
674.32	2.952
674.51	3.596
674.69	3.439
674.88	3.541
675.07	2.720
675.25	4.922
675.44	3.435
675.62	3.549
675.81	2.774
675.99	6.995
676.18	3.411
676.36	4.786
676.55	3.053
676.74	3.705
676.92	3.576
677.11	4.074
677.29	2.223
677.48	4.573
677.66	3.593
677.85	3.577
678.03	4.110
678.22	4.662
678.40	4.047
678.59	3.569
678.78	3.682
678.96	3.539
679.15	2.921
679.33	4.676
679.52	5.261
679.70	4.715
679.89	3.643
680.07	5.344
680.26	4.153
680.44	4.708
680.63	5.146
680.81	4.449
681.00	3.325
681.18	4.724
681.37	4.481
681.55	6.303
681.74	5.404
681.92	5.900
682.11	6.324
682.29	4.540
682.48	4.794
682.66	5.972
682.85	4.710
683.03	5.528
683.22	5.928
683.40	6.996
683.59	5.219
683.77	5.763
683.96	4.540
684.14	6.473
684.33	4.173
684.51	8.464
684.70	5.335
684.88	7.186
685.07	4.368
685.25	6.957
685.44	3.753
685.62	7.013
685.81	5.031
685.99	6.163
686.18	4.794
686.36	6.077
686.55	4.865
686.73	7.067
686.92	7.007
687.10	7.615
687.29	6.912
687.47	6.577
687.65	6.930
687.84	7.504
688.02	9.628
688.21	8.851
688.39	6.437
688.58	9.193
688.76	7.722
688.95	7.213
689.13	7.578
689.32	9.220
689.50	8.720
689.68	8.965
689.87	8.170
690.05	10.423
690.24	9.644
690.42	11.095
690.61	9.643
690.79	10.448
690.98	8.589
691.16	10.397
691.34	8.614
691.53	10.774
691.71	8.340
691.90	10.989
692.08	8.872
692.27	12.486
692.45	12.195
692.63	12.260
692.82	12.541
693.00	11.783
693.19	9.294
693.37	13.471
693.56	11.084
693.74	13.601
693.92	11.476
694.11	12.902
694.29	12.338
694.48	14.501
694.66	12.191
694.84	16.323
695.03	13.317
695.21	16.566
695.40	13.914
695.58	16.349
695.76	13.512
695.95	15.889
696.13	15.970
696.32	17.143
696.50	19.361
696.68	17.263
696.87	13.698
697.05	17.115
697.24	16.764
697.42	20.051
697.60	18.215
697.79	20.389
697.97	17.172
698.16	21.097
698.34	18.757
698.52	21.095
698.71	20.927
698.89	22.600
699.07	22.305
699.26	22.560
699.44	21.854
699.63	24.082
699.81	21.693
699.99	22.947
700.18	22.442
700.36	24.627
700.54	22.249
700.73	23.538
700.91	23.426
701.09	23.937
701.28	22.797
701.46	23.823
701.64	22.794
701.83	24.410
702.01	22.232
702.20	25.345
702.38	24.291
702.56	25.040
702.75	22.457
702.93	23.559
703.11	22.052
703.30	24.853
703.48	23.560
703.66	24.764
703.85	23.557
704.03	26.209
704.21	23.062
704.40	25.711
704.58	24.293
704.76	25.410
704.95	22.973
705.13	27.099
705.31	24.272
705.50	25.964
705.68	22.938
705.86	25.528
706.04	24.030
706.23	25.227
706.41	25.045
706.59	26.929
706.78	24.377
706.96	26.390
707.14	25.610
707.33	26.545
707.51	24.471
707.69	26.896
707.88	24.088
708.06	27.922
708.24	26.181
708.42	26.436
708.61	25.683
708.79	28.767
708.97	26.666
709.16	29.188
709.34	27.383
709.52	28.265
709.71	25.766
709.89	29.465
710.07	25.396
710.25	28.634
710.44	26.420
710.62	27.815
710.80	26.527
710.98	30.300
711.17	27.628
711.35	30.328
711.53	26.627
711.72	29.328
711.90	27.990
712.08	27.937
712.26	25.636
712.45	29.274
712.63	27.992
712.81	30.069
712.99	28.320
713.18	29.667
713.36	29.199
713.54	28.962
713.72	27.312
713.91	28.835
714.09	26.985
714.27	28.702
714.45	26.539
714.64	30.494
714.82	26.626
715.00	29.901
715.18	28.034
715.37	30.019
715.55	29.206
715.73	28.974
715.91	28.022
716.10	30.195
716.28	26.597
716.46	29.298
716.64	28.610
716.83	30.951
717.01	27.367
717.19	29.812
717.37	27.987
717.55	29.905
717.74	27.328
717.92	30.544
718.10	26.984
718.28	31.090
718.47	25.858
718.65	29.211
718.83	27.650
719.01	30.635
719.19	25.513
719.38	27.577
719.56	26.716
719.74	28.364
719.92	25.951
720.10	26.757
720.29	25.346
720.47	29.088
720.65	26.717
720.83	27.494
721.01	25.113
721.20	28.547
721.38	26.827
721.56	27.922
721.74	27.216
721.92	27.293
722.11	26.165
722.29	28.750
722.47	24.394
722.65	29.095
722.83	28.124
723.01	27.174
723.20	26.118
723.38	27.754
723.56	27.020
723.74	29.321
723.92	25.363
724.10	27.966
724.29	27.165
724.47	29.098
724.65	24.475
724.83	29.023
725.01	26.435
725.19	27.044
725.38	28.737
725.56	29.250
725.74	25.995
725.92	30.667
726.10	26.163
726.28	27.245
726.46	28.998
726.65	27.969
726.83	23.976
727.01	27.433
727.19	28.373
727.37	27.756
727.55	26.482
727.73	25.887
727.92	26.532
728.10	30.450
728.28	24.724
728.46	29.237
728.64	25.799
728.82	29.105
729.00	27.334
729.19	30.138
729.37	28.093
729.55	30.575
729.73	26.014
729.91	29.978
730.09	26.954
730.27	28.963
730.45	25.705
730.63	30.351
730.82	26.386
731.00	29.168
731.18	26.946
731.36	29.844
731.54	28.234
731.72	29.327
731.90	28.329
732.08	29.932
732.26	26.701
732.45	31.822
732.63	27.615
732.81	28.899
732.99	26.709
733.17	31.093
733.35	26.340
733.53	29.806
733.71	28.917
733.89	29.513
734.07	27.528
734.25	31.172
734.44	28.867
734.62	28.273
734.80	28.008
734.98	31.704
735.16	29.055
735.34	30.706
735.52	29.936
735.70	30.778
735.88	27.039
736.06	31.459
736.24	29.082
736.42	30.200
736.60	29.148
736.78	29.751
736.97	28.762
737.15	28.996
737.33	26.340
737.51	30.389
737.69	26.753
737.87	28.938
738.05	30.127
738.23	27.884
738.41	26.280
738.59	32.372
738.77	26.548
738.95	31.331
739.13	28.805
739.31	29.640
739.49	30.484
739.67	30.751
739.85	27.613
740.03	29.985
740.21	29.587
740.39	28.829
740.57	28.078
740.75	28.396
740.93	26.809
741.11	29.495
741.30	28.743
741.48	29.346
741.66	28.846
741.84	29.605
742.02	28.541
742.20	29.525
742.38	27.810
742.56	31.912
742.74	24.019
742.92	29.158
743.10	24.728
743.28	30.653
743.46	24.264
743.64	26.965
743.82	24.902
744.00	29.069
744.18	28.719
744.36	27.673
744.54	26.627
744.72	29.391
744.90	26.617
745.08	28.157
745.26	26.152
745.44	28.716
745.62	24.901
745.80	29.850
745.98	25.446
746.16	28.504
746.34	27.684
746.52	28.960
746.70	25.089
746.87	25.649
747.05	25.649
747.23	26.786
747.41	25.534
747.59	26.355
747.77	22.405
747.95	24.308
748.13	26.237
748.31	28.340
748.49	24.385
748.67	27.056
748.85	24.913
749.03	27.159
749.21	25.235
749.39	30.809
749.57	25.699
749.75	26.083
749.93	25.345
750.11	27.960
750.29	24.831
750.47	27.392
750.65	27.316
750.83	28.456
751.01	24.205
751.18	27.918
751.36	25.386
751.54	29.417
751.72	27.237
751.90	27.597
752.08	25.215
752.26	24.667
752.44	26.442
752.62	27.063
752.80	25.066
752.98	28.957
753.16	25.831
753.34	27.972
753.52	25.160
753.69	26.935
753.87	27.427
754.05	28.844
754.23	25.214
754.41	26.478
754.59	24.145
754.77	25.806
754.95	24.306
755.13	26.219
755.31	25.785
755.49	28.238
755.66	24.734
755.84	25.420
756.02	26.317
756.20	29.406
756.38	25.644
756.56	28.979
756.74	23.501
756.92	26.054
757.10	23.441
757.28	26.821
757.45	25.291
757.63	27.976
757.81	24.619
757.99	26.480
758.17	20.811
758.35	27.095
758.53	26.425
758.71	27.873
758.88	22.685
759.06	26.107
759.24	25.381
759.42	24.030
759.60	25.962
759.78	19.827
759.96	21.433
760.13	23.224
760.31	17.087
760.49	21.846
760.67	14.458
760.85	22.994
761.03	17.208
761.21	17.640
761.38	15.420
761.56	19.703
761.74	18.921
761.92	21.279
762.10	15.466
762.28	20.412
762.46	13.590
762.63	18.587
762.81	16.321
762.99	20.065
763.17	20.599
763.35	21.628
763.53	17.948
763.70	24.404
763.88	24.379
764.06	23.883
764.24	23.632
764.42	25.696
764.60	23.838
764.77	24.611
764.95	24.118
765.13	25.608
765.31	24.452
765.49	27.031
765.66	22.967
765.84	26.065
766.02	20.968
766.20	27.273
766.38	24.710
766.56	25.565
766.73	20.593
766.91	23.629
767.09	22.387
767.27	27.227
767.45	23.108
767.62	23.851
767.80	25.112
767.98	22.636
768.16	19.447
768.33	29.484
768.51	22.559
768.69	22.745
768.87	18.789
769.05	22.671
769.22	21.748
769.40	23.178
769.58	23.695
769.76	24.488
769.94	20.707
770.11	26.289
770.29	22.677
770.47	24.457
770.65	20.688
770.82	26.279
771.00	21.090
771.18	25.861
771.36	19.548
771.53	23.804
771.71	20.200
771.89	26.472
772.07	18.693
772.25	20.898
772.42	21.946
772.60	23.032
772.78	21.089
772.96	25.540
773.13	25.123
773.31	23.961
773.49	15.733
773.67	24.247
773.84	20.821
774.02	20.159
774.20	20.833
774.37	22.602
774.55	18.609
774.73	23.944
774.91	23.708
775.08	25.251
775.26	18.094
775.44	20.665
775.62	18.024
775.79	18.398
775.97	18.025
776.15	18.117
776.32	17.068
776.50	20.400
776.68	22.048
776.86	23.375
777.03	16.489
777.21	25.686
777.39	19.569
777.56	22.607
777.74	18.128
777.92	19.203
778.10	16.148
778.27	21.973
778.45	20.852
778.63	21.293
778.80	17.328
778.98	21.790
779.16	25.094
779.34	23.077
779.51	20.289
779.69	24.579
779.87	19.105
780.04	18.676
780.22	17.059
780.40	20.010
780.57	21.005
780.75	20.123
780.93	22.715
781.10	21.955
781.28	24.121
781.46	14.983
781.63	16.303
781.81	23.330
781.99	17.897
782.16	18.712
782.34	14.187
782.52	19.547
782.69	20.011
782.87	23.180
783.05	21.088
783.22	18.696
783.40	15.723
783.58	16.958
783.75	16.575
783.93	24.394
784.11	16.860
784.28	21.146
784.46	18.578
784.64	19.719
784.81	16.590
784.99	24.785
785.17	19.602
785.34	18.033
785.52	20.145
785.69	17.377
785.87	14.386
786.05	17.297
786.22	18.764
786.40	20.162
786.58	16.459
786.75	19.355
786.93	17.207
787.11	18.934
787.28	15.402
787.46	21.256
787.63	14.184
787.81	18.971
787.99	21.563
788.16	20.154
788.34	17.293
788.51	20.479
788.69	15.874
788.87	20.776
789.04	13.508
789.22	21.756
789.39	19.158
789.57	21.496
789.75	16.113
789.92	21.200
790.10	20.649
790.27	20.310
790.45	16.755
790.63	17.586
790.80	16.800
790.98	19.390
791.15	18.858
791.33	15.968
791.51	13.296
791.68	19.226
791.86	19.493
792.03	21.672
792.21	15.075
792.39	15.889
792.56	16.007
792.74	22.613
792.91	18.782
793.09	17.913
793.26	15.574
793.44	17.797
793.62	12.957
793.79	22.077
793.97	13.498
794.14	16.755
794.32	15.399
794.49	17.562
794.67	16.637
794.84	12.850
795.02	14.674
795.20	19.459
795.37	10.901
795.55	17.279
795.72	16.834
795.90	18.486
796.07	15.837
796.25	20.583
796.42	14.127
796.60	15.192
796.77	17.935
796.95	16.438
797.13	14.607
797.30	20.693
797.48	16.738
797.65	19.107
797.83	17.837
798.00	19.415
798.18	17.105
798.35	16.155
798.53	17.015
798.70	15.148
798.88	19.978
799.05	22.120
799.23	17.158
799.40	19.166
799.58	17.710
799.75	12.246
799.93	12.630
800.10	17.309
800.28	22.222
800.45	23.986
800.63	12.201
800.80	13.329
800.98	16.454
801.15	20.110
801.33	19.789
801.50	16.533
801.68	15.040
801.85	17.089
802.03	15.822
802.20	18.856
802.38	22.236
802.55	16.415
802.73	16.779
802.90	15.106
803.08	12.759
803.25	18.490
803.43	18.476
803.60	17.101
803.78	10.656
803.95	13.291
804.13	13.953
804.30	13.504
804.48	15.850
804.65	18.863
804.83	11.611
805.00	10.014
805.17	15.284
805.35	13.240
805.52	15.512
805.70	16.925
805.87	16.239
806.05	13.838
806.22	18.074
806.40	7.734
806.57	15.512
806.75	18.565
806.92	17.311
807.09	17.145
807.27	16.078
807.44	17.740
807.62	13.669
807.79	15.557
807.97	17.551
808.14	14.740
808.31	9.866
808.49	12.064
808.66	17.865
808.84	12.814
809.01	17.812
809.19	17.106
809.36	17.418
809.53	6.298
809.71	9.468
809.88	16.272
810.06	17.927
810.23	10.561
810.41	13.770
810.58	14.956
810.75	10.079
810.93	14.948
811.10	7.699
811.28	18.861
811.45	15.627
811.62	14.467
811.80	16.297
811.97	8.713
812.15	17.210
812.32	11.067
812.49	7.452
812.67	6.864
812.84	14.910
813.02	15.710
813.19	9.209
813.36	15.913
813.54	9.548
813.71	20.484
813.89	16.836
814.06	12.301
814.23	8.653
814.41	4.641
814.58	15.957
814.75	10.077
814.93	10.986
815.10	13.804
815.28	6.728
815.45	13.868
815.62	12.700
815.80	15.067
815.97	5.035
816.14	10.996
816.32	12.584
816.49	8.053
816.66	14.497
816.84	14.646
817.01	11.526
817.18	14.758
817.36	11.560
817.53	16.745
817.71	8.393
817.88	13.834
818.05	12.204
818.23	16.854
818.40	12.960
818.57	20.974
818.75	4.818
818.92	11.642
819.09	17.491
819.27	7.912
819.44	11.710
819.61	5.933
819.79	12.354
819.96	13.434
820.13	12.436
820.31	13.338
820.48	21.237
820.65	11.858
820.82	13.256
821.00	15.239
821.17	11.145
821.34	16.026
821.52	16.810
821.69	13.167
821.86	14.384
822.04	16.906
822.21	17.271
822.38	21.414
822.56	20.284
822.73	26.607
822.90	25.436
823.07	27.670
823.25	26.444
823.42	28.555
823.59	26.276
823.77	29.274
823.94	27.069
824.11	27.858
824.29	25.985
824.46	28.831
824.63	27.070
824.80	25.991
824.98	24.804
825.15	25.896
825.32	19.970
825.49	23.066
825.67	18.909
825.84	25.381
826.01	19.199
826.19	22.444
826.36	16.052
826.53	20.844
826.70	18.116
826.88	18.305
827.05	17.631
827.22	16.353
827.39	17.695
827.57	19.984
827.74	17.670
827.91	22.395
828.08	17.529
828.26	19.698
828.43	16.523
828.60	23.123
828.77	19.670
828.95	20.989
829.12	15.810
829.29	15.947
829.46	16.904
829.64	15.849
829.81	12.010
829.98	16.089
830.15	15.139
830.32	16.583
830.50	14.707
830.67	13.151
830.84	10.298
831.01	12.649
831.19	10.477
831.36	10.941
831.53	13.025
831.70	18.021
831.87	12.633
832.05	11.202
832.22	17.092
832.39	4.956
832.56	8.512
832.74	10.290
832.91	12.173
833.08	12.774
833.25	10.306
833.42	11.693
833.60	8.264
833.77	8.031
833.94	15.628
834.11	11.922
834.28	10.885
834.45	13.858
834.63	11.067
834.80	15.994
834.97	12.872
835.14	14.579
835.31	15.146
835.49	14.137
835.66	13.505
835.83	17.346
836.00	12.529
836.17	14.244
836.34	12.552
836.52	14.116
836.69	16.935
836.86	10.546
837.03	8.715
837.20	9.676
837.37	10.336
837.55	11.652
837.72	8.162
837.89	12.908
838.06	13.712
838.23	12.214
838.40	11.765
838.58	14.481
838.75	6.139
838.92	15.855
839.09	15.784
839.26	18.109
839.43	10.877
839.60	8.446
839.78	19.092
839.95	11.656
840.12	13.326
840.29	14.255
840.46	12.423
840.63	10.112
840.80	11.984
840.98	10.997
841.15	14.142
841.32	10.803
841.49	10.093
841.66	17.291
841.83	16.093
842.00	5.237
842.17	13.530
842.34	10.239
842.52	8.755
842.69	11.995
842.86	11.777
843.03	16.686
843.20	10.507
843.37	4.625
843.54	10.207
843.71	13.378
843.88	16.556
844.06	18.054
844.23	13.333
844.40	8.962
844.57	19.943
844.74	1.387
844.91	18.519
845.08	18.308
845.25	19.024
845.42	1.406
845.59	-1.117
845.76	17.667
845.94	12.318
846.11	19.185
846.28	12.821
846.45	14.724
846.62	28.977
846.79	2.462
846.96	15.534
847.13	10.603
847.30	13.958
847.47	13.919
847.64	21.399
847.81	17.500
847.98	14.407
848.15	13.944
848.32	21.670
848.50	-3.030
848.67	6.897
848.84	9.812
849.01	14.510
849.18	3.066
849.35	3.922
849.52	21.521
849.69	8.316
849.86	21.382
850.03	17.083
850.20	17.714
850.37	11.087
850.54	13.333
850.71	13.169
850.88	1.282
851.05	16.998
851.22	20.128
851.39	11.794
851.56	23.892
851.73	25.352
851.90	14.181
852.07	27.158
852.24	23.782
852.41	23.251
852.58	8.297
852.75	28.341
852.92	11.824
853.09	14.725
853.26	17.865
853.43	31.635
853.60	13.134
853.77	6.118
853.94	17.204
854.11	12.468
854.28	28.345
854.45	2.098
854.62	10.846
854.79	5.000
854.96	13.462
855.13	16.818
855.30	6.426
855.47	-0.536
855.64	23.246
855.81	15.038
855.98	7.783
856.15	9.544
856.32	6.926
856.49	33.568
856.66	3.030
856.83	23.260
857.00	12.286
857.17	11.084
857.34	3.636
857.51	15.407
857.68	-1.684
857.85	24.145
858.02	9.281
858.19	10.412
858.36	24.944
858.53	5.163
858.70	15.758
858.87	11.504
859.04	15.289
859.21	14.039
859.38	24.528
859.55	0.000
859.72	-1.152
859.89	22.750
860.05	40.698
860.22	13.973
860.39	32.234
860.56	11.730
860.73	24.839
860.90	28.267
861.07	18.830
861.24	24.190
861.41	26.585
861.58	14.824
861.75	36.842
861.92	0.645
862.09	10.804
862.26	11.278
862.43	19.535
862.59	10.930
862.76	14.958
862.93	6.136
863.10	19.086
863.27	9.406
863.44	14.508
863.61	31.991
863.78	2.673
863.95	19.186
864.12	6.667
864.29	13.225
864.45	24.477
864.62	9.559
864.79	-0.686
864.96	27.536
865.13	13.759
865.30	21.308
865.47	15.513
865.64	-0.477
865.81	18.313
865.97	17.016
866.14	25.397
866.31	1.775
866.48	9.117
866.65	1.662
866.82	18.860
866.99	19.274
867.16	8.547
867.33	22.807
867.49	16.122
867.66	8.897
867.83	-11.662
868.00	14.670
868.17	27.301
868.34	26.776
868.51	36.721
868.67	29.589
868.84	18.158
869.01	16.480
869.18	21.622
869.35	28.878
869.52	16.920
869.69	11.852
869.85	23.501
870.02	9.113
870.19	18.040
870.36	30.556
870.53	37.856
870.70	23.649
870.86	36.631
871.03	12.258
871.20	26.374
871.37	11.663
871.54	28.501
871.71	20.476
871.87	12.583
872.04	13.869
872.21	20.958
872.38	20.798
872.55	20.988
872.72	13.754
872.88	10.843
873.05	11.137
873.22	11.399
873.39	12.558
873.56	29.318
873.72	14.583
873.89	17.188
874.06	8.995
874.23	16.222
874.40	22.632
874.56	20.189
874.73	-7.568
874.90	12.690
875.07	9.798
875.24	10.302
875.40	23.810
875.57	6.234
875.74	16.780
875.91	28.941
876.08	40.268
876.24	21.822
876.41	19.461
876.58	1.874
876.75	10.933
876.92	24.645
877.08	9.922
877.25	12.603
877.42	7.778
877.59	9.569
877.75	19.740
877.92	16.136
878.09	27.992
878.26	12.911
878.42	15.578
878.59	5.425
878.76	10.629
878.93	23.429
879.09	24.494
879.26	28.958
879.43	5.405
879.60	4.229
879.76	27.594
879.93	10.215
880.10	8.762
880.27	18.271
880.43	3.180
880.60	15.993
880.77	6.667
880.94	17.594
881.10	14.116
881.27	13.214
881.44	13.738
881.61	8.841
881.77	11.095
881.94	4.795
882.11	6.231
882.28	5.942
882.44	8.696
882.61	15.152
882.78	15.770
882.94	17.343
883.11	13.463
883.28	15.966
883.45	15.235
883.61	15.192
883.78	13.907
883.95	14.088
884.11	17.184
884.28	9.996
>>>>>End Processed Spectral Data<<<<<
