SpectraSuite Data File
++++++++++++++++++++++++++++++++++++
Date: Wed Sep 25 02:59:13 EST 2019
User: sgrac
Dark Spectrum Present: Yes
Reference Spectrum Present: Yes
Number of Sampled Component Spectra: 1
Spectrometers: USB4E01596
Integration Time (usec): 100000 (USB4E01596)
Spectra Averaged: 3 (USB4E01596)
Boxcar Smoothing: 0 (USB4E01596)
Correct for Electrical Dark: No (USB4E01596)
Strobe/Lamp Enabled: Yes (USB4E01596)
Correct for Detector Non-linearity: No (USB4E01596)
Correct for Stray Light: No (USB4E01596)
Number of Pixels in Processed Spectrum: 3648
>>>>>Begin Processed Spectral Data<<<<<
178.44	-273.077
178.66	-273.077
178.87	-273.077
179.09	-346.875
179.30	422.581
179.52	556.522
179.74	-407.895
179.95	-201.852
180.17	244.898
180.38	-475.000
180.60	-973.333
180.82	-1844.444
181.03	506.977
181.25	-1641.667
181.46	-226.389
181.68	262.821
181.89	-596.774
182.11	3366.667
182.33	290.385
182.54	-6350.000
182.76	392.157
182.97	460.526
183.19	583.333
183.40	330.435
183.62	510.000
183.84	239.286
184.05	438.462
184.27	-1027.273
184.48	11900.000
184.70	729.630
184.91	390.566
185.13	971.429
185.34	361.017
185.56	232.184
185.78	200.000
185.99	350.000
186.21	202.410
186.42	885.714
186.64	-877.778
186.85	375.610
187.07	-616.000
187.28	220.833
187.50	-265.116
187.72	552.381
187.93	502.703
188.15	942.857
188.36	397.917
188.58	278.333
188.79	460.938
189.01	252.459
189.22	231.183
189.44	218.868
189.65	-339.024
189.87	700.000
190.09	201.923
190.30	210.185
190.52	-255.172
190.73	168.675
190.95	-1271.429
191.16	286.957
191.38	248.077
191.59	212.346
191.81	872.222
192.02	-1533.333
192.24	-1618.182
192.45	148.387
192.67	-3980.000
192.88	154.651
193.10	214.706
193.31	157.377
193.53	-79.032
193.74	409.091
193.96	-2316.667
194.18	1128.571
194.39	355.932
194.61	533.333
194.82	163.636
195.04	169.298
195.25	340.000
195.47	-13900.000
195.68	210.769
195.90	190.000
196.11	690.476
196.33	-165.476
196.54	514.286
196.76	225.806
196.97	132.099
197.19	148.872
197.40	-246.667
197.62	268.750
197.83	788.235
198.05	181.250
198.26	297.917
198.48	1035.294
198.69	-279.487
198.91	232.812
199.12	-8500.000
199.34	468.293
199.55	755.000
199.77	309.524
199.98	342.857
200.20	284.524
200.41	147.727
200.63	241.463
200.84	335.556
201.06	142.405
201.27	-201.754
201.49	-800.000
201.70	296.104
201.91	-2928.571
202.13	-487.500
202.34	-439.394
202.56	689.474
202.77	410.526
202.99	414.894
203.20	215.054
203.42	263.158
203.63	295.775
203.85	-926.667
204.06	590.909
204.28	-2340.000
204.49	713.333
204.71	177.419
204.92	314.706
205.14	1281.250
205.35	337.500
205.56	1114.286
205.78	320.000
205.99	169.512
206.21	384.615
206.42	211.864
206.64	209.375
206.85	237.209
207.07	-407.895
207.28	215.942
207.50	464.865
207.71	562.500
207.93	170.707
208.14	334.000
208.35	459.091
208.57	1020.000
208.78	916.000
209.00	389.362
209.21	288.889
209.43	218.447
209.64	-1300.000
209.86	428.205
210.07	-666.667
210.28	254.348
210.50	610.526
210.71	140.714
210.93	200.000
211.14	253.636
211.36	-1040.000
211.57	269.444
211.78	270.000
212.00	329.787
212.21	491.892
212.43	10300.000
212.64	508.824
212.86	295.833
213.07	442.424
213.29	-1353.333
213.50	529.032
213.71	912.000
213.93	677.778
214.14	180.000
214.36	113.924
214.57	301.639
214.78	358.824
215.00	294.118
215.21	1130.769
215.43	184.848
215.64	467.442
215.86	384.848
216.07	286.667
216.28	421.739
216.50	173.148
216.71	270.690
216.93	447.368
217.14	194.595
217.35	411.538
217.57	104.839
217.78	389.474
218.00	224.419
218.21	510.000
218.42	2766.667
218.64	144.538
218.85	540.000
219.07	340.984
219.28	198.246
219.49	372.727
219.71	170.270
219.92	865.000
220.14	743.750
220.35	251.515
220.56	147.742
220.78	3400.000
220.99	236.585
221.21	135.593
221.42	209.756
221.63	243.333
221.85	280.435
222.06	108.547
222.28	226.316
222.49	315.000
222.70	173.394
222.92	271.910
223.13	219.318
223.34	148.031
223.56	201.449
223.77	230.159
223.99	603.846
224.20	125.175
224.41	161.475
224.63	113.934
224.84	156.338
225.05	214.286
225.27	279.221
225.48	120.755
225.69	91.071
225.91	409.615
226.12	133.582
226.34	99.310
226.55	94.783
226.76	102.286
226.98	85.169
227.19	54.023
227.40	64.414
227.62	73.684
227.83	51.601
228.04	69.966
228.26	55.138
228.47	38.875
228.69	24.561
228.90	28.825
229.11	15.534
229.33	26.128
229.54	16.874
229.75	19.654
229.97	25.254
230.18	24.359
230.39	10.202
230.61	20.985
230.82	15.070
231.03	16.687
231.25	25.789
231.46	8.627
231.67	28.137
231.89	16.407
232.10	16.733
232.31	18.227
232.53	23.589
232.74	36.246
232.95	31.423
233.17	28.932
233.38	34.586
233.59	37.639
233.81	22.091
234.02	35.603
234.23	27.953
234.45	23.543
234.66	24.277
234.87	26.850
235.09	26.935
235.30	36.620
235.51	31.171
235.73	16.145
235.94	22.914
236.15	21.277
236.36	13.277
236.58	17.479
236.79	25.312
237.00	28.906
237.22	27.644
237.43	19.327
237.64	23.220
237.86	29.205
238.07	21.992
238.28	30.856
238.50	25.736
238.71	25.000
238.92	26.667
239.13	31.211
239.35	35.910
239.56	17.689
239.77	33.504
239.99	17.474
240.20	22.594
240.41	17.528
240.63	16.933
240.84	31.114
241.05	17.771
241.26	17.641
241.48	17.818
241.69	10.501
241.90	8.222
242.12	10.914
242.33	11.295
242.54	4.795
242.75	10.393
242.97	10.703
243.18	6.212
243.39	7.719
243.61	9.324
243.82	12.864
244.03	7.543
244.24	7.346
244.46	8.698
244.67	10.154
244.88	10.292
245.09	8.836
245.31	12.353
245.52	8.900
245.73	11.105
245.95	18.603
246.16	9.323
246.37	11.390
246.58	11.408
246.80	10.543
247.01	5.306
247.22	5.673
247.43	6.586
247.65	7.419
247.86	5.896
248.07	5.625
248.28	5.315
248.50	5.655
248.71	3.831
248.92	4.363
249.13	4.920
249.35	4.696
249.56	6.523
249.77	5.621
249.98	6.566
250.20	7.062
250.41	4.477
250.62	7.974
250.83	9.867
251.05	9.027
251.26	9.662
251.47	11.696
251.68	10.893
251.90	8.405
252.11	13.337
252.32	10.299
252.53	12.816
252.75	9.214
252.96	5.241
253.17	11.805
253.38	9.071
253.59	7.037
253.81	8.429
254.02	6.543
254.23	9.693
254.44	8.311
254.66	10.923
254.87	14.673
255.08	3.676
255.29	10.197
255.50	15.265
255.72	9.850
255.93	7.181
256.14	11.260
256.35	10.401
256.57	13.115
256.78	10.097
256.99	16.296
257.20	13.309
257.41	9.748
257.63	11.890
257.84	9.182
258.05	16.265
258.26	7.207
258.47	10.481
258.69	6.490
258.90	8.532
259.11	11.383
259.32	8.035
259.53	6.707
259.75	6.304
259.96	5.206
260.17	3.284
260.38	5.738
260.59	3.465
260.81	3.520
261.02	5.417
261.23	4.616
261.44	6.354
261.65	5.797
261.87	2.272
262.08	3.484
262.29	6.959
262.50	3.695
262.71	3.946
262.92	5.136
263.14	5.732
263.35	4.653
263.56	6.499
263.77	7.167
263.98	5.936
264.20	4.990
264.41	6.292
264.62	7.702
264.83	8.513
265.04	9.124
265.25	6.941
265.47	10.886
265.68	7.032
265.89	7.040
266.10	9.250
266.31	6.345
266.52	9.229
266.74	8.651
266.95	8.070
267.16	5.560
267.37	9.104
267.58	4.151
267.79	7.669
268.01	5.359
268.22	4.588
268.43	7.999
268.64	5.794
268.85	4.203
269.06	5.211
269.27	8.022
269.49	5.894
269.70	5.255
269.91	4.804
270.12	6.351
270.33	5.520
270.54	4.686
270.75	4.150
270.97	4.919
271.18	4.472
271.39	5.149
271.60	8.479
271.81	2.604
272.02	4.602
272.23	6.838
272.45	6.897
272.66	4.707
272.87	3.919
273.08	4.590
273.29	5.251
273.50	4.045
273.71	4.029
273.92	4.763
274.14	4.654
274.35	4.985
274.56	4.445
274.77	4.936
274.98	4.733
275.19	4.807
275.40	4.424
275.61	4.691
275.83	7.235
276.04	5.438
276.25	5.921
276.46	6.546
276.67	7.561
276.88	4.741
277.09	5.395
277.30	5.211
277.51	6.065
277.73	6.724
277.94	4.137
278.15	6.315
278.36	7.574
278.57	7.591
278.78	3.875
278.99	5.331
279.20	7.002
279.41	8.072
279.62	5.805
279.84	5.783
280.05	6.283
280.26	3.369
280.47	5.566
280.68	5.789
280.89	5.172
281.10	4.857
281.31	5.220
281.52	5.766
281.73	3.717
281.94	4.034
282.16	5.936
282.37	3.359
282.58	3.315
282.79	5.990
283.00	5.947
283.21	4.331
283.42	4.589
283.63	3.926
283.84	4.622
284.05	1.339
284.26	4.940
284.47	3.467
284.68	5.313
284.89	4.870
285.11	4.620
285.32	4.129
285.53	3.799
285.74	5.244
285.95	5.013
286.16	3.881
286.37	4.916
286.58	4.905
286.79	2.496
287.00	3.427
287.21	5.353
287.42	4.068
287.63	3.126
287.84	3.459
288.05	3.768
288.26	4.356
288.48	4.017
288.69	5.403
288.90	4.424
289.11	3.549
289.32	3.993
289.53	2.964
289.74	2.811
289.95	3.269
290.16	3.124
290.37	3.700
290.58	4.690
290.79	4.815
291.00	4.623
291.21	2.849
291.42	4.975
291.63	2.038
291.84	3.260
292.05	4.358
292.26	3.969
292.47	4.470
292.68	4.226
292.89	4.854
293.10	4.407
293.31	4.355
293.52	4.758
293.73	3.656
293.94	6.170
294.15	2.887
294.36	5.032
294.57	4.241
294.79	3.819
295.00	2.744
295.21	5.209
295.42	4.621
295.63	4.525
295.84	3.638
296.05	3.756
296.26	3.254
296.47	2.265
296.68	4.318
296.89	4.516
297.10	3.577
297.31	3.259
297.52	3.922
297.73	2.156
297.94	1.829
298.15	2.804
298.36	3.582
298.57	2.410
298.78	2.525
298.99	2.649
299.20	3.597
299.41	3.888
299.62	2.682
299.83	1.688
300.04	3.874
300.25	3.664
300.46	3.919
300.67	3.113
300.88	4.226
301.09	3.658
301.30	4.075
301.50	4.270
301.71	3.817
301.92	3.829
302.13	3.829
302.34	4.312
302.55	3.998
302.76	3.493
302.97	2.992
303.18	4.838
303.39	2.941
303.60	5.126
303.81	5.577
304.02	3.212
304.23	4.474
304.44	3.385
304.65	4.394
304.86	3.089
305.07	5.108
305.28	5.315
305.49	5.400
305.70	2.860
305.91	1.736
306.12	5.951
306.33	4.207
306.54	4.733
306.75	4.628
306.96	5.462
307.17	3.142
307.38	4.519
307.58	4.479
307.79	3.392
308.00	3.422
308.21	4.944
308.42	3.318
308.63	4.705
308.84	3.589
309.05	2.674
309.26	2.445
309.47	2.915
309.68	3.731
309.89	4.300
310.10	3.159
310.31	2.084
310.52	4.297
310.73	4.525
310.94	3.253
311.14	2.017
311.35	3.865
311.56	3.456
311.77	2.825
311.98	3.508
312.19	2.086
312.40	3.405
312.61	3.576
312.82	3.106
313.03	2.518
313.24	4.002
313.45	3.388
313.66	3.363
313.86	5.157
314.07	2.850
314.28	4.068
314.49	3.642
314.70	3.882
314.91	5.353
315.12	3.401
315.33	2.597
315.54	3.953
315.75	3.046
315.96	4.064
316.16	4.318
316.37	3.600
316.58	2.240
316.79	5.467
317.00	4.952
317.21	5.126
317.42	5.196
317.63	4.549
317.84	3.865
318.05	3.378
318.25	6.092
318.46	4.975
318.67	4.809
318.88	4.125
319.09	5.701
319.30	4.029
319.51	4.277
319.72	4.223
319.93	2.255
320.13	3.328
320.34	4.467
320.55	4.526
320.76	5.884
320.97	4.864
321.18	6.094
321.39	3.914
321.60	4.619
321.80	5.525
322.01	4.539
322.22	5.944
322.43	2.820
322.64	5.866
322.85	3.765
323.06	4.233
323.27	4.444
323.47	5.398
323.68	4.563
323.89	3.671
324.10	4.134
324.31	3.379
324.52	4.320
324.73	2.922
324.93	4.703
325.14	5.015
325.35	4.298
325.56	3.863
325.77	5.565
325.98	3.968
326.19	5.368
326.39	1.952
326.60	4.037
326.81	3.977
327.02	4.047
327.23	3.355
327.44	4.627
327.64	2.918
327.85	3.837
328.06	3.364
328.27	5.514
328.48	2.975
328.69	3.193
328.90	2.943
329.10	4.847
329.31	5.095
329.52	4.101
329.73	4.487
329.94	2.705
330.15	3.994
330.35	3.856
330.56	3.109
330.77	3.913
330.98	4.376
331.19	3.652
331.39	5.186
331.60	2.738
331.81	4.487
332.02	4.146
332.23	4.417
332.44	3.560
332.64	4.966
332.85	4.622
333.06	4.855
333.27	2.317
333.48	4.183
333.68	2.166
333.89	3.012
334.10	4.830
334.31	4.980
334.52	3.342
334.72	4.353
334.93	2.811
335.14	2.591
335.35	4.893
335.56	5.161
335.76	4.608
335.97	4.049
336.18	2.835
336.39	5.275
336.60	3.940
336.80	3.586
337.01	3.657
337.22	3.935
337.43	4.082
337.64	4.356
337.84	5.132
338.05	6.055
338.26	6.073
338.47	5.857
338.68	2.691
338.88	4.559
339.09	4.758
339.30	4.835
339.51	6.571
339.71	6.391
339.92	4.630
340.13	3.352
340.34	4.884
340.55	4.842
340.75	5.753
340.96	4.301
341.17	4.566
341.38	4.898
341.58	5.786
341.79	4.799
342.00	4.934
342.21	6.230
342.41	4.555
342.62	4.823
342.83	5.652
343.04	3.697
343.24	4.204
343.45	7.345
343.66	4.115
343.87	6.308
344.07	4.041
344.28	6.887
344.49	5.568
344.70	7.491
344.90	5.456
345.11	3.792
345.32	4.292
345.53	5.856
345.73	5.294
345.94	7.427
346.15	6.609
346.36	6.257
346.56	6.716
346.77	8.164
346.98	7.004
347.19	7.704
347.39	6.116
347.60	6.922
347.81	8.016
348.02	8.032
348.22	6.226
348.43	6.535
348.64	4.678
348.84	8.182
349.05	7.977
349.26	8.445
349.47	7.240
349.67	6.161
349.88	9.582
350.09	7.661
350.30	8.801
350.50	7.525
350.71	8.508
350.92	10.850
351.12	7.913
351.33	8.197
351.54	7.164
351.74	9.497
351.95	7.727
352.16	8.667
352.37	10.418
352.57	7.772
352.78	7.266
352.99	8.818
353.19	8.729
353.40	10.186
353.61	9.354
353.82	10.166
354.02	9.469
354.23	10.180
354.44	12.184
354.64	8.811
354.85	10.169
355.06	10.385
355.26	8.254
355.47	9.519
355.68	12.281
355.88	11.636
356.09	11.031
356.30	8.871
356.51	11.292
356.71	11.399
356.92	8.313
357.13	12.717
357.33	12.195
357.54	10.117
357.75	8.527
357.95	11.009
358.16	10.213
358.37	13.127
358.57	9.864
358.78	14.540
358.99	11.719
359.19	12.329
359.40	12.172
359.61	10.524
359.81	13.775
360.02	13.827
360.23	9.309
360.43	11.768
360.64	10.620
360.85	10.012
361.05	10.353
361.26	14.283
361.47	11.271
361.67	13.536
361.88	10.002
362.09	12.763
362.29	11.004
362.50	11.493
362.70	10.359
362.91	13.430
363.12	10.875
363.32	12.197
363.53	12.089
363.74	12.137
363.94	10.297
364.15	13.141
364.36	12.090
364.56	11.132
364.77	10.548
364.98	14.058
365.18	11.553
365.39	12.315
365.59	10.515
365.80	10.959
366.01	12.718
366.21	9.639
366.42	10.083
366.63	12.803
366.83	9.901
367.04	8.937
367.24	12.116
367.45	9.825
367.66	8.906
367.86	10.438
368.07	10.457
368.28	10.104
368.48	11.557
368.69	9.898
368.89	10.605
369.10	10.290
369.31	10.758
369.51	11.142
369.72	11.056
369.92	13.110
370.13	8.827
370.34	11.245
370.54	6.909
370.75	12.005
370.95	9.343
371.16	10.119
371.37	9.141
371.57	8.994
371.78	9.560
371.98	11.235
372.19	10.911
372.40	11.331
372.60	11.342
372.81	11.280
373.01	8.854
373.22	10.410
373.43	11.006
373.63	11.537
373.84	9.660
374.04	10.772
374.25	9.610
374.46	11.403
374.66	9.639
374.87	11.024
375.07	8.607
375.28	8.687
375.48	10.550
375.69	11.093
375.90	7.050
376.10	8.605
376.31	8.767
376.51	8.599
376.72	8.569
376.92	9.881
377.13	10.022
377.34	10.580
377.54	8.972
377.75	11.592
377.95	9.462
378.16	11.573
378.36	9.571
378.57	11.224
378.77	10.356
378.98	10.820
379.19	9.319
379.39	9.520
379.60	10.001
379.80	10.794
380.01	10.752
380.21	8.849
380.42	10.091
380.62	10.389
380.83	10.572
381.04	8.606
381.24	10.022
381.45	10.299
381.65	8.000
381.86	10.204
382.06	10.764
382.27	8.435
382.47	8.648
382.68	9.725
382.88	8.433
383.09	7.816
383.29	8.980
383.50	10.687
383.71	7.484
383.91	10.220
384.12	8.944
384.32	10.731
384.53	9.155
384.73	7.644
384.94	8.178
385.14	8.414
385.35	8.815
385.55	9.035
385.76	8.057
385.96	8.935
386.17	9.209
386.37	10.008
386.58	9.625
386.78	10.832
386.99	7.719
387.19	10.135
387.40	8.107
387.60	10.299
387.81	8.778
388.01	8.983
388.22	9.166
388.42	10.916
388.63	10.200
388.83	11.407
389.04	7.923
389.24	9.581
389.45	8.176
389.65	8.511
389.86	7.880
390.06	8.618
390.27	8.733
390.47	8.514
390.68	8.468
390.88	10.138
391.09	9.891
391.29	10.153
391.50	8.690
391.70	9.852
391.91	9.419
392.11	9.786
392.32	9.210
392.52	10.210
392.73	9.424
392.93	9.989
393.14	8.607
393.34	10.114
393.55	9.366
393.75	9.395
393.95	8.596
394.16	10.223
394.36	10.056
394.57	10.626
394.77	9.825
394.98	9.614
395.18	10.252
395.39	9.871
395.59	9.406
395.80	9.192
396.00	8.705
396.21	9.791
396.41	9.267
396.61	10.243
396.82	8.977
397.02	10.314
397.23	9.160
397.43	8.667
397.64	7.216
397.84	10.256
398.05	7.020
398.25	9.873
398.45	8.263
398.66	10.352
398.86	8.970
399.07	10.032
399.27	8.307
399.48	9.603
399.68	8.658
399.89	9.120
400.09	9.706
400.29	8.576
400.50	8.733
400.70	9.094
400.91	8.496
401.11	9.028
401.32	8.138
401.52	8.403
401.72	8.378
401.93	10.442
402.13	8.435
402.34	8.740
402.54	7.670
402.75	10.369
402.95	7.038
403.15	9.364
403.36	7.723
403.56	9.650
403.77	7.483
403.97	8.363
404.17	7.514
404.38	9.499
404.58	8.089
404.79	9.362
404.99	9.076
405.19	7.983
405.40	8.374
405.60	9.385
405.81	8.129
406.01	8.649
406.21	8.401
406.42	8.992
406.62	8.507
406.83	9.080
407.03	9.125
407.23	8.642
407.44	8.388
407.64	8.958
407.85	7.976
408.05	8.466
408.25	7.558
408.46	8.792
408.66	8.585
408.87	8.204
409.07	7.820
409.27	7.481
409.48	7.530
409.68	8.657
409.88	7.459
410.09	8.852
410.29	8.133
410.50	9.599
410.70	7.222
410.90	7.952
411.11	6.949
411.31	8.179
411.51	7.615
411.72	9.061
411.92	7.610
412.12	8.118
412.33	7.744
412.53	8.083
412.74	6.872
412.94	7.964
413.14	7.731
413.35	7.658
413.55	7.695
413.75	8.712
413.96	6.788
414.16	8.009
414.36	7.352
414.57	7.313
414.77	6.450
414.97	8.529
415.18	7.511
415.38	7.898
415.58	8.023
415.79	7.395
415.99	8.148
416.19	8.888
416.40	7.413
416.60	8.248
416.80	7.536
417.01	8.799
417.21	6.595
417.41	8.851
417.62	7.468
417.82	8.421
418.02	7.815
418.23	8.840
418.43	8.290
418.63	8.895
418.84	8.444
419.04	8.394
419.24	8.491
419.45	9.216
419.65	9.271
419.85	9.307
420.06	9.140
420.26	9.399
420.46	9.036
420.67	9.890
420.87	9.122
421.07	9.521
421.28	8.879
421.48	9.654
421.68	9.353
421.88	9.769
422.09	9.235
422.29	9.543
422.49	8.871
422.70	9.743
422.90	9.039
423.10	9.275
423.31	9.333
423.51	9.573
423.71	8.946
423.91	9.323
424.12	9.485
424.32	9.786
424.52	9.504
424.73	9.494
424.93	9.019
425.13	9.222
425.33	8.879
425.54	9.408
425.74	9.353
425.94	9.647
426.15	9.275
426.35	9.326
426.55	9.279
426.75	9.668
426.96	9.074
427.16	9.041
427.36	9.261
427.57	9.388
427.77	8.431
427.97	9.065
428.17	8.566
428.38	8.743
428.58	7.517
428.78	8.818
428.98	7.869
429.19	8.052
429.39	7.308
429.59	8.534
429.79	7.573
430.00	7.378
430.20	6.965
430.40	7.909
430.60	7.466
430.81	8.047
431.01	8.126
431.21	8.476
431.41	7.455
431.62	8.341
431.82	7.342
432.02	8.481
432.22	6.935
432.43	7.488
432.63	7.102
432.83	8.417
433.03	7.898
433.24	7.762
433.44	7.470
433.64	8.685
433.84	8.052
434.05	8.536
434.25	7.917
434.45	8.781
434.65	8.590
434.85	8.834
435.06	8.515
435.26	8.433
435.46	8.686
435.66	8.310
435.87	7.672
436.07	8.543
436.27	7.802
436.47	8.362
436.67	7.553
436.88	8.650
437.08	8.091
437.28	8.218
437.48	7.711
437.69	8.659
437.89	7.422
438.09	8.656
438.29	7.688
438.49	8.697
438.70	8.063
438.90	7.922
439.10	7.748
439.30	8.483
439.50	7.661
439.71	8.704
439.91	7.766
440.11	8.732
440.31	8.663
440.51	8.626
440.72	8.097
440.92	8.724
441.12	8.690
441.32	9.090
441.52	8.727
441.72	8.714
441.93	8.396
442.13	9.470
442.33	8.803
442.53	9.297
442.73	8.242
442.94	8.846
443.14	8.354
443.34	9.274
443.54	8.485
443.74	8.854
443.94	7.966
444.15	8.291
444.35	7.714
444.55	8.598
444.75	8.205
444.95	8.351
445.15	7.974
445.36	8.599
445.56	7.887
445.76	8.625
445.96	7.917
446.16	8.813
446.36	8.299
446.57	9.119
446.77	8.342
446.97	8.726
447.17	8.966
447.37	8.951
447.57	9.045
447.77	8.872
447.98	8.736
448.18	9.138
448.38	8.547
448.58	9.149
448.78	8.941
448.98	8.892
449.18	8.140
449.39	8.772
449.59	8.013
449.79	8.413
449.99	8.656
450.19	8.244
450.39	8.247
450.59	7.953
450.79	7.753
451.00	8.668
451.20	8.222
451.40	8.264
451.60	7.305
451.80	8.277
452.00	7.507
452.20	7.695
452.40	8.212
452.61	7.984
452.81	7.726
453.01	7.795
453.21	7.979
453.41	8.334
453.61	7.721
453.81	8.179
454.01	8.138
454.21	8.389
454.42	8.271
454.62	8.128
454.82	7.483
455.02	8.157
455.22	7.754
455.42	7.795
455.62	7.378
455.82	7.863
456.02	6.676
456.23	8.224
456.43	7.450
456.63	8.022
456.83	6.929
457.03	8.542
457.23	7.052
457.43	7.841
457.63	7.044
457.83	7.857
458.03	6.836
458.23	7.952
458.43	6.775
458.64	7.911
458.84	7.121
459.04	8.273
459.24	7.551
459.44	8.069
459.64	8.165
459.84	8.382
460.04	7.976
460.24	8.572
460.44	8.241
460.64	8.414
460.84	8.081
461.04	8.759
461.24	8.463
461.45	9.033
461.65	8.933
461.85	8.758
462.05	7.992
462.25	8.778
462.45	8.355
462.65	8.328
462.85	7.839
463.05	8.152
463.25	7.252
463.45	8.481
463.65	7.627
463.85	8.106
464.05	7.620
464.25	7.649
464.45	7.586
464.65	7.953
464.85	6.982
465.05	7.921
465.26	7.147
465.46	7.869
465.66	7.500
465.86	7.865
466.06	7.424
466.26	8.115
466.46	7.179
466.66	7.554
466.86	7.361
467.06	7.954
467.26	7.293
467.46	8.175
467.66	7.325
467.86	7.567
468.06	7.407
468.26	7.638
468.46	7.921
468.66	7.701
468.86	7.231
469.06	7.747
469.26	6.651
469.46	7.565
469.66	7.239
469.86	7.828
470.06	7.301
470.26	8.186
470.46	6.897
470.66	8.609
470.86	7.097
471.06	7.316
471.26	6.532
471.46	7.522
471.66	7.331
471.86	7.705
472.06	7.506
472.26	8.161
472.46	8.013
472.66	7.525
472.86	7.017
473.06	7.786
473.26	7.588
473.46	7.910
473.66	7.030
473.86	7.696
474.06	7.017
474.26	7.998
474.46	6.637
474.66	7.894
474.86	7.392
475.06	7.686
475.26	6.974
475.46	7.536
475.66	6.939
475.86	7.710
476.06	7.754
476.26	8.050
476.46	6.890
476.66	7.634
476.86	6.792
477.06	7.750
477.26	7.043
477.46	8.001
477.65	7.235
477.85	8.065
478.05	7.173
478.25	8.281
478.45	7.245
478.65	8.084
478.85	7.769
479.05	7.957
479.25	7.617
479.45	8.489
479.65	7.433
479.85	7.905
480.05	7.379
480.25	7.954
480.45	7.409
480.65	8.573
480.85	7.913
481.05	8.323
481.25	8.118
481.44	8.088
481.64	7.699
481.84	8.495
482.04	8.286
482.24	8.304
482.44	7.755
482.64	8.046
482.84	8.234
483.04	8.588
483.24	8.294
483.44	8.228
483.64	8.389
483.84	8.527
484.04	8.677
484.23	8.643
484.43	8.932
484.63	9.002
484.83	9.219
485.03	9.609
485.23	9.378
485.43	9.373
485.63	9.184
485.83	9.059
486.03	9.087
486.23	9.315
486.42	8.866
486.62	8.949
486.82	8.953
487.02	8.838
487.22	8.571
487.42	8.923
487.62	8.825
487.82	8.614
488.02	8.582
488.22	8.873
488.41	8.864
488.61	8.902
488.81	8.895
489.01	8.953
489.21	9.010
489.41	8.953
489.61	8.877
489.81	9.212
490.01	8.881
490.20	9.119
490.40	8.900
490.60	8.856
490.80	8.822
491.00	8.689
491.20	8.329
491.40	8.811
491.60	8.589
491.79	8.773
491.99	8.610
492.19	8.723
492.39	8.770
492.59	8.845
492.79	8.475
492.99	8.853
493.19	8.750
493.38	8.956
493.58	9.091
493.78	9.152
493.98	8.899
494.18	8.830
494.38	8.795
494.58	8.934
494.77	8.144
494.97	8.450
495.17	8.011
495.37	8.401
495.57	7.985
495.77	8.035
495.96	7.926
496.16	8.109
496.36	7.859
496.56	8.347
496.76	7.989
496.96	8.259
497.15	8.225
497.35	8.597
497.55	7.974
497.75	8.763
497.95	7.931
498.15	8.707
498.34	8.192
498.54	8.345
498.74	8.695
498.94	8.642
499.14	8.095
499.34	8.674
499.53	8.195
499.73	8.636
499.93	8.167
500.13	8.471
500.33	7.712
500.52	8.480
500.72	7.982
500.92	8.144
501.12	7.931
501.32	8.385
501.52	8.157
501.71	8.316
501.91	7.641
502.11	8.204
502.31	8.246
502.51	8.456
502.70	7.625
502.90	8.378
503.10	8.109
503.30	8.173
503.50	7.984
503.69	8.384
503.89	8.433
504.09	8.679
504.29	8.139
504.48	8.576
504.68	8.266
504.88	8.631
505.08	7.871
505.28	8.430
505.47	8.314
505.67	8.764
505.87	8.312
506.07	8.731
506.27	8.440
506.46	8.691
506.66	7.885
506.86	8.795
507.06	8.773
507.25	8.430
507.45	8.134
507.65	8.866
507.85	8.421
508.04	8.900
508.24	8.697
508.44	8.788
508.64	8.523
508.83	8.906
509.03	8.543
509.23	9.071
509.43	8.436
509.63	8.928
509.82	9.103
510.02	8.929
510.22	8.830
510.42	9.258
510.61	8.743
510.81	9.093
511.01	8.802
511.21	9.425
511.40	8.573
511.60	8.954
511.80	8.964
511.99	8.869
512.19	8.705
512.39	9.244
512.59	8.913
512.78	9.579
512.98	8.987
513.18	9.648
513.38	8.905
513.57	9.799
513.77	9.122
513.97	9.016
514.17	9.204
514.36	9.201
514.56	8.776
514.76	9.352
514.95	8.687
515.15	9.201
515.35	8.751
515.55	9.302
515.74	8.766
515.94	9.581
516.14	8.999
516.33	9.151
516.53	8.953
516.73	8.974
516.93	8.957
517.12	9.665
517.32	8.673
517.52	9.114
517.71	9.018
517.91	9.062
518.11	8.939
518.30	9.265
518.50	9.161
518.70	8.976
518.90	9.191
519.09	9.464
519.29	9.530
519.49	9.600
519.68	9.214
519.88	9.740
520.08	9.297
520.27	9.504
520.47	9.377
520.67	9.363
520.86	9.541
521.06	9.502
521.26	9.442
521.45	9.612
521.65	9.246
521.85	9.404
522.04	8.890
522.24	9.162
522.44	8.886
522.63	9.451
522.83	9.064
523.03	9.629
523.22	8.860
523.42	9.514
523.62	9.116
523.81	9.517
524.01	9.115
524.21	9.403
524.40	8.831
524.60	9.566
524.80	8.936
524.99	9.188
525.19	9.013
525.39	9.242
525.58	9.125
525.78	9.501
525.98	9.460
526.17	9.459
526.37	9.362
526.57	9.389
526.76	9.500
526.96	9.812
527.15	9.456
527.35	9.454
527.55	9.503
527.74	9.675
527.94	9.523
528.14	9.468
528.33	9.505
528.53	9.582
528.72	9.571
528.92	9.655
529.12	9.646
529.31	9.816
529.51	9.984
529.71	9.992
529.90	9.905
530.10	10.116
530.29	10.144
530.49	10.047
530.69	9.992
530.88	10.046
531.08	9.880
531.28	10.081
531.47	9.757
531.67	9.867
531.86	9.567
532.06	9.954
532.26	9.724
532.45	9.751
532.65	9.656
532.84	9.676
533.04	9.476
533.24	9.555
533.43	9.765
533.63	10.136
533.82	9.889
534.02	9.997
534.22	9.984
534.41	9.905
534.61	10.153
534.80	10.012
535.00	10.149
535.19	10.016
535.39	9.915
535.59	10.129
535.78	9.956
535.98	10.092
536.17	9.583
536.37	10.026
536.57	9.742
536.76	9.981
536.96	9.558
537.15	10.351
537.35	9.574
537.54	10.282
537.74	9.890
537.93	10.013
538.13	10.007
538.33	10.010
538.52	9.997
538.72	10.189
538.91	10.013
539.11	10.128
539.30	10.112
539.50	10.003
539.70	10.111
539.89	10.126
540.09	9.848
540.28	10.147
540.48	9.716
540.67	10.107
540.87	10.200
541.06	9.889
541.26	10.176
541.45	10.087
541.65	10.340
541.85	10.354
542.04	10.236
542.24	10.399
542.43	10.442
542.63	10.545
542.82	10.547
543.02	10.460
543.21	10.758
543.41	10.522
543.60	10.663
543.80	10.864
543.99	10.775
544.19	10.594
544.38	10.797
544.58	10.916
544.77	10.644
544.97	10.648
545.16	10.717
545.36	10.551
545.56	10.706
545.75	10.882
545.95	10.591
546.14	10.910
546.34	10.438
546.53	10.755
546.73	10.744
546.92	11.215
547.12	10.214
547.31	10.882
547.51	10.530
547.70	10.946
547.90	10.828
548.09	10.786
548.29	10.745
548.48	10.954
548.68	10.711
548.87	11.051
549.07	10.684
549.26	10.998
549.46	10.692
549.65	11.351
549.84	10.800
550.04	10.888
550.23	10.454
550.43	10.973
550.62	10.633
550.82	10.885
551.01	10.627
551.21	11.162
551.40	10.564
551.60	10.859
551.79	10.570
551.99	11.388
552.18	10.367
552.38	11.038
552.57	11.280
552.77	11.344
552.96	11.689
553.16	11.747
553.35	10.948
553.54	11.875
553.74	11.469
553.93	11.754
554.13	11.829
554.32	11.806
554.52	11.244
554.71	12.260
554.91	11.687
555.10	11.935
555.29	11.585
555.49	12.072
555.68	11.619
555.88	12.237
556.07	11.390
556.27	12.227
556.46	11.975
556.66	11.597
556.85	11.694
557.04	11.951
557.24	11.886
557.43	12.933
557.63	11.606
557.82	12.586
558.02	11.678
558.21	12.211
558.40	11.631
558.60	12.918
558.79	12.228
558.99	12.492
559.18	11.893
559.38	12.662
559.57	12.797
559.76	12.576
559.96	12.856
560.15	12.970
560.35	12.506
560.54	12.886
560.73	12.423
560.93	13.212
561.12	12.887
561.32	13.437
561.51	12.957
561.70	13.227
561.90	13.501
562.09	13.551
562.29	13.083
562.48	13.840
562.67	13.495
562.87	13.603
563.06	13.405
563.26	13.586
563.45	13.325
563.64	14.182
563.84	13.841
564.03	14.607
564.23	13.593
564.42	14.382
564.61	14.173
564.81	14.196
565.00	14.610
565.20	14.269
565.39	14.435
565.58	14.620
565.78	14.149
565.97	14.518
566.16	14.727
566.36	15.328
566.55	15.248
566.74	15.106
566.94	15.163
567.13	14.956
567.33	15.090
567.52	15.687
567.71	15.596
567.91	15.595
568.10	15.604
568.29	15.477
568.49	15.330
568.68	15.856
568.87	15.692
569.07	15.674
569.26	15.446
569.45	16.077
569.65	15.548
569.84	15.663
570.04	15.596
570.23	16.193
570.42	15.491
570.62	15.911
570.81	16.216
571.00	15.802
571.20	15.855
571.39	16.022
571.58	16.024
571.78	16.602
571.97	16.385
572.16	16.460
572.36	15.984
572.55	16.243
572.74	16.057
572.94	16.132
573.13	16.264
573.32	16.499
573.51	16.078
573.71	16.846
573.90	16.415
574.09	16.413
574.29	16.850
574.48	16.250
574.67	16.341
574.87	16.412
575.06	16.201
575.25	17.201
575.45	16.415
575.64	16.501
575.83	16.457
576.03	17.223
576.22	16.567
576.41	16.707
576.60	16.515
576.80	16.750
576.99	16.822
577.18	17.059
577.38	16.654
577.57	16.737
577.76	17.018
577.95	17.379
578.15	16.249
578.34	17.401
578.53	16.599
578.73	17.192
578.92	16.406
579.11	17.183
579.30	16.684
579.50	16.698
579.69	16.255
579.88	17.358
580.08	16.274
580.27	16.842
580.46	16.408
580.65	17.336
580.85	15.924
581.04	16.956
581.23	16.729
581.42	16.379
581.62	15.882
581.81	16.648
582.00	16.895
582.19	16.914
582.39	16.637
582.58	16.188
582.77	16.126
582.96	16.834
583.16	16.657
583.35	16.787
583.54	16.597
583.73	16.798
583.93	15.604
584.12	16.894
584.31	15.787
584.50	16.317
584.70	16.485
584.89	16.260
585.08	16.252
585.27	16.450
585.47	15.736
585.66	16.611
585.85	16.408
586.04	16.229
586.24	16.047
586.43	16.241
586.62	15.554
586.81	16.835
587.00	15.907
587.20	16.715
587.39	15.418
587.58	16.230
587.77	16.115
587.97	15.776
588.16	15.611
588.35	16.396
588.54	16.004
588.73	16.549
588.93	15.948
589.12	16.575
589.31	16.051
589.50	16.180
589.69	15.814
589.89	16.104
590.08	15.850
590.27	16.539
590.46	16.011
590.65	16.460
590.85	15.946
591.04	15.900
591.23	16.343
591.42	16.657
591.61	16.017
591.81	16.606
592.00	16.183
592.19	16.510
592.38	15.644
592.57	16.491
592.77	15.715
592.96	16.200
593.15	16.270
593.34	16.352
593.53	16.097
593.72	16.313
593.92	16.104
594.11	16.709
594.30	15.700
594.49	16.425
594.68	16.633
594.87	16.454
595.07	15.015
595.26	16.957
595.45	16.497
595.64	16.394
595.83	15.901
596.02	16.468
596.22	16.329
596.41	16.659
596.60	16.653
596.79	16.763
596.98	16.456
597.17	17.060
597.37	16.762
597.56	17.147
597.75	16.873
597.94	17.565
598.13	17.067
598.32	17.522
598.51	17.335
598.71	17.603
598.90	16.686
599.09	17.166
599.28	17.259
599.47	17.419
599.66	17.436
599.85	17.394
600.05	16.821
600.24	17.215
600.43	16.855
600.62	16.813
600.81	16.978
601.00	17.211
601.19	16.555
601.38	17.145
601.58	16.587
601.77	17.293
601.96	16.523
602.15	17.314
602.34	16.575
602.53	17.739
602.72	16.602
602.91	17.477
603.10	16.826
603.30	17.919
603.49	17.811
603.68	17.697
603.87	17.370
604.06	17.397
604.25	18.225
604.44	17.738
604.63	17.703
604.82	17.730
605.01	17.567
605.21	18.120
605.40	17.708
605.59	17.912
605.78	18.229
605.97	17.705
606.16	18.032
606.35	18.348
606.54	18.129
606.73	18.208
606.92	17.607
607.11	17.912
607.30	17.735
607.50	17.778
607.69	17.301
607.88	18.101
608.07	16.810
608.26	17.793
608.45	17.407
608.64	17.294
608.83	16.299
609.02	17.759
609.21	17.061
609.40	17.744
609.59	17.047
609.78	17.547
609.97	17.174
610.16	17.538
610.35	16.951
610.55	17.207
610.74	17.375
610.93	17.886
611.12	17.366
611.31	17.648
611.50	16.583
611.69	17.108
611.88	16.743
612.07	17.853
612.26	16.792
612.45	16.204
612.64	16.058
612.83	16.279
613.02	15.682
613.21	16.480
613.40	15.976
613.59	16.554
613.78	15.162
613.97	16.517
614.16	15.247
614.35	16.087
614.54	14.085
614.73	15.825
614.92	15.216
615.11	16.042
615.30	15.359
615.49	15.912
615.68	14.568
615.87	15.208
616.07	14.094
616.26	15.390
616.45	15.405
616.64	14.685
616.83	15.804
617.02	15.319
617.21	13.249
617.40	15.428
617.59	15.489
617.78	15.886
617.97	13.782
618.16	13.936
618.35	13.181
618.54	14.421
618.73	14.632
618.92	14.828
619.11	14.435
619.30	15.177
619.49	13.350
619.68	15.087
619.86	14.043
620.05	15.057
620.24	13.670
620.43	14.460
620.62	12.592
620.81	14.039
621.00	14.536
621.19	14.522
621.38	13.859
621.57	14.905
621.76	13.864
621.95	13.998
622.14	14.275
622.33	14.996
622.52	13.273
622.71	13.863
622.90	13.561
623.09	13.804
623.28	13.379
623.47	14.618
623.66	13.456
623.85	13.320
624.04	13.769
624.23	14.078
624.42	13.496
624.61	13.395
624.80	12.818
624.99	13.399
625.18	12.204
625.36	13.998
625.55	14.051
625.74	14.085
625.93	12.978
626.12	14.099
626.31	14.081
626.50	15.049
626.69	13.622
626.88	14.192
627.07	14.710
627.26	13.973
627.45	13.989
627.64	14.494
627.83	14.220
628.02	14.835
628.20	13.574
628.39	14.175
628.58	14.926
628.77	14.976
628.96	13.762
629.15	14.141
629.34	14.013
629.53	13.766
629.72	12.865
629.91	14.684
630.10	13.320
630.29	13.533
630.47	11.928
630.66	13.832
630.85	12.910
631.04	13.548
631.23	13.010
631.42	14.129
631.61	12.271
631.80	14.170
631.99	13.146
632.18	12.651
632.36	12.755
632.55	13.409
632.74	12.353
632.93	11.738
633.12	12.402
633.31	13.020
633.50	12.145
633.69	13.331
633.88	12.829
634.06	14.027
634.25	12.575
634.44	13.566
634.63	12.625
634.82	13.407
635.01	12.085
635.20	13.338
635.39	12.155
635.57	13.099
635.76	12.178
635.95	13.052
636.14	11.959
636.33	12.924
636.52	12.153
636.71	13.166
636.89	12.672
637.08	12.567
637.27	11.922
637.46	12.645
637.65	12.292
637.84	12.407
638.03	11.761
638.21	12.747
638.40	12.366
638.59	12.590
638.78	12.327
638.97	12.940
639.16	12.061
639.34	11.760
639.53	11.050
639.72	13.072
639.91	11.131
640.10	12.119
640.29	11.820
640.47	12.982
640.66	11.172
640.85	13.708
641.04	10.785
641.23	12.491
641.42	11.488
641.60	11.740
641.79	12.411
641.98	12.726
642.17	11.333
642.36	12.338
642.54	10.690
642.73	11.869
642.92	10.484
643.11	12.091
643.30	10.927
643.49	12.387
643.67	10.082
643.86	11.698
644.05	10.875
644.24	12.452
644.43	11.414
644.61	11.847
644.80	10.929
644.99	11.783
645.18	12.487
645.37	11.727
645.55	10.012
645.74	12.912
645.93	11.353
646.12	12.344
646.31	11.450
646.49	11.431
646.68	12.141
646.87	11.232
647.06	10.275
647.24	11.892
647.43	11.160
647.62	12.466
647.81	10.588
648.00	12.761
648.18	9.495
648.37	11.707
648.56	10.841
648.75	12.069
648.93	10.499
649.12	10.585
649.31	10.535
649.50	12.249
649.68	11.579
649.87	11.991
650.06	10.126
650.25	11.552
650.43	9.958
650.62	12.039
650.81	10.184
651.00	11.583
651.18	10.529
651.37	12.911
651.56	11.030
651.75	12.055
651.93	10.536
652.12	12.356
652.31	10.524
652.50	11.032
652.68	11.397
652.87	12.038
653.06	10.113
653.25	11.880
653.43	11.250
653.62	11.261
653.81	9.933
654.00	12.462
654.18	11.147
654.37	11.990
654.56	9.310
654.74	10.295
654.93	10.242
655.12	10.123
655.31	10.144
655.49	10.900
655.68	8.423
655.87	9.140
656.05	8.211
656.24	9.829
656.43	7.455
656.62	9.275
656.80	9.005
656.99	9.325
657.18	7.678
657.36	8.982
657.55	9.404
657.74	8.637
657.93	9.096
658.11	10.372
658.30	9.427
658.49	9.313
658.67	8.555
658.86	8.779
659.05	7.764
659.23	10.388
659.42	8.581
659.61	9.815
659.79	8.796
659.98	9.159
660.17	9.033
660.35	10.050
660.54	9.739
660.73	10.547
660.91	10.060
661.10	9.063
661.29	7.109
661.47	8.559
661.66	8.545
661.85	8.874
662.03	7.898
662.22	7.857
662.41	6.060
662.59	7.763
662.78	7.570
662.97	7.273
663.15	5.609
663.34	7.492
663.53	5.551
663.71	7.394
663.90	5.793
664.09	8.354
664.27	6.884
664.46	6.692
664.65	6.528
664.83	6.617
665.02	6.919
665.21	5.808
665.39	4.408
665.58	6.110
665.77	6.413
665.95	6.466
666.14	5.614
666.32	6.029
666.51	5.904
666.70	4.922
666.88	4.591
667.07	5.644
667.26	4.991
667.44	5.500
667.63	5.376
667.81	5.017
668.00	6.274
668.19	6.590
668.37	4.839
668.56	5.432
668.75	4.633
668.93	6.078
669.12	5.486
669.30	5.711
669.49	5.198
669.68	6.389
669.86	5.481
670.05	5.153
670.23	4.499
670.42	5.058
670.61	5.841
670.79	6.511
670.98	4.803
671.16	7.333
671.35	4.672
671.54	6.578
671.72	4.740
671.91	6.599
672.09	3.289
672.28	6.686
672.46	6.913
672.65	6.344
672.84	6.443
673.02	6.063
673.21	3.588
673.39	4.693
673.58	5.553
673.77	5.749
673.95	4.896
674.14	6.901
674.32	4.625
674.51	6.541
674.69	4.782
674.88	5.853
675.07	6.475
675.25	7.151
675.44	5.762
675.62	5.392
675.81	4.160
675.99	9.632
676.18	7.543
676.36	6.148
676.55	3.592
676.74	6.121
676.92	6.631
677.11	6.606
677.29	5.309
677.48	7.605
677.66	6.419
677.85	5.422
678.03	6.690
678.22	7.042
678.40	6.209
678.59	6.240
678.78	5.613
678.96	5.603
679.15	5.010
679.33	7.721
679.52	7.823
679.70	7.216
679.89	5.998
680.07	7.203
680.26	5.566
680.44	6.761
680.63	7.242
680.81	7.302
681.00	5.675
681.18	6.982
681.37	7.217
681.55	7.737
681.74	8.505
681.92	8.641
682.11	8.019
682.29	6.984
682.48	7.307
682.66	7.405
682.85	6.872
683.03	7.825
683.22	7.772
683.40	9.632
683.59	7.824
683.77	8.005
683.96	6.828
684.14	8.857
684.33	6.605
684.51	10.938
684.70	7.687
684.88	10.955
685.07	8.129
685.25	10.176
685.44	7.217
685.62	9.918
685.81	7.841
685.99	10.496
686.18	8.429
686.36	9.306
686.55	6.957
686.73	9.743
686.92	10.251
687.10	10.340
687.29	11.221
687.47	9.930
687.65	10.605
687.84	10.543
688.02	12.139
688.21	12.749
688.39	9.509
688.58	11.645
688.76	10.741
688.95	10.956
689.13	10.091
689.32	12.738
689.50	12.391
689.68	13.045
689.87	11.255
690.05	13.136
690.24	12.164
690.42	14.056
690.61	13.045
690.79	14.057
690.98	12.280
691.16	13.312
691.34	11.679
691.53	13.940
691.71	12.766
691.90	15.041
692.08	11.806
692.27	17.363
692.45	15.584
692.63	15.176
692.82	16.227
693.00	15.873
693.19	12.795
693.37	17.970
693.56	15.981
693.74	17.767
693.92	15.162
694.11	18.215
694.29	17.140
694.48	19.651
694.66	17.544
694.84	18.113
695.03	17.837
695.21	20.847
695.40	18.020
695.58	22.149
695.76	19.112
695.95	22.057
696.13	20.818
696.32	21.910
696.50	24.439
696.68	23.135
696.87	20.392
697.05	23.885
697.24	22.578
697.42	24.891
697.60	21.541
697.79	24.374
697.97	23.066
698.16	25.230
698.34	24.044
698.52	26.467
698.71	24.870
698.89	27.019
699.07	25.626
699.26	27.603
699.44	25.914
699.63	28.002
699.81	26.782
699.99	27.916
700.18	26.546
700.36	28.399
700.54	28.196
700.73	27.956
700.91	27.941
701.09	29.468
701.28	28.728
701.46	29.903
701.64	27.571
701.83	29.614
702.01	28.389
702.20	29.706
702.38	29.624
702.56	29.975
702.75	27.409
702.93	29.520
703.11	28.176
703.30	30.528
703.48	29.353
703.66	29.922
703.85	28.368
704.03	32.550
704.21	29.827
704.40	32.185
704.58	29.472
704.76	31.733
704.95	30.098
705.13	34.311
705.31	31.019
705.50	32.942
705.68	29.164
705.86	32.156
706.04	31.477
706.23	30.962
706.41	32.671
706.59	32.188
706.78	29.449
706.96	32.727
707.14	33.333
707.33	33.918
707.51	31.982
707.69	32.505
707.88	30.797
708.06	33.852
708.24	31.680
708.42	33.767
708.61	33.235
708.79	35.884
708.97	33.637
709.16	34.725
709.34	33.238
709.52	34.377
709.71	32.312
709.89	35.251
710.07	32.157
710.25	36.463
710.44	35.371
710.62	36.117
710.80	33.856
710.98	36.531
711.17	32.981
711.35	35.286
711.53	32.578
711.72	35.460
711.90	35.643
712.08	36.394
712.26	32.096
712.45	34.702
712.63	35.860
712.81	35.028
712.99	36.475
713.18	34.748
713.36	34.189
713.54	36.411
713.72	34.726
713.91	35.293
714.09	33.446
714.27	35.227
714.45	33.593
714.64	38.463
714.82	34.188
715.00	34.944
715.18	35.925
715.37	36.281
715.55	34.324
715.73	36.033
715.91	35.307
716.10	35.299
716.28	33.917
716.46	37.039
716.64	34.626
716.83	36.503
717.01	34.059
717.19	37.118
717.37	33.289
717.55	36.962
717.74	33.531
717.92	36.612
718.10	34.885
718.28	38.148
718.47	32.507
718.65	35.740
718.83	35.439
719.01	36.592
719.19	32.611
719.38	36.086
719.56	34.548
719.74	34.873
719.92	32.031
720.10	36.070
720.29	33.223
720.47	36.007
720.65	34.510
720.83	35.270
721.01	33.111
721.20	35.255
721.38	35.164
721.56	36.645
721.74	33.956
721.92	35.120
722.11	34.872
722.29	36.372
722.47	34.795
722.65	37.440
722.83	36.801
723.01	38.013
723.20	34.535
723.38	35.942
723.56	32.270
723.74	37.206
723.92	35.485
724.10	36.205
724.29	33.804
724.47	36.599
724.65	33.429
724.83	38.606
725.01	36.934
725.19	36.376
725.38	34.475
725.56	37.356
725.74	33.913
725.92	37.683
726.10	32.440
726.28	36.343
726.46	36.264
726.65	37.912
726.83	35.074
727.01	35.064
727.19	35.802
727.37	34.805
727.55	35.993
727.73	34.364
727.92	33.681
728.10	38.079
728.28	32.061
728.46	36.099
728.64	36.970
728.82	36.699
729.00	36.733
729.19	37.015
729.37	34.390
729.55	37.686
729.73	33.965
729.91	36.919
730.09	35.559
730.27	36.673
730.45	34.086
730.63	37.445
730.82	35.342
731.00	37.765
731.18	35.424
731.36	38.380
731.54	36.390
731.72	38.159
731.90	37.806
732.08	38.067
732.26	33.630
732.45	37.861
732.63	36.438
732.81	37.199
732.99	35.102
733.17	38.315
733.35	35.402
733.53	36.973
733.71	37.866
733.89	38.999
734.07	37.217
734.25	39.939
734.44	37.256
734.62	38.025
734.80	36.057
734.98	38.455
735.16	38.675
735.34	39.349
735.52	38.183
735.70	38.241
735.88	37.044
736.06	37.104
736.24	38.594
736.42	39.361
736.60	36.711
736.78	39.950
736.97	36.739
737.15	39.284
737.33	35.415
737.51	36.120
737.69	37.108
737.87	37.491
738.05	35.053
738.23	40.151
738.41	35.337
738.59	38.215
738.77	37.141
738.95	39.690
739.13	37.350
739.31	38.944
739.49	39.453
739.67	38.789
739.85	39.240
740.03	38.991
740.21	38.637
740.39	37.861
740.57	36.787
740.75	38.413
740.93	35.606
741.11	40.076
741.30	38.034
741.48	39.340
741.66	39.056
741.84	41.368
742.02	37.077
742.20	39.162
742.38	39.713
742.56	43.646
742.74	34.395
742.92	38.539
743.10	36.846
743.28	40.403
743.46	37.227
743.64	38.594
743.82	37.261
744.00	40.248
744.18	39.130
744.36	38.278
744.54	39.701
744.72	39.732
744.90	38.471
745.08	38.480
745.26	37.648
745.44	37.052
745.62	34.334
745.80	39.534
745.98	37.134
746.16	37.994
746.34	38.355
746.52	39.298
746.70	36.308
746.87	37.961
747.05	36.101
747.23	37.837
747.41	35.047
747.59	41.584
747.77	35.564
747.95	39.115
748.13	37.185
748.31	40.317
748.49	36.250
748.67	36.837
748.85	35.303
749.03	38.324
749.21	36.678
749.39	42.522
749.57	38.005
749.75	43.022
749.93	39.480
750.11	38.051
750.29	37.216
750.47	38.454
750.65	39.341
750.83	37.807
751.01	38.299
751.18	37.815
751.36	38.046
751.54	36.211
751.72	35.595
751.90	36.899
752.08	38.038
752.26	39.556
752.44	37.189
752.62	37.122
752.80	37.733
752.98	40.627
753.16	37.227
753.34	39.955
753.52	37.197
753.69	40.749
753.87	37.360
754.05	39.168
754.23	37.898
754.41	39.122
754.59	39.869
754.77	39.469
754.95	37.735
755.13	39.469
755.31	35.427
755.49	38.345
755.66	34.711
755.84	39.651
756.02	37.730
756.20	41.866
756.38	35.157
756.56	37.374
756.74	36.894
756.92	39.196
757.10	37.316
757.28	40.785
757.45	39.591
757.63	36.991
757.81	34.447
757.99	38.160
758.17	35.917
758.35	38.824
758.53	38.541
758.71	37.154
758.88	35.857
759.06	38.643
759.24	36.150
759.42	36.076
759.60	34.595
759.78	34.690
759.96	31.921
760.13	33.405
760.31	29.614
760.49	30.800
760.67	26.192
760.85	31.451
761.03	27.700
761.21	28.893
761.38	23.905
761.56	29.645
761.74	25.393
761.92	32.046
762.10	24.480
762.28	30.029
762.46	22.969
762.63	28.778
762.81	25.392
762.99	28.889
763.17	29.497
763.35	28.829
763.53	27.862
763.70	32.109
763.88	31.160
764.06	31.202
764.24	29.453
764.42	31.556
764.60	31.368
764.77	33.897
764.95	30.045
765.13	34.591
765.31	34.851
765.49	34.668
765.66	30.117
765.84	34.154
766.02	31.892
766.20	35.263
766.38	30.610
766.56	36.323
766.73	31.330
766.91	33.642
767.09	34.295
767.27	37.755
767.45	34.876
767.62	33.802
767.80	32.231
767.98	35.969
768.16	30.890
768.33	38.059
768.51	33.670
768.69	34.549
768.87	34.497
769.05	36.781
769.22	33.390
769.40	37.092
769.58	37.021
769.76	37.792
769.94	36.266
770.11	34.568
770.29	35.078
770.47	35.287
770.65	33.117
770.82	38.149
771.00	34.913
771.18	38.599
771.36	33.803
771.53	34.712
771.71	36.160
771.89	39.608
772.07	31.555
772.25	38.531
772.42	35.105
772.60	37.254
772.78	35.405
772.96	39.612
773.13	32.960
773.31	39.523
773.49	33.467
773.67	36.204
773.84	36.069
774.02	37.558
774.20	37.912
774.37	36.279
774.55	36.553
774.73	39.875
774.91	36.038
775.08	37.329
775.26	35.082
775.44	41.753
775.62	32.048
775.79	33.031
775.97	32.395
776.15	32.573
776.32	32.731
776.50	40.605
776.68	35.657
776.86	38.145
777.03	34.045
777.21	41.060
777.39	32.681
777.56	35.786
777.74	33.645
777.92	38.358
778.10	35.026
778.27	35.701
778.45	35.859
778.63	37.287
778.80	33.979
778.98	34.630
779.16	38.696
779.34	34.177
779.51	34.699
779.69	39.019
779.87	35.897
780.04	39.447
780.22	30.612
780.40	37.016
780.57	35.515
780.75	37.686
780.93	39.711
781.10	33.572
781.28	41.267
781.46	30.413
781.63	35.177
781.81	40.750
781.99	31.179
782.16	33.671
782.34	30.240
782.52	34.610
782.69	36.324
782.87	42.238
783.05	36.395
783.22	32.772
783.40	35.459
783.58	38.873
783.75	34.029
783.93	38.883
784.11	34.215
784.28	34.475
784.46	33.572
784.64	33.708
784.81	33.982
784.99	41.237
785.17	33.352
785.34	33.431
785.52	30.218
785.69	33.913
785.87	31.004
786.05	38.316
786.22	34.751
786.40	38.355
786.58	31.788
786.75	35.887
786.93	30.939
787.11	33.107
787.28	29.898
787.46	39.097
787.63	30.148
787.81	32.246
787.99	34.501
788.16	35.476
788.34	29.954
788.51	34.810
788.69	33.144
788.87	33.384
789.04	31.730
789.22	35.311
789.39	34.342
789.57	32.220
789.75	25.023
789.92	36.355
790.10	31.998
790.27	35.968
790.45	31.584
790.63	36.359
790.80	29.639
790.98	33.247
791.15	35.015
791.33	30.027
791.51	29.086
791.68	32.878
791.86	33.746
792.03	32.139
792.21	31.033
792.39	33.056
792.56	31.432
792.74	33.509
792.91	33.221
793.09	32.406
793.26	31.557
793.44	37.046
793.62	23.515
793.79	36.095
793.97	30.692
794.14	33.628
794.32	32.282
794.49	34.875
794.67	28.187
794.84	33.861
795.02	32.065
795.20	32.451
795.37	28.563
795.55	34.926
795.72	34.543
795.90	31.080
796.07	32.993
796.25	32.704
796.42	30.859
796.60	32.499
796.77	31.546
796.95	33.535
797.13	31.300
797.30	30.050
797.48	28.449
797.65	30.526
797.83	33.389
798.00	32.020
798.18	31.000
798.35	33.005
798.53	29.405
798.70	32.175
798.88	31.418
799.05	30.707
799.23	31.427
799.40	31.558
799.58	32.499
799.75	32.258
799.93	20.992
800.10	35.566
800.28	35.836
800.45	30.533
800.63	28.805
800.80	29.799
800.98	30.055
801.15	32.785
801.33	32.258
801.50	33.003
801.68	31.308
801.85	29.760
802.03	30.707
802.20	28.473
802.38	28.680
802.55	29.119
802.73	31.812
802.90	28.402
803.08	24.582
803.25	35.253
803.43	32.381
803.60	37.742
803.78	26.394
803.95	30.443
804.13	30.764
804.30	30.993
804.48	30.020
804.65	27.393
804.83	36.040
805.00	29.196
805.17	29.746
805.35	34.691
805.52	30.891
805.70	34.322
805.87	32.216
806.05	33.943
806.22	27.455
806.40	24.950
806.57	30.769
806.75	36.060
806.92	33.115
807.09	33.402
807.27	32.288
807.44	37.385
807.62	25.790
807.79	34.608
807.97	27.636
808.14	30.657
808.31	28.121
808.49	28.103
808.66	27.814
808.84	29.855
809.01	30.645
809.19	31.061
809.36	34.163
809.53	29.204
809.71	26.469
809.88	33.136
810.06	31.102
810.23	28.623
810.41	31.370
810.58	32.111
810.75	31.102
810.93	33.333
811.10	23.751
811.28	35.947
811.45	31.178
811.62	32.811
811.80	28.768
811.97	23.860
812.15	27.748
812.32	31.115
812.49	30.030
812.67	34.477
812.84	26.958
813.02	34.689
813.19	26.243
813.36	31.045
813.54	29.481
813.71	32.502
813.89	31.489
814.06	26.360
814.23	25.878
814.41	20.403
814.58	25.019
814.75	26.473
814.93	28.228
815.10	26.130
815.28	27.502
815.45	29.741
815.62	29.218
815.80	27.104
815.97	21.996
816.14	31.873
816.32	29.362
816.49	25.883
816.66	28.449
816.84	25.386
817.01	24.461
817.18	31.976
817.36	23.605
817.53	30.595
817.71	20.903
817.88	22.296
818.05	22.121
818.23	23.435
818.40	27.301
818.57	34.981
818.75	21.555
818.92	28.142
819.09	30.258
819.27	25.505
819.44	25.501
819.61	27.713
819.79	21.482
819.96	25.360
820.13	25.000
820.31	30.951
820.48	31.707
820.65	26.844
820.82	24.438
821.00	27.223
821.17	21.583
821.34	27.209
821.52	29.190
821.69	25.614
821.86	25.316
822.04	25.208
822.21	28.226
822.38	32.513
822.56	30.018
822.73	33.516
822.90	31.518
823.07	35.157
823.25	32.077
823.42	34.173
823.59	33.052
823.77	34.216
823.94	33.099
824.11	33.923
824.29	32.383
824.46	33.671
824.63	33.587
824.80	32.744
824.98	33.040
825.15	32.510
825.32	29.530
825.49	32.860
825.67	30.952
825.84	32.916
826.01	31.159
826.19	33.947
826.36	24.810
826.53	31.383
826.70	28.509
826.88	28.254
827.05	26.167
827.22	27.574
827.39	27.658
827.57	28.869
827.74	24.053
827.91	31.856
828.08	28.831
828.26	29.113
828.43	25.141
828.60	32.243
828.77	27.920
828.95	30.461
829.12	25.794
829.29	24.951
829.46	27.669
829.64	27.390
829.81	22.254
829.98	27.732
830.15	25.655
830.32	28.643
830.50	26.510
830.67	26.547
830.84	22.362
831.01	25.459
831.19	23.448
831.36	25.489
831.53	30.600
831.70	25.819
831.87	21.576
832.05	29.525
832.22	29.698
832.39	20.488
832.56	22.893
832.74	28.049
832.91	22.928
833.08	26.642
833.25	23.028
833.42	23.578
833.60	23.254
833.77	22.588
833.94	24.004
834.11	24.630
834.28	20.208
834.45	25.197
834.63	19.865
834.80	25.538
834.97	22.243
835.14	24.946
835.31	25.991
835.49	20.687
835.66	22.933
835.83	27.432
836.00	23.619
836.17	24.916
836.34	20.688
836.52	24.303
836.69	27.319
836.86	25.596
837.03	20.374
837.20	24.366
837.37	19.487
837.55	18.849
837.72	20.365
837.89	27.872
838.06	30.339
838.23	29.092
838.40	23.617
838.58	26.867
838.75	24.246
838.92	34.766
839.09	28.671
839.26	29.074
839.43	36.959
839.60	33.660
839.78	36.903
839.95	29.194
840.12	28.751
840.29	35.038
840.46	35.421
840.63	29.213
840.80	26.719
840.98	22.199
841.15	22.367
841.32	28.940
841.49	23.796
841.66	37.656
841.83	22.309
842.00	23.913
842.17	28.179
842.34	21.968
842.52	28.059
842.69	28.258
842.86	30.835
843.03	32.009
843.20	32.488
843.37	30.500
843.54	25.030
843.71	35.135
843.88	41.854
844.06	31.171
844.23	41.667
844.40	31.761
844.57	38.737
844.74	33.590
844.91	36.393
845.08	47.077
845.25	42.929
845.42	34.538
845.59	28.678
845.76	42.882
845.94	47.002
846.11	32.428
846.28	21.581
846.45	50.307
846.62	59.280
846.79	39.015
846.96	49.709
847.13	38.669
847.30	46.042
847.47	35.714
847.64	33.951
847.81	42.500
847.98	47.246
848.15	37.450
848.32	45.471
848.50	35.281
848.67	32.567
848.84	50.939
849.01	47.843
849.18	43.632
849.35	32.026
849.52	44.898
849.69	40.725
849.86	51.404
850.03	56.250
850.20	42.667
850.37	41.522
850.54	50.108
850.71	44.856
850.88	52.308
851.05	30.684
851.22	54.176
851.39	54.791
851.56	41.626
851.73	59.624
851.90	52.812
852.07	42.316
852.24	44.639
852.41	62.077
852.58	48.035
852.75	53.226
852.92	48.297
853.09	56.703
853.26	52.505
853.43	56.051
853.60	58.065
853.77	44.093
853.94	41.935
854.11	45.195
854.28	50.794
854.45	32.401
854.62	47.072
854.79	48.864
854.96	52.137
855.13	47.727
855.30	47.390
855.47	48.794
855.64	56.713
855.81	54.637
855.98	40.566
856.15	36.443
856.32	44.805
856.49	60.798
856.66	41.259
856.83	53.877
857.00	46.857
857.17	52.289
857.34	53.766
857.51	35.756
857.68	26.947
857.85	42.094
858.02	35.267
858.19	54.964
858.36	57.238
858.53	38.587
858.70	45.657
858.87	48.451
859.04	47.521
859.21	48.768
859.38	59.670
859.55	47.546
859.72	40.783
859.89	58.250
860.05	63.023
860.22	61.644
860.39	42.893
860.56	41.935
860.73	56.745
860.90	37.690
861.07	70.483
861.24	40.173
861.41	45.610
861.58	48.744
861.75	57.368
861.92	60.000
862.09	37.688
862.26	33.083
862.43	56.047
862.59	51.163
862.76	50.139
862.93	40.000
863.10	35.215
863.27	46.040
863.44	56.736
863.61	48.770
863.78	34.076
863.95	58.430
864.12	37.619
864.29	40.835
864.45	55.858
864.62	50.735
864.79	46.911
864.96	50.483
865.13	43.489
865.30	54.008
865.47	44.630
865.64	59.666
865.81	35.185
865.97	47.552
866.14	48.413
866.31	47.041
866.48	40.741
866.65	54.571
866.82	46.711
866.99	54.190
867.16	49.573
867.33	64.411
867.49	44.009
867.66	49.822
867.83	41.399
868.00	48.166
868.17	71.472
868.34	60.383
868.51	56.582
868.67	56.164
868.84	42.368
869.01	65.642
869.18	48.108
869.35	47.971
869.52	40.998
869.69	60.494
869.85	44.844
870.02	38.129
870.19	58.575
870.36	62.269
870.53	45.952
870.70	59.009
870.86	64.439
871.03	53.548
871.20	61.319
871.37	41.935
871.54	36.609
871.71	48.333
871.87	51.656
872.04	45.255
872.21	44.311
872.38	53.361
872.55	64.198
872.72	24.642
872.88	41.566
873.05	36.493
873.22	39.378
873.39	40.000
873.56	42.273
873.72	46.528
873.89	47.917
874.06	51.587
874.23	57.290
874.40	46.053
874.56	70.662
874.73	58.649
874.90	50.000
875.07	55.043
875.24	60.050
875.40	31.169
875.57	41.147
875.74	46.712
875.91	53.412
876.08	36.018
876.24	59.958
876.41	65.868
876.58	25.527
876.75	46.133
876.92	50.000
877.08	27.676
877.25	38.904
877.42	42.222
877.59	48.086
877.75	61.818
877.92	33.182
878.09	46.332
878.26	23.944
878.42	44.472
878.59	43.632
878.76	51.627
878.93	60.286
879.09	44.939
879.26	42.278
879.43	30.769
879.60	35.323
879.76	49.890
879.93	37.276
880.10	52.190
880.27	31.827
880.43	29.859
880.60	36.765
880.77	30.922
880.94	35.964
881.10	27.309
881.27	26.316
881.44	24.442
881.61	23.436
881.77	22.119
881.94	20.013
882.11	18.279
882.28	17.559
882.44	16.618
882.61	22.398
882.78	23.008
882.94	30.873
883.11	23.227
883.28	23.000
883.45	23.525
883.61	22.698
883.78	20.728
883.95	23.380
884.11	22.179
884.28	19.952
>>>>>End Processed Spectral Data<<<<<
