SpectraSuite Data File
++++++++++++++++++++++++++++++++++++
Date: Wed Sep 25 03:06:09 EST 2019
User: sgrac
Dark Spectrum Present: Yes
Reference Spectrum Present: Yes
Number of Sampled Component Spectra: 1
Spectrometers: USB4E01596
Integration Time (usec): 100000 (USB4E01596)
Spectra Averaged: 3 (USB4E01596)
Boxcar Smoothing: 0 (USB4E01596)
Correct for Electrical Dark: No (USB4E01596)
Strobe/Lamp Enabled: Yes (USB4E01596)
Correct for Detector Non-linearity: No (USB4E01596)
Correct for Stray Light: No (USB4E01596)
Number of Pixels in Processed Spectrum: 3648
>>>>>Begin Processed Spectral Data<<<<<
178.44	-365.385
178.66	-365.385
178.87	-365.385
179.09	-437.500
179.30	574.194
179.52	869.565
179.74	-573.684
179.95	-522.222
180.17	408.163
180.38	-850.000
180.60	-1286.667
180.82	-2455.556
181.03	502.326
181.25	-1300.000
181.46	-265.278
181.68	294.872
181.89	-529.032
182.11	7166.667
182.33	405.769
182.54	-10300.000
182.76	500.000
182.97	621.053
183.19	866.667
183.40	452.174
183.62	1085.000
183.84	266.667
184.05	753.846
184.27	-1918.182
184.48	21000.000
184.70	622.222
184.91	456.604
185.13	1435.714
185.34	423.729
185.56	314.943
185.78	1011.111
185.99	506.000
186.21	246.988
186.42	839.286
186.64	-2088.889
186.85	546.341
187.07	-736.000
187.28	268.750
187.50	-406.977
187.72	1161.905
187.93	816.216
188.15	1714.286
188.36	550.000
188.58	428.333
188.79	478.125
189.01	313.115
189.22	289.247
189.44	271.698
189.65	-385.366
189.87	657.143
190.09	232.692
190.30	254.630
190.52	-256.897
190.73	222.892
190.95	-1214.286
191.16	502.174
191.38	330.769
191.59	320.988
191.81	1183.333
192.02	-2233.333
192.24	-1500.000
192.45	370.968
192.67	-4840.000
192.88	238.372
193.10	297.059
193.31	182.787
193.53	-179.032
193.74	945.455
193.96	-4616.667
194.18	1450.000
194.39	357.627
194.61	775.000
194.82	293.182
195.04	208.772
195.25	423.333
195.47	-19900.000
195.68	295.385
195.90	315.556
196.11	900.000
196.33	-238.095
196.54	850.000
196.76	324.194
196.97	185.185
197.19	259.398
197.40	-304.000
197.62	468.750
197.83	1605.882
198.05	208.750
198.26	272.917
198.48	1411.765
198.69	-471.795
198.91	310.937
199.12	-7250.000
199.34	512.195
199.55	960.000
199.77	325.397
199.98	1066.667
200.20	369.048
200.41	188.636
200.63	273.171
200.84	502.222
201.06	169.620
201.27	-257.895
201.49	-2385.714
201.70	223.377
201.91	-3057.143
202.13	-1106.250
202.34	-472.727
202.56	1026.316
202.77	555.263
202.99	476.596
203.20	247.312
203.42	398.246
203.63	367.606
203.85	-1293.333
204.06	950.000
204.28	-3360.000
204.49	806.667
204.71	234.409
204.92	377.941
205.14	1018.750
205.35	606.250
205.56	1157.143
205.78	523.636
205.99	286.585
206.21	553.846
206.42	238.983
206.64	342.187
206.85	416.279
207.07	-510.526
207.28	301.449
207.50	478.378
207.71	787.500
207.93	190.909
208.14	462.000
208.35	443.182
208.57	1486.667
208.78	1188.000
209.00	557.447
209.21	440.000
209.43	249.515
209.64	-2390.909
209.86	400.000
210.07	-942.857
210.28	285.870
210.50	1226.316
210.71	217.857
210.93	285.897
211.14	304.545
211.36	-1340.000
211.57	380.556
211.78	398.000
212.00	502.128
212.21	556.757
212.43	27700.000
212.64	844.118
212.86	352.083
213.07	912.121
213.29	-1606.667
213.50	583.871
213.71	992.000
213.93	1022.222
214.14	240.000
214.36	187.975
214.57	380.328
214.78	492.157
215.00	308.824
215.21	1353.846
215.43	231.313
215.64	439.535
215.86	548.485
216.07	426.667
216.28	834.783
216.50	268.519
216.71	400.000
216.93	623.684
217.14	221.622
217.35	800.000
217.57	175.000
217.78	836.842
218.00	348.837
218.21	765.000
218.42	7866.667
218.64	206.723
218.85	548.889
219.07	390.164
219.28	201.754
219.49	630.303
219.71	228.378
219.92	675.000
220.14	1081.250
220.35	280.303
220.56	186.452
220.78	4520.000
220.99	265.854
221.21	201.695
221.42	443.902
221.63	283.333
221.85	543.478
222.06	183.761
222.28	439.474
222.49	530.000
222.70	214.679
222.92	288.764
223.13	330.682
223.34	203.150
223.56	310.145
223.77	336.508
223.99	761.538
224.20	141.958
224.41	159.016
224.63	165.574
224.84	316.901
225.05	284.615
225.27	248.052
225.48	238.679
225.69	130.952
225.91	488.462
226.12	147.015
226.34	109.655
226.55	123.478
226.76	134.286
226.98	114.407
227.19	106.322
227.40	95.946
227.62	96.761
227.83	70.463
228.04	87.713
228.26	57.895
228.47	45.013
228.69	57.143
228.90	48.780
229.11	42.330
229.33	47.123
229.54	36.376
229.75	32.138
229.97	33.822
230.18	27.416
230.39	24.685
230.61	25.803
230.82	22.780
231.03	26.891
231.25	19.260
231.46	27.825
231.67	33.421
231.89	25.460
232.10	37.185
232.31	38.424
232.53	40.524
232.74	36.246
232.95	38.447
233.17	31.068
233.38	35.526
233.59	45.880
233.81	44.970
234.02	46.109
234.23	41.732
234.45	44.755
234.66	32.563
234.87	49.742
235.09	36.068
235.30	38.873
235.51	39.873
235.73	31.301
235.94	38.543
236.15	29.624
236.36	29.748
236.58	26.218
236.79	32.500
237.00	37.031
237.22	36.707
237.43	42.899
237.64	23.375
237.86	32.263
238.07	33.271
238.28	24.717
238.50	26.977
238.71	34.064
238.92	44.889
239.13	30.280
239.35	32.367
239.56	22.825
239.77	39.003
239.99	37.739
240.20	35.704
240.41	28.625
240.63	29.333
240.84	37.882
241.05	26.417
241.26	16.749
241.48	15.903
241.69	21.971
241.90	20.595
242.12	12.892
242.33	16.082
242.54	15.945
242.75	12.062
242.97	16.616
243.18	10.276
243.39	10.543
243.61	12.576
243.82	13.834
244.03	9.440
244.24	11.672
244.46	12.471
244.67	13.274
244.88	14.324
245.09	11.800
245.31	13.476
245.52	11.245
245.73	18.252
245.95	22.781
246.16	15.287
246.37	11.959
246.58	15.548
246.80	9.307
247.01	10.735
247.22	9.810
247.43	8.304
247.65	6.598
247.86	8.618
248.07	6.304
248.28	6.919
248.50	5.929
248.71	7.407
248.92	5.180
249.13	7.678
249.35	6.968
249.56	8.892
249.77	8.046
249.98	8.043
250.20	10.713
250.41	8.796
250.62	10.604
250.83	12.804
251.05	13.089
251.26	13.411
251.47	8.878
251.68	15.331
251.90	12.064
252.11	13.681
252.32	14.161
252.53	9.124
252.75	11.047
252.96	8.671
253.17	14.132
253.38	11.644
253.59	11.320
253.81	12.029
254.02	6.733
254.23	13.980
254.44	10.363
254.66	11.961
254.87	14.616
255.08	15.514
255.29	11.829
255.50	19.199
255.72	9.474
255.93	20.695
256.14	12.603
256.35	11.941
256.57	18.318
256.78	15.975
256.99	16.296
257.20	16.727
257.41	12.334
257.63	18.103
257.84	12.264
258.05	12.731
258.26	14.637
258.47	12.156
258.69	10.986
258.90	12.124
259.11	15.271
259.32	9.977
259.53	9.062
259.75	7.800
259.96	6.690
260.17	4.991
260.38	6.895
260.59	6.002
260.81	5.048
261.02	6.149
261.23	4.948
261.44	6.408
261.65	5.888
261.87	4.268
262.08	5.779
262.29	8.896
262.50	5.320
262.71	6.248
262.92	7.190
263.14	6.340
263.35	8.447
263.56	8.872
263.77	12.301
263.98	5.727
264.20	8.990
264.41	10.548
264.62	8.138
264.83	9.946
265.04	11.292
265.25	5.646
265.47	10.609
265.68	12.611
265.89	9.217
266.10	11.181
266.31	8.736
266.52	10.343
266.74	10.332
266.95	9.504
267.16	8.881
267.37	9.247
267.58	7.393
267.79	8.446
268.01	8.562
268.22	8.806
268.43	8.196
268.64	9.315
268.85	7.571
269.06	5.051
269.27	12.002
269.49	6.717
269.70	8.994
269.91	5.145
270.12	5.890
270.33	7.183
270.54	7.810
270.75	8.300
270.97	6.768
271.18	6.351
271.39	7.661
271.60	10.283
271.81	8.192
272.02	5.284
272.23	8.333
272.45	7.574
272.66	6.999
272.87	5.700
273.08	6.909
273.29	5.737
273.50	4.413
273.71	7.247
273.92	4.811
274.14	6.742
274.35	5.812
274.56	8.103
274.77	5.734
274.98	6.875
275.19	6.987
275.40	7.608
275.61	5.281
275.83	10.735
276.04	6.194
276.25	7.734
276.46	6.132
276.67	10.376
276.88	5.614
277.09	7.583
277.30	7.634
277.51	7.589
277.73	7.079
277.94	6.128
278.15	8.511
278.36	10.129
278.57	7.950
278.78	5.940
278.99	7.735
279.20	9.639
279.41	10.374
279.62	6.928
279.84	8.614
280.05	9.860
280.26	6.554
280.47	8.805
280.68	7.810
280.89	7.372
281.10	6.943
281.31	7.074
281.52	8.524
281.73	5.176
281.94	4.034
282.16	6.961
282.37	4.907
282.58	5.611
282.79	7.920
283.00	6.616
283.21	6.317
283.42	5.272
283.63	5.639
283.84	5.299
284.05	4.864
284.26	5.767
284.47	4.127
284.68	5.671
284.89	6.036
285.11	6.596
285.32	6.326
285.53	4.705
285.74	4.990
285.95	5.686
286.16	5.317
286.37	4.897
286.58	6.534
286.79	5.261
287.00	5.551
287.21	5.102
287.42	4.875
287.63	3.516
287.84	3.365
288.05	6.048
288.26	6.220
288.48	5.122
288.69	4.543
288.90	5.678
289.11	5.808
289.32	6.253
289.53	4.338
289.74	3.163
289.95	4.194
290.16	6.719
290.37	4.269
290.58	5.529
290.79	5.449
291.00	5.348
291.21	3.806
291.42	5.384
291.63	4.384
291.84	5.251
292.05	5.837
292.26	4.936
292.47	5.062
292.68	4.972
292.89	7.426
293.10	3.734
293.31	3.334
293.52	5.450
293.73	4.898
293.94	6.673
294.15	4.850
294.36	5.471
294.57	5.991
294.79	3.731
295.00	5.678
295.21	7.370
295.42	5.162
295.63	5.626
295.84	4.417
296.05	3.638
296.26	4.575
296.47	3.349
296.68	4.518
296.89	5.962
297.10	4.471
297.31	4.037
297.52	5.419
297.73	4.221
297.94	2.219
298.15	4.103
298.36	3.908
298.57	2.294
298.78	3.968
298.99	3.930
299.20	3.140
299.41	4.826
299.62	4.172
299.83	4.196
300.04	4.799
300.25	4.063
300.46	4.047
300.67	4.517
300.88	4.788
301.09	4.274
301.30	4.827
301.50	3.669
301.71	4.899
301.92	6.742
302.13	5.525
302.34	4.149
302.55	4.915
302.76	4.981
302.97	3.955
303.18	7.141
303.39	5.142
303.60	5.290
303.81	5.325
304.02	5.368
304.23	5.556
304.44	3.981
304.65	6.738
304.86	4.602
305.07	5.600
305.28	5.643
305.49	5.991
305.70	5.905
305.91	2.803
306.12	5.721
306.33	5.666
306.54	5.183
306.75	5.467
306.96	8.193
307.17	4.702
307.38	7.355
307.58	6.069
307.79	2.917
308.00	5.828
308.21	5.768
308.42	5.098
308.63	5.126
308.84	4.800
309.05	4.737
309.26	3.177
309.47	4.534
309.68	4.753
309.89	4.070
310.10	2.761
310.31	3.553
310.52	3.267
310.73	4.650
310.94	4.932
311.14	4.656
311.35	3.882
311.56	3.407
311.77	4.123
311.98	4.814
312.19	1.717
312.40	3.648
312.61	4.494
312.82	3.853
313.03	2.319
313.24	4.439
313.45	4.633
313.66	4.355
313.86	5.672
314.07	4.095
314.28	4.049
314.49	4.983
314.70	2.289
314.91	6.595
315.12	4.733
315.33	4.426
315.54	5.195
315.75	5.950
315.96	5.926
316.16	5.463
316.37	5.421
316.58	4.418
316.79	5.025
317.00	5.333
317.21	5.803
317.42	5.965
317.63	4.980
317.84	4.572
318.05	5.149
318.25	7.093
318.46	4.135
318.67	4.938
318.88	5.367
319.09	5.637
319.30	5.120
319.51	4.364
319.72	6.218
319.93	4.000
320.13	4.096
320.34	4.930
320.55	5.895
320.76	6.415
320.97	5.089
321.18	6.955
321.39	5.165
321.60	6.020
321.80	5.232
322.01	6.310
322.22	5.311
322.43	5.039
322.64	4.824
322.85	6.683
323.06	5.002
323.27	4.466
323.47	5.852
323.68	4.959
323.89	4.799
324.10	4.644
324.31	3.199
324.52	6.450
324.73	3.857
324.93	4.257
325.14	3.923
325.35	5.467
325.56	4.875
325.77	5.941
325.98	4.783
326.19	5.646
326.39	3.290
326.60	5.242
326.81	3.317
327.02	3.976
327.23	4.468
327.44	5.435
327.64	4.504
327.85	4.015
328.06	4.357
328.27	5.642
328.48	4.315
328.69	3.498
328.90	4.452
329.10	5.262
329.31	4.578
329.52	5.213
329.73	3.447
329.94	4.441
330.15	4.214
330.35	3.142
330.56	6.113
330.77	4.469
330.98	6.443
331.19	5.593
331.39	5.973
331.60	5.697
331.81	5.359
332.02	4.930
332.23	4.191
332.44	4.618
332.64	5.205
332.85	5.060
333.06	4.739
333.27	4.733
333.48	5.181
333.68	4.464
333.89	4.308
334.10	5.848
334.31	6.252
334.52	4.462
334.72	5.142
334.93	2.960
335.14	3.248
335.35	5.435
335.56	4.962
335.76	4.899
335.97	5.138
336.18	4.188
336.39	5.924
336.60	5.024
336.80	3.780
337.01	6.156
337.22	5.636
337.43	4.487
337.64	6.456
337.84	5.257
338.05	6.055
338.26	6.004
338.47	5.909
338.68	3.257
338.88	6.535
339.09	4.705
339.30	5.008
339.51	7.126
339.71	6.563
339.92	4.398
340.13	3.618
340.34	5.628
340.55	5.625
340.75	6.554
340.96	5.535
341.17	5.935
341.38	5.123
341.58	6.716
341.79	5.942
342.00	6.483
342.21	7.560
342.41	5.063
342.62	6.096
342.83	7.990
343.04	4.296
343.24	6.101
343.45	8.142
343.66	6.148
343.87	7.644
344.07	5.465
344.28	10.068
344.49	7.515
344.70	10.432
344.90	4.340
345.11	5.459
345.32	7.132
345.53	7.598
345.73	7.486
345.94	9.803
346.15	9.898
346.36	9.199
346.56	9.703
346.77	10.957
346.98	9.541
347.19	9.719
347.39	8.952
347.60	9.076
347.81	10.537
348.02	9.763
348.22	8.076
348.43	10.260
348.64	9.132
348.84	10.751
349.05	11.200
349.26	12.610
349.47	10.083
349.67	9.715
349.88	12.878
350.09	10.296
350.30	13.402
350.50	11.978
350.71	13.551
350.92	14.392
351.12	13.104
351.33	14.765
351.54	13.285
351.74	13.368
351.95	12.889
352.16	13.705
352.37	14.777
352.57	14.068
352.78	10.522
352.99	15.507
353.19	14.686
353.40	16.611
353.61	15.021
353.82	16.116
354.02	15.543
354.23	15.854
354.44	18.072
354.64	15.188
354.85	16.711
355.06	16.407
355.26	14.526
355.47	15.579
355.68	18.231
355.88	18.237
356.09	16.872
356.30	14.638
356.51	17.932
356.71	18.653
356.92	15.279
357.13	18.773
357.33	19.176
357.54	18.135
357.75	15.014
357.95	18.692
358.16	16.304
358.37	20.344
358.57	16.890
358.78	20.761
358.99	18.112
359.19	19.007
359.40	19.193
359.61	17.286
359.81	20.432
360.02	21.691
360.23	17.332
360.43	18.979
360.64	17.845
360.85	19.082
361.05	17.582
361.26	21.027
361.47	18.207
361.67	19.969
361.88	16.961
362.09	19.093
362.29	17.356
362.50	19.083
362.70	16.744
362.91	21.022
363.12	18.481
363.32	19.321
363.53	18.502
363.74	20.254
363.94	17.039
364.15	20.965
364.36	18.894
364.56	19.411
364.77	17.529
364.98	20.755
365.18	17.422
365.39	20.142
365.59	16.396
365.80	18.250
366.01	18.990
366.21	18.382
366.42	15.707
366.63	20.519
366.83	16.887
367.04	16.365
367.24	19.088
367.45	16.330
367.66	16.939
367.86	18.306
368.07	16.273
368.28	17.802
368.48	17.996
368.69	15.693
368.89	16.982
369.10	18.623
369.31	16.618
369.51	17.464
369.72	18.560
369.92	19.938
370.13	14.884
370.34	18.208
370.54	13.621
370.75	17.494
370.95	14.939
371.16	17.128
371.37	16.724
371.57	15.739
371.78	16.549
371.98	17.985
372.19	17.845
372.40	17.792
372.60	17.711
372.81	17.563
373.01	14.671
373.22	16.908
373.43	16.951
373.63	17.476
373.84	17.777
374.04	16.358
374.25	15.274
374.46	16.971
374.66	16.561
374.87	17.765
375.07	13.994
375.28	14.801
375.48	16.443
375.69	17.794
375.90	13.698
376.10	14.515
376.31	14.997
376.51	14.844
376.72	14.469
376.92	15.249
377.13	16.221
377.34	17.541
377.54	14.785
377.75	17.715
377.95	16.247
378.16	17.147
378.36	14.384
378.57	16.398
378.77	15.086
378.98	15.857
379.19	15.103
379.39	14.828
379.60	16.354
379.80	16.686
380.01	16.437
380.21	15.171
380.42	15.482
380.62	16.223
380.83	15.859
381.04	15.142
381.24	15.421
381.45	15.360
381.65	14.676
381.86	16.613
382.06	15.527
382.27	13.266
382.47	13.803
382.68	16.798
382.88	13.361
383.09	13.508
383.29	14.245
383.50	15.494
383.71	13.408
383.91	15.034
384.12	13.863
384.32	15.020
384.53	13.751
384.73	13.773
384.94	13.511
385.14	13.977
385.35	13.236
385.55	14.503
385.76	13.557
385.96	14.832
386.17	14.671
386.37	15.294
386.58	14.450
386.78	15.622
386.99	13.700
387.19	15.821
387.40	13.470
387.60	15.848
387.81	14.307
388.01	14.868
388.22	14.105
388.42	16.193
388.63	14.430
388.83	15.961
389.04	12.850
389.24	15.067
389.45	13.283
389.65	13.896
389.86	12.580
390.06	13.299
390.27	13.253
390.47	13.221
390.68	13.432
390.88	15.155
391.09	14.414
391.29	15.487
391.50	13.472
391.70	14.858
391.91	13.834
392.11	14.804
392.32	13.997
392.52	15.041
392.73	13.778
392.93	14.513
393.14	13.375
393.34	14.196
393.55	13.863
393.75	15.041
393.95	13.525
394.16	14.224
394.36	14.933
394.57	14.953
394.77	13.834
394.98	14.068
395.18	14.728
395.39	14.706
395.59	13.727
395.80	13.984
396.00	14.184
396.21	14.411
396.41	13.659
396.61	15.759
396.82	13.585
397.02	14.236
397.23	13.143
397.43	13.950
397.64	11.185
397.84	14.462
398.05	11.795
398.25	13.770
398.45	12.668
398.66	14.427
398.86	12.759
399.07	14.997
399.27	13.220
399.48	13.939
399.68	12.527
399.89	12.763
400.09	12.963
400.29	12.637
400.50	13.410
400.70	13.272
400.91	12.707
401.11	12.767
401.32	11.942
401.52	12.206
401.72	11.656
401.93	14.813
402.13	12.560
402.34	12.813
402.54	12.165
402.75	14.629
402.95	10.533
403.15	13.638
403.36	11.988
403.56	13.855
403.77	12.287
403.97	12.273
404.17	11.033
404.38	13.084
404.58	11.673
404.79	13.590
404.99	13.160
405.19	11.994
405.40	12.410
405.60	12.603
405.81	12.094
406.01	12.387
406.21	11.696
406.42	12.642
406.62	12.258
406.83	12.908
407.03	12.998
407.23	12.907
407.44	11.993
407.64	12.925
407.85	12.204
408.05	12.250
408.25	10.964
408.46	13.218
408.66	12.086
408.87	12.544
409.07	11.796
409.27	11.372
409.48	11.098
409.68	11.820
409.88	10.533
410.09	11.904
410.29	12.115
410.50	13.564
410.70	10.427
410.90	12.022
411.11	9.907
411.31	11.031
411.51	11.779
411.72	12.233
411.92	10.762
412.12	11.787
412.33	10.528
412.53	11.872
412.74	10.496
412.94	11.895
413.14	11.553
413.35	11.776
413.55	10.557
413.75	12.400
413.96	9.876
414.16	11.760
414.36	10.400
414.57	11.188
414.77	10.013
414.97	11.922
415.18	10.905
415.38	10.877
415.58	11.641
415.79	10.347
415.99	10.631
416.19	11.206
416.40	10.586
416.60	11.208
416.80	10.764
417.01	11.375
417.21	10.427
417.41	11.756
417.62	11.570
417.82	11.517
418.02	10.734
418.23	12.131
418.43	11.505
418.63	12.115
418.84	11.554
419.04	11.111
419.24	11.959
419.45	12.195
419.65	12.232
419.85	12.223
420.06	11.985
420.26	11.895
420.46	11.883
420.67	12.861
420.87	12.069
421.07	12.334
421.28	11.855
421.48	12.161
421.68	12.319
421.88	12.425
422.09	12.117
422.29	12.305
422.49	11.979
422.70	12.601
422.90	11.964
423.10	12.327
423.31	12.079
423.51	12.484
423.71	11.547
423.91	12.238
424.12	12.035
424.32	12.244
424.52	12.072
424.73	11.908
424.93	11.964
425.13	12.073
425.33	11.777
425.54	12.143
425.74	11.979
425.94	12.248
426.15	12.097
426.35	12.365
426.55	12.346
426.75	12.200
426.96	11.850
427.16	11.931
427.36	11.854
427.57	12.321
427.77	11.516
427.97	11.895
428.17	11.144
428.38	11.606
428.58	10.513
428.78	11.834
428.98	10.422
429.19	11.046
429.39	10.280
429.59	11.524
429.79	10.004
430.00	10.425
430.20	9.610
430.40	10.787
430.60	10.193
430.81	10.919
431.01	10.681
431.21	11.524
431.41	10.646
431.62	10.718
431.82	10.334
432.02	11.218
432.22	9.943
432.43	10.514
432.63	10.133
432.83	10.848
433.03	10.338
433.24	10.504
433.44	10.420
433.64	11.301
433.84	10.491
434.05	11.574
434.25	11.154
434.45	11.171
434.65	11.359
434.85	11.526
435.06	11.145
435.26	11.406
435.46	11.011
435.66	11.281
435.87	10.589
436.07	10.879
436.27	10.993
436.47	10.874
436.67	10.006
436.88	11.436
437.08	10.942
437.28	11.268
437.48	10.614
437.69	11.396
437.89	10.701
438.09	11.084
438.29	10.339
438.49	11.046
438.70	11.203
438.90	10.767
439.10	10.600
439.30	11.355
439.50	10.088
439.71	11.577
439.91	10.280
440.11	11.316
440.31	11.066
440.51	11.116
440.72	10.426
440.92	11.051
441.12	11.463
441.32	11.170
441.52	11.110
441.72	11.316
441.93	11.325
442.13	11.441
442.33	11.344
442.53	11.632
442.73	11.091
442.94	11.104
443.14	11.022
443.34	11.779
443.54	11.112
443.74	11.560
443.94	10.811
444.15	10.921
444.35	10.616
444.55	10.796
444.75	10.970
444.95	10.940
445.15	10.757
445.36	10.633
445.56	10.283
445.76	11.350
445.96	10.366
446.16	11.471
446.36	10.779
446.57	11.222
446.77	10.510
446.97	11.194
447.17	11.471
447.37	11.209
447.57	11.349
447.77	11.394
447.98	11.249
448.18	11.220
448.38	11.354
448.58	11.416
448.78	11.249
448.98	11.523
449.18	11.206
449.39	11.060
449.59	10.990
449.79	11.354
449.99	11.025
450.19	11.101
450.39	10.777
450.59	11.035
450.79	10.735
451.00	11.213
451.20	11.307
451.40	10.985
451.60	10.049
451.80	11.192
452.00	10.191
452.20	10.862
452.40	10.564
452.61	10.793
452.81	10.668
453.01	11.138
453.21	10.757
453.41	10.843
453.61	10.648
453.81	10.724
454.01	10.657
454.21	10.889
454.42	10.847
454.62	10.867
454.82	10.288
455.02	10.811
455.22	10.164
455.42	10.686
455.62	10.129
455.82	10.559
456.02	9.971
456.23	10.708
456.43	10.113
456.63	10.683
456.83	9.738
457.03	10.365
457.23	9.973
457.43	10.413
457.63	10.161
457.83	10.871
458.03	9.548
458.23	10.548
458.43	9.906
458.64	10.314
458.84	10.063
459.04	10.720
459.24	10.148
459.44	10.632
459.64	10.455
459.84	10.876
460.04	10.729
460.24	11.036
460.44	10.588
460.64	11.107
460.84	10.493
461.04	11.146
461.24	10.870
461.45	11.201
461.65	11.025
461.85	11.197
462.05	10.988
462.25	10.799
462.45	10.926
462.65	10.854
462.85	10.090
463.05	10.294
463.25	10.067
463.45	10.894
463.65	10.010
463.85	10.699
464.05	9.985
464.25	10.296
464.45	10.333
464.65	10.054
464.85	9.693
465.05	10.399
465.26	10.338
465.46	10.358
465.66	10.262
465.86	10.144
466.06	10.146
466.26	10.239
466.46	9.333
466.66	10.281
466.86	9.773
467.06	10.436
467.26	9.786
467.46	10.603
467.66	10.016
467.86	10.297
468.06	9.832
468.26	10.173
468.46	10.387
468.66	10.438
468.86	9.487
469.06	10.499
469.26	9.638
469.46	10.289
469.66	9.797
469.86	10.448
470.06	9.848
470.26	10.559
470.46	9.687
470.66	10.698
470.86	9.795
471.06	10.058
471.26	9.498
471.46	10.493
471.66	9.849
471.86	10.497
472.06	9.785
472.26	10.793
472.46	10.372
472.66	10.548
472.86	9.606
473.06	10.752
473.26	10.200
473.46	10.392
473.66	9.958
473.86	10.468
474.06	9.619
474.26	10.349
474.46	9.768
474.66	10.640
474.86	10.034
475.06	10.458
475.26	9.648
475.46	10.560
475.66	9.534
475.86	10.037
476.06	10.720
476.26	10.476
476.46	9.497
476.66	10.306
476.86	9.647
477.06	10.553
477.26	9.763
477.46	10.540
477.65	9.986
477.85	10.809
478.05	9.853
478.25	10.804
478.45	10.166
478.65	10.744
478.85	10.314
479.05	10.638
479.25	10.012
479.45	10.786
479.65	9.974
479.85	10.961
480.05	10.204
480.25	10.675
480.45	10.165
480.65	10.838
480.85	10.399
481.05	10.838
481.25	10.693
481.44	10.723
481.64	10.315
481.84	11.092
482.04	10.775
482.24	10.894
482.44	10.288
482.64	10.660
482.84	10.434
483.04	10.822
483.24	10.753
483.44	10.533
483.64	10.326
483.84	10.348
484.04	10.740
484.23	10.880
484.43	11.052
484.63	11.235
484.83	11.485
485.03	12.030
485.23	11.944
485.43	11.751
485.63	11.581
485.83	11.551
486.03	11.522
486.23	11.545
486.42	11.355
486.62	11.241
486.82	11.311
487.02	11.015
487.22	10.934
487.42	10.769
487.62	10.920
487.82	11.000
488.02	10.842
488.22	11.202
488.41	11.054
488.61	11.056
488.81	11.090
489.01	11.131
489.21	11.260
489.41	11.412
489.61	11.321
489.81	11.185
490.01	11.116
490.20	11.390
490.40	11.712
490.60	11.011
490.80	11.022
491.00	10.969
491.20	10.738
491.40	10.917
491.60	10.801
491.79	10.763
491.99	10.813
492.19	10.912
492.39	10.982
492.59	10.782
492.79	10.969
492.99	11.208
493.19	11.395
493.38	11.526
493.58	11.467
493.78	11.349
493.98	11.433
494.18	11.181
494.38	11.374
494.58	11.300
494.77	10.577
494.97	10.907
495.17	10.614
495.37	11.199
495.57	10.633
495.77	10.546
495.96	10.567
496.16	10.690
496.36	10.533
496.56	10.515
496.76	10.431
496.96	10.625
497.15	10.682
497.35	10.726
497.55	10.435
497.75	11.026
497.95	10.669
498.15	10.789
498.34	10.899
498.54	10.853
498.74	11.084
498.94	11.053
499.14	10.698
499.34	10.661
499.53	10.655
499.73	11.002
499.93	10.759
500.13	10.826
500.33	10.590
500.52	11.032
500.72	10.461
500.92	10.688
501.12	10.525
501.32	10.785
501.52	10.777
501.71	10.904
501.91	10.183
502.11	10.997
502.31	10.336
502.51	10.752
502.70	10.245
502.90	10.361
503.10	10.537
503.30	10.817
503.50	10.958
503.69	10.985
503.89	10.386
504.09	10.788
504.29	10.774
504.48	10.813
504.68	10.692
504.88	10.802
505.08	10.494
505.28	10.662
505.47	10.859
505.67	11.058
505.87	10.780
506.07	10.917
506.27	10.500
506.46	10.969
506.66	10.791
506.86	11.100
507.06	10.833
507.25	11.225
507.45	10.526
507.65	10.782
507.85	10.833
508.04	11.086
508.24	11.187
508.44	11.110
508.64	10.848
508.83	11.298
509.03	10.800
509.23	10.890
509.43	10.901
509.63	11.081
509.82	11.087
510.02	11.397
510.22	11.661
510.42	11.401
510.61	11.110
510.81	11.350
511.01	11.039
511.21	11.500
511.40	10.884
511.60	11.231
511.80	10.918
511.99	11.307
512.19	11.199
512.39	11.343
512.59	11.372
512.78	11.603
512.98	11.101
513.18	11.722
513.38	10.972
513.57	11.539
513.77	11.200
513.97	11.483
514.17	11.172
514.36	11.346
514.56	11.230
514.76	11.610
514.95	11.435
515.15	10.976
515.35	11.014
515.55	11.477
515.74	11.277
515.94	11.772
516.14	10.927
516.33	11.317
516.53	11.062
516.73	11.120
516.93	11.264
517.12	11.520
517.32	10.883
517.52	11.359
517.71	11.157
517.91	11.247
518.11	11.546
518.30	11.558
518.50	11.217
518.70	11.398
518.90	11.464
519.09	11.452
519.29	11.640
519.49	11.783
519.68	11.575
519.88	11.672
520.08	11.550
520.27	11.735
520.47	11.598
520.67	11.836
520.86	11.552
521.06	11.962
521.26	11.858
521.45	11.736
521.65	11.583
521.85	11.405
522.04	11.360
522.24	11.324
522.44	11.345
522.63	11.586
522.83	11.494
523.03	11.792
523.22	11.172
523.42	11.783
523.62	11.402
523.81	11.765
524.01	11.621
524.21	11.347
524.40	11.117
524.60	11.603
524.80	11.140
524.99	11.070
525.19	11.173
525.39	11.017
525.58	11.434
525.78	11.561
525.98	11.539
526.17	11.638
526.37	11.323
526.57	11.514
526.76	11.849
526.96	11.529
527.15	11.777
527.35	11.640
527.55	11.497
527.74	11.566
527.94	11.678
528.14	11.550
528.33	11.476
528.53	11.242
528.72	11.493
528.92	11.581
529.12	11.621
529.31	11.766
529.51	11.764
529.71	11.867
529.90	12.037
530.10	11.900
530.29	12.044
530.49	12.379
530.69	12.418
530.88	12.116
531.08	12.200
531.28	12.108
531.47	11.864
531.67	11.780
531.86	11.748
532.06	11.912
532.26	11.646
532.45	11.731
532.65	11.554
532.84	11.646
533.04	11.486
533.24	11.642
533.43	11.717
533.63	11.849
533.82	11.959
534.02	11.882
534.22	11.701
534.41	12.085
534.61	11.975
534.80	12.003
535.00	12.107
535.19	12.090
535.39	12.201
535.59	12.086
535.78	11.830
535.98	11.878
536.17	11.901
536.37	11.673
536.57	11.725
536.76	11.719
536.96	11.585
537.15	11.749
537.35	11.597
537.54	12.088
537.74	11.845
537.93	11.960
538.13	11.894
538.33	12.244
538.52	12.026
538.72	11.931
538.91	12.046
539.11	12.059
539.30	12.030
539.50	11.742
539.70	11.923
539.89	12.091
540.09	11.529
540.28	12.224
540.48	11.670
540.67	11.846
540.87	11.694
541.06	11.611
541.26	11.881
541.45	11.824
541.65	12.100
541.85	12.220
542.04	11.943
542.24	12.188
542.43	12.339
542.63	12.346
542.82	12.257
543.02	12.381
543.21	12.489
543.41	12.587
543.60	12.498
543.80	12.672
543.99	12.400
544.19	12.531
544.38	12.461
544.58	12.361
544.77	12.374
544.97	12.554
545.16	12.455
545.36	12.708
545.56	12.443
545.75	12.442
545.95	12.509
546.14	12.723
546.34	12.509
546.53	12.591
546.73	12.616
546.92	12.838
547.12	12.480
547.31	12.755
547.51	12.202
547.70	12.583
547.90	12.850
548.09	12.749
548.29	12.487
548.48	13.009
548.68	12.941
548.87	12.964
549.07	12.885
549.26	13.068
549.46	12.621
549.65	13.191
549.84	12.772
550.04	12.898
550.23	12.015
550.43	12.467
550.62	12.521
550.82	13.203
551.01	12.081
551.21	12.848
551.40	12.395
551.60	12.860
551.79	12.473
551.99	13.127
552.18	12.554
552.38	12.883
552.57	12.804
552.77	13.020
552.96	13.014
553.16	13.136
553.35	12.770
553.54	13.807
553.74	13.003
553.93	13.645
554.13	13.397
554.32	13.329
554.52	13.254
554.71	13.749
554.91	12.732
555.10	13.497
555.29	13.111
555.49	13.758
555.68	13.113
555.88	13.900
556.07	13.063
556.27	13.876
556.46	13.519
556.66	13.344
556.85	12.875
557.04	13.754
557.24	13.136
557.43	14.394
557.63	13.558
557.82	13.486
558.02	13.124
558.21	14.040
558.40	13.336
558.60	14.309
558.79	13.374
558.99	14.280
559.18	13.783
559.38	14.266
559.57	13.961
559.76	14.091
559.96	14.046
560.15	14.564
560.35	13.331
560.54	13.942
560.73	13.195
560.93	14.380
561.12	14.102
561.32	14.590
561.51	13.807
561.70	14.034
561.90	13.881
562.09	14.851
562.29	14.017
562.48	14.553
562.67	14.253
562.87	14.619
563.06	14.057
563.26	14.822
563.45	14.577
563.64	15.044
563.84	15.026
564.03	15.249
564.23	14.365
564.42	15.268
564.61	14.371
564.81	14.500
565.00	15.172
565.20	15.145
565.39	14.571
565.58	15.103
565.78	14.415
565.97	14.910
566.16	14.898
566.36	15.483
566.55	15.100
566.74	15.279
566.94	15.444
567.13	15.568
567.33	15.000
567.52	15.536
567.71	15.708
567.91	15.795
568.10	15.763
568.29	15.238
568.49	14.984
568.68	15.590
568.87	15.130
569.07	15.856
569.26	15.244
569.45	15.186
569.65	15.071
569.84	15.472
570.04	14.994
570.23	15.261
570.42	14.693
570.62	15.568
570.81	15.141
571.00	15.497
571.20	15.364
571.39	15.506
571.58	15.095
571.78	15.752
571.97	15.283
572.16	15.459
572.36	15.525
572.55	15.337
572.74	15.036
572.94	15.044
573.13	15.332
573.32	15.561
573.51	15.327
573.71	15.513
573.90	15.345
574.09	15.809
574.29	15.179
574.48	15.180
574.67	15.621
574.87	15.798
575.06	14.936
575.25	15.549
575.45	15.435
575.64	15.545
575.83	15.029
576.03	15.987
576.22	15.433
576.41	15.045
576.60	15.425
576.80	15.112
576.99	15.461
577.18	15.635
577.38	15.218
577.57	15.435
577.76	15.229
577.95	15.107
578.15	14.716
578.34	15.674
578.53	14.909
578.73	15.449
578.92	14.435
579.11	15.861
579.30	15.063
579.50	15.288
579.69	15.022
579.88	15.200
580.08	14.315
580.27	14.941
580.46	15.170
580.65	14.764
580.85	14.061
581.04	15.196
581.23	14.546
581.42	14.856
581.62	14.544
581.81	14.508
582.00	14.792
582.19	15.255
582.39	15.128
582.58	14.852
582.77	14.483
582.96	15.383
583.16	14.140
583.35	14.930
583.54	14.840
583.73	14.656
583.93	14.322
584.12	14.413
584.31	13.981
584.50	14.555
584.70	15.067
584.89	14.511
585.08	14.234
585.27	15.115
585.47	13.693
585.66	14.922
585.85	14.826
586.04	14.500
586.24	14.527
586.43	15.011
586.62	14.579
586.81	15.207
587.00	14.126
587.20	15.390
587.39	14.245
587.58	15.013
587.77	14.974
587.97	14.842
588.16	14.847
588.35	15.260
588.54	13.855
588.73	15.084
588.93	14.904
589.12	15.312
589.31	15.151
589.50	15.144
589.69	15.410
589.89	15.487
590.08	14.552
590.27	15.367
590.46	15.271
590.65	15.617
590.85	14.743
591.04	15.740
591.23	15.620
591.42	16.077
591.61	15.798
591.81	15.821
592.00	15.354
592.19	16.005
592.38	15.256
592.57	16.542
592.77	15.958
592.96	15.871
593.15	16.193
593.34	16.207
593.53	15.543
593.72	15.760
593.92	15.596
594.11	16.675
594.30	15.722
594.49	16.448
594.68	16.661
594.87	16.531
595.07	15.924
595.26	16.974
595.45	16.214
595.64	17.065
595.83	16.446
596.02	17.355
596.22	16.740
596.41	17.487
596.60	16.628
596.79	17.970
596.98	16.631
597.17	17.962
597.37	17.763
597.56	18.106
597.75	17.514
597.94	18.012
598.13	18.400
598.32	17.813
598.51	17.782
598.71	18.492
598.90	17.875
599.09	18.311
599.28	18.108
599.47	18.452
599.66	18.211
599.85	18.634
600.05	18.414
600.24	17.943
600.43	18.354
600.62	18.691
600.81	18.537
601.00	18.992
601.19	18.322
601.38	19.186
601.58	18.934
601.77	19.134
601.96	19.052
602.15	19.129
602.34	19.361
602.53	19.929
602.72	18.832
602.91	19.648
603.10	18.321
603.30	20.117
603.49	19.744
603.68	20.231
603.87	19.222
604.06	19.607
604.25	20.482
604.44	19.953
604.63	19.819
604.82	20.507
605.01	20.388
605.21	20.814
605.40	20.563
605.59	20.428
605.78	20.471
605.97	20.343
606.16	20.630
606.35	21.157
606.54	20.772
606.73	20.928
606.92	20.564
607.11	20.823
607.30	20.491
607.50	20.785
607.69	20.223
607.88	20.238
608.07	20.283
608.26	20.019
608.45	21.354
608.64	20.837
608.83	19.676
609.02	20.787
609.21	20.830
609.40	20.683
609.59	20.901
609.78	20.746
609.97	20.309
610.16	21.181
610.35	20.831
610.55	20.540
610.74	20.345
610.93	20.732
611.12	20.787
611.31	21.200
611.50	20.229
611.69	20.893
611.88	21.005
612.07	21.441
612.26	20.058
612.45	19.802
612.64	19.827
612.83	20.527
613.02	20.126
613.21	19.977
613.40	19.473
613.59	20.296
613.78	19.329
613.97	19.913
614.16	19.567
614.35	20.315
614.54	18.124
614.73	20.254
614.92	18.898
615.11	20.255
615.30	19.572
615.49	20.391
615.68	19.600
615.87	19.856
616.07	18.274
616.26	19.570
616.45	19.341
616.64	19.216
616.83	19.115
617.02	19.912
617.21	18.220
617.40	19.013
617.59	19.118
617.78	19.967
617.97	18.889
618.16	18.349
618.35	18.098
618.54	18.295
618.73	19.247
618.92	19.466
619.11	18.550
619.30	19.703
619.49	18.235
619.68	19.747
619.86	18.176
620.05	19.500
620.24	18.023
620.43	18.729
620.62	17.300
620.81	18.360
621.00	18.896
621.19	19.692
621.38	18.716
621.57	19.115
621.76	17.903
621.95	19.889
622.14	18.392
622.33	18.928
622.52	18.115
622.71	19.074
622.90	17.834
623.09	18.292
623.28	18.481
623.47	18.589
623.66	17.574
623.85	18.869
624.04	17.091
624.23	18.185
624.42	18.573
624.61	18.506
624.80	17.757
624.99	19.353
625.18	17.264
625.36	18.354
625.55	18.206
625.74	18.081
625.93	18.161
626.12	18.171
626.31	18.467
626.50	19.465
626.69	17.862
626.88	19.094
627.07	18.743
627.26	18.669
627.45	18.521
627.64	19.187
627.83	18.568
628.02	19.116
628.20	18.257
628.39	19.146
628.58	18.492
628.77	19.345
628.96	18.385
629.15	17.897
629.34	18.604
629.53	18.340
629.72	17.454
629.91	19.213
630.10	18.118
630.29	18.673
630.47	17.526
630.66	18.184
630.85	17.088
631.04	18.252
631.23	17.699
631.42	18.198
631.61	17.338
631.80	18.275
631.99	17.921
632.18	17.406
632.36	17.488
632.55	18.099
632.74	17.195
632.93	17.338
633.12	17.662
633.31	18.024
633.50	17.778
633.69	17.481
633.88	17.261
634.06	18.269
634.25	16.802
634.44	18.005
634.63	17.136
634.82	18.277
635.01	17.239
635.20	18.100
635.39	17.400
635.57	17.482
635.76	17.932
635.95	18.043
636.14	16.578
636.33	17.975
636.52	17.224
636.71	18.360
636.89	17.260
637.08	17.255
637.27	16.956
637.46	17.674
637.65	17.670
637.84	16.643
638.03	16.318
638.21	17.647
638.40	16.848
638.59	17.689
638.78	17.048
638.97	17.166
639.16	16.722
639.34	17.390
639.53	15.612
639.72	17.377
639.91	15.435
640.10	16.309
640.29	16.914
640.47	17.020
640.66	15.997
640.85	17.957
641.04	15.870
641.23	17.361
641.42	16.424
641.60	16.893
641.79	16.206
641.98	16.078
642.17	17.461
642.36	16.735
642.54	15.917
642.73	16.252
642.92	15.104
643.11	15.706
643.30	15.579
643.49	17.077
643.67	14.474
643.86	16.009
644.05	16.261
644.24	16.864
644.43	16.238
644.61	16.974
644.80	16.274
644.99	16.079
645.18	16.949
645.37	16.167
645.55	14.169
645.74	17.100
645.93	15.790
646.12	17.096
646.31	16.218
646.49	16.078
646.68	16.427
646.87	16.097
647.06	15.534
647.24	16.815
647.43	14.416
647.62	18.071
647.81	15.122
648.00	16.830
648.18	13.363
648.37	16.581
648.56	15.307
648.75	16.117
648.93	15.613
649.12	15.914
649.31	15.096
649.50	16.727
649.68	13.924
649.87	16.574
650.06	15.273
650.25	16.431
650.43	14.535
650.62	15.875
650.81	15.132
651.00	15.595
651.18	15.154
651.37	16.642
651.56	15.344
651.75	16.715
651.93	15.712
652.12	16.039
652.31	15.477
652.50	15.474
652.68	16.366
652.87	16.450
653.06	15.371
653.25	16.225
653.43	15.324
653.62	16.246
653.81	14.918
654.00	16.902
654.18	14.695
654.37	16.149
654.56	13.763
654.74	14.530
654.93	13.815
655.12	14.785
655.31	13.653
655.49	15.106
655.68	13.578
655.87	13.720
656.05	12.049
656.24	13.615
656.43	11.472
656.62	13.751
656.80	13.838
656.99	14.448
657.18	12.107
657.36	13.243
657.55	13.377
657.74	13.317
657.93	14.496
658.11	14.371
658.30	14.136
658.49	12.788
658.67	12.157
658.86	12.727
659.05	12.974
659.23	13.355
659.42	12.769
659.61	13.883
659.79	12.762
659.98	13.500
660.17	13.311
660.35	14.055
660.54	13.930
660.73	14.029
660.91	12.656
661.10	13.074
661.29	11.138
661.47	12.650
661.66	11.836
661.85	13.046
662.03	12.177
662.22	11.489
662.41	9.785
662.59	10.433
662.78	10.210
662.97	10.841
663.15	9.500
663.34	9.324
663.53	9.829
663.71	10.645
663.90	8.998
664.09	10.973
664.27	10.369
664.46	9.896
664.65	9.531
664.83	9.350
665.02	8.677
665.21	8.237
665.39	7.802
665.58	10.260
665.77	9.437
665.95	9.125
666.14	7.462
666.32	9.061
666.51	7.975
666.70	8.373
666.88	7.015
667.07	8.660
667.26	7.345
667.44	8.466
667.63	7.941
667.81	6.744
668.00	9.640
668.19	9.335
668.37	7.454
668.56	8.916
668.75	7.040
668.93	9.893
669.12	7.498
669.30	8.197
669.49	8.367
669.68	9.465
669.86	9.219
670.05	8.294
670.23	6.994
670.42	8.326
670.61	8.574
670.79	8.881
670.98	7.660
671.16	9.986
671.35	6.418
671.54	8.548
671.72	6.745
671.91	8.872
672.09	6.355
672.28	8.627
672.46	9.612
672.65	9.469
672.84	9.346
673.02	8.747
673.21	7.164
673.39	8.802
673.58	7.769
673.77	9.984
673.95	7.643
674.14	10.536
674.32	7.269
674.51	9.805
674.69	8.284
674.88	9.005
675.07	8.196
675.25	10.820
675.44	8.468
675.62	8.828
675.81	7.211
675.99	12.596
676.18	9.348
676.36	9.209
676.55	7.465
676.74	9.813
676.92	9.395
677.11	10.129
677.29	8.319
677.48	11.802
677.66	9.936
677.85	9.701
678.03	10.219
678.22	10.361
678.40	10.431
678.59	10.902
678.78	7.916
678.96	9.346
679.15	9.355
679.33	11.703
679.52	12.123
679.70	11.389
679.89	9.827
680.07	11.935
680.26	8.965
680.44	11.398
680.63	10.537
680.81	11.860
681.00	9.401
681.18	10.325
681.37	11.520
681.55	12.803
681.74	12.664
681.92	12.736
682.11	12.861
682.29	11.852
682.48	12.301
682.66	12.977
682.85	12.120
683.03	13.124
683.22	12.832
683.40	14.805
683.59	13.043
683.77	13.870
683.96	11.530
684.14	15.215
684.33	10.622
684.51	15.668
684.70	12.242
684.88	14.774
685.07	13.043
685.25	15.147
685.44	11.776
685.62	16.145
685.81	13.281
685.99	15.705
686.18	13.494
686.36	15.460
686.55	12.091
686.73	15.606
686.92	15.402
687.10	16.694
687.29	16.324
687.47	17.387
687.65	17.154
687.84	16.844
688.02	19.119
688.21	19.365
688.39	14.820
688.58	19.300
688.76	17.394
688.95	17.280
689.13	17.631
689.32	19.876
689.50	18.469
689.68	19.204
689.87	18.766
690.05	19.565
690.24	19.828
690.42	20.955
690.61	20.332
690.79	22.147
690.98	19.689
691.16	21.526
691.34	18.734
691.53	22.100
691.71	20.621
691.90	23.626
692.08	20.170
692.27	23.991
692.45	24.078
692.63	23.716
692.82	23.824
693.00	24.982
693.19	22.906
693.37	26.437
693.56	24.515
693.74	27.287
693.92	24.817
694.11	25.848
694.29	26.185
694.48	28.972
694.66	27.996
694.84	27.988
695.03	27.328
695.21	30.862
695.40	27.367
695.58	29.361
695.76	28.202
695.95	31.536
696.13	31.167
696.32	31.295
696.50	34.021
696.68	32.907
696.87	30.316
697.05	33.256
697.24	32.520
697.42	33.967
697.60	31.039
697.79	35.133
697.97	32.656
698.16	34.425
698.34	32.882
698.52	35.499
698.71	34.403
698.89	35.449
699.07	34.490
699.26	35.205
699.44	35.799
699.63	36.359
699.81	36.604
699.99	36.146
700.18	35.883
700.36	36.683
700.54	36.463
700.73	36.654
700.91	37.245
701.09	37.589
701.28	38.373
701.46	38.693
701.64	36.815
701.83	39.873
702.01	37.946
702.20	39.072
702.38	37.847
702.56	39.905
702.75	37.939
702.93	39.324
703.11	38.419
703.30	40.498
703.48	39.894
703.66	41.572
703.85	40.362
704.03	42.188
704.21	38.893
704.40	43.008
704.58	39.693
704.76	40.421
704.95	41.330
705.13	42.425
705.31	39.648
705.50	43.198
705.68	41.256
705.86	43.025
706.04	41.138
706.23	41.801
706.41	41.905
706.59	43.341
706.78	39.127
706.96	42.840
707.14	41.370
707.33	42.953
707.51	41.150
707.69	43.943
707.88	41.985
708.06	45.868
708.24	43.202
708.42	44.628
708.61	43.257
708.79	44.454
708.97	43.595
709.16	44.523
709.34	44.480
709.52	43.989
709.71	43.312
709.89	44.230
710.07	41.465
710.25	45.817
710.44	43.103
710.62	44.972
710.80	43.430
710.98	45.712
711.17	43.622
711.35	43.480
711.53	42.613
711.72	43.642
711.90	44.534
712.08	44.110
712.26	41.415
712.45	45.513
712.63	43.983
712.81	44.947
712.99	45.264
713.18	44.648
713.36	45.090
713.54	45.465
713.72	43.575
713.91	45.478
714.09	43.973
714.27	45.462
714.45	46.141
714.64	46.864
714.82	43.670
715.00	46.291
715.18	45.214
715.37	45.642
715.55	44.428
715.73	45.078
715.91	45.108
716.10	44.809
716.28	41.836
716.46	46.350
716.64	44.327
716.83	46.809
717.01	44.493
717.19	44.599
717.37	44.805
717.55	46.431
717.74	44.620
717.92	45.098
718.10	43.271
718.28	46.652
718.47	43.817
718.65	46.326
718.83	46.982
719.01	44.724
719.19	43.462
719.38	46.355
719.56	46.124
719.74	45.183
719.92	42.501
720.10	45.203
720.29	42.547
720.47	46.683
720.65	44.779
720.83	47.063
721.01	42.249
721.20	45.285
721.38	46.171
721.56	45.866
721.74	43.722
721.92	45.952
722.11	44.481
722.29	47.537
722.47	44.072
722.65	47.014
722.83	47.456
723.01	47.704
723.20	47.696
723.38	48.134
723.56	43.268
723.74	46.279
723.92	46.345
724.10	45.394
724.29	44.392
724.47	47.352
724.65	46.991
724.83	48.326
725.01	44.494
725.19	48.183
725.38	46.159
725.56	45.125
725.74	44.874
725.92	47.509
726.10	45.659
726.28	47.587
726.46	48.041
726.65	49.517
726.83	44.890
727.01	48.064
727.19	47.179
727.37	46.004
727.55	46.563
727.73	46.367
727.92	45.582
728.10	47.280
728.28	45.356
728.46	46.912
728.64	46.468
728.82	46.923
729.00	45.248
729.19	47.457
729.37	45.968
729.55	46.826
729.73	42.389
729.91	47.351
730.09	46.945
730.27	48.155
730.45	45.225
730.63	47.420
730.82	46.432
731.00	49.486
731.18	45.986
731.36	48.162
731.54	44.711
731.72	48.344
731.90	46.364
732.08	47.076
732.26	44.074
732.45	47.673
732.63	46.694
732.81	46.945
732.99	46.084
733.17	47.984
733.35	47.258
733.53	46.816
733.71	47.205
733.89	47.330
734.07	45.489
734.25	46.748
734.44	46.993
734.62	46.294
734.80	46.333
734.98	48.847
735.16	49.490
735.34	49.077
735.52	48.972
735.70	49.402
735.88	46.785
736.06	48.531
736.24	51.299
736.42	49.070
736.60	46.696
736.78	50.249
736.97	47.836
737.15	50.101
737.33	47.927
737.51	49.169
737.69	48.304
737.87	48.780
738.05	52.061
738.23	50.025
738.41	46.338
738.59	49.503
738.77	47.578
738.95	50.951
739.13	49.041
739.31	48.449
739.49	47.553
739.67	51.550
739.85	48.878
740.03	52.227
740.21	49.453
740.39	48.001
740.57	50.275
740.75	50.841
740.93	45.705
741.11	49.015
741.30	49.706
741.48	46.524
741.66	50.120
741.84	48.658
742.02	49.053
742.20	50.561
742.38	49.682
742.56	52.977
742.74	47.214
742.92	46.335
743.10	45.316
743.28	51.359
743.46	50.015
743.64	48.769
743.82	48.652
744.00	49.035
744.18	49.896
744.36	49.089
744.54	47.134
744.72	49.607
744.90	48.066
745.08	46.738
745.26	46.602
745.44	51.537
745.62	47.194
745.80	49.310
745.98	48.248
746.16	51.977
746.34	46.422
746.52	49.542
746.70	45.878
746.87	48.028
747.05	48.669
747.23	49.090
747.41	46.629
747.59	49.952
747.77	46.815
747.95	50.927
748.13	48.356
748.31	49.984
748.49	47.493
748.67	49.762
748.85	47.251
749.03	51.088
749.21	47.416
749.39	50.449
749.57	46.551
749.75	48.444
749.93	49.406
750.11	49.047
750.29	48.314
750.47	49.548
750.65	48.069
750.83	49.705
751.01	49.117
751.18	49.020
751.36	47.365
751.54	50.639
751.72	50.016
751.90	49.860
752.08	47.913
752.26	48.000
752.44	49.738
752.62	46.714
752.80	50.499
752.98	51.893
753.16	46.882
753.34	49.460
753.52	47.861
753.69	49.622
753.87	52.099
754.05	50.108
754.23	47.763
754.41	47.806
754.59	47.390
754.77	48.988
754.95	47.624
755.13	49.625
755.31	46.559
755.49	50.537
755.66	46.238
755.84	48.114
756.02	50.242
756.20	51.130
756.38	46.134
756.56	49.206
756.74	46.747
756.92	50.231
757.10	45.870
757.28	50.117
757.45	48.945
757.63	48.540
757.81	44.275
757.99	50.740
758.17	47.988
758.35	50.743
758.53	49.937
758.71	48.125
758.88	46.433
759.06	46.850
759.24	46.442
759.42	46.652
759.60	44.886
759.78	45.298
759.96	41.006
760.13	43.217
760.31	41.624
760.49	41.846
760.67	35.697
760.85	40.062
761.03	36.428
761.21	39.386
761.38	33.729
761.56	42.286
761.74	37.072
761.92	44.142
762.10	35.665
762.28	40.206
762.46	34.050
762.63	35.871
762.81	34.295
762.99	40.728
763.17	35.864
763.35	39.326
763.53	38.245
763.70	43.554
763.88	41.932
764.06	42.021
764.24	41.299
764.42	40.886
764.60	42.432
764.77	41.146
764.95	43.868
765.13	44.896
765.31	41.973
765.49	45.078
765.66	41.772
765.84	43.227
766.02	40.743
766.20	46.316
766.38	41.730
766.56	43.752
766.73	40.224
766.91	43.656
767.09	42.147
767.27	45.658
767.45	42.816
767.62	44.396
767.80	43.074
767.98	45.705
768.16	44.037
768.33	49.890
768.51	45.387
768.69	46.519
768.87	44.730
769.05	48.014
769.22	44.964
769.40	50.173
769.58	47.718
769.76	49.982
769.94	47.906
770.11	45.752
770.29	50.777
770.47	47.360
770.65	45.951
770.82	48.809
771.00	43.918
771.18	46.883
771.36	44.473
771.53	46.310
771.71	47.631
771.89	52.223
772.07	44.830
772.25	51.551
772.42	46.807
772.60	48.614
772.78	42.906
772.96	51.875
773.13	50.157
773.31	47.745
773.49	42.178
773.67	44.440
773.84	42.549
774.02	50.748
774.20	47.024
774.37	46.758
774.55	44.440
774.73	49.952
774.91	45.240
775.08	45.397
775.26	45.428
775.44	49.485
775.62	44.723
775.79	43.470
775.97	44.494
776.15	45.221
776.32	44.428
776.50	48.170
776.68	48.222
776.86	51.434
777.03	45.393
777.21	51.845
777.39	41.781
777.56	53.247
777.74	46.453
777.92	48.824
778.10	41.255
778.27	48.189
778.45	46.459
778.63	48.469
778.80	45.837
778.98	49.416
779.16	50.844
779.34	49.951
779.51	44.627
779.69	52.336
779.87	44.997
780.04	48.595
780.22	42.648
780.40	50.824
780.57	46.423
780.75	45.469
780.93	53.875
781.10	44.473
781.28	48.349
781.46	47.636
781.63	44.881
781.81	46.711
781.99	44.923
782.16	44.422
782.34	42.667
782.52	45.894
782.69	48.559
782.87	48.876
783.05	43.878
783.22	47.283
783.40	41.946
783.58	46.141
783.75	45.884
783.93	50.211
784.11	43.471
784.28	47.805
784.46	41.235
784.64	48.258
784.81	41.362
784.99	47.581
785.17	41.250
785.34	51.464
785.52	43.705
785.69	46.357
785.87	40.458
786.05	41.466
786.22	42.290
786.40	49.537
786.58	41.830
786.75	47.120
786.93	42.178
787.11	43.878
787.28	43.035
787.46	46.035
787.63	43.264
787.81	44.856
787.99	44.798
788.16	46.427
788.34	43.541
788.51	47.577
788.69	40.021
788.87	45.840
789.04	41.011
789.22	44.380
789.39	46.405
789.57	45.579
789.75	35.642
789.92	43.040
790.10	43.348
790.27	41.621
790.45	39.817
790.63	48.272
790.80	40.722
790.98	44.984
791.15	44.088
791.33	41.804
791.51	38.560
791.68	43.458
791.86	46.310
792.03	46.587
792.21	40.420
792.39	46.500
792.56	39.173
792.74	43.937
792.91	44.162
793.09	43.246
793.26	40.515
793.44	45.157
793.62	44.391
793.79	47.957
793.97	38.967
794.14	41.239
794.32	42.795
794.49	48.437
794.67	38.420
794.84	44.214
795.02	39.734
795.20	41.387
795.37	37.211
795.55	46.507
795.72	41.802
795.90	41.363
796.07	47.031
796.25	44.082
796.42	37.950
796.60	43.573
796.77	41.349
796.95	44.365
797.13	40.503
797.30	40.892
797.48	38.182
797.65	44.997
797.83	38.294
798.00	44.513
798.18	41.105
798.35	44.354
798.53	44.053
798.70	47.665
798.88	43.569
799.05	42.446
799.23	39.341
799.40	43.370
799.58	44.246
799.75	42.354
799.93	35.063
800.10	43.983
800.28	45.360
800.45	42.121
800.63	39.371
800.80	47.097
800.98	42.562
801.15	40.098
801.33	47.084
801.50	41.424
801.68	37.446
801.85	44.899
802.03	38.462
802.20	45.317
802.38	45.104
802.55	35.597
802.73	39.396
802.90	43.758
803.08	34.269
803.25	44.786
803.43	43.429
803.60	43.019
803.78	41.002
803.95	42.911
804.13	40.864
804.30	47.265
804.48	39.422
804.65	45.631
804.83	39.664
805.00	44.147
805.17	42.906
805.35	38.701
805.52	32.475
805.70	43.021
805.87	39.974
806.05	41.123
806.22	40.901
806.40	38.265
806.57	41.386
806.75	43.298
806.92	46.754
807.09	45.628
807.27	37.974
807.44	45.926
807.62	41.908
807.79	40.475
807.97	41.716
808.14	40.900
808.31	37.651
808.49	41.423
808.66	40.523
808.84	39.102
809.01	40.673
809.19	41.801
809.36	45.259
809.53	46.021
809.71	32.343
809.88	48.077
810.06	41.973
810.23	40.787
810.41	43.594
810.58	45.821
810.75	35.984
810.93	46.039
811.10	39.558
811.28	44.231
811.45	42.032
811.62	40.716
811.80	37.414
811.97	39.251
812.15	41.622
812.32	41.299
812.49	37.258
812.67	39.346
812.84	35.994
813.02	45.295
813.19	33.578
813.36	45.788
813.54	38.945
813.71	43.840
813.89	42.634
814.06	38.159
814.23	37.061
814.41	32.750
814.58	41.208
814.75	40.222
814.93	36.247
815.10	35.826
815.28	31.791
815.45	40.017
815.62	35.879
815.80	41.582
815.97	35.424
816.14	38.884
816.32	41.862
816.49	34.265
816.66	39.127
816.84	34.093
817.01	41.459
817.18	39.949
817.36	34.196
817.53	36.776
817.71	32.146
817.88	40.397
818.05	31.655
818.23	32.584
818.40	34.663
818.57	41.498
818.75	35.503
818.92	34.387
819.09	38.081
819.27	35.690
819.44	34.284
819.61	34.805
819.79	32.258
819.96	37.746
820.13	32.603
820.31	38.928
820.48	45.152
820.65	37.522
820.82	35.965
821.00	37.473
821.17	26.626
821.34	38.742
821.52	39.952
821.69	36.071
821.86	35.405
822.04	40.280
822.21	39.511
822.38	42.448
822.56	37.843
822.73	42.909
822.90	41.428
823.07	44.059
823.25	41.032
823.42	42.586
823.59	41.286
823.77	42.676
823.94	40.685
824.11	41.291
824.29	39.954
824.46	42.502
824.63	41.176
824.80	40.498
824.98	39.485
825.15	40.562
825.32	39.089
825.49	41.055
825.67	39.701
825.84	41.452
826.01	38.992
826.19	41.488
826.36	35.117
826.53	41.339
826.70	37.865
826.88	39.886
827.05	37.005
827.22	38.233
827.39	36.282
827.57	40.902
827.74	36.585
827.91	40.928
828.08	37.007
828.26	38.355
828.43	36.190
828.60	40.347
828.77	37.355
828.95	39.234
829.12	35.222
829.29	32.345
829.46	35.138
829.64	36.164
829.81	31.968
829.98	39.148
830.15	31.751
830.32	37.688
830.50	35.039
830.67	33.999
830.84	34.730
831.01	31.892
831.19	30.710
831.36	33.863
831.53	33.908
831.70	43.381
831.87	29.099
832.05	34.941
832.22	39.985
832.39	31.509
832.56	28.843
832.74	35.595
832.91	33.532
833.08	33.139
833.25	30.490
833.42	28.562
833.60	33.120
833.77	30.898
833.94	33.401
834.11	34.288
834.28	26.713
834.45	35.236
834.63	29.618
834.80	34.138
834.97	31.351
835.14	37.905
835.31	34.331
835.49	32.248
835.66	32.136
835.83	36.481
836.00	28.249
836.17	34.454
836.34	29.428
836.52	35.267
836.69	36.694
836.86	33.068
837.03	30.900
837.20	32.153
837.37	30.349
837.55	29.746
837.72	28.051
837.89	32.979
838.06	41.529
838.23	37.065
838.40	35.733
838.58	35.701
838.75	34.964
838.92	36.772
839.09	36.264
839.26	39.235
839.43	43.618
839.60	47.980
839.78	48.778
839.95	43.355
840.12	37.671
840.29	44.287
840.46	48.563
840.63	40.858
840.80	44.794
840.98	37.924
841.15	36.008
841.32	40.139
841.49	32.130
841.66	46.494
841.83	35.849
842.00	36.759
842.17	40.285
842.34	40.258
842.52	44.620
842.69	44.060
842.86	37.794
843.03	54.143
843.20	44.082
843.37	45.625
843.54	49.210
843.71	44.730
843.88	47.285
844.06	55.571
844.23	51.026
844.40	46.226
844.57	57.389
844.74	52.080
844.91	48.792
845.08	48.000
845.25	47.643
845.42	51.606
845.59	45.624
845.76	45.626
845.94	45.543
846.11	51.273
846.28	49.786
846.45	54.397
846.62	72.917
846.79	52.841
846.96	64.660
847.13	66.944
847.30	57.292
847.47	48.352
847.64	47.325
847.81	59.821
847.98	70.975
848.15	45.219
848.32	67.496
848.50	50.433
848.67	54.023
848.84	63.883
849.01	46.078
849.18	63.915
849.35	65.359
849.52	61.039
849.69	65.245
849.86	84.449
850.03	53.958
850.20	60.000
850.37	53.478
850.54	58.495
850.71	46.296
850.88	69.231
851.05	55.850
851.22	66.809
851.39	52.826
851.56	74.631
851.73	85.915
851.90	59.902
852.07	63.789
852.24	75.049
852.41	69.752
852.58	62.882
852.75	55.760
852.92	51.303
853.09	65.714
853.26	58.388
853.43	70.488
853.60	64.516
853.77	48.101
853.94	49.462
854.11	85.455
854.28	68.934
854.45	62.937
854.62	58.351
854.79	69.091
854.96	56.838
855.13	60.682
855.30	66.064
855.47	66.756
855.64	74.749
855.81	68.170
855.98	63.679
856.15	64.859
856.32	55.411
856.49	61.972
856.66	77.855
856.83	49.503
857.00	79.143
857.17	77.831
857.34	68.571
857.51	55.814
857.68	54.947
857.85	60.256
858.02	62.645
858.19	66.102
858.36	56.570
858.53	61.957
858.70	69.495
858.87	65.265
859.04	64.876
859.21	55.665
859.38	78.774
859.55	92.331
859.72	51.382
859.89	68.000
860.05	83.256
860.22	69.041
860.39	54.569
860.56	65.982
860.73	71.520
860.90	74.468
861.07	95.929
861.24	66.523
861.41	77.561
861.58	66.583
861.75	72.368
861.92	89.032
862.09	46.985
862.26	56.140
862.43	74.419
862.59	57.442
862.76	63.435
862.93	67.727
863.10	72.043
863.27	68.317
863.44	49.223
863.61	59.955
863.78	51.670
863.95	74.128
864.12	69.048
864.29	56.845
864.45	79.707
864.62	71.078
864.79	66.133
864.96	70.048
865.13	81.572
865.30	67.511
865.47	70.644
865.64	76.850
865.81	58.436
865.97	65.035
866.14	61.111
866.31	60.947
866.48	73.789
866.65	69.252
866.82	60.965
866.99	54.469
867.16	62.678
867.33	73.935
867.49	58.606
867.66	74.021
867.83	72.595
868.00	50.122
868.17	84.969
868.34	83.880
868.51	76.905
868.67	73.699
868.84	87.368
869.01	74.022
869.18	76.486
869.35	81.862
869.52	55.315
869.69	70.864
869.85	68.345
870.02	67.866
870.19	61.247
870.36	62.963
870.53	71.772
870.70	74.324
870.86	78.342
871.03	59.355
871.20	79.780
871.37	82.382
871.54	55.774
871.71	63.810
871.87	53.422
872.04	71.290
872.21	62.475
872.38	54.622
872.55	73.580
872.72	59.599
872.88	64.458
873.05	48.341
873.22	50.000
873.39	64.884
873.56	65.455
873.72	63.194
873.89	67.448
874.06	57.143
874.23	66.940
874.40	70.789
874.56	80.757
874.73	50.000
874.90	85.533
875.07	72.334
875.24	68.593
875.40	62.338
875.57	65.835
875.74	62.358
875.91	70.824
876.08	53.915
876.24	63.136
876.41	66.766
876.58	49.415
876.75	54.133
876.92	73.223
877.08	57.441
877.25	55.890
877.42	70.556
877.59	69.139
877.75	71.948
877.92	63.409
878.09	50.386
878.26	66.197
878.42	59.296
878.59	49.057
878.76	64.642
878.93	75.429
879.09	58.704
879.26	59.846
879.43	59.875
879.60	47.264
879.76	72.185
879.93	43.728
880.10	57.905
880.27	53.635
880.43	51.413
880.60	49.265
880.77	39.149
880.94	51.100
881.10	38.259
881.27	31.243
881.44	27.297
881.61	30.192
881.77	35.206
881.94	23.465
882.11	22.671
882.28	25.375
882.44	25.700
882.61	31.357
882.78	29.721
882.94	35.219
883.11	29.596
883.28	31.150
883.45	33.383
883.61	32.995
883.78	31.451
883.95	32.784
884.11	30.476
884.28	29.706
>>>>>End Processed Spectral Data<<<<<
