SpectraSuite Data File
++++++++++++++++++++++++++++++++++++
Date: Wed Sep 25 03:13:23 EST 2019
User: sgrac
Dark Spectrum Present: Yes
Reference Spectrum Present: Yes
Number of Sampled Component Spectra: 1
Spectrometers: USB4E01596
Integration Time (usec): 100000 (USB4E01596)
Spectra Averaged: 3 (USB4E01596)
Boxcar Smoothing: 0 (USB4E01596)
Correct for Electrical Dark: No (USB4E01596)
Strobe/Lamp Enabled: Yes (USB4E01596)
Correct for Detector Non-linearity: No (USB4E01596)
Correct for Stray Light: No (USB4E01596)
Number of Pixels in Processed Spectrum: 3648
>>>>>Begin Processed Spectral Data<<<<<
178.44	-392.308
178.66	-392.308
178.87	-392.308
179.09	-575.000
179.30	767.742
179.52	1126.087
179.74	-565.789
179.95	-464.815
180.17	481.633
180.38	-950.000
180.60	-1640.000
180.82	-3177.778
181.03	651.163
181.25	-2283.333
181.46	-379.167
181.68	356.410
181.89	-700.000
182.11	6733.333
182.33	525.000
182.54	-15100.000
182.76	470.588
182.97	713.158
183.19	920.833
183.40	493.478
183.62	1170.000
183.84	289.286
184.05	1019.231
184.27	-2190.909
184.48	18800.000
184.70	988.889
184.91	486.792
185.13	2450.000
185.34	533.898
185.56	347.126
185.78	1361.111
185.99	566.000
186.21	415.663
186.42	1053.571
186.64	-2188.889
186.85	700.000
187.07	-1016.000
187.28	261.458
187.50	-595.349
187.72	1371.429
187.93	937.838
188.15	2200.000
188.36	570.833
188.58	466.667
188.79	535.938
189.01	340.984
189.22	374.194
189.44	355.660
189.65	-641.463
189.87	953.571
190.09	311.538
190.30	332.407
190.52	-353.448
190.73	234.940
190.95	-1957.143
191.16	600.000
191.38	601.923
191.59	380.247
191.81	1327.778
192.02	-2266.667
192.24	-2481.818
192.45	372.581
192.67	-5780.000
192.88	273.256
193.10	463.235
193.31	242.623
193.53	-237.097
193.74	2290.909
193.96	-5016.667
194.18	1900.000
194.39	416.949
194.61	847.222
194.82	289.773
195.04	276.316
195.25	486.667
195.47	-24900.000
195.68	406.154
195.90	385.556
196.11	1352.381
196.33	-369.048
196.54	1028.571
196.76	379.032
196.97	177.160
197.19	231.579
197.40	-392.000
197.62	564.583
197.83	1629.412
198.05	352.500
198.26	579.167
198.48	1852.941
198.69	-687.179
198.91	482.812
199.12	-13500.000
199.34	612.195
199.55	1230.000
199.77	533.333
199.98	1452.381
200.20	434.524
200.41	269.318
200.63	267.073
200.84	542.222
201.06	193.038
201.27	-461.404
201.49	-2971.429
201.70	285.714
201.91	-4614.286
202.13	-1275.000
202.34	-678.788
202.56	1215.789
202.77	602.632
202.99	659.574
203.20	330.108
203.42	477.193
203.63	418.310
203.85	-1813.333
204.06	1118.182
204.28	-4860.000
204.49	870.000
204.71	298.925
204.92	388.235
205.14	1762.500
205.35	828.125
205.56	1221.429
205.78	610.909
205.99	392.683
206.21	651.282
206.42	381.356
206.64	435.937
206.85	493.023
207.07	-636.842
207.28	343.478
207.50	705.405
207.71	684.375
207.93	253.535
208.14	608.000
208.35	561.364
208.57	2040.000
208.78	1112.000
209.00	710.638
209.21	513.333
209.43	284.466
209.64	-2118.182
209.86	705.128
210.07	-1300.000
210.28	325.000
210.50	1421.053
210.71	252.143
210.93	403.846
211.14	373.636
211.36	-3310.000
211.57	429.167
211.78	558.000
212.00	646.809
212.21	621.622
212.43	24800.000
212.64	729.412
212.86	635.417
213.07	845.455
213.29	-1973.333
213.50	861.290
213.71	1068.000
213.93	1377.778
214.14	262.609
214.36	195.570
214.57	514.754
214.78	535.294
215.00	448.529
215.21	1984.615
215.43	242.424
215.64	553.488
215.86	490.909
216.07	524.444
216.28	1186.957
216.50	319.444
216.71	517.241
216.93	692.105
217.14	279.279
217.35	953.846
217.57	262.097
217.78	1205.263
218.00	395.349
218.21	1160.000
218.42	7600.000
218.64	224.370
218.85	715.556
219.07	568.852
219.28	246.491
219.49	663.636
219.71	297.297
219.92	1085.000
220.14	1506.250
220.35	472.727
220.56	192.903
220.78	3360.000
220.99	290.244
221.21	225.424
221.42	521.951
221.63	376.667
221.85	558.696
222.06	209.402
222.28	781.579
222.49	587.500
222.70	291.743
222.92	352.809
223.13	380.682
223.34	185.039
223.56	315.942
223.77	444.444
223.99	746.154
224.20	232.168
224.41	216.393
224.63	197.541
224.84	384.507
225.05	338.462
225.27	300.000
225.48	211.321
225.69	171.429
225.91	625.000
226.12	215.672
226.34	166.897
226.55	198.261
226.76	158.286
226.98	124.153
227.19	133.333
227.40	115.315
227.62	111.741
227.83	103.203
228.04	86.348
228.26	60.150
228.47	71.355
228.69	67.920
228.90	49.667
229.11	58.058
229.33	40.124
229.54	38.174
229.75	31.397
229.97	38.331
230.18	39.744
230.39	25.441
230.61	34.475
230.82	31.659
231.03	28.211
231.25	31.230
231.46	31.713
231.67	41.876
231.89	25.743
232.10	40.903
232.31	48.440
232.53	42.742
232.74	43.689
232.95	55.268
233.17	55.534
233.38	37.970
233.59	58.575
233.81	54.043
234.02	48.054
234.23	52.953
234.45	69.231
234.66	45.472
234.87	59.208
235.09	51.858
235.30	48.028
235.51	48.734
235.73	41.680
235.94	41.123
236.15	38.134
236.36	25.882
236.58	38.992
236.79	41.719
237.00	53.750
237.22	51.964
237.43	40.556
237.64	30.031
237.86	42.202
238.07	42.105
238.28	37.318
238.50	28.217
238.71	43.421
238.92	48.593
239.13	47.981
239.35	38.486
239.56	35.378
239.77	42.199
239.99	40.088
240.20	38.773
240.41	29.130
240.63	27.333
240.84	39.520
241.05	28.915
241.26	25.273
241.48	21.649
241.69	16.317
241.90	20.595
242.12	19.850
242.33	18.379
242.54	19.064
242.75	14.809
242.97	20.183
243.18	12.518
243.39	13.983
243.61	14.441
243.82	17.292
244.03	10.750
244.24	11.807
244.46	13.438
244.67	15.007
244.88	16.870
245.09	14.440
245.31	18.304
245.52	18.521
245.73	19.551
245.95	31.593
246.16	15.981
246.37	15.433
246.58	14.286
246.80	15.571
247.01	12.898
247.22	10.322
247.43	9.736
247.65	11.496
247.86	12.166
248.07	8.109
248.28	11.085
248.50	9.432
248.71	8.637
248.92	8.166
249.13	10.625
249.35	9.114
249.56	9.957
249.77	9.044
249.98	9.519
250.20	14.841
250.41	9.628
250.62	12.988
250.83	18.036
251.05	16.901
251.26	14.678
251.47	10.633
251.68	20.980
251.90	11.721
252.11	19.805
252.32	16.478
252.53	16.086
252.75	14.182
252.96	13.244
253.17	15.511
253.38	13.650
253.59	12.719
253.81	14.528
254.02	11.996
254.23	16.756
254.44	15.360
254.66	18.351
254.87	18.454
255.08	15.950
255.29	15.840
255.50	19.810
255.72	15.714
255.93	20.463
256.14	20.955
256.35	17.103
256.57	25.232
256.78	16.044
256.99	20.615
257.20	23.855
257.41	21.684
257.63	20.641
257.84	15.912
258.05	14.246
258.26	15.866
258.47	15.019
258.69	15.125
258.90	15.402
259.11	14.309
259.32	12.300
259.53	11.488
259.75	9.615
259.96	7.823
260.17	6.905
260.38	8.029
260.59	5.879
260.81	5.899
261.02	7.540
261.23	5.687
261.44	9.164
261.65	7.948
261.87	4.861
262.08	7.287
262.29	10.405
262.50	6.995
262.71	8.358
262.92	10.214
263.14	8.838
263.35	8.769
263.56	12.559
263.77	13.631
263.98	10.995
264.20	10.186
264.41	10.955
264.62	12.402
264.83	13.172
265.04	14.815
265.25	10.736
265.47	16.282
265.68	12.658
265.89	13.386
266.10	13.381
266.31	13.655
266.52	11.636
266.74	14.637
266.95	11.348
267.16	11.716
267.37	11.496
267.58	9.395
267.79	10.473
268.01	11.405
268.22	7.186
268.43	10.731
268.64	10.903
268.85	9.785
269.06	8.696
269.27	11.443
269.49	12.051
269.70	10.574
269.91	9.097
270.12	9.378
270.33	9.977
270.54	9.134
270.75	11.189
270.97	9.310
271.18	9.138
271.39	10.581
271.60	11.245
271.81	7.987
272.02	7.955
272.23	9.241
272.45	9.422
272.66	8.394
272.87	6.794
273.08	7.813
273.29	9.554
273.50	5.516
273.71	8.319
273.92	7.645
274.14	9.484
274.35	6.809
274.56	8.814
274.77	6.756
274.98	9.122
275.19	8.616
275.40	8.960
275.61	9.242
275.83	12.777
276.04	9.131
276.25	9.698
276.46	10.515
276.67	13.730
276.88	11.697
277.09	10.018
277.30	11.724
277.51	10.576
277.73	10.071
277.94	9.487
278.15	9.213
278.36	12.284
278.57	9.564
278.78	8.482
278.99	10.169
279.20	9.733
279.41	12.496
279.62	10.648
279.84	10.090
280.05	8.740
280.26	7.167
280.47	9.560
280.68	9.954
280.89	9.602
281.10	9.571
281.31	8.186
281.52	8.248
281.73	7.709
281.94	7.775
282.16	8.248
282.37	8.738
282.58	7.473
282.79	10.501
283.00	10.389
283.21	6.844
283.42	6.802
283.63	7.947
283.84	7.423
284.05	6.626
284.26	7.563
284.47	8.019
284.68	9.078
284.89	7.476
285.11	7.217
285.32	7.636
285.53	5.094
285.74	6.492
285.95	7.724
286.16	6.559
286.37	7.561
286.58	7.119
286.79	6.159
287.00	6.657
287.21	6.964
287.42	7.957
287.63	5.377
287.84	6.503
288.05	7.807
288.26	7.076
288.48	6.547
288.69	6.964
288.90	7.422
289.11	10.002
289.32	6.999
289.53	6.164
289.74	6.304
289.95	4.946
290.16	6.784
290.37	6.810
290.58	6.922
290.79	6.103
291.00	7.228
291.21	6.323
291.42	6.282
291.63	5.172
291.84	5.251
292.05	6.128
292.26	7.615
292.47	6.920
292.68	6.008
292.89	9.625
293.10	6.448
293.31	6.101
293.52	7.036
293.73	6.398
293.94	9.186
294.15	5.889
294.36	7.110
294.57	8.526
294.79	7.241
295.00	6.742
295.21	8.710
295.42	7.182
295.63	7.766
295.84	6.676
296.05	5.419
296.26	7.466
296.47	5.652
296.68	6.158
296.89	8.449
297.10	4.764
297.31	5.824
297.52	6.364
297.73	5.016
297.94	3.613
298.15	5.812
298.36	5.040
298.57	4.283
298.78	5.974
298.99	5.053
299.20	5.182
299.41	6.793
299.62	5.803
299.83	4.865
300.04	6.119
300.25	6.494
300.46	6.592
300.67	6.377
300.88	6.494
301.09	6.163
301.30	6.766
301.50	5.714
301.71	6.859
301.92	8.094
302.13	5.724
302.34	5.702
302.55	7.039
302.76	7.110
302.97	5.471
303.18	9.843
303.39	6.129
303.60	7.534
303.81	8.553
304.02	5.304
304.23	5.743
304.44	6.025
304.65	8.558
304.86	6.571
305.07	8.000
305.28	6.813
305.49	9.293
305.70	6.379
305.91	5.668
306.12	7.914
306.33	6.469
306.54	8.096
306.75	7.663
306.96	9.580
307.17	6.891
307.38	7.909
307.58	6.741
307.79	6.061
308.00	6.556
308.21	5.880
308.42	5.427
308.63	7.679
308.84	6.615
309.05	5.642
309.26	4.911
309.47	5.445
309.68	6.559
309.89	6.220
310.10	4.275
310.31	5.879
310.52	4.954
310.73	6.717
310.94	4.914
311.14	5.917
311.35	6.140
311.56	5.425
311.77	5.371
311.98	5.304
312.19	4.220
312.40	6.308
312.61	5.493
312.82	5.686
313.03	4.324
313.24	5.448
313.45	6.102
313.66	6.019
313.86	7.035
314.07	5.435
314.28	6.897
314.49	6.964
314.70	5.640
314.91	7.755
315.12	6.474
315.33	6.919
315.54	6.312
315.75	6.011
315.96	6.627
316.16	6.425
316.37	7.552
316.58	7.052
316.79	7.538
317.00	6.624
317.21	6.684
317.42	6.277
317.63	7.090
317.84	7.066
318.05	7.333
318.25	8.217
318.46	7.095
318.67	6.505
318.88	6.588
319.09	8.072
319.30	6.106
319.51	6.088
319.72	8.130
319.93	5.191
320.13	7.253
320.34	8.671
320.55	7.158
320.76	8.029
320.97	8.092
321.18	9.053
321.39	6.280
321.60	7.537
321.80	8.548
322.01	8.443
322.22	7.955
322.43	6.080
322.64	8.562
322.85	7.619
323.06	7.537
323.27	7.386
323.47	7.515
323.68	8.898
323.89	6.153
324.10	6.986
324.31	4.358
324.52	7.673
324.73	6.332
324.93	6.413
325.14	7.087
325.35	5.994
325.56	7.193
325.77	6.659
325.98	5.472
326.19	7.708
326.39	3.848
326.60	7.361
326.81	4.838
327.02	6.286
327.23	5.473
327.44	8.208
327.64	5.062
327.85	5.703
328.06	6.324
328.27	7.914
328.48	6.610
328.69	5.028
328.90	5.508
329.10	7.557
329.31	6.838
329.52	6.656
329.73	6.384
329.94	6.459
330.15	8.288
330.35	7.691
330.56	7.626
330.77	7.516
330.98	7.467
331.19	6.594
331.39	7.748
331.60	6.756
331.81	6.128
332.02	7.756
332.23	6.306
332.44	5.716
332.64	8.025
332.85	6.155
333.06	7.128
333.27	4.713
333.48	7.331
333.68	5.699
333.89	5.509
334.10	7.698
334.31	7.322
334.52	6.626
334.72	8.187
334.93	5.603
335.14	5.566
335.35	7.530
335.56	7.290
335.76	6.192
335.97	9.749
336.18	5.358
336.39	8.300
336.60	6.543
336.80	5.918
337.01	6.591
337.22	6.859
337.43	7.056
337.64	9.132
337.84	7.690
338.05	8.825
338.26	8.121
338.47	8.577
338.68	5.541
338.88	8.008
339.09	6.812
339.30	7.339
339.51	8.738
339.71	9.578
339.92	7.496
340.13	7.714
340.34	8.297
340.55	8.586
340.75	8.829
340.96	6.469
341.17	9.207
341.38	8.076
341.58	9.907
341.79	9.321
342.00	7.861
342.21	9.648
342.41	7.128
342.62	8.876
342.83	10.059
343.04	8.027
343.24	9.332
343.45	11.781
343.66	9.990
343.87	10.010
344.07	8.410
344.28	11.913
344.49	11.796
344.70	13.308
344.90	9.285
345.11	8.585
345.32	10.268
345.53	12.590
345.73	10.781
345.94	13.863
346.15	13.568
346.36	13.203
346.56	13.418
346.77	14.585
346.98	14.008
347.19	13.837
347.39	12.719
347.60	14.152
347.81	15.253
348.02	15.876
348.22	11.840
348.43	15.511
348.64	12.637
348.84	16.118
349.05	14.662
349.26	17.772
349.47	14.872
349.67	14.996
349.88	15.641
350.09	15.920
350.30	18.303
350.50	17.475
350.71	18.369
350.92	20.477
351.12	15.935
351.33	17.825
351.54	17.754
351.74	19.699
351.95	16.346
352.16	18.179
352.37	19.930
352.57	16.832
352.78	17.362
352.99	19.813
353.19	17.553
353.40	20.562
353.61	19.552
353.82	21.306
354.02	21.027
354.23	20.744
354.44	21.946
354.64	19.325
354.85	21.722
355.06	21.152
355.26	19.190
355.47	20.898
355.68	22.727
355.88	22.454
356.09	21.567
356.30	19.229
356.51	22.294
356.71	21.312
356.92	19.293
357.13	23.673
357.33	23.162
357.54	21.956
357.75	19.666
357.95	23.098
358.16	21.545
358.37	24.849
358.57	19.971
358.78	24.695
358.99	22.370
359.19	22.956
359.40	23.251
359.61	22.889
359.81	23.463
360.02	24.252
360.23	20.676
360.43	22.037
360.64	20.910
360.85	22.509
361.05	19.769
361.26	24.149
361.47	21.686
361.67	23.841
361.88	20.305
362.09	23.231
362.29	20.707
362.50	21.367
362.70	21.112
362.91	23.432
363.12	21.186
363.32	21.915
363.53	22.422
363.74	23.460
363.94	20.064
364.15	25.457
364.36	21.912
364.56	22.760
364.77	21.550
364.98	24.757
365.18	21.881
365.39	24.138
365.59	21.402
365.80	22.360
366.01	23.058
366.21	22.975
366.42	20.035
366.63	22.445
366.83	21.294
367.04	19.787
367.24	22.507
367.45	20.316
367.66	19.803
367.86	20.899
368.07	20.087
368.28	21.889
368.48	22.453
368.69	20.368
368.89	21.811
369.10	22.054
369.31	21.365
369.51	21.605
369.72	23.300
369.92	23.382
370.13	17.584
370.34	22.548
370.54	17.029
370.75	23.341
370.95	17.976
371.16	21.278
371.37	19.191
371.57	20.390
371.78	20.260
371.98	20.571
372.19	20.464
372.40	22.023
372.60	21.649
372.81	20.742
373.01	18.159
373.22	20.039
373.43	20.812
373.63	21.907
373.84	19.472
374.04	20.353
374.25	19.440
374.46	21.732
374.66	20.388
374.87	21.831
375.07	17.525
375.28	19.042
375.48	19.841
375.69	22.360
375.90	17.695
376.10	18.472
376.31	18.721
376.51	18.108
376.72	18.973
376.92	19.005
377.13	19.441
377.34	19.957
377.54	17.757
377.75	20.500
377.95	18.924
378.16	20.274
378.36	18.683
378.57	20.193
378.77	19.145
378.98	19.143
379.19	19.698
379.39	19.279
379.60	19.115
379.80	21.160
380.01	19.612
380.21	20.025
380.42	19.593
380.62	19.702
380.83	18.935
381.04	18.410
381.24	18.920
381.45	18.369
381.65	18.686
381.86	19.377
382.06	18.075
382.27	17.263
382.47	18.602
382.68	19.859
382.88	17.174
383.09	19.095
383.29	17.647
383.50	19.803
383.71	18.449
383.91	18.524
384.12	17.671
384.32	18.900
384.53	17.938
384.73	16.134
384.94	16.924
385.14	17.151
385.35	17.335
385.55	18.383
385.76	17.407
385.96	17.352
386.17	17.741
386.37	19.033
386.58	17.619
386.78	19.300
386.99	16.413
387.19	19.290
387.40	16.787
387.60	19.636
387.81	17.590
388.01	17.926
388.22	17.283
388.42	19.500
388.63	17.830
388.83	18.708
389.04	16.988
389.24	18.517
389.45	17.224
389.65	17.777
389.86	16.890
390.06	16.830
390.27	16.587
390.47	16.668
390.68	17.263
390.88	18.399
391.09	18.301
391.29	18.588
391.50	16.948
391.70	18.240
391.91	17.421
392.11	17.632
392.32	17.443
392.52	18.198
392.73	17.407
392.93	18.661
393.14	17.552
393.34	17.821
393.55	17.792
393.75	17.759
393.95	16.965
394.16	17.529
394.36	18.687
394.57	18.152
394.77	17.195
394.98	18.774
395.18	18.121
395.39	17.496
395.59	17.457
395.80	17.562
396.00	16.633
396.21	18.483
396.41	16.631
396.61	18.118
396.82	16.845
397.02	18.664
397.23	17.095
397.43	17.980
397.64	15.497
397.84	18.474
398.05	15.285
398.25	17.746
398.45	15.985
398.66	17.941
398.86	17.188
399.07	18.701
399.27	16.520
399.48	17.670
399.68	15.900
399.89	17.315
400.09	17.243
400.29	16.600
400.50	16.566
400.70	17.412
400.91	16.002
401.11	17.111
401.32	16.293
401.52	15.564
401.72	15.806
401.93	18.658
402.13	15.711
402.34	16.146
402.54	15.349
402.75	18.111
402.95	14.684
403.15	16.994
403.36	15.291
403.56	17.250
403.77	14.936
403.97	16.221
404.17	14.094
404.38	16.470
404.58	15.193
404.79	16.520
404.99	15.773
405.19	15.831
405.40	15.238
405.60	15.661
405.81	15.269
406.01	15.731
406.21	15.158
406.42	16.169
406.62	15.836
406.83	16.743
407.03	16.671
407.23	15.960
407.44	15.142
407.64	16.268
407.85	16.103
408.05	16.151
408.25	14.978
408.46	16.149
408.66	15.828
408.87	15.678
409.07	15.182
409.27	14.811
409.48	14.326
409.68	16.111
409.88	13.667
410.09	16.222
410.29	15.173
410.50	16.822
410.70	13.745
410.90	15.013
411.11	14.153
411.31	14.821
411.51	14.886
411.72	15.763
411.92	14.453
412.12	15.037
412.33	14.526
412.53	15.467
412.74	13.780
412.94	15.365
413.14	14.257
413.35	15.087
413.55	14.103
413.75	15.350
413.96	14.374
414.16	15.343
414.36	14.329
414.57	14.977
414.77	14.032
414.97	15.387
415.18	14.341
415.38	14.385
415.58	14.758
415.79	14.282
415.99	14.343
416.19	14.762
416.40	13.986
416.60	14.841
416.80	13.998
417.01	14.687
417.21	12.932
417.41	14.915
417.62	14.873
417.82	15.354
418.02	14.200
418.23	14.420
418.43	14.225
418.63	15.158
418.84	14.887
419.04	14.491
419.24	14.658
419.45	15.194
419.65	14.846
419.85	15.071
420.06	14.617
420.26	14.877
420.46	14.759
420.67	15.208
420.87	14.697
421.07	14.774
421.28	14.817
421.48	15.022
421.68	14.615
421.88	15.239
422.09	14.865
422.29	14.833
422.49	14.758
422.70	14.860
422.90	14.681
423.10	15.229
423.31	15.388
423.51	15.364
423.71	14.892
423.91	15.171
424.12	15.074
424.32	15.344
424.52	14.740
424.73	14.751
424.93	14.861
425.13	14.608
425.33	14.527
425.54	14.762
425.74	15.067
425.94	15.245
426.15	14.957
426.35	15.040
426.55	15.050
426.75	15.428
426.96	14.648
427.16	14.698
427.36	15.502
427.57	15.667
427.77	14.920
427.97	14.992
428.17	14.753
428.38	15.222
428.58	13.513
428.78	14.649
428.98	14.255
429.19	14.608
429.39	13.448
429.59	14.854
429.79	13.300
430.00	13.772
430.20	13.229
430.40	13.859
430.60	13.217
430.81	14.341
431.01	13.758
431.21	14.988
431.41	14.140
431.62	13.799
431.82	13.860
432.02	14.463
432.22	13.086
432.43	13.959
432.63	13.251
432.83	14.040
433.03	13.967
433.24	13.354
433.44	13.579
433.64	14.065
433.84	13.915
434.05	14.290
434.25	13.975
434.45	14.560
434.65	14.319
434.85	14.278
435.06	14.124
435.26	14.187
435.46	14.066
435.66	14.428
435.87	13.877
436.07	14.174
436.27	13.869
436.47	14.202
436.67	13.620
436.88	14.681
437.08	14.004
437.28	13.987
437.48	13.848
437.69	14.960
437.89	13.055
438.09	13.973
438.29	13.452
438.49	14.197
438.70	14.145
438.90	13.845
439.10	13.736
439.30	14.054
439.50	13.329
439.71	14.071
439.91	13.748
440.11	14.195
440.31	13.441
440.51	14.165
440.72	13.365
440.92	13.974
441.12	14.261
441.32	14.081
441.52	13.957
441.72	14.361
441.93	13.927
442.13	14.568
442.33	14.144
442.53	14.640
442.73	13.937
442.94	14.485
443.14	14.601
443.34	14.718
443.54	14.056
443.74	14.398
443.94	13.653
444.15	14.214
444.35	13.680
444.55	13.826
444.75	13.841
444.95	13.947
445.15	14.043
445.36	13.882
445.56	13.395
445.76	14.086
445.96	13.381
446.16	13.816
446.36	13.435
446.57	13.652
446.77	13.440
446.97	13.693
447.17	14.144
447.37	13.781
447.57	14.013
447.77	14.065
447.98	13.823
448.18	14.015
448.38	14.041
448.58	14.172
448.78	14.421
448.98	14.633
449.18	14.265
449.39	14.260
449.59	13.765
449.79	14.580
449.99	13.944
450.19	14.344
450.39	13.953
450.59	14.372
450.79	13.821
451.00	14.392
451.20	14.446
451.40	14.426
451.60	13.642
451.80	13.962
452.00	13.724
452.20	14.055
452.40	13.575
452.61	13.640
452.81	13.788
453.01	13.836
453.21	13.355
453.41	14.198
453.61	13.493
453.81	14.127
454.01	13.635
454.21	13.854
454.42	13.654
454.62	14.116
454.82	13.737
455.02	14.114
455.22	13.292
455.42	13.556
455.62	13.442
455.82	13.661
456.02	12.991
456.23	13.844
456.43	13.730
456.63	13.661
456.83	12.825
457.03	13.708
457.23	13.094
457.43	13.758
457.63	12.993
457.83	13.706
458.03	12.797
458.23	13.675
458.43	13.083
458.64	13.268
458.84	12.420
459.04	13.610
459.24	12.965
459.44	13.195
459.64	13.281
459.84	13.295
460.04	13.014
460.24	13.535
460.44	13.580
460.64	13.411
460.84	13.552
461.04	13.564
461.24	13.716
461.45	13.991
461.65	13.998
461.85	13.922
462.05	13.690
462.25	14.261
462.45	14.194
462.65	14.234
462.85	13.704
463.05	14.277
463.25	13.424
463.45	13.944
463.65	13.352
463.85	13.197
464.05	13.305
464.25	13.393
464.45	13.312
464.65	13.534
464.85	12.847
465.05	13.299
465.26	12.981
465.46	13.517
465.66	13.494
465.86	13.702
466.06	13.011
466.26	13.466
466.46	12.742
466.66	13.415
466.86	13.003
467.06	13.281
467.26	12.751
467.46	13.686
467.66	12.672
467.86	13.468
468.06	13.233
468.26	13.427
468.46	13.229
468.66	13.370
468.86	12.795
469.06	13.364
469.26	13.089
469.46	13.737
469.66	13.421
469.86	13.702
470.06	13.342
470.26	13.594
470.46	12.758
470.66	13.732
470.86	12.936
471.06	13.516
471.26	12.731
471.46	13.463
471.66	13.272
471.86	13.737
472.06	13.361
472.26	14.165
472.46	13.629
472.66	13.503
472.86	12.947
473.06	13.977
473.26	13.333
473.46	13.651
473.66	13.324
473.86	13.682
474.06	12.744
474.26	13.694
474.46	12.872
474.66	13.592
474.86	13.488
475.06	14.118
475.26	13.005
475.46	13.622
475.66	12.609
475.86	13.579
476.06	13.788
476.26	13.329
476.46	12.647
476.66	13.650
476.86	13.395
477.06	13.538
477.26	12.781
477.46	13.786
477.65	13.182
477.85	13.736
478.05	13.007
478.25	13.914
478.45	13.213
478.65	13.878
478.85	13.754
479.05	13.782
479.25	13.444
479.45	13.905
479.65	13.110
479.85	13.563
480.05	13.327
480.25	13.707
480.45	13.501
480.65	13.902
480.85	13.173
481.05	13.755
481.25	13.555
481.44	13.496
481.64	13.170
481.84	13.545
482.04	13.952
482.24	13.588
482.44	13.247
482.64	13.318
482.84	13.425
483.04	13.286
483.24	13.193
483.44	12.843
483.64	12.577
483.84	12.734
484.04	13.041
484.23	13.191
484.43	13.477
484.63	13.633
484.83	14.076
485.03	14.799
485.23	14.618
485.43	14.611
485.63	14.396
485.83	14.640
486.03	14.757
486.23	14.715
486.42	14.518
486.62	14.573
486.82	14.199
487.02	13.897
487.22	13.661
487.42	13.430
487.62	13.588
487.82	13.479
488.02	13.510
488.22	13.720
488.41	13.607
488.61	13.690
488.81	13.758
489.01	13.915
489.21	13.989
489.41	14.243
489.61	14.207
489.81	14.476
490.01	14.226
490.20	14.417
490.40	14.477
490.60	14.209
490.80	14.154
491.00	13.759
491.20	13.476
491.40	13.257
491.60	13.339
491.79	13.598
491.99	13.538
492.19	13.753
492.39	13.898
492.59	13.634
492.79	13.684
492.99	13.832
493.19	14.198
493.38	14.309
493.58	14.311
493.78	14.688
493.98	14.615
494.18	14.468
494.38	14.599
494.58	14.230
494.77	14.082
494.97	14.308
495.17	14.180
495.37	14.031
495.57	13.964
495.77	13.749
495.96	13.586
496.16	13.807
496.36	13.945
496.56	13.773
496.76	13.452
496.96	13.704
497.15	13.674
497.35	13.881
497.55	13.372
497.75	13.899
497.95	13.667
498.15	13.939
498.34	13.947
498.54	13.945
498.74	14.167
498.94	14.017
499.14	13.924
499.34	14.068
499.53	14.229
499.73	14.479
499.93	14.019
500.13	13.871
500.33	13.449
500.52	14.108
500.72	13.904
500.92	13.994
501.12	13.785
501.32	14.355
501.52	14.308
501.71	14.320
501.91	13.667
502.11	14.193
502.31	14.075
502.51	14.389
502.70	13.610
502.90	14.054
503.10	13.960
503.30	14.152
503.50	14.074
503.69	13.848
503.89	14.222
504.09	13.838
504.29	13.801
504.48	14.007
504.68	13.940
504.88	14.218
505.08	14.165
505.28	14.032
505.47	13.892
505.67	14.364
505.87	14.041
506.07	14.159
506.27	14.297
506.46	14.742
506.66	13.691
506.86	14.465
507.06	14.362
507.25	14.030
507.45	13.996
507.65	14.370
507.85	13.868
508.04	14.601
508.24	13.957
508.44	14.199
508.64	14.044
508.83	14.347
509.03	14.356
509.23	14.214
509.43	14.497
509.63	14.389
509.82	14.260
510.02	14.462
510.22	14.560
510.42	14.745
510.61	14.352
510.81	14.317
511.01	13.941
511.21	14.675
511.40	14.543
511.60	14.329
511.80	14.378
511.99	14.428
512.19	14.387
512.39	14.675
512.59	14.351
512.78	14.803
512.98	14.545
513.18	14.646
513.38	14.393
513.57	15.014
513.77	14.339
513.97	14.660
514.17	14.627
514.36	14.820
514.56	14.372
514.76	14.676
514.95	14.226
515.15	15.135
515.35	14.536
515.55	14.923
515.74	14.537
515.94	14.655
516.14	14.673
516.33	14.744
516.53	14.891
516.73	14.679
516.93	14.635
517.12	14.573
517.32	14.516
517.52	14.505
517.71	14.490
517.91	14.443
518.11	14.356
518.30	14.395
518.50	14.413
518.70	14.381
518.90	14.729
519.09	14.536
519.29	14.880
519.49	14.722
519.68	14.747
519.88	14.980
520.08	14.845
520.27	14.992
520.47	15.074
520.67	15.073
520.86	15.245
521.06	15.156
521.26	15.107
521.45	15.157
521.65	14.987
521.85	15.039
522.04	14.606
522.24	14.924
522.44	15.050
522.63	15.060
522.83	14.764
523.03	15.211
523.22	14.559
523.42	15.190
523.62	14.644
523.81	15.188
524.01	14.720
524.21	14.869
524.40	14.501
524.60	14.569
524.80	14.294
524.99	14.372
525.19	14.997
525.39	14.289
525.58	14.638
525.78	14.848
525.98	14.809
526.17	14.683
526.37	14.266
526.57	14.849
526.76	14.744
526.96	14.877
527.15	14.958
527.35	14.761
527.55	14.879
527.74	15.102
527.94	14.784
528.14	14.417
528.33	14.474
528.53	14.196
528.72	14.545
528.92	14.590
529.12	14.511
529.31	14.818
529.51	15.006
529.71	15.005
529.90	15.236
530.10	15.185
530.29	15.572
530.49	15.829
530.69	16.050
530.88	15.725
531.08	15.796
531.28	15.602
531.47	15.374
531.67	15.388
531.86	15.113
532.06	15.489
532.26	15.122
532.45	15.131
532.65	15.136
532.84	14.913
533.04	14.663
533.24	14.591
533.43	14.540
533.63	15.037
533.82	14.983
534.02	15.229
534.22	15.253
534.41	15.197
534.61	15.455
534.80	15.443
535.00	15.537
535.19	15.426
535.39	15.590
535.59	15.745
535.78	15.782
535.98	15.391
536.17	15.397
536.37	15.093
536.57	14.952
536.76	15.606
536.96	14.845
537.15	15.265
537.35	15.124
537.54	15.404
537.74	15.668
537.93	15.533
538.13	15.612
538.33	15.546
538.52	15.884
538.72	15.709
538.91	15.980
539.11	15.798
539.30	15.672
539.50	15.945
539.70	15.429
539.89	15.655
540.09	15.140
540.28	15.429
540.48	15.199
540.67	15.169
540.87	15.295
541.06	15.003
541.26	14.892
541.45	14.948
541.65	15.418
541.85	15.303
542.04	15.472
542.24	15.553
542.43	15.839
542.63	15.701
542.82	15.843
543.02	16.219
543.21	16.259
543.41	16.307
543.60	16.401
543.80	16.370
543.99	16.406
544.19	16.314
544.38	16.550
544.58	16.230
544.77	16.319
544.97	16.197
545.16	16.484
545.36	16.121
545.56	16.322
545.75	16.489
545.95	16.402
546.14	16.250
546.34	16.282
546.53	16.133
546.73	16.145
546.92	16.456
547.12	16.070
547.31	16.382
547.51	15.995
547.70	16.678
547.90	16.672
548.09	16.219
548.29	16.649
548.48	16.717
548.68	16.524
548.87	17.056
549.07	16.588
549.26	16.683
549.46	16.892
549.65	16.954
549.84	16.817
550.04	16.873
550.23	16.720
550.43	16.593
550.62	16.703
550.82	17.282
551.01	16.604
551.21	17.251
551.40	16.478
551.60	16.840
551.79	16.668
551.99	16.975
552.18	16.502
552.38	17.087
552.57	16.820
552.77	16.843
552.96	17.383
553.16	17.375
553.35	16.943
553.54	17.689
553.74	16.934
553.93	17.665
554.13	17.664
554.32	17.320
554.52	17.239
554.71	17.982
554.91	17.666
555.10	17.545
555.29	17.712
555.49	18.172
555.68	17.540
555.88	18.075
556.07	17.240
556.27	18.064
556.46	17.662
556.66	17.907
556.85	17.718
557.04	18.186
557.24	17.833
557.43	18.348
557.63	17.864
557.82	17.784
558.02	18.058
558.21	18.169
558.40	17.489
558.60	18.665
558.79	17.837
558.99	18.700
559.18	18.392
559.38	18.471
559.57	18.144
559.76	18.139
559.96	18.820
560.15	19.325
560.35	17.905
560.54	18.382
560.73	17.722
560.93	18.609
561.12	18.314
561.32	19.365
561.51	18.295
561.70	18.614
561.90	18.655
562.09	19.313
562.29	18.612
562.48	18.944
562.67	19.176
562.87	18.731
563.06	18.273
563.26	19.499
563.45	18.887
563.64	19.361
563.84	19.240
564.03	18.871
564.23	18.858
564.42	19.608
564.61	19.086
564.81	19.296
565.00	19.295
565.20	19.033
565.39	19.452
565.58	19.189
565.78	19.179
565.97	19.311
566.16	19.677
566.36	19.688
566.55	19.425
566.74	19.706
566.94	19.572
567.13	20.027
567.33	20.145
567.52	20.098
567.71	19.935
567.91	20.285
568.10	19.919
568.29	20.177
568.49	19.967
568.68	19.664
568.87	19.864
569.07	20.557
569.26	19.583
569.45	20.085
569.65	20.008
569.84	20.332
570.04	19.927
570.23	20.353
570.42	20.004
570.62	20.432
570.81	19.881
571.00	19.925
571.20	19.936
571.39	20.107
571.58	20.195
571.78	20.354
571.97	19.770
572.16	19.851
572.36	19.585
572.55	19.966
572.74	19.723
572.94	20.093
573.13	20.174
573.32	19.816
573.51	19.692
573.71	19.988
573.90	20.214
574.09	20.326
574.29	20.242
574.48	19.613
574.67	20.132
574.87	20.769
575.06	20.127
575.25	19.937
575.45	19.748
575.64	20.363
575.83	20.057
576.03	20.807
576.22	20.613
576.41	19.974
576.60	20.309
576.80	20.010
576.99	20.214
577.18	20.717
577.38	20.298
577.57	19.840
577.76	20.263
577.95	19.766
578.15	19.925
578.34	20.479
578.53	20.281
578.73	20.346
578.92	20.018
579.11	20.469
579.30	20.479
579.50	20.519
579.69	20.448
579.88	20.649
580.08	19.536
580.27	20.586
580.46	19.749
580.65	20.076
580.85	19.926
581.04	20.159
581.23	20.075
581.42	19.886
581.62	19.694
581.81	20.349
582.00	20.041
582.19	20.112
582.39	20.213
582.58	20.093
582.77	19.947
582.96	20.299
583.16	19.990
583.35	19.746
583.54	20.173
583.73	20.532
583.93	20.091
584.12	20.203
584.31	19.591
584.50	19.448
584.70	19.488
584.89	20.216
585.08	19.747
585.27	20.175
585.47	19.043
585.66	20.050
585.85	19.636
586.04	19.589
586.24	20.314
586.43	19.345
586.62	19.618
586.81	19.551
587.00	19.645
587.20	19.868
587.39	19.730
587.58	20.308
587.77	19.638
587.97	19.951
588.16	19.533
588.35	19.880
588.54	20.014
588.73	19.727
588.93	20.024
589.12	20.218
589.31	20.234
589.50	20.093
589.69	20.321
589.89	20.039
590.08	19.117
590.27	20.028
590.46	19.923
590.65	20.293
590.85	20.009
591.04	20.804
591.23	20.530
591.42	20.788
591.61	20.158
591.81	20.302
592.00	20.132
592.19	20.517
592.38	20.260
592.57	21.071
592.77	20.250
592.96	20.011
593.15	20.295
593.34	21.032
593.53	20.657
593.72	20.290
593.92	19.761
594.11	20.535
594.30	19.837
594.49	21.094
594.68	20.539
594.87	20.826
595.07	20.122
595.26	20.896
595.45	20.960
595.64	21.470
595.83	20.645
596.02	21.067
596.22	21.393
596.41	20.920
596.60	20.579
596.79	21.380
596.98	21.230
597.17	21.615
597.37	21.396
597.56	21.440
597.75	20.943
597.94	21.417
598.13	21.754
598.32	21.793
598.51	21.651
598.71	22.442
598.90	21.791
599.09	22.432
599.28	21.974
599.47	21.905
599.66	22.176
599.85	21.905
600.05	22.269
600.24	21.965
600.43	22.111
600.62	22.330
600.81	22.179
601.00	22.737
601.19	22.253
601.38	22.355
601.58	22.066
601.77	21.767
601.96	22.368
602.15	22.470
602.34	22.760
602.53	22.251
602.72	22.023
602.91	22.687
603.10	22.359
603.30	23.113
603.49	22.593
603.68	23.405
603.87	23.378
604.06	22.249
604.25	22.971
604.44	22.645
604.63	23.050
604.82	22.874
605.01	22.910
605.21	23.026
605.40	23.341
605.59	22.668
605.78	23.659
605.97	22.645
606.16	23.691
606.35	23.913
606.54	23.553
606.73	23.876
606.92	23.155
607.11	23.879
607.30	23.098
607.50	23.705
607.69	22.969
607.88	23.513
608.07	23.191
608.26	23.036
608.45	23.265
608.64	23.262
608.83	22.884
609.02	22.580
609.21	23.442
609.40	23.167
609.59	22.953
609.78	22.851
609.97	23.063
610.16	22.857
610.35	22.919
610.55	22.882
610.74	23.159
610.93	23.637
611.12	22.650
611.31	23.453
611.50	22.983
611.69	22.764
611.88	22.905
612.07	24.242
612.26	22.595
612.45	22.925
612.64	22.704
612.83	22.807
613.02	21.770
613.21	23.186
613.40	22.977
613.59	22.428
613.78	22.127
613.97	22.753
614.16	22.043
614.35	22.362
614.54	21.574
614.73	22.017
614.92	21.805
615.11	22.219
615.30	21.813
615.49	22.740
615.68	22.526
615.87	22.109
616.07	21.583
616.26	22.207
616.45	21.641
616.64	22.278
616.83	21.953
617.02	21.875
617.21	21.031
617.40	21.621
617.59	21.744
617.78	21.547
617.97	20.395
618.16	21.699
618.35	19.870
618.54	21.682
618.73	21.713
618.92	21.445
619.11	21.112
619.30	22.113
619.49	20.630
619.68	21.994
619.86	21.351
620.05	21.540
620.24	20.447
620.43	21.427
620.62	19.563
620.81	21.582
621.00	21.442
621.19	22.160
621.38	22.379
621.57	21.782
621.76	20.434
621.95	21.141
622.14	20.712
622.33	21.626
622.52	20.654
622.71	21.138
622.90	21.015
623.09	20.037
623.28	20.867
623.47	21.556
623.66	20.484
623.85	20.722
624.04	20.296
624.23	21.013
624.42	21.003
624.61	20.899
624.80	20.600
624.99	20.120
625.18	19.621
625.36	20.452
625.55	20.494
625.74	20.805
625.93	20.936
626.12	20.780
626.31	20.673
626.50	21.209
626.69	20.285
626.88	21.151
627.07	20.879
627.26	20.906
627.45	20.378
627.64	21.378
627.83	20.584
628.02	21.037
628.20	20.961
628.39	21.121
628.58	21.506
628.77	21.360
628.96	20.989
629.15	21.227
629.34	20.795
629.53	21.194
629.72	20.313
629.91	21.507
630.10	20.334
630.29	20.770
630.47	19.712
630.66	20.216
630.85	19.909
631.04	20.783
631.23	20.884
631.42	20.608
631.61	18.970
631.80	20.556
631.99	20.405
632.18	20.286
632.36	20.544
632.55	21.136
632.74	19.878
632.93	20.045
633.12	20.202
633.31	20.749
633.50	19.690
633.69	20.690
633.88	19.752
634.06	20.916
634.25	19.451
634.44	20.748
634.63	19.617
634.82	20.489
635.01	19.440
635.20	20.311
635.39	19.640
635.57	20.318
635.76	20.169
635.95	20.229
636.14	19.469
636.33	19.944
636.52	19.264
636.71	19.907
636.89	20.229
637.08	19.992
637.27	18.437
637.46	19.612
637.65	19.808
637.84	19.879
638.03	19.369
638.21	19.910
638.40	20.154
638.59	19.491
638.78	19.655
638.97	20.704
639.16	18.957
639.34	19.908
639.53	17.362
639.72	20.864
639.91	19.134
640.10	19.710
640.29	20.608
640.47	20.549
640.66	19.030
640.85	19.983
641.04	18.347
641.23	19.713
641.42	18.746
641.60	19.062
641.79	19.554
641.98	19.358
642.17	19.153
642.36	19.445
642.54	18.376
642.73	19.374
642.92	18.377
643.11	18.947
643.30	17.813
643.49	19.944
643.67	16.903
643.86	19.764
644.05	18.451
644.24	19.870
644.43	19.211
644.61	19.777
644.80	18.180
644.99	19.004
645.18	19.554
645.37	19.427
645.55	16.862
645.74	19.395
645.93	18.685
646.12	18.942
646.31	18.161
646.49	19.859
646.68	19.948
646.87	19.187
647.06	17.750
647.24	20.112
647.43	17.930
647.62	19.905
647.81	17.907
648.00	19.414
648.18	17.380
648.37	19.149
648.56	18.353
648.75	18.085
648.93	18.132
649.12	18.288
649.31	17.923
649.50	19.395
649.68	17.303
649.87	18.767
650.06	17.391
650.25	19.022
650.43	17.406
650.62	19.264
650.81	16.602
651.00	17.745
651.18	17.327
651.37	20.064
651.56	16.853
651.75	19.522
651.93	17.898
652.12	18.957
652.31	18.614
652.50	18.908
652.68	18.800
652.87	20.109
653.06	18.354
653.25	19.555
653.43	18.361
653.62	18.448
653.81	17.454
654.00	19.806
654.18	18.613
654.37	20.972
654.56	16.703
654.74	17.678
654.93	17.868
655.12	17.989
655.31	16.515
655.49	17.956
655.68	15.028
655.87	16.005
656.05	15.391
656.24	16.409
656.43	14.568
656.62	17.141
656.80	16.847
656.99	17.080
657.18	14.590
657.36	16.462
657.55	16.305
657.74	17.465
657.93	16.853
658.11	16.763
658.30	16.812
658.49	16.198
658.67	15.933
658.86	16.216
659.05	15.996
659.23	17.604
659.42	15.786
659.61	17.319
659.79	16.493
659.98	17.080
660.17	16.512
660.35	17.253
660.54	16.539
660.73	17.626
660.91	16.699
661.10	16.906
661.29	13.974
661.47	15.806
661.66	15.350
661.85	15.302
662.03	15.697
662.22	15.039
662.41	13.009
662.59	15.093
662.78	13.115
662.97	13.472
663.15	12.663
663.34	13.825
663.53	12.615
663.71	13.330
663.90	12.150
664.09	14.414
664.27	13.077
664.46	14.125
664.65	12.468
664.83	13.290
665.02	10.871
665.21	12.237
665.39	10.981
665.58	12.699
665.77	12.884
665.95	11.830
666.14	10.144
666.32	12.241
666.51	11.339
666.70	10.527
666.88	10.009
667.07	11.686
667.26	9.733
667.44	10.977
667.63	11.012
667.81	10.104
668.00	12.387
668.19	12.960
668.37	10.749
668.56	12.970
668.75	9.480
668.93	12.369
669.12	11.093
669.30	12.496
669.49	10.517
669.68	11.598
669.86	11.511
670.05	10.784
670.23	9.457
670.42	10.684
670.61	11.561
670.79	12.093
670.98	10.928
671.16	11.992
671.35	10.058
671.54	11.051
671.72	9.469
671.91	11.392
672.09	8.477
672.28	11.929
672.46	11.463
672.65	12.111
672.84	13.053
673.02	12.907
673.21	8.703
673.39	11.040
673.58	11.240
673.77	11.609
673.95	10.227
674.14	12.508
674.32	9.619
674.51	13.327
674.69	10.807
674.88	11.025
675.07	11.265
675.25	14.239
675.44	10.367
675.62	11.356
675.81	10.666
675.99	14.467
676.18	11.713
676.36	11.621
676.55	9.646
676.74	12.365
676.92	12.857
677.11	11.646
677.29	9.893
677.48	12.228
677.66	12.148
677.85	12.462
678.03	12.672
678.22	13.656
678.40	11.693
678.59	11.667
678.78	10.374
678.96	11.314
679.15	10.780
679.33	13.497
679.52	13.586
679.70	12.452
679.89	12.358
680.07	13.319
680.26	11.313
680.44	12.379
680.63	13.588
680.81	13.059
681.00	11.430
681.18	12.880
681.37	12.729
681.55	14.963
681.74	14.176
681.92	14.862
682.11	14.374
682.29	14.030
682.48	13.758
682.66	14.904
682.85	12.969
683.03	14.398
683.22	14.775
683.40	15.859
683.59	14.669
683.77	14.346
683.96	13.481
684.14	15.584
684.33	11.910
684.51	16.917
684.70	14.309
684.88	17.275
685.07	14.408
685.25	16.800
685.44	12.695
685.62	16.449
685.81	14.289
685.99	15.654
686.18	14.280
686.36	16.029
686.55	13.413
686.73	17.168
686.92	16.160
687.10	17.637
687.29	16.376
687.47	18.611
687.65	17.625
687.84	17.043
688.02	18.755
688.21	20.190
688.39	16.641
688.58	18.574
688.76	18.300
688.95	19.207
689.13	17.631
689.32	20.930
689.50	18.978
689.68	20.135
689.87	19.140
690.05	19.917
690.24	20.226
690.42	20.311
690.61	20.516
690.79	22.017
690.98	19.997
691.16	21.299
691.34	18.285
691.53	21.889
691.71	20.124
691.90	24.684
692.08	19.635
692.27	24.538
692.45	24.376
692.63	23.007
692.82	22.695
693.00	23.724
693.19	20.455
693.37	24.320
693.56	23.457
693.74	24.538
693.92	22.206
694.11	25.818
694.29	24.992
694.48	27.270
694.66	25.022
694.84	26.305
695.03	25.143
695.21	28.790
695.40	26.249
695.58	29.361
695.76	25.233
695.95	28.665
696.13	27.227
696.32	30.170
696.50	31.581
696.68	29.787
696.87	26.216
697.05	30.452
697.24	28.989
697.42	31.856
697.60	29.917
697.79	31.542
697.97	30.265
698.16	31.368
698.34	30.411
698.52	33.123
698.71	31.757
698.89	32.504
699.07	31.200
699.26	32.798
699.44	32.790
699.63	34.178
699.81	32.198
699.99	33.167
700.18	33.719
700.36	34.347
700.54	33.997
700.73	33.079
700.91	34.531
701.09	34.467
701.28	34.145
701.46	34.438
701.64	35.181
701.83	34.981
702.01	32.721
702.20	33.892
702.38	36.135
702.56	36.701
702.75	34.191
702.93	37.132
703.11	34.620
703.30	36.424
703.48	34.889
703.66	37.455
703.85	34.157
704.03	39.432
704.21	35.502
704.40	39.244
704.58	35.877
704.76	39.420
704.95	36.083
705.13	38.059
705.31	36.009
705.50	38.885
705.68	36.672
705.86	37.816
706.04	36.167
706.23	39.371
706.41	37.785
706.59	38.684
706.78	34.332
706.96	38.390
707.14	38.598
707.33	39.393
707.51	37.870
707.69	38.452
707.88	36.607
708.06	40.111
708.24	39.221
708.42	39.814
708.61	38.942
708.79	41.029
708.97	38.479
709.16	40.297
709.34	41.141
709.52	40.757
709.71	38.858
709.89	39.840
710.07	39.101
710.25	42.146
710.44	39.763
710.62	41.056
710.80	39.320
710.98	40.531
711.17	39.808
711.35	41.001
711.53	38.369
711.72	40.351
711.90	40.177
712.08	40.346
712.26	38.240
712.45	40.924
712.63	41.302
712.81	40.286
712.99	40.348
713.18	41.379
713.36	41.974
713.54	39.506
713.72	39.541
713.91	40.578
714.09	39.264
714.27	39.798
714.45	39.817
714.64	42.638
714.82	39.848
715.00	39.567
715.18	39.670
715.37	41.365
715.55	41.142
715.73	41.220
715.91	41.895
716.10	39.753
716.28	38.129
716.46	42.785
716.64	39.556
716.83	42.358
717.01	40.413
717.19	41.072
717.37	40.215
717.55	41.917
717.74	39.668
717.92	43.114
718.10	38.184
718.28	42.365
718.47	39.068
718.65	42.561
718.83	41.098
719.01	43.135
719.19	39.497
719.38	41.945
719.56	41.152
719.74	40.565
719.92	37.628
720.10	39.976
720.29	38.826
720.47	41.355
720.65	38.837
720.83	40.013
721.01	39.346
721.20	42.628
721.38	41.554
721.56	42.316
721.74	40.781
721.92	40.278
722.11	40.853
722.29	43.303
722.47	40.194
722.65	42.600
722.83	43.299
723.01	44.901
723.20	41.948
723.38	42.931
723.56	39.534
723.74	43.784
723.92	42.356
724.10	42.434
724.29	42.014
724.47	42.851
724.65	41.786
724.83	42.274
725.01	41.811
725.19	42.666
725.38	38.732
725.56	41.004
725.74	41.350
725.92	43.099
726.10	41.581
726.28	41.653
726.46	40.843
726.65	43.187
726.83	39.914
727.01	40.277
727.19	43.630
727.37	43.500
727.55	41.627
727.73	41.349
727.92	40.742
728.10	45.368
728.28	39.334
728.46	43.398
728.64	41.795
728.82	44.043
729.00	41.043
729.19	44.185
729.37	40.971
729.55	41.924
729.73	40.597
729.91	42.866
730.09	43.109
730.27	42.115
730.45	40.899
730.63	43.894
730.82	42.205
731.00	44.538
731.18	42.186
731.36	43.842
731.54	41.523
731.72	44.116
731.90	42.708
732.08	44.968
732.26	40.786
732.45	45.205
732.63	42.088
732.81	41.901
732.99	42.395
733.17	45.777
733.35	41.817
733.53	43.761
733.71	44.112
733.89	44.670
734.07	42.900
734.25	44.608
734.44	42.285
734.62	43.036
734.80	42.329
734.98	45.524
735.16	44.582
735.34	45.537
735.52	45.235
735.70	45.479
735.88	44.482
736.06	44.195
736.24	47.342
736.42	45.539
736.60	45.668
736.78	48.060
736.97	44.540
737.15	45.487
737.33	43.605
737.51	44.133
737.69	42.897
737.87	46.414
738.05	42.598
738.23	47.380
738.41	41.717
738.59	46.370
738.77	43.512
738.95	46.246
739.13	46.073
739.31	44.472
739.49	45.789
739.67	45.545
739.85	45.258
740.03	46.363
740.21	45.027
740.39	44.966
740.57	44.920
740.75	44.765
740.93	43.779
741.11	46.389
741.30	45.994
741.48	45.066
741.66	46.308
741.84	45.237
742.02	45.425
742.20	45.435
742.38	45.871
742.56	52.118
742.74	41.175
742.92	43.271
743.10	44.090
743.28	46.960
743.46	45.907
743.64	46.396
743.82	44.926
744.00	48.228
744.18	47.264
744.36	47.679
744.54	45.194
744.72	48.267
744.90	46.518
745.08	45.871
745.26	44.888
745.44	48.494
745.62	44.859
745.80	46.614
745.98	47.707
746.16	51.313
746.34	47.740
746.52	49.067
746.70	45.167
746.87	46.778
747.05	46.938
747.23	46.934
747.41	44.259
747.59	48.958
747.77	43.938
747.95	48.552
748.13	46.345
748.31	50.874
748.49	43.625
748.67	48.396
748.85	41.849
749.03	46.673
749.21	46.678
749.39	50.963
749.57	45.556
749.75	46.455
749.93	48.538
750.11	48.797
750.29	44.543
750.47	46.494
750.65	45.777
750.83	47.126
751.01	44.783
751.18	47.183
751.36	46.176
751.54	47.990
751.72	46.804
751.90	45.519
752.08	46.024
752.26	43.810
752.44	46.625
752.62	47.057
752.80	46.443
752.98	46.648
753.16	45.457
753.34	46.949
753.52	45.562
753.69	49.308
753.87	48.029
754.05	47.735
754.23	45.741
754.41	45.734
754.59	45.028
754.77	48.640
754.95	45.805
755.13	47.969
755.31	45.512
755.49	48.294
755.66	44.462
755.84	47.765
756.02	48.238
756.20	48.160
756.38	45.625
756.56	48.687
756.74	44.515
756.92	47.069
757.10	46.001
757.28	49.345
757.45	47.748
757.63	45.653
757.81	46.254
757.99	48.842
758.17	47.988
758.35	49.605
758.53	47.120
758.71	45.605
758.88	43.523
759.06	45.977
759.24	43.551
759.42	45.620
759.60	42.540
759.78	43.910
759.96	40.579
760.13	43.156
760.31	38.522
760.49	38.985
760.67	35.573
760.85	36.451
761.03	37.512
761.21	34.763
761.38	32.391
761.56	39.224
761.74	34.330
761.92	42.780
762.10	31.263
762.28	38.676
762.46	33.214
762.63	35.611
762.81	35.526
762.99	38.203
763.17	33.469
763.35	38.134
763.53	34.833
763.70	39.702
763.88	37.985
764.06	38.792
764.24	37.132
764.42	38.808
764.60	37.245
764.77	38.973
764.95	37.532
765.13	40.260
765.31	39.364
765.49	41.836
765.66	39.232
765.84	41.258
766.02	39.662
766.20	43.923
766.38	39.813
766.56	42.733
766.73	38.462
766.91	41.245
767.09	42.490
767.27	44.541
767.45	40.189
767.62	41.908
767.80	41.108
767.98	43.690
768.16	43.587
768.33	46.322
768.51	46.902
768.69	45.955
768.87	43.840
769.05	43.836
769.22	44.247
769.40	45.350
769.58	45.966
769.76	49.191
769.94	47.561
770.11	45.280
770.29	47.819
770.47	46.506
770.65	44.089
770.82	49.356
771.00	43.957
771.18	42.354
771.36	46.436
771.53	45.134
771.71	46.966
771.89	49.900
772.07	44.334
772.25	47.184
772.42	47.707
772.60	48.256
772.78	43.206
772.96	51.169
773.13	49.127
773.31	49.160
773.49	42.311
773.67	45.652
773.84	45.702
774.02	48.597
774.20	47.573
774.37	47.957
774.55	45.060
774.73	49.904
774.91	46.691
775.08	50.091
775.26	42.637
775.44	49.859
775.62	46.458
775.79	44.090
775.97	45.185
776.15	44.841
776.32	42.922
776.50	47.438
776.68	49.929
776.86	54.015
777.03	46.363
777.21	47.919
777.39	44.080
777.56	49.014
777.74	44.286
777.92	46.952
778.10	41.495
778.27	48.284
778.45	47.548
778.63	51.240
778.80	47.096
778.98	47.617
779.16	47.655
779.34	48.539
779.51	45.976
779.69	48.738
779.87	44.997
780.04	49.309
780.22	40.555
780.40	50.242
780.57	46.423
780.75	50.640
780.93	51.363
781.10	51.279
781.28	52.077
781.46	44.151
781.63	42.843
781.81	50.308
781.99	44.410
782.16	44.270
782.34	42.987
782.52	45.491
782.69	48.505
782.87	50.000
783.05	47.392
783.22	47.717
783.40	41.286
783.58	45.465
783.75	45.884
783.93	53.530
784.11	45.455
784.28	49.090
784.46	45.039
784.64	47.528
784.81	43.135
784.99	53.226
785.17	45.682
785.34	46.838
785.52	43.313
785.69	48.038
785.87	46.213
786.05	43.471
786.22	43.707
786.40	47.161
786.58	45.157
786.75	47.408
786.93	45.481
787.11	47.052
787.28	46.376
787.46	45.540
787.63	42.730
787.81	46.018
787.99	47.978
788.16	48.997
788.34	39.887
788.51	47.942
788.69	46.070
788.87	48.086
789.04	40.039
789.22	48.722
789.39	43.046
789.57	45.061
789.75	37.535
789.92	44.368
790.10	41.297
790.27	44.972
790.45	43.861
790.63	48.427
790.80	38.415
790.98	44.002
791.15	43.629
791.33	40.477
791.51	41.108
791.68	43.572
791.86	51.887
792.03	48.294
792.21	39.647
792.39	45.111
792.56	44.237
792.74	47.217
792.91	47.772
793.09	47.246
793.26	43.326
793.44	50.969
793.62	41.152
793.79	51.135
793.97	45.892
794.14	43.658
794.32	45.022
794.49	48.125
794.67	40.814
794.84	41.169
795.02	41.667
795.20	47.090
795.37	41.352
795.55	45.956
795.72	45.119
795.90	48.469
796.07	43.311
796.25	48.828
796.42	44.100
796.60	48.303
796.77	43.656
796.95	43.101
797.13	42.911
797.30	41.937
797.48	44.652
797.65	43.358
797.83	42.196
798.00	49.184
798.18	42.368
798.35	41.343
798.53	48.844
798.70	43.964
798.88	43.678
799.05	44.783
799.23	46.563
799.40	40.243
799.58	45.259
799.75	45.938
799.93	43.080
800.10	52.697
800.28	45.543
800.45	44.032
800.63	39.434
800.80	43.365
800.98	44.141
801.15	46.130
801.33	44.975
801.50	45.511
801.68	40.516
801.85	37.882
802.03	42.464
802.20	46.135
802.38	46.494
802.55	43.082
802.73	38.926
802.90	39.888
803.08	40.080
803.25	44.018
803.43	42.095
803.60	51.035
803.78	47.424
803.95	40.443
804.13	40.864
804.30	46.658
804.48	40.497
804.65	46.117
804.83	41.946
805.00	44.006
805.17	44.140
805.35	45.258
805.52	39.340
805.70	43.695
805.87	45.168
806.05	45.757
806.22	37.899
806.40	39.543
806.57	47.235
806.75	48.521
806.92	46.820
807.09	47.883
807.27	44.641
807.44	46.058
807.62	41.070
807.79	43.111
807.97	39.817
808.14	44.637
808.31	39.664
808.49	40.656
808.66	44.662
808.84	38.970
809.01	39.902
809.19	47.010
809.36	47.276
809.53	43.391
809.71	34.416
809.88	52.293
810.06	48.236
810.23	44.865
810.41	47.791
810.58	47.507
810.75	41.339
810.93	48.206
811.10	45.127
811.28	42.382
811.45	42.109
811.62	44.743
811.80	44.223
811.97	43.567
812.15	46.323
812.32	44.908
812.49	41.207
812.67	46.369
812.84	38.554
813.02	46.491
813.19	35.371
813.36	42.668
813.54	41.541
813.71	48.450
813.89	45.752
814.06	43.849
814.23	39.837
814.41	38.529
814.58	39.659
814.75	47.395
814.93	40.577
815.10	41.413
815.28	35.156
815.45	40.936
815.62	40.675
815.80	41.330
815.97	41.343
816.14	45.259
816.32	41.443
816.49	37.469
816.66	37.724
816.84	38.242
817.01	42.703
817.18	40.204
817.36	38.561
817.53	44.601
817.71	31.829
817.88	40.397
818.05	38.902
818.23	42.536
818.40	39.110
818.57	49.513
818.75	38.462
818.92	37.934
819.09	39.262
819.27	41.162
819.44	32.203
819.61	41.896
819.79	33.288
819.96	41.678
820.13	32.410
820.31	40.587
820.48	44.378
820.65	35.988
820.82	35.562
821.00	35.358
821.17	29.602
821.34	36.246
821.52	41.048
821.69	37.003
821.86	34.407
822.04	37.746
822.21	36.436
822.38	40.009
822.56	35.585
822.73	39.364
822.90	38.177
823.07	40.798
823.25	37.054
823.42	39.676
823.59	37.578
823.77	39.652
823.94	39.255
824.11	38.744
824.29	37.582
824.46	40.650
824.63	38.623
824.80	39.054
824.98	38.190
825.15	40.240
825.32	37.616
825.49	41.355
825.67	37.561
825.84	41.452
826.01	40.524
826.19	40.031
826.36	35.680
826.53	42.416
826.70	37.049
826.88	41.058
827.05	34.052
827.22	38.962
827.39	38.543
827.57	37.433
827.74	34.587
827.91	39.450
828.08	36.648
828.26	36.794
828.43	35.576
828.60	40.496
828.77	36.246
828.95	36.361
829.12	33.157
829.29	32.148
829.46	36.922
829.64	35.000
829.81	29.530
829.98	38.206
830.15	34.165
830.32	35.930
830.50	37.206
830.67	37.555
830.84	32.862
831.01	34.108
831.19	37.528
831.36	37.958
831.53	42.798
831.70	46.003
831.87	32.931
832.05	39.169
832.22	43.233
832.39	33.580
832.56	39.835
832.74	34.451
832.91	38.686
833.08	41.460
833.25	36.105
833.42	37.636
833.60	34.337
833.77	33.519
833.94	35.036
834.11	31.516
834.28	30.399
834.45	34.528
834.63	30.693
834.80	32.591
834.97	29.394
835.14	32.829
835.31	31.825
835.49	29.850
835.66	34.718
835.83	35.801
836.00	31.323
836.17	36.218
836.34	33.659
836.52	34.628
836.69	39.466
836.86	37.308
837.03	36.899
837.20	36.283
837.37	30.876
837.55	34.407
837.72	35.420
837.89	38.440
838.06	41.686
838.23	50.297
838.40	43.020
838.58	36.612
838.75	41.935
838.92	40.592
839.09	43.856
839.26	44.668
839.43	50.721
839.60	57.038
839.78	53.434
839.95	52.397
840.12	49.423
840.29	51.469
840.46	50.308
840.63	41.982
840.80	31.434
840.98	45.324
841.15	37.212
841.32	44.797
841.49	40.185
841.66	51.873
841.83	36.293
842.00	34.881
842.17	46.287
842.34	42.843
842.52	43.354
842.69	50.519
842.86	46.146
843.03	65.494
843.20	59.541
843.37	43.500
843.54	46.537
843.71	63.784
843.88	44.901
844.06	61.636
844.23	60.385
844.40	58.962
844.57	58.250
844.74	56.394
844.91	52.013
845.08	56.462
845.25	57.912
845.42	59.237
845.59	61.639
845.76	66.552
845.94	58.833
846.11	58.234
846.28	70.940
846.45	79.755
846.62	71.023
846.79	60.038
846.96	66.019
847.13	70.062
847.30	67.500
847.47	60.806
847.64	74.280
847.81	67.857
847.98	64.831
848.15	71.116
848.32	75.666
848.50	75.108
848.67	59.770
848.84	73.695
849.01	62.941
849.18	78.774
849.35	76.688
849.52	78.850
849.69	79.104
849.86	88.553
850.03	73.333
850.20	65.905
850.37	71.087
850.54	80.000
850.71	65.226
850.88	100.513
851.05	74.614
851.22	78.373
851.39	77.396
851.56	71.675
851.73	91.080
851.90	73.594
852.07	75.368
852.24	72.515
852.41	85.779
852.58	66.594
852.75	64.516
852.92	73.747
853.09	74.725
853.26	79.303
853.43	70.276
853.60	61.290
853.77	71.308
853.94	58.925
854.11	81.299
854.28	82.993
854.45	65.035
854.62	76.790
854.79	82.955
854.96	70.085
855.13	83.636
855.30	81.325
855.47	95.979
855.64	73.747
855.81	95.238
855.98	67.217
856.15	75.271
856.32	63.420
856.49	85.446
856.66	77.622
856.83	74.751
857.00	81.429
857.17	72.048
857.34	101.039
857.51	86.337
857.68	61.474
857.85	73.504
858.02	87.935
858.19	59.806
858.36	67.929
858.53	69.565
858.70	70.505
858.87	74.336
859.04	69.628
859.21	63.793
859.38	90.802
859.55	103.067
859.72	70.507
859.89	87.750
860.05	90.465
860.22	84.110
860.39	64.721
860.56	105.279
860.73	74.304
860.90	104.559
861.07	97.964
861.24	71.706
861.41	73.415
861.58	73.116
861.75	91.053
861.92	111.290
862.09	81.910
862.26	67.920
862.43	95.116
862.59	95.349
862.76	80.055
862.93	76.591
863.10	84.946
863.27	62.129
863.44	91.969
863.61	75.168
863.78	58.575
863.95	110.174
864.12	79.048
864.29	76.798
864.45	85.146
864.62	59.559
864.79	72.311
864.96	88.406
865.13	93.366
865.30	82.068
865.47	78.282
865.64	87.589
865.81	68.107
865.97	64.569
866.14	89.683
866.31	69.822
866.48	83.761
866.65	78.116
866.82	69.518
866.99	89.944
867.16	82.051
867.33	107.519
867.49	79.739
867.66	108.897
867.83	78.426
868.00	80.929
868.17	88.037
868.34	82.514
868.51	77.829
868.67	86.849
868.84	72.895
869.01	95.251
869.18	80.541
869.35	79.952
869.52	68.547
869.69	62.222
869.85	79.856
870.02	86.571
870.19	71.492
870.36	96.065
870.53	81.400
870.70	84.685
870.86	97.594
871.03	73.978
871.20	73.846
871.37	88.337
871.54	67.813
871.71	71.905
871.87	71.523
872.04	62.044
872.21	69.261
872.38	74.370
872.55	79.012
872.72	85.960
872.88	89.157
873.05	77.014
873.22	69.171
873.39	80.698
873.56	83.636
873.72	76.157
873.89	55.469
874.06	69.048
874.23	65.708
874.40	93.947
874.56	70.978
874.73	83.514
874.90	90.355
875.07	101.441
875.24	69.598
875.40	65.368
875.57	71.072
875.74	78.231
875.91	79.529
876.08	76.957
876.24	69.492
876.41	93.114
876.58	65.808
876.75	74.400
876.92	59.242
877.08	67.102
877.25	79.726
877.42	69.167
877.59	62.919
877.75	84.156
877.92	67.045
878.09	71.622
878.26	79.343
878.42	77.889
878.59	78.538
878.76	80.694
878.93	101.429
879.09	66.599
879.26	63.127
879.43	71.726
879.60	76.617
879.76	58.278
879.93	67.384
880.10	56.381
880.27	56.974
880.43	53.887
880.60	56.985
880.77	47.092
880.94	55.757
881.10	47.361
881.27	35.162
881.44	35.504
881.61	35.780
881.77	31.792
881.94	29.923
882.11	26.766
882.28	23.608
882.44	29.372
882.61	31.752
882.78	33.603
882.94	37.679
883.11	31.236
883.28	34.127
883.45	33.458
883.61	33.539
883.78	32.626
883.95	32.859
884.11	31.498
884.28	28.255
>>>>>End Processed Spectral Data<<<<<
