SpectraSuite Data File
++++++++++++++++++++++++++++++++++++
Date: Wed Sep 25 03:27:55 EST 2019
User: sgrac
Dark Spectrum Present: Yes
Reference Spectrum Present: Yes
Number of Sampled Component Spectra: 1
Spectrometers: USB4E01596
Integration Time (usec): 100000 (USB4E01596)
Spectra Averaged: 3 (USB4E01596)
Boxcar Smoothing: 0 (USB4E01596)
Correct for Electrical Dark: No (USB4E01596)
Strobe/Lamp Enabled: Yes (USB4E01596)
Correct for Detector Non-linearity: No (USB4E01596)
Correct for Stray Light: No (USB4E01596)
Number of Pixels in Processed Spectrum: 3648
>>>>>Begin Processed Spectral Data<<<<<
178.44	-417.308
178.66	-417.308
178.87	-417.308
179.09	-621.875
179.30	796.774
179.52	1530.435
179.74	-771.053
179.95	-457.407
180.17	640.816
180.38	-1207.143
180.60	-1980.000
180.82	-4366.667
181.03	716.279
181.25	-2658.333
181.46	-429.167
181.68	462.821
181.89	-961.290
182.11	11233.333
182.33	701.923
182.54	-18750.000
182.76	650.980
182.97	855.263
183.19	1383.333
183.40	719.565
183.62	1665.000
183.84	489.286
184.05	1134.615
184.27	-2409.091
184.48	31100.000
184.70	1170.370
184.91	543.396
185.13	2321.429
185.34	638.983
185.56	385.057
185.78	1611.111
185.99	580.000
186.21	402.410
186.42	1260.714
186.64	-2911.111
186.85	824.390
187.07	-984.000
187.28	347.917
187.50	-706.977
187.72	1266.667
187.93	1202.703
188.15	2150.000
188.36	775.000
188.58	578.333
188.79	675.000
189.01	557.377
189.22	373.118
189.44	351.887
189.65	-700.000
189.87	1192.857
190.09	302.885
190.30	389.815
190.52	-408.621
190.73	355.422
190.95	-2342.857
191.16	543.478
191.38	607.692
191.59	482.716
191.81	1677.778
192.02	-2850.000
192.24	-2718.182
192.45	556.452
192.67	-6820.000
192.88	354.651
193.10	513.235
193.31	258.197
193.53	-401.613
193.74	2172.727
193.96	-6566.667
194.18	2107.143
194.39	403.390
194.61	952.778
194.82	376.136
195.04	293.860
195.25	658.333
195.47	-33500.000
195.68	395.385
195.90	413.333
196.11	1490.476
196.33	-358.333
196.54	1132.143
196.76	559.677
196.97	252.469
197.19	303.759
197.40	-434.667
197.62	666.667
197.83	1976.471
198.05	402.500
198.26	531.250
198.48	1964.706
198.69	-784.615
198.91	548.437
199.12	-15050.000
199.34	836.585
199.55	1245.000
199.77	592.063
199.98	1466.667
200.20	484.524
200.41	335.227
200.63	408.537
200.84	762.222
201.06	256.329
201.27	-505.263
201.49	-4414.286
201.70	445.455
201.91	-5428.571
202.13	-1968.750
202.34	-842.424
202.56	1663.158
202.77	692.105
202.99	763.830
203.20	388.172
203.42	717.544
203.63	439.437
203.85	-2246.667
204.06	1181.818
204.28	-5180.000
204.49	1110.000
204.71	340.860
204.92	604.412
205.14	1937.500
205.35	1059.375
205.56	1478.571
205.78	721.818
205.99	432.927
206.21	994.872
206.42	501.695
206.64	564.062
206.85	616.279
207.07	-647.368
207.28	398.551
207.50	829.730
207.71	1109.375
207.93	371.717
208.14	548.000
208.35	684.091
208.57	1640.000
208.78	1336.000
209.00	702.128
209.21	595.556
209.43	347.573
209.64	-2709.091
209.86	661.538
210.07	-1552.381
210.28	371.739
210.50	1505.263
210.71	285.000
210.93	474.359
211.14	403.636
211.36	-2910.000
211.57	454.167
211.78	508.000
212.00	719.149
212.21	883.784
212.43	40200.000
212.64	1029.412
212.86	660.417
213.07	1121.212
213.29	-2480.000
213.50	1003.226
213.71	1524.000
213.93	1738.889
214.14	295.652
214.36	225.316
214.57	627.869
214.78	656.863
215.00	430.882
215.21	2215.385
215.43	269.697
215.64	658.140
215.86	848.485
216.07	715.556
216.28	1282.609
216.50	381.481
216.71	429.310
216.93	931.579
217.14	325.225
217.35	1211.538
217.57	253.226
217.78	1521.053
218.00	437.209
218.21	1245.000
218.42	9900.000
218.64	271.429
218.85	791.111
219.07	568.852
219.28	330.702
219.49	978.788
219.71	387.838
219.92	1485.000
220.14	1643.750
220.35	548.485
220.56	201.935
220.78	5460.000
220.99	429.268
221.21	283.898
221.42	751.220
221.63	523.333
221.85	708.696
222.06	264.103
222.28	765.789
222.49	897.500
222.70	337.615
222.92	387.640
223.13	406.818
223.34	239.370
223.56	476.812
223.77	447.619
223.99	1096.154
224.20	260.140
224.41	250.000
224.63	306.557
224.84	387.324
225.05	398.901
225.27	381.818
225.48	282.075
225.69	172.024
225.91	707.692
226.12	305.224
226.34	193.793
226.55	252.174
226.76	182.857
226.98	136.017
227.19	158.621
227.40	127.928
227.62	143.320
227.83	116.370
228.04	87.713
228.26	61.905
228.47	83.887
228.69	67.920
228.90	65.854
229.11	65.631
229.33	51.788
229.54	43.292
229.75	45.859
229.97	44.645
230.18	39.645
230.39	31.108
230.61	43.469
230.82	47.664
231.03	38.776
231.25	42.437
231.46	33.657
231.67	49.802
231.89	35.361
232.10	44.489
232.31	59.278
232.53	67.742
232.74	56.634
232.95	67.283
233.17	62.718
233.38	49.060
233.59	64.143
233.81	64.497
234.02	69.455
234.23	66.535
234.45	61.538
234.66	62.235
234.87	79.346
235.09	52.941
235.30	51.127
235.51	49.209
235.73	49.588
235.94	56.601
236.15	59.902
236.36	52.101
236.58	51.429
236.79	44.531
237.00	59.687
237.22	47.281
237.43	52.709
237.64	50.929
237.86	40.826
238.07	49.624
238.28	46.850
238.50	46.512
238.71	43.860
238.92	55.259
239.13	52.640
239.35	51.369
239.56	39.515
239.77	48.721
239.99	44.640
240.20	56.346
240.41	44.010
240.63	41.600
240.84	48.581
241.05	38.425
241.26	25.471
241.48	29.392
241.69	27.060
241.90	22.475
242.12	21.419
242.33	22.782
242.54	16.869
242.75	20.140
242.97	20.234
243.18	14.713
243.39	17.027
243.61	15.785
243.82	16.660
244.03	13.144
244.24	14.511
244.46	15.693
244.67	16.989
244.88	20.690
245.09	19.235
245.31	19.090
245.52	16.115
245.73	21.441
245.95	38.251
246.16	21.772
246.37	19.761
246.58	20.596
246.80	16.498
247.01	13.918
247.22	11.933
247.43	11.740
247.65	11.789
247.86	11.313
248.07	8.296
248.28	9.648
248.50	8.951
248.71	10.843
248.92	8.073
249.13	9.841
249.35	10.452
249.56	9.079
249.77	11.155
249.98	10.022
250.20	16.343
250.41	10.341
250.62	17.797
250.83	17.485
251.05	18.255
251.26	16.737
251.47	15.896
251.68	19.366
251.90	14.980
252.11	20.092
252.32	17.714
252.53	18.618
252.75	14.616
252.96	14.578
253.17	17.191
253.38	17.183
253.59	15.997
253.81	16.349
254.02	15.932
254.23	19.971
254.44	18.148
254.66	20.754
254.87	18.679
255.08	16.012
255.29	18.763
255.50	24.423
255.72	17.594
255.93	23.475
256.14	22.670
256.35	20.262
256.57	23.592
256.78	19.018
256.99	27.487
257.20	23.782
257.41	21.485
257.63	19.572
257.84	18.805
258.05	16.769
258.26	17.318
258.47	19.827
258.69	16.760
258.90	13.516
259.11	18.156
259.32	13.404
259.53	11.488
259.75	8.946
259.96	9.603
260.17	7.836
260.38	10.229
260.59	7.756
260.81	7.021
261.02	7.760
261.23	6.222
261.44	8.681
261.65	8.677
261.87	6.323
262.08	7.436
262.29	9.572
262.50	7.611
262.71	8.441
262.92	9.843
263.14	9.766
263.35	9.234
263.56	11.281
263.77	15.700
263.98	11.371
264.20	11.959
264.41	15.708
264.62	11.271
264.83	13.530
265.04	18.925
265.25	13.281
265.47	16.328
265.68	16.503
265.89	14.914
266.10	17.063
266.31	16.092
266.52	13.955
266.74	16.564
266.95	15.240
267.16	11.567
267.37	15.637
267.58	9.286
267.79	11.149
268.01	10.556
268.22	9.514
268.43	13.957
268.64	11.153
268.85	9.304
269.06	7.577
269.27	12.251
269.49	10.339
269.70	12.895
269.91	10.221
270.12	13.425
270.33	12.770
270.54	11.375
270.75	10.126
270.97	12.380
271.18	11.050
271.39	10.612
271.60	12.508
271.81	10.415
272.02	9.347
272.23	10.604
272.45	10.047
272.66	9.240
272.87	9.211
273.08	9.351
273.29	8.420
273.50	7.332
273.71	7.247
273.92	7.692
274.14	10.013
274.35	8.098
274.56	8.941
274.77	7.679
274.98	9.968
275.19	8.642
275.40	10.228
275.61	8.848
275.83	11.814
276.04	9.334
276.25	11.541
276.46	9.982
276.67	13.951
276.88	9.326
277.09	10.727
277.30	11.148
277.51	10.789
277.73	10.930
277.94	10.358
278.15	11.653
278.36	12.562
278.57	11.357
278.78	11.055
278.99	10.324
279.20	11.711
279.41	11.271
279.62	9.910
279.84	11.777
280.05	13.375
280.26	9.678
280.47	9.497
280.68	11.761
280.89	10.375
281.10	9.029
281.31	10.582
281.52	9.269
281.73	7.379
281.94	8.095
282.16	10.402
282.37	8.475
282.58	8.952
282.79	10.827
283.00	10.461
283.21	7.442
283.42	7.366
283.63	9.255
283.84	6.933
284.05	8.177
284.26	9.147
284.47	7.665
284.68	9.316
284.89	8.185
285.11	8.021
285.32	8.302
285.53	7.555
285.74	7.676
285.95	8.763
286.16	6.229
286.37	9.456
286.58	8.291
286.79	6.680
287.00	7.496
287.21	7.071
287.42	6.452
287.63	6.400
287.84	7.410
288.05	7.575
288.26	7.209
288.48	8.676
288.69	7.565
288.90	8.486
289.11	7.485
289.32	8.776
289.53	6.873
289.74	4.217
289.95	6.366
290.16	8.988
290.37	6.770
290.58	8.437
290.79	7.826
291.00	6.170
291.21	6.753
291.42	7.511
291.63	6.787
291.84	7.593
292.05	7.218
292.26	7.413
292.47	7.267
292.68	7.437
292.89	8.152
293.10	7.165
293.31	8.120
293.52	9.337
293.73	6.492
293.94	10.215
294.15	7.760
294.36	7.364
294.57	8.324
294.79	7.770
295.00	6.146
295.21	9.056
295.42	7.515
295.63	9.580
295.84	7.735
296.05	6.299
296.26	7.312
296.47	6.889
296.68	6.504
296.89	8.890
297.10	7.825
297.31	6.684
297.52	7.136
297.73	6.362
297.94	5.142
298.15	6.805
298.36	6.456
298.57	5.590
298.78	7.662
298.99	5.758
299.20	5.990
299.41	7.322
299.62	6.870
299.83	5.099
300.04	7.473
300.25	6.875
300.46	7.966
300.67	8.104
300.88	8.703
301.09	6.839
301.30	10.504
301.50	6.075
301.71	8.308
301.92	9.363
302.13	6.961
302.34	7.909
302.55	6.810
302.76	7.896
302.97	6.434
303.18	9.780
303.39	6.993
303.60	8.131
303.81	9.958
304.02	7.143
304.23	6.950
304.44	8.026
304.65	9.542
304.86	8.499
305.07	8.431
305.28	9.645
305.49	10.903
305.70	8.621
305.91	6.379
306.12	9.939
306.33	8.436
306.54	9.831
306.75	8.394
306.96	11.996
307.17	8.364
307.38	9.592
307.58	9.183
307.79	8.345
308.00	7.947
308.21	8.552
308.42	6.416
308.63	9.365
308.84	7.012
309.05	7.137
309.26	6.646
309.47	7.126
309.68	7.639
309.89	8.524
310.10	5.655
310.31	7.107
310.52	6.676
310.73	8.801
310.94	6.130
311.14	7.279
311.35	6.961
311.56	6.911
311.77	6.570
311.98	5.940
312.19	5.311
312.40	6.048
312.61	6.733
312.82	6.178
313.03	6.395
313.24	7.029
313.45	8.539
313.66	6.745
313.86	9.779
314.07	5.831
314.28	8.311
314.49	8.305
314.70	8.051
314.91	9.322
315.12	8.830
315.33	9.329
315.54	8.361
315.75	8.117
315.96	8.108
316.16	7.510
316.37	9.725
316.58	5.663
316.79	7.819
317.00	7.873
317.21	8.427
317.42	9.291
317.63	8.996
317.84	8.479
318.05	9.186
318.25	11.897
318.46	8.879
318.67	9.017
318.88	7.788
319.09	8.990
319.30	7.302
319.51	8.662
319.72	7.920
319.93	7.021
320.13	7.039
320.34	8.297
320.55	8.568
320.76	9.070
320.97	9.662
321.18	10.643
321.39	7.964
321.60	8.869
321.80	10.825
322.01	10.145
322.22	8.701
322.43	7.698
322.64	9.853
322.85	9.133
323.06	9.597
323.27	7.996
323.47	9.372
323.68	10.023
323.89	8.921
324.10	7.536
324.31	6.517
324.52	9.211
324.73	7.500
324.93	7.435
325.14	8.679
325.35	8.332
325.56	7.506
325.77	9.352
325.98	8.806
326.19	8.562
326.39	6.468
326.60	8.676
326.81	7.202
327.02	7.002
327.23	7.805
327.44	10.320
327.64	6.071
327.85	7.675
328.06	8.897
328.27	11.339
328.48	8.281
328.69	7.360
328.90	8.564
329.10	7.735
329.31	10.113
329.52	7.171
329.73	10.504
329.94	9.427
330.15	9.367
330.35	10.037
330.56	9.937
330.77	8.587
330.98	9.635
331.19	8.452
331.39	10.089
331.60	9.834
331.81	8.413
332.02	8.870
332.23	8.895
332.44	7.486
332.64	8.621
332.85	9.104
333.06	11.245
333.27	8.020
333.48	11.303
333.68	9.271
333.89	8.845
334.10	9.141
334.31	11.675
334.52	8.715
334.72	10.498
334.93	9.903
335.14	8.796
335.35	9.877
335.56	11.314
335.76	8.596
335.97	12.927
336.18	8.358
336.39	12.387
336.60	10.609
336.80	9.274
337.01	9.777
337.22	10.776
337.43	11.596
337.64	13.506
337.84	11.739
338.05	12.472
338.26	13.899
338.47	13.533
338.68	9.807
338.88	13.451
339.09	10.797
339.30	11.311
339.51	14.060
339.71	13.867
339.92	10.577
340.13	12.467
340.34	10.458
340.55	11.320
340.75	13.017
340.96	11.440
341.17	13.034
341.38	11.653
341.58	14.413
341.79	13.063
342.00	11.417
342.21	12.662
342.41	10.058
342.62	13.515
342.83	14.365
343.04	10.525
343.24	13.899
343.45	14.955
343.66	12.893
343.87	13.647
344.07	12.385
344.28	15.357
344.49	14.837
344.70	17.208
344.90	12.013
345.11	11.980
345.32	12.812
345.53	14.976
345.73	14.241
345.94	17.050
346.15	15.654
346.36	13.619
346.56	16.270
346.77	17.349
346.98	16.059
347.19	16.859
347.39	14.931
347.60	16.382
347.81	16.280
348.02	17.046
348.22	14.157
348.43	16.618
348.64	12.878
348.84	15.278
349.05	16.800
349.26	18.719
349.47	14.725
349.67	14.148
349.88	17.628
350.09	16.599
350.30	18.136
350.50	14.696
350.71	16.581
350.92	18.523
351.12	15.243
351.33	16.287
351.54	15.589
351.74	17.819
351.95	15.752
352.16	16.474
352.37	18.085
352.57	15.905
352.78	15.022
352.99	16.587
353.19	15.291
353.40	18.102
353.61	18.854
353.82	17.866
354.02	18.572
354.23	18.069
354.44	19.389
354.64	16.532
354.85	17.930
355.06	16.363
355.26	14.973
355.47	16.524
355.68	18.980
355.88	18.745
356.09	17.423
356.30	15.913
356.51	18.388
356.71	17.276
356.92	14.912
357.13	18.313
357.33	18.688
357.54	16.749
357.75	15.409
357.95	17.413
358.16	16.378
358.37	19.315
358.57	15.977
358.78	19.280
358.99	17.968
359.19	17.582
359.40	17.869
359.61	16.235
359.81	18.589
360.02	20.753
360.23	15.434
360.43	16.909
360.64	15.299
360.85	16.516
361.05	14.644
361.26	19.613
361.47	15.784
361.67	17.728
361.88	16.088
362.09	17.656
362.29	15.491
362.50	16.322
362.70	14.879
362.91	17.709
363.12	16.116
363.32	15.977
363.53	16.598
363.74	17.928
363.94	14.930
364.15	17.446
364.36	17.031
364.56	17.220
364.77	16.751
364.98	18.137
365.18	16.088
365.39	18.588
365.59	15.192
365.80	15.389
366.01	16.318
366.21	16.324
366.42	14.104
366.63	17.369
366.83	14.880
367.04	14.038
367.24	17.182
367.45	14.466
367.66	13.907
367.86	14.551
368.07	14.036
368.28	15.611
368.48	15.443
368.69	14.287
368.89	15.677
369.10	16.374
369.31	15.806
369.51	16.151
369.72	16.341
369.92	17.029
370.13	12.849
370.34	15.214
370.54	11.713
370.75	16.011
370.95	12.379
371.16	14.784
371.37	13.506
371.57	14.747
371.78	14.129
371.98	15.474
372.19	14.845
372.40	15.394
372.60	15.260
372.81	15.091
373.01	12.619
373.22	14.372
373.43	15.383
373.63	14.925
373.84	14.474
374.04	14.897
374.25	12.795
374.46	14.410
374.66	13.322
374.87	15.699
375.07	12.546
375.28	13.079
375.48	14.098
375.69	14.964
375.90	12.193
376.10	11.932
376.31	12.769
376.51	13.440
376.72	12.696
376.92	12.654
377.13	12.779
377.34	14.826
377.54	12.498
377.75	14.312
377.95	13.394
378.16	14.292
378.36	12.933
378.57	13.701
378.77	12.512
378.98	12.444
379.19	13.266
379.39	11.658
379.60	13.127
379.80	13.449
380.01	14.403
380.21	12.387
380.42	13.501
380.62	13.167
380.83	12.821
381.04	11.921
381.24	12.782
381.45	12.890
381.65	11.631
381.86	13.101
382.06	12.817
382.27	11.655
382.47	11.317
382.68	13.167
382.88	11.507
383.09	11.136
383.29	12.772
383.50	12.889
383.71	11.876
383.91	12.479
384.12	12.175
384.32	13.003
384.53	12.861
384.73	11.136
384.94	10.893
385.14	11.614
385.35	11.516
385.55	12.295
385.76	11.017
385.96	11.850
386.17	11.845
386.37	12.399
386.58	12.375
386.78	13.063
386.99	10.601
387.19	12.904
387.40	10.427
387.60	13.006
387.81	11.551
388.01	11.761
388.22	12.059
388.42	13.546
388.63	11.681
388.83	13.270
389.04	10.538
389.24	12.549
389.45	11.537
389.65	11.379
389.86	10.919
390.06	11.361
390.27	11.402
390.47	10.469
390.68	11.122
390.88	13.024
391.09	11.222
391.29	11.897
391.50	11.318
391.70	11.134
391.91	10.875
392.11	11.652
392.32	11.351
392.52	12.271
392.73	11.692
392.93	11.981
393.14	11.699
393.34	11.557
393.55	11.844
393.75	11.937
393.95	11.096
394.16	11.593
394.36	11.980
394.57	12.118
394.77	11.439
394.98	11.772
395.18	11.444
395.39	11.603
395.59	10.754
395.80	11.434
396.00	10.849
396.21	12.222
396.41	11.390
396.61	12.357
396.82	11.076
397.02	12.856
397.23	11.346
397.43	11.458
397.64	9.565
397.84	12.069
398.05	9.931
398.25	11.214
398.45	10.310
398.66	12.023
398.86	10.992
399.07	12.641
399.27	10.606
399.48	11.129
399.68	10.856
399.89	10.580
400.09	10.941
400.29	10.867
400.50	11.179
400.70	11.221
400.91	10.657
401.11	10.537
401.32	10.658
401.52	10.387
401.72	10.527
401.93	11.782
402.13	10.683
402.34	10.623
402.54	10.135
402.75	12.260
402.95	9.454
403.15	11.224
403.36	9.607
403.56	11.442
403.77	9.960
403.97	10.427
404.17	8.604
404.38	10.576
404.58	9.661
404.79	10.786
404.99	10.410
405.19	9.928
405.40	10.198
405.60	10.634
405.81	9.929
406.01	10.380
406.21	9.571
406.42	10.286
406.62	10.562
406.83	10.638
407.03	10.820
407.23	10.305
407.44	9.785
407.64	10.395
407.85	10.377
408.05	10.178
408.25	9.178
408.46	10.705
408.66	10.456
408.87	10.378
409.07	9.490
409.27	9.829
409.48	9.322
409.68	10.087
409.88	8.687
410.09	10.176
410.29	9.758
410.50	10.935
410.70	9.064
410.90	9.743
411.11	8.457
411.31	9.467
411.51	9.734
411.72	9.812
411.92	8.309
412.12	10.088
412.33	8.972
412.53	9.420
412.74	9.095
412.94	9.875
413.14	9.319
413.35	9.892
413.55	8.889
413.75	10.628
413.96	8.258
414.16	9.968
414.36	9.518
414.57	9.386
414.77	8.214
414.97	10.179
415.18	9.269
415.38	9.169
415.58	9.476
415.79	8.871
415.99	8.579
416.19	9.690
416.40	8.681
416.60	9.035
416.80	8.707
417.01	9.080
417.21	8.355
417.41	9.932
417.62	9.650
417.82	10.023
418.02	8.271
418.23	9.649
418.43	9.034
418.63	9.674
418.84	9.389
419.04	9.314
419.24	9.609
419.45	10.325
419.65	10.011
419.85	9.484
420.06	10.031
420.26	10.122
420.46	9.873
420.67	10.365
420.87	9.926
421.07	10.195
421.28	9.316
421.48	10.319
421.68	9.893
421.88	10.061
422.09	10.063
422.29	9.997
422.49	9.509
422.70	10.112
422.90	10.037
423.10	9.919
423.31	10.141
423.51	10.233
423.71	9.589
423.91	10.081
424.12	9.898
424.32	9.964
424.52	9.938
424.73	10.072
424.93	9.722
425.13	9.777
425.33	9.472
425.54	9.964
425.74	9.999
425.94	10.540
426.15	9.850
426.35	9.880
426.55	9.946
426.75	10.262
426.96	9.806
427.16	9.947
427.36	9.924
427.57	9.922
427.77	9.276
427.97	9.628
428.17	9.551
428.38	9.917
428.58	8.064
428.78	10.052
428.98	8.596
429.19	9.158
429.39	8.283
429.59	9.482
429.79	8.615
430.00	8.557
430.20	7.775
430.40	9.386
430.60	8.222
430.81	8.786
431.01	8.848
431.21	9.485
431.41	8.158
431.62	9.303
431.82	8.686
432.02	9.168
432.22	8.039
432.43	8.321
432.63	8.254
432.83	9.149
433.03	8.634
433.24	8.578
433.44	8.325
433.64	9.193
433.84	8.798
434.05	9.162
434.25	8.926
434.45	9.628
434.65	8.544
434.85	9.547
435.06	9.091
435.26	9.084
435.46	9.074
435.66	9.331
435.87	8.858
436.07	8.883
436.27	8.772
436.47	8.586
436.67	8.638
436.88	9.359
437.08	8.821
437.28	9.189
437.48	9.018
437.69	9.231
437.89	8.272
438.09	9.017
438.29	8.525
438.49	9.294
438.70	8.912
438.90	8.353
439.10	8.528
439.30	9.087
439.50	8.186
439.71	9.527
439.91	8.716
440.11	9.430
440.31	8.872
440.51	9.200
440.72	8.533
440.92	9.091
441.12	9.226
441.32	9.375
441.52	9.545
441.72	9.413
441.93	8.912
442.13	9.631
442.33	9.260
442.53	9.616
442.73	9.137
442.94	9.403
443.14	9.381
443.34	10.030
443.54	8.919
443.74	9.361
443.94	8.650
444.15	9.029
444.35	8.566
444.55	9.273
444.75	8.712
444.95	8.996
445.15	8.833
445.36	8.895
445.56	8.217
445.76	9.215
445.96	8.740
446.16	8.983
446.36	8.454
446.57	9.219
446.77	8.743
446.97	9.095
447.17	9.161
447.37	9.369
447.57	9.129
447.77	9.379
447.98	9.229
448.18	9.575
448.38	8.990
448.58	9.277
448.78	9.637
448.98	9.312
449.18	8.934
449.39	9.259
449.59	9.089
449.79	9.254
449.99	8.975
450.19	9.161
450.39	8.744
450.59	9.304
450.79	8.528
451.00	9.014
451.20	9.463
451.40	9.067
451.60	8.155
451.80	8.702
452.00	8.269
452.20	8.810
452.40	8.651
452.61	8.641
452.81	8.353
453.01	9.218
453.21	8.922
453.41	9.250
453.61	8.431
453.81	8.522
454.01	8.508
454.21	8.877
454.42	8.991
454.62	9.265
454.82	8.461
455.02	9.063
455.22	8.517
455.42	8.869
455.62	8.409
455.82	8.919
456.02	8.154
456.23	8.185
456.43	8.314
456.63	8.660
456.83	8.314
457.03	9.216
457.23	8.295
457.43	8.672
457.63	8.139
457.83	8.791
458.03	7.926
458.23	8.551
458.43	7.975
458.64	8.435
458.84	7.927
459.04	8.708
459.24	8.075
459.44	8.828
459.64	8.319
459.84	8.593
460.04	8.447
460.24	8.809
460.44	8.481
460.64	9.047
460.84	8.701
461.04	9.011
461.24	8.995
461.45	9.326
461.65	9.078
461.85	9.549
462.05	9.187
462.25	9.278
462.45	9.114
462.65	9.381
462.85	8.375
463.05	9.216
463.25	7.886
463.45	9.034
463.65	7.854
463.85	8.763
464.05	8.384
464.25	8.234
464.45	8.856
464.65	8.758
464.85	7.745
465.05	8.226
465.26	8.112
465.46	8.750
465.66	8.280
465.86	8.811
466.06	7.948
466.26	8.554
466.46	7.948
466.66	8.434
466.86	8.233
467.06	8.471
467.26	8.008
467.46	9.008
467.66	8.150
467.86	8.513
468.06	8.224
468.26	8.154
468.46	8.497
468.66	8.761
468.86	7.963
469.06	8.763
469.26	7.723
469.46	8.269
469.66	8.078
469.86	8.797
470.06	7.854
470.26	8.929
470.46	8.142
470.66	9.122
470.86	7.591
471.06	8.224
471.26	7.775
471.46	8.233
471.66	8.033
471.86	8.682
472.06	8.210
472.26	8.923
472.46	8.913
472.66	8.445
472.86	8.017
473.06	8.809
473.26	8.285
473.46	8.520
473.66	8.393
473.86	8.703
474.06	7.785
474.26	8.365
474.46	7.920
474.66	8.711
474.86	8.379
475.06	8.686
475.26	7.888
475.46	8.475
475.66	7.204
475.86	8.505
476.06	8.664
476.26	8.388
476.46	7.292
476.66	8.329
476.86	7.932
477.06	8.548
477.26	7.921
477.46	8.588
477.65	8.260
477.85	9.337
478.05	7.616
478.25	9.254
478.45	7.936
478.65	8.812
478.85	8.298
479.05	8.863
479.25	8.289
479.45	9.125
479.65	8.070
479.85	8.512
480.05	8.342
480.25	8.562
480.45	8.173
480.65	8.809
480.85	8.443
481.05	9.021
481.25	8.439
481.44	8.871
481.64	8.247
481.84	8.889
482.04	8.829
482.24	8.732
482.44	8.257
482.64	8.553
482.84	8.456
483.04	8.584
483.24	8.470
483.44	8.512
483.64	8.242
483.84	8.246
484.04	8.680
484.23	8.823
484.43	9.010
484.63	9.228
484.83	9.435
485.03	9.772
485.23	9.659
485.43	9.443
485.63	9.524
485.83	9.757
486.03	9.629
486.23	9.583
486.42	9.620
486.62	9.464
486.82	9.308
487.02	9.249
487.22	9.177
487.42	8.952
487.62	9.123
487.82	8.816
488.02	8.867
488.22	9.098
488.41	9.148
488.61	9.111
488.81	9.143
489.01	9.254
489.21	9.347
489.41	9.384
489.61	9.389
489.81	9.333
490.01	9.464
490.20	9.519
490.40	9.409
490.60	9.386
490.80	9.028
491.00	8.987
491.20	8.641
491.40	8.960
491.60	8.721
491.79	9.077
491.99	9.020
492.19	8.940
492.39	8.935
492.59	9.110
492.79	8.905
492.99	9.367
493.19	9.467
493.38	9.645
493.58	9.568
493.78	9.469
493.98	9.686
494.18	9.540
494.38	9.652
494.58	9.456
494.77	8.845
494.97	9.185
495.17	8.858
495.37	9.285
495.57	9.104
495.77	9.054
495.96	8.825
496.16	8.754
496.36	8.823
496.56	8.902
496.76	8.338
496.96	8.901
497.15	8.872
497.35	9.033
497.55	8.751
497.75	9.306
497.95	8.916
498.15	9.271
498.34	8.989
498.54	9.064
498.74	9.337
498.94	9.270
499.14	9.003
499.34	9.355
499.53	9.153
499.73	9.473
499.93	8.823
500.13	8.870
500.33	8.534
500.52	9.060
500.72	8.977
500.92	9.094
501.12	8.845
501.32	8.861
501.52	9.078
501.71	8.763
501.91	8.508
502.11	9.179
502.31	8.613
502.51	9.013
502.70	8.394
502.90	8.945
503.10	8.773
503.30	8.821
503.50	8.730
503.69	9.110
503.89	8.881
504.09	9.181
504.29	8.586
504.48	9.347
504.68	8.873
504.88	9.410
505.08	8.935
505.28	9.243
505.47	9.275
505.67	9.464
505.87	8.960
506.07	9.287
506.27	9.139
506.46	9.452
506.66	8.921
506.86	9.379
507.06	9.549
507.25	9.310
507.45	8.875
507.65	9.256
507.85	9.304
508.04	9.344
508.24	9.316
508.44	9.281
508.64	8.911
508.83	9.650
509.03	9.279
509.23	9.511
509.43	9.402
509.63	9.598
509.82	9.228
510.02	9.669
510.22	9.535
510.42	9.574
510.61	9.439
510.81	9.415
511.01	9.397
511.21	9.622
511.40	9.168
511.60	9.763
511.80	9.459
511.99	9.525
512.19	9.339
512.39	9.993
512.59	9.646
512.78	10.041
512.98	9.362
513.18	9.945
513.38	9.386
513.57	10.076
513.77	9.456
513.97	9.917
514.17	9.636
514.36	9.974
514.56	9.254
514.76	10.122
514.95	9.379
515.15	9.575
515.35	9.173
515.55	9.810
515.74	9.702
515.94	10.154
516.14	9.370
516.33	9.939
516.53	9.555
516.73	9.855
516.93	9.595
517.12	9.770
517.32	9.227
517.52	9.703
517.71	9.349
517.91	9.903
518.11	9.862
518.30	9.667
518.50	9.557
518.70	9.793
518.90	9.799
519.09	9.882
519.29	9.915
519.49	10.138
519.68	9.924
519.88	10.309
520.08	10.074
520.27	10.254
520.47	10.552
520.67	10.424
520.86	10.441
521.06	10.489
521.26	9.777
521.45	10.294
521.65	10.096
521.85	10.143
522.04	9.723
522.24	10.062
522.44	9.947
522.63	10.301
522.83	10.052
523.03	10.265
523.22	10.061
523.42	10.330
523.62	10.107
523.81	10.091
524.01	10.183
524.21	9.821
524.40	9.906
524.60	10.146
524.80	9.792
524.99	10.043
525.19	9.893
525.39	9.991
525.58	9.822
525.78	10.166
525.98	10.248
526.17	10.043
526.37	9.921
526.57	10.118
526.76	10.394
526.96	10.216
527.15	10.471
527.35	10.415
527.55	10.222
527.74	10.335
527.94	10.186
528.14	9.959
528.33	10.017
528.53	9.887
528.72	10.097
528.92	10.133
529.12	10.284
529.31	10.452
529.51	10.613
529.71	10.423
529.90	10.528
530.10	10.719
530.29	10.830
530.49	11.053
530.69	11.247
530.88	11.001
531.08	10.893
531.28	10.840
531.47	10.683
531.67	10.950
531.86	10.486
532.06	10.850
532.26	10.822
532.45	10.914
532.65	10.481
532.84	10.685
533.04	10.307
533.24	10.498
533.43	10.414
533.63	10.880
533.82	10.913
534.02	10.827
534.22	10.789
534.41	10.924
534.61	11.206
534.80	11.072
535.00	11.159
535.19	10.986
535.39	11.217
535.59	11.225
535.78	11.294
535.98	11.301
536.17	10.940
536.37	10.820
536.57	10.896
536.76	11.266
536.96	10.868
537.15	10.832
537.35	10.917
537.54	11.202
537.74	11.045
537.93	11.215
538.13	11.080
538.33	11.318
538.52	11.497
538.72	11.285
538.91	11.407
539.11	11.676
539.30	11.432
539.50	11.442
539.70	11.681
539.89	11.870
540.09	11.086
540.28	11.625
540.48	10.760
540.67	11.187
540.87	11.183
541.06	10.946
541.26	11.147
541.45	11.152
541.65	11.517
541.85	11.486
542.04	11.548
542.24	11.742
542.43	11.725
542.63	11.812
542.82	11.661
543.02	11.943
543.21	12.276
543.41	12.270
543.60	12.042
543.80	12.208
543.99	12.246
544.19	12.192
544.38	12.331
544.58	12.294
544.77	12.101
544.97	12.413
545.16	12.192
545.36	12.412
545.56	12.406
545.75	12.530
545.95	12.262
546.14	12.173
546.34	12.156
546.53	12.561
546.73	12.281
546.92	12.441
547.12	12.287
547.31	12.854
547.51	12.465
547.70	12.671
547.90	12.823
548.09	12.784
548.29	12.672
548.48	12.834
548.68	12.998
548.87	13.312
549.07	13.327
549.26	13.258
549.46	13.298
549.65	13.356
549.84	12.932
550.04	13.288
550.23	12.800
550.43	12.852
550.62	13.205
550.82	13.302
551.01	12.968
551.21	13.077
551.40	12.997
551.60	13.431
551.79	12.554
551.99	13.709
552.18	13.326
552.38	13.486
552.57	14.147
552.77	13.503
552.96	13.588
553.16	14.145
553.35	13.506
553.54	14.674
553.74	14.171
553.93	14.259
554.13	14.571
554.32	14.683
554.52	14.186
554.71	14.879
554.91	14.088
555.10	14.966
555.29	14.679
555.49	14.743
555.68	14.858
555.88	15.303
556.07	14.693
556.27	15.021
556.46	14.700
556.66	15.011
556.85	15.024
557.04	15.475
557.24	15.301
557.43	15.501
557.63	15.329
557.82	15.413
558.02	15.666
558.21	15.512
558.40	15.527
558.60	16.609
558.79	16.092
558.99	16.012
559.18	15.674
559.38	16.173
559.57	16.386
559.76	16.239
559.96	17.035
560.15	16.704
560.35	15.954
560.54	16.588
560.73	16.397
560.93	17.362
561.12	16.938
561.32	17.323
561.51	17.268
561.70	17.612
561.90	16.816
562.09	18.320
562.29	17.354
562.48	17.730
562.67	18.223
562.87	17.847
563.06	17.869
563.26	18.290
563.45	18.333
563.64	18.722
563.84	18.329
564.03	18.942
564.23	17.911
564.42	18.892
564.61	18.577
564.81	19.408
565.00	19.235
565.20	18.480
565.39	19.348
565.58	19.013
565.78	19.424
565.97	19.277
566.16	19.412
566.36	19.744
566.55	19.809
566.74	20.063
566.94	20.054
567.13	20.234
567.33	20.413
567.52	20.562
567.71	20.798
567.91	20.569
568.10	20.788
568.29	21.026
568.49	20.601
568.68	21.261
568.87	20.548
569.07	21.273
569.26	21.019
569.45	21.011
569.65	20.818
569.84	21.536
570.04	21.005
570.23	21.117
570.42	21.088
570.62	20.862
570.81	21.208
571.00	21.574
571.20	21.322
571.39	21.573
571.58	21.076
571.78	22.412
571.97	21.938
572.16	22.005
572.36	21.765
572.55	21.975
572.74	21.883
572.94	21.854
573.13	22.443
573.32	22.006
573.51	22.422
573.71	22.698
573.90	22.673
574.09	22.543
574.29	22.566
574.48	22.146
574.67	22.743
574.87	22.867
575.06	22.326
575.25	22.916
575.45	22.633
575.64	22.728
575.83	22.555
576.03	23.971
576.22	23.449
576.41	22.374
576.60	23.002
576.80	22.570
576.99	23.199
577.18	23.293
577.38	23.044
577.57	23.264
577.76	22.791
577.95	23.269
578.15	22.730
578.34	23.845
578.53	22.915
578.73	23.542
578.92	23.178
579.11	23.931
579.30	23.440
579.50	23.601
579.69	23.131
579.88	22.905
580.08	23.530
580.27	23.805
580.46	22.901
580.65	23.408
580.85	22.976
581.04	23.067
581.23	23.344
581.42	23.491
581.62	23.407
581.81	23.546
582.00	23.476
582.19	23.227
582.39	23.402
582.58	23.669
582.77	23.630
582.96	23.540
583.16	22.772
583.35	23.526
583.54	23.415
583.73	23.286
583.93	22.927
584.12	23.279
584.31	23.299
584.50	23.052
584.70	23.609
584.89	23.157
585.08	22.846
585.27	23.442
585.47	22.862
585.66	23.512
585.85	23.120
586.04	23.001
586.24	23.342
586.43	23.511
586.62	22.485
586.81	22.950
587.00	22.816
587.20	22.992
587.39	22.380
587.58	22.482
587.77	22.530
587.97	22.480
588.16	22.424
588.35	22.970
588.54	22.837
588.73	22.782
588.93	22.578
589.12	22.977
589.31	22.418
589.50	22.165
589.69	23.222
589.89	22.631
590.08	21.917
590.27	22.627
590.46	23.046
590.65	22.852
590.85	22.676
591.04	23.108
591.23	22.818
591.42	23.101
591.61	22.918
591.81	23.295
592.00	23.036
592.19	22.843
592.38	23.001
592.57	23.043
592.77	23.367
592.96	23.001
593.15	22.583
593.34	23.280
593.53	23.064
593.72	23.387
593.92	22.141
594.11	23.970
594.30	22.451
594.49	23.648
594.68	23.330
594.87	23.646
595.07	22.955
595.26	23.439
595.45	23.121
595.64	22.920
595.83	23.095
596.02	23.701
596.22	23.016
596.41	23.495
596.60	23.012
596.79	23.434
596.98	23.268
597.17	23.818
597.37	23.670
597.56	23.926
597.75	23.283
597.94	23.973
598.13	24.377
598.32	24.256
598.51	24.078
598.71	24.548
598.90	24.202
599.09	24.590
599.28	24.673
599.47	24.743
599.66	24.444
599.85	25.115
600.05	24.089
600.24	24.758
600.43	25.015
600.62	24.843
600.81	24.696
601.00	25.296
601.19	24.966
601.38	24.599
601.58	25.098
601.77	24.913
601.96	25.175
602.15	25.286
602.34	25.515
602.53	24.941
602.72	24.409
602.91	25.163
603.10	24.929
603.30	25.572
603.49	24.727
603.68	25.296
603.87	24.600
604.06	25.342
604.25	25.286
604.44	25.224
604.63	25.073
604.82	25.446
605.01	25.290
605.21	25.559
605.40	25.420
605.59	25.603
605.78	25.720
605.97	25.002
606.16	25.378
606.35	25.056
606.54	25.760
606.73	25.694
606.92	25.592
607.11	25.221
607.30	25.789
607.50	25.947
607.69	24.658
607.88	26.360
608.07	25.401
608.26	25.546
608.45	25.200
608.64	24.791
608.83	24.107
609.02	24.740
609.21	24.803
609.40	24.896
609.59	24.828
609.78	24.798
609.97	24.618
610.16	24.368
610.35	24.499
610.55	24.776
610.74	24.232
610.93	24.520
611.12	24.298
611.31	24.935
611.50	23.844
611.69	24.164
611.88	24.387
612.07	24.797
612.26	23.652
612.45	23.994
612.64	23.456
612.83	23.563
613.02	22.746
613.21	23.258
613.40	23.476
613.59	23.707
613.78	22.644
613.97	22.959
614.16	22.634
614.35	22.882
614.54	22.155
614.73	23.173
614.92	22.537
615.11	22.397
615.30	23.198
615.49	22.769
615.68	22.695
615.87	22.763
616.07	21.510
616.26	21.891
616.45	22.540
616.64	22.002
616.83	21.908
617.02	22.601
617.21	21.083
617.40	22.019
617.59	22.068
617.78	22.090
617.97	20.906
618.16	21.538
618.35	20.759
618.54	20.984
618.73	21.050
618.92	22.189
619.11	21.084
619.30	22.142
619.49	20.264
619.68	20.713
619.86	20.467
620.05	21.725
620.24	20.229
620.43	20.965
620.62	18.700
620.81	20.630
621.00	21.752
621.19	22.527
621.38	21.192
621.57	21.442
621.76	20.766
621.95	21.993
622.14	21.062
622.33	21.391
622.52	19.886
622.71	20.891
622.90	20.053
623.09	20.673
623.28	19.787
623.47	21.280
623.66	20.610
623.85	20.368
624.04	18.992
624.23	20.811
624.42	19.867
624.61	20.359
624.80	19.630
624.99	20.353
625.18	19.272
625.36	20.466
625.55	20.211
625.74	20.437
625.93	19.432
626.12	19.537
626.31	20.896
626.50	20.679
626.69	19.615
626.88	21.021
627.07	20.683
627.26	20.402
627.45	20.332
627.64	20.381
627.83	20.421
628.02	20.408
628.20	19.841
628.39	20.354
628.58	20.687
628.77	20.693
628.96	19.925
629.15	19.730
629.34	20.067
629.53	20.559
629.72	19.336
629.91	20.260
630.10	20.087
630.29	20.661
630.47	19.329
630.66	19.502
630.85	19.028
631.04	20.266
631.23	19.245
631.42	19.485
631.61	18.962
631.80	19.738
631.99	19.389
632.18	19.301
632.36	19.046
632.55	20.655
632.74	18.264
632.93	18.819
633.12	18.299
633.31	19.346
633.50	18.472
633.69	19.111
633.88	18.485
634.06	19.607
634.25	18.119
634.44	19.108
634.63	19.249
634.82	20.072
635.01	18.558
635.20	19.373
635.39	18.615
635.57	20.025
635.76	19.011
635.95	19.482
636.14	18.261
636.33	18.981
636.52	18.709
636.71	19.053
636.89	18.332
637.08	19.705
637.27	18.515
637.46	19.124
637.65	19.496
637.84	18.498
638.03	18.394
638.21	19.225
638.40	18.971
638.59	18.901
638.78	19.235
638.97	19.345
639.16	18.982
639.34	18.377
639.53	18.036
639.72	18.845
639.91	18.171
640.10	18.022
640.29	18.589
640.47	19.232
640.66	18.511
640.85	19.605
641.04	17.680
641.23	18.624
641.42	18.181
641.60	18.126
641.79	18.180
641.98	17.965
642.17	18.568
642.36	19.228
642.54	17.759
642.73	17.827
642.92	17.169
643.11	17.923
643.30	17.183
643.49	18.640
643.67	15.997
643.86	18.538
644.05	17.815
644.24	18.334
644.43	17.285
644.61	18.980
644.80	17.904
644.99	17.460
645.18	19.477
645.37	19.333
645.55	16.947
645.74	18.155
645.93	17.663
646.12	17.948
646.31	17.640
646.49	18.330
646.68	19.059
646.87	18.257
647.06	17.481
647.24	18.758
647.43	16.987
647.62	19.561
647.81	17.376
648.00	18.840
648.18	16.228
648.37	18.268
648.56	17.253
648.75	17.251
648.93	17.177
649.12	17.964
649.31	16.576
649.50	18.565
649.68	17.065
649.87	17.810
650.06	16.806
650.25	18.300
650.43	17.633
650.62	18.324
650.81	16.276
651.00	17.513
651.18	17.728
651.37	19.307
651.56	17.747
651.75	18.232
651.93	17.212
652.12	18.165
652.31	16.881
652.50	17.344
652.68	17.952
652.87	18.847
653.06	17.087
653.25	18.160
653.43	17.856
653.62	18.071
653.81	16.822
654.00	18.920
654.18	17.177
654.37	17.562
654.56	16.005
654.74	17.382
654.93	15.083
655.12	16.672
655.31	16.080
655.49	18.097
655.68	14.007
655.87	15.842
656.05	14.050
656.24	15.325
656.43	14.195
656.62	16.206
656.80	15.225
656.99	15.045
657.18	13.793
657.36	14.265
657.55	15.515
657.74	14.563
657.93	14.597
658.11	15.469
658.30	14.846
658.49	14.162
658.67	13.002
658.86	14.335
659.05	13.501
659.23	15.023
659.42	13.687
659.61	14.570
659.79	13.045
659.98	14.761
660.17	13.511
660.35	14.765
660.54	14.639
660.73	14.877
660.91	13.823
661.10	14.131
661.29	12.194
661.47	13.158
661.66	12.976
661.85	13.003
662.03	12.365
662.22	11.723
662.41	10.447
662.59	11.801
662.78	11.061
662.97	11.117
663.15	10.349
663.34	11.761
663.53	10.413
663.71	11.190
663.90	9.935
664.09	11.828
664.27	10.337
664.46	11.041
664.65	10.362
664.83	10.280
665.02	9.158
665.21	8.633
665.39	7.723
665.58	10.727
665.77	9.883
665.95	10.295
666.14	8.729
666.32	10.251
666.51	10.137
666.70	8.825
666.88	8.157
667.07	10.014
667.26	8.823
667.44	9.334
667.63	10.059
667.81	8.937
668.00	8.985
668.19	10.829
668.37	8.894
668.56	10.237
668.75	8.907
668.93	10.422
669.12	9.013
669.30	9.185
669.49	9.201
669.68	10.288
669.86	9.877
670.05	8.990
670.23	8.198
670.42	10.062
670.61	9.780
670.79	9.908
670.98	9.083
671.16	11.367
671.35	8.516
671.54	9.171
671.72	8.217
671.91	9.869
672.09	8.182
672.28	11.503
672.46	10.866
672.65	10.554
672.84	11.398
673.02	10.406
673.21	8.230
673.39	9.021
673.58	9.900
673.77	10.624
673.95	10.563
674.14	11.830
674.32	9.360
674.51	11.609
674.69	9.828
674.88	10.307
675.07	11.440
675.25	13.175
675.44	11.047
675.62	10.709
675.81	10.577
675.99	15.622
676.18	10.991
676.36	11.533
676.55	10.839
676.74	11.002
676.92	13.148
677.11	11.734
677.29	10.871
677.48	12.841
677.66	12.136
677.85	11.509
678.03	12.521
678.22	13.071
678.40	12.267
678.59	11.946
678.78	10.998
678.96	12.166
679.15	10.661
679.33	13.948
679.52	13.804
679.70	12.529
679.89	12.138
680.07	13.488
680.26	11.313
680.44	12.532
680.63	12.978
680.81	13.237
681.00	10.707
681.18	12.120
681.37	12.868
681.55	13.500
681.74	13.879
681.92	14.151
682.11	13.900
682.29	13.488
682.48	12.660
682.66	14.567
682.85	12.851
683.03	14.648
683.22	14.973
683.40	16.540
683.59	13.953
683.77	14.821
683.96	12.343
684.14	16.102
684.33	12.244
684.51	17.193
684.70	14.841
684.88	17.043
685.07	15.227
685.25	16.628
685.44	13.766
685.62	16.804
685.81	15.209
685.99	17.446
686.18	14.628
686.36	17.207
686.55	15.877
686.73	16.720
686.92	16.160
687.10	18.846
687.29	17.964
687.47	18.547
687.65	17.917
687.84	18.246
688.02	20.952
688.21	21.905
688.39	17.767
688.58	21.626
688.76	19.834
688.95	19.331
689.13	20.043
689.32	21.781
689.50	21.781
689.68	22.686
689.87	20.663
690.05	22.994
690.24	22.541
690.42	23.980
690.61	23.459
690.79	24.700
690.98	24.520
691.16	25.253
691.34	24.032
691.53	26.422
691.71	24.348
691.90	28.255
692.08	25.285
692.27	28.994
692.45	28.460
692.63	27.187
692.82	28.428
693.00	30.702
693.19	27.823
693.37	31.791
693.56	31.686
693.74	32.785
693.92	29.518
694.11	32.350
694.29	31.169
694.48	35.085
694.66	33.943
694.84	35.391
695.03	33.519
695.21	37.912
695.40	35.872
695.58	38.347
695.76	35.516
695.95	39.465
696.13	39.576
696.32	38.105
696.50	41.932
696.68	40.353
696.87	38.175
697.05	41.290
697.24	40.675
697.42	43.746
697.60	40.208
697.79	42.805
697.97	42.105
698.16	43.185
698.34	42.623
698.52	44.228
698.71	43.554
698.89	44.073
699.07	43.943
699.26	45.234
699.44	44.623
699.63	45.586
699.81	45.325
699.99	45.721
700.18	46.012
700.36	47.725
700.54	46.374
700.73	46.381
700.91	48.486
701.09	47.789
701.28	49.149
701.46	48.215
701.64	49.387
701.83	50.056
702.01	49.935
702.20	50.704
702.38	52.035
702.56	51.595
702.75	50.253
702.93	53.679
703.11	50.106
703.30	54.161
703.48	53.701
703.66	55.272
703.85	55.375
704.03	57.694
704.21	56.073
704.40	56.340
704.58	54.719
704.76	57.523
704.95	56.687
705.13	58.741
705.31	56.392
705.50	58.275
705.68	55.531
705.86	59.363
706.04	56.192
706.23	58.479
706.41	59.125
706.59	57.759
706.78	54.726
706.96	57.126
707.14	58.734
707.33	61.113
707.51	58.269
707.69	59.064
707.88	58.897
708.06	60.875
708.24	58.249
708.42	60.422
708.61	61.006
708.79	60.107
708.97	59.169
709.16	61.584
709.34	62.634
709.52	60.097
709.71	58.848
709.89	60.027
710.07	57.552
710.25	62.632
710.44	61.556
710.62	61.495
710.80	59.607
710.98	61.567
711.17	60.881
711.35	60.357
711.53	60.227
711.72	61.202
711.90	59.277
712.08	60.850
712.26	59.264
712.45	60.569
712.63	61.730
712.81	61.551
712.99	62.516
713.18	59.737
713.36	62.290
713.54	63.212
713.72	61.145
713.91	62.731
714.09	60.977
714.27	61.328
714.45	61.494
714.64	64.864
714.82	61.642
715.00	62.551
715.18	63.626
715.37	63.928
715.55	63.744
715.73	62.446
715.91	62.486
716.10	61.087
716.28	61.524
716.46	63.966
716.64	62.678
716.83	63.242
717.01	63.474
717.19	62.391
717.37	61.972
717.55	63.967
717.74	60.908
717.92	61.287
718.10	61.938
718.28	64.348
718.47	62.463
718.65	64.332
718.83	65.598
719.01	63.011
719.19	60.658
719.38	65.790
719.56	63.801
719.74	65.386
719.92	64.103
720.10	62.888
720.29	63.717
720.47	64.462
720.65	65.511
720.83	67.080
721.01	63.793
721.20	65.366
721.38	63.786
721.56	65.974
721.74	64.370
721.92	67.930
722.11	65.413
722.29	69.601
722.47	65.800
722.65	67.633
722.83	67.378
723.01	68.256
723.20	65.807
723.38	67.609
723.56	66.214
723.74	68.929
723.92	66.336
724.10	65.408
724.29	65.119
724.47	67.811
724.65	65.568
724.83	68.294
725.01	67.592
725.19	65.259
725.38	67.307
725.56	66.697
725.74	65.698
725.92	65.539
726.10	64.994
726.28	67.236
726.46	66.469
726.65	67.587
726.83	63.552
727.01	67.084
727.19	68.547
727.37	66.074
727.55	67.275
727.73	65.549
727.92	67.607
728.10	69.252
728.28	63.719
728.46	67.062
728.64	68.311
728.82	66.952
729.00	67.452
729.19	68.633
729.37	65.285
729.55	65.167
729.73	67.394
729.91	67.181
730.09	65.557
730.27	67.842
730.45	64.389
730.63	67.191
730.82	67.357
731.00	69.365
731.18	65.332
731.36	68.432
731.54	67.129
731.72	68.277
731.90	68.811
732.08	67.562
732.26	65.295
732.45	67.777
732.63	67.124
732.81	67.846
732.99	67.053
733.17	68.927
733.35	67.908
733.53	67.798
733.71	69.404
733.89	68.316
734.07	68.851
734.25	67.238
734.44	64.856
734.62	69.200
734.80	66.006
734.98	68.995
735.16	68.969
735.34	69.772
735.52	69.511
735.70	68.320
735.88	71.785
736.06	68.082
736.24	72.086
736.42	71.255
736.60	71.390
736.78	72.761
736.97	70.810
737.15	72.769
737.33	70.501
737.51	70.628
737.69	71.104
737.87	69.263
738.05	70.910
738.23	70.000
738.41	68.286
738.59	72.650
738.77	73.323
738.95	73.073
739.13	72.499
739.31	73.162
739.49	70.783
739.67	69.322
739.85	71.137
740.03	72.885
740.21	70.462
740.39	69.075
740.57	70.771
740.75	72.257
740.93	69.677
741.11	71.465
741.30	69.951
741.48	69.913
741.66	73.474
741.84	70.184
742.02	73.006
742.20	71.543
742.38	71.527
742.56	75.472
742.74	69.311
742.92	69.995
743.10	70.615
743.28	72.934
743.46	69.881
743.64	72.293
743.82	74.371
744.00	74.791
744.18	72.079
744.36	72.591
744.54	72.478
744.72	71.628
744.90	72.423
745.08	72.501
745.26	70.213
745.44	75.182
745.62	70.276
745.80	72.970
745.98	74.459
746.16	77.823
746.34	72.411
746.52	73.316
746.70	72.131
746.87	74.158
747.05	73.036
747.23	75.708
747.41	75.033
747.59	71.401
747.77	72.389
747.95	75.789
748.13	72.774
748.31	74.530
748.49	71.878
748.67	71.991
748.85	74.293
749.03	73.672
749.21	73.356
749.39	74.583
749.57	72.530
749.75	72.345
749.93	75.779
750.11	72.102
750.29	72.502
750.47	71.549
750.65	69.765
750.83	70.270
751.01	71.300
751.18	72.113
751.36	73.072
751.54	75.475
751.72	72.534
751.90	73.984
752.08	74.553
752.26	72.159
752.44	74.640
752.62	72.470
752.80	75.299
752.98	72.812
753.16	70.655
753.34	74.158
753.52	72.829
753.69	73.694
753.87	70.106
754.05	72.080
754.23	72.426
754.41	73.035
754.59	69.795
754.77	72.802
754.95	74.290
755.13	74.812
755.31	69.680
755.49	73.215
755.66	71.553
755.84	70.808
756.02	71.225
756.20	72.757
756.38	68.406
756.56	74.716
756.74	67.825
756.92	74.473
757.10	73.000
757.28	76.368
757.45	74.079
757.63	70.934
757.81	68.245
757.99	74.710
758.17	74.109
758.35	72.558
758.53	69.474
758.71	70.283
758.88	69.274
759.06	73.570
759.24	68.742
759.42	68.742
759.60	70.660
759.78	66.944
759.96	64.604
760.13	69.179
760.31	62.907
760.49	66.000
760.67	60.929
760.85	63.056
761.03	62.736
761.21	61.740
761.38	58.729
761.56	65.141
761.74	63.729
761.92	68.999
762.10	58.185
762.28	64.529
762.46	58.333
762.63	62.536
762.81	60.218
762.99	61.960
763.17	61.986
763.35	63.540
763.53	58.541
763.70	63.015
763.88	65.002
764.06	62.571
764.24	63.501
764.42	63.015
764.60	61.640
764.77	62.642
764.95	62.663
765.13	65.102
765.31	62.845
765.49	64.277
765.66	62.860
765.84	63.278
766.02	62.275
766.20	67.225
766.38	64.675
766.56	66.460
766.73	62.046
766.91	64.212
767.09	66.619
767.27	66.965
767.45	64.667
767.62	67.574
767.80	64.522
767.98	71.256
768.16	66.892
768.33	70.642
768.51	70.539
768.69	70.524
768.87	67.077
769.05	69.795
769.22	64.493
769.40	68.355
769.58	73.019
769.76	71.197
769.94	72.032
770.11	66.812
770.29	75.389
770.47	71.778
770.65	71.296
770.82	73.526
771.00	70.932
771.18	71.080
771.36	71.319
771.53	70.114
771.71	69.701
771.89	74.970
772.07	70.596
772.25	72.041
772.42	67.424
772.60	73.256
772.78	70.896
772.96	75.607
773.13	72.145
773.31	77.277
773.49	68.489
773.67	69.983
773.84	70.713
774.02	72.544
774.20	74.771
774.37	67.895
774.55	68.099
774.73	79.367
774.91	70.127
775.08	72.470
775.26	71.078
775.44	72.774
775.62	69.831
775.79	74.023
775.97	70.568
776.15	71.707
776.32	70.582
776.50	75.256
776.68	73.684
776.86	73.518
777.03	70.369
777.21	70.766
777.39	70.841
777.56	76.383
777.74	73.448
777.92	72.300
778.10	68.903
778.27	73.737
778.45	72.759
778.63	75.693
778.80	69.990
778.98	73.784
779.16	75.704
779.34	73.564
779.51	71.759
779.69	74.533
779.87	71.594
780.04	71.558
780.22	71.481
780.40	74.273
780.57	72.045
780.75	74.040
780.93	79.476
781.10	76.868
781.28	78.701
781.46	68.492
781.63	69.141
781.81	71.994
781.99	66.974
782.16	73.834
782.34	66.987
782.52	72.997
782.69	76.128
782.87	79.550
783.05	74.150
783.22	74.239
783.40	72.237
783.58	76.394
783.75	70.143
783.93	76.133
784.11	73.609
784.28	73.876
784.46	71.389
784.64	75.674
784.81	72.311
784.99	77.957
785.17	69.261
785.34	73.068
785.52	67.208
785.69	69.675
785.87	69.877
786.05	68.328
786.22	63.946
786.40	74.392
786.58	73.203
786.75	76.094
786.93	69.641
787.11	72.222
787.28	70.215
787.46	70.650
787.63	73.531
787.81	70.299
787.99	71.806
788.16	72.853
788.34	66.083
788.51	72.850
788.69	71.510
788.87	71.363
789.04	62.877
789.22	66.570
789.39	67.029
789.57	67.686
789.75	65.005
789.92	64.011
790.10	66.810
790.27	71.186
790.45	65.575
790.63	73.698
790.80	62.287
790.98	72.027
791.15	68.247
791.33	67.321
791.51	65.873
791.68	70.705
791.86	71.437
792.03	73.663
792.21	61.513
792.39	71.111
792.56	69.499
792.74	72.701
792.91	70.220
793.09	69.391
793.26	63.466
793.44	74.274
793.62	70.246
793.79	73.269
793.97	66.608
794.14	68.201
794.32	69.635
794.49	76.437
794.67	60.024
794.84	65.225
795.02	67.089
795.20	72.781
795.37	63.155
795.55	75.858
795.72	73.154
795.90	72.097
796.07	69.586
796.25	71.298
796.42	64.709
796.60	70.729
796.77	67.762
796.95	66.025
797.13	60.460
797.30	69.125
797.48	65.348
797.65	71.057
797.83	66.945
798.00	69.499
798.18	60.474
798.35	74.117
798.53	67.181
798.70	71.982
798.88	69.349
799.05	65.870
799.23	68.458
799.40	66.416
799.58	69.171
799.75	70.012
799.93	62.745
800.10	69.532
800.28	73.932
800.45	68.076
800.63	65.031
800.80	69.609
800.98	68.427
801.15	65.996
801.33	65.385
801.50	71.146
801.68	65.132
801.85	63.613
802.03	63.102
802.20	67.379
802.38	68.667
802.55	61.887
802.73	68.389
802.90	64.170
803.08	65.598
803.25	73.065
803.43	66.730
803.60	71.944
803.78	68.878
803.95	66.013
804.13	65.050
804.30	69.142
804.48	63.398
804.65	75.035
804.83	66.443
805.00	73.202
805.17	69.363
805.35	66.518
805.52	61.650
805.70	67.701
805.87	67.784
806.05	69.125
806.22	63.665
806.40	65.972
806.57	64.336
806.75	71.429
806.92	75.475
807.09	69.331
807.27	67.582
807.44	70.894
807.62	58.736
807.79	63.810
807.97	67.060
808.14	72.388
808.31	65.705
808.49	63.808
808.66	67.320
808.84	60.370
809.01	67.532
809.19	66.109
809.36	67.855
809.53	72.318
809.71	57.429
809.88	75.666
810.06	75.378
810.23	67.881
810.41	71.576
810.58	74.487
810.75	67.323
810.93	70.030
811.10	66.257
811.28	71.228
811.45	63.587
811.62	65.921
811.80	63.275
811.97	70.114
812.15	72.858
812.32	65.277
812.49	59.836
812.67	71.828
812.84	64.834
813.02	72.648
813.19	61.451
813.36	71.061
813.54	69.682
813.71	67.271
813.89	64.770
814.06	65.272
814.23	63.265
814.41	60.333
814.58	62.820
814.75	60.717
814.93	62.951
815.10	68.940
815.28	61.985
815.45	59.733
815.62	65.542
815.80	61.953
815.97	60.777
816.14	65.259
816.32	56.628
816.49	65.653
816.66	59.548
816.84	55.736
817.01	61.194
817.18	66.243
817.36	51.819
817.53	71.127
817.71	56.215
817.88	64.459
818.05	55.149
818.23	62.360
818.40	57.975
818.57	63.670
818.75	59.848
818.92	58.057
819.09	59.631
819.27	67.003
819.44	58.706
819.61	57.670
819.79	56.417
819.96	63.761
820.13	60.825
820.31	59.668
820.48	57.763
820.65	58.230
820.82	57.291
821.00	62.961
821.17	51.639
821.34	61.907
821.52	66.667
821.69	59.356
821.86	59.110
822.04	64.588
822.21	57.963
822.38	61.043
822.56	60.016
822.73	60.802
822.90	57.747
823.07	60.294
823.25	57.655
823.42	59.628
823.59	56.753
823.77	58.795
823.94	56.099
824.11	56.676
824.29	56.631
824.46	58.124
824.63	56.245
824.80	55.492
824.98	55.845
825.15	58.440
825.32	56.811
825.49	58.905
825.67	58.032
825.84	60.346
826.01	62.046
826.19	61.375
826.36	55.900
826.53	61.892
826.70	59.309
826.88	60.325
827.05	58.417
827.22	59.916
827.39	58.610
827.57	58.725
827.74	57.239
827.91	58.761
828.08	57.099
828.26	59.068
828.43	55.291
828.60	62.354
828.77	58.958
828.95	60.455
829.12	53.151
829.29	54.163
829.46	57.393
829.64	54.969
829.81	52.490
829.98	61.869
830.15	57.283
830.32	59.003
830.50	54.126
830.67	56.405
830.84	50.025
831.01	51.081
831.19	53.548
831.36	61.064
831.53	62.578
831.70	64.679
831.87	53.939
832.05	65.356
832.22	59.010
832.39	52.515
832.56	52.149
832.74	56.402
832.91	57.506
833.08	60.438
833.25	53.873
833.42	58.403
833.60	57.335
833.77	54.434
833.94	53.320
834.11	57.717
834.28	49.653
834.45	52.126
834.63	51.473
834.80	54.508
834.97	53.218
835.14	57.919
835.31	57.367
835.49	52.756
835.66	54.284
835.83	55.329
836.00	50.700
836.17	54.874
836.34	46.862
836.52	55.139
836.69	58.014
836.86	53.630
837.03	57.499
837.20	56.047
837.37	51.481
837.55	51.953
837.72	51.743
837.89	59.433
838.06	56.659
838.23	60.390
838.40	59.877
838.58	58.834
838.75	56.296
838.92	66.476
839.09	65.534
839.26	68.913
839.43	62.930
839.60	77.234
839.78	74.971
839.95	69.390
840.12	58.762
840.29	66.812
840.46	66.735
840.63	65.066
840.80	57.760
840.98	69.990
841.15	60.782
841.32	59.960
841.49	49.907
841.66	73.871
841.83	63.263
842.00	53.261
842.17	65.107
842.34	60.338
842.52	67.616
842.69	66.782
842.86	64.026
843.03	80.704
843.20	67.512
843.37	70.125
843.54	78.372
843.71	78.514
843.88	59.470
844.06	78.843
844.23	83.077
844.40	73.270
844.57	73.171
844.74	79.507
844.91	69.565
845.08	70.000
845.25	82.155
845.42	86.546
845.59	80.447
845.76	74.957
845.94	79.741
846.11	85.229
846.28	99.786
846.45	108.589
846.62	107.576
846.79	75.189
846.96	88.932
847.13	111.019
847.30	86.042
847.47	78.755
847.64	89.095
847.81	88.750
847.98	104.025
848.15	83.068
848.32	90.053
848.50	91.558
848.67	98.851
848.84	96.242
849.01	89.020
849.18	101.415
849.35	92.375
849.52	93.506
849.69	94.883
849.86	112.959
850.03	93.958
850.20	101.333
850.37	78.696
850.54	104.946
850.71	83.951
850.88	114.615
851.05	92.936
851.22	97.430
851.39	93.612
851.56	88.670
851.73	102.582
851.90	113.936
852.07	87.579
852.24	94.152
852.41	102.257
852.58	90.611
852.75	94.470
852.92	92.585
853.09	98.901
853.26	103.704
853.43	97.028
853.60	102.074
853.77	91.350
853.94	85.806
854.11	110.909
854.28	109.070
854.45	95.804
854.62	79.826
854.79	105.455
854.96	89.530
855.13	98.864
855.30	95.181
855.47	106.166
855.64	95.391
855.81	105.013
855.98	106.840
856.15	100.000
856.32	97.403
856.49	98.592
856.66	99.068
856.83	94.831
857.00	97.714
857.17	111.084
857.34	103.896
857.51	104.942
857.68	95.579
857.85	92.308
858.02	103.944
858.19	91.283
858.36	101.559
858.53	94.565
858.70	94.949
858.87	87.611
859.04	72.521
859.21	82.020
859.38	114.623
859.55	138.344
859.72	92.396
859.89	115.750
860.05	117.442
860.22	115.616
860.39	97.970
860.56	126.100
860.73	101.071
860.90	133.435
861.07	114.249
861.24	97.192
861.41	103.171
861.58	103.266
861.75	96.842
861.92	149.677
862.09	86.683
862.26	99.749
862.43	101.163
862.59	111.163
862.76	132.133
862.93	109.773
863.10	122.849
863.27	97.772
863.44	105.181
863.61	112.752
863.78	75.724
863.95	124.709
864.12	100.000
864.29	100.464
864.45	100.837
864.62	90.196
864.79	96.796
864.96	86.473
865.13	103.686
865.30	96.414
865.47	109.069
865.64	98.807
865.81	81.481
865.97	88.112
866.14	97.090
866.31	110.355
866.48	124.501
866.65	101.662
866.82	100.439
866.99	107.821
867.16	101.709
867.33	111.529
867.49	93.682
867.66	140.214
867.83	87.464
868.00	100.244
868.17	115.644
868.34	113.115
868.51	99.307
868.67	112.877
868.84	105.789
869.01	107.263
869.18	125.135
869.35	105.251
869.52	79.176
869.69	93.827
869.85	109.832
870.02	94.484
870.19	100.668
870.36	107.176
870.53	86.433
870.70	106.757
870.86	115.508
871.03	99.355
871.20	100.220
871.37	106.948
871.54	94.103
871.71	98.333
871.87	78.587
872.04	92.701
872.21	81.038
872.38	97.899
872.55	117.037
872.72	100.287
872.88	113.253
873.05	87.441
873.22	98.446
873.39	83.488
873.56	94.545
873.72	108.796
873.89	96.354
874.06	92.328
874.23	97.331
874.40	108.158
874.56	124.290
874.73	103.514
874.90	107.868
875.07	105.476
875.24	89.950
875.40	101.082
875.57	89.027
875.74	106.803
875.91	102.824
876.08	108.501
876.24	80.508
876.41	122.455
876.58	77.283
876.75	84.533
876.92	94.313
877.08	111.749
877.25	112.329
877.42	87.222
877.59	83.254
877.75	115.325
877.92	73.864
878.09	90.927
878.26	79.108
878.42	97.739
878.59	83.491
878.76	91.540
878.93	132.286
879.09	85.425
879.26	84.749
879.43	92.100
879.60	81.343
879.76	85.651
879.93	72.043
880.10	75.619
880.27	78.978
880.43	86.219
880.60	71.507
880.77	63.830
880.94	68.952
881.10	60.554
881.27	49.944
881.44	46.922
881.61	51.626
881.77	48.222
881.94	46.419
882.11	41.009
882.28	45.503
882.44	46.087
882.61	50.329
882.78	49.535
882.94	59.041
883.11	49.809
883.28	51.433
883.45	55.004
883.61	50.798
883.78	51.042
883.95	53.878
884.11	49.155
884.28	47.320
>>>>>End Processed Spectral Data<<<<<
