SpectraSuite Data File
++++++++++++++++++++++++++++++++++++
Date: Wed Sep 25 03:36:21 EST 2019
User: sgrac
Dark Spectrum Present: Yes
Reference Spectrum Present: Yes
Number of Sampled Component Spectra: 1
Spectrometers: USB4E01596
Integration Time (usec): 100000 (USB4E01596)
Spectra Averaged: 3 (USB4E01596)
Boxcar Smoothing: 0 (USB4E01596)
Correct for Electrical Dark: No (USB4E01596)
Strobe/Lamp Enabled: Yes (USB4E01596)
Correct for Detector Non-linearity: No (USB4E01596)
Correct for Stray Light: No (USB4E01596)
Number of Pixels in Processed Spectrum: 3648
>>>>>Begin Processed Spectral Data<<<<<
178.44	-375.000
178.66	-375.000
178.87	-375.000
179.09	-700.000
179.30	809.677
179.52	1243.478
179.74	-805.263
179.95	-459.259
180.17	597.959
180.38	-1121.429
180.60	-2293.333
180.82	-4866.667
181.03	820.930
181.25	-2775.000
181.46	-395.833
181.68	469.231
181.89	-1100.000
182.11	9233.333
182.33	673.077
182.54	-19550.000
182.76	670.588
182.97	984.211
183.19	1208.333
183.40	680.435
183.62	1315.000
183.84	469.048
184.05	1484.615
184.27	-2563.636
184.48	33500.000
184.70	1218.519
184.91	677.358
185.13	2650.000
185.34	705.085
185.56	395.402
185.78	1366.667
185.99	670.000
186.21	424.096
186.42	1285.714
186.64	-3588.889
186.85	870.732
187.07	-1276.000
187.28	367.708
187.50	-588.372
187.72	1719.048
187.93	1218.919
188.15	2092.857
188.36	683.333
188.58	605.000
188.79	581.250
189.01	634.426
189.22	440.860
189.44	373.585
189.65	-890.244
189.87	1325.000
190.09	375.000
190.30	339.815
190.52	-422.414
190.73	366.265
190.95	-2542.857
191.16	715.217
191.38	636.538
191.59	537.037
191.81	1394.444
192.02	-3400.000
192.24	-2981.818
192.45	554.839
192.67	-7720.000
192.88	309.302
193.10	548.529
193.31	281.967
193.53	-409.677
193.74	2463.636
193.96	-6650.000
194.18	2514.286
194.39	442.373
194.61	1247.222
194.82	392.045
195.04	290.351
195.25	533.333
195.47	-30700.000
195.68	547.692
195.90	425.556
196.11	1328.571
196.33	-376.190
196.54	1132.143
196.76	574.194
196.97	238.889
197.19	293.233
197.40	-465.333
197.62	675.000
197.83	2311.765
198.05	432.500
198.26	685.417
198.48	2011.765
198.69	-735.897
198.91	537.500
199.12	-14400.000
199.34	780.488
199.55	1625.000
199.77	580.952
199.98	1747.619
200.20	516.667
200.41	413.636
200.63	434.146
200.84	682.222
201.06	284.177
201.27	-521.053
201.49	-4085.714
201.70	487.013
201.91	-4500.000
202.13	-1562.500
202.34	-1054.545
202.56	1521.053
202.77	826.316
202.99	746.809
203.20	411.828
203.42	622.807
203.63	528.169
203.85	-2466.667
204.06	1440.909
204.28	-6120.000
204.49	1266.667
204.71	348.387
204.92	576.471
205.14	2206.250
205.35	900.000
205.56	2242.857
205.78	734.545
205.99	398.780
206.21	994.872
206.42	488.136
206.64	631.250
206.85	741.860
207.07	-810.526
207.28	466.667
207.50	775.676
207.71	1150.000
207.93	373.737
208.14	596.000
208.35	795.455
208.57	2386.667
208.78	1584.000
209.00	651.064
209.21	742.222
209.43	400.000
209.64	-3381.818
209.86	730.769
210.07	-1500.000
210.28	426.087
210.50	1763.158
210.71	247.857
210.93	516.667
211.14	430.000
211.36	-2600.000
211.57	565.278
211.78	622.000
212.00	731.915
212.21	827.027
212.43	29400.000
212.64	1000.000
212.86	583.333
213.07	1296.970
213.29	-2640.000
213.50	1190.323
213.71	1476.000
213.93	1966.667
214.14	320.000
214.36	243.671
214.57	596.721
214.78	778.431
215.00	491.176
215.21	2615.385
215.43	251.515
215.64	797.674
215.86	912.121
216.07	562.222
216.28	1395.652
216.50	362.037
216.71	565.517
216.93	931.579
217.14	233.333
217.35	1100.000
217.57	282.258
217.78	1721.053
218.00	487.209
218.21	1535.000
218.42	10033.333
218.64	293.277
218.85	751.111
219.07	622.951
219.28	340.351
219.49	1136.364
219.71	409.459
219.92	1565.000
220.14	1893.750
220.35	568.182
220.56	224.516
220.78	6300.000
220.99	484.146
221.21	295.763
221.42	741.463
221.63	580.000
221.85	691.304
222.06	270.085
222.28	931.579
222.49	645.000
222.70	313.761
222.92	460.674
223.13	423.864
223.34	300.787
223.56	349.275
223.77	444.444
223.99	1319.231
224.20	262.937
224.41	274.590
224.63	268.852
224.84	454.930
225.05	412.088
225.27	406.494
225.48	361.321
225.69	217.857
225.91	853.846
226.12	273.881
226.34	263.448
226.55	187.826
226.76	213.143
226.98	181.356
227.19	195.402
227.40	140.090
227.62	137.247
227.83	121.352
228.04	131.058
228.26	78.947
228.47	99.744
228.69	81.955
228.90	62.084
229.11	61.553
229.33	62.986
229.54	40.664
229.75	44.129
229.97	47.351
230.18	40.237
230.39	32.494
230.61	49.036
230.82	40.537
231.03	37.935
231.25	43.308
231.46	45.200
231.67	48.745
231.89	40.736
232.10	49.934
232.31	47.619
232.53	61.089
232.74	50.971
232.95	60.998
233.17	60.971
233.38	54.699
233.59	66.147
233.81	74.556
234.02	55.253
234.23	69.094
234.45	72.727
234.66	63.006
234.87	67.298
235.09	61.300
235.30	58.451
235.51	64.399
235.73	53.377
235.94	54.628
236.15	53.028
236.36	46.387
236.58	52.269
236.79	44.844
237.00	59.531
237.22	58.610
237.43	47.145
237.64	46.285
237.86	54.128
238.07	47.180
238.28	55.250
238.50	45.116
238.71	42.105
238.92	53.333
239.13	54.658
239.35	60.870
239.56	45.364
239.77	64.578
239.99	48.605
240.20	56.904
240.41	39.975
240.63	44.000
240.84	38.755
241.05	35.831
241.26	29.732
241.48	26.478
241.69	31.422
241.90	24.041
242.12	20.396
242.33	24.633
242.54	20.682
242.75	18.686
242.97	21.407
243.18	14.759
243.39	19.806
243.61	18.083
243.82	15.141
244.03	14.634
244.24	13.745
244.46	17.487
244.67	18.177
244.88	17.825
245.09	19.127
245.31	19.708
245.52	17.919
245.73	23.686
245.95	39.099
246.16	22.988
246.37	21.128
246.58	21.151
246.80	16.895
247.01	14.204
247.22	13.507
247.43	11.072
247.65	11.466
247.86	12.487
248.07	10.195
248.28	10.390
248.50	10.348
248.71	10.634
248.92	8.329
249.13	9.532
249.35	10.376
249.56	11.688
249.77	11.441
249.98	12.755
250.20	16.513
250.41	11.569
250.62	15.166
250.83	17.485
251.05	25.025
251.26	15.417
251.47	15.311
251.68	20.749
251.90	18.411
252.11	24.098
252.32	23.738
252.53	20.622
252.75	20.405
252.96	16.722
253.17	19.173
253.38	17.096
253.59	16.259
253.81	17.196
254.02	14.272
254.23	17.974
254.44	18.990
254.66	19.716
254.87	24.323
255.08	20.623
255.29	23.317
255.50	26.187
255.72	21.429
255.93	29.575
256.14	19.463
256.35	22.188
256.57	28.582
256.78	26.003
256.99	22.382
257.20	25.236
257.41	24.735
257.63	19.238
257.84	18.176
258.05	20.527
258.26	15.419
258.47	20.746
258.69	15.943
258.90	15.941
259.11	18.838
259.32	14.851
259.53	14.770
259.75	11.875
259.96	8.201
260.17	5.844
260.38	8.868
260.59	7.034
260.81	6.983
261.02	7.321
261.23	6.259
261.44	9.200
261.65	7.966
261.87	6.382
262.08	6.628
262.29	10.923
262.50	8.424
262.71	8.413
262.92	9.729
263.14	10.150
263.35	10.272
263.56	15.772
263.77	14.370
263.98	13.211
264.20	13.072
264.41	15.527
264.62	12.620
264.83	16.891
265.04	19.964
265.25	14.438
265.47	17.804
265.68	17.909
265.89	17.462
266.10	14.908
266.31	17.379
266.52	13.420
266.74	15.867
266.95	14.502
267.16	14.142
267.37	17.708
267.58	10.269
267.79	10.845
268.01	12.124
268.22	9.480
268.43	13.298
268.64	12.586
268.85	9.143
269.06	7.960
269.27	14.925
269.49	13.039
269.70	12.766
269.91	11.652
270.12	13.294
270.33	13.302
270.54	12.937
270.75	13.347
270.97	11.885
271.18	13.383
271.39	10.173
271.60	12.868
271.81	10.503
272.02	9.972
272.23	12.260
272.45	8.745
272.66	9.639
272.87	7.735
273.08	9.399
273.29	9.276
273.50	8.044
273.71	8.343
273.92	8.359
274.14	9.082
274.35	9.266
274.56	9.322
274.77	9.599
274.98	9.651
275.19	10.297
275.40	9.749
275.61	11.039
275.83	14.352
276.04	10.992
276.25	13.988
276.46	10.752
276.67	15.881
276.88	9.170
277.09	11.837
277.30	10.906
277.51	11.551
277.73	12.293
277.94	11.104
278.15	11.043
278.36	14.132
278.57	10.819
278.78	9.307
278.99	10.878
279.20	12.716
279.41	13.363
279.62	11.225
279.84	9.970
280.05	12.784
280.26	11.363
280.47	10.629
280.68	11.884
280.89	11.445
281.10	11.857
281.31	10.753
281.52	9.903
281.73	7.737
281.94	8.496
282.16	10.349
282.37	8.082
282.58	8.034
282.79	10.702
283.00	9.816
283.21	7.992
283.42	8.284
283.63	9.350
283.84	7.726
284.05	8.200
284.26	8.674
284.47	6.887
284.68	8.387
284.89	8.985
285.11	9.170
285.32	8.213
285.53	7.252
285.74	7.761
285.95	7.989
286.16	7.821
286.37	8.537
286.58	7.321
286.79	6.949
287.00	8.603
287.21	7.018
287.42	8.423
287.63	6.400
287.84	7.164
288.05	8.058
288.26	9.017
288.48	9.299
288.69	6.964
288.90	9.188
289.11	8.174
289.32	8.293
289.53	8.162
289.74	6.238
289.95	7.054
290.16	9.566
290.37	7.725
290.58	7.393
290.79	8.480
291.00	7.405
291.21	6.499
291.42	7.920
291.63	6.345
291.84	7.086
292.05	8.268
292.26	6.990
292.47	8.042
292.68	6.360
292.89	10.703
293.10	8.163
293.31	6.714
293.52	9.270
293.73	7.992
293.94	10.420
294.15	7.760
294.36	10.365
294.57	8.818
294.79	8.962
295.00	7.763
295.21	9.250
295.42	8.118
295.63	9.702
295.84	7.136
296.05	6.240
296.26	7.580
296.47	7.631
296.68	6.686
296.89	9.737
297.10	7.635
297.31	7.396
297.52	7.420
297.73	6.255
297.94	4.677
298.15	6.922
298.36	7.008
298.57	4.966
298.78	6.075
298.99	5.902
299.20	5.685
299.41	7.867
299.62	5.395
299.83	6.503
300.04	7.868
300.25	6.766
300.46	7.160
300.67	8.047
300.88	8.025
301.09	6.938
301.30	8.526
301.50	6.877
301.71	9.369
301.92	9.571
302.13	7.579
302.34	8.052
302.55	8.663
302.76	9.012
302.97	8.176
303.18	9.445
303.39	7.548
303.60	8.172
303.81	9.371
304.02	7.798
304.23	8.406
304.44	7.984
304.65	9.897
304.86	8.478
305.07	8.944
305.28	9.871
305.49	9.762
305.70	8.148
305.91	5.710
306.12	10.169
306.33	7.844
306.54	8.996
306.75	8.975
306.96	10.609
307.17	7.692
307.38	9.105
307.58	8.936
307.79	8.254
308.00	8.786
308.21	9.421
308.42	7.800
308.63	10.253
308.84	6.782
309.05	5.663
309.26	8.234
309.47	6.862
309.68	7.384
309.89	8.236
310.10	4.880
310.31	7.033
310.52	6.197
310.73	7.019
310.94	6.610
311.14	7.060
311.35	6.414
311.56	6.088
311.77	5.897
311.98	5.499
312.19	5.921
312.40	6.470
312.61	6.798
312.82	6.483
313.03	5.865
313.24	7.231
313.45	5.877
313.66	7.718
313.86	9.466
314.07	6.284
314.28	8.776
314.49	7.084
314.70	6.355
314.91	10.401
315.12	9.260
315.33	9.121
315.54	8.754
315.75	8.996
315.96	8.789
316.16	7.899
316.37	9.104
316.58	5.663
316.79	8.040
317.00	8.677
317.21	7.976
317.42	8.190
317.63	8.361
317.84	8.728
318.05	9.001
318.25	9.771
318.46	9.362
318.67	7.578
318.88	8.924
319.09	10.058
319.30	7.721
319.51	8.662
319.72	9.370
319.93	8.064
320.13	7.295
320.34	9.507
320.55	9.558
320.76	10.960
320.97	8.967
321.18	11.217
321.39	8.669
321.60	9.674
321.80	11.164
322.01	10.077
322.22	8.723
322.43	7.582
322.64	9.264
322.85	10.515
323.06	8.601
323.27	9.542
323.47	9.739
323.68	10.419
323.89	7.855
324.10	9.165
324.31	7.077
324.52	8.994
324.73	7.520
324.93	7.807
325.14	9.197
325.35	8.011
325.56	7.414
325.77	8.580
325.98	7.230
326.19	8.451
326.39	4.870
326.60	7.178
326.81	6.744
327.02	6.966
327.23	6.729
327.44	9.732
327.64	6.810
327.85	6.626
328.06	8.585
328.27	9.617
328.48	7.969
328.69	7.494
328.90	7.961
329.10	8.289
329.31	9.500
329.52	7.892
329.73	9.729
329.94	7.731
330.15	8.828
330.35	9.588
330.56	9.412
330.77	7.970
330.98	9.233
331.19	8.535
331.39	10.311
331.60	8.735
331.81	8.496
332.02	10.355
332.23	9.737
332.44	6.530
332.64	7.747
332.85	8.147
333.06	9.186
333.27	6.594
333.48	9.787
333.68	8.226
333.89	7.873
334.10	8.901
334.31	8.761
334.52	8.183
334.72	8.599
334.93	7.334
335.14	7.682
335.35	8.288
335.56	10.610
335.76	8.559
335.97	10.712
336.18	7.206
336.39	10.281
336.60	10.121
336.80	7.843
337.01	8.818
337.22	7.994
337.43	9.872
337.64	12.701
337.84	9.661
338.05	9.720
338.26	10.984
338.47	11.350
338.68	6.745
338.88	10.799
339.09	9.761
339.30	10.724
339.51	12.656
339.71	11.680
339.92	8.529
340.13	10.339
340.34	10.548
340.55	10.589
340.75	11.141
340.96	9.748
341.17	12.035
341.38	9.899
341.58	11.029
341.79	11.764
342.00	10.260
342.21	11.820
342.41	9.499
342.62	10.082
342.83	13.373
343.04	8.793
343.24	13.174
343.45	14.091
343.66	10.861
343.87	12.053
344.07	9.735
344.28	13.577
344.49	13.099
344.70	14.901
344.90	10.657
345.11	10.568
345.32	12.141
345.53	13.532
345.73	12.004
345.94	15.547
346.15	14.207
346.36	12.572
346.56	15.275
346.77	15.875
346.98	13.370
347.19	15.259
347.39	13.512
347.60	14.429
347.81	15.549
348.02	15.315
348.22	12.564
348.43	14.226
348.64	11.929
348.84	14.241
349.05	15.108
349.26	16.890
349.47	13.891
349.67	13.366
349.88	16.610
350.09	15.355
350.30	16.603
350.50	15.080
350.71	16.242
350.92	17.458
351.12	13.701
351.33	16.872
351.54	14.530
351.74	17.317
351.95	14.563
352.16	16.568
352.37	16.781
352.57	14.775
352.78	14.106
352.99	16.206
353.19	15.945
353.40	17.706
353.61	16.109
353.82	17.775
354.02	18.014
354.23	17.346
354.44	18.934
354.64	16.607
354.85	17.247
355.06	17.876
355.26	14.809
355.47	17.134
355.68	18.760
355.88	18.604
356.09	17.409
356.30	16.551
356.51	18.912
356.71	17.044
356.92	15.687
357.13	18.760
357.33	17.949
357.54	16.865
357.75	15.307
357.95	16.905
358.16	14.876
358.37	19.351
358.57	16.013
358.78	19.813
358.99	16.973
359.19	17.510
359.40	18.635
359.61	16.079
359.81	18.370
360.02	19.683
360.23	15.005
360.43	16.528
360.64	16.455
360.85	16.551
361.05	15.269
361.26	19.156
361.47	15.460
361.67	17.625
361.88	14.471
362.09	17.951
362.29	14.983
362.50	15.674
362.70	14.726
362.91	18.055
363.12	15.659
363.32	16.610
363.53	16.809
363.74	18.253
363.94	15.142
364.15	17.928
364.36	16.646
364.56	17.240
364.77	16.622
364.98	18.344
365.18	16.251
365.39	17.701
365.59	14.743
365.80	16.737
366.01	17.125
366.21	15.903
366.42	13.675
366.63	18.672
366.83	16.035
367.04	13.400
367.24	17.746
367.45	14.523
367.66	14.276
367.86	16.384
368.07	15.490
368.28	15.304
368.48	15.044
368.69	14.516
368.89	15.746
369.10	16.127
369.31	14.982
369.51	15.635
369.72	16.705
369.92	17.943
370.13	12.592
370.34	15.249
370.54	11.876
370.75	15.545
370.95	12.728
371.16	15.161
371.37	13.279
371.57	13.920
371.78	14.064
371.98	14.701
372.19	15.237
372.40	15.656
372.60	15.024
372.81	14.396
373.01	12.814
373.22	14.033
373.43	15.688
373.63	15.524
373.84	14.506
374.04	14.691
374.25	14.305
374.46	15.579
374.66	13.466
374.87	14.840
375.07	11.773
375.28	12.411
375.48	14.765
375.69	15.951
375.90	12.320
376.10	12.410
376.31	13.275
376.51	11.762
376.72	12.635
376.92	12.182
377.13	13.423
377.34	14.564
377.54	12.038
377.75	15.197
377.95	12.065
378.16	14.908
378.36	12.290
378.57	13.878
378.77	13.554
378.98	14.278
379.19	12.618
379.39	12.745
379.60	12.734
379.80	14.258
380.01	14.003
380.21	12.988
380.42	13.781
380.62	13.455
380.83	12.870
381.04	12.548
381.24	12.539
381.45	13.262
381.65	12.284
381.86	12.599
382.06	13.721
382.27	11.694
382.47	12.133
382.68	14.146
382.88	11.920
383.09	12.590
383.29	11.337
383.50	14.153
383.71	12.196
383.91	13.007
384.12	11.670
384.32	13.557
384.53	12.371
384.73	10.658
384.94	10.378
385.14	11.099
385.35	11.160
385.55	12.338
385.76	11.470
385.96	11.192
386.17	12.505
386.37	13.034
386.58	12.221
386.78	13.871
386.99	10.525
387.19	12.994
387.40	10.851
387.60	13.790
387.81	12.190
388.01	11.441
388.22	12.143
388.42	13.778
388.63	12.569
388.83	13.672
389.04	10.442
389.24	11.821
389.45	11.477
389.65	12.290
389.86	11.316
390.06	11.162
390.27	10.865
390.47	11.189
390.68	10.946
390.88	12.303
391.09	12.645
391.29	13.029
391.50	11.390
391.70	12.454
391.91	10.976
392.11	12.103
392.32	11.229
392.52	12.678
392.73	12.256
392.93	12.251
393.14	11.462
393.34	12.456
393.55	11.968
393.75	11.720
393.95	11.295
394.16	12.201
394.36	12.362
394.57	12.504
394.77	11.520
394.98	11.693
395.18	12.249
395.39	12.452
395.59	11.424
395.80	11.634
396.00	11.350
396.21	12.127
396.41	11.244
396.61	12.453
396.82	11.575
397.02	13.370
397.23	11.958
397.43	11.427
397.64	10.416
397.84	12.327
398.05	9.328
398.25	11.865
398.45	10.628
398.66	11.929
398.86	11.400
399.07	12.940
399.27	10.205
399.48	11.531
399.68	10.224
399.89	10.883
400.09	11.858
400.29	10.111
400.50	11.251
400.70	11.382
400.91	10.777
401.11	11.149
401.32	11.476
401.52	10.082
401.72	10.971
401.93	12.524
402.13	10.788
402.34	10.869
402.54	9.756
402.75	12.723
402.95	9.106
403.15	11.991
403.36	10.137
403.56	11.246
403.77	10.176
403.97	10.133
404.17	9.289
404.38	10.987
404.58	10.044
404.79	11.044
404.99	10.788
405.19	10.446
405.40	10.205
405.60	10.819
405.81	10.022
406.01	10.669
406.21	9.624
406.42	10.350
406.62	10.289
406.83	10.936
407.03	10.772
407.23	10.219
407.44	9.875
407.64	10.780
407.85	9.997
408.05	9.943
408.25	9.286
408.46	10.807
408.66	11.203
408.87	9.656
409.07	10.616
409.27	8.791
409.48	9.717
409.68	10.168
409.88	8.486
410.09	10.349
410.29	10.298
410.50	10.986
410.70	8.928
410.90	9.642
411.11	8.598
411.31	9.633
411.51	9.693
411.72	10.199
411.92	9.022
412.12	10.047
412.33	9.028
412.53	9.586
412.74	9.243
412.94	9.890
413.14	8.782
413.35	9.656
413.55	8.925
413.75	10.951
413.96	8.421
414.16	9.513
414.36	9.614
414.57	9.042
414.77	8.530
414.97	9.947
415.18	9.405
415.38	9.274
415.58	9.455
415.79	8.845
415.99	8.841
416.19	9.292
416.40	8.883
416.60	8.954
416.80	8.865
417.01	9.433
417.21	8.151
417.41	9.752
417.62	9.074
417.82	9.261
418.02	9.148
418.23	9.200
418.43	8.800
418.63	9.435
418.84	9.454
419.04	9.347
419.24	10.015
419.45	10.182
419.65	10.004
419.85	9.998
420.06	9.579
420.26	9.543
420.46	9.344
420.67	10.599
420.87	9.597
421.07	10.121
421.28	9.604
421.48	9.808
421.68	9.770
421.88	10.188
422.09	9.994
422.29	9.876
422.49	9.658
422.70	10.054
422.90	9.836
423.10	9.976
423.31	10.131
423.51	10.516
423.71	9.270
423.91	9.781
424.12	9.517
424.32	9.888
424.52	9.868
424.73	9.673
424.93	9.489
425.13	9.626
425.33	9.475
425.54	9.741
425.74	9.555
425.94	10.093
426.15	9.698
426.35	9.802
426.55	9.720
426.75	9.979
426.96	9.506
427.16	9.435
427.36	9.916
427.57	10.022
427.77	9.255
427.97	9.606
428.17	9.028
428.38	9.742
428.58	8.342
428.78	9.676
428.98	8.727
429.19	9.072
429.39	8.044
429.59	9.599
429.79	8.205
430.00	8.241
430.20	7.639
430.40	8.701
430.60	8.045
430.81	8.786
431.01	8.075
431.21	9.115
431.41	8.496
431.62	8.722
431.82	8.251
432.02	9.337
432.22	7.621
432.43	8.162
432.63	8.005
432.83	8.398
433.03	8.145
433.24	8.294
433.44	8.269
433.64	8.941
433.84	8.288
434.05	8.926
434.25	8.348
434.45	9.320
434.65	8.976
434.85	9.317
435.06	8.643
435.26	8.884
435.46	8.742
435.66	9.302
435.87	8.234
436.07	9.007
436.27	8.234
436.47	8.770
436.67	7.926
436.88	9.601
437.08	8.671
437.28	9.006
437.48	8.407
437.69	9.082
437.89	7.655
438.09	8.946
438.29	8.002
438.49	9.041
438.70	9.101
438.90	8.277
439.10	8.573
439.30	8.781
439.50	8.068
439.71	8.856
439.91	8.287
440.11	9.204
440.31	8.584
440.51	8.567
440.72	8.256
440.92	8.614
441.12	9.070
441.32	8.870
441.52	9.181
441.72	8.947
441.93	8.678
442.13	9.605
442.33	8.790
442.53	9.406
442.73	8.560
442.94	9.030
443.14	8.958
443.34	9.518
443.54	8.831
443.74	9.282
443.94	8.336
444.15	8.493
444.35	8.199
444.55	8.955
444.75	8.045
444.95	8.491
445.15	8.411
445.36	8.880
445.56	8.034
445.76	8.853
445.96	8.175
446.16	8.406
446.36	8.135
446.57	9.034
446.77	8.111
446.97	9.013
447.17	8.905
447.37	9.072
447.57	8.913
447.77	9.005
447.98	8.811
448.18	9.231
448.38	8.570
448.58	8.960
448.78	8.922
448.98	9.048
449.18	8.802
449.39	8.948
449.59	8.491
449.79	8.744
449.99	8.950
450.19	9.025
450.39	8.587
450.59	8.760
450.79	8.100
451.00	8.973
451.20	9.438
451.40	8.580
451.60	8.070
451.80	8.757
452.00	8.165
452.20	8.511
452.40	8.255
452.61	8.051
452.81	8.112
453.01	8.788
453.21	8.357
453.41	8.666
453.61	8.013
453.81	8.518
454.01	8.363
454.21	8.227
454.42	8.518
454.62	9.078
454.82	7.980
455.02	8.482
455.22	8.314
455.42	8.425
455.62	7.680
455.82	8.006
456.02	7.355
456.23	8.065
456.43	8.179
456.63	8.282
456.83	7.632
457.03	8.437
457.23	7.842
457.43	8.448
457.63	7.732
457.83	8.504
458.03	7.619
458.23	8.216
458.43	7.247
458.64	8.352
458.84	7.626
459.04	8.246
459.24	7.880
459.44	8.333
459.64	8.397
459.84	8.430
460.04	8.044
460.24	8.459
460.44	8.611
460.64	8.478
460.84	8.343
461.04	8.889
461.24	8.902
461.45	9.006
461.65	8.909
461.85	8.832
462.05	8.239
462.25	8.768
462.45	8.885
462.65	8.862
462.85	7.779
463.05	8.411
463.25	7.501
463.45	8.883
463.65	7.841
463.85	8.362
464.05	7.974
464.25	7.986
464.45	8.152
464.65	7.923
464.85	7.426
465.05	8.038
465.26	7.627
465.46	8.052
465.66	8.232
465.86	8.231
466.06	7.714
466.26	8.369
466.46	7.675
466.66	8.061
466.86	7.773
467.06	7.958
467.26	7.785
467.46	8.334
467.66	7.480
467.86	7.800
468.06	7.777
468.26	7.872
468.46	8.124
468.66	8.496
468.86	7.499
469.06	8.148
469.26	6.837
469.46	8.192
469.66	7.739
469.86	8.341
470.06	7.582
470.26	8.235
470.46	7.591
470.66	8.641
470.86	7.692
471.06	7.889
471.26	7.314
471.46	7.851
471.66	8.267
471.86	8.258
472.06	7.493
472.26	8.636
472.46	8.297
472.66	7.966
472.86	7.481
473.06	7.903
473.26	8.004
473.46	7.995
473.66	7.620
473.86	8.264
474.06	7.361
474.26	8.216
474.46	7.149
474.66	8.343
474.86	7.968
475.06	8.473
475.26	7.138
475.46	8.250
475.66	7.125
475.86	8.653
476.06	8.362
476.26	8.392
476.46	7.077
476.66	8.168
476.86	7.690
477.06	8.196
477.26	7.592
477.46	8.618
477.65	7.942
477.85	8.349
478.05	7.367
478.25	8.657
478.45	7.986
478.65	8.498
478.85	8.287
479.05	8.463
479.25	7.922
479.45	8.703
479.65	7.938
479.85	8.334
480.05	8.001
480.25	8.345
480.45	7.882
480.65	9.010
480.85	8.267
481.05	8.839
481.25	8.546
481.44	8.713
481.64	7.804
481.84	8.987
482.04	8.540
482.24	8.582
482.44	8.068
482.64	8.453
482.84	8.626
483.04	8.653
483.24	8.275
483.44	8.334
483.64	8.270
483.84	8.376
484.04	8.358
484.23	8.774
484.43	8.795
484.63	9.121
484.83	9.323
485.03	9.786
485.23	9.768
485.43	9.674
485.63	9.508
485.83	9.516
486.03	9.515
486.23	9.707
486.42	9.389
486.62	9.423
486.82	9.122
487.02	9.092
487.22	8.980
487.42	8.843
487.62	8.899
487.82	8.784
488.02	8.877
488.22	9.105
488.41	9.037
488.61	9.006
488.81	9.159
489.01	9.287
489.21	9.370
489.41	9.513
489.61	9.370
489.81	9.498
490.01	9.536
490.20	9.428
490.40	9.594
490.60	9.481
490.80	9.069
491.00	9.343
491.20	8.855
491.40	8.870
491.60	8.702
491.79	9.085
491.99	8.823
492.19	9.042
492.39	9.095
492.59	9.082
492.79	9.171
492.99	9.521
493.19	9.453
493.38	9.748
493.58	9.537
493.78	9.547
493.98	9.767
494.18	9.566
494.38	9.684
494.58	9.972
494.77	8.956
494.97	9.359
495.17	8.918
495.37	9.124
495.57	8.919
495.77	8.847
495.96	8.841
496.16	8.945
496.36	8.579
496.56	8.810
496.76	8.440
496.96	8.904
497.15	8.690
497.35	9.104
497.55	8.520
497.75	9.580
497.95	8.795
498.15	9.629
498.34	8.943
498.54	9.135
498.74	9.471
498.94	9.601
499.14	8.829
499.34	9.415
499.53	9.318
499.73	9.411
499.93	8.996
500.13	9.121
500.33	8.669
500.52	9.047
500.72	8.997
500.92	9.172
501.12	8.729
501.32	9.090
501.52	8.837
501.71	9.056
501.91	8.487
502.11	9.439
502.31	8.702
502.51	9.537
502.70	8.554
502.90	9.119
503.10	8.849
503.30	9.358
503.50	9.089
503.69	9.383
503.89	9.368
504.09	9.393
504.29	8.785
504.48	9.292
504.68	9.403
504.88	9.413
505.08	9.052
505.28	9.472
505.47	9.404
505.67	10.039
505.87	9.066
506.07	9.464
506.27	9.070
506.46	9.566
506.66	8.918
506.86	9.508
507.06	9.464
507.25	9.331
507.45	9.026
507.65	9.687
507.85	9.423
508.04	9.717
508.24	9.343
508.44	9.892
508.64	9.386
508.83	9.962
509.03	9.194
509.23	9.430
509.43	9.451
509.63	9.764
509.82	9.467
510.02	9.938
510.22	9.946
510.42	10.198
510.61	10.088
510.81	10.112
511.01	9.803
511.21	9.927
511.40	9.376
511.60	10.013
511.80	9.510
511.99	10.112
512.19	9.852
512.39	10.263
512.59	10.010
512.78	10.263
512.98	10.022
513.18	10.433
513.38	10.029
513.57	10.094
513.77	9.854
513.97	10.338
514.17	9.932
514.36	10.593
514.56	10.099
514.76	9.987
514.95	9.870
515.15	10.387
515.35	9.967
515.55	10.034
515.74	10.382
515.94	10.478
516.14	9.986
516.33	10.248
516.53	10.365
516.73	10.276
516.93	10.151
517.12	10.472
517.32	9.599
517.52	10.252
517.71	10.147
517.91	10.406
518.11	10.697
518.30	9.963
518.50	9.905
518.70	10.247
518.90	10.479
519.09	10.460
519.29	10.415
519.49	10.674
519.68	10.426
519.88	10.626
520.08	10.626
520.27	10.707
520.47	10.689
520.67	10.782
520.86	10.773
521.06	10.964
521.26	10.580
521.45	10.970
521.65	10.745
521.85	11.013
522.04	10.224
522.24	10.435
522.44	10.444
522.63	10.950
522.83	10.247
523.03	11.173
523.22	10.482
523.42	11.101
523.62	10.574
523.81	10.896
524.01	10.934
524.21	10.737
524.40	10.544
524.60	10.751
524.80	10.269
524.99	10.352
525.19	10.273
525.39	10.463
525.58	10.620
525.78	11.022
525.98	10.649
526.17	10.770
526.37	10.647
526.57	10.829
526.76	10.972
526.96	10.760
527.15	10.841
527.35	10.773
527.55	10.902
527.74	11.123
527.94	11.031
528.14	10.842
528.33	10.793
528.53	10.514
528.72	10.930
528.92	10.856
529.12	10.936
529.31	11.058
529.51	11.286
529.71	11.269
529.90	11.268
530.10	11.348
530.29	11.659
530.49	11.668
530.69	11.822
530.88	11.714
531.08	11.766
531.28	11.472
531.47	11.350
531.67	11.194
531.86	11.253
532.06	11.741
532.26	11.222
532.45	11.518
532.65	11.100
532.84	11.259
533.04	11.028
533.24	11.163
533.43	11.201
533.63	11.430
533.82	11.359
534.02	11.453
534.22	11.577
534.41	11.609
534.61	11.797
534.80	11.959
535.00	11.820
535.19	11.962
535.39	11.837
535.59	12.209
535.78	11.948
535.98	11.878
536.17	11.713
536.37	11.716
536.57	11.748
536.76	11.732
536.96	11.563
537.15	11.773
537.35	11.801
537.54	11.811
537.74	11.823
537.93	12.058
538.13	11.905
538.33	12.067
538.52	12.241
538.72	12.347
538.91	12.261
539.11	11.995
539.30	12.147
539.50	12.247
539.70	12.164
539.89	12.309
540.09	11.992
540.28	12.233
540.48	11.809
540.67	12.226
540.87	11.958
541.06	11.422
541.26	12.034
541.45	12.096
541.65	11.999
541.85	12.279
542.04	12.345
542.24	12.626
542.43	12.547
542.63	12.522
542.82	12.533
543.02	12.835
543.21	13.142
543.41	12.999
543.60	12.819
543.80	13.183
543.99	13.148
544.19	13.090
544.38	13.054
544.58	12.991
544.77	13.049
544.97	13.122
545.16	13.057
545.36	13.288
545.56	13.116
545.75	13.351
545.95	13.309
546.14	13.146
546.34	13.469
546.53	13.116
546.73	13.157
546.92	13.590
547.12	13.328
547.31	13.624
547.51	13.504
547.70	13.596
547.90	13.863
548.09	13.660
548.29	13.752
548.48	13.603
548.68	13.667
548.87	14.016
549.07	13.689
549.26	14.166
549.46	13.860
549.65	14.296
549.84	14.298
550.04	14.118
550.23	13.790
550.43	14.242
550.62	14.016
550.82	13.949
551.01	13.885
551.21	14.513
551.40	14.349
551.60	14.327
551.79	14.278
551.99	14.738
552.18	14.264
552.38	14.423
552.57	15.157
552.77	15.234
552.96	15.133
553.16	15.037
553.35	14.668
553.54	15.727
553.74	15.167
553.93	15.590
554.13	15.776
554.32	15.319
554.52	15.356
554.71	16.325
554.91	15.416
555.10	15.773
555.29	15.863
555.49	15.807
555.68	15.667
555.88	15.940
556.07	15.340
556.27	16.336
556.46	16.064
556.66	16.375
556.85	16.133
557.04	16.646
557.24	16.208
557.43	17.219
557.63	16.823
557.82	16.556
558.02	16.169
558.21	16.734
558.40	16.735
558.60	16.986
558.79	16.452
558.99	17.607
559.18	17.593
559.38	17.678
559.57	17.339
559.76	17.670
559.96	18.505
560.15	17.988
560.35	17.419
560.54	17.692
560.73	17.022
560.93	17.658
561.12	18.257
561.32	18.416
561.51	18.662
561.70	18.796
561.90	18.084
562.09	18.818
562.29	19.173
562.48	18.390
562.67	19.153
562.87	19.421
563.06	18.916
563.26	19.161
563.45	18.519
563.64	19.180
563.84	19.138
564.03	19.849
564.23	19.081
564.42	20.136
564.61	19.906
564.81	19.520
565.00	20.648
565.20	19.859
565.39	20.316
565.58	20.233
565.78	20.051
565.97	20.190
566.16	20.251
566.36	20.626
566.55	21.164
566.74	21.153
566.94	20.839
567.13	20.939
567.33	21.045
567.52	21.517
567.71	21.376
567.91	21.565
568.10	21.544
568.29	21.112
568.49	21.287
568.68	21.576
568.87	21.726
569.07	21.798
569.26	21.832
569.45	21.535
569.65	21.772
569.84	21.919
570.04	21.856
570.23	22.040
570.42	21.943
570.62	22.155
570.81	22.274
571.00	21.765
571.20	22.201
571.39	22.326
571.58	22.530
571.78	22.619
571.97	22.565
572.16	22.426
572.36	22.088
572.55	22.297
572.74	22.076
572.94	22.745
573.13	22.542
573.32	22.523
573.51	22.411
573.71	23.174
573.90	23.012
574.09	23.154
574.29	23.542
574.48	23.004
574.67	22.758
574.87	23.004
575.06	22.658
575.25	23.395
575.45	23.158
575.64	22.899
575.83	23.084
576.03	23.856
576.22	23.553
576.41	23.531
576.60	23.438
576.80	23.463
576.99	24.157
577.18	23.777
577.38	23.157
577.57	23.400
577.76	23.760
577.95	23.839
578.15	23.249
578.34	24.644
578.53	23.704
578.73	24.346
578.92	23.324
579.11	24.609
579.30	24.349
579.50	24.114
579.69	23.674
579.88	23.663
580.08	23.327
580.27	23.958
580.46	23.683
580.65	23.841
580.85	23.236
581.04	24.451
581.23	23.327
581.42	23.447
581.62	23.473
581.81	23.880
582.00	23.254
582.19	23.693
582.39	23.805
582.58	23.642
582.77	23.470
582.96	24.130
583.16	23.169
583.35	23.609
583.54	23.754
583.73	23.525
583.93	23.172
584.12	23.324
584.31	23.845
584.50	23.298
584.70	23.402
584.89	23.157
585.08	23.127
585.27	23.651
585.47	22.210
585.66	23.415
585.85	23.150
586.04	23.450
586.24	23.895
586.43	23.425
586.62	23.186
586.81	22.823
587.00	23.160
587.20	23.056
587.39	23.139
587.58	22.684
587.77	23.254
587.97	22.981
588.16	22.876
588.35	23.404
588.54	23.407
588.73	23.149
588.93	22.724
589.12	22.993
589.31	22.512
589.50	22.953
589.69	23.244
589.89	23.163
590.08	22.169
590.27	23.133
590.46	22.718
590.65	22.725
590.85	22.365
591.04	22.879
591.23	22.995
591.42	23.792
591.61	22.442
591.81	23.339
592.00	22.881
592.19	23.015
592.38	22.802
592.57	23.690
592.77	22.957
592.96	23.545
593.15	22.835
593.34	23.506
593.53	22.781
593.72	23.139
593.92	22.684
594.11	23.528
594.30	22.389
594.49	22.832
594.68	23.694
594.87	23.690
595.07	22.237
595.26	23.330
595.45	23.393
595.64	23.650
595.83	23.485
596.02	23.532
596.22	23.506
596.41	23.362
596.60	23.779
596.79	23.306
596.98	23.586
597.17	23.496
597.37	23.657
597.56	23.656
597.75	23.845
597.94	23.763
598.13	24.359
598.32	23.753
598.51	24.183
598.71	24.938
598.90	23.973
599.09	24.367
599.28	24.915
599.47	23.679
599.66	24.312
599.85	24.301
600.05	24.259
600.24	24.229
600.43	24.879
600.62	24.001
600.81	24.512
601.00	24.956
601.19	24.599
601.38	24.801
601.58	24.980
601.77	24.476
601.96	24.754
602.15	24.890
602.34	24.697
602.53	25.508
602.72	23.832
602.91	25.491
603.10	24.241
603.30	25.201
603.49	24.878
603.68	25.621
603.87	24.672
604.06	24.184
604.25	24.901
604.44	24.842
604.63	24.711
604.82	24.906
605.01	24.824
605.21	25.724
605.40	24.897
605.59	24.770
605.78	25.206
605.97	24.854
606.16	25.868
606.35	25.396
606.54	25.380
606.73	25.775
606.92	24.954
607.11	25.833
607.30	25.051
607.50	25.373
607.69	24.370
607.88	25.436
608.07	24.820
608.26	25.245
608.45	25.448
608.64	25.628
608.83	24.182
609.02	24.677
609.21	24.621
609.40	24.730
609.59	24.057
609.78	24.398
609.97	24.883
610.16	24.456
610.35	23.633
610.55	24.257
610.74	24.032
610.93	25.060
611.12	23.994
611.31	25.011
611.50	24.087
611.69	24.190
611.88	24.159
612.07	24.890
612.26	24.110
612.45	24.114
612.64	23.273
612.83	24.838
613.02	22.932
613.21	23.826
613.40	24.068
613.59	23.586
613.78	22.842
613.97	23.571
614.16	22.304
614.35	23.438
614.54	22.488
614.73	22.849
614.92	23.240
615.11	22.959
615.30	22.654
615.49	22.988
615.68	21.961
615.87	22.600
616.07	21.672
616.26	22.692
616.45	22.437
616.64	21.623
616.83	22.523
617.02	22.462
617.21	20.824
617.40	22.635
617.59	22.489
617.78	22.293
617.97	20.782
618.16	21.582
618.35	20.738
618.54	21.340
618.73	22.146
618.92	22.174
619.11	20.998
619.30	21.611
619.49	20.871
619.68	21.915
619.86	21.098
620.05	21.568
620.24	20.833
620.43	21.261
620.62	20.339
620.81	21.677
621.00	21.220
621.19	22.043
621.38	21.274
621.57	21.974
621.76	20.766
621.95	22.067
622.14	20.264
622.33	21.957
622.52	20.509
622.71	20.809
622.90	20.489
623.09	20.880
623.28	20.597
623.47	21.080
623.66	20.092
623.85	20.308
624.04	19.353
624.23	21.058
624.42	20.188
624.61	21.055
624.80	20.234
624.99	20.966
625.18	19.650
625.36	20.474
625.55	20.298
625.74	20.671
625.93	19.538
626.12	20.316
626.31	21.335
626.50	20.950
626.69	20.021
626.88	20.742
627.07	20.464
627.26	20.108
627.45	20.484
627.64	20.502
627.83	20.263
628.02	21.088
628.20	20.363
628.39	20.674
628.58	20.052
628.77	21.152
628.96	20.113
629.15	19.961
629.34	19.921
629.53	20.174
629.72	19.049
629.91	20.305
630.10	19.766
630.29	20.438
630.47	18.959
630.66	20.188
630.85	18.668
631.04	19.881
631.23	19.779
631.42	19.421
631.61	19.547
631.80	20.411
631.99	19.730
632.18	19.688
632.36	18.821
632.55	20.485
632.74	18.713
632.93	19.424
633.12	18.756
633.31	19.295
633.50	18.782
633.69	19.912
633.88	19.240
634.06	20.007
634.25	18.806
634.44	20.317
634.63	19.341
634.82	19.987
635.01	18.843
635.20	19.786
635.39	18.693
635.57	19.830
635.76	18.861
635.95	20.094
636.14	18.634
636.33	19.148
636.52	18.517
636.71	18.360
636.89	19.045
637.08	19.176
637.27	18.133
637.46	19.330
637.65	19.394
637.84	18.048
638.03	18.505
638.21	19.117
638.40	19.222
638.59	19.467
638.78	19.334
638.97	18.624
639.16	19.213
639.34	19.291
639.53	17.144
639.72	19.588
639.91	17.804
640.10	18.412
640.29	19.646
640.47	19.912
640.66	18.924
640.85	20.052
641.04	16.968
641.23	18.754
641.42	18.119
641.60	18.345
641.79	19.163
641.98	18.334
642.17	18.211
642.36	19.155
642.54	16.525
642.73	18.186
642.92	17.759
643.11	18.798
643.30	17.841
643.49	18.992
643.67	15.810
643.86	19.330
644.05	17.360
644.24	19.134
644.43	17.949
644.61	18.662
644.80	18.085
644.99	17.965
645.18	18.462
645.37	18.368
645.55	17.322
645.74	17.688
645.93	17.928
646.12	18.847
646.31	18.521
646.49	18.643
646.68	19.441
646.87	18.454
647.06	17.120
647.24	19.159
647.43	16.568
647.62	19.831
647.81	16.873
648.00	18.662
648.18	16.172
648.37	18.062
648.56	17.911
648.75	18.638
648.93	16.962
649.12	17.493
649.31	16.142
649.50	18.789
649.68	17.379
649.87	18.182
650.06	16.676
650.25	18.782
650.43	16.714
650.62	18.538
650.81	16.602
651.00	16.938
651.18	17.122
651.37	18.714
651.56	17.468
651.75	18.178
651.93	17.889
652.12	18.381
652.31	17.145
652.50	17.874
652.68	18.280
652.87	19.074
653.06	16.950
653.25	18.588
653.43	16.969
653.62	18.401
653.81	17.312
654.00	18.363
654.18	17.500
654.37	18.638
654.56	17.135
654.74	17.402
654.93	16.181
655.12	17.161
655.31	16.930
655.49	17.334
655.68	14.701
655.87	15.629
656.05	14.225
656.24	16.115
656.43	15.262
656.62	15.813
656.80	16.000
656.99	14.883
657.18	13.462
657.36	15.471
657.55	15.120
657.74	15.828
657.93	15.644
658.11	16.194
658.30	15.220
658.49	14.358
658.67	14.178
658.86	14.247
659.05	13.791
659.23	15.434
659.42	13.532
659.61	14.367
659.79	14.050
659.98	14.092
660.17	14.249
660.35	14.197
660.54	14.669
660.73	15.733
660.91	15.354
661.10	14.504
661.29	12.121
661.47	13.765
661.66	13.438
661.85	13.263
662.03	13.196
662.22	12.074
662.41	10.712
662.59	11.942
662.78	11.315
662.97	11.205
663.15	10.581
663.34	11.177
663.53	11.039
663.71	11.862
663.90	9.328
664.09	12.401
664.27	11.268
664.46	10.376
664.65	10.684
664.83	10.645
665.02	9.505
665.21	9.819
665.39	8.219
665.58	11.115
665.77	10.490
665.95	10.523
666.14	9.665
666.32	9.873
666.51	9.211
666.70	8.176
666.88	8.541
667.07	10.287
667.26	8.528
667.44	9.744
667.63	9.212
667.81	8.634
668.00	9.571
668.19	11.594
668.37	9.124
668.56	10.931
668.75	7.332
668.93	9.657
669.12	9.002
669.30	9.293
669.49	8.729
669.68	9.996
669.86	9.658
670.05	9.023
670.23	8.494
670.42	9.505
670.61	8.817
670.79	10.170
670.98	9.261
671.16	10.587
671.35	8.924
671.54	9.771
671.72	8.693
671.91	10.197
672.09	8.288
672.28	11.787
672.46	10.507
672.65	10.991
672.84	11.734
673.02	11.565
673.21	8.424
673.39	9.714
673.58	10.655
673.77	11.424
673.95	11.445
674.14	13.099
674.32	9.496
674.51	12.149
674.69	11.334
674.88	11.779
675.07	10.367
675.25	13.763
675.44	11.147
675.62	11.182
675.81	10.174
675.99	15.974
676.18	11.601
676.36	12.908
676.55	10.493
676.74	12.167
676.92	14.505
677.11	12.060
677.29	10.782
677.48	14.332
677.66	13.043
677.85	12.889
678.03	12.116
678.22	13.937
678.40	12.530
678.59	12.577
678.78	11.070
678.96	12.909
679.15	11.409
679.33	15.465
679.52	13.049
679.70	13.414
679.89	13.019
680.07	13.657
680.26	12.928
680.44	13.175
680.63	13.843
680.81	13.554
681.00	11.701
681.18	13.126
681.37	13.324
681.55	14.767
681.74	14.768
681.92	15.067
682.11	15.090
682.29	14.316
682.48	14.360
682.66	15.041
682.85	13.937
683.03	15.508
683.22	15.115
683.40	17.144
683.59	15.670
683.77	14.697
683.96	13.679
684.14	17.093
684.33	13.782
684.51	19.090
684.70	16.462
684.88	19.239
685.07	15.438
685.25	18.922
685.44	14.836
685.62	18.465
685.81	16.613
685.99	17.929
686.18	16.085
686.36	18.638
686.55	16.070
686.73	18.999
686.92	18.760
687.10	19.890
687.29	21.388
687.47	21.122
687.65	19.812
687.84	20.690
688.02	23.525
688.21	23.010
688.39	20.106
688.58	22.789
688.76	21.117
688.95	21.566
689.13	20.119
689.32	23.787
689.50	23.332
689.68	23.986
689.87	23.025
690.05	25.016
690.24	24.200
690.42	24.829
690.61	26.586
690.79	25.104
690.98	26.104
691.16	25.879
691.34	24.376
691.53	27.868
691.71	26.782
691.90	28.613
692.08	25.216
692.27	30.059
692.45	30.303
692.63	28.492
692.82	29.840
693.00	30.759
693.19	28.348
693.37	31.245
693.56	31.078
693.74	33.300
693.92	29.294
694.11	31.587
694.29	32.286
694.48	34.694
694.66	32.783
694.84	34.436
695.03	34.664
695.21	37.065
695.40	35.121
695.58	38.287
695.76	35.318
695.95	37.977
696.13	38.348
696.32	38.653
696.50	39.220
696.68	39.146
696.87	37.585
697.05	39.707
697.24	39.228
697.42	41.185
697.60	39.661
697.79	41.676
697.97	40.494
698.16	41.385
698.34	40.105
698.52	41.784
698.71	41.524
698.89	41.168
699.07	41.550
699.26	41.987
699.44	42.540
699.63	42.415
699.81	42.349
699.99	42.351
700.18	42.934
700.36	44.244
700.54	44.382
700.73	43.217
700.91	44.704
701.09	44.858
701.28	45.378
701.46	46.053
701.64	45.056
701.83	46.300
702.01	45.085
702.20	48.356
702.38	47.446
702.56	48.463
702.75	47.933
702.93	49.264
703.11	47.325
703.30	49.104
703.48	50.290
703.66	51.546
703.85	49.386
704.03	53.247
704.21	50.069
704.40	51.087
704.58	50.562
704.76	54.517
704.95	50.878
705.13	53.314
705.31	51.864
705.50	54.663
705.68	52.969
705.86	52.700
706.04	51.818
706.23	53.059
706.41	53.759
706.59	52.586
706.78	51.195
706.96	52.675
707.14	52.598
707.33	55.295
707.51	51.886
707.69	53.539
707.88	52.914
708.06	53.873
708.24	54.521
708.42	55.118
708.61	55.020
708.79	55.663
708.97	54.069
709.16	55.632
709.34	57.232
709.52	54.220
709.71	54.663
709.89	55.969
710.07	53.955
710.25	58.860
710.44	55.494
710.62	54.720
710.80	55.844
710.98	56.534
711.17	55.625
711.35	56.205
711.53	54.244
711.72	54.557
711.90	56.752
712.08	55.260
712.26	53.483
712.45	55.483
712.63	55.506
712.81	56.293
712.99	55.680
713.18	55.368
713.36	55.168
713.54	57.449
713.72	56.202
713.91	55.952
714.09	55.689
714.27	56.227
714.45	57.477
714.64	57.445
714.82	55.486
715.00	56.295
715.18	57.816
715.37	57.957
715.55	56.249
715.73	57.243
715.91	57.245
716.10	56.792
716.28	55.513
716.46	57.639
716.64	56.598
716.83	57.339
717.01	57.555
717.19	56.967
717.37	57.597
717.55	58.360
717.74	56.713
717.92	57.636
718.10	55.148
718.28	57.084
718.47	56.658
718.65	59.476
718.83	57.243
719.01	59.134
719.19	57.524
719.38	60.143
719.56	58.023
719.74	58.997
719.92	56.513
720.10	58.181
720.29	58.177
720.47	59.686
720.65	60.388
720.83	59.560
721.01	58.160
721.20	60.502
721.38	60.088
721.56	60.325
721.74	59.541
721.92	59.879
722.11	58.333
722.29	62.603
722.47	59.850
722.65	61.748
722.83	60.609
723.01	63.135
723.20	59.147
723.38	62.407
723.56	58.316
723.74	61.791
723.92	59.488
724.10	58.140
724.29	58.479
724.47	61.855
724.65	61.987
724.83	62.127
725.01	60.103
725.19	61.807
725.38	61.060
725.56	60.122
725.74	61.831
725.92	59.324
726.10	59.954
726.28	62.826
726.46	61.093
726.65	62.738
726.83	60.468
727.01	61.602
727.19	63.611
727.37	62.363
727.55	60.334
727.73	60.035
727.92	60.080
728.10	63.982
728.28	59.733
728.46	60.532
728.64	59.835
728.82	62.675
729.00	61.144
729.19	62.297
729.37	59.537
729.55	60.084
729.73	61.277
729.91	61.092
730.09	60.990
730.27	61.657
730.45	59.248
730.63	60.903
730.82	61.624
731.00	64.311
731.18	60.797
731.36	62.471
731.54	60.215
731.72	61.508
731.90	61.254
732.08	60.382
732.26	59.938
732.45	62.520
732.63	59.099
732.81	61.214
732.99	61.024
733.17	62.327
733.35	60.894
733.53	61.629
733.71	63.936
733.89	60.317
734.07	61.509
734.25	61.733
734.44	60.632
734.62	62.539
734.80	61.124
734.98	66.201
735.16	62.541
735.34	63.757
735.52	62.746
735.70	63.585
735.88	63.772
736.06	62.850
736.24	62.574
736.42	63.907
736.60	62.898
736.78	66.294
736.97	66.155
737.15	65.456
737.33	62.487
737.51	62.987
737.69	64.550
737.87	63.939
738.05	65.699
738.23	66.851
738.41	66.107
738.59	66.360
738.77	64.180
738.95	66.266
739.13	67.255
739.31	64.032
739.49	65.068
739.67	64.794
739.85	66.497
740.03	67.219
740.21	68.274
740.39	62.548
740.57	67.042
740.75	66.081
740.93	63.300
741.11	65.934
741.30	66.112
741.48	64.289
741.66	67.395
741.84	66.526
742.02	65.751
742.20	67.272
742.38	65.341
742.56	68.145
742.74	66.237
742.92	65.509
743.10	60.240
743.28	67.442
743.46	64.783
743.64	67.903
743.82	68.222
744.00	67.934
744.18	66.815
744.36	66.334
744.54	64.478
744.72	64.783
744.90	68.647
745.08	69.569
745.26	64.125
745.44	67.258
745.62	64.331
745.80	63.653
745.98	67.134
746.16	69.440
746.34	63.967
746.52	69.365
746.70	67.216
746.87	71.561
747.05	68.067
747.23	70.923
747.41	67.857
747.59	67.874
747.77	66.182
747.95	67.426
748.13	68.624
748.31	69.416
748.49	66.929
748.67	65.354
748.85	67.747
749.03	66.827
749.21	67.617
749.39	67.651
749.57	66.874
749.75	70.388
749.93	67.234
750.11	67.479
750.29	65.297
750.47	65.347
750.65	65.589
750.83	68.158
751.01	65.554
751.18	64.332
751.36	65.328
751.54	71.019
751.72	70.665
751.90	65.395
752.08	67.064
752.26	67.841
752.44	70.380
752.62	66.023
752.80	67.719
752.98	69.336
753.16	67.110
753.34	65.162
753.52	66.379
753.69	68.754
753.87	65.876
754.05	69.892
754.23	65.411
754.41	65.874
754.59	64.823
754.77	69.892
754.95	65.231
755.13	68.719
755.31	66.540
755.49	68.699
755.66	65.999
755.84	66.751
756.02	65.373
756.20	69.045
756.38	65.352
756.56	67.682
756.74	64.828
756.92	68.874
757.10	64.740
757.28	70.863
757.45	68.693
757.63	67.405
757.81	64.775
757.99	71.075
758.17	66.656
758.35	69.997
758.53	64.809
758.71	69.023
758.88	61.577
759.06	66.333
759.24	62.897
759.42	63.079
759.60	61.996
759.78	60.099
759.96	59.604
760.13	60.566
760.31	56.157
760.49	57.846
760.67	51.920
760.85	58.395
761.03	53.358
761.21	55.991
761.38	50.882
761.56	56.441
761.74	54.330
761.92	61.115
762.10	53.663
762.28	54.912
762.46	52.658
762.63	56.369
762.81	52.548
762.99	55.824
763.17	53.823
763.35	54.361
763.53	52.015
763.70	55.021
763.88	55.669
764.06	54.728
764.24	54.126
764.42	56.272
764.60	53.707
764.77	56.585
764.95	55.683
765.13	58.437
765.31	55.837
765.49	56.699
765.66	56.286
765.84	58.763
766.02	55.338
766.20	59.330
766.38	59.128
766.56	61.317
766.73	58.440
766.91	59.444
767.09	60.137
767.27	62.301
767.45	60.497
767.62	59.497
767.80	60.858
767.98	64.000
768.16	59.820
768.33	66.135
768.51	66.633
768.69	65.318
768.87	63.484
769.05	62.808
769.22	63.503
769.40	65.926
769.58	68.310
769.76	65.156
769.94	66.231
770.11	64.851
770.29	66.970
770.47	63.548
770.65	65.344
770.82	68.489
771.00	65.640
771.18	66.938
771.36	65.557
771.53	65.369
771.71	63.924
771.89	70.765
772.07	65.261
772.25	68.122
772.42	68.324
772.60	69.857
772.78	66.267
772.96	70.357
773.13	69.055
773.31	68.391
773.49	63.378
773.67	67.266
773.84	67.603
774.02	70.814
774.20	67.811
774.37	65.542
774.55	64.953
774.73	70.441
774.91	63.237
775.08	71.240
775.26	67.757
775.44	71.275
775.62	66.458
775.79	65.682
775.97	67.358
776.15	68.711
776.32	69.076
776.50	70.425
776.68	69.369
776.86	69.837
777.03	64.937
777.21	69.962
777.39	68.102
777.56	67.148
777.74	67.094
777.92	67.163
778.10	62.674
778.27	73.785
778.45	67.855
778.63	68.012
778.80	68.296
778.98	68.288
779.16	67.355
779.34	69.572
779.51	64.771
779.69	67.944
779.87	69.130
780.04	69.605
780.22	67.190
780.40	66.521
780.57	66.920
780.75	69.944
780.93	73.650
781.10	72.671
781.28	74.494
781.46	63.912
781.63	63.125
781.81	69.784
781.99	64.615
782.16	63.742
782.34	60.960
782.52	70.781
782.69	71.561
782.87	69.111
783.05	71.372
783.22	67.011
783.40	67.949
783.58	73.014
783.75	64.325
783.93	68.230
784.11	68.815
784.28	69.914
784.46	63.782
784.64	72.303
784.81	70.309
784.99	73.226
785.17	68.807
785.34	69.789
785.52	67.264
785.69	68.554
785.87	66.530
786.05	64.719
786.22	65.249
786.40	73.175
786.58	69.519
786.75	69.585
786.93	66.918
787.11	71.259
787.28	66.251
787.46	68.888
787.63	68.249
787.81	67.920
787.99	67.008
788.16	64.833
788.34	63.767
788.51	65.763
788.69	66.081
788.87	65.033
789.04	62.682
789.22	64.834
789.39	60.880
789.57	60.536
789.75	56.925
789.92	62.866
790.10	60.229
790.27	68.134
790.45	61.435
790.63	67.973
790.80	59.679
790.98	67.994
791.15	66.667
791.33	64.562
791.51	59.612
791.68	68.885
791.86	66.141
792.03	66.212
792.21	57.096
792.39	63.000
792.56	64.785
792.74	67.311
792.91	62.831
793.09	64.870
793.26	62.939
793.44	76.816
793.62	65.267
793.79	70.602
793.97	63.556
794.14	64.425
794.32	59.988
794.49	72.187
794.67	58.648
794.84	62.546
795.02	65.338
795.20	65.432
795.37	61.449
795.55	69.240
795.72	64.706
795.90	64.298
796.07	69.406
796.25	66.209
796.42	59.169
796.60	67.891
796.77	60.842
796.95	64.486
797.13	59.765
797.30	64.832
797.48	61.230
797.65	61.334
797.83	57.971
798.00	65.053
798.18	59.737
798.35	66.705
798.53	62.665
798.70	65.205
798.88	59.442
799.05	59.239
799.23	62.103
799.40	61.668
799.58	65.295
799.75	64.875
799.93	58.708
800.10	66.509
800.28	69.048
800.45	64.890
800.63	58.868
800.80	64.692
800.98	61.749
801.15	65.326
801.33	61.414
801.50	69.102
801.68	59.423
801.85	63.873
802.03	63.665
802.20	64.613
802.38	63.171
802.55	57.799
802.73	65.503
802.90	62.734
803.08	62.124
803.25	66.411
803.43	64.254
803.60	73.347
803.78	61.327
803.95	66.266
804.13	62.990
804.30	64.011
804.48	61.249
804.65	65.742
804.83	66.913
805.00	65.726
805.17	65.524
805.35	61.744
805.52	60.726
805.70	65.813
805.87	68.113
806.05	64.295
806.22	61.664
806.40	62.811
806.57	62.873
806.75	69.289
806.92	67.082
807.09	66.325
807.27	63.856
807.44	66.294
807.62	59.510
807.79	61.767
807.97	60.707
808.14	65.467
808.31	60.604
808.49	63.040
808.66	62.382
808.84	63.606
809.01	61.851
809.19	63.859
809.36	63.753
809.53	65.952
809.71	55.840
809.88	68.195
810.06	71.922
810.23	66.205
810.41	65.538
810.58	66.935
810.75	61.417
810.93	65.247
811.10	58.477
811.28	70.636
811.45	60.970
811.62	63.386
811.80	60.520
811.97	66.205
812.15	67.324
812.32	66.480
812.49	60.656
812.67	65.922
812.84	60.919
813.02	71.531
813.19	58.598
813.36	69.813
813.54	62.060
813.71	65.911
813.89	67.342
814.06	67.782
814.23	54.204
814.41	53.065
814.58	58.095
814.75	64.987
814.93	58.701
815.10	62.942
815.28	60.892
815.45	63.993
815.62	64.387
815.80	61.785
815.97	58.392
816.14	65.817
816.32	61.661
816.49	57.601
816.66	57.443
816.84	61.269
817.01	62.438
817.18	63.359
817.36	58.529
817.53	62.050
817.71	53.761
817.88	59.603
818.05	53.013
818.23	64.045
818.40	54.678
818.57	62.097
818.75	63.229
818.92	53.200
819.09	50.996
819.27	65.152
819.44	55.008
819.61	58.538
819.79	49.760
819.96	57.405
820.13	49.678
820.31	59.094
820.48	61.927
820.65	56.814
820.82	55.850
821.00	57.538
821.17	50.025
821.34	52.172
821.52	57.429
821.69	53.429
821.86	51.362
822.04	58.853
822.21	51.071
822.38	54.889
822.56	54.799
822.73	54.573
822.90	51.105
823.07	55.171
823.25	51.562
823.42	51.746
823.59	50.927
823.77	52.818
823.94	51.222
824.11	49.869
824.29	49.024
824.46	51.870
824.63	51.303
824.80	52.071
824.98	52.247
825.15	53.992
825.32	51.030
825.49	54.447
825.67	52.620
825.84	54.632
826.01	53.892
826.19	55.010
826.36	51.788
826.53	56.856
826.70	55.228
826.88	53.802
827.05	52.274
827.22	51.052
827.39	53.307
827.57	53.255
827.74	49.974
827.91	55.521
828.08	52.281
828.26	53.865
828.43	49.644
828.60	54.473
828.77	53.880
828.95	53.339
829.12	50.424
829.29	48.970
829.46	54.732
829.64	48.994
829.81	47.051
829.98	53.806
830.15	53.396
830.32	54.858
830.50	49.931
830.67	52.898
830.84	50.631
831.01	46.757
831.19	46.120
831.36	54.523
831.53	61.544
831.70	57.798
831.87	50.887
832.05	56.751
832.22	60.557
832.39	47.189
832.56	56.612
832.74	55.412
832.91	54.294
833.08	59.489
833.25	50.746
833.42	52.141
833.60	55.541
833.77	51.088
833.94	48.468
834.11	48.983
834.28	44.709
834.45	51.890
834.63	47.094
834.80	49.793
834.97	47.309
835.14	52.124
835.31	49.215
835.49	49.320
835.66	49.458
835.83	49.034
836.00	44.125
836.17	48.866
836.34	48.210
836.52	50.891
836.69	53.881
836.86	51.351
837.03	53.311
837.20	53.805
837.37	53.917
837.55	54.695
837.72	47.940
837.89	51.277
838.06	60.362
838.23	59.712
838.40	57.682
838.58	59.745
838.75	59.729
838.92	59.026
839.09	67.333
839.26	66.600
839.43	63.707
839.60	66.830
839.78	71.362
839.95	69.826
840.12	62.329
840.29	68.770
840.46	71.766
840.63	62.308
840.80	62.279
840.98	64.748
841.15	63.190
841.32	64.024
841.49	54.352
841.66	67.243
841.83	67.592
842.00	61.265
842.17	62.360
842.34	60.835
842.52	66.350
842.69	66.782
842.86	55.675
843.03	76.504
843.20	71.739
843.37	70.125
843.54	73.755
843.71	75.405
843.88	76.954
844.06	84.767
844.23	78.846
844.40	71.226
844.57	83.357
844.74	87.982
844.91	75.040
845.08	76.000
845.25	87.879
845.42	91.165
845.59	89.758
845.76	72.556
845.94	82.172
846.11	88.964
846.28	101.282
846.45	86.912
846.62	94.129
846.79	81.818
846.96	92.621
847.13	103.950
847.30	94.167
847.47	90.476
847.64	88.066
847.81	88.571
847.98	105.297
848.15	88.247
848.32	95.737
848.50	113.636
848.67	97.510
848.84	98.747
849.01	93.725
849.18	113.208
849.35	105.664
849.52	97.217
849.69	96.375
849.86	112.743
850.03	103.542
850.20	83.810
850.37	95.870
850.54	81.505
850.71	100.823
850.88	101.795
851.05	91.611
851.22	107.066
851.39	113.022
851.56	119.212
851.73	123.709
851.90	122.249
852.07	98.737
852.24	97.076
852.41	90.519
852.58	96.507
852.75	90.783
852.92	90.381
853.09	108.132
853.26	103.704
853.43	95.117
853.60	96.313
853.77	78.481
853.94	83.871
854.11	109.870
854.28	114.739
854.45	94.406
854.62	87.202
854.79	101.136
854.96	103.632
855.13	114.318
855.30	101.205
855.47	97.319
855.64	101.202
855.81	107.769
855.98	91.509
856.15	99.349
856.32	110.173
856.49	117.136
856.66	96.970
856.83	93.837
857.00	100.286
857.17	97.108
857.34	113.247
857.51	98.837
857.68	87.789
857.85	95.940
858.02	108.585
858.19	105.327
858.36	100.445
858.53	107.065
858.70	86.667
858.87	96.018
859.04	91.736
859.21	103.941
859.38	112.500
859.55	144.479
859.72	83.871
859.89	102.500
860.05	117.907
860.22	120.548
860.39	112.437
860.56	118.768
860.73	101.713
860.90	122.796
861.07	117.303
861.24	88.985
861.41	110.000
861.58	122.613
861.75	120.526
861.92	158.710
862.09	105.025
862.26	99.499
862.43	108.605
862.59	97.907
862.76	132.133
862.93	127.955
863.10	102.688
863.27	108.416
863.44	70.984
863.61	110.515
863.78	85.746
863.95	134.884
864.12	96.429
864.29	97.448
864.45	120.502
864.62	101.225
864.79	89.474
864.96	93.237
865.13	115.971
865.30	104.852
865.47	112.411
865.64	102.387
865.81	99.588
865.97	103.497
866.14	112.434
866.31	107.692
866.48	109.402
866.65	88.089
866.82	98.465
866.99	123.184
867.16	94.872
867.33	119.048
867.49	97.821
867.66	140.214
867.83	96.501
868.00	103.178
868.17	128.221
868.34	135.246
868.51	103.926
868.67	123.836
868.84	103.421
869.01	130.447
869.18	116.757
869.35	100.239
869.52	88.286
869.69	103.951
869.85	120.384
870.02	84.173
870.19	106.904
870.36	113.889
870.53	108.315
870.70	109.459
870.86	127.540
871.03	97.849
871.20	109.451
871.37	110.670
871.54	100.491
871.71	89.762
871.87	83.444
872.04	104.623
872.21	95.409
872.38	106.933
872.55	115.556
872.72	98.281
872.88	104.217
873.05	99.052
873.22	101.813
873.39	89.070
873.56	97.955
873.72	101.852
873.89	106.771
874.06	87.302
874.23	91.992
874.40	130.789
874.56	109.148
874.73	116.486
874.90	108.376
875.07	122.190
875.24	91.709
875.40	87.662
875.57	107.481
875.74	94.785
875.91	104.000
876.08	97.092
876.24	87.712
876.41	138.922
876.58	92.740
876.75	96.533
876.92	94.550
877.08	100.522
877.25	109.589
877.42	85.000
877.59	82.536
877.75	113.506
877.92	79.773
878.09	95.174
878.26	88.263
878.42	103.769
878.59	97.877
878.76	88.937
878.93	124.000
879.09	94.534
879.26	97.876
879.43	93.971
879.60	87.811
879.76	110.375
879.93	80.645
880.10	82.095
880.27	88.212
880.43	87.633
880.60	75.000
880.77	61.702
880.94	69.340
881.10	61.082
881.27	55.319
881.44	52.275
881.61	46.622
881.77	47.226
881.94	45.396
882.11	40.712
882.28	38.865
882.44	37.101
882.61	43.215
882.78	46.462
882.94	52.358
883.11	44.241
883.28	45.664
883.45	47.647
883.61	44.598
883.78	44.259
883.95	48.820
884.11	44.554
884.28	42.241
>>>>>End Processed Spectral Data<<<<<
