SpectraSuite Data File
++++++++++++++++++++++++++++++++++++
Date: Wed Sep 25 03:42:29 EST 2019
User: sgrac
Dark Spectrum Present: Yes
Reference Spectrum Present: Yes
Number of Sampled Component Spectra: 1
Spectrometers: USB4E01596
Integration Time (usec): 100000 (USB4E01596)
Spectra Averaged: 3 (USB4E01596)
Boxcar Smoothing: 0 (USB4E01596)
Correct for Electrical Dark: No (USB4E01596)
Strobe/Lamp Enabled: Yes (USB4E01596)
Correct for Detector Non-linearity: No (USB4E01596)
Correct for Stray Light: No (USB4E01596)
Number of Pixels in Processed Spectrum: 3648
>>>>>Begin Processed Spectral Data<<<<<
178.44	-503.846
178.66	-503.846
178.87	-503.846
179.09	-862.500
179.30	951.613
179.52	1539.130
179.74	-855.263
179.95	-531.481
180.17	642.857
180.38	-1332.143
180.60	-2446.667
180.82	-4244.444
181.03	855.814
181.25	-2875.000
181.46	-466.667
181.68	491.026
181.89	-1141.935
182.11	10400.000
182.33	713.462
182.54	-16500.000
182.76	594.118
182.97	989.474
183.19	1258.333
183.40	773.913
183.62	1495.000
183.84	445.238
184.05	1203.846
184.27	-3172.727
184.48	31500.000
184.70	1366.667
184.91	637.736
185.13	2521.429
185.34	581.356
185.56	440.230
185.78	1700.000
185.99	702.000
186.21	446.988
186.42	1489.286
186.64	-3744.444
186.85	985.366
187.07	-1508.000
187.28	394.792
187.50	-567.442
187.72	1552.381
187.93	1381.081
188.15	2535.714
188.36	752.083
188.58	568.333
188.79	648.438
189.01	531.148
189.22	432.258
189.44	405.660
189.65	-839.024
189.87	1375.000
190.09	393.269
190.30	407.407
190.52	-482.759
190.73	392.771
190.95	-2857.143
191.16	732.609
191.38	525.000
191.59	448.148
191.81	2216.667
192.02	-2875.000
192.24	-3527.273
192.45	524.194
192.67	-8200.000
192.88	412.791
193.10	457.353
193.31	272.951
193.53	-437.097
193.74	2772.727
193.96	-5250.000
194.18	2435.714
194.39	559.322
194.61	1261.111
194.82	425.000
195.04	285.965
195.25	533.333
195.47	-30600.000
195.68	483.077
195.90	414.444
196.11	1576.190
196.33	-391.667
196.54	1392.857
196.76	545.161
196.97	283.951
197.19	322.556
197.40	-501.333
197.62	747.917
197.83	1811.765
198.05	507.500
198.26	691.667
198.48	2300.000
198.69	-774.359
198.91	617.187
199.12	-15550.000
199.34	797.561
199.55	1910.000
199.77	520.635
199.98	1680.952
200.20	511.905
200.41	437.500
200.63	459.756
200.84	724.444
201.06	266.456
201.27	-543.860
201.49	-5100.000
201.70	470.130
201.91	-5585.714
202.13	-1900.000
202.34	-1057.576
202.56	1715.789
202.77	923.684
202.99	810.638
203.20	429.032
203.42	708.772
203.63	535.211
203.85	-2626.667
204.06	1595.455
204.28	-7120.000
204.49	1330.000
204.71	354.839
204.92	600.000
205.14	2412.500
205.35	1118.750
205.56	1842.857
205.78	727.273
205.99	412.195
206.21	1051.282
206.42	508.475
206.64	526.562
206.85	718.605
207.07	-765.789
207.28	505.797
207.50	851.351
207.71	881.250
207.93	305.051
208.14	616.000
208.35	806.818
208.57	2180.000
208.78	1640.000
209.00	712.766
209.21	768.889
209.43	365.049
209.64	-3363.636
209.86	746.154
210.07	-2033.333
210.28	426.087
210.50	1915.789
210.71	290.714
210.93	474.359
211.14	427.273
211.36	-3430.000
211.57	536.111
211.78	590.000
212.00	659.574
212.21	908.108
212.43	34900.000
212.64	1005.882
212.86	662.500
213.07	1363.636
213.29	-2500.000
213.50	1148.387
213.71	1732.000
213.93	1672.222
214.14	371.304
214.36	246.835
214.57	626.230
214.78	811.765
215.00	544.118
215.21	2407.692
215.43	324.242
215.64	841.860
215.86	763.636
216.07	737.778
216.28	1256.522
216.50	430.556
216.71	536.207
216.93	1160.526
217.14	321.622
217.35	1446.154
217.57	264.516
217.78	1468.421
218.00	481.395
218.21	1500.000
218.42	11733.333
218.64	321.849
218.85	844.444
219.07	608.197
219.28	349.123
219.49	784.848
219.71	405.405
219.92	1435.000
220.14	1987.500
220.35	565.152
220.56	237.419
220.78	6460.000
220.99	462.195
221.21	309.322
221.42	948.780
221.63	683.333
221.85	710.870
222.06	329.915
222.28	928.947
222.49	822.500
222.70	314.679
222.92	476.404
223.13	481.818
223.34	267.717
223.56	456.522
223.77	482.540
223.99	1123.077
224.20	254.545
224.41	240.984
224.63	309.016
224.84	426.761
225.05	408.791
225.27	437.662
225.48	283.019
225.69	197.024
225.91	686.538
226.12	298.507
226.34	176.552
226.55	241.739
226.76	216.000
226.98	163.983
227.19	175.862
227.40	185.586
227.62	142.510
227.83	140.214
228.04	133.788
228.26	75.689
228.47	91.560
228.69	67.168
228.90	75.388
229.11	73.592
229.33	55.832
229.54	52.006
229.75	42.398
229.97	45.998
230.18	40.533
230.39	36.524
230.61	40.364
230.82	47.079
231.03	39.976
231.25	46.137
231.46	49.818
231.67	56.275
231.89	54.880
232.10	50.598
232.31	61.741
232.53	59.879
232.74	54.693
232.95	64.325
233.17	77.864
233.38	53.947
233.59	83.964
233.81	76.529
234.02	72.763
234.23	59.646
234.45	96.737
234.66	69.557
234.87	68.503
235.09	67.802
235.30	56.056
235.51	55.222
235.73	53.707
235.94	54.780
236.15	51.064
236.36	51.429
236.58	54.622
236.79	67.969
237.00	56.719
237.22	57.402
237.43	57.540
237.64	49.690
237.86	54.587
238.07	47.744
238.28	54.281
238.50	47.287
238.71	52.778
238.92	62.519
239.13	55.745
239.35	55.878
239.56	47.076
239.77	61.125
239.99	44.493
240.20	56.346
240.41	41.236
240.63	54.933
240.84	56.441
241.05	35.831
241.26	37.066
241.48	33.639
241.69	29.241
241.90	28.661
242.12	25.784
242.33	24.697
242.54	20.393
242.75	20.463
242.97	33.435
243.18	18.076
243.39	20.203
243.61	19.905
243.82	22.860
244.03	19.783
244.24	16.314
244.46	18.914
244.67	23.626
244.88	22.387
245.09	23.491
245.31	23.582
245.52	20.986
245.73	28.116
245.95	43.799
246.16	25.478
246.37	25.740
246.58	20.798
246.80	19.321
247.01	17.347
247.22	13.470
247.43	12.122
247.65	15.953
247.86	15.848
248.07	11.273
248.28	14.819
248.50	13.164
248.71	13.536
248.92	13.556
249.13	16.140
249.35	16.738
249.56	14.883
249.77	14.437
249.98	14.358
250.20	19.754
250.41	18.225
250.62	19.523
250.83	22.533
251.05	25.276
251.26	18.849
251.47	24.349
251.68	24.957
251.90	20.126
252.11	25.529
252.32	21.833
252.53	23.049
252.75	19.440
252.96	16.960
253.17	19.862
253.38	20.192
253.59	17.439
253.81	20.500
254.02	16.833
254.23	19.727
254.44	22.462
254.66	21.191
254.87	26.298
255.08	24.424
255.29	23.929
255.50	27.815
255.72	29.398
255.93	32.741
256.14	30.872
256.35	20.185
256.57	26.586
256.78	25.795
256.99	25.654
257.20	30.036
257.41	26.525
257.63	29.192
257.84	23.270
258.05	22.771
258.26	20.112
258.47	23.069
258.69	18.804
258.90	16.255
259.11	19.158
259.32	16.451
259.53	15.947
259.75	14.136
259.96	12.247
260.17	10.473
260.38	12.656
260.59	10.252
260.81	9.265
261.02	12.097
261.23	10.192
261.44	12.690
261.65	11.484
261.87	10.136
262.08	11.663
262.29	14.617
262.50	11.281
262.71	12.606
262.92	13.923
263.14	12.616
263.35	12.849
263.56	16.831
263.77	17.030
263.98	16.973
264.20	17.113
264.41	16.388
264.62	18.059
264.83	18.459
265.04	22.674
265.25	15.317
265.47	18.404
265.68	19.691
265.89	15.655
266.10	14.683
266.31	18.207
266.52	17.967
266.74	16.728
266.95	15.240
267.16	14.366
267.37	17.886
267.58	12.564
267.79	16.149
268.01	13.170
268.22	13.158
268.43	15.240
268.64	14.486
268.85	13.282
269.06	11.573
269.27	17.475
269.49	13.698
269.70	14.152
269.91	12.572
270.12	14.478
270.33	15.929
270.54	12.394
270.75	13.147
270.97	13.404
271.18	12.087
271.39	13.061
271.60	15.544
271.81	12.346
272.02	12.102
272.23	12.767
272.45	12.572
272.66	11.308
272.87	9.746
273.08	11.743
273.29	12.653
273.50	10.411
273.71	11.967
273.92	11.574
274.14	12.101
274.35	12.695
274.56	12.192
274.77	13.438
274.98	12.745
275.19	13.370
275.40	11.975
275.61	11.742
275.83	16.394
276.04	12.678
276.25	13.625
276.46	14.899
276.67	16.324
276.88	14.067
277.09	14.149
277.30	16.177
277.51	14.081
277.73	12.648
277.94	11.633
278.15	13.880
278.36	14.778
278.57	13.060
278.78	14.930
278.99	12.666
279.20	13.626
279.41	17.788
279.62	12.604
279.84	12.380
280.05	11.415
280.26	11.240
280.47	14.528
280.68	12.159
280.89	11.950
281.10	12.000
281.31	14.233
281.52	12.497
281.73	9.637
281.94	11.542
282.16	12.083
282.37	12.333
282.58	9.972
282.79	14.486
283.00	12.706
283.21	10.170
283.42	11.108
283.63	12.063
283.84	10.784
284.05	8.976
284.26	10.636
284.47	10.142
284.68	11.222
284.89	11.043
285.11	9.975
285.32	8.879
285.53	11.634
285.74	11.482
285.95	9.619
286.16	10.964
286.37	11.088
286.58	11.201
286.79	9.140
287.00	10.762
287.21	8.306
287.42	11.631
287.63	9.451
287.84	8.866
288.05	11.498
288.26	10.614
288.48	11.026
288.69	9.706
288.90	10.698
289.11	11.766
289.32	11.452
289.53	9.686
289.74	6.853
289.95	9.484
290.16	11.042
290.37	8.945
290.58	9.031
290.79	10.541
291.00	8.227
291.21	9.153
291.42	9.501
291.63	9.806
291.84	9.721
292.05	9.261
292.26	9.226
292.47	9.982
292.68	10.048
292.89	11.201
293.10	10.378
293.31	9.276
293.52	9.314
293.73	8.577
293.94	11.357
294.15	10.300
294.36	9.788
294.57	11.263
294.79	11.258
295.00	9.485
295.21	12.276
295.42	10.512
295.63	11.680
295.84	8.355
296.05	7.199
296.26	8.672
296.47	9.286
296.68	8.690
296.89	11.872
297.10	10.060
297.31	10.192
297.52	8.790
297.73	8.212
297.94	8.020
298.15	7.973
298.36	8.311
298.57	7.100
298.78	9.134
298.99	7.485
299.20	8.474
299.41	10.166
299.62	8.563
299.83	6.670
300.04	10.199
300.25	9.541
300.46	9.705
300.67	10.951
300.88	10.622
301.09	7.555
301.30	9.377
301.50	8.059
301.71	11.941
301.92	12.588
302.13	8.057
302.34	10.096
302.55	9.933
302.76	7.979
302.97	9.385
303.18	11.791
303.39	9.132
303.60	9.325
303.81	10.252
304.02	7.946
304.23	8.593
304.44	7.750
304.65	10.462
304.86	9.971
305.07	9.682
305.28	10.794
305.49	11.983
305.70	11.008
305.91	7.844
306.12	10.002
306.33	10.444
306.54	9.895
306.75	9.944
306.96	13.382
307.17	9.144
307.38	10.855
307.58	10.705
307.79	9.611
308.00	8.389
308.21	8.775
308.42	9.141
308.63	10.120
308.84	8.911
309.05	8.421
309.26	7.983
309.47	9.980
309.68	8.759
309.89	10.040
310.10	7.982
310.31	8.223
310.52	7.670
310.73	10.707
310.94	7.534
311.14	7.850
311.35	9.441
311.56	8.816
311.77	9.166
311.98	7.115
312.19	6.980
312.40	7.800
312.61	7.555
312.82	8.622
313.03	7.770
313.24	9.484
313.45	8.280
313.66	8.373
313.86	10.902
314.07	7.775
314.28	9.880
314.49	8.565
314.70	8.521
314.91	12.579
315.12	9.506
315.33	10.139
315.54	8.030
315.75	10.141
315.96	8.669
316.16	9.065
316.37	10.263
316.58	8.774
316.79	9.789
317.00	10.222
317.21	11.031
317.42	10.330
317.63	10.041
317.84	10.827
318.05	10.402
318.25	10.834
318.46	10.474
318.67	10.090
318.88	9.956
319.09	11.232
319.30	8.938
319.51	10.299
319.72	10.042
319.93	7.234
320.13	8.596
320.34	11.466
320.55	10.674
320.76	11.215
320.97	10.155
321.18	13.182
321.39	9.534
321.60	10.616
321.80	11.276
322.01	11.121
322.22	10.870
322.43	9.478
322.64	11.348
322.85	10.715
323.06	10.525
323.27	11.089
323.47	10.775
323.68	11.127
323.89	9.783
324.10	10.122
324.31	7.017
324.52	11.006
324.73	9.098
324.93	9.312
325.14	9.548
325.35	9.746
325.56	9.989
325.77	11.021
325.98	9.440
326.19	9.491
326.39	6.859
326.60	9.881
326.81	8.338
327.02	7.378
327.23	8.362
327.44	11.678
327.64	7.981
327.85	8.474
328.06	11.397
328.27	10.790
328.48	9.860
328.69	7.264
328.90	9.470
329.10	10.326
329.31	11.588
329.52	8.634
329.73	11.422
329.94	9.548
330.15	10.106
330.35	10.220
330.56	10.168
330.77	10.605
330.98	11.180
331.19	9.599
331.39	11.057
331.60	10.254
331.81	9.950
332.02	11.386
332.23	9.860
332.44	9.093
332.64	9.893
332.85	10.359
333.06	11.459
333.27	7.743
333.48	11.380
333.68	9.119
333.89	10.618
334.10	10.640
334.31	11.177
334.52	10.044
334.72	12.307
334.93	8.098
335.14	8.248
335.35	11.051
335.56	12.270
335.76	8.978
335.97	11.983
336.18	8.413
336.39	13.090
336.60	11.169
336.80	11.023
337.01	8.908
337.22	11.131
337.43	11.807
337.64	13.506
337.84	11.490
338.05	11.491
338.26	12.893
338.47	12.251
338.68	7.789
338.88	12.116
339.09	10.692
339.30	12.727
339.51	12.084
339.71	12.920
339.92	9.847
340.13	11.598
340.34	12.092
340.55	11.860
340.75	11.050
340.96	9.237
341.17	11.721
341.38	11.167
341.58	12.064
341.79	12.665
342.00	11.554
342.21	11.854
342.41	10.193
342.62	11.539
342.83	12.851
343.04	10.008
343.24	12.630
343.45	14.374
343.66	11.868
343.87	13.824
344.07	9.571
344.28	14.928
344.49	12.762
344.70	14.950
344.90	11.008
345.11	9.711
345.32	11.876
345.53	13.265
345.73	12.750
345.94	15.276
346.15	14.999
346.36	12.227
346.56	13.581
346.77	13.466
346.98	14.160
347.19	13.867
347.39	12.109
347.60	13.413
347.81	14.739
348.02	14.988
348.22	11.744
348.43	13.295
348.64	10.852
348.84	13.550
349.05	14.438
349.26	16.465
349.47	11.358
349.67	12.584
349.88	14.380
350.09	13.658
350.30	15.286
350.50	12.853
350.71	14.180
350.92	15.727
351.12	13.985
351.33	14.273
351.54	13.861
351.74	14.496
351.95	12.310
352.16	13.126
352.37	14.474
352.57	13.346
352.78	12.060
352.99	14.347
353.19	13.348
353.40	14.580
353.61	13.949
353.82	15.477
354.02	14.650
354.23	15.670
354.44	16.558
354.64	13.814
354.85	14.897
355.06	14.233
355.26	11.666
355.47	13.297
355.68	16.130
355.88	15.007
356.09	14.241
356.30	12.087
356.51	16.055
356.71	13.662
356.92	11.782
357.13	15.502
357.33	15.600
357.54	13.912
357.75	12.439
357.95	14.621
358.16	12.649
358.37	16.760
358.57	12.652
358.78	16.969
358.99	14.358
359.19	14.419
359.40	14.541
359.61	13.451
359.81	15.557
360.02	16.749
360.23	13.707
360.43	13.696
360.64	12.588
360.85	13.810
361.05	12.331
361.26	16.121
361.47	13.413
361.67	14.342
361.88	12.081
362.09	14.689
362.29	12.565
362.50	13.345
362.70	12.188
362.91	14.901
363.12	12.828
363.32	13.240
363.53	13.819
363.74	14.732
363.94	12.300
364.15	15.323
364.36	13.123
364.56	13.902
364.77	14.255
364.98	14.920
365.18	13.235
365.39	15.161
365.59	12.311
365.80	12.671
366.01	14.562
366.21	13.181
366.42	12.808
366.63	14.752
366.83	13.400
367.04	10.492
367.24	14.192
367.45	11.496
367.66	12.027
367.86	13.098
368.07	12.325
368.28	12.818
368.48	12.776
368.69	12.367
368.89	12.743
369.10	13.540
369.31	13.148
369.51	13.547
369.72	14.584
369.92	15.592
370.13	10.675
370.34	13.508
370.54	9.399
370.75	13.440
370.95	10.937
371.16	12.726
371.37	11.164
371.57	12.146
371.78	11.514
371.98	12.984
372.19	13.254
372.40	13.352
372.60	13.137
372.81	12.557
373.01	10.547
373.22	12.032
373.43	13.152
373.63	13.479
373.84	12.072
374.04	12.461
374.25	11.428
374.46	12.423
374.66	12.568
374.87	13.981
375.07	10.839
375.28	11.475
375.48	11.937
375.69	13.891
375.90	10.899
376.10	9.785
376.31	11.109
376.51	11.388
376.72	9.996
376.92	11.582
377.13	11.310
377.34	12.530
377.54	11.232
377.75	12.643
377.95	11.160
378.16	12.561
378.36	11.601
378.57	12.772
378.77	11.851
378.98	11.337
379.19	11.777
379.39	10.911
379.60	11.985
379.80	12.822
380.01	12.302
380.21	11.338
380.42	11.800
380.62	10.581
380.83	11.663
381.04	11.059
381.24	11.416
381.45	11.367
381.65	10.572
381.86	12.268
382.06	11.819
382.27	10.850
382.47	10.386
382.68	11.665
382.88	9.672
383.09	10.236
383.29	10.558
383.50	12.075
383.71	10.412
383.91	10.609
384.12	9.919
384.32	11.695
384.53	10.963
384.73	9.712
384.94	9.933
385.14	10.297
385.35	9.649
385.55	10.920
385.76	10.299
385.96	10.574
386.17	10.757
386.37	10.816
386.58	10.812
386.78	11.809
386.99	10.147
387.19	11.931
387.40	9.529
387.60	12.597
387.81	10.566
388.01	10.356
388.22	11.262
388.42	12.273
388.63	10.886
388.83	13.053
389.04	10.061
389.24	10.726
389.45	10.924
389.65	10.709
389.86	10.433
390.06	11.032
390.27	10.592
390.47	10.803
390.68	11.005
390.88	12.014
391.09	11.032
391.29	11.760
391.50	10.709
391.70	11.399
391.91	10.697
392.11	10.870
392.32	11.058
392.52	12.165
392.73	10.617
392.93	11.298
393.14	10.297
393.34	10.658
393.55	11.057
393.75	11.081
393.95	9.714
394.16	11.117
394.36	11.378
394.57	11.361
394.77	11.055
394.98	11.297
395.18	11.532
395.39	11.103
395.59	10.076
395.80	10.706
396.00	10.333
396.21	11.284
396.41	10.065
396.61	11.694
396.82	10.816
397.02	11.975
397.23	11.147
397.43	11.529
397.64	9.393
397.84	11.175
398.05	9.756
398.25	11.394
398.45	10.191
398.66	11.211
398.86	10.377
399.07	12.042
399.27	10.543
399.48	10.893
399.68	10.713
399.89	10.215
400.09	11.306
400.29	10.217
400.50	10.853
400.70	11.106
400.91	9.836
401.11	10.638
401.32	9.897
401.52	10.059
401.72	10.434
401.93	11.367
402.13	10.385
402.34	10.800
402.54	9.677
402.75	12.456
402.95	9.073
403.15	11.295
403.36	10.267
403.56	10.916
403.77	10.452
403.97	9.892
404.17	8.634
404.38	10.944
404.58	9.406
404.79	11.037
404.99	10.135
405.19	10.386
405.40	9.844
405.60	10.685
405.81	9.823
406.01	10.156
406.21	9.918
406.42	10.801
406.62	10.076
406.83	10.373
407.03	10.813
407.23	10.445
407.44	9.862
407.64	10.423
407.85	10.248
408.05	9.936
408.25	9.691
408.46	10.536
408.66	10.758
408.87	10.089
409.07	9.894
409.27	8.866
409.48	9.164
409.68	10.448
409.88	9.074
410.09	9.939
410.29	10.490
410.50	11.441
410.70	9.371
410.90	9.816
411.11	9.242
411.31	9.743
411.51	10.373
411.72	10.012
411.92	9.149
412.12	10.433
412.33	9.147
412.53	9.254
412.74	9.654
412.94	9.774
413.14	9.547
413.35	9.677
413.55	9.594
413.75	10.255
413.96	9.086
414.16	10.044
414.36	8.931
414.57	10.104
414.77	8.614
414.97	10.475
415.18	9.757
415.38	8.851
415.58	9.325
415.79	9.047
415.99	9.788
416.19	9.609
416.40	9.198
416.60	9.231
416.80	8.701
417.01	9.259
417.21	8.655
417.41	9.577
417.62	9.522
417.82	10.013
418.02	9.213
418.23	9.556
418.43	9.272
418.63	9.421
418.84	9.580
419.04	9.448
419.24	9.657
419.45	10.003
419.65	9.732
419.85	9.882
420.06	9.603
420.26	9.770
420.46	9.442
420.67	10.347
420.87	9.276
421.07	9.900
421.28	9.525
421.48	9.985
421.68	9.832
421.88	10.178
422.09	10.163
422.29	9.927
422.49	9.506
422.70	10.417
422.90	9.803
423.10	10.047
423.31	10.276
423.51	10.179
423.71	9.512
423.91	10.001
424.12	9.924
424.32	10.332
424.52	9.903
424.73	9.899
424.93	9.676
425.13	9.620
425.33	9.518
425.54	9.955
425.74	9.933
425.94	10.033
426.15	9.593
426.35	9.949
426.55	9.606
426.75	10.297
426.96	9.725
427.16	9.853
427.36	9.606
427.57	10.268
427.77	9.473
427.97	9.779
428.17	9.494
428.38	9.903
428.58	8.667
428.78	10.052
428.98	8.939
429.19	9.615
429.39	8.827
429.59	9.706
429.79	8.568
430.00	8.799
430.20	7.969
430.40	9.110
430.60	8.405
430.81	9.186
431.01	8.116
431.21	9.475
431.41	8.630
431.62	9.232
431.82	8.866
432.02	9.427
432.22	8.225
432.43	8.639
432.63	8.503
432.83	8.891
433.03	8.701
433.24	8.736
433.44	8.343
433.64	9.020
433.84	8.427
434.05	8.867
434.25	8.810
434.45	9.448
434.65	9.462
434.85	9.325
435.06	9.234
435.26	9.355
435.46	8.886
435.66	9.474
435.87	8.783
436.07	9.236
436.27	9.137
436.47	9.003
436.67	8.241
436.88	9.143
437.08	9.176
437.28	9.207
437.48	9.009
437.69	9.209
437.89	8.571
438.09	9.325
438.29	8.490
438.49	9.149
438.70	8.642
438.90	8.643
439.10	8.498
439.30	8.721
439.50	8.645
439.71	9.281
439.91	8.855
440.11	9.324
440.31	8.922
440.51	8.637
440.72	8.609
440.92	8.964
441.12	9.156
441.32	9.231
441.52	9.219
441.72	9.225
441.93	9.236
442.13	9.301
442.33	9.435
442.53	9.369
442.73	8.973
442.94	9.335
443.14	8.884
443.34	9.426
443.54	8.805
443.74	9.192
443.94	8.513
444.15	8.898
444.35	8.542
444.55	9.024
444.75	8.782
444.95	9.287
445.15	8.622
445.36	8.760
445.56	8.206
445.76	8.795
445.96	8.583
446.16	9.100
446.36	8.540
446.57	9.453
446.77	8.863
446.97	8.938
447.17	9.203
447.37	9.353
447.57	9.339
447.77	9.221
447.98	9.027
448.18	9.303
448.38	9.063
448.58	9.216
448.78	9.267
448.98	9.421
449.18	9.120
449.39	9.392
449.59	8.806
449.79	9.237
449.99	9.194
450.19	9.648
450.39	8.866
450.59	8.855
450.79	8.701
451.00	9.401
451.20	9.737
451.40	8.915
451.60	8.473
451.80	9.080
452.00	8.083
452.20	8.602
452.40	8.621
452.61	8.809
452.81	8.776
453.01	8.552
453.21	8.360
453.41	8.954
453.61	8.865
453.81	8.675
454.01	8.359
454.21	9.040
454.42	9.104
454.62	8.894
454.82	8.240
455.02	9.076
455.22	8.488
455.42	8.938
455.62	8.858
455.82	8.391
456.02	7.926
456.23	8.829
456.43	8.372
456.63	8.625
456.83	8.301
457.03	8.683
457.23	8.490
457.43	8.741
457.63	8.252
457.83	8.885
458.03	8.063
458.23	8.138
458.43	7.826
458.64	8.052
458.84	7.818
459.04	8.856
459.24	8.121
459.44	8.611
459.64	8.366
459.84	8.534
460.04	8.521
460.24	8.453
460.44	8.652
460.64	8.889
460.84	8.549
461.04	8.892
461.24	8.859
461.45	8.836
461.65	8.996
461.85	9.072
462.05	8.531
462.25	8.945
462.45	9.195
462.65	9.067
462.85	7.989
463.05	8.745
463.25	7.993
463.45	8.931
463.65	8.052
463.85	8.522
464.05	7.676
464.25	8.400
464.45	8.358
464.65	8.083
464.85	8.184
465.05	8.352
465.26	8.215
465.46	8.803
465.66	8.572
465.86	8.478
466.06	8.112
466.26	8.312
466.46	7.868
466.66	8.372
466.86	8.355
467.06	8.077
467.26	8.304
467.46	8.697
467.66	7.999
467.86	8.066
468.06	8.305
468.26	8.253
468.46	8.236
468.66	8.562
468.86	7.983
469.06	8.747
469.26	7.570
469.46	8.499
469.66	8.037
469.86	8.693
470.06	7.915
470.26	8.113
470.46	7.999
470.66	8.796
470.86	7.777
471.06	7.987
471.26	7.487
471.46	8.393
471.66	8.080
471.86	8.283
472.06	8.065
472.26	8.747
472.46	8.599
472.66	8.197
472.86	8.042
473.06	8.494
473.26	7.904
473.46	8.552
473.66	8.277
473.86	8.568
474.06	7.613
474.26	8.233
474.46	7.376
474.66	8.210
474.86	8.278
475.06	8.626
475.26	7.753
475.46	8.187
475.66	7.474
475.86	8.262
476.06	8.528
476.26	8.412
476.46	7.674
476.66	8.305
476.86	7.759
477.06	8.417
477.26	7.545
477.46	8.644
477.65	7.927
477.85	8.775
478.05	7.891
478.25	8.803
478.45	8.173
478.65	8.685
478.85	8.076
479.05	8.604
479.25	8.005
479.45	8.659
479.65	8.041
479.85	8.623
480.05	8.140
480.25	8.457
480.45	8.224
480.65	8.771
480.85	8.078
481.05	8.990
481.25	8.345
481.44	8.425
481.64	8.113
481.84	8.642
482.04	8.675
482.24	8.646
482.44	8.192
482.64	8.377
482.84	8.444
483.04	8.467
483.24	8.347
483.44	8.237
483.64	8.276
483.84	8.229
484.04	8.290
484.23	8.472
484.43	8.537
484.63	8.862
484.83	9.177
485.03	9.461
485.23	9.403
485.43	9.299
485.63	9.210
485.83	9.233
486.03	9.275
486.23	9.329
486.42	9.022
486.62	9.222
486.82	8.785
487.02	8.799
487.22	8.657
487.42	8.663
487.62	8.630
487.82	8.562
488.02	8.650
488.22	8.768
488.41	8.778
488.61	8.896
488.81	9.105
489.01	8.989
489.21	9.179
489.41	9.242
489.61	9.188
489.81	9.045
490.01	9.191
490.20	9.158
490.40	9.103
490.60	9.283
490.80	8.732
491.00	8.850
491.20	8.710
491.40	8.690
491.60	8.604
491.79	8.704
491.99	8.633
492.19	8.795
492.39	8.872
492.59	8.864
492.79	8.727
492.99	9.102
493.19	9.015
493.38	9.252
493.58	9.469
493.78	9.336
493.98	9.317
494.18	9.046
494.38	9.089
494.58	9.548
494.77	8.504
494.97	8.950
495.17	8.631
495.37	8.803
495.57	8.775
495.77	8.771
495.96	8.622
496.16	8.629
496.36	8.538
496.56	8.730
496.76	8.497
496.96	8.703
497.15	8.569
497.35	8.833
497.55	8.534
497.75	9.076
497.95	8.549
498.15	9.008
498.34	8.846
498.54	8.736
498.74	9.187
498.94	8.906
499.14	8.806
499.34	8.674
499.53	9.003
499.73	9.073
499.93	8.655
500.13	8.722
500.33	8.258
500.52	8.584
500.72	8.639
500.92	9.008
501.12	8.686
501.32	8.894
501.52	8.819
501.71	8.612
501.91	8.353
502.11	9.053
502.31	8.645
502.51	8.848
502.70	8.449
502.90	8.465
503.10	8.392
503.30	8.637
503.50	8.571
503.69	8.891
503.89	8.447
504.09	8.884
504.29	8.851
504.48	8.936
504.68	8.512
504.88	8.898
505.08	8.537
505.28	8.831
505.47	8.863
505.67	9.397
505.87	8.808
506.07	9.209
506.27	8.576
506.46	9.185
506.66	8.611
506.86	9.032
507.06	9.017
507.25	8.895
507.45	8.589
507.65	9.186
507.85	8.804
508.04	9.425
508.24	8.948
508.44	8.984
508.64	8.474
508.83	9.382
509.03	9.091
509.23	8.802
509.43	9.080
509.63	8.724
509.82	8.835
510.02	9.382
510.22	9.394
510.42	9.491
510.61	9.099
510.81	9.113
511.01	8.637
511.21	9.578
511.40	8.881
511.60	9.298
511.80	9.243
511.99	9.378
512.19	9.037
512.39	9.268
512.59	9.045
512.78	9.693
512.98	9.452
513.18	9.612
513.38	9.167
513.57	9.546
513.77	9.289
513.97	9.492
514.17	9.467
514.36	9.497
514.56	9.071
514.76	9.721
514.95	9.154
515.15	9.306
515.35	9.277
515.55	9.268
515.74	9.467
515.94	9.537
516.14	9.144
516.33	9.290
516.53	9.076
516.73	9.166
516.93	9.087
517.12	9.453
517.32	9.087
517.52	9.367
517.71	9.398
517.91	9.346
518.11	9.419
518.30	9.337
518.50	9.116
518.70	9.264
518.90	9.681
519.09	9.706
519.29	9.684
519.49	9.794
519.68	9.552
519.88	9.689
520.08	9.673
520.27	9.991
520.47	9.716
520.67	9.949
520.86	10.016
521.06	10.220
521.26	9.357
521.45	9.654
521.65	9.585
521.85	9.662
522.04	9.251
522.24	9.634
522.44	9.160
522.63	9.800
522.83	9.468
523.03	9.765
523.22	9.259
523.42	9.942
523.62	9.487
523.81	9.469
524.01	9.569
524.21	9.745
524.40	9.234
524.60	10.049
524.80	9.588
524.99	9.372
525.19	9.475
525.39	9.368
525.58	9.359
525.78	9.559
525.98	9.885
526.17	9.841
526.37	9.585
526.57	10.051
526.76	9.920
526.96	9.744
527.15	9.928
527.35	9.843
527.55	9.823
527.74	9.805
527.94	9.873
528.14	9.652
528.33	9.623
528.53	9.527
528.72	9.580
528.92	9.749
529.12	9.751
529.31	9.777
529.51	10.005
529.71	10.082
529.90	10.035
530.10	10.005
530.29	10.440
530.49	10.301
530.69	10.633
530.88	10.544
531.08	10.341
531.28	10.247
531.47	10.233
531.67	10.066
531.86	10.058
532.06	10.169
532.26	10.151
532.45	9.966
532.65	9.998
532.84	9.913
533.04	9.963
533.24	9.667
533.43	9.882
533.63	10.023
533.82	10.143
534.02	10.257
534.22	10.169
534.41	10.305
534.61	10.389
534.80	10.230
535.00	10.332
535.19	10.443
535.39	10.297
535.59	10.328
535.78	10.410
535.98	10.303
536.17	10.121
536.37	10.040
536.57	10.075
536.76	10.290
536.96	9.934
537.15	10.362
537.35	10.137
537.54	10.490
537.74	10.753
537.93	10.331
538.13	10.802
538.33	10.464
538.52	10.641
538.72	10.706
538.91	10.730
539.11	10.484
539.30	10.465
539.50	10.525
539.70	10.585
539.89	10.941
540.09	10.185
540.28	10.426
540.48	10.221
540.67	10.398
540.87	10.283
541.06	9.902
541.26	10.062
541.45	10.222
541.65	10.595
541.85	10.502
542.04	10.723
542.24	10.686
542.43	10.565
542.63	10.771
542.82	10.765
543.02	10.885
543.21	11.084
543.41	11.015
543.60	11.172
543.80	11.385
543.99	11.274
544.19	11.206
544.38	11.350
544.58	11.373
544.77	11.236
544.97	11.327
545.16	11.064
545.36	10.961
545.56	11.218
545.75	11.269
545.95	10.986
546.14	11.457
546.34	11.031
546.53	11.176
546.73	11.116
546.92	11.573
547.12	11.020
547.31	11.439
547.51	10.982
547.70	11.492
547.90	11.545
548.09	11.681
548.29	11.402
548.48	11.593
548.68	11.350
548.87	11.934
549.07	11.831
549.26	11.892
549.46	11.723
549.65	12.011
549.84	11.916
550.04	11.752
550.23	11.653
550.43	11.626
550.62	11.702
550.82	12.180
551.01	11.539
551.21	11.762
551.40	11.379
551.60	11.349
551.79	11.752
551.99	12.110
552.18	11.934
552.38	11.820
552.57	12.054
552.77	11.894
552.96	12.020
553.16	12.096
553.35	11.997
553.54	12.731
553.74	12.098
553.93	12.663
554.13	12.350
554.32	12.623
554.52	12.476
554.71	13.261
554.91	12.301
555.10	13.000
555.29	12.321
555.49	12.877
555.68	12.662
555.88	13.034
556.07	12.272
556.27	13.573
556.46	12.613
556.66	12.669
556.85	12.857
557.04	12.791
557.24	12.738
557.43	13.760
557.63	13.113
557.82	13.193
558.02	12.797
558.21	13.831
558.40	13.284
558.60	14.021
558.79	13.019
558.99	13.400
559.18	13.171
559.38	13.775
559.57	13.521
559.76	13.490
559.96	14.148
560.15	13.693
560.35	13.293
560.54	14.252
560.73	13.476
560.93	14.454
561.12	14.230
561.32	14.252
561.51	14.118
561.70	14.814
561.90	14.171
562.09	14.722
562.29	14.533
562.48	14.710
562.67	14.661
562.87	15.195
563.06	14.526
563.26	15.109
563.45	14.926
563.64	15.512
563.84	15.095
564.03	14.956
564.23	14.621
564.42	15.414
564.61	15.219
564.81	15.080
565.00	15.377
565.20	15.546
565.39	15.276
565.58	15.471
565.78	15.446
565.97	15.535
566.16	15.867
566.36	15.810
566.55	15.886
566.74	16.131
566.94	15.759
567.13	16.142
567.33	16.223
567.52	16.468
567.71	16.331
567.91	16.393
568.10	16.693
568.29	16.397
568.49	16.565
568.68	16.470
568.87	16.338
569.07	16.686
569.26	16.457
569.45	16.891
569.65	16.562
569.84	16.776
570.04	16.806
570.23	16.582
570.42	16.452
570.62	16.792
570.81	16.658
571.00	16.709
571.20	16.617
571.39	17.127
571.58	16.420
571.78	17.008
571.97	17.428
572.16	16.710
572.36	16.856
572.55	16.922
572.74	16.692
572.94	17.238
573.13	17.086
573.32	17.266
573.51	16.857
573.71	17.110
573.90	17.359
574.09	17.311
574.29	17.467
574.48	17.142
574.67	17.065
574.87	17.567
575.06	17.029
575.25	17.351
575.45	17.278
575.64	17.610
575.83	17.317
576.03	18.212
576.22	17.338
576.41	17.469
576.60	17.937
576.80	17.351
576.99	17.578
577.18	17.850
577.38	17.443
577.57	17.730
577.76	17.832
577.95	17.659
578.15	17.215
578.34	17.865
578.53	17.327
578.73	17.888
578.92	17.750
579.11	18.036
579.30	18.404
579.50	17.632
579.69	17.617
579.88	18.188
580.08	17.499
580.27	17.740
580.46	17.650
580.65	17.673
580.85	17.045
581.04	17.336
581.23	17.217
581.42	17.046
581.62	17.522
581.81	17.738
582.00	17.960
582.19	17.494
582.39	17.579
582.58	17.683
582.77	17.549
582.96	18.318
583.16	16.872
583.35	17.746
583.54	17.399
583.73	17.032
583.93	16.583
584.12	17.313
584.31	17.011
584.50	16.824
584.70	17.027
584.89	17.372
585.08	16.832
585.27	17.680
585.47	16.289
585.66	17.890
585.85	16.081
586.04	17.423
586.24	17.089
586.43	16.868
586.62	17.072
586.81	17.460
587.00	16.316
587.20	17.112
587.39	16.769
587.58	16.859
587.77	17.135
587.97	16.403
588.16	16.417
588.35	16.763
588.54	16.828
588.73	17.052
588.93	16.897
589.12	17.420
589.31	16.645
589.50	16.423
589.69	16.770
589.89	16.668
590.08	16.591
590.27	17.087
590.46	17.621
590.65	16.965
590.85	16.397
591.04	17.506
591.23	17.330
591.42	17.438
591.61	17.145
591.81	17.364
592.00	16.806
592.19	17.276
592.38	16.253
592.57	17.219
592.77	16.768
592.96	18.094
593.15	17.279
593.34	17.238
593.53	16.569
593.72	16.848
593.92	16.832
594.11	17.514
594.30	16.329
594.49	17.465
594.68	17.065
594.87	17.464
595.07	16.900
595.26	17.535
595.45	17.724
595.64	17.282
595.83	17.056
596.02	17.856
596.22	17.378
596.41	17.348
596.60	17.632
596.79	17.495
596.98	16.982
597.17	17.400
597.37	17.534
597.56	17.924
597.75	17.444
597.94	17.655
598.13	17.909
598.32	17.882
598.51	17.655
598.71	18.155
598.90	17.684
599.09	17.835
599.28	18.042
599.47	18.084
599.66	17.354
599.85	18.092
600.05	18.057
600.24	17.988
600.43	18.307
600.62	18.069
600.81	17.930
601.00	18.682
601.19	17.619
601.38	17.739
601.58	18.361
601.77	17.705
601.96	18.165
602.15	18.271
602.34	18.193
602.53	18.469
602.72	17.840
602.91	18.116
603.10	17.485
603.30	19.071
603.49	18.363
603.68	18.487
603.87	18.355
604.06	17.884
604.25	18.514
604.44	18.456
604.63	18.413
604.82	18.509
605.01	18.703
605.21	18.861
605.40	18.613
605.59	18.531
605.78	18.782
605.97	18.011
606.16	19.233
606.35	18.516
606.54	19.114
606.73	18.857
606.92	18.472
607.11	18.812
607.30	19.046
607.50	18.653
607.69	18.109
607.88	18.898
608.07	18.381
608.26	18.277
608.45	18.715
608.64	18.600
608.83	17.892
609.02	18.161
609.21	17.915
609.40	18.269
609.59	18.057
609.78	18.059
609.97	17.841
610.16	18.376
610.35	17.833
610.55	18.501
610.74	17.970
610.93	18.334
611.12	17.631
611.31	18.078
611.50	17.994
611.69	18.100
611.88	17.601
612.07	17.865
612.26	17.162
612.45	17.766
612.64	17.288
612.83	17.360
613.02	16.697
613.21	17.413
613.40	17.293
613.59	17.847
613.78	16.769
613.97	17.575
614.16	16.823
614.35	17.926
614.54	15.927
614.73	16.798
614.92	16.615
615.11	16.910
615.30	17.172
615.49	17.590
615.68	15.895
615.87	16.822
616.07	16.040
616.26	15.662
616.45	16.872
616.64	15.747
616.83	16.568
617.02	16.886
617.21	15.335
617.40	16.652
617.59	16.227
617.78	16.285
617.97	15.477
618.16	15.761
618.35	14.346
618.54	15.656
618.73	15.829
618.92	16.064
619.11	15.093
619.30	16.483
619.49	14.478
619.68	15.581
619.86	15.232
620.05	15.952
620.24	14.565
620.43	15.808
620.62	13.855
620.81	15.254
621.00	15.554
621.19	15.723
621.38	15.290
621.57	16.264
621.76	14.123
621.95	16.117
622.14	15.409
622.33	15.576
622.52	14.823
622.71	15.209
622.90	14.133
623.09	15.098
623.28	14.857
623.47	15.622
623.66	14.849
623.85	15.017
624.04	14.373
624.23	15.051
624.42	14.880
624.61	15.736
624.80	14.243
624.99	15.646
625.18	13.515
625.36	14.312
625.55	14.688
625.74	14.969
625.93	14.193
626.12	14.755
626.31	15.154
626.50	15.217
626.69	14.408
626.88	15.964
627.07	14.808
627.26	14.981
627.45	15.093
627.64	15.192
627.83	15.310
628.02	14.915
628.20	14.752
628.39	15.633
628.58	15.223
628.77	15.870
628.96	14.820
629.15	14.403
629.34	14.520
629.53	15.049
629.72	14.245
629.91	15.737
630.10	14.575
630.29	15.319
630.47	14.189
630.66	15.253
630.85	13.991
631.04	14.911
631.23	14.984
631.42	14.952
631.61	14.124
631.80	15.263
631.99	13.784
632.18	14.161
632.36	13.788
632.55	15.099
632.74	13.274
632.93	14.019
633.12	13.735
633.31	14.063
633.50	14.234
633.69	14.491
633.88	13.532
634.06	15.029
634.25	14.275
634.44	13.912
634.63	13.799
634.82	14.828
635.01	14.259
635.20	14.610
635.39	13.904
635.57	14.799
635.76	13.258
635.95	14.747
636.14	13.357
636.33	14.191
636.52	13.491
636.71	14.256
636.89	13.871
637.08	13.928
637.27	13.613
637.46	13.881
637.65	14.618
637.84	13.516
638.03	13.520
638.21	14.543
638.40	13.987
638.59	14.020
638.78	13.536
638.97	13.874
639.16	13.892
639.34	13.505
639.53	12.481
639.72	13.757
639.91	13.355
640.10	13.680
640.29	14.260
640.47	14.480
640.66	13.308
640.85	15.176
641.04	13.174
641.23	14.617
641.42	13.219
641.60	13.245
641.79	13.913
641.98	13.076
642.17	13.455
642.36	13.689
642.54	12.015
642.73	13.674
642.92	12.660
643.11	13.190
643.30	12.910
643.49	13.876
643.67	12.044
643.86	12.887
644.05	11.643
644.24	13.504
644.43	13.406
644.61	12.916
644.80	12.892
644.99	13.022
645.18	13.923
645.37	13.666
645.55	11.973
645.74	14.013
645.93	13.510
646.12	13.650
646.31	13.621
646.49	13.455
646.68	13.825
646.87	13.636
647.06	13.187
647.24	13.695
647.43	12.426
647.62	14.701
647.81	13.111
648.00	13.860
648.18	11.181
648.37	13.319
648.56	13.116
648.75	13.465
648.93	12.972
649.12	12.958
649.31	12.618
649.50	13.061
649.68	12.320
649.87	12.772
650.06	11.975
650.25	13.089
650.43	12.554
650.62	12.626
650.81	12.481
651.00	12.889
651.18	11.816
651.37	13.394
651.56	11.505
651.75	13.227
651.93	11.944
652.12	13.770
652.31	12.212
652.50	13.091
652.68	13.001
652.87	13.155
653.06	12.233
653.25	13.322
653.43	12.325
653.62	13.198
653.81	12.148
654.00	13.735
654.18	12.640
654.37	13.892
654.56	11.984
654.74	12.477
654.93	11.529
655.12	12.139
655.31	11.286
655.49	12.988
655.68	10.638
655.87	10.836
656.05	10.996
656.24	11.185
656.43	10.168
656.62	12.051
656.80	11.197
656.99	11.177
657.18	9.965
657.36	10.934
657.55	11.370
657.74	11.037
657.93	11.272
658.11	11.440
658.30	10.904
658.49	9.949
658.67	10.135
658.86	10.749
659.05	10.011
659.23	11.859
659.42	9.819
659.61	11.611
659.79	10.492
659.98	10.588
660.17	10.802
660.35	11.716
660.54	11.511
660.73	11.902
660.91	11.358
661.10	10.703
661.29	9.538
661.47	10.026
661.66	10.559
661.85	10.557
662.03	9.685
662.22	10.416
662.41	8.689
662.59	9.593
662.78	9.203
662.97	8.318
663.15	7.863
663.34	9.375
663.53	7.982
663.71	9.449
663.90	7.720
664.09	10.378
664.27	9.624
664.46	8.392
664.65	9.099
664.83	8.819
665.02	7.747
665.21	7.661
665.39	7.993
665.58	8.824
665.77	8.967
665.95	9.216
666.14	8.421
666.32	8.672
666.51	8.055
666.70	7.805
666.88	7.889
667.07	8.204
667.26	8.061
667.44	7.691
667.63	9.000
667.81	8.389
668.00	9.330
668.19	9.625
668.37	7.846
668.56	9.064
668.75	7.479
668.93	9.375
669.12	8.062
669.30	8.229
669.49	7.369
669.68	8.664
669.86	9.099
670.05	7.762
670.23	7.531
670.42	7.769
670.61	8.972
670.79	8.914
670.98	8.316
671.16	9.685
671.35	6.996
671.54	8.062
671.72	7.661
671.91	9.236
672.09	7.145
672.28	9.420
672.46	9.707
672.65	9.587
672.84	10.618
673.02	9.333
673.21	6.970
673.39	9.264
673.58	9.096
673.77	9.110
673.95	7.792
674.14	9.587
674.32	9.410
674.51	9.584
674.69	8.661
674.88	7.690
675.07	8.945
675.25	10.958
675.44	8.656
675.62	9.239
675.81	7.980
675.99	11.767
676.18	10.057
676.36	9.309
676.55	8.325
676.74	10.222
676.92	9.864
677.11	10.066
677.29	8.979
677.48	11.902
677.66	9.540
677.85	9.689
678.03	9.776
678.22	10.910
678.40	10.181
678.59	9.469
678.78	9.103
678.96	9.706
679.15	8.797
679.33	11.193
679.52	10.796
679.70	11.433
679.89	9.970
680.07	10.752
680.26	9.369
680.44	9.856
680.63	9.672
680.81	9.938
681.00	8.176
681.18	9.546
681.37	10.786
681.55	11.586
681.74	10.955
681.92	11.537
682.11	11.156
682.29	10.410
682.48	10.654
682.66	10.438
682.85	10.345
683.03	11.144
683.22	11.811
683.40	13.531
683.59	11.212
683.77	10.439
683.96	9.974
684.14	12.739
684.33	9.096
684.51	12.787
684.70	11.128
684.88	12.871
685.07	11.715
685.25	12.643
685.44	9.534
685.62	13.240
685.81	11.569
685.99	12.033
686.18	11.406
686.36	13.193
686.55	10.063
686.73	12.982
686.92	12.574
687.10	13.765
687.29	13.655
687.47	13.550
687.65	14.713
687.84	12.987
688.02	15.026
688.21	15.543
688.39	13.316
688.58	14.784
688.76	14.225
688.95	13.723
689.13	12.846
689.32	15.367
689.50	13.954
689.68	15.953
689.87	14.946
690.05	15.610
690.24	15.212
690.42	16.424
690.61	16.446
690.79	16.623
690.98	16.092
691.16	17.359
691.34	15.101
691.53	17.396
691.71	16.398
691.90	19.011
692.08	17.469
692.27	20.390
692.45	20.406
692.63	19.175
692.82	20.082
693.00	20.563
693.19	18.529
693.37	21.152
693.56	19.545
693.74	21.704
693.92	19.311
694.11	21.694
694.29	21.534
694.48	23.385
694.66	22.643
694.84	23.301
695.03	22.703
695.21	25.915
695.40	24.854
695.58	25.349
695.76	24.223
695.95	25.824
696.13	25.303
696.32	26.528
696.50	29.471
696.68	28.506
696.87	25.730
697.05	28.127
697.24	27.783
697.42	29.999
697.60	27.248
697.79	30.645
697.97	28.091
698.16	29.205
698.34	29.116
698.52	30.893
698.71	29.567
698.89	31.458
699.07	30.880
699.26	32.388
699.44	31.536
699.63	33.521
699.81	30.878
699.99	32.404
700.18	33.476
700.36	33.568
700.54	33.475
700.73	32.746
700.91	33.850
701.09	35.095
701.28	35.447
701.46	35.368
701.64	34.723
701.83	35.929
702.01	34.299
702.20	36.630
702.38	36.767
702.56	38.837
702.75	36.704
702.93	37.568
703.11	36.809
703.30	39.959
703.48	37.898
703.66	40.498
703.85	37.492
704.03	41.512
704.21	38.374
704.40	40.264
704.58	40.102
704.76	41.251
704.95	40.558
705.13	41.170
705.31	41.371
705.50	43.461
705.68	41.400
705.86	42.402
706.04	41.999
706.23	44.196
706.41	42.248
706.59	43.049
706.78	40.149
706.96	42.615
707.14	42.695
707.33	44.001
707.51	43.812
707.69	44.382
707.88	40.757
708.06	43.344
708.24	43.016
708.42	45.203
708.61	43.414
708.79	44.437
708.97	46.720
709.16	45.041
709.34	47.114
709.52	43.654
709.71	46.576
709.89	45.777
710.07	43.081
710.25	47.594
710.44	45.508
710.62	47.214
710.80	43.628
710.98	47.450
711.17	45.833
711.35	47.379
711.53	45.836
711.72	46.344
711.90	46.994
712.08	46.409
712.26	43.627
712.45	46.384
712.63	46.058
712.81	45.119
712.99	49.154
713.18	45.763
713.36	45.833
713.54	47.724
713.72	45.711
713.91	48.129
714.09	46.850
714.27	47.897
714.45	47.519
714.64	48.411
714.82	46.963
715.00	47.794
715.18	48.027
715.37	47.046
715.55	47.598
715.73	47.543
715.91	47.315
716.10	47.044
716.28	45.260
716.46	48.187
716.64	45.604
716.83	48.867
717.01	47.508
717.19	47.715
717.37	47.457
717.55	47.474
717.74	46.973
717.92	46.632
718.10	46.762
718.28	49.079
718.47	46.649
718.65	50.418
718.83	48.284
719.01	49.830
719.19	47.215
719.38	49.526
719.56	50.030
719.74	48.467
719.92	46.467
720.10	49.850
720.29	48.563
720.47	51.194
720.65	48.418
720.83	50.587
721.01	48.549
721.20	50.557
721.38	49.103
721.56	51.623
721.74	49.324
721.92	49.495
722.11	49.164
722.29	53.087
722.47	50.705
722.65	51.735
722.83	54.475
723.01	52.318
723.20	51.186
723.38	51.640
723.56	49.898
723.74	54.770
723.92	49.781
724.10	51.602
724.29	49.753
724.47	51.875
724.65	52.818
724.83	52.384
725.01	50.910
725.19	50.704
725.38	48.797
725.56	51.407
725.74	51.373
725.92	51.942
726.10	52.211
726.28	53.521
726.46	53.462
726.65	53.266
726.83	51.171
727.01	51.980
727.19	53.268
727.37	51.098
727.55	51.950
727.73	51.730
727.92	52.909
728.10	53.124
728.28	50.360
728.46	49.969
728.64	52.684
728.82	52.034
729.00	52.334
729.19	54.127
729.37	49.055
729.55	52.451
729.73	50.031
729.91	51.614
730.09	51.877
730.27	52.938
730.45	51.348
730.63	51.572
730.82	52.040
731.00	53.533
731.18	50.603
731.36	53.229
731.54	51.190
731.72	52.781
731.90	52.839
732.08	52.904
732.26	50.879
732.45	53.030
732.63	51.279
732.81	52.231
732.99	52.652
733.17	53.541
733.35	53.259
733.53	53.324
733.71	52.959
733.89	52.474
734.07	54.551
734.25	53.129
734.44	50.976
734.62	52.892
734.80	52.298
734.98	54.116
735.16	53.529
735.34	56.873
735.52	56.356
735.70	55.333
735.88	55.878
736.06	54.589
736.24	54.970
736.42	56.274
736.60	55.335
736.78	58.507
736.97	55.762
737.15	57.917
737.33	55.763
737.51	55.817
737.69	57.281
737.87	57.974
738.05	57.195
738.23	57.607
738.41	56.813
738.59	57.484
738.77	57.239
738.95	57.558
739.13	56.357
739.31	56.078
739.49	57.242
739.67	57.579
739.85	58.975
740.03	57.942
740.21	54.873
740.39	58.309
740.57	57.883
740.75	56.515
740.93	56.689
741.11	56.566
741.30	55.285
741.48	56.953
741.66	59.238
741.84	59.816
742.02	57.962
742.20	57.715
742.38	58.354
742.56	61.448
742.74	55.147
742.92	56.565
743.10	56.155
743.28	59.540
743.46	59.540
743.64	59.626
743.82	59.679
744.00	60.530
744.18	59.213
744.36	58.960
744.54	60.299
744.72	61.928
744.90	60.105
745.08	61.969
745.26	58.304
745.44	60.919
745.62	57.810
745.80	58.719
745.98	60.701
746.16	61.310
746.34	59.887
746.52	59.469
746.70	59.715
746.87	60.757
747.05	63.097
747.23	60.849
747.41	61.048
747.59	60.019
747.77	58.131
747.95	61.536
748.13	62.656
748.31	64.995
748.49	59.128
748.67	60.273
748.85	58.977
749.03	59.757
749.21	61.477
749.39	63.736
749.57	58.235
749.75	60.956
749.93	59.846
750.11	59.075
750.29	58.032
750.47	58.149
750.65	58.053
750.83	60.826
751.01	60.064
751.18	60.224
751.36	57.937
751.54	62.325
751.72	62.471
751.90	56.992
752.08	58.184
752.26	57.460
752.44	62.254
752.62	60.199
752.80	61.270
752.98	59.466
753.16	57.297
753.34	61.062
753.52	62.995
753.69	61.580
753.87	61.583
754.05	60.493
754.23	57.598
754.41	58.806
754.59	57.924
754.77	59.330
754.95	59.234
755.13	60.125
755.31	58.072
755.49	61.023
755.66	57.088
755.84	57.242
756.02	60.168
756.20	60.717
756.38	56.475
756.56	61.070
756.74	57.143
756.92	58.959
757.10	61.508
757.28	63.444
757.45	61.795
757.63	60.828
757.81	60.234
757.99	60.746
758.17	57.454
758.35	61.682
758.53	57.201
758.71	57.621
758.88	56.320
759.06	59.063
759.24	56.989
759.42	57.885
759.60	53.363
759.78	55.072
759.96	53.049
760.13	52.322
760.31	50.046
760.49	48.462
760.67	45.356
760.85	49.475
761.03	47.570
761.21	48.510
761.38	45.103
761.56	50.379
761.74	44.314
761.92	53.452
762.10	45.523
762.28	49.206
762.46	44.056
762.63	47.973
762.81	45.745
762.99	49.661
763.17	45.143
763.35	47.236
763.53	44.648
763.70	48.163
763.88	48.495
764.06	47.473
764.24	45.527
764.42	47.472
764.60	45.390
764.77	47.972
764.95	48.099
765.13	49.876
765.31	48.943
765.49	48.047
765.66	48.260
765.84	48.919
766.02	47.995
766.20	53.756
766.38	50.025
766.56	52.621
766.73	49.519
766.91	51.205
767.09	55.711
767.27	55.599
767.45	53.185
767.62	53.702
767.80	54.721
767.98	55.008
768.16	54.388
768.33	56.495
768.51	57.542
768.69	57.659
768.87	54.381
769.05	57.603
769.22	54.216
769.40	58.397
769.58	61.190
769.76	62.136
769.94	59.624
770.11	58.642
770.29	61.168
770.47	62.189
770.65	57.449
770.82	62.593
771.00	58.807
771.18	60.937
771.36	62.996
771.53	60.260
771.71	62.261
771.89	64.878
772.07	61.828
772.25	60.898
772.42	61.380
772.60	63.551
772.78	59.623
772.96	66.740
773.13	62.651
773.31	64.368
773.49	56.400
773.67	59.657
773.84	60.518
774.02	64.406
774.20	64.835
774.37	63.410
774.55	60.346
774.73	65.067
774.91	62.874
775.08	61.395
775.26	61.213
775.44	66.354
775.62	61.012
775.79	63.155
775.97	61.975
776.15	62.815
776.32	62.249
776.50	66.959
776.68	61.593
776.86	64.818
777.03	64.403
777.21	62.867
777.39	63.943
777.56	67.148
777.74	64.729
777.92	58.377
778.10	60.709
778.27	58.675
778.45	65.280
778.63	63.296
778.80	61.955
778.98	65.272
779.16	65.150
779.34	64.070
779.51	62.892
779.69	68.411
779.87	64.756
780.04	62.125
780.22	60.178
780.40	65.746
780.57	63.724
780.75	61.137
780.93	69.642
781.10	62.999
781.28	71.619
781.46	58.337
781.63	60.165
781.81	67.523
781.99	62.872
782.16	62.373
782.34	60.213
782.52	64.081
782.69	66.939
782.87	65.310
783.05	64.172
783.22	66.033
783.40	59.593
783.58	70.479
783.75	61.196
783.93	69.547
784.11	60.275
784.28	63.651
784.46	63.727
784.64	66.067
784.81	61.270
784.99	67.204
785.17	62.273
785.34	67.389
785.52	65.305
785.69	61.771
785.87	65.649
786.05	66.953
786.22	60.147
786.40	64.311
786.58	63.220
786.75	60.829
786.93	62.746
787.11	68.197
787.28	65.402
787.46	65.363
787.63	64.510
787.81	61.670
787.99	63.342
788.16	64.165
788.34	60.628
788.51	63.835
788.69	61.272
788.87	60.082
789.04	57.191
789.22	59.913
789.39	57.805
789.57	61.101
789.75	54.571
789.92	57.601
790.10	59.847
790.27	61.231
790.45	59.027
790.63	61.681
790.80	57.974
790.98	59.669
791.15	59.072
791.33	56.074
791.51	55.956
791.68	60.865
791.86	62.423
792.03	63.424
792.21	60.298
792.39	62.056
792.56	63.329
792.74	68.951
792.91	57.586
793.09	63.942
793.26	57.787
793.44	67.494
793.62	61.128
793.79	63.564
793.97	62.617
794.14	56.106
794.32	59.431
794.49	68.250
794.67	58.468
794.84	59.744
795.02	62.621
795.20	60.553
795.37	52.923
795.55	66.850
795.72	63.517
795.90	60.601
796.07	61.428
796.25	64.780
796.42	54.792
796.60	63.829
796.77	60.842
796.95	60.088
797.13	58.641
797.30	58.943
797.48	57.166
797.65	59.073
797.83	58.138
798.00	64.603
798.18	52.895
798.35	61.378
798.53	59.637
798.70	57.460
798.88	57.033
799.05	59.946
799.23	57.077
799.40	56.977
799.58	65.713
799.75	64.217
799.93	53.345
800.10	62.181
800.28	63.126
800.45	60.313
800.63	55.094
800.80	61.434
800.98	60.534
801.15	58.562
801.33	63.648
801.50	63.777
801.68	54.696
801.85	62.443
802.03	60.038
802.20	63.608
802.38	61.971
802.55	59.371
802.73	59.866
802.90	60.487
803.08	57.649
803.25	59.757
803.43	61.841
803.60	62.191
803.78	55.610
803.95	61.646
804.13	58.073
804.30	62.255
804.48	59.973
804.65	63.870
804.83	60.000
805.00	58.956
805.17	62.646
805.35	60.853
805.52	56.568
805.70	68.307
805.87	61.210
806.05	58.486
806.22	54.221
806.40	58.776
806.57	58.551
806.75	67.149
806.92	60.984
807.09	60.246
807.27	59.216
807.44	63.141
807.62	54.352
807.79	61.898
807.97	57.826
808.14	57.370
808.31	55.235
808.49	60.669
808.66	59.477
808.84	56.935
809.01	63.254
809.19	61.093
809.36	64.291
809.53	65.675
809.71	50.518
809.88	64.201
810.06	65.299
810.23	59.942
810.41	60.162
810.58	65.762
810.75	57.087
810.93	63.154
811.10	59.787
811.28	65.459
811.45	60.431
811.62	63.236
811.80	59.296
811.97	58.958
812.15	63.988
812.32	65.357
812.49	57.452
812.67	56.664
812.84	59.789
813.02	70.574
813.19	53.382
813.36	64.509
813.54	64.657
813.71	61.073
813.89	60.483
814.06	64.854
814.23	59.184
814.41	58.932
814.58	57.010
814.75	57.814
814.93	57.819
815.10	62.202
815.28	56.098
815.45	58.229
815.62	63.499
815.80	54.209
815.97	58.216
816.14	56.574
816.32	58.725
816.49	50.205
816.66	51.286
816.84	51.343
817.01	58.375
817.18	61.917
817.36	52.466
817.53	57.903
817.71	47.585
817.88	52.833
818.05	50.572
818.23	56.982
818.40	53.604
818.57	59.401
818.75	56.551
818.92	49.884
819.09	59.041
819.27	60.943
819.44	49.153
819.61	52.315
819.79	52.505
819.96	56.488
820.13	49.098
820.31	57.945
820.48	55.919
820.65	53.687
820.82	49.280
821.00	51.139
821.17	43.016
821.34	49.126
821.52	54.143
821.69	47.798
821.86	47.142
822.04	47.716
822.21	45.991
822.38	46.834
822.56	44.617
822.73	43.820
822.90	43.979
823.07	45.164
823.25	43.199
823.42	44.294
823.59	43.320
823.77	44.452
823.94	42.126
824.11	42.421
824.29	41.320
824.46	42.989
824.63	44.135
824.80	43.034
824.98	44.699
825.15	44.841
825.32	41.999
825.49	45.493
825.67	42.139
825.84	47.553
826.01	45.070
826.19	45.936
826.36	41.143
826.53	47.860
826.70	47.755
826.88	44.965
827.05	44.950
827.22	43.394
827.39	43.316
827.57	46.025
827.74	40.737
827.91	47.978
828.08	42.952
828.26	44.623
828.43	40.953
828.60	45.601
828.77	44.651
828.95	45.005
829.12	41.314
829.29	40.277
829.46	42.244
829.64	43.679
829.81	40.374
829.98	49.020
830.15	45.376
830.32	48.325
830.50	44.537
830.67	49.732
830.84	39.122
831.01	44.378
831.19	44.290
831.36	48.839
831.53	59.132
831.70	55.767
831.87	50.674
832.05	58.012
832.22	57.541
832.39	43.935
832.56	44.959
832.74	52.820
832.91	48.768
833.08	56.496
833.25	49.396
833.42	45.559
833.60	46.893
833.77	44.283
833.94	45.659
834.11	44.039
834.28	41.023
834.45	40.630
834.63	38.416
834.80	42.248
834.97	41.965
835.14	45.680
835.31	40.389
835.49	44.596
835.66	42.686
835.83	43.097
836.00	40.817
836.17	46.303
836.34	42.445
836.52	45.820
836.69	46.623
836.86	46.264
837.03	47.538
837.20	46.372
837.37	45.425
837.55	46.813
837.72	49.842
837.89	51.135
838.06	54.689
838.23	52.332
838.40	55.838
838.58	59.199
838.75	55.983
838.92	59.790
839.09	56.843
839.26	66.499
839.43	57.714
839.60	76.377
839.78	68.917
839.95	62.963
840.12	58.447
840.29	70.511
840.46	62.012
840.63	65.884
840.80	62.377
840.98	60.637
841.15	52.558
841.32	58.771
841.49	54.444
841.66	61.287
841.83	56.604
842.00	48.123
842.17	62.258
842.34	56.660
842.52	63.502
842.69	68.051
842.86	60.493
843.03	76.277
843.20	67.271
843.37	69.000
843.54	65.614
843.71	67.027
843.88	57.748
844.06	75.035
844.23	70.641
844.40	74.686
844.57	79.770
844.74	81.048
844.91	83.736
845.08	80.615
845.25	100.337
845.42	84.940
845.59	75.978
845.76	82.333
845.94	88.169
846.11	98.472
846.28	97.436
846.45	110.429
846.62	101.894
846.79	100.758
846.96	91.650
847.13	95.634
847.30	103.958
847.47	79.670
847.64	85.391
847.81	94.643
847.98	116.102
848.15	97.610
848.32	96.803
848.50	98.918
848.67	96.743
848.84	94.572
849.01	88.235
849.18	118.396
849.35	107.843
849.52	98.701
849.69	91.471
849.86	109.071
850.03	99.583
850.20	99.619
850.37	83.261
850.54	105.591
850.71	90.947
850.88	115.641
851.05	101.987
851.22	103.212
851.39	106.880
851.56	99.754
851.73	114.085
851.90	114.425
852.07	89.895
852.24	112.281
852.41	95.485
852.58	110.480
852.75	113.594
852.92	91.784
853.09	114.945
853.26	108.932
853.43	98.726
853.60	102.765
853.77	102.743
853.94	94.194
854.11	119.481
854.28	114.739
854.45	101.399
854.62	93.275
854.79	102.045
854.96	102.564
855.13	100.682
855.30	96.586
855.47	113.941
855.64	92.184
855.81	112.030
855.98	103.302
856.15	108.894
856.32	93.506
856.49	115.962
856.66	112.354
856.83	85.487
857.00	115.429
857.17	120.482
857.34	120.519
857.51	129.360
857.68	92.000
857.85	99.573
858.02	100.928
858.19	97.094
858.36	110.245
858.53	110.326
858.70	86.869
858.87	103.761
859.04	86.983
859.21	98.768
859.38	97.170
859.55	152.147
859.72	99.078
859.89	112.250
860.05	107.907
860.22	122.740
860.39	116.497
860.56	131.378
860.73	99.358
860.90	147.720
861.07	112.214
861.24	103.024
861.41	109.024
861.58	125.126
861.75	127.895
861.92	148.387
862.09	96.734
862.26	102.757
862.43	126.279
862.59	101.395
862.76	114.958
862.93	136.818
863.10	116.667
863.27	113.614
863.44	92.746
863.61	106.264
863.78	72.383
863.95	138.081
864.12	109.286
864.29	101.392
864.45	116.109
864.62	84.069
864.79	93.364
864.96	96.860
865.13	116.953
865.30	99.156
865.47	117.184
865.64	107.876
865.81	96.091
865.97	79.953
866.14	104.762
866.31	122.781
866.48	111.681
866.65	97.507
866.82	105.921
866.99	134.637
867.16	105.128
867.33	126.817
867.49	90.414
867.66	151.246
867.83	116.035
868.00	113.203
868.17	130.368
868.34	122.678
868.51	115.473
868.67	128.493
868.84	95.263
869.01	117.877
869.18	99.459
869.35	114.320
869.52	98.048
869.69	111.111
869.85	128.058
870.02	92.566
870.19	106.682
870.36	121.759
870.53	106.565
870.70	111.712
870.86	112.032
871.03	101.290
871.20	107.473
871.37	109.926
871.54	109.582
871.71	91.429
871.87	94.040
872.04	100.487
872.21	110.579
872.38	97.899
872.55	123.951
872.72	123.209
872.88	128.916
873.05	99.289
873.22	94.819
873.39	94.884
873.56	101.818
873.72	101.852
873.89	98.437
874.06	91.799
874.23	84.805
874.40	116.316
874.56	128.076
874.73	105.405
874.90	104.569
875.07	111.527
875.24	94.221
875.40	89.177
875.57	107.731
875.74	81.633
875.91	100.000
876.08	96.644
876.24	101.483
876.41	123.653
876.58	100.468
876.75	112.267
876.92	104.502
877.08	87.467
877.25	114.247
877.42	113.889
877.59	100.000
877.75	134.026
877.92	95.909
878.09	80.116
878.26	106.103
878.42	102.764
878.59	105.896
878.76	97.397
878.93	119.429
879.09	96.356
879.26	92.857
879.43	95.634
879.60	90.796
879.76	101.987
879.93	77.240
880.10	80.762
880.27	88.409
880.43	83.039
880.60	66.544
880.77	71.348
880.94	72.057
881.10	66.227
881.27	52.520
881.44	46.833
881.61	44.954
881.77	42.817
881.94	38.555
882.11	37.864
882.28	35.707
882.44	36.763
882.61	40.097
882.78	38.294
882.94	47.150
883.11	36.003
883.28	36.993
883.45	41.374
883.61	37.418
883.78	38.840
883.95	39.678
884.11	39.324
884.28	39.702
>>>>>End Processed Spectral Data<<<<<
