SpectraSuite Data File
++++++++++++++++++++++++++++++++++++
Date: Wed Sep 25 03:50:52 EST 2019
User: sgrac
Dark Spectrum Present: Yes
Reference Spectrum Present: Yes
Number of Sampled Component Spectra: 1
Spectrometers: USB4E01596
Integration Time (usec): 100000 (USB4E01596)
Spectra Averaged: 3 (USB4E01596)
Boxcar Smoothing: 0 (USB4E01596)
Correct for Electrical Dark: No (USB4E01596)
Strobe/Lamp Enabled: Yes (USB4E01596)
Correct for Detector Non-linearity: No (USB4E01596)
Correct for Stray Light: No (USB4E01596)
Number of Pixels in Processed Spectrum: 3648
>>>>>Begin Processed Spectral Data<<<<<
178.44	-486.538
178.66	-486.538
178.87	-486.538
179.09	-665.625
179.30	861.290
179.52	1434.783
179.74	-900.000
179.95	-503.704
180.17	597.959
180.38	-1310.714
180.60	-2233.333
180.82	-4300.000
181.03	837.209
181.25	-2633.333
181.46	-484.722
181.68	453.846
181.89	-1000.000
182.11	9333.333
182.33	755.769
182.54	-19450.000
182.76	701.961
182.97	860.526
183.19	1191.667
183.40	743.478
183.62	1405.000
183.84	535.714
184.05	1365.385
184.27	-2918.182
184.48	28600.000
184.70	1311.111
184.91	635.849
185.13	3078.571
185.34	640.678
185.56	435.632
185.78	1372.222
185.99	636.000
186.21	472.289
186.42	1442.857
186.64	-3622.222
186.85	965.854
187.07	-1300.000
187.28	348.958
187.50	-809.302
187.72	1957.143
187.93	1270.270
188.15	2528.571
188.36	835.417
188.58	590.000
188.79	656.250
189.01	531.148
189.22	403.226
189.44	422.642
189.65	-773.171
189.87	1278.571
190.09	400.000
190.30	334.259
190.52	-413.793
190.73	351.807
190.95	-3300.000
191.16	839.130
191.38	580.769
191.59	465.432
191.81	1950.000
192.02	-3200.000
192.24	-3554.545
192.45	500.000
192.67	-6880.000
192.88	400.000
193.10	538.235
193.31	285.246
193.53	-338.710
193.74	2436.364
193.96	-6316.667
194.18	2485.714
194.39	594.915
194.61	1125.000
194.82	395.455
195.04	339.474
195.25	746.667
195.47	-33200.000
195.68	541.538
195.90	461.111
196.11	1833.333
196.33	-394.048
196.54	1060.714
196.76	598.387
196.97	256.790
197.19	341.353
197.40	-544.000
197.62	718.750
197.83	1882.353
198.05	455.000
198.26	747.917
198.48	2464.706
198.69	-900.000
198.91	475.000
199.12	-17600.000
199.34	841.463
199.55	1535.000
199.77	695.238
199.98	1680.952
200.20	514.286
200.41	402.273
200.63	431.707
200.84	711.111
201.06	258.228
201.27	-510.526
201.49	-4514.286
201.70	497.403
201.91	-5057.143
202.13	-1862.500
202.34	-1000.000
202.56	1652.632
202.77	789.474
202.99	727.660
203.20	389.247
203.42	584.211
203.63	469.014
203.85	-2553.333
204.06	1327.273
204.28	-6720.000
204.49	1356.667
204.71	404.301
204.92	685.294
205.14	2306.250
205.35	946.875
205.56	2121.429
205.78	758.182
205.99	465.854
206.21	1025.641
206.42	611.864
206.64	673.437
206.85	781.395
207.07	-881.579
207.28	536.232
207.50	940.541
207.71	1100.000
207.93	336.364
208.14	742.000
208.35	727.273
208.57	2420.000
208.78	1508.000
209.00	827.660
209.21	715.556
209.43	372.816
209.64	-3200.000
209.86	776.923
210.07	-1585.714
210.28	383.696
210.50	2047.368
210.71	302.143
210.93	571.795
211.14	411.818
211.36	-3240.000
211.57	511.111
211.78	660.000
212.00	648.936
212.21	1064.865
212.43	31900.000
212.64	1161.765
212.86	702.083
213.07	1206.061
213.29	-3140.000
213.50	1296.774
213.71	1592.000
213.93	1611.111
214.14	331.304
214.36	275.949
214.57	675.410
214.78	658.824
215.00	576.471
215.21	2415.385
215.43	373.737
215.64	793.023
215.86	918.182
216.07	786.667
216.28	1308.696
216.50	481.481
216.71	494.828
216.93	1097.368
217.14	345.045
217.35	1446.154
217.57	293.548
217.78	1852.632
218.00	523.256
218.21	1575.000
218.42	10666.667
218.64	365.546
218.85	813.333
219.07	624.590
219.28	341.228
219.49	1196.970
219.71	390.541
219.92	1515.000
220.14	1843.750
220.35	531.818
220.56	231.613
220.78	5680.000
220.99	460.976
221.21	275.424
221.42	890.244
221.63	530.000
221.85	769.565
222.06	285.470
222.28	936.842
222.49	780.000
222.70	304.587
222.92	379.775
223.13	484.091
223.34	300.787
223.56	466.667
223.77	457.143
223.99	1350.000
224.20	300.000
224.41	259.836
224.63	268.033
224.84	528.169
225.05	391.209
225.27	389.610
225.48	318.868
225.69	244.643
225.91	717.308
226.12	302.239
226.34	269.655
226.55	245.217
226.76	225.143
226.98	189.831
227.19	205.172
227.40	134.234
227.62	173.279
227.83	130.249
228.04	143.345
228.26	92.481
228.47	69.565
228.69	73.935
228.90	79.601
229.11	66.408
229.33	56.765
229.54	47.026
229.75	48.084
229.97	46.110
230.18	45.858
230.39	33.123
230.61	40.685
230.82	47.196
231.03	37.935
231.25	44.614
231.46	42.527
231.67	57.992
231.89	40.170
232.10	59.363
232.31	56.650
232.53	76.411
232.74	55.178
232.95	67.837
233.17	72.427
233.38	55.451
233.59	80.846
233.81	66.667
234.02	61.089
234.23	57.480
234.45	65.035
234.66	62.620
234.87	70.224
235.09	61.610
235.30	52.113
235.51	67.405
235.73	54.530
235.94	58.574
236.15	61.211
236.36	58.655
236.58	50.756
236.79	59.063
237.00	66.562
237.22	62.236
237.43	46.413
237.64	41.796
237.86	64.679
238.07	60.338
238.28	60.743
238.50	46.822
238.71	53.509
238.92	57.333
239.13	60.714
239.35	52.496
239.56	46.648
239.77	59.335
239.99	44.787
240.20	59.693
240.41	43.506
240.63	51.467
240.84	42.576
241.05	31.412
241.26	30.723
241.48	36.553
241.69	29.160
241.90	25.137
242.12	23.533
242.33	24.888
242.54	19.700
242.75	20.625
242.97	23.853
243.18	14.993
243.39	17.071
243.61	18.257
243.82	19.232
244.03	17.118
244.24	16.539
244.46	19.742
244.67	20.703
244.88	19.469
245.09	18.534
245.31	23.470
245.52	21.287
245.73	21.146
245.95	41.253
246.16	21.946
246.37	23.690
246.58	21.656
246.80	17.600
247.01	14.327
247.22	10.615
247.43	11.931
247.65	11.408
247.86	12.380
248.07	9.796
248.28	10.223
248.50	9.547
248.71	11.214
248.92	7.653
249.13	9.936
249.35	10.704
249.56	10.277
249.77	10.642
249.98	11.750
250.20	15.558
250.41	13.946
250.62	16.605
250.83	21.799
251.05	21.264
251.26	19.905
251.47	18.235
251.68	22.190
251.90	19.783
252.11	19.805
252.32	24.974
252.53	19.831
252.75	17.125
252.96	15.007
253.17	18.182
253.38	17.706
253.59	16.302
253.81	16.561
254.02	14.746
254.23	19.289
254.44	17.359
254.66	18.842
254.87	20.429
255.08	19.751
255.29	25.561
255.50	25.305
255.72	25.940
255.93	24.324
256.14	29.381
256.35	21.649
256.57	26.871
256.78	23.029
256.99	27.094
257.20	28.436
257.41	24.337
257.63	24.582
257.84	19.874
258.05	23.051
258.26	20.615
258.47	22.636
258.69	16.352
258.90	15.986
259.11	20.080
259.32	16.299
259.53	15.091
259.75	13.244
259.96	11.168
260.17	7.060
260.38	8.891
260.59	7.776
260.81	7.950
261.02	7.778
261.23	6.869
261.44	8.341
261.65	9.223
261.87	6.422
262.08	7.351
262.29	10.653
262.50	10.099
262.71	10.167
262.92	11.612
263.14	11.784
263.35	12.062
263.56	13.509
263.77	14.333
263.98	14.883
264.20	14.887
264.41	14.803
264.62	16.841
264.83	15.681
265.04	19.783
265.25	13.975
265.47	15.775
265.68	17.534
265.89	16.813
266.10	19.443
266.31	16.138
266.52	12.617
266.74	16.810
266.95	16.837
267.16	14.179
267.37	15.387
267.58	13.474
267.79	14.426
268.01	12.026
268.22	9.717
268.43	14.286
268.64	12.648
268.85	11.870
269.06	9.015
269.27	17.102
269.49	11.557
269.70	13.411
269.91	11.925
270.12	12.438
270.33	12.238
270.54	11.104
270.75	12.981
270.97	11.951
271.18	11.828
271.39	12.025
271.60	13.921
271.81	11.615
272.02	10.511
272.23	9.936
272.45	9.396
272.66	9.091
272.87	9.389
273.08	10.156
273.29	9.392
273.50	7.860
273.71	8.534
273.92	10.050
274.14	9.384
274.35	10.044
274.56	9.804
274.77	9.748
274.98	9.492
275.19	9.824
275.40	9.918
275.61	9.494
275.83	14.586
276.04	11.573
276.25	11.662
276.46	10.367
276.67	15.248
276.88	10.979
277.09	10.851
277.30	10.936
277.51	9.631
277.73	12.559
277.94	11.820
278.15	12.355
278.36	14.193
278.57	12.074
278.78	12.421
278.99	11.248
279.20	11.460
279.41	15.904
279.62	9.686
279.84	10.542
280.05	13.904
280.26	11.271
280.47	12.516
280.68	12.037
280.89	12.693
281.10	12.000
281.31	10.439
281.52	9.766
281.73	7.654
281.94	9.003
282.16	9.824
282.37	10.522
282.58	8.416
282.79	11.754
283.00	10.843
283.21	9.213
283.42	9.367
283.63	9.089
283.84	8.287
284.05	8.224
284.26	10.045
284.47	8.962
284.68	9.483
284.89	9.374
285.11	9.262
285.32	8.324
285.53	7.231
285.74	9.072
285.95	8.926
286.16	7.336
286.37	9.062
286.58	8.089
286.79	7.973
287.00	8.335
287.21	7.734
287.42	8.405
287.63	8.242
287.84	6.597
288.05	7.691
288.26	8.712
288.48	7.471
288.69	8.585
288.90	7.529
289.11	8.970
289.32	8.096
289.53	7.388
289.74	6.304
289.95	7.978
290.16	8.902
290.37	7.481
290.58	8.560
290.79	9.015
291.00	7.581
291.21	9.173
291.42	8.194
291.63	6.441
291.84	8.179
292.05	7.821
292.26	7.252
292.47	7.124
292.68	8.162
292.89	9.915
293.10	8.663
293.31	8.301
293.52	8.465
293.73	7.288
293.94	11.380
294.15	9.192
294.36	9.164
294.57	8.840
294.79	10.199
295.00	8.294
295.21	10.309
295.42	8.285
295.63	9.417
295.84	7.615
296.05	7.570
296.26	7.389
296.47	8.049
296.68	7.725
296.89	8.573
297.10	7.739
297.31	7.081
297.52	7.766
297.73	6.316
297.94	5.891
298.15	6.776
298.36	6.994
298.57	5.343
298.78	6.566
298.99	5.988
299.20	6.462
299.41	7.201
299.62	7.779
299.83	6.051
300.04	8.639
300.25	8.416
300.46	8.240
300.67	8.996
300.88	8.257
301.09	7.336
301.30	7.438
301.50	7.438
301.71	10.022
301.92	8.760
302.13	8.057
302.34	8.584
302.55	7.622
302.76	7.338
302.97	8.115
303.18	10.157
303.39	8.145
303.60	8.440
303.81	9.874
304.02	8.178
304.23	9.030
304.44	7.877
304.65	9.730
304.86	8.624
305.07	8.862
305.28	9.501
305.49	9.802
305.70	8.004
305.91	6.651
306.12	10.148
306.33	8.161
306.54	8.203
306.75	9.966
306.96	11.744
307.17	9.859
307.38	9.659
307.58	9.787
307.79	8.503
308.00	7.704
308.21	9.465
308.42	7.866
308.63	9.964
308.84	8.076
309.05	7.579
309.26	7.356
309.47	7.389
309.68	7.227
309.89	7.717
310.10	4.842
310.31	6.809
310.52	8.594
310.73	9.086
310.94	7.243
311.14	6.488
311.35	6.465
311.56	7.089
311.77	6.850
311.98	6.315
312.19	5.985
312.40	7.005
312.61	6.266
312.82	7.145
313.03	5.832
313.24	7.247
313.45	7.623
313.66	6.833
313.86	8.250
314.07	6.265
314.28	7.594
314.49	7.765
314.70	7.601
314.91	9.974
315.12	9.015
315.33	9.017
315.54	8.568
315.75	9.241
315.96	9.109
316.16	8.737
316.37	8.442
316.58	7.032
316.79	8.261
317.00	9.291
317.21	7.259
317.42	7.670
317.63	8.627
317.84	9.580
318.05	9.784
318.25	10.670
318.46	8.669
318.67	8.587
318.88	8.546
319.09	9.801
319.30	7.826
319.51	7.659
319.72	10.252
319.93	7.383
320.13	8.340
320.34	9.551
320.55	8.358
320.76	10.408
320.97	10.603
321.18	13.403
321.39	8.214
321.60	8.778
321.80	9.675
322.01	10.327
322.22	9.333
322.43	7.744
322.64	11.393
322.85	9.935
323.06	11.295
323.27	9.564
323.47	10.149
323.68	9.523
323.89	8.162
324.10	8.269
324.31	7.697
324.52	8.679
324.73	7.208
324.93	8.141
325.14	9.104
325.35	8.992
325.56	8.499
325.77	8.616
325.98	7.139
326.19	8.655
326.39	6.970
326.60	8.438
326.81	7.623
327.02	7.647
327.23	8.236
327.44	10.705
327.64	7.134
327.85	7.035
328.06	8.603
328.27	10.533
328.48	8.134
328.69	6.634
328.90	7.829
329.10	8.526
329.31	10.170
329.52	8.881
329.73	9.566
329.94	8.983
330.15	9.886
330.35	11.036
330.56	9.811
330.77	9.473
330.98	9.755
331.19	9.453
331.39	10.270
331.60	9.214
331.81	8.891
332.02	9.592
332.23	8.566
332.44	8.096
332.64	9.297
332.85	8.785
333.06	10.235
333.27	6.614
333.48	9.633
333.68	8.245
333.89	8.940
334.10	9.660
334.31	11.841
334.52	8.107
334.72	9.441
334.93	8.395
335.14	7.573
335.35	9.516
335.56	10.790
335.76	9.051
335.97	10.276
336.18	8.248
336.39	10.749
336.60	9.687
336.80	9.044
337.01	8.673
337.22	9.607
337.43	11.138
337.64	12.054
337.84	11.756
338.05	10.752
338.26	13.066
338.47	11.488
338.68	8.639
338.88	11.562
339.09	10.200
339.30	10.879
339.51	12.760
339.71	12.024
339.92	10.007
340.13	10.782
340.34	11.402
340.55	11.529
340.75	11.324
340.96	9.589
341.17	12.239
341.38	10.716
341.58	12.502
341.79	11.538
342.00	10.277
342.21	11.837
342.41	11.294
342.62	11.841
342.83	15.929
343.04	9.692
343.24	13.669
343.45	13.809
343.66	11.561
343.87	14.628
344.07	11.011
344.28	14.385
344.49	14.500
344.70	16.965
344.90	11.359
345.11	12.774
345.32	13.249
345.53	14.129
345.73	14.599
345.94	15.697
346.15	16.339
346.36	15.155
346.56	14.874
346.77	16.428
346.98	15.087
347.19	16.400
347.39	15.434
347.60	16.428
347.81	16.311
348.02	15.814
348.22	13.803
348.43	17.277
348.64	14.357
348.84	15.377
349.05	16.385
349.26	19.520
349.47	15.002
349.67	14.768
349.88	16.901
350.09	16.422
350.30	18.686
350.50	16.308
350.71	17.660
350.92	19.079
351.12	15.101
351.33	17.933
351.54	15.963
351.74	18.790
351.95	15.830
352.16	18.445
352.37	18.817
352.57	16.408
352.78	16.168
352.99	17.032
353.19	16.725
353.40	17.944
353.61	17.181
353.82	17.775
354.02	18.859
354.23	18.791
354.44	21.447
354.64	17.145
354.85	19.328
355.06	18.449
355.26	16.716
355.47	17.367
355.68	20.097
355.88	18.138
356.09	18.031
356.30	17.387
356.51	19.395
356.71	18.516
356.92	16.517
357.13	19.877
357.33	19.982
357.54	19.495
357.75	16.021
357.95	19.536
358.16	17.633
358.37	21.506
358.57	16.659
358.78	20.417
358.99	18.640
359.19	18.500
359.40	18.477
359.61	18.672
359.81	20.832
360.02	22.087
360.23	16.071
360.43	18.099
360.64	18.140
360.85	18.026
361.05	16.298
361.26	20.222
361.47	17.737
361.67	19.484
361.88	16.459
362.09	19.351
362.29	15.445
362.50	17.203
362.70	16.538
362.91	19.268
363.12	16.859
363.32	17.760
363.53	18.751
363.74	19.716
363.94	17.135
364.15	20.100
364.36	18.115
364.56	18.470
364.77	18.005
364.98	20.188
365.18	18.453
365.39	19.146
365.59	16.736
365.80	17.333
366.01	18.281
366.21	17.740
366.42	15.894
366.63	18.389
366.83	16.540
367.04	15.369
367.24	18.919
367.45	15.923
367.66	16.603
367.86	17.814
368.07	16.687
368.28	16.882
368.48	16.481
368.69	15.865
368.89	16.682
369.10	16.937
369.31	16.781
369.51	17.089
369.72	17.590
369.92	19.701
370.13	14.673
370.34	17.756
370.54	12.714
370.75	17.876
370.95	14.369
371.16	16.362
371.37	14.279
371.57	15.254
371.78	15.084
371.98	16.654
372.19	15.958
372.40	17.133
372.60	16.891
372.81	15.891
373.01	14.240
373.22	15.625
373.43	16.867
373.63	16.453
373.84	16.006
374.04	16.910
374.25	15.671
374.46	16.015
374.66	15.119
374.87	16.938
375.07	13.200
375.28	14.618
375.48	16.152
375.69	17.035
375.90	12.956
376.10	13.478
376.31	14.131
376.51	13.844
376.72	13.562
376.92	14.227
377.13	14.912
377.34	14.984
377.54	13.651
377.75	16.783
377.95	13.847
378.16	16.150
378.36	14.476
378.57	15.947
378.77	14.044
378.98	15.567
379.19	14.591
379.39	13.814
379.60	14.736
379.80	16.577
380.01	14.830
380.21	14.389
380.42	15.089
380.62	14.474
380.83	14.836
381.04	13.915
381.24	14.391
381.45	14.088
381.65	13.702
381.86	15.288
382.06	14.462
382.27	13.496
382.47	12.834
382.68	15.258
382.88	12.468
383.09	13.183
383.29	13.428
383.50	15.254
383.71	13.495
383.91	14.423
384.12	13.123
384.32	15.139
384.53	12.607
384.73	12.551
384.94	13.101
385.14	13.201
385.35	12.437
385.55	13.696
385.76	12.574
385.96	13.275
386.17	13.662
386.37	13.947
386.58	13.315
386.78	14.839
386.99	12.003
387.19	14.197
387.40	11.616
387.60	14.439
387.81	13.330
388.01	13.537
388.22	13.342
388.42	15.308
388.63	13.922
388.83	14.210
389.04	12.183
389.24	13.587
389.45	12.912
389.65	13.234
389.86	12.058
390.06	12.849
390.27	13.159
390.47	12.381
390.68	12.214
390.88	13.678
391.09	13.769
391.29	13.977
391.50	12.727
391.70	12.742
391.91	13.153
392.11	13.299
392.32	13.327
392.52	13.712
392.73	13.244
392.93	13.795
393.14	12.504
393.34	13.282
393.55	13.389
393.75	13.777
393.95	12.691
394.16	13.491
394.36	14.162
394.57	13.296
394.77	12.839
394.98	13.686
395.18	13.053
395.39	13.551
395.59	12.993
395.80	13.334
396.00	13.327
396.21	13.525
396.41	11.902
396.61	13.927
396.82	12.401
397.02	14.220
397.23	12.594
397.43	12.980
397.64	11.782
397.84	14.156
398.05	10.930
398.25	13.731
398.45	11.453
398.66	13.670
398.86	12.071
399.07	14.390
399.27	11.898
399.48	12.129
399.68	11.729
399.89	12.165
400.09	13.442
400.29	12.393
400.50	12.406
400.70	13.187
400.91	12.085
401.11	12.566
401.32	11.983
401.52	12.495
401.72	12.279
401.93	13.202
402.13	11.529
402.34	11.895
402.54	11.146
402.75	14.401
402.95	10.898
403.15	12.997
403.36	11.001
403.56	12.126
403.77	11.191
403.97	11.753
404.17	10.011
404.38	12.460
404.58	10.844
404.79	11.860
404.99	12.026
405.19	11.712
405.40	12.042
405.60	12.208
405.81	11.383
406.01	11.466
406.21	11.275
406.42	11.992
406.62	11.600
406.83	12.410
407.03	12.357
407.23	11.583
407.44	11.156
407.64	12.161
407.85	11.316
408.05	11.442
408.25	10.328
408.46	12.156
408.66	11.882
408.87	11.396
409.07	11.408
409.27	10.860
409.48	10.616
409.68	11.510
409.88	10.585
410.09	11.011
410.29	11.686
410.50	12.633
410.70	10.627
410.90	10.842
411.11	10.509
411.31	10.653
411.51	10.850
411.72	11.081
411.92	10.209
412.12	11.212
412.33	9.670
412.53	11.228
412.74	9.859
412.94	11.448
413.14	10.553
413.35	11.090
413.55	11.054
413.75	11.733
413.96	10.297
414.16	11.175
414.36	10.414
414.57	10.750
414.77	9.767
414.97	11.445
415.18	10.381
415.38	10.319
415.58	10.421
415.79	10.211
415.99	10.376
416.19	10.728
416.40	10.245
416.60	10.767
416.80	9.999
417.01	10.527
417.21	9.112
417.41	10.979
417.62	10.685
417.82	10.760
418.02	10.034
418.23	11.075
418.43	10.357
418.63	11.193
418.84	10.725
419.04	10.606
419.24	10.590
419.45	11.260
419.65	10.507
419.85	11.107
420.06	10.650
420.26	11.022
420.46	10.838
420.67	11.367
420.87	10.775
421.07	11.287
421.28	10.590
421.48	11.124
421.68	10.776
421.88	11.000
422.09	11.034
422.29	11.148
422.49	10.678
422.70	11.222
422.90	11.183
423.10	11.501
423.31	11.284
423.51	11.465
423.71	10.667
423.91	11.323
424.12	10.648
424.32	11.225
424.52	11.096
424.73	10.760
424.93	10.861
425.13	11.053
425.33	10.508
425.54	11.122
425.74	10.832
425.94	11.309
426.15	10.894
426.35	10.887
426.55	11.286
426.75	11.530
426.96	10.958
427.16	10.713
427.36	11.087
427.57	11.654
427.77	10.457
427.97	10.720
428.17	10.816
428.38	11.242
428.58	9.773
428.78	10.971
428.98	10.043
429.19	10.072
429.39	9.460
429.59	11.412
429.79	9.392
430.00	9.593
430.20	9.689
430.40	10.015
430.60	9.035
430.81	9.904
431.01	10.220
431.21	10.515
431.41	9.394
431.62	9.995
431.82	9.550
432.02	10.920
432.22	9.350
432.43	9.699
432.63	9.473
432.83	10.013
433.03	9.903
433.24	9.466
433.44	9.770
433.64	10.288
433.84	9.455
434.05	10.039
434.25	9.900
434.45	10.603
434.65	10.234
434.85	10.548
435.06	10.089
435.26	10.411
435.46	10.256
435.66	10.461
435.87	9.857
436.07	10.190
436.27	9.763
436.47	9.932
436.67	9.443
436.88	10.468
437.08	9.967
437.28	10.210
437.48	9.619
437.69	10.265
437.89	9.449
438.09	9.942
438.29	9.528
438.49	10.183
438.70	10.100
438.90	9.449
439.10	9.512
439.30	9.998
439.50	9.103
439.71	10.284
439.91	9.500
440.11	10.415
440.31	10.095
440.51	10.007
440.72	9.665
440.92	10.101
441.12	10.317
441.32	10.365
441.52	10.165
441.72	10.307
441.93	9.979
442.13	10.383
442.33	10.381
442.53	10.828
442.73	9.948
442.94	10.490
443.14	10.326
443.34	10.486
443.54	10.149
443.74	10.873
443.94	9.571
444.15	10.048
444.35	9.874
444.55	10.178
444.75	9.816
444.95	10.000
445.15	9.610
445.36	9.852
445.56	9.399
445.76	10.121
445.96	9.342
446.16	9.818
446.36	9.845
446.57	10.374
446.77	9.574
446.97	10.241
447.17	10.296
447.37	10.363
447.57	10.396
447.77	10.091
447.98	10.063
448.18	10.463
448.38	9.956
448.58	10.864
448.78	10.587
448.98	10.632
449.18	10.451
449.39	10.180
449.59	9.680
449.79	10.450
449.99	9.887
450.19	10.305
450.39	9.546
450.59	10.186
450.79	9.879
451.00	10.455
451.20	10.991
451.40	10.165
451.60	9.306
451.80	10.100
452.00	9.356
452.20	10.094
452.40	9.988
452.61	9.629
452.81	9.444
453.01	10.174
453.21	9.663
453.41	10.151
453.61	9.693
453.81	9.792
454.01	9.502
454.21	9.969
454.42	10.394
454.62	10.199
454.82	8.980
455.02	9.679
455.22	9.160
455.42	9.741
455.62	9.286
455.82	9.611
456.02	9.039
456.23	9.571
456.43	9.690
456.63	9.891
456.83	9.140
457.03	10.079
457.23	8.844
457.43	9.929
457.63	9.410
457.83	9.842
458.03	8.686
458.23	9.480
458.43	8.898
458.64	9.656
458.84	8.723
459.04	9.901
459.24	9.471
459.44	9.468
459.64	9.456
459.84	9.831
460.04	9.371
460.24	9.721
460.44	9.788
460.64	10.072
460.84	9.583
461.04	9.988
461.24	9.966
461.45	10.358
461.65	10.247
461.85	10.354
462.05	9.725
462.25	9.975
462.45	10.248
462.65	10.207
462.85	9.468
463.05	10.328
463.25	9.042
463.45	9.962
463.65	9.476
463.85	9.689
464.05	9.191
464.25	9.536
464.45	10.050
464.65	9.665
464.85	9.318
465.05	9.417
465.26	9.532
465.46	9.758
465.66	9.212
465.86	9.498
466.06	8.993
466.26	9.676
466.46	8.615
466.66	9.431
466.86	9.137
467.06	9.414
467.26	9.041
467.46	9.858
467.66	9.180
467.86	9.286
468.06	9.261
468.26	9.634
468.46	9.403
468.66	9.795
468.86	9.031
469.06	9.526
469.26	8.646
469.46	9.610
469.66	8.925
469.86	9.869
470.06	8.740
470.26	9.890
470.46	9.022
470.66	10.682
470.86	8.710
471.06	8.954
471.26	8.894
471.46	9.827
471.66	9.202
471.86	9.365
472.06	9.384
472.26	10.053
472.46	10.280
472.66	9.697
472.86	8.715
473.06	9.097
473.26	9.282
473.46	9.499
473.66	9.162
473.86	9.721
474.06	8.736
474.26	9.515
474.46	8.749
474.66	9.662
474.86	9.531
475.06	9.847
475.26	9.168
475.46	9.645
475.66	8.504
475.86	9.658
476.06	10.053
476.26	10.078
476.46	8.721
476.66	9.421
476.86	8.834
477.06	9.428
477.26	9.109
477.46	10.062
477.65	9.384
477.85	9.848
478.05	9.146
478.25	10.328
478.45	9.206
478.65	9.881
478.85	9.667
479.05	10.182
479.25	9.532
479.45	10.061
479.65	9.501
479.85	9.960
480.05	9.450
480.25	9.805
480.45	9.298
480.65	10.127
480.85	9.395
481.05	10.255
481.25	9.765
481.44	9.868
481.64	9.536
481.84	9.845
482.04	10.022
482.24	9.985
482.44	9.559
482.64	9.764
482.84	10.167
483.04	9.749
483.24	9.609
483.44	9.654
483.64	9.462
483.84	9.434
484.04	9.660
484.23	9.950
484.43	10.077
484.63	10.386
484.83	10.617
485.03	11.151
485.23	11.089
485.43	10.865
485.63	10.813
485.83	11.068
486.03	11.013
486.23	11.103
486.42	10.818
486.62	10.845
486.82	10.559
487.02	10.539
487.22	10.246
487.42	10.214
487.62	9.966
487.82	10.125
488.02	10.146
488.22	10.303
488.41	10.380
488.61	10.308
488.81	10.408
489.01	10.532
489.21	10.741
489.41	10.780
489.61	11.016
489.81	10.965
490.01	10.984
490.20	10.876
490.40	10.963
490.60	10.882
490.80	10.688
491.00	10.452
491.20	10.079
491.40	10.224
491.60	10.163
491.79	10.138
491.99	10.056
492.19	10.272
492.39	10.407
492.59	10.389
492.79	10.298
492.99	10.671
493.19	10.733
493.38	10.955
493.58	11.092
493.78	11.097
493.98	11.294
494.18	11.112
494.38	11.143
494.58	11.303
494.77	10.674
494.97	10.993
495.17	10.224
495.37	10.843
495.57	10.530
495.77	10.577
495.96	10.395
496.16	10.464
496.36	9.943
496.56	10.589
496.76	9.854
496.96	10.084
497.15	10.312
497.35	10.278
497.55	10.076
497.75	10.852
497.95	10.294
498.15	10.428
498.34	10.783
498.54	10.345
498.74	10.870
498.94	10.916
499.14	10.452
499.34	10.771
499.53	10.361
499.73	11.029
499.93	10.564
500.13	10.632
500.33	10.270
500.52	10.582
500.72	10.461
500.92	10.520
501.12	10.372
501.32	10.839
501.52	10.991
501.71	10.525
501.91	10.222
502.11	10.839
502.31	10.312
502.51	10.806
502.70	10.416
502.90	10.539
503.10	10.610
503.30	10.737
503.50	10.429
503.69	10.604
503.89	10.244
504.09	10.764
504.29	10.457
504.48	10.481
504.68	10.859
504.88	10.722
505.08	10.398
505.28	10.672
505.47	11.037
505.67	11.125
505.87	10.680
506.07	11.043
506.27	10.622
506.46	10.862
506.66	10.735
506.86	10.888
507.06	11.030
507.25	11.134
507.45	10.483
507.65	11.088
507.85	10.618
508.04	11.329
508.24	10.772
508.44	11.100
508.64	10.722
508.83	11.417
509.03	11.010
509.23	11.041
509.43	10.803
509.63	11.004
509.82	10.932
510.02	11.207
510.22	11.200
510.42	11.409
510.61	11.214
510.81	11.327
511.01	11.238
511.21	11.380
511.40	10.945
511.60	11.470
511.80	11.188
511.99	11.403
512.19	11.298
512.39	11.454
512.59	11.309
512.78	11.714
512.98	11.419
513.18	11.749
513.38	11.410
513.57	11.754
513.77	11.501
513.97	11.825
514.17	11.780
514.36	11.777
514.56	11.506
514.76	11.789
514.95	11.324
515.15	11.670
515.35	11.239
515.55	11.697
515.74	11.594
515.94	12.001
516.14	11.357
516.33	11.552
516.53	11.780
516.73	11.562
516.93	11.605
517.12	11.520
517.32	11.337
517.52	11.880
517.71	11.660
517.91	11.497
518.11	11.772
518.30	11.503
518.50	11.468
518.70	11.638
518.90	11.631
519.09	11.783
519.29	11.888
519.49	11.849
519.68	11.674
519.88	12.114
520.08	12.016
520.27	12.113
520.47	12.314
520.67	12.219
520.86	12.387
521.06	12.472
521.26	12.224
521.45	12.467
521.65	12.075
521.85	12.087
522.04	11.936
522.24	11.841
522.44	11.928
522.63	12.461
522.83	12.084
523.03	12.381
523.22	11.762
523.42	12.567
523.62	11.728
523.81	12.120
524.01	11.981
524.21	12.169
524.40	11.640
524.60	12.568
524.80	11.830
524.99	11.913
525.19	11.537
525.39	11.967
525.58	12.090
525.78	11.990
525.98	12.327
526.17	12.308
526.37	12.078
526.57	12.107
526.76	12.425
526.96	12.191
527.15	12.261
527.35	12.266
527.55	12.263
527.74	12.176
527.94	12.069
528.14	11.788
528.33	11.833
528.53	11.748
528.72	12.116
528.92	11.995
529.12	12.111
529.31	12.245
529.51	12.383
529.71	12.648
529.90	12.672
530.10	12.717
530.29	13.029
530.49	13.296
530.69	13.448
530.88	13.152
531.08	13.265
531.28	13.051
531.47	12.962
531.67	12.799
531.86	12.656
532.06	12.685
532.26	12.789
532.45	12.654
532.65	12.561
532.84	12.708
533.04	12.274
533.24	12.257
533.43	12.362
533.63	12.750
533.82	12.825
534.02	12.794
534.22	12.628
534.41	12.832
534.61	13.015
534.80	13.043
535.00	13.187
535.19	13.026
535.39	13.413
535.59	13.454
535.78	13.330
535.98	13.380
536.17	12.860
536.37	12.803
536.57	13.012
536.76	13.093
536.96	12.787
537.15	13.074
537.35	12.958
537.54	13.336
537.74	13.067
537.93	13.309
538.13	13.376
538.33	13.258
538.52	13.535
538.72	13.564
538.91	13.761
539.11	13.773
539.30	13.410
539.50	13.724
539.70	13.559
539.89	13.341
540.09	13.520
540.28	13.201
540.48	13.025
540.67	13.083
540.87	13.175
541.06	12.864
541.26	13.211
541.45	13.241
541.65	13.293
541.85	13.626
542.04	13.461
542.24	13.515
542.43	13.820
542.63	13.859
542.82	13.948
543.02	14.141
543.21	13.988
543.41	14.539
543.60	14.304
543.80	14.570
543.99	14.316
544.19	14.325
544.38	14.347
544.58	14.503
544.77	14.319
544.97	14.513
545.16	14.382
545.36	14.554
545.56	14.455
545.75	14.688
545.95	14.332
546.14	14.561
546.34	14.260
546.53	14.213
546.73	14.670
546.92	14.763
547.12	14.287
547.31	14.571
547.51	14.564
547.70	14.895
547.90	14.881
548.09	15.077
548.29	14.871
548.48	15.109
548.68	15.228
548.87	15.533
549.07	15.263
549.26	15.431
549.46	15.328
549.65	15.562
549.84	15.113
550.04	16.017
550.23	15.387
550.43	15.307
550.62	15.331
550.82	15.898
551.01	15.091
551.21	15.624
551.40	15.702
551.60	15.360
551.79	15.311
551.99	16.101
552.18	15.442
552.38	15.572
552.57	15.702
552.77	16.054
552.96	16.335
553.16	16.183
553.35	15.852
553.54	16.476
553.74	16.470
553.93	16.683
554.13	16.716
554.32	16.451
554.52	16.496
554.71	17.138
554.91	16.657
555.10	17.101
555.29	16.950
555.49	17.421
555.68	16.927
555.88	17.412
556.07	16.831
556.27	17.709
556.46	17.155
556.66	17.456
556.85	16.810
557.04	17.531
557.24	17.238
557.43	17.848
557.63	17.776
557.82	17.364
558.02	17.368
558.21	17.794
558.40	17.438
558.60	18.264
558.79	18.249
558.99	18.567
559.18	17.842
559.38	18.490
559.57	18.120
559.76	18.012
559.96	19.255
560.15	18.806
560.35	17.910
560.54	18.620
560.73	18.294
560.93	19.006
561.12	18.664
561.32	19.162
561.51	19.443
561.70	19.394
561.90	18.456
562.09	19.606
562.29	19.255
562.48	19.898
562.67	19.471
562.87	19.629
563.06	19.463
563.26	20.226
563.45	19.692
563.64	20.301
563.84	19.895
564.03	20.288
564.23	19.829
564.42	20.484
564.61	20.438
564.81	20.105
565.00	20.685
565.20	20.324
565.39	20.908
565.58	20.001
565.78	19.965
565.97	20.386
566.16	21.236
566.36	21.360
566.55	21.083
566.74	20.493
566.94	21.223
567.13	21.113
567.33	21.188
567.52	21.727
567.71	21.560
567.91	21.213
568.10	21.757
568.29	21.426
568.49	21.674
568.68	21.464
568.87	21.887
569.07	21.747
569.26	22.283
569.45	21.915
569.65	21.811
569.84	22.084
570.04	22.327
570.23	21.656
570.42	21.855
570.62	21.864
570.81	21.840
571.00	22.447
571.20	22.059
571.39	22.428
571.58	22.598
571.78	22.631
571.97	22.495
572.16	22.122
572.36	22.002
572.55	22.238
572.74	22.219
572.94	22.243
573.13	22.634
573.32	22.694
573.51	22.947
573.71	22.966
573.90	22.658
574.09	22.833
574.29	22.905
574.48	22.641
574.67	22.583
574.87	22.992
575.06	22.880
575.25	22.376
575.45	22.970
575.64	22.747
575.83	22.738
576.03	24.064
576.22	22.594
576.41	22.603
576.60	23.038
576.80	23.111
576.99	22.841
577.18	22.970
577.38	23.060
577.57	23.273
577.76	23.880
577.95	23.336
578.15	22.780
578.34	24.068
578.53	22.953
578.73	23.692
578.92	22.920
579.11	23.687
579.30	23.484
579.50	23.632
579.69	23.029
579.88	23.617
580.08	23.276
580.27	23.606
580.46	23.414
580.65	23.366
580.85	22.683
581.04	23.636
581.23	22.932
581.42	23.447
581.62	23.220
581.81	23.399
582.00	23.365
582.19	22.943
582.39	23.452
582.58	23.198
582.77	23.713
582.96	23.262
583.16	23.208
583.35	23.637
583.54	23.020
583.73	23.225
583.93	23.069
584.12	23.336
584.31	22.815
584.50	23.503
584.70	23.690
584.89	22.927
585.08	23.214
585.27	23.761
585.47	22.175
585.66	23.131
585.85	22.770
586.04	23.320
586.24	23.319
586.43	22.615
586.62	22.929
586.81	23.222
587.00	22.623
587.20	22.711
587.39	22.587
587.58	22.800
587.77	23.098
587.97	22.594
588.16	22.742
588.35	22.540
588.54	22.796
588.73	22.787
588.93	22.617
589.12	23.383
589.31	22.857
589.50	22.629
589.69	22.900
589.89	22.749
590.08	22.035
590.27	22.505
590.46	22.681
590.65	22.810
590.85	21.930
591.04	23.225
591.23	23.161
591.42	23.345
591.61	22.990
591.81	22.870
592.00	23.270
592.19	23.087
592.38	22.944
592.57	23.054
592.77	22.812
592.96	22.700
593.15	23.087
593.34	23.071
593.53	22.999
593.72	22.892
593.92	22.285
594.11	23.601
594.30	22.569
594.49	23.257
594.68	22.742
594.87	22.603
595.07	22.757
595.26	23.096
595.45	23.116
595.64	23.017
595.83	22.854
596.02	23.046
596.22	23.285
596.41	23.269
596.60	23.234
596.79	22.745
596.98	22.856
597.17	23.379
597.37	22.674
597.56	23.171
597.75	22.695
597.94	23.229
598.13	23.388
598.32	23.649
598.51	23.933
598.71	23.623
598.90	23.805
599.09	23.887
599.28	24.046
599.47	23.679
599.66	23.736
599.85	23.781
600.05	24.304
600.24	23.905
600.43	24.268
600.62	24.067
600.81	23.781
601.00	24.153
601.19	23.634
601.38	24.010
601.58	24.345
601.77	23.808
601.96	24.413
602.15	24.785
602.34	24.360
602.53	24.615
602.72	23.826
602.91	23.654
603.10	23.206
603.30	23.888
603.49	24.163
603.68	24.280
603.87	23.953
604.06	23.815
604.25	24.531
604.44	24.237
604.63	23.974
604.82	24.262
605.01	24.262
605.21	24.339
605.40	24.066
605.59	23.242
605.78	24.413
605.97	23.607
606.16	24.887
606.35	24.451
606.54	24.377
606.73	24.592
606.92	24.455
607.11	24.444
607.30	24.660
607.50	24.312
607.69	23.748
607.88	24.599
608.07	24.407
608.26	24.034
608.45	24.117
608.64	24.773
608.83	23.742
609.02	23.930
609.21	23.938
609.40	24.023
609.59	23.786
609.78	23.728
609.97	23.589
610.16	23.441
610.35	23.248
610.55	23.175
610.74	23.710
610.93	23.743
611.12	23.624
611.31	23.949
611.50	23.765
611.69	23.660
611.88	23.758
612.07	24.057
612.26	23.458
612.45	23.712
612.64	23.101
612.83	23.551
613.02	22.547
613.21	23.030
613.40	23.303
613.59	23.396
613.78	22.712
613.97	23.049
614.16	22.564
614.35	23.296
614.54	21.277
614.73	22.779
614.92	22.479
615.11	23.279
615.30	22.364
615.49	23.178
615.68	22.284
615.87	22.280
616.07	21.782
616.26	22.523
616.45	22.245
616.64	21.885
616.83	22.920
617.02	22.476
617.21	21.320
617.40	22.135
617.59	21.891
617.78	22.300
617.97	21.045
618.16	21.795
618.35	20.839
618.54	21.493
618.73	21.562
618.92	21.921
619.11	21.198
619.30	21.611
619.49	21.069
619.68	21.429
619.86	20.873
620.05	21.497
620.24	21.226
620.43	21.542
620.62	20.122
620.81	21.575
621.00	21.870
621.19	22.431
621.38	21.496
621.57	21.575
621.76	20.626
621.95	21.741
622.14	21.547
622.33	21.428
622.52	21.072
622.71	21.250
622.90	20.496
623.09	20.274
623.28	20.755
623.47	21.563
623.66	19.618
623.85	20.958
624.04	19.972
624.23	20.833
624.42	20.211
624.61	20.766
624.80	20.078
624.99	21.273
625.18	19.428
625.36	21.139
625.55	20.646
625.74	20.614
625.93	20.160
626.12	20.917
626.31	20.323
626.50	20.356
626.69	20.111
626.88	20.935
627.07	20.787
627.26	20.120
627.45	20.157
627.64	20.767
627.83	20.345
628.02	20.242
628.20	19.812
628.39	21.010
628.58	20.473
628.77	20.615
628.96	20.125
629.15	20.466
629.34	20.504
629.53	19.847
629.72	20.332
629.91	20.886
630.10	19.927
630.29	20.431
630.47	19.510
630.66	19.714
630.85	19.091
631.04	21.384
631.23	20.705
631.42	20.450
631.61	20.295
631.80	20.715
631.99	19.656
632.18	19.724
632.36	19.645
632.55	20.529
632.74	19.318
632.93	19.065
633.12	19.933
633.31	19.890
633.50	19.948
633.69	19.625
633.88	19.540
634.06	20.529
634.25	19.897
634.44	19.921
634.63	19.426
634.82	20.517
635.01	19.211
635.20	19.723
635.39	18.994
635.57	20.276
635.76	19.640
635.95	19.845
636.14	18.949
636.33	20.052
636.52	19.774
636.71	19.443
636.89	19.682
637.08	19.146
637.27	18.655
637.46	19.902
637.65	19.121
637.84	20.026
638.03	19.219
638.21	19.225
638.40	19.546
638.59	18.974
638.78	19.391
638.97	19.640
639.16	19.304
639.34	19.348
639.53	19.155
639.72	19.721
639.91	18.537
640.10	19.048
640.29	20.076
640.47	19.663
640.66	18.977
640.85	20.155
641.04	18.075
641.23	18.702
641.42	18.623
641.60	19.106
641.79	18.781
641.98	19.206
642.17	18.906
642.36	19.636
642.54	16.470
642.73	19.282
642.92	18.110
643.11	18.146
643.30	18.128
643.49	19.769
643.67	17.903
643.86	19.509
644.05	18.527
644.24	18.744
644.43	18.734
644.61	19.130
644.80	18.828
644.99	17.765
645.18	18.960
645.37	19.305
645.55	17.791
645.74	19.116
645.93	18.562
646.12	19.235
646.31	19.175
646.49	18.615
646.68	19.633
646.87	18.755
647.06	17.639
647.24	19.458
647.43	17.616
647.62	19.737
647.81	17.758
648.00	18.887
648.18	16.799
648.37	18.109
648.56	18.719
648.75	18.825
648.93	18.086
649.12	18.362
649.31	17.433
649.50	18.882
649.68	17.141
649.87	17.977
650.06	17.958
650.25	19.272
650.43	17.709
650.62	18.799
650.81	18.025
651.00	18.393
651.18	17.803
651.37	19.297
651.56	17.226
651.75	18.623
651.93	17.560
652.12	18.417
652.31	18.486
652.50	17.839
652.68	19.338
652.87	19.410
653.06	17.730
653.25	18.904
653.43	17.828
653.62	18.674
653.81	18.547
654.00	18.128
654.18	17.691
654.37	19.118
654.56	16.958
654.74	18.261
654.93	17.119
655.12	17.001
655.31	17.284
655.49	17.595
655.68	15.681
655.87	16.939
656.05	15.865
656.24	16.429
656.43	15.790
656.62	16.688
656.80	15.868
656.99	16.321
657.18	15.159
657.36	16.462
657.55	15.353
657.74	16.812
657.93	16.420
658.11	17.322
658.30	15.345
658.49	15.544
658.67	15.106
658.86	15.095
659.05	14.599
659.23	15.968
659.42	14.089
659.61	15.796
659.79	14.796
659.98	15.081
660.17	15.511
660.35	14.840
660.54	15.498
660.73	15.952
660.91	14.919
661.10	14.963
661.29	13.462
661.47	14.675
661.66	14.373
661.85	14.348
662.03	14.000
662.22	13.660
662.41	12.253
662.59	13.216
662.78	12.763
662.97	12.743
663.15	11.814
663.34	12.557
663.53	12.041
663.71	12.952
663.90	11.255
664.09	13.148
664.27	12.463
664.46	11.978
664.65	11.703
664.83	10.900
665.02	10.412
665.21	11.073
665.39	9.628
665.58	12.791
665.77	11.120
665.95	11.761
666.14	10.383
666.32	11.269
666.51	9.943
666.70	10.562
666.88	9.835
667.07	10.401
667.26	9.926
667.44	10.920
667.63	10.329
667.81	10.151
668.00	11.226
668.19	12.138
668.37	10.553
668.56	11.763
668.75	9.492
668.93	11.390
669.12	9.810
669.30	10.705
669.49	10.056
669.68	10.613
669.86	10.787
670.05	9.838
670.23	9.129
670.42	10.051
670.61	10.632
670.79	11.831
670.98	9.961
671.16	11.679
671.35	9.117
671.54	10.654
671.72	9.365
671.91	11.439
672.09	8.595
672.28	12.355
672.46	10.699
672.65	11.828
672.84	11.434
673.02	11.236
673.21	8.412
673.39	10.942
673.58	11.654
673.77	11.720
673.95	10.029
674.14	12.840
674.32	10.935
674.51	12.235
674.69	10.832
674.88	11.694
675.07	11.078
675.25	14.415
675.44	10.971
675.62	11.580
675.81	10.300
675.99	15.120
676.18	11.265
676.36	12.733
676.55	10.416
676.74	13.084
676.92	12.223
677.11	11.947
677.29	10.579
677.48	13.468
677.66	12.711
677.85	11.822
678.03	12.166
678.22	13.205
678.40	11.593
678.59	12.371
678.78	11.358
678.96	11.950
679.15	11.136
679.33	13.890
679.52	13.095
679.70	12.872
679.89	13.140
680.07	13.403
680.26	11.494
680.44	12.930
680.63	13.212
680.81	13.286
681.00	10.968
681.18	13.314
681.37	13.255
681.55	14.541
681.74	14.413
681.92	13.760
682.11	14.132
682.29	14.920
682.48	13.283
682.66	14.599
682.85	13.410
683.03	13.745
683.22	15.016
683.40	16.002
683.59	13.191
683.77	15.285
683.96	13.957
684.14	15.826
684.33	12.899
684.51	17.073
684.70	14.507
684.88	17.641
685.07	14.867
685.25	16.998
685.44	14.005
685.62	17.489
685.81	15.043
685.99	17.637
686.18	16.097
686.36	17.460
686.55	14.812
686.73	17.271
686.92	17.687
687.10	19.623
687.29	18.823
687.47	18.598
687.65	18.858
687.84	17.576
688.02	20.989
688.21	21.333
688.39	16.894
688.58	21.138
688.76	19.608
688.95	18.417
689.13	18.863
689.32	20.777
689.50	20.727
689.68	22.214
689.87	19.670
690.05	22.165
690.24	21.821
690.42	21.779
690.61	22.203
690.79	23.411
690.98	22.494
691.16	22.764
691.34	21.548
691.53	23.558
691.71	22.330
691.90	25.357
692.08	23.091
692.27	27.494
692.45	26.347
692.63	24.618
692.82	24.559
693.00	26.612
693.19	23.782
693.37	28.399
693.56	26.934
693.74	28.576
693.92	26.623
694.11	29.091
694.29	28.738
694.48	30.146
694.66	29.126
694.84	29.915
695.03	28.970
695.21	32.678
695.40	31.413
695.58	31.525
695.76	28.646
695.95	32.250
696.13	31.727
696.32	33.560
696.50	36.764
696.68	35.673
696.87	32.689
697.05	34.171
697.24	33.839
697.42	35.092
697.60	33.256
697.79	35.841
697.97	33.487
698.16	33.881
698.34	33.999
698.52	35.499
698.71	33.107
698.89	34.576
699.07	35.118
699.26	36.571
699.44	35.249
699.63	36.757
699.81	35.630
699.99	36.555
700.18	36.582
700.36	37.602
700.54	36.676
700.73	35.870
700.91	37.768
701.09	37.547
701.28	37.710
701.46	39.077
701.64	38.263
701.83	40.322
702.01	37.118
702.20	40.735
702.38	40.443
702.56	40.843
702.75	38.876
702.93	40.480
703.11	37.903
703.30	41.322
703.48	40.682
703.66	41.783
703.85	40.577
704.03	44.149
704.21	41.159
704.40	42.573
704.58	41.175
704.76	43.151
704.95	41.278
705.13	45.024
705.31	42.649
705.50	45.845
705.68	41.473
705.86	45.067
706.04	42.298
706.23	43.811
706.41	43.675
706.59	42.722
706.78	42.919
706.96	43.913
707.14	44.822
707.33	45.049
707.51	44.200
707.69	43.960
707.88	43.853
708.06	46.041
708.24	43.978
708.42	45.659
708.61	45.189
708.79	45.640
708.97	46.240
709.16	45.765
709.34	45.990
709.52	46.902
709.71	44.199
709.89	46.475
710.07	43.047
710.25	47.008
710.44	45.541
710.62	45.930
710.80	46.864
710.98	46.959
711.17	45.385
711.35	46.716
711.53	44.209
711.72	43.627
711.90	46.222
712.08	45.622
712.26	43.879
712.45	46.384
712.63	45.675
712.81	47.348
712.99	48.486
713.18	45.298
713.36	45.833
713.54	46.906
713.72	45.344
713.91	46.169
714.09	45.403
714.27	46.555
714.45	47.983
714.64	47.213
714.82	45.143
715.00	46.194
715.18	47.095
715.37	46.982
715.55	45.716
715.73	46.150
715.91	47.023
716.10	46.236
716.28	44.108
716.46	46.255
716.64	45.859
716.83	47.368
717.01	46.380
717.19	47.050
717.37	46.147
717.55	47.083
717.74	44.274
717.92	47.032
718.10	46.709
718.28	47.633
718.47	45.013
718.65	48.818
718.83	49.151
719.01	48.222
719.19	44.023
719.38	48.250
719.56	48.279
719.74	46.437
719.92	47.091
720.10	46.365
720.29	45.793
720.47	47.316
720.65	46.674
720.83	48.921
721.01	47.065
721.20	48.243
721.38	50.284
721.56	49.199
721.74	46.491
721.92	50.370
722.11	49.274
722.29	49.744
722.47	48.568
722.65	52.481
722.83	50.636
723.01	49.647
723.20	48.380
723.38	51.527
723.56	48.902
723.74	50.921
723.92	49.666
724.10	50.077
724.29	49.103
724.47	49.898
724.65	50.597
724.83	50.871
725.01	48.740
725.19	48.797
725.38	49.213
725.56	49.786
725.74	48.009
725.92	50.686
726.10	49.233
726.28	51.651
726.46	51.002
726.65	50.640
726.83	48.582
727.01	50.011
727.19	51.269
727.37	49.846
727.55	48.253
727.73	48.529
727.92	49.356
728.10	51.530
728.28	48.834
728.46	49.553
728.64	50.228
728.82	50.010
729.00	49.916
729.19	51.334
729.37	48.873
729.55	50.060
729.73	47.518
729.91	49.401
730.09	49.401
730.27	48.134
730.45	47.628
730.63	51.270
730.82	50.199
731.00	54.561
731.18	48.989
731.36	50.301
731.54	46.823
731.72	49.781
731.90	52.083
732.08	50.219
732.26	47.715
732.45	52.528
732.63	49.314
732.81	50.482
732.99	47.576
733.17	51.294
733.35	51.355
733.53	51.927
733.71	51.505
733.89	50.577
734.07	49.009
734.25	52.722
734.44	48.220
734.62	51.284
734.80	49.173
734.98	52.466
735.16	51.944
735.34	52.248
735.52	53.615
735.70	52.131
735.88	54.774
736.06	55.025
736.24	54.946
736.42	53.077
736.60	51.052
736.78	53.632
736.97	54.680
737.15	54.513
737.33	50.126
737.51	52.865
737.69	54.042
737.87	56.322
738.05	56.002
738.23	53.854
738.41	52.849
738.59	54.823
738.77	54.105
738.95	55.581
739.13	54.515
739.31	53.727
739.49	55.404
739.67	53.777
739.85	55.278
740.03	53.513
740.21	55.172
740.39	54.215
740.57	54.630
740.75	55.285
740.93	52.993
741.11	53.813
741.30	54.748
741.48	53.425
741.66	55.745
741.84	56.368
742.02	54.281
742.20	54.939
742.38	55.730
742.56	58.386
742.74	52.484
742.92	54.267
743.10	54.439
743.28	55.282
743.46	53.976
743.64	53.219
743.82	53.378
744.00	58.888
744.18	54.925
744.36	55.229
744.54	56.925
744.72	57.705
744.90	57.815
745.08	57.002
745.26	55.526
745.44	58.574
745.62	55.323
745.80	55.808
745.98	55.605
746.16	58.937
746.34	55.085
746.52	55.833
746.70	54.672
746.87	58.416
747.05	57.358
747.23	58.221
747.41	56.642
747.59	57.166
747.77	54.413
747.95	55.906
748.13	56.751
748.31	63.444
748.49	56.277
748.67	54.366
748.85	54.878
749.03	56.974
749.21	61.208
749.39	60.494
749.57	54.879
749.75	56.721
749.93	58.689
750.11	57.826
750.29	56.499
750.47	58.274
750.65	55.290
750.83	55.949
751.01	54.478
751.18	54.279
751.36	55.623
751.54	58.336
751.72	60.308
751.90	53.891
752.08	56.859
752.26	54.794
752.44	59.600
752.62	57.739
752.80	57.813
752.98	54.376
753.16	57.265
753.34	57.724
753.52	56.865
753.69	56.891
753.87	56.456
754.05	56.364
754.23	52.788
754.41	55.820
754.59	52.859
754.77	57.527
754.95	56.108
755.13	58.438
755.31	54.044
755.49	59.760
755.66	54.698
755.84	57.211
756.02	55.092
756.20	57.553
756.38	53.738
756.56	55.397
756.74	53.508
756.92	57.971
757.10	54.195
757.28	58.241
757.45	60.535
757.63	59.031
757.81	55.109
757.99	58.172
758.17	58.113
758.35	59.595
758.53	57.671
758.71	55.132
758.88	52.785
759.06	55.574
759.24	52.700
759.42	53.598
759.60	52.362
759.78	50.694
759.96	49.360
760.13	50.508
760.31	44.208
760.49	48.123
760.67	43.034
760.85	46.790
761.03	43.485
761.21	43.796
761.38	42.275
761.56	47.075
761.74	45.116
761.92	51.615
762.10	43.563
762.28	47.235
762.46	42.563
762.63	46.439
762.81	43.477
762.99	46.755
763.17	44.952
763.35	44.777
763.53	44.598
763.70	44.957
763.88	45.181
764.06	45.523
764.24	43.770
764.42	46.178
764.60	45.275
764.77	46.703
764.95	45.233
765.13	46.868
765.31	45.382
765.49	48.027
765.66	46.126
765.84	47.742
766.02	45.766
766.20	51.100
766.38	49.849
766.56	50.484
766.73	48.451
766.91	49.907
767.09	51.256
767.27	52.360
767.45	50.129
767.62	51.917
767.80	53.738
767.98	53.736
768.16	50.563
768.33	56.526
768.51	55.724
768.69	55.537
768.87	53.457
769.05	57.021
769.22	53.465
769.40	56.801
769.58	55.933
769.76	59.259
769.94	54.552
770.11	56.972
770.29	59.879
770.47	60.481
770.65	56.113
770.82	59.352
771.00	55.766
771.18	62.563
771.36	56.722
771.53	57.259
771.71	59.268
771.89	62.115
772.07	56.328
772.25	60.531
772.42	58.894
772.60	62.254
772.78	56.622
772.96	61.932
773.13	58.710
773.31	60.301
773.49	55.333
773.67	55.769
773.84	56.458
774.02	64.125
774.20	62.546
774.37	58.393
774.55	59.592
774.73	64.443
774.91	60.154
775.08	59.116
775.26	59.817
775.44	59.466
775.62	56.723
775.79	61.344
775.97	57.086
776.15	56.871
776.32	60.894
776.50	63.592
776.68	63.869
776.86	63.432
777.03	58.632
777.21	64.333
777.39	56.507
777.56	64.839
777.74	58.325
777.92	60.346
778.10	57.355
778.27	66.206
778.45	62.556
778.63	65.873
778.80	57.648
778.98	63.084
779.16	60.788
779.34	61.392
779.51	58.024
779.69	63.178
779.87	59.578
780.04	61.887
780.22	52.800
780.40	61.725
780.57	62.303
780.75	62.878
780.93	64.671
781.10	60.798
781.28	63.791
781.46	53.310
781.63	58.176
781.81	62.744
781.99	57.744
782.16	58.519
782.34	58.133
782.52	60.000
782.69	64.002
782.87	61.135
783.05	62.755
783.22	67.500
783.40	57.724
783.58	63.606
783.75	56.641
783.93	62.487
784.11	60.606
784.28	66.435
784.46	59.427
784.64	63.539
784.81	57.952
784.99	67.527
785.17	58.011
785.34	60.714
785.52	55.344
785.69	62.164
785.87	59.601
786.05	59.679
786.22	63.435
786.40	64.948
786.58	62.567
786.75	58.583
786.93	59.270
787.11	62.302
787.28	59.400
787.46	64.813
787.63	59.525
787.81	59.679
787.99	61.509
788.16	62.468
788.34	53.577
788.51	62.324
788.69	54.809
788.87	56.968
789.04	54.859
789.22	59.334
789.39	53.548
789.57	59.125
789.75	50.739
789.92	55.449
790.10	57.225
790.27	57.829
790.45	52.480
790.63	57.916
790.80	54.263
790.98	59.152
791.15	58.767
791.33	56.233
791.51	55.734
791.68	56.769
791.86	59.662
792.03	61.433
792.21	51.850
792.39	50.222
792.56	59.371
792.74	65.378
792.91	57.191
793.09	59.478
793.26	55.328
793.44	62.591
793.62	57.828
793.79	60.216
793.97	56.925
794.14	59.351
794.32	59.617
794.49	64.562
794.67	54.638
794.84	56.090
795.02	59.601
795.20	57.378
795.37	57.125
795.55	61.458
795.72	64.831
795.90	60.890
796.07	61.908
796.25	57.919
796.42	57.507
796.60	58.820
796.77	55.998
796.95	55.305
797.13	55.110
797.30	59.714
797.48	55.027
797.65	52.968
797.83	57.525
798.00	60.326
798.18	54.526
798.35	61.089
798.53	56.993
798.70	57.460
798.88	53.093
799.05	55.652
799.23	54.131
799.40	56.804
799.58	56.410
799.75	59.976
799.93	51.557
800.10	56.432
800.28	59.341
800.45	59.618
800.63	53.019
800.80	57.998
800.98	59.563
801.15	53.931
801.33	57.444
801.50	59.195
801.68	50.522
801.85	55.945
802.03	55.972
802.20	60.717
802.38	59.886
802.55	54.340
802.73	59.866
802.90	59.613
803.08	58.985
803.25	64.235
803.43	59.302
803.60	64.796
803.78	54.764
803.95	57.658
804.13	54.884
804.30	59.419
804.48	59.570
804.65	59.154
804.83	58.255
805.00	52.750
805.17	62.303
805.35	53.724
805.52	56.370
805.70	59.069
805.87	57.265
806.05	59.334
806.22	50.532
806.40	53.127
806.57	56.898
806.75	63.121
806.92	61.705
807.09	63.798
807.27	58.497
807.44	57.359
807.62	54.288
807.79	54.252
807.97	59.267
808.14	56.401
808.31	55.436
808.49	57.950
808.66	58.097
808.84	59.709
809.01	60.168
809.19	53.441
809.36	61.668
809.53	60.069
809.71	53.144
809.88	57.766
810.06	60.187
810.23	57.684
810.41	60.677
810.58	65.543
810.75	54.488
810.93	63.528
811.10	55.610
811.28	61.834
811.45	60.200
811.62	57.196
811.80	56.159
811.97	60.586
812.15	65.353
812.32	57.257
812.49	53.055
812.67	62.729
812.84	55.045
813.02	66.587
813.19	55.909
813.36	62.246
813.54	61.474
813.71	60.620
813.89	59.236
814.06	61.255
814.23	56.245
814.41	51.751
814.58	62.045
814.75	60.461
814.93	54.050
815.10	61.627
815.28	52.986
815.45	60.317
815.62	56.306
815.80	62.626
815.97	57.244
816.14	50.359
816.32	57.383
816.49	53.164
816.66	53.235
816.84	58.991
817.01	59.619
817.18	59.881
817.36	55.133
817.53	59.390
817.71	47.031
817.88	54.157
818.05	47.597
818.23	59.230
818.40	57.439
818.57	54.906
818.75	51.733
818.92	51.272
819.09	49.742
819.27	59.428
819.44	50.000
819.61	54.631
819.79	43.857
819.96	55.439
820.13	45.425
820.31	54.946
820.48	53.421
820.65	50.265
820.82	47.550
821.00	48.210
821.17	40.343
821.34	46.680
821.52	45.381
821.69	48.899
821.86	44.112
822.04	45.549
822.21	43.575
822.38	44.842
822.56	41.542
822.73	43.108
822.90	40.650
823.07	43.135
823.25	41.373
823.42	42.371
823.59	42.020
823.77	42.464
823.94	41.296
824.11	40.491
824.29	40.350
824.46	42.752
824.63	41.257
824.80	42.223
824.98	42.923
825.15	42.304
825.32	41.054
825.49	44.633
825.67	41.241
825.84	45.026
826.01	43.835
826.19	46.805
826.36	41.003
826.53	45.124
826.70	43.579
826.88	43.493
827.05	42.912
827.22	43.142
827.39	43.483
827.57	45.171
827.74	40.659
827.91	43.183
828.08	41.517
828.26	42.567
828.43	40.118
828.60	45.452
828.77	43.542
828.95	42.391
829.12	38.957
829.29	39.035
829.46	39.341
829.64	41.667
829.81	37.831
829.98	47.777
830.15	42.430
830.32	45.896
830.50	40.526
830.67	47.930
830.84	42.251
831.01	41.405
831.19	43.736
831.36	49.328
831.53	57.478
831.70	52.818
831.87	41.732
832.05	55.935
832.22	53.519
832.39	45.266
832.56	51.157
832.74	52.134
832.91	48.693
833.08	56.350
833.25	45.558
833.42	48.179
833.60	45.612
833.77	41.160
833.94	47.191
834.11	45.240
834.28	38.942
834.45	42.441
834.63	39.650
834.80	41.343
834.97	39.556
835.14	42.549
835.31	40.426
835.49	40.336
835.66	39.843
835.83	42.704
836.00	41.206
836.17	40.630
836.34	41.887
836.52	41.983
836.69	46.220
836.86	44.833
837.03	45.218
837.20	43.658
837.37	38.973
837.55	46.744
837.72	45.246
837.89	53.191
838.06	47.833
838.23	52.841
838.40	55.399
838.58	55.191
838.75	54.839
838.92	56.160
839.09	64.236
839.26	61.167
839.43	60.266
839.60	64.137
839.78	77.998
839.95	66.667
840.12	67.366
840.29	72.797
840.46	70.945
840.63	63.228
840.80	58.251
840.98	59.507
841.15	56.469
841.32	56.392
841.49	50.370
841.66	63.208
841.83	67.592
842.00	54.051
842.17	65.310
842.34	51.789
842.52	66.350
842.69	68.166
842.86	51.178
843.03	77.639
843.20	69.203
843.37	71.000
843.54	71.810
843.71	71.216
843.88	71.258
844.06	87.306
844.23	78.077
844.40	77.044
844.57	80.488
844.74	68.259
844.91	71.498
845.08	77.077
845.25	84.680
845.42	84.137
845.59	78.957
845.76	74.614
845.94	85.413
846.11	91.171
846.28	98.077
846.45	105.930
846.62	97.538
846.79	86.932
846.96	89.126
847.13	98.337
847.30	95.000
847.47	80.586
847.64	91.770
847.81	85.000
847.98	108.686
848.15	93.028
848.32	92.718
848.50	92.857
848.67	95.211
848.84	100.209
849.01	83.529
849.18	111.557
849.35	108.497
849.52	99.258
849.69	98.294
849.86	100.648
850.03	97.083
850.20	90.095
850.37	81.304
850.54	111.183
850.71	97.531
850.88	119.744
851.05	98.013
851.22	113.062
851.39	120.885
851.56	95.320
851.73	119.014
851.90	109.780
852.07	85.895
852.24	112.281
852.41	97.291
852.58	94.978
852.75	89.631
852.92	82.966
853.09	98.022
853.26	107.407
853.43	96.815
853.60	120.046
853.77	100.633
853.94	84.946
854.11	123.377
854.28	118.367
854.45	103.263
854.62	98.915
854.79	108.409
854.96	102.991
855.13	96.364
855.30	97.791
855.47	127.882
855.64	90.782
855.81	109.273
855.98	114.387
856.15	104.989
856.32	107.576
856.49	113.380
856.66	106.993
856.83	85.885
857.00	107.429
857.17	106.024
857.34	108.571
857.51	119.767
857.68	97.474
857.85	97.863
858.02	107.889
858.19	99.516
858.36	108.241
858.53	119.837
858.70	95.354
858.87	102.876
859.04	94.421
859.21	113.054
859.38	114.623
859.55	137.117
859.72	98.387
859.89	113.750
860.05	132.791
860.22	126.849
860.39	106.345
860.56	123.167
860.73	109.422
860.90	126.140
861.07	115.522
861.24	95.680
861.41	109.268
861.58	102.513
861.75	112.105
861.92	131.935
862.09	92.211
862.26	108.020
862.43	114.884
862.59	114.651
862.76	117.729
862.93	111.364
863.10	106.720
863.27	95.050
863.44	101.554
863.61	91.723
863.78	85.523
863.95	122.965
864.12	100.714
864.29	112.065
864.45	100.000
864.62	95.588
864.79	102.975
864.96	105.072
865.13	109.337
865.30	104.430
865.47	96.181
865.64	107.160
865.81	94.650
865.97	99.767
866.14	118.519
866.31	118.343
866.48	98.860
866.65	101.108
866.82	109.649
866.99	122.346
867.16	113.675
867.33	115.288
867.49	101.743
867.66	140.214
867.83	130.029
868.00	110.269
868.17	110.429
868.34	133.333
868.51	103.695
868.67	130.685
868.84	116.053
869.01	116.760
869.18	109.730
869.35	108.353
869.52	96.746
869.69	114.321
869.85	105.516
870.02	94.005
870.19	107.127
870.36	109.954
870.53	84.026
870.70	117.568
870.86	104.545
871.03	96.774
871.20	105.055
871.37	111.414
871.54	110.811
871.71	81.667
871.87	88.300
872.04	96.350
872.21	102.196
872.38	89.706
872.55	118.765
872.72	114.327
872.88	144.277
873.05	87.441
873.22	99.741
873.39	86.279
873.56	93.864
873.72	103.704
873.89	103.125
874.06	105.820
874.23	83.573
874.40	113.421
874.56	129.022
874.73	101.892
874.90	115.736
875.07	109.222
875.24	100.754
875.40	78.355
875.57	100.998
875.74	88.209
875.91	106.353
876.08	94.183
876.24	105.085
876.41	140.719
876.58	87.354
876.75	107.733
876.92	90.995
877.08	102.350
877.25	114.247
877.42	101.667
877.59	104.306
877.75	104.935
877.92	76.364
878.09	88.224
878.26	92.254
878.42	101.005
878.59	97.170
878.76	86.768
878.93	131.429
879.09	93.117
879.26	82.819
879.43	98.545
879.60	77.114
879.76	111.921
879.93	69.176
880.10	86.667
880.27	84.676
880.43	75.088
880.60	77.206
880.77	59.574
880.94	65.589
881.10	63.456
881.27	49.048
881.44	45.674
881.61	47.540
881.77	40.469
881.94	36.061
882.11	37.389
882.28	31.959
882.44	32.899
882.61	37.901
882.78	36.312
882.94	40.467
883.11	35.545
883.28	38.742
883.45	37.603
883.61	36.041
883.78	39.485
883.95	39.116
884.11	35.588
884.28	34.946
>>>>>End Processed Spectral Data<<<<<
