SpectraSuite Data File
++++++++++++++++++++++++++++++++++++
Date: Wed Sep 18 04:12:19 EST 2019
User: sgrac
Dark Spectrum Present: Yes
Reference Spectrum Present: Yes
Number of Sampled Component Spectra: 1
Spectrometers: USB4E01596
Integration Time (usec): 100000 (USB4E01596)
Spectra Averaged: 3 (USB4E01596)
Boxcar Smoothing: 0 (USB4E01596)
Correct for Electrical Dark: No (USB4E01596)
Strobe/Lamp Enabled: Yes (USB4E01596)
Correct for Detector Non-linearity: No (USB4E01596)
Correct for Stray Light: No (USB4E01596)
Number of Pixels in Processed Spectrum: 3648
>>>>>Begin Processed Spectral Data<<<<<
178.44	-167.742
178.66	-167.742
178.87	-167.742
179.09	-246.000
179.30	261.957
179.52	568.421
179.74	-1116.667
179.95	-1553.333
180.17	632.558
180.38	-706.667
180.60	435.714
180.82	1506.250
181.03	502.326
181.25	-2114.286
181.46	-600.000
181.68	-613.953
181.89	548.980
182.11	720.000
182.33	654.902
182.54	545.614
182.76	1147.826
182.97	2178.571
183.19	291.304
183.40	248.864
183.62	476.923
183.84	451.613
184.05	736.364
184.27	468.852
184.48	3125.000
184.70	641.667
184.91	571.739
185.13	-662.500
185.34	-408.333
185.56	-751.515
185.78	1422.222
185.99	478.689
186.21	726.829
186.42	-2240.000
186.64	351.515
186.85	1912.500
187.07	535.714
187.28	638.095
187.50	-1223.529
187.72	506.000
187.93	392.771
188.15	513.235
188.36	-1623.529
188.58	327.273
188.79	-12200.000
189.01	206.803
189.22	362.338
189.44	883.333
189.65	312.360
189.87	392.105
190.09	351.064
190.30	1016.667
190.52	1587.500
190.73	332.530
190.95	1081.818
191.16	405.970
191.38	-32100.000
191.59	715.217
191.81	518.571
192.02	-738.462
192.24	380.645
192.45	332.222
192.67	366.667
192.88	445.313
193.10	725.000
193.31	467.857
193.53	379.032
193.74	781.818
193.96	474.576
194.18	-1117.391
194.39	576.471
194.61	917.241
194.82	976.923
195.04	386.667
195.25	362.295
195.47	-6125.000
195.68	370.423
195.90	290.110
196.11	635.417
196.33	1652.941
196.54	702.326
196.76	-892.000
196.97	204.000
197.19	1390.000
197.40	269.925
197.62	-560.606
197.83	644.231
198.05	248.993
198.26	-1052.000
198.48	636.111
198.69	269.725
198.91	366.667
199.12	-1966.667
199.34	944.000
199.55	24500.000
199.77	385.526
199.98	4716.667
200.20	758.824
200.41	457.746
200.63	570.370
200.84	1223.810
201.06	651.613
201.27	369.136
201.49	464.062
201.70	521.311
201.91	686.364
202.13	1655.000
202.34	-771.429
202.56	428.333
202.77	-239.535
202.99	442.683
203.20	582.979
203.42	552.857
203.63	249.541
203.85	-703.448
204.06	831.818
204.28	1846.667
204.49	641.860
204.71	205.882
204.92	869.231
205.14	1300.000
205.35	5675.000
205.56	383.099
205.78	391.358
205.99	249.618
206.21	311.111
206.42	565.217
206.64	708.824
206.85	306.667
207.07	600.000
207.28	353.409
207.50	960.870
207.71	720.930
207.93	562.500
208.14	565.116
208.35	403.390
208.57	532.000
208.78	326.596
209.00	273.118
209.21	226.761
209.43	425.000
209.64	888.462
209.86	2100.000
210.07	360.759
210.28	361.446
210.50	314.493
210.71	368.182
210.93	523.636
211.14	787.500
211.36	842.857
211.57	182.500
211.78	1038.462
212.00	654.054
212.21	2144.444
212.43	1815.385
212.64	900.000
212.86	302.727
213.07	507.692
213.29	312.245
213.50	460.000
213.71	285.000
213.93	277.528
214.14	865.625
214.36	609.756
214.57	336.905
214.78	6800.000
215.00	317.073
215.21	571.111
215.43	-5300.000
215.64	470.000
215.86	405.882
216.07	405.479
216.28	576.000
216.50	452.000
216.71	1606.667
216.93	-23300.000
217.14	1315.789
217.35	-350.847
217.57	309.091
217.78	772.414
218.00	304.762
218.21	413.235
218.42	-5600.000
218.64	846.429
218.85	475.000
219.07	376.744
219.28	566.667
219.49	-12750.000
219.71	494.030
219.92	618.421
220.14	-21500.000
220.35	447.945
220.56	510.870
220.78	240.244
220.99	-502.222
221.21	375.904
221.42	173.026
221.63	1600.000
221.85	-713.333
222.06	226.263
222.28	-528.571
222.49	412.281
222.70	302.586
222.92	534.211
223.13	212.329
223.34	2025.000
223.56	252.137
223.77	296.296
223.99	277.778
224.20	208.333
224.41	222.727
224.63	181.818
224.84	229.032
225.05	254.098
225.27	514.545
225.48	397.561
225.69	350.000
225.91	356.923
226.12	304.000
226.34	266.667
226.55	237.736
226.76	178.295
226.98	392.308
227.19	175.714
227.40	199.296
227.62	146.667
227.83	109.524
228.04	144.865
228.26	156.757
228.47	78.846
228.69	66.230
228.90	59.401
229.11	61.517
229.33	46.067
229.54	55.019
229.75	39.856
229.97	32.657
230.18	39.020
230.39	45.889
230.61	27.381
230.82	44.714
231.03	29.173
231.25	50.727
231.46	40.773
231.67	40.532
231.89	41.227
232.10	49.047
232.31	49.245
232.53	69.111
232.74	60.843
232.95	51.287
233.17	54.967
233.38	51.773
233.59	67.329
233.81	62.260
234.02	52.161
234.23	56.250
234.45	59.497
234.66	65.594
234.87	70.112
235.09	71.770
235.30	70.101
235.51	62.907
235.73	56.532
235.94	54.832
236.15	57.143
236.36	50.562
236.58	47.727
236.79	49.813
237.00	59.590
237.22	39.227
237.43	54.088
237.64	42.137
237.86	51.626
238.07	68.151
238.28	48.069
238.50	48.057
238.71	47.692
238.92	48.975
239.13	49.573
239.35	60.668
239.56	60.722
239.77	71.680
239.99	46.414
240.20	67.917
240.41	40.530
240.63	48.162
240.84	63.036
241.05	35.852
241.26	43.185
241.48	42.529
241.69	34.731
241.90	25.619
242.12	30.669
242.33	23.343
242.54	20.077
242.75	19.576
242.97	26.606
243.18	15.603
243.39	16.743
243.61	16.271
243.82	19.988
244.03	18.321
244.24	19.530
244.46	19.314
244.67	20.196
244.88	16.137
245.09	17.580
245.31	20.167
245.52	21.586
245.73	23.529
245.95	39.548
246.16	27.399
246.37	23.958
246.58	26.080
246.80	28.133
247.01	22.835
247.22	17.177
247.43	11.655
247.65	16.902
247.86	13.794
248.07	10.010
248.28	10.984
248.50	12.142
248.71	10.627
248.92	8.169
249.13	10.477
249.35	8.727
249.56	12.214
249.77	11.505
249.98	11.808
250.20	14.639
250.41	16.058
250.62	18.062
250.83	18.592
251.05	22.872
251.26	20.856
251.47	18.390
251.68	24.812
251.90	25.756
252.11	27.013
252.32	27.195
252.53	22.859
252.75	13.013
252.96	23.537
253.17	17.679
253.38	18.602
253.59	14.254
253.81	16.014
254.02	15.200
254.23	17.271
254.44	18.968
254.66	18.468
254.87	20.663
255.08	16.404
255.29	16.884
255.50	26.401
255.72	19.981
255.93	28.325
256.14	33.821
256.35	21.480
256.57	27.329
256.78	30.909
256.99	21.313
257.20	20.773
257.41	20.856
257.63	23.623
257.84	25.788
258.05	14.262
258.26	16.403
258.47	19.811
258.69	21.840
258.90	18.006
259.11	14.127
259.32	12.648
259.53	16.825
259.75	10.742
259.96	13.370
260.17	10.966
260.38	10.479
260.59	10.094
260.81	9.831
261.02	9.380
261.23	9.787
261.44	8.194
261.65	6.952
261.87	8.399
262.08	10.594
262.29	11.169
262.50	9.522
262.71	7.216
262.92	10.621
263.14	11.193
263.35	10.506
263.56	9.603
263.77	10.912
263.98	12.840
264.20	14.344
264.41	16.508
264.62	9.319
264.83	8.571
265.04	18.794
265.25	11.197
265.47	19.786
265.68	20.940
265.89	16.279
266.10	16.495
266.31	18.187
266.52	15.988
266.74	13.926
266.95	19.296
267.16	16.063
267.37	12.271
267.58	10.539
267.79	13.574
268.01	12.419
268.22	9.159
268.43	11.018
268.64	13.905
268.85	13.194
269.06	10.065
269.27	12.651
269.49	9.969
269.70	12.696
269.91	11.166
270.12	15.688
270.33	14.554
270.54	14.335
270.75	10.591
270.97	11.770
271.18	11.022
271.39	12.239
271.60	13.204
271.81	10.860
272.02	13.100
272.23	12.700
272.45	8.765
272.66	9.691
272.87	9.990
273.08	7.806
273.29	13.178
273.50	10.713
273.71	8.518
273.92	8.469
274.14	10.028
274.35	7.973
274.56	11.264
274.77	10.625
274.98	13.227
275.19	10.831
275.40	12.443
275.61	11.865
275.83	10.741
276.04	8.950
276.25	13.223
276.46	12.767
276.67	13.478
276.88	12.141
277.09	10.113
277.30	14.269
277.51	12.580
277.73	11.929
277.94	13.383
278.15	13.571
278.36	14.219
278.57	11.910
278.78	11.103
278.99	9.821
279.20	13.856
279.41	15.583
279.62	10.259
279.84	14.715
280.05	10.349
280.26	12.077
280.47	11.508
280.68	9.166
280.89	9.044
281.10	9.646
281.31	13.986
281.52	10.443
281.73	8.021
281.94	8.277
282.16	11.810
282.37	13.609
282.58	11.086
282.79	9.908
283.00	12.322
283.21	8.990
283.42	12.050
283.63	10.884
283.84	8.429
284.05	9.080
284.26	8.803
284.47	11.284
284.68	7.872
284.89	8.487
285.11	8.430
285.32	10.647
285.53	9.544
285.74	10.662
285.95	8.777
286.16	9.093
286.37	6.856
286.58	8.043
286.79	5.796
287.00	7.721
287.21	7.928
287.42	7.550
287.63	7.683
287.84	8.982
288.05	8.042
288.26	8.295
288.48	9.291
288.69	8.836
288.90	11.177
289.11	9.530
289.32	9.843
289.53	8.505
289.74	8.584
289.95	9.367
290.16	9.111
290.37	9.123
290.58	6.284
290.79	7.212
291.00	8.260
291.21	7.894
291.42	7.539
291.63	8.265
291.84	9.635
292.05	6.222
292.26	7.503
292.47	8.853
292.68	4.976
292.89	7.244
293.10	7.125
293.31	8.640
293.52	6.176
293.73	4.406
293.94	9.896
294.15	8.116
294.36	8.745
294.57	9.587
294.79	8.239
295.00	6.520
295.21	8.801
295.42	10.647
295.63	10.885
295.84	6.470
296.05	7.696
296.26	8.247
296.47	8.204
296.68	6.743
296.89	7.754
297.10	7.828
297.31	7.135
297.52	6.220
297.73	7.835
297.94	6.002
298.15	5.864
298.36	5.361
298.57	6.132
298.78	7.963
298.99	7.183
299.20	6.011
299.41	6.391
299.62	5.651
299.83	5.949
300.04	7.907
300.25	8.047
300.46	9.684
300.67	9.466
300.88	8.315
301.09	7.534
301.30	8.098
301.50	6.986
301.71	10.967
301.92	9.187
302.13	7.065
302.34	7.101
302.55	8.457
302.76	7.328
302.97	8.262
303.18	5.679
303.39	8.829
303.60	7.668
303.81	9.406
304.02	6.524
304.23	9.022
304.44	8.507
304.65	6.645
304.86	8.790
305.07	6.167
305.28	8.729
305.49	9.900
305.70	9.864
305.91	8.004
306.12	6.260
306.33	6.361
306.54	9.237
306.75	8.949
306.96	11.433
307.17	8.263
307.38	8.925
307.58	6.682
307.79	8.781
308.00	9.898
308.21	7.250
308.42	5.768
308.63	7.817
308.84	8.891
309.05	8.254
309.26	7.527
309.47	10.304
309.68	8.464
309.89	8.670
310.10	7.299
310.31	8.250
310.52	7.357
310.73	9.907
310.94	5.268
311.14	7.226
311.35	7.204
311.56	7.998
311.77	6.296
311.98	6.246
312.19	6.878
312.40	7.599
312.61	4.925
312.82	6.344
313.03	6.862
313.24	6.164
313.45	6.797
313.66	7.493
313.86	8.067
314.07	5.995
314.28	7.297
314.49	6.563
314.70	7.063
314.91	8.988
315.12	9.102
315.33	10.018
315.54	9.257
315.75	7.626
315.96	8.616
316.16	8.714
316.37	9.386
316.58	8.113
316.79	8.911
317.00	8.641
317.21	8.770
317.42	9.795
317.63	8.867
317.84	8.357
318.05	6.614
318.25	9.304
318.46	8.318
318.67	8.499
318.88	9.992
319.09	8.122
319.30	10.410
319.51	9.228
319.72	9.354
319.93	6.772
320.13	9.288
320.34	7.964
320.55	5.461
320.76	8.614
320.97	9.096
321.18	12.977
321.39	6.873
321.60	9.093
321.80	12.532
322.01	11.020
322.22	10.796
322.43	9.288
322.64	9.729
322.85	8.309
323.06	6.979
323.27	10.780
323.47	11.158
323.68	11.765
323.89	7.690
324.10	8.511
324.31	8.749
324.52	8.948
324.73	8.466
324.93	7.338
325.14	8.290
325.35	9.382
325.56	7.708
325.77	10.408
325.98	7.049
326.19	9.015
326.39	6.764
326.60	7.669
326.81	6.425
327.02	6.725
327.23	7.091
327.44	10.996
327.64	6.428
327.85	7.387
328.06	8.282
328.27	10.711
328.48	8.927
328.69	4.897
328.90	7.969
329.10	7.908
329.31	7.976
329.52	9.324
329.73	10.728
329.94	9.024
330.15	9.845
330.35	11.644
330.56	10.489
330.77	9.680
330.98	10.587
331.19	8.214
331.39	8.651
331.60	10.195
331.81	6.098
332.02	9.688
332.23	9.002
332.44	7.527
332.64	9.823
332.85	10.571
333.06	10.963
333.27	7.599
333.48	9.738
333.68	9.060
333.89	10.189
334.10	9.206
334.31	11.148
334.52	9.264
334.72	10.097
334.93	7.887
335.14	7.274
335.35	9.502
335.56	9.583
335.76	7.342
335.97	10.009
336.18	7.141
336.39	11.441
336.60	9.887
336.80	9.118
337.01	8.164
337.22	8.416
337.43	10.978
337.64	10.580
337.84	8.473
338.05	9.177
338.26	10.773
338.47	12.453
338.68	7.920
338.88	11.506
339.09	9.774
339.30	10.964
339.51	9.146
339.71	12.378
339.92	8.404
340.13	11.418
340.34	8.234
340.55	6.981
340.75	9.304
340.96	9.229
341.17	10.680
341.38	9.462
341.58	10.504
341.79	11.026
342.00	8.479
342.21	9.865
342.41	10.149
342.62	10.649
342.83	10.525
343.04	7.497
343.24	10.508
343.45	11.622
343.66	9.671
343.87	9.626
344.07	9.413
344.28	10.877
344.49	12.271
344.70	13.868
344.90	9.006
345.11	8.021
345.32	11.294
345.53	10.215
345.73	11.409
345.94	11.946
346.15	12.125
346.36	10.073
346.56	10.835
346.77	13.828
346.98	12.413
347.19	11.743
347.39	12.294
347.60	11.667
347.81	14.182
348.02	13.019
348.22	9.071
348.43	11.466
348.64	10.513
348.84	12.249
349.05	12.108
349.26	14.286
349.47	9.893
349.67	10.474
349.88	13.909
350.09	12.154
350.30	17.002
350.50	13.074
350.71	14.400
350.92	13.057
351.12	13.811
351.33	12.679
351.54	14.098
351.74	14.428
351.95	10.873
352.16	14.921
352.37	14.560
352.57	14.123
352.78	14.030
352.99	13.701
353.19	12.671
353.40	15.230
353.61	16.936
353.82	15.198
354.02	16.173
354.23	15.735
354.44	16.712
354.64	14.299
354.85	17.172
355.06	14.369
355.26	13.035
355.47	15.216
355.68	18.107
355.88	17.050
356.09	13.616
356.30	12.822
356.51	15.590
356.71	14.981
356.92	12.739
357.13	16.689
357.33	18.573
357.54	15.931
357.75	11.336
357.95	15.878
358.16	13.917
358.37	18.559
358.57	12.925
358.78	19.524
358.99	16.093
359.19	13.802
359.40	17.462
359.61	17.350
359.81	18.476
360.02	20.588
360.23	14.808
360.43	14.162
360.64	16.159
360.85	14.827
361.05	14.502
361.26	18.415
361.47	14.763
361.67	17.858
361.88	13.701
362.09	15.965
362.29	14.436
362.50	15.178
362.70	13.042
362.91	17.182
363.12	14.612
363.32	14.998
363.53	15.939
363.74	18.076
363.94	13.934
364.15	18.990
364.36	15.976
364.56	15.812
364.77	17.789
364.98	19.355
365.18	15.714
365.39	17.403
365.59	14.530
365.80	16.765
366.01	14.939
366.21	16.009
366.42	14.773
366.63	17.338
366.83	15.771
367.04	12.841
367.24	17.284
367.45	13.993
367.66	13.652
367.86	16.461
368.07	13.528
368.28	15.860
368.48	13.628
368.69	13.481
368.89	15.456
369.10	16.401
369.31	15.902
369.51	16.105
369.72	17.288
369.92	18.658
370.13	11.688
370.34	15.750
370.54	10.464
370.75	14.877
370.95	12.432
371.16	16.407
371.37	13.029
371.57	14.517
371.78	13.753
371.98	15.199
372.19	14.845
372.40	15.306
372.60	15.785
372.81	15.144
373.01	13.138
373.22	13.138
373.43	14.166
373.63	15.766
373.84	14.507
374.04	15.102
374.25	14.040
374.46	15.463
374.66	13.563
374.87	15.824
375.07	11.788
375.28	12.622
375.48	13.661
375.69	15.230
375.90	10.611
376.10	10.876
376.31	12.791
376.51	11.803
376.72	12.163
376.92	11.715
377.13	14.735
377.34	13.308
377.54	13.064
377.75	14.930
377.95	12.097
378.16	13.235
378.36	13.520
378.57	15.253
378.77	12.359
378.98	13.948
379.19	11.472
379.39	11.417
379.60	12.112
379.80	12.478
380.01	13.528
380.21	13.430
380.42	12.826
380.62	12.356
380.83	12.585
381.04	12.200
381.24	13.307
381.45	12.718
381.65	11.710
381.86	12.243
382.06	13.736
382.27	11.043
382.47	11.201
382.68	13.400
382.88	11.095
383.09	10.611
383.29	13.072
383.50	12.105
383.71	11.374
383.91	12.186
384.12	11.099
384.32	11.879
384.53	10.964
384.73	10.195
384.94	10.720
385.14	11.615
385.35	10.131
385.55	10.884
385.76	10.470
385.96	11.140
386.17	12.290
386.37	12.081
386.58	12.255
386.78	13.740
386.99	10.356
387.19	12.422
387.40	9.579
387.60	13.200
387.81	11.743
388.01	10.805
388.22	12.492
388.42	12.913
388.63	12.650
388.83	13.528
389.04	10.483
389.24	12.062
389.45	11.456
389.65	10.244
389.86	10.381
390.06	10.088
390.27	10.076
390.47	10.769
390.68	10.525
390.88	12.106
391.09	11.595
391.29	12.300
391.50	11.039
391.70	11.164
391.91	10.572
392.11	10.774
392.32	11.197
392.52	11.347
392.73	10.394
392.93	10.530
393.14	10.343
393.34	11.134
393.55	11.771
393.75	10.701
393.95	10.948
394.16	11.577
394.36	12.304
394.57	11.489
394.77	11.248
394.98	9.659
395.18	11.328
395.39	10.738
395.59	10.049
395.80	10.754
396.00	10.954
396.21	12.248
396.41	9.475
396.61	11.653
396.82	11.465
397.02	12.821
397.23	11.756
397.43	11.188
397.64	9.276
397.84	12.688
398.05	9.486
398.25	11.767
398.45	10.461
398.66	11.211
398.86	10.643
399.07	11.510
399.27	9.412
399.48	11.442
399.68	10.164
399.89	10.042
400.09	11.313
400.29	10.250
400.50	10.329
400.70	10.665
400.91	9.671
401.11	9.444
401.32	11.437
401.52	9.011
401.72	9.720
401.93	12.065
402.13	10.989
402.34	10.176
402.54	7.852
402.75	11.948
402.95	8.502
403.15	11.417
403.36	9.975
403.56	10.554
403.77	8.658
403.97	10.500
404.17	8.994
404.38	10.687
404.58	9.223
404.79	10.545
404.99	11.130
405.19	9.171
405.40	9.468
405.60	10.085
405.81	9.197
406.01	10.047
406.21	8.923
406.42	9.380
406.62	10.068
406.83	10.106
407.03	10.499
407.23	8.845
407.44	9.313
407.64	10.198
407.85	9.827
408.05	9.735
408.25	8.958
408.46	11.213
408.66	9.747
408.87	9.542
409.07	10.192
409.27	7.746
409.48	8.681
409.68	10.159
409.88	8.404
410.09	10.367
410.29	9.946
410.50	11.065
410.70	8.482
410.90	9.417
411.11	8.763
411.31	10.045
411.51	9.648
411.72	9.857
411.92	9.092
412.12	9.336
412.33	8.890
412.53	9.044
412.74	7.446
412.94	8.906
413.14	9.134
413.35	9.111
413.55	8.497
413.75	9.788
413.96	8.270
414.16	9.564
414.36	9.543
414.57	9.467
414.77	8.375
414.97	9.684
415.18	8.438
415.38	9.025
415.58	8.823
415.79	7.941
415.99	8.040
416.19	9.532
416.40	8.599
416.60	8.984
416.80	8.980
417.01	8.989
417.21	7.734
417.41	9.731
417.62	9.106
417.82	8.625
418.02	7.706
418.23	8.894
418.43	8.842
418.63	9.791
418.84	8.785
419.04	8.089
419.24	9.724
419.45	9.313
419.65	9.756
419.85	9.781
420.06	9.087
420.26	9.911
420.46	9.313
420.67	9.498
420.87	9.499
421.07	9.984
421.28	8.793
421.48	9.344
421.68	9.499
421.88	9.934
422.09	9.947
422.29	9.287
422.49	8.924
422.70	9.405
422.90	9.432
423.10	9.297
423.31	9.469
423.51	9.837
423.71	8.789
423.91	9.982
424.12	9.331
424.32	9.461
424.52	9.096
424.73	9.407
424.93	9.045
425.13	9.202
425.33	8.824
425.54	9.337
425.74	9.348
425.94	10.315
426.15	9.105
426.35	9.126
426.55	9.727
426.75	9.588
426.96	9.023
427.16	9.096
427.36	9.249
427.57	10.214
427.77	9.400
427.97	9.799
428.17	9.172
428.38	9.397
428.58	7.149
428.78	9.949
428.98	7.826
429.19	8.799
429.39	7.733
429.59	8.499
429.79	7.745
430.00	7.542
430.20	7.491
430.40	8.763
430.60	8.064
430.81	8.143
431.01	7.779
431.21	8.397
431.41	7.242
431.62	8.645
431.82	8.181
432.02	9.323
432.22	7.770
432.43	7.501
432.63	7.642
432.83	8.375
433.03	8.401
433.24	7.314
433.44	7.680
433.64	8.656
433.84	7.989
434.05	8.703
434.25	7.806
434.45	9.110
434.65	8.839
434.85	8.931
435.06	9.036
435.26	8.780
435.46	8.555
435.66	9.189
435.87	7.987
436.07	8.540
436.27	8.821
436.47	8.318
436.67	8.295
436.88	8.971
437.08	8.401
437.28	8.571
437.48	8.283
437.69	9.116
437.89	8.425
438.09	8.876
438.29	7.551
438.49	8.731
438.70	8.091
438.90	8.094
439.10	7.853
439.30	8.689
439.50	8.285
439.71	8.714
439.91	7.987
440.11	9.171
440.31	7.950
440.51	8.452
440.72	7.809
440.92	8.726
441.12	8.303
441.32	9.327
441.52	8.520
441.72	8.893
441.93	8.214
442.13	9.008
442.33	8.396
442.53	8.849
442.73	7.905
442.94	8.442
443.14	7.897
443.34	9.384
443.54	8.492
443.74	9.351
443.94	8.406
444.15	8.520
444.35	8.219
444.55	8.353
444.75	8.458
444.95	8.788
445.15	8.508
445.36	9.085
445.56	7.399
445.76	8.369
445.96	8.209
446.16	8.720
446.36	7.944
446.57	8.550
446.77	7.778
446.97	8.857
447.17	8.796
447.37	8.445
447.57	8.853
447.77	8.695
447.98	7.869
448.18	8.501
448.38	8.355
448.58	8.783
448.78	8.830
448.98	8.368
449.18	8.087
449.39	8.871
449.59	8.459
449.79	8.813
449.99	7.989
450.19	8.258
450.39	8.621
450.59	8.761
450.79	7.917
451.00	8.437
451.20	9.058
451.40	8.596
451.60	7.571
451.80	8.230
452.00	8.078
452.20	8.581
452.40	7.915
452.61	7.944
452.81	7.799
453.01	7.947
453.21	7.745
453.41	8.105
453.61	8.112
453.81	8.380
454.01	7.585
454.21	7.985
454.42	7.969
454.62	8.169
454.82	7.851
455.02	7.990
455.22	7.549
455.42	7.845
455.62	7.022
455.82	7.789
456.02	7.369
456.23	8.158
456.43	7.963
456.63	7.665
456.83	6.614
457.03	8.448
457.23	7.347
457.43	8.509
457.63	7.967
457.83	8.689
458.03	7.738
458.23	8.145
458.43	7.189
458.64	8.172
458.84	8.181
459.04	8.376
459.24	7.983
459.44	8.197
459.64	7.993
459.84	8.100
460.04	8.110
460.24	8.033
460.44	7.996
460.64	8.333
460.84	7.925
461.04	8.323
461.24	8.215
461.45	8.784
461.65	8.431
461.85	8.554
462.05	8.204
462.25	8.643
462.45	8.554
462.65	8.680
462.85	7.697
463.05	8.506
463.25	7.199
463.45	8.310
463.65	8.327
463.85	7.718
464.05	7.844
464.25	7.617
464.45	8.448
464.65	7.815
464.85	7.007
465.05	7.668
465.26	7.372
465.46	8.008
465.66	7.740
465.86	7.965
466.06	7.581
466.26	7.767
466.46	6.901
466.66	7.724
466.86	7.943
467.06	7.990
467.26	7.468
467.46	8.008
467.66	7.355
467.86	7.410
468.06	7.790
468.26	7.484
468.46	7.324
468.66	8.309
468.86	7.279
469.06	8.622
469.26	7.107
469.46	7.748
469.66	7.076
469.86	8.085
470.06	7.089
470.26	8.402
470.46	6.875
470.66	8.287
470.86	7.146
471.06	7.357
471.26	6.699
471.46	7.672
471.66	7.742
471.86	7.436
472.06	7.277
472.26	8.181
472.46	7.981
472.66	8.224
472.86	7.122
473.06	7.926
473.26	7.262
473.46	7.905
473.66	7.543
473.86	8.081
474.06	7.117
474.26	7.644
474.46	6.912
474.66	8.172
474.86	7.801
475.06	8.393
475.26	6.680
475.46	8.234
475.66	7.130
475.86	7.716
476.06	8.099
476.26	8.620
476.46	7.172
476.66	7.571
476.86	7.125
477.06	7.322
477.26	6.895
477.46	8.067
477.65	7.311
477.85	8.255
478.05	6.850
478.25	8.119
478.45	7.483
478.65	7.654
478.85	7.589
479.05	8.263
479.25	7.638
479.45	7.868
479.65	7.083
479.85	7.965
480.05	7.755
480.25	7.656
480.45	7.560
480.65	8.462
480.85	7.882
481.05	8.303
481.25	8.350
481.44	8.250
481.64	7.151
481.84	8.276
482.04	7.979
482.24	8.140
482.44	7.320
482.64	7.687
482.84	8.178
483.04	8.145
483.24	7.856
483.44	8.326
483.64	7.885
483.84	7.911
484.04	7.854
484.23	7.942
484.43	8.097
484.63	8.180
484.83	8.205
485.03	8.374
485.23	8.350
485.43	8.468
485.63	8.597
485.83	8.729
486.03	8.705
486.23	8.803
486.42	8.788
486.62	8.698
486.82	8.531
487.02	8.692
487.22	8.379
487.42	8.259
487.62	8.419
487.82	8.261
488.02	8.343
488.22	8.371
488.41	8.365
488.61	8.245
488.81	8.219
489.01	8.363
489.21	8.389
489.41	8.446
489.61	8.470
489.81	8.832
490.01	8.703
490.20	8.766
490.40	8.529
490.60	8.682
490.80	8.264
491.00	8.703
491.20	8.467
491.40	8.236
491.60	8.070
491.79	8.172
491.99	8.066
492.19	8.162
492.39	8.331
492.59	8.252
492.79	8.202
492.99	8.492
493.19	8.486
493.38	8.554
493.58	8.404
493.78	8.581
493.98	8.927
494.18	9.063
494.38	8.672
494.58	8.745
494.77	8.005
494.97	8.401
495.17	8.236
495.37	8.256
495.57	8.157
495.77	8.293
495.96	8.681
496.16	7.705
496.36	7.779
496.56	7.877
496.76	7.276
496.96	8.189
497.15	7.949
497.35	8.040
497.55	8.077
497.75	8.393
497.95	7.972
498.15	8.493
498.34	8.114
498.54	8.128
498.74	8.238
498.94	8.512
499.14	7.832
499.34	8.517
499.53	8.317
499.73	8.493
499.93	7.953
500.13	8.287
500.33	7.729
500.52	8.623
500.72	8.442
500.92	7.907
501.12	7.888
501.32	7.853
501.52	8.191
501.71	8.267
501.91	7.796
502.11	8.465
502.31	7.944
502.51	8.043
502.70	8.009
502.90	8.035
503.10	7.689
503.30	8.269
503.50	8.202
503.69	8.329
503.89	8.183
504.09	8.459
504.29	7.860
504.48	8.651
504.68	8.273
504.88	8.498
505.08	7.860
505.28	8.314
505.47	8.419
505.67	8.461
505.87	8.003
506.07	7.920
506.27	8.102
506.46	8.635
506.66	7.708
506.86	8.594
507.06	8.862
507.25	8.235
507.45	8.276
507.65	8.440
507.85	7.880
508.04	8.503
508.24	8.284
508.44	8.105
508.64	7.776
508.83	8.680
509.03	7.883
509.23	8.443
509.43	7.864
509.63	8.330
509.82	8.306
510.02	8.410
510.22	8.004
510.42	9.058
510.61	8.684
510.81	8.746
511.01	8.341
511.21	8.552
511.40	8.353
511.60	8.829
511.80	8.652
511.99	8.571
512.19	8.354
512.39	9.070
512.59	8.275
512.78	8.920
512.98	8.662
513.18	8.846
513.38	8.568
513.57	9.084
513.77	8.612
513.97	8.712
514.17	8.507
514.36	8.636
514.56	8.558
514.76	9.247
514.95	8.049
515.15	8.652
515.35	8.239
515.55	8.735
515.74	8.375
515.94	9.208
516.14	8.336
516.33	9.043
516.53	8.505
516.73	8.393
516.93	8.595
517.12	8.994
517.32	7.738
517.52	8.679
517.71	8.397
517.91	8.708
518.11	8.413
518.30	8.645
518.50	8.131
518.70	8.492
518.90	8.283
519.09	8.683
519.29	8.798
519.49	9.088
519.68	8.635
519.88	8.802
520.08	8.638
520.27	9.021
520.47	9.075
520.67	9.240
520.86	9.023
521.06	9.422
521.26	8.644
521.45	9.237
521.65	9.155
521.85	9.125
522.04	8.668
522.24	8.929
522.44	8.772
522.63	8.911
522.83	8.391
523.03	9.330
523.22	8.509
523.42	9.355
523.62	8.876
523.81	8.904
524.01	9.111
524.21	8.846
524.40	8.470
524.60	8.833
524.80	8.676
524.99	9.069
525.19	9.001
525.39	8.833
525.58	8.502
525.78	9.034
525.98	8.990
526.17	9.184
526.37	8.766
526.57	9.113
526.76	9.215
526.96	8.977
527.15	8.966
527.35	9.414
527.55	8.937
527.74	9.549
527.94	9.145
528.14	8.921
528.33	8.744
528.53	8.608
528.72	8.916
528.92	9.026
529.12	8.964
529.31	9.028
529.51	8.993
529.71	9.125
529.90	9.102
530.10	9.332
530.29	9.305
530.49	9.430
530.69	9.440
530.88	9.723
531.08	9.627
531.28	9.550
531.47	9.435
531.67	9.400
531.86	9.566
532.06	9.498
532.26	9.277
532.45	9.686
532.65	9.343
532.84	9.110
533.04	8.965
533.24	9.420
533.43	9.182
533.63	9.335
533.82	9.338
534.02	9.449
534.22	9.246
534.41	9.236
534.61	9.532
534.80	9.536
535.00	9.660
535.19	9.602
535.39	9.885
535.59	9.669
535.78	9.324
535.98	9.478
536.17	9.546
536.37	9.492
536.57	9.504
536.76	9.588
536.96	9.785
537.15	9.997
537.35	9.343
537.54	9.828
537.74	9.580
537.93	10.058
538.13	9.498
538.33	9.937
538.52	9.831
538.72	9.602
538.91	10.327
539.11	9.852
539.30	9.492
539.50	10.070
539.70	9.632
539.89	9.714
540.09	9.625
540.28	9.722
540.48	9.798
540.67	9.848
540.87	9.901
541.06	9.792
541.26	9.476
541.45	9.605
541.65	9.794
541.85	9.950
542.04	9.659
542.24	10.126
542.43	9.754
542.63	10.130
542.82	10.140
543.02	10.121
543.21	10.022
543.41	10.215
543.60	10.466
543.80	10.478
543.99	10.455
544.19	10.373
544.38	10.306
544.58	10.595
544.77	10.302
544.97	10.569
545.16	10.309
545.36	10.780
545.56	10.405
545.75	10.844
545.95	10.340
546.14	11.114
546.34	10.153
546.53	10.655
546.73	10.474
546.92	10.795
547.12	10.461
547.31	10.686
547.51	10.747
547.70	10.790
547.90	10.643
548.09	11.230
548.29	10.794
548.48	10.966
548.68	10.971
548.87	11.292
549.07	11.181
549.26	11.119
549.46	11.216
549.65	11.146
549.84	11.353
550.04	11.450
550.23	10.799
550.43	11.347
550.62	11.392
550.82	11.329
551.01	10.426
551.21	11.428
551.40	10.663
551.60	11.501
551.79	11.114
551.99	10.988
552.18	11.248
552.38	11.970
552.57	11.744
552.77	11.832
552.96	11.713
553.16	11.787
553.35	11.412
553.54	12.388
553.74	11.997
553.93	12.453
554.13	12.647
554.32	12.139
554.52	12.141
554.71	12.291
554.91	11.949
555.10	12.955
555.29	11.993
555.49	12.617
555.68	12.200
555.88	13.221
556.07	12.532
556.27	13.192
556.46	12.676
556.66	12.160
556.85	12.566
557.04	13.322
557.24	12.810
557.43	13.555
557.63	13.133
557.82	13.452
558.02	13.621
558.21	13.390
558.40	13.809
558.60	14.108
558.79	13.226
558.99	13.952
559.18	13.623
559.38	13.931
559.57	14.164
559.76	13.552
559.96	13.769
560.15	14.114
560.35	13.486
560.54	14.067
560.73	13.834
560.93	14.943
561.12	14.071
561.32	14.531
561.51	14.184
561.70	15.096
561.90	14.170
562.09	14.467
562.29	14.527
562.48	15.708
562.67	14.220
562.87	15.527
563.06	14.346
563.26	15.744
563.45	15.546
563.64	15.569
563.84	15.562
564.03	15.474
564.23	15.280
564.42	16.296
564.61	15.931
564.81	16.391
565.00	15.711
565.20	16.637
565.39	16.322
565.58	16.233
565.78	15.978
565.97	15.831
566.16	16.757
566.36	16.897
566.55	16.884
566.74	16.852
566.94	16.734
567.13	16.875
567.33	16.539
567.52	17.102
567.71	17.305
567.91	17.464
568.10	17.009
568.29	17.755
568.49	17.276
568.68	17.756
568.87	17.878
569.07	17.997
569.26	17.805
569.45	17.696
569.65	17.495
569.84	17.858
570.04	18.340
570.23	17.889
570.42	17.168
570.62	17.889
570.81	17.566
571.00	17.641
571.20	18.086
571.39	18.205
571.58	18.213
571.78	18.814
571.97	18.229
572.16	18.416
572.36	17.956
572.55	18.266
572.74	18.290
572.94	18.433
573.13	18.835
573.32	18.790
573.51	18.628
573.71	18.416
573.90	18.727
574.09	18.681
574.29	18.803
574.48	18.858
574.67	18.693
574.87	19.137
575.06	18.407
575.25	18.696
575.45	18.906
575.64	19.197
575.83	18.840
576.03	19.835
576.22	19.040
576.41	19.640
576.60	19.036
576.80	19.298
576.99	18.795
577.18	19.667
577.38	18.818
577.57	19.938
577.76	19.269
577.95	20.223
578.15	18.978
578.34	20.469
578.53	19.131
578.73	19.995
578.92	18.977
579.11	19.002
579.30	20.278
579.50	19.741
579.69	20.119
579.88	19.226
580.08	19.668
580.27	19.053
580.46	19.749
580.65	19.588
580.85	19.629
581.04	19.684
581.23	18.781
581.42	19.515
581.62	19.428
581.81	19.955
582.00	19.800
582.19	19.716
582.39	19.389
582.58	19.159
582.77	19.668
582.96	19.872
583.16	19.031
583.35	19.648
583.54	19.375
583.73	19.861
583.93	19.598
584.12	18.976
584.31	19.261
584.50	19.409
584.70	19.012
584.89	19.639
585.08	19.411
585.27	19.863
585.47	18.928
585.66	19.289
585.85	19.771
586.04	19.689
586.24	19.378
586.43	19.086
586.62	18.734
586.81	19.075
587.00	19.017
587.20	19.377
587.39	18.932
587.58	18.935
587.77	19.369
587.97	19.257
588.16	19.088
588.35	19.165
588.54	19.002
588.73	18.839
588.93	18.968
589.12	18.937
589.31	19.074
589.50	19.235
589.69	18.785
589.89	19.383
590.08	18.148
590.27	18.581
590.46	18.680
590.65	18.308
590.85	18.171
591.04	18.723
591.23	19.157
591.42	19.570
591.61	19.084
591.81	19.264
592.00	18.987
592.19	19.171
592.38	18.195
592.57	19.882
592.77	19.371
592.96	19.001
593.15	19.426
593.34	19.451
593.53	19.185
593.72	19.772
593.92	18.761
594.11	19.436
594.30	19.040
594.49	19.384
594.68	18.797
594.87	19.652
595.07	18.321
595.26	19.968
595.45	19.394
595.64	19.450
595.83	20.458
596.02	19.774
596.22	19.703
596.41	19.614
596.60	19.025
596.79	19.772
596.98	19.475
597.17	19.677
597.37	18.786
597.56	19.910
597.75	18.743
597.94	19.317
598.13	19.731
598.32	20.470
598.51	19.981
598.71	20.099
598.90	19.997
599.09	20.406
599.28	20.066
599.47	20.465
599.66	19.335
599.85	20.294
600.05	20.211
600.24	20.828
600.43	20.604
600.62	20.829
600.81	20.646
601.00	21.128
601.19	20.179
601.38	21.462
601.58	21.503
601.77	20.138
601.96	20.668
602.15	21.027
602.34	21.175
602.53	21.383
602.72	20.444
602.91	20.792
603.10	20.854
603.30	21.372
603.49	20.492
603.68	21.308
603.87	20.198
604.06	20.742
604.25	20.892
604.44	21.123
604.63	21.227
604.82	20.597
605.01	20.835
605.21	20.758
605.40	20.336
605.59	20.744
605.78	20.915
605.97	20.961
606.16	21.096
606.35	21.209
606.54	21.011
606.73	21.387
606.92	20.920
607.11	21.108
607.30	20.684
607.50	21.480
607.69	20.663
607.88	20.436
608.07	20.988
608.26	21.095
608.45	20.685
608.64	21.576
608.83	20.171
609.02	20.955
609.21	20.316
609.40	20.479
609.59	19.886
609.78	19.711
609.97	19.486
610.16	20.019
610.35	20.345
610.55	19.732
610.74	20.543
610.93	20.361
611.12	20.164
611.31	20.237
611.50	19.318
611.69	20.255
611.88	19.965
612.07	19.992
612.26	20.023
612.45	20.545
612.64	19.082
612.83	19.751
613.02	19.991
613.21	19.323
613.40	20.024
613.59	20.340
613.78	18.940
613.97	19.373
614.16	18.199
614.35	18.660
614.54	18.272
614.73	19.179
614.92	19.282
615.11	18.877
615.30	18.789
615.49	18.265
615.68	18.465
615.87	18.272
616.07	18.097
616.26	18.654
616.45	18.263
616.64	17.493
616.83	17.742
617.02	18.901
617.21	17.243
617.40	18.418
617.59	17.934
617.78	18.084
617.97	17.866
618.16	17.142
618.35	16.932
618.54	17.581
618.73	16.844
618.92	17.811
619.11	17.242
619.30	17.716
619.49	16.546
619.68	17.643
619.86	17.066
620.05	17.415
620.24	16.196
620.43	16.513
620.62	15.572
620.81	16.855
621.00	17.109
621.19	17.638
621.38	17.616
621.57	16.874
621.76	16.582
621.95	17.056
622.14	16.021
622.33	17.569
622.52	16.048
622.71	16.420
622.90	15.670
623.09	17.142
623.28	15.958
623.47	16.772
623.66	16.385
623.85	15.360
624.04	16.592
624.23	16.162
624.42	16.219
624.61	16.798
624.80	16.066
624.99	16.388
625.18	15.509
625.36	17.854
625.55	16.935
625.74	16.282
625.93	15.428
626.12	16.282
626.31	16.771
626.50	16.731
626.69	15.744
626.88	17.101
627.07	16.825
627.26	15.962
627.45	16.470
627.64	16.639
627.83	15.068
628.02	16.336
628.20	15.436
628.39	16.540
628.58	15.813
628.77	16.637
628.96	15.287
629.15	16.497
629.34	16.221
629.53	15.636
629.72	14.991
629.91	16.811
630.10	15.592
630.29	16.017
630.47	15.547
630.66	15.296
630.85	16.068
631.04	15.971
631.23	16.561
631.42	16.708
631.61	15.459
631.80	15.496
631.99	15.567
632.18	15.392
632.36	14.599
632.55	16.729
632.74	14.532
632.93	15.110
633.12	15.054
633.31	15.804
633.50	16.060
633.69	15.661
633.88	14.211
634.06	15.377
634.25	14.801
634.44	14.690
634.63	15.363
634.82	16.043
635.01	14.509
635.20	15.263
635.39	14.442
635.57	15.290
635.76	15.169
635.95	15.489
636.14	14.299
636.33	15.310
636.52	15.437
636.71	14.442
636.89	14.478
637.08	15.484
637.27	14.646
637.46	14.718
637.65	14.882
637.84	15.264
638.03	14.591
638.21	15.644
638.40	14.927
638.59	14.941
638.78	14.533
638.97	15.362
639.16	14.735
639.34	15.777
639.53	13.180
639.72	15.240
639.91	14.399
640.10	14.556
640.29	15.365
640.47	15.381
640.66	15.473
640.85	16.798
641.04	14.065
641.23	15.768
641.42	14.134
641.60	14.101
641.79	13.933
641.98	15.127
642.17	13.629
642.36	14.998
642.54	13.481
642.73	14.714
642.92	14.513
643.11	14.710
643.30	13.639
643.49	14.612
643.67	13.849
643.86	14.631
644.05	13.295
644.24	14.617
644.43	14.020
644.61	15.318
644.80	14.408
644.99	14.997
645.18	15.975
645.37	15.621
645.55	14.052
645.74	13.836
645.93	14.673
646.12	14.623
646.31	14.551
646.49	14.793
646.68	14.352
646.87	13.844
647.06	13.980
647.24	15.173
647.43	13.084
647.62	15.299
647.81	12.832
648.00	14.327
648.18	13.658
648.37	13.635
648.56	14.782
648.75	13.995
648.93	14.167
649.12	14.440
649.31	12.819
649.50	14.701
649.68	14.378
649.87	14.415
650.06	12.882
650.25	13.816
650.43	14.944
650.62	13.839
650.81	12.997
651.00	14.046
651.18	12.911
651.37	14.643
651.56	12.205
651.75	15.232
651.93	12.916
652.12	14.730
652.31	12.754
652.50	13.611
652.68	13.141
652.87	15.209
653.06	12.884
653.25	14.391
653.43	14.050
653.62	14.271
653.81	12.690
654.00	14.855
654.18	12.353
654.37	14.244
654.56	12.401
654.74	12.465
654.93	13.355
655.12	13.321
655.31	12.259
655.49	14.641
655.68	11.674
655.87	11.753
656.05	10.333
656.24	11.800
656.43	10.765
656.62	12.409
656.80	12.535
656.99	12.082
657.18	11.044
657.36	12.092
657.55	12.253
657.74	11.288
657.93	10.661
658.11	12.595
658.30	12.430
658.49	10.717
658.67	11.937
658.86	10.294
659.05	11.778
659.23	11.481
659.42	10.760
659.61	11.618
659.79	10.349
659.98	10.992
660.17	11.668
660.35	10.283
660.54	11.124
660.73	12.528
660.91	10.746
661.10	10.490
661.29	9.710
661.47	9.664
661.66	10.135
661.85	10.355
662.03	10.542
662.22	8.507
662.41	9.686
662.59	9.905
662.78	9.104
662.97	9.267
663.15	9.135
663.34	8.637
663.53	8.462
663.71	8.610
663.90	9.108
664.09	11.063
664.27	9.194
664.46	9.049
664.65	8.794
664.83	8.915
665.02	8.387
665.21	8.208
665.39	5.963
665.58	9.073
665.77	8.166
665.95	8.662
666.14	7.630
666.32	7.918
666.51	8.644
666.70	7.352
666.88	9.007
667.07	8.535
667.26	7.978
667.44	8.658
667.63	8.523
667.81	6.950
668.00	7.890
668.19	9.029
668.37	8.390
668.56	9.822
668.75	6.983
668.93	9.398
669.12	7.530
669.30	8.633
669.49	6.877
669.68	9.230
669.86	8.356
670.05	8.741
670.23	7.941
670.42	8.275
670.61	8.344
670.79	8.627
670.98	8.370
671.16	9.002
671.35	8.445
671.54	8.854
671.72	8.592
671.91	9.370
672.09	7.463
672.28	9.848
672.46	10.032
672.65	9.206
672.84	10.336
673.02	9.912
673.21	7.864
673.39	10.311
673.58	10.213
673.77	9.401
673.95	9.058
674.14	10.609
674.32	8.314
674.51	10.943
674.69	9.388
674.88	10.434
675.07	9.265
675.25	14.266
675.44	10.346
675.62	11.348
675.81	9.443
675.99	14.797
676.18	12.175
676.36	10.616
676.55	8.505
676.74	12.521
676.92	12.592
677.11	10.436
677.29	10.372
677.48	12.861
677.66	13.165
677.85	11.862
678.03	11.707
678.22	12.670
678.40	11.612
678.59	11.317
678.78	10.376
678.96	10.636
679.15	10.544
679.33	14.216
679.52	12.068
679.70	12.250
679.89	12.351
680.07	11.650
680.26	10.571
680.44	11.950
680.63	11.886
680.81	11.635
681.00	9.541
681.18	11.794
681.37	11.429
681.55	12.453
681.74	12.923
681.92	11.666
682.11	13.184
682.29	11.389
682.48	10.851
682.66	13.186
682.85	12.444
683.03	12.066
683.22	13.428
683.40	14.183
683.59	14.726
683.77	14.144
683.96	11.552
684.14	15.153
684.33	10.883
684.51	17.554
684.70	13.954
684.88	17.167
685.07	13.197
685.25	15.575
685.44	14.119
685.62	14.885
685.81	13.322
685.99	15.476
686.18	13.522
686.36	15.165
686.55	12.507
686.73	15.001
686.92	15.536
687.10	16.375
687.29	17.039
687.47	17.400
687.65	17.227
687.84	17.407
688.02	17.198
688.21	18.880
688.39	15.483
688.58	19.099
688.76	16.310
688.95	17.279
689.13	15.118
689.32	19.804
689.50	17.882
689.68	20.242
689.87	18.619
690.05	20.314
690.24	19.897
690.42	20.889
690.61	21.378
690.79	22.023
690.98	21.603
691.16	21.585
691.34	19.489
691.53	22.798
691.71	21.385
691.90	24.830
692.08	21.319
692.27	24.010
692.45	24.451
692.63	24.758
692.82	26.439
693.00	25.983
693.19	23.799
693.37	27.180
693.56	25.480
693.74	30.291
693.92	28.086
694.11	30.037
694.29	29.579
694.48	31.382
694.66	30.378
694.84	31.596
695.03	29.174
695.21	33.570
695.40	33.259
695.58	34.365
695.76	32.734
695.95	36.619
696.13	32.870
696.32	35.223
696.50	37.279
696.68	36.743
696.87	34.250
697.05	37.634
697.24	38.011
697.42	38.636
697.60	38.929
697.79	40.199
697.97	39.959
698.16	40.296
698.34	37.874
698.52	38.861
698.71	40.115
698.89	39.561
699.07	39.407
699.26	40.794
699.44	39.374
699.63	41.725
699.81	41.504
699.99	42.206
700.18	43.024
700.36	42.729
700.54	42.632
700.73	45.148
700.91	45.209
701.09	45.191
701.28	45.951
701.46	48.106
701.64	47.179
701.83	47.332
702.01	47.717
702.20	49.814
702.38	49.019
702.56	49.714
702.75	49.437
702.93	52.905
703.11	51.201
703.30	52.457
703.48	53.978
703.66	55.359
703.85	54.167
704.03	55.381
704.21	53.253
704.40	57.480
704.58	55.842
704.76	56.766
704.95	56.424
705.13	56.800
705.31	57.263
705.50	58.949
705.68	58.584
705.86	58.337
706.04	58.618
706.23	60.346
706.41	60.032
706.59	59.215
706.78	59.336
706.96	59.377
707.14	59.395
707.33	59.409
707.51	58.747
707.69	59.094
707.88	61.144
708.06	60.605
708.24	61.485
708.42	61.604
708.61	63.079
708.79	62.583
708.97	62.707
709.16	59.671
709.34	64.844
709.52	60.964
709.71	62.733
709.89	62.112
710.07	61.945
710.25	62.432
710.44	65.664
710.62	63.821
710.80	62.377
710.98	65.047
711.17	64.299
711.35	65.030
711.53	63.388
711.72	62.393
711.90	64.066
712.08	63.676
712.26	62.176
712.45	64.094
712.63	64.022
712.81	64.125
712.99	65.518
713.18	64.134
713.36	65.887
713.54	63.868
713.72	62.953
713.91	66.296
714.09	64.012
714.27	68.281
714.45	67.451
714.64	64.732
714.82	64.737
715.00	67.478
715.18	64.366
715.37	65.850
715.55	66.799
715.73	66.917
715.91	64.570
716.10	64.814
716.28	64.642
716.46	64.711
716.64	66.529
716.83	66.565
717.01	64.313
717.19	68.355
717.37	64.338
717.55	65.322
717.74	65.488
717.92	66.006
718.10	66.215
718.28	64.960
718.47	66.693
718.65	67.168
718.83	66.353
719.01	68.037
719.19	65.434
719.38	66.377
719.56	68.090
719.74	68.346
719.92	66.856
720.10	70.323
720.29	68.854
720.47	68.976
720.65	71.578
720.83	71.489
721.01	66.860
721.20	70.233
721.38	72.107
721.56	72.811
721.74	73.452
721.92	72.495
722.11	72.270
722.29	72.046
722.47	72.120
722.65	70.666
722.83	75.353
723.01	70.424
723.20	73.858
723.38	74.935
723.56	70.908
723.74	73.683
723.92	71.590
724.10	73.669
724.29	71.366
724.47	72.382
724.65	74.431
724.83	74.453
725.01	71.490
725.19	70.893
725.38	71.854
725.56	76.225
725.74	74.014
725.92	74.524
726.10	73.639
726.28	72.807
726.46	76.821
726.65	73.761
726.83	73.338
727.01	72.716
727.19	73.110
727.37	71.866
727.55	75.293
727.73	70.764
727.92	76.505
728.10	72.316
728.28	71.258
728.46	74.094
728.64	72.467
728.82	75.552
729.00	72.227
729.19	72.181
729.37	75.035
729.55	72.750
729.73	71.193
729.91	73.521
730.09	68.866
730.27	74.665
730.45	71.787
730.63	72.034
730.82	72.655
731.00	75.539
731.18	74.354
731.36	72.721
731.54	72.993
731.72	74.542
731.90	75.859
732.08	74.482
732.26	73.422
732.45	74.780
732.63	76.150
732.81	74.436
732.99	73.238
733.17	76.352
733.35	74.457
733.53	75.690
733.71	73.421
733.89	75.522
734.07	75.288
734.25	75.056
734.44	75.194
734.62	77.629
734.80	72.877
734.98	78.281
735.16	75.848
735.34	76.819
735.52	75.394
735.70	77.036
735.88	79.280
736.06	78.832
736.24	80.032
736.42	80.834
736.60	79.001
736.78	80.893
736.97	81.471
737.15	79.292
737.33	79.837
737.51	80.681
737.69	83.683
737.87	82.535
738.05	80.737
738.23	81.652
738.41	79.618
738.59	80.326
738.77	79.154
738.95	82.292
739.13	79.815
739.31	81.464
739.49	86.990
739.67	81.511
739.85	80.869
740.03	82.682
740.21	83.013
740.39	81.843
740.57	82.897
740.75	81.992
740.93	79.645
741.11	83.832
741.30	81.985
741.48	84.697
741.66	84.099
741.84	85.041
742.02	80.332
742.20	84.174
742.38	80.655
742.56	82.950
742.74	81.560
742.92	87.405
743.10	84.816
743.28	89.275
743.46	84.549
743.64	86.209
743.82	82.777
744.00	86.833
744.18	84.982
744.36	82.890
744.54	85.180
744.72	85.265
744.90	90.473
745.08	88.476
745.26	86.185
745.44	86.117
745.62	84.920
745.80	85.040
745.98	86.444
746.16	89.086
746.34	84.718
746.52	84.211
746.70	84.602
746.87	87.440
747.05	91.791
747.23	89.506
747.41	87.875
747.59	86.964
747.77	85.374
747.95	84.947
748.13	87.207
748.31	90.193
748.49	86.784
748.67	87.144
748.85	85.529
749.03	89.254
749.21	86.414
749.39	85.930
749.57	85.270
749.75	84.915
749.93	87.818
750.11	83.859
750.29	84.918
750.47	86.949
750.65	90.555
750.83	83.556
751.01	78.557
751.18	88.231
751.36	83.510
751.54	90.459
751.72	89.142
751.90	85.220
752.08	85.273
752.26	90.044
752.44	85.848
752.62	86.294
752.80	89.542
752.98	87.557
753.16	87.075
753.34	83.523
753.52	86.540
753.69	89.038
753.87	85.660
754.05	84.153
754.23	83.803
754.41	87.681
754.59	87.073
754.77	86.016
754.95	83.690
755.13	89.831
755.31	86.765
755.49	86.468
755.66	86.472
755.84	85.684
756.02	85.187
756.20	86.907
756.38	86.484
756.56	88.453
756.74	91.035
756.92	84.175
757.10	85.989
757.28	89.134
757.45	92.152
757.63	87.420
757.81	88.007
757.99	91.370
758.17	88.531
758.35	88.600
758.53	88.079
758.71	83.838
758.88	80.181
759.06	86.439
759.24	79.116
759.42	78.987
759.60	72.040
759.78	76.850
759.96	76.144
760.13	73.592
760.31	67.878
760.49	71.536
760.67	67.830
760.85	69.571
761.03	66.576
761.21	65.190
761.38	66.769
761.56	69.647
761.74	66.451
761.92	71.601
762.10	68.733
762.28	70.330
762.46	70.120
762.63	69.658
762.81	73.037
762.99	69.173
763.17	67.824
763.35	66.994
763.53	67.323
763.70	66.024
763.88	68.629
764.06	65.014
764.24	65.506
764.42	67.810
764.60	67.495
764.77	66.784
764.95	68.174
765.13	68.453
765.31	67.423
765.49	66.527
765.66	68.013
765.84	71.021
766.02	71.961
766.20	77.327
766.38	74.013
766.56	73.867
766.73	72.877
766.91	75.464
767.09	76.654
767.27	80.099
767.45	80.636
767.62	80.384
767.80	82.044
767.98	82.802
768.16	78.904
768.33	86.282
768.51	81.236
768.69	81.064
768.87	86.322
769.05	84.498
769.22	82.106
769.40	89.371
769.58	89.642
769.76	93.259
769.94	84.471
770.11	86.586
770.29	86.807
770.47	89.715
770.65	86.364
770.82	89.345
771.00	86.830
771.18	89.429
771.36	88.969
771.53	88.468
771.71	83.592
771.89	89.432
772.07	87.069
772.25	90.727
772.42	87.558
772.60	87.592
772.78	94.405
772.96	89.494
773.13	91.743
773.31	92.418
773.49	87.380
773.67	85.808
773.84	90.239
774.02	92.230
774.20	86.856
774.37	94.456
774.55	88.895
774.73	90.631
774.91	93.264
775.08	92.045
775.26	101.275
775.44	89.995
775.62	94.645
775.79	94.181
775.97	92.273
776.15	91.401
776.32	87.474
776.50	91.644
776.68	91.520
776.86	93.956
777.03	91.753
777.21	94.765
777.39	89.819
777.56	98.951
777.74	85.914
777.92	89.894
778.10	94.121
778.27	98.678
778.45	90.302
778.63	88.472
778.80	93.861
778.98	93.981
779.16	95.300
779.34	89.897
779.51	91.602
779.69	89.825
779.87	87.287
780.04	91.616
780.22	91.443
780.40	93.552
780.57	94.239
780.75	95.690
780.93	90.487
781.10	90.521
781.28	93.855
781.46	93.772
781.63	93.982
781.81	92.682
781.99	88.578
782.16	93.629
782.34	89.770
782.52	94.410
782.69	91.708
782.87	94.796
783.05	89.031
783.22	96.411
783.40	93.374
783.58	95.875
783.75	93.646
783.93	95.584
784.11	93.685
784.28	98.123
784.46	90.346
784.64	96.178
784.81	89.189
784.99	100.564
785.17	90.674
785.34	90.299
785.52	92.732
785.69	91.582
785.87	93.258
786.05	93.470
786.22	84.176
786.40	100.400
786.58	87.600
786.75	94.145
786.93	94.922
787.11	89.438
787.28	90.306
787.46	95.075
787.63	93.186
787.81	85.984
787.99	88.961
788.16	87.774
788.34	89.230
788.51	87.984
788.69	82.625
788.87	82.915
789.04	86.949
789.22	89.471
789.39	88.310
789.57	80.358
789.75	78.119
789.92	84.123
790.10	83.240
790.27	84.916
790.45	81.982
790.63	86.524
790.80	88.724
790.98	82.439
791.15	85.925
791.33	85.388
791.51	91.493
791.68	85.400
791.86	84.698
792.03	94.155
792.21	82.208
792.39	86.722
792.56	82.833
792.74	87.207
792.91	87.992
793.09	81.338
793.26	76.883
793.44	94.212
793.62	85.839
793.79	92.800
793.97	86.653
794.14	94.880
794.32	82.759
794.49	86.221
794.67	89.182
794.84	86.401
795.02	84.929
795.20	87.431
795.37	85.859
795.55	89.012
795.72	89.198
795.90	89.905
796.07	86.971
796.25	84.113
796.42	86.667
796.60	86.662
796.77	83.486
796.95	86.258
797.13	80.228
797.30	86.251
797.48	80.326
797.65	83.228
797.83	77.904
798.00	81.607
798.18	80.179
798.35	91.237
798.53	83.696
798.70	88.047
798.88	87.918
799.05	84.872
799.23	85.988
799.40	83.078
799.58	79.515
799.75	83.168
799.93	82.406
800.10	89.167
800.28	78.343
800.45	86.475
800.63	77.518
800.80	90.498
800.98	90.786
801.15	87.244
801.33	87.147
801.50	82.967
801.68	83.597
801.85	86.458
802.03	79.356
802.20	93.589
802.38	80.730
802.55	84.170
802.73	75.935
802.90	84.903
803.08	83.578
803.25	93.546
803.43	89.638
803.60	83.102
803.78	81.295
803.95	85.498
804.13	84.694
804.30	78.136
804.48	76.580
804.65	80.614
804.83	92.879
805.00	83.357
805.17	86.469
805.35	89.512
805.52	83.108
805.70	84.345
805.87	87.909
806.05	87.147
806.22	79.305
806.40	80.996
806.57	80.578
806.75	86.314
806.92	88.696
807.09	81.889
807.27	91.905
807.44	90.086
807.62	79.461
807.79	86.797
807.97	81.295
808.14	84.941
808.31	80.279
808.49	86.768
808.66	76.488
808.84	85.393
809.01	82.334
809.19	82.034
809.36	85.737
809.53	79.472
809.71	86.454
809.88	89.774
810.06	89.097
810.23	86.497
810.41	85.418
810.58	93.259
810.75	86.482
810.93	84.170
811.10	84.730
811.28	92.110
811.45	82.005
811.62	83.638
811.80	85.701
811.97	84.709
812.15	91.132
812.32	79.153
812.49	86.169
812.67	79.417
812.84	85.585
813.02	88.475
813.19	78.788
813.36	80.444
813.54	74.196
813.71	80.136
813.89	83.142
814.06	83.419
814.23	77.151
814.41	78.737
814.58	77.787
814.75	74.978
814.93	84.093
815.10	82.254
815.28	82.066
815.45	80.962
815.62	73.649
815.80	70.645
815.97	70.659
816.14	81.747
816.32	78.317
816.49	68.561
816.66	69.424
816.84	76.633
817.01	83.160
817.18	71.554
817.36	70.540
817.53	79.838
817.71	59.845
817.88	76.487
818.05	73.929
818.23	74.977
818.40	61.855
818.57	72.686
818.75	70.266
818.92	71.396
819.09	72.254
819.27	75.504
819.44	74.796
819.61	67.614
819.79	71.440
819.96	74.203
820.13	70.178
820.31	69.347
820.48	72.022
820.65	67.322
820.82	65.299
821.00	70.640
821.17	64.038
821.34	66.948
821.52	65.155
821.69	64.916
821.86	63.270
822.04	62.485
822.21	62.282
822.38	59.590
822.56	60.049
822.73	61.015
822.90	59.925
823.07	60.023
823.25	59.562
823.42	57.093
823.59	59.916
823.77	60.005
823.94	60.426
824.11	60.285
824.29	60.614
824.46	62.833
824.63	62.730
824.80	64.081
824.98	64.045
825.15	61.490
825.32	62.706
825.49	64.321
825.67	63.690
825.84	67.083
826.01	61.676
826.19	66.647
826.36	66.212
826.53	71.476
826.70	66.071
826.88	63.630
827.05	62.345
827.22	66.186
827.39	63.278
827.57	63.519
827.74	59.886
827.91	62.198
828.08	61.139
828.26	62.409
828.43	60.585
828.60	64.417
828.77	59.410
828.95	64.676
829.12	60.142
829.29	59.230
829.46	64.955
829.64	63.986
829.81	60.225
829.98	70.431
830.15	64.750
830.32	71.326
830.50	63.194
830.67	72.639
830.84	63.167
831.01	64.642
831.19	61.424
831.36	69.353
831.53	64.280
831.70	78.128
831.87	65.082
832.05	75.766
832.22	77.392
832.39	65.994
832.56	74.476
832.74	73.099
832.91	66.859
833.08	71.875
833.25	68.330
833.42	63.579
833.60	61.845
833.77	61.319
833.94	61.580
834.11	59.876
834.28	61.006
834.45	65.488
834.63	60.837
834.80	66.012
834.97	61.240
835.14	58.936
835.31	60.724
835.49	63.273
835.66	64.232
835.83	61.091
836.00	66.102
836.17	63.928
836.34	60.754
836.52	62.608
836.69	70.546
836.86	65.063
837.03	65.365
837.20	73.166
837.37	66.232
837.55	67.580
837.72	70.534
837.89	73.711
838.06	74.976
838.23	83.033
838.40	75.150
838.58	75.433
838.75	71.547
838.92	72.090
839.09	85.474
839.26	78.935
839.43	82.185
839.60	86.768
839.78	89.777
839.95	78.555
840.12	74.163
840.29	85.697
840.46	72.091
840.63	84.222
840.80	75.319
840.98	80.374
841.15	78.958
841.32	63.627
841.49	65.994
841.66	79.587
841.83	71.414
842.00	72.979
842.17	87.185
842.34	72.013
842.52	78.875
842.69	82.677
842.86	79.278
843.03	101.398
843.20	90.108
843.37	84.094
843.54	83.424
843.71	87.971
843.88	91.115
844.06	104.673
844.23	102.143
844.40	94.495
844.57	103.000
844.74	100.554
844.91	110.805
845.08	109.347
845.25	113.424
845.42	100.382
845.59	106.875
845.76	92.843
845.94	134.541
846.11	108.298
846.28	134.239
846.45	107.243
846.62	109.683
846.79	102.767
846.96	97.976
847.13	99.617
847.30	103.419
847.47	92.471
847.64	97.890
847.81	122.876
847.98	115.010
848.15	125.326
848.32	142.563
848.50	116.745
848.67	90.022
848.84	117.762
849.01	105.811
849.18	125.455
849.35	122.518
849.52	103.462
849.69	104.691
849.86	140.436
850.03	110.928
850.20	112.335
850.37	132.069
850.54	115.610
850.71	127.119
850.88	117.699
851.05	115.072
851.22	131.188
851.39	95.464
851.56	93.069
851.73	145.739
851.90	133.993
852.07	107.513
852.24	100.228
852.41	101.496
852.58	117.016
852.75	115.945
852.92	105.707
853.09	120.580
853.26	108.810
853.43	124.331
853.60	136.337
853.77	107.125
853.94	96.894
854.11	149.862
854.28	133.504
854.45	92.060
854.62	100.000
854.79	136.464
854.96	111.521
855.13	120.384
855.30	113.699
855.47	146.951
855.64	109.034
855.81	95.344
855.98	112.222
856.15	135.937
856.32	137.037
856.49	116.154
856.66	115.385
856.83	108.516
857.00	104.372
857.17	144.086
857.34	93.617
857.51	115.591
857.68	125.697
857.85	126.074
858.02	133.410
858.19	137.821
858.36	117.931
858.53	121.856
858.70	112.435
858.87	143.827
859.04	116.944
859.21	113.256
859.38	114.388
859.55	136.082
859.72	115.193
859.89	129.050
860.05	132.432
860.22	152.885
860.39	131.098
860.56	117.629
860.73	108.235
860.90	108.464
861.07	123.380
861.24	103.103
861.41	126.273
861.58	111.765
861.75	100.000
861.92	120.773
862.09	123.834
862.26	102.871
862.43	106.221
862.59	129.032
862.76	127.640
862.93	155.135
863.10	113.043
863.27	120.000
863.44	107.583
863.61	114.724
863.78	121.396
863.95	117.539
864.12	94.023
864.29	114.601
864.45	116.250
864.62	106.631
864.79	108.740
864.96	119.370
865.13	96.429
865.30	122.469
865.47	96.137
865.64	117.368
865.81	110.456
865.97	98.107
866.14	110.526
866.31	106.250
866.48	117.284
866.65	96.063
866.82	126.464
866.99	130.746
867.16	114.404
867.33	137.618
867.49	138.367
867.66	90.909
867.83	121.294
868.00	104.198
868.17	90.152
868.34	119.414
868.51	92.964
868.67	132.258
868.84	118.783
869.01	130.968
869.18	108.306
869.35	92.742
869.52	111.978
869.69	126.074
869.85	103.368
870.02	110.738
870.19	137.061
870.36	126.154
870.53	106.338
870.70	119.559
870.86	120.606
871.03	130.163
871.20	113.934
871.37	112.658
871.54	104.023
871.71	95.823
871.87	99.729
872.04	105.435
872.21	117.529
872.38	118.452
872.55	106.479
872.72	92.916
872.88	98.015
873.05	99.782
873.22	147.234
873.39	109.893
873.56	119.710
873.72	101.571
873.89	121.429
874.06	105.279
874.23	95.627
874.40	108.589
874.56	120.659
874.73	87.406
874.90	100.767
875.07	102.020
875.24	113.671
875.40	79.224
875.57	112.921
875.74	106.761
875.91	97.080
876.08	106.567
876.24	117.073
876.41	109.915
876.58	114.881
876.75	118.592
876.92	122.876
877.08	100.752
877.25	105.076
877.42	80.802
877.59	109.792
877.75	129.769
877.92	98.404
878.09	111.488
878.26	106.527
878.42	114.706
878.59	108.223
878.76	80.549
878.93	110.896
879.09	89.870
879.26	79.891
879.43	102.252
879.60	102.025
879.76	79.324
879.93	80.712
880.10	77.642
880.27	69.216
880.43	75.196
880.60	63.689
880.77	61.427
880.94	62.420
881.10	53.074
881.27	56.238
881.44	48.084
881.61	61.966
881.77	59.235
881.94	55.638
882.11	50.334
882.28	50.312
882.44	52.421
882.61	55.519
882.78	51.558
882.94	61.181
883.11	51.692
883.28	52.529
883.45	54.589
883.61	59.009
883.78	52.379
883.95	57.088
884.11	57.873
884.28	56.408
>>>>>End Processed Spectral Data<<<<<
