SpectraSuite Data File
++++++++++++++++++++++++++++++++++++
Date: Wed Sep 25 03:57:20 EST 2019
User: sgrac
Dark Spectrum Present: Yes
Reference Spectrum Present: Yes
Number of Sampled Component Spectra: 1
Spectrometers: USB4E01596
Integration Time (usec): 100000 (USB4E01596)
Spectra Averaged: 3 (USB4E01596)
Boxcar Smoothing: 0 (USB4E01596)
Correct for Electrical Dark: No (USB4E01596)
Strobe/Lamp Enabled: Yes (USB4E01596)
Correct for Detector Non-linearity: No (USB4E01596)
Correct for Stray Light: No (USB4E01596)
Number of Pixels in Processed Spectrum: 3648
>>>>>Begin Processed Spectral Data<<<<<
178.44	-473.077
178.66	-473.077
178.87	-473.077
179.09	-809.375
179.30	990.323
179.52	1482.609
179.74	-971.053
179.95	-568.519
180.17	693.878
180.38	-1235.714
180.60	-2246.667
180.82	-4577.778
181.03	941.860
181.25	-3066.667
181.46	-565.278
181.68	476.923
181.89	-1096.774
182.11	11233.333
182.33	898.077
182.54	-20600.000
182.76	778.431
182.97	1050.000
183.19	1679.167
183.40	793.478
183.62	1760.000
183.84	467.857
184.05	1515.385
184.27	-2681.818
184.48	29000.000
184.70	1359.259
184.91	686.792
185.13	2671.429
185.34	667.797
185.56	457.471
185.78	1733.333
185.99	672.000
186.21	513.253
186.42	1257.143
186.64	-3233.333
186.85	958.537
187.07	-1200.000
187.28	354.167
187.50	-813.953
187.72	1809.524
187.93	1210.811
188.15	2278.571
188.36	802.083
188.58	680.000
188.79	620.313
189.01	642.623
189.22	369.892
189.44	374.528
189.65	-768.293
189.87	1446.429
190.09	359.615
190.30	350.926
190.52	-586.207
190.73	424.096
190.95	-2764.286
191.16	795.652
191.38	580.769
191.59	555.556
191.81	2344.444
192.02	-3300.000
192.24	-3272.727
192.45	556.452
192.67	-7840.000
192.88	377.907
193.10	572.059
193.31	337.705
193.53	-467.742
193.74	2509.091
193.96	-7516.667
194.18	2707.143
194.39	530.508
194.61	1361.111
194.82	501.136
195.04	281.579
195.25	558.333
195.47	-37400.000
195.68	461.538
195.90	458.889
196.11	1857.143
196.33	-395.238
196.54	1307.143
196.76	546.774
196.97	239.506
197.19	329.323
197.40	-504.000
197.62	754.167
197.83	2141.176
198.05	457.500
198.26	785.417
198.48	2258.824
198.69	-974.359
198.91	521.875
199.12	-19400.000
199.34	1031.707
199.55	1960.000
199.77	663.492
199.98	1547.619
200.20	571.429
200.41	431.818
200.63	430.488
200.84	826.667
201.06	287.975
201.27	-531.579
201.49	-5385.714
201.70	450.649
201.91	-5171.429
202.13	-2137.500
202.34	-1018.182
202.56	1763.158
202.77	1060.526
202.99	817.021
203.20	423.656
203.42	584.211
203.63	519.718
203.85	-2340.000
204.06	1622.727
204.28	-6500.000
204.49	1223.333
204.71	412.903
204.92	619.118
205.14	2362.500
205.35	1231.250
205.56	2285.714
205.78	767.273
205.99	432.927
206.21	1048.718
206.42	562.712
206.64	620.312
206.85	802.326
207.07	-826.316
207.28	515.942
207.50	994.595
207.71	1096.875
207.93	363.636
208.14	684.000
208.35	806.818
208.57	2606.667
208.78	1492.000
209.00	859.574
209.21	657.778
209.43	386.408
209.64	-3400.000
209.86	876.923
210.07	-1847.619
210.28	465.217
210.50	1742.105
210.71	274.286
210.93	484.615
211.14	421.818
211.36	-3500.000
211.57	565.278
211.78	676.000
212.00	819.149
212.21	972.973
212.43	36500.000
212.64	944.118
212.86	654.167
213.07	1278.788
213.29	-2553.333
213.50	919.355
213.71	1672.000
213.93	2066.667
214.14	361.739
214.36	234.810
214.57	636.066
214.78	715.686
215.00	491.176
215.21	2607.692
215.43	359.596
215.64	862.791
215.86	681.818
216.07	931.111
216.28	1639.130
216.50	411.111
216.71	584.483
216.93	815.789
217.14	382.883
217.35	1230.769
217.57	284.677
217.78	1805.263
218.00	475.581
218.21	1650.000
218.42	10333.333
218.64	310.084
218.85	900.000
219.07	680.328
219.28	348.246
219.49	1118.182
219.71	432.432
219.92	1660.000
220.14	2006.250
220.35	503.030
220.56	205.806
220.78	6240.000
220.99	493.902
221.21	270.339
221.42	878.049
221.63	575.000
221.85	854.348
222.06	311.966
222.28	778.947
222.49	905.000
222.70	303.670
222.92	477.528
223.13	456.818
223.34	342.520
223.56	468.116
223.77	525.397
223.99	1484.615
224.20	282.517
224.41	320.492
224.63	309.016
224.84	477.465
225.05	438.462
225.27	393.506
225.48	408.491
225.69	223.810
225.91	771.154
226.12	295.522
226.34	231.724
226.55	278.261
226.76	236.571
226.98	198.305
227.19	186.782
227.40	177.477
227.62	136.032
227.83	132.740
228.04	134.812
228.26	94.236
228.47	95.141
228.69	71.178
228.90	78.936
229.11	68.932
229.33	66.719
229.54	42.877
229.75	41.038
229.97	42.165
230.18	40.237
230.39	38.665
230.61	39.936
230.82	48.131
231.03	33.733
231.25	51.578
231.46	47.874
231.67	48.745
231.89	47.242
232.10	57.238
232.31	51.724
232.53	66.532
232.74	51.942
232.95	65.619
233.17	67.961
233.38	64.286
233.59	70.379
233.81	76.726
234.02	72.957
234.23	62.598
234.45	78.555
234.66	65.318
234.87	83.305
235.09	68.885
235.30	62.817
235.51	58.228
235.73	57.002
235.94	51.138
236.15	58.756
236.36	52.605
236.58	52.941
236.79	42.656
237.00	60.937
237.22	53.927
237.43	56.662
237.64	54.025
237.86	61.162
238.07	51.128
238.28	52.181
238.50	55.194
238.71	53.216
238.92	59.259
239.13	61.335
239.35	67.311
239.56	46.505
239.77	63.683
239.99	52.570
240.20	56.485
240.41	43.506
240.63	48.267
240.84	44.432
241.05	38.521
241.26	40.337
241.48	31.640
241.69	35.622
241.90	24.197
242.12	22.988
242.33	26.356
242.54	23.455
242.75	20.032
242.97	23.802
243.18	16.301
243.39	16.453
243.61	20.945
243.82	17.883
244.03	16.667
244.24	17.260
244.46	19.926
244.67	17.880
244.88	19.894
245.09	19.881
245.31	22.740
245.52	23.873
245.73	23.863
245.95	40.405
246.16	23.219
246.37	21.583
246.58	20.747
246.80	19.806
247.01	15.469
247.22	13.433
247.43	12.281
247.65	12.669
247.86	12.860
248.07	9.726
248.28	12.617
248.50	10.073
248.71	11.470
248.92	10.616
249.13	10.601
249.35	11.209
249.56	13.632
249.77	12.325
249.98	11.279
250.20	18.356
250.41	16.363
250.62	17.509
250.83	19.872
251.05	19.458
251.26	18.902
251.47	19.830
251.68	25.533
251.90	19.783
252.11	22.324
252.32	20.185
252.53	19.726
252.75	14.616
252.96	19.581
253.17	20.250
253.38	19.102
253.59	18.269
253.81	18.551
254.02	15.742
254.23	19.776
254.44	20.200
254.66	19.279
254.87	26.524
255.08	21.869
255.29	25.969
255.50	29.037
255.72	25.414
255.93	25.405
256.14	26.249
256.35	23.652
256.57	26.871
256.78	27.870
256.99	26.767
257.20	27.055
257.41	24.072
257.63	26.453
257.84	22.893
258.05	21.985
258.26	18.883
258.47	21.664
258.69	15.125
258.90	18.500
259.11	19.399
259.32	14.014
259.53	13.949
259.75	13.053
259.96	10.871
260.17	9.258
260.38	9.208
260.59	8.952
260.81	7.679
261.02	6.662
261.23	7.053
261.44	9.272
261.65	7.856
261.87	7.054
262.08	7.967
262.29	12.410
262.50	9.039
262.71	9.098
262.92	12.696
263.14	11.848
263.35	10.666
263.56	15.553
263.77	15.922
263.98	12.375
264.20	14.351
264.41	16.252
264.62	15.927
264.83	15.591
265.04	21.319
265.25	14.253
265.47	19.465
265.68	18.753
265.89	16.258
266.10	18.051
266.31	17.931
266.52	15.961
266.74	17.425
266.95	14.420
267.16	14.142
267.37	15.709
267.58	11.908
267.79	12.939
268.01	11.634
268.22	12.179
268.43	13.693
268.64	15.421
268.85	11.902
269.06	7.545
269.27	13.650
269.49	12.842
269.70	12.315
269.91	9.233
270.12	13.689
270.33	13.602
270.54	12.598
270.75	14.243
270.97	12.314
271.18	11.471
271.39	12.779
271.60	13.289
271.81	9.626
272.02	10.227
272.23	11.832
272.45	10.151
272.66	9.315
272.87	8.651
273.08	9.814
273.29	8.675
273.50	8.573
273.71	9.344
273.92	8.907
274.14	8.528
274.35	10.944
274.56	11.405
274.77	10.122
274.98	10.418
275.19	9.246
275.40	11.806
275.61	9.551
275.83	14.236
276.04	12.213
276.25	11.420
276.46	12.411
276.67	13.793
276.88	12.383
277.09	10.296
277.30	12.875
277.51	12.649
277.73	9.182
277.94	10.451
278.15	11.684
278.36	15.302
278.57	10.699
278.78	12.166
278.99	10.324
279.20	12.967
279.41	14.679
279.62	11.321
279.84	11.958
280.05	10.327
280.26	9.433
280.47	10.220
280.68	10.597
280.89	12.753
281.10	11.714
281.31	11.095
281.52	10.483
281.73	10.270
281.94	9.858
282.16	11.847
282.37	9.604
282.58	10.303
282.79	11.980
283.00	11.106
283.21	7.944
283.42	9.414
283.63	8.898
283.84	8.543
284.05	9.023
284.26	10.352
284.47	8.184
284.68	9.102
284.89	9.854
285.11	9.285
285.32	7.836
285.53	7.662
285.74	8.289
285.95	8.641
286.16	7.394
286.37	9.212
286.58	8.931
286.79	8.009
287.00	7.639
287.21	8.056
287.42	8.280
287.63	6.791
287.84	6.786
288.05	9.256
288.26	7.856
288.48	9.179
288.69	6.984
288.90	9.400
289.11	9.357
289.32	9.302
289.53	7.882
289.74	6.721
289.95	7.677
290.16	8.624
290.37	7.400
290.58	8.233
290.79	10.224
291.00	7.738
291.21	8.002
291.42	7.920
291.63	6.672
291.84	9.389
292.05	8.755
292.26	8.723
292.47	8.696
292.68	8.266
292.89	9.479
293.10	9.792
293.31	8.347
293.52	8.510
293.73	9.421
293.94	9.941
294.15	9.192
294.36	9.903
294.57	9.289
294.79	9.823
295.00	8.677
295.21	9.120
295.42	9.076
295.63	9.764
295.84	7.815
296.05	6.729
296.26	7.829
296.47	8.259
296.68	6.887
296.89	8.767
297.10	7.188
297.31	7.379
297.52	7.357
297.73	6.148
297.94	5.082
298.15	6.119
298.36	6.782
298.57	5.242
298.78	7.547
298.99	6.132
299.20	6.371
299.41	7.201
299.62	6.728
299.83	5.634
300.04	8.228
300.25	8.598
300.46	8.259
300.67	7.686
300.88	8.490
301.09	6.302
301.30	8.467
301.50	8.320
301.71	8.941
301.92	11.049
302.13	7.898
302.34	9.013
302.55	9.434
302.76	8.454
302.97	6.865
303.18	10.408
303.39	7.610
303.60	9.181
303.81	10.860
304.02	7.291
304.23	8.219
304.44	7.154
304.65	9.897
304.86	7.939
305.07	8.103
305.28	8.886
305.49	10.719
305.70	8.272
305.91	6.568
306.12	9.459
306.33	7.569
306.54	8.460
306.75	9.406
306.96	11.303
307.17	8.451
307.38	9.725
307.58	8.667
307.79	9.317
308.00	8.543
308.21	10.022
308.42	8.064
308.63	10.497
308.84	8.660
309.05	7.284
309.26	7.712
309.47	8.198
309.68	8.936
309.89	6.700
310.10	5.258
310.31	6.977
310.52	6.197
310.73	7.981
310.94	7.312
311.14	6.690
311.35	7.132
311.56	7.363
311.77	7.063
311.98	6.609
312.19	5.119
312.40	6.616
312.61	6.604
312.82	7.400
313.03	6.080
313.24	8.172
313.45	6.379
313.66	7.683
313.86	8.619
314.07	6.492
314.28	7.265
314.49	8.245
314.70	7.601
314.91	9.424
315.12	8.379
315.33	7.916
315.54	9.168
315.75	8.914
315.96	7.447
316.16	9.024
316.37	8.587
316.58	7.218
316.79	8.884
317.00	10.370
317.21	10.211
317.42	8.377
317.63	8.791
317.84	9.559
318.05	8.363
318.25	11.468
318.46	8.753
318.67	9.296
318.88	10.019
319.09	9.417
319.30	8.456
319.51	8.946
319.72	8.424
319.93	6.894
320.13	8.511
320.34	8.363
320.55	9.011
320.76	10.684
320.97	8.922
321.18	11.548
321.39	8.965
321.60	8.594
321.80	11.209
322.01	10.645
322.22	8.588
322.43	7.374
322.64	9.694
322.85	9.089
323.06	9.778
323.27	8.824
323.47	10.818
323.68	10.315
323.89	8.839
324.10	8.778
324.31	7.757
324.52	8.639
324.73	7.442
324.93	7.825
325.14	8.753
325.35	7.729
325.56	7.432
325.77	9.639
325.98	6.686
326.19	8.210
326.39	5.688
326.60	8.384
326.81	5.882
327.02	6.913
327.23	7.823
327.44	9.567
327.64	6.521
327.85	6.431
328.06	7.647
328.27	9.031
328.48	8.593
328.69	7.666
328.90	7.451
329.10	9.575
329.31	9.040
329.52	9.025
329.73	8.852
329.94	7.408
330.15	8.248
330.35	10.261
330.56	10.021
330.77	8.690
330.98	9.815
331.19	7.492
331.39	9.564
331.60	9.354
331.81	9.888
332.02	9.138
332.23	8.751
332.44	7.893
332.64	8.105
332.85	8.466
333.06	10.060
333.27	7.386
333.48	8.808
333.68	8.473
333.89	7.053
334.10	9.308
334.31	9.019
334.52	8.544
334.72	8.760
334.93	6.794
335.14	6.752
335.35	9.661
335.56	9.636
335.76	7.704
335.97	10.330
336.18	7.535
336.39	11.055
336.60	9.470
336.80	8.461
337.01	8.437
337.22	10.315
337.43	10.241
337.64	11.162
337.84	11.934
338.05	10.803
338.26	12.598
338.47	12.719
338.68	8.957
338.88	10.608
339.09	10.551
339.30	10.585
339.51	12.361
339.71	13.885
339.92	10.755
340.13	12.857
340.34	11.728
340.55	12.713
340.75	13.071
340.96	11.193
341.17	13.034
341.38	11.462
341.58	12.730
341.79	14.674
342.00	12.217
342.21	13.807
342.41	11.327
342.62	13.733
342.83	16.283
343.04	11.107
343.24	14.196
343.45	16.368
343.66	13.781
343.87	15.642
344.07	13.334
344.28	16.181
344.49	15.964
344.70	18.720
344.90	15.061
345.11	14.234
345.32	14.903
345.53	17.159
345.73	16.657
345.94	19.531
346.15	19.933
346.36	17.322
346.56	18.202
346.77	19.887
346.98	18.900
347.19	20.281
347.39	18.835
347.60	19.674
347.81	19.938
348.02	20.212
348.22	17.503
348.43	20.681
348.64	17.508
348.84	19.476
349.05	19.480
349.26	21.807
349.47	18.859
349.67	18.207
349.88	21.506
350.09	21.464
350.30	23.754
350.50	19.318
350.71	21.238
350.92	22.859
351.12	21.331
351.33	22.270
351.54	21.258
351.74	24.009
351.95	19.584
352.16	22.028
352.37	23.684
352.57	20.961
352.78	20.209
352.99	22.736
353.19	22.507
353.40	23.259
353.61	24.277
353.82	23.695
354.02	21.903
354.23	23.912
354.44	25.579
354.64	21.520
354.85	24.101
355.06	23.311
355.26	21.231
355.47	23.107
355.68	23.887
355.88	24.852
356.09	22.797
356.30	21.298
356.51	23.523
356.71	22.648
356.92	20.639
357.13	24.041
357.33	24.324
357.54	24.339
357.75	20.201
357.95	23.793
358.16	22.493
358.37	26.205
358.57	21.420
358.78	25.287
358.99	22.862
359.19	23.705
359.40	23.858
359.61	23.235
359.81	25.209
360.02	25.502
360.23	21.105
360.43	23.215
360.64	22.301
360.85	22.474
361.05	21.284
361.26	25.541
361.47	20.892
361.67	24.357
361.88	21.330
362.09	22.687
362.29	20.726
362.50	22.527
362.70	20.233
362.91	23.742
363.12	21.876
363.32	22.111
363.53	23.139
363.74	24.219
363.94	21.923
364.15	24.848
364.36	23.896
364.56	22.563
364.77	22.706
364.98	24.092
365.18	22.109
365.39	24.729
365.59	20.953
365.80	22.581
366.01	22.797
366.21	22.344
366.42	19.903
366.63	23.329
366.83	21.417
367.04	19.430
367.24	23.804
367.45	21.728
367.66	20.597
367.86	22.273
368.07	20.915
368.28	21.151
368.48	20.675
368.69	20.368
368.89	21.372
369.10	21.559
369.31	21.017
369.51	21.417
369.72	23.179
369.92	23.548
370.13	18.368
370.34	22.107
370.54	18.809
370.75	22.647
370.95	19.011
371.16	20.444
371.37	20.032
371.57	19.839
371.78	19.555
371.98	22.159
372.19	20.730
372.40	21.070
372.60	21.444
372.81	21.105
373.01	18.806
373.22	20.357
373.43	21.138
373.63	21.927
373.84	19.396
374.04	21.057
374.25	20.311
374.46	21.137
374.66	20.155
374.87	21.461
375.07	17.901
375.28	18.461
375.48	19.723
375.69	21.254
375.90	17.345
376.10	18.269
376.31	18.350
376.51	18.442
376.72	18.514
376.92	18.376
377.13	19.219
377.34	20.237
377.54	18.301
377.75	20.149
377.95	17.853
378.16	20.355
378.36	18.490
378.57	19.866
378.77	18.837
378.98	19.216
379.19	18.831
379.39	17.980
379.60	19.005
379.80	20.433
380.01	19.270
380.21	18.852
380.42	18.247
380.62	18.664
380.83	19.577
381.04	18.213
381.24	19.107
381.45	18.249
381.65	17.059
381.86	19.159
382.06	19.112
382.27	16.860
382.47	17.758
382.68	18.747
382.88	17.213
383.09	17.631
383.29	17.058
383.50	19.276
383.71	17.392
383.91	18.395
384.12	17.329
384.32	19.709
384.53	16.948
384.73	16.612
384.94	16.715
385.14	16.898
385.35	16.050
385.55	18.163
385.76	16.825
385.96	16.965
386.17	17.445
386.37	18.372
386.58	17.602
386.78	17.835
386.99	15.640
387.19	18.301
387.40	15.781
387.60	18.443
387.81	17.054
388.01	16.849
388.22	18.046
388.42	18.789
388.63	17.432
388.83	18.612
389.04	15.872
389.24	17.307
389.45	16.973
389.65	16.292
389.86	16.334
390.06	16.804
390.27	16.272
390.47	17.440
390.68	16.389
390.88	18.119
391.09	17.276
391.29	17.592
391.50	16.660
391.70	17.156
391.91	16.925
392.11	16.820
392.32	16.965
392.52	17.580
392.73	16.434
392.93	17.110
393.14	16.639
393.34	16.813
393.55	16.560
393.75	16.811
393.95	16.324
394.16	17.837
394.36	16.630
394.57	17.352
394.77	16.016
394.98	17.284
395.18	16.585
395.39	16.786
395.59	16.580
395.80	16.898
396.00	16.262
396.21	16.755
396.41	16.551
396.61	17.813
396.82	16.778
397.02	18.305
397.23	16.395
397.43	16.584
397.64	14.998
397.84	17.958
398.05	14.635
398.25	17.001
398.45	16.009
398.66	17.511
398.86	16.068
399.07	18.228
399.27	15.906
399.48	16.120
399.68	15.749
399.89	16.072
400.09	16.667
400.29	15.780
400.50	16.072
400.70	16.590
400.91	15.563
401.11	16.329
401.32	15.582
401.52	15.182
401.72	15.394
401.93	16.951
402.13	15.872
402.34	16.200
402.54	14.725
402.75	17.782
402.95	14.806
403.15	16.962
403.36	14.647
403.56	16.739
403.77	14.570
403.97	15.588
404.17	14.756
404.38	15.704
404.58	13.819
404.79	15.746
404.99	15.182
405.19	15.811
405.40	15.146
405.60	15.088
405.81	14.445
406.01	15.066
406.21	14.724
406.42	15.905
406.62	15.065
406.83	15.236
407.03	15.596
407.23	15.129
407.44	14.872
407.64	15.785
407.85	15.164
408.05	15.516
408.25	14.551
408.46	15.731
408.66	15.504
408.87	14.711
409.07	14.677
409.27	14.593
409.48	14.295
409.68	14.843
409.88	13.682
410.09	14.969
410.29	14.804
410.50	16.071
410.70	13.995
410.90	14.624
411.11	13.679
411.31	14.518
411.51	14.469
411.72	15.577
411.92	13.800
412.12	14.259
412.33	13.731
412.53	14.553
412.74	13.150
412.94	14.946
413.14	14.324
413.35	14.473
413.55	13.750
413.75	15.257
413.96	13.466
414.16	13.863
414.36	13.675
414.57	14.467
414.77	13.020
414.97	15.235
415.18	14.685
415.38	14.032
415.58	14.142
415.79	13.456
415.99	13.768
416.19	13.978
416.40	13.570
416.60	13.701
416.80	13.567
417.01	13.737
417.21	13.034
417.41	14.307
417.62	13.704
417.82	14.427
418.02	13.232
418.23	13.685
418.43	13.368
418.63	14.116
418.84	14.170
419.04	13.814
419.24	13.893
419.45	14.028
419.65	13.921
419.85	14.180
420.06	13.951
420.26	13.906
420.46	13.501
420.67	14.462
420.87	13.814
421.07	13.602
421.28	13.668
421.48	13.837
421.68	13.920
421.88	13.754
422.09	13.713
422.29	13.778
422.49	13.516
422.70	13.657
422.90	13.851
423.10	13.813
423.31	14.261
423.51	14.072
423.71	13.549
423.91	13.953
424.12	13.699
424.32	13.454
424.52	13.506
424.73	13.421
424.93	13.428
425.13	13.767
425.33	13.227
425.54	13.720
425.74	13.820
425.94	13.956
426.15	13.452
426.35	13.903
426.55	14.097
426.75	14.541
426.96	13.818
427.16	13.954
427.36	13.928
427.57	14.086
427.77	13.412
427.97	13.728
428.17	13.462
428.38	14.380
428.58	12.778
428.78	14.458
428.98	13.186
429.19	13.598
429.39	12.582
429.59	13.672
429.79	12.725
430.00	12.940
430.20	12.241
430.40	13.598
430.60	11.976
430.81	13.176
431.01	12.535
431.21	13.494
431.41	13.037
431.62	13.422
431.82	12.876
432.02	13.717
432.22	13.111
432.43	12.422
432.63	12.228
432.83	13.336
433.03	12.464
433.24	12.844
433.44	12.571
433.64	13.168
433.84	12.828
434.05	13.042
434.25	12.741
434.45	13.457
434.65	13.068
434.85	13.224
435.06	13.064
435.26	13.057
435.46	13.363
435.66	13.319
435.87	12.939
436.07	13.357
436.27	12.899
436.47	13.224
436.67	12.103
436.88	13.725
437.08	13.266
437.28	13.296
437.48	12.984
437.69	13.051
437.89	12.854
438.09	13.205
438.29	12.362
438.49	13.142
438.70	12.995
438.90	12.592
439.10	12.264
439.30	13.236
439.50	12.250
439.71	13.162
439.91	12.628
440.11	13.265
440.31	12.926
440.51	12.913
440.72	12.146
440.92	12.711
441.12	12.975
441.32	12.975
441.52	13.243
441.72	12.806
441.93	13.067
442.13	13.315
442.33	13.247
442.53	13.340
442.73	13.119
442.94	13.114
443.14	13.096
443.34	13.473
443.54	12.799
443.74	13.392
443.94	12.763
444.15	12.742
444.35	12.796
444.55	13.047
444.75	12.733
444.95	13.023
445.15	12.440
445.36	12.951
445.56	12.160
445.76	13.256
445.96	12.377
446.16	12.729
446.36	12.585
446.57	12.993
446.77	12.349
446.97	12.737
447.17	12.922
447.37	12.661
447.57	12.786
447.77	12.804
447.98	12.659
448.18	13.214
448.38	12.729
448.58	13.285
448.78	13.476
448.98	13.338
449.18	12.713
449.39	13.062
449.59	12.856
449.79	13.222
449.99	13.025
450.19	13.657
450.39	13.475
450.59	13.242
450.79	12.865
451.00	13.679
451.20	14.008
451.40	13.222
451.60	12.695
451.80	13.104
452.00	12.633
452.20	12.944
452.40	12.404
452.61	12.823
452.81	12.349
453.01	12.855
453.21	12.550
453.41	13.091
453.61	12.712
453.81	12.752
454.01	13.048
454.21	12.973
454.42	13.145
454.62	13.345
454.82	12.236
455.02	13.114
455.22	12.927
455.42	13.013
455.62	12.919
455.82	12.770
456.02	12.467
456.23	12.497
456.43	12.799
456.63	12.926
456.83	12.455
457.03	12.893
457.23	12.327
457.43	13.118
457.63	12.147
457.83	12.848
458.03	12.184
458.23	12.433
458.43	12.241
458.64	12.139
458.84	11.702
459.04	12.837
459.24	12.122
459.44	12.594
459.64	12.286
459.84	12.552
460.04	11.854
460.24	12.426
460.44	12.491
460.64	12.538
460.84	12.305
461.04	12.748
461.24	12.843
461.45	13.031
461.65	12.967
461.85	12.989
462.05	12.865
462.25	12.820
462.45	12.882
462.65	13.411
462.85	12.461
463.05	12.982
463.25	12.218
463.45	12.897
463.65	12.337
463.85	12.371
464.05	12.191
464.25	12.274
464.45	12.628
464.65	12.433
464.85	12.369
465.05	12.651
465.26	12.380
465.46	12.623
465.66	12.618
465.86	12.566
466.06	12.080
466.26	12.432
466.46	11.857
466.66	12.834
466.86	12.188
467.06	12.113
467.26	12.090
467.46	12.697
467.66	12.010
467.86	12.168
468.06	12.386
468.26	12.506
468.46	12.657
468.66	12.746
468.86	12.367
469.06	12.508
469.26	12.012
469.46	12.666
469.66	12.826
469.86	12.804
470.06	11.867
470.26	12.709
470.46	11.942
470.66	13.084
470.86	11.813
471.06	12.163
471.26	11.641
471.46	12.621
471.66	12.315
471.86	12.421
472.06	12.328
472.26	13.100
472.46	13.014
472.66	12.019
472.86	11.914
473.06	12.553
473.26	12.692
473.46	12.635
473.66	12.018
473.86	12.248
474.06	12.068
474.26	12.147
474.46	11.775
474.66	12.638
474.86	12.389
475.06	12.531
475.26	12.302
475.46	12.322
475.66	11.978
475.86	12.381
476.06	12.964
476.26	12.557
476.46	12.010
476.66	12.247
476.86	11.998
477.06	12.464
477.26	12.005
477.46	12.515
477.65	12.045
477.85	12.951
478.05	12.023
478.25	12.897
478.45	12.030
478.65	12.577
478.85	12.456
479.05	12.732
479.25	12.265
479.45	12.851
479.65	12.078
479.85	12.841
480.05	12.490
480.25	12.481
480.45	12.383
480.65	13.102
480.85	12.537
481.05	12.541
481.25	12.223
481.44	12.687
481.64	12.295
481.84	12.747
482.04	12.656
482.24	12.392
482.44	12.116
482.64	12.197
482.84	12.060
483.04	12.108
483.24	12.117
483.44	11.821
483.64	11.609
483.84	11.647
484.04	11.810
484.23	12.312
484.43	12.297
484.63	12.816
484.83	13.227
485.03	13.590
485.23	13.357
485.43	13.312
485.63	13.218
485.83	13.478
486.03	13.379
486.23	13.679
486.42	13.349
486.62	13.049
486.82	12.807
487.02	12.698
487.22	12.424
487.42	12.487
487.62	12.614
487.82	12.468
488.02	12.469
488.22	12.550
488.41	12.708
488.61	12.744
488.81	12.908
489.01	12.990
489.21	12.940
489.41	13.273
489.61	13.268
489.81	13.260
490.01	13.242
490.20	13.388
490.40	13.432
490.60	13.232
490.80	12.879
491.00	12.688
491.20	12.617
491.40	12.348
491.60	12.495
491.79	12.504
491.99	12.557
492.19	12.636
492.39	12.722
492.59	12.824
492.79	12.645
492.99	12.964
493.19	13.014
493.38	13.374
493.58	13.524
493.78	13.613
493.98	13.915
494.18	13.310
494.38	13.659
494.58	13.487
494.77	13.204
494.97	13.249
495.17	13.038
495.37	12.766
495.57	13.002
495.77	13.069
495.96	13.134
496.16	13.264
496.36	12.807
496.56	12.702
496.76	12.648
496.96	13.128
497.15	12.995
497.35	13.292
497.55	12.713
497.75	13.376
497.95	12.986
498.15	13.115
498.34	12.934
498.54	13.213
498.74	13.759
498.94	13.441
499.14	13.535
499.34	13.246
499.53	13.568
499.73	13.443
499.93	13.534
500.13	13.208
500.33	13.006
500.52	13.312
500.72	13.516
500.92	12.926
501.12	13.516
501.32	13.554
501.52	13.300
501.71	13.367
501.91	13.173
502.11	13.629
502.31	13.384
502.51	13.713
502.70	12.960
502.90	13.448
503.10	13.760
503.30	13.385
503.50	13.208
503.69	13.413
503.89	13.336
504.09	13.803
504.29	13.061
504.48	13.496
504.68	13.788
504.88	13.641
505.08	13.633
505.28	13.925
505.47	13.568
505.67	13.849
505.87	13.472
506.07	13.808
506.27	13.138
506.46	14.089
506.66	13.520
506.86	13.906
507.06	13.914
507.25	13.681
507.45	13.390
507.65	13.560
507.85	13.786
508.04	13.734
508.24	14.011
508.44	13.487
508.64	13.413
508.83	13.909
509.03	13.793
509.23	13.403
509.43	13.614
509.63	13.647
509.82	13.813
510.02	13.989
510.22	13.913
510.42	14.094
510.61	13.960
510.81	14.048
511.01	13.307
511.21	13.956
511.40	13.838
511.60	14.229
511.80	14.235
511.99	13.955
512.19	13.822
512.39	14.299
512.59	13.726
512.78	14.467
512.98	14.146
513.18	14.227
513.38	14.119
513.57	14.024
513.77	14.004
513.97	14.134
514.17	14.242
514.36	14.141
514.56	14.513
514.76	14.627
514.95	14.353
515.15	14.572
515.35	14.027
515.55	14.113
515.74	14.299
515.94	14.527
516.14	14.439
516.33	14.115
516.53	14.395
516.73	14.220
516.93	14.181
517.12	14.338
517.32	14.098
517.52	14.434
517.71	14.128
517.91	14.208
518.11	14.405
518.30	13.870
518.50	13.939
518.70	13.918
518.90	13.995
519.09	14.122
519.29	14.228
519.49	14.603
519.68	14.252
519.88	14.515
520.08	14.397
520.27	14.570
520.47	14.511
520.67	15.083
520.86	15.119
521.06	15.037
521.26	14.856
521.45	14.690
521.65	14.728
521.85	14.890
522.04	14.567
522.24	14.467
522.44	14.657
522.63	14.770
522.83	14.637
523.03	14.873
523.22	14.828
523.42	14.885
523.62	14.910
523.81	14.643
524.01	14.724
524.21	14.725
524.40	14.473
524.60	14.764
524.80	14.552
524.99	14.442
525.19	14.255
525.39	14.181
525.58	14.340
525.78	14.558
525.98	14.534
526.17	14.485
526.37	14.711
526.57	14.314
526.76	14.999
526.96	14.720
527.15	14.868
527.35	14.572
527.55	14.814
527.74	14.903
527.94	14.421
528.14	14.517
528.33	14.133
528.53	14.165
528.72	14.421
528.92	14.376
529.12	14.805
529.31	14.832
529.51	14.998
529.71	15.085
529.90	15.338
530.10	15.272
530.29	15.408
530.49	15.618
530.69	15.963
530.88	15.784
531.08	15.604
531.28	15.651
531.47	15.328
531.67	15.408
531.86	15.229
532.06	15.306
532.26	15.124
532.45	15.131
532.65	15.261
532.84	14.919
533.04	14.638
533.24	14.713
533.43	14.891
533.63	15.360
533.82	15.313
534.02	15.473
534.22	15.329
534.41	15.534
534.61	15.715
534.80	15.670
535.00	15.410
535.19	15.978
535.39	16.162
535.59	15.972
535.78	15.898
535.98	15.664
536.17	15.716
536.37	15.381
536.57	15.412
536.76	15.361
536.96	15.478
537.15	15.934
537.35	15.557
537.54	15.707
537.74	16.095
537.93	15.805
538.13	15.944
538.33	15.879
538.52	16.119
538.72	16.437
538.91	16.437
539.11	16.451
539.30	16.225
539.50	16.185
539.70	16.374
539.89	16.260
540.09	15.571
540.28	16.110
540.48	15.657
540.67	15.976
540.87	15.633
541.06	15.250
541.26	15.554
541.45	15.565
541.65	15.918
541.85	16.058
542.04	15.982
542.24	16.175
542.43	16.156
542.63	16.454
542.82	16.329
543.02	16.557
543.21	16.632
543.41	16.928
543.60	17.044
543.80	17.216
543.99	17.075
544.19	16.863
544.38	17.067
544.58	16.998
544.77	16.731
544.97	17.179
545.16	16.990
545.36	17.075
545.56	17.081
545.75	17.162
545.95	17.240
546.14	17.228
546.34	17.010
546.53	17.106
546.73	17.190
546.92	17.419
547.12	16.842
547.31	17.274
547.51	17.454
547.70	17.534
547.90	17.866
548.09	17.698
548.29	17.617
548.48	17.890
548.68	17.996
548.87	18.339
549.07	18.275
549.26	18.309
549.46	18.211
549.65	18.385
549.84	18.291
550.04	18.360
550.23	18.191
550.43	18.292
550.62	18.366
550.82	18.384
551.01	18.345
551.21	18.583
551.40	18.842
551.60	18.756
551.79	18.755
551.99	18.886
552.18	18.928
552.38	19.156
552.57	19.021
552.77	18.979
552.96	18.785
553.16	19.170
553.35	18.946
553.54	19.524
553.74	19.370
553.93	18.952
554.13	19.560
554.32	19.469
554.52	19.480
554.71	20.288
554.91	20.127
555.10	19.967
555.29	20.355
555.49	20.142
555.68	20.230
555.88	20.045
556.07	19.625
556.27	20.200
556.46	20.378
556.66	19.897
556.85	20.308
557.04	20.617
557.24	20.324
557.43	21.311
557.63	21.005
557.82	20.617
558.02	20.875
558.21	21.437
558.40	20.870
558.60	21.267
558.79	20.873
558.99	21.629
559.18	21.627
559.38	22.261
559.57	21.095
559.76	20.981
559.96	22.723
560.15	21.707
560.35	21.659
560.54	21.946
560.73	21.544
560.93	21.946
561.12	22.484
561.32	22.668
561.51	22.630
561.70	22.723
561.90	22.491
562.09	23.253
562.29	22.838
562.48	22.731
562.67	23.028
562.87	22.880
563.06	22.953
563.26	23.240
563.45	23.229
563.64	23.932
563.84	23.686
564.03	23.457
564.23	23.640
564.42	23.637
564.61	23.646
564.81	23.625
565.00	23.618
565.20	23.441
565.39	23.460
565.58	23.363
565.78	23.831
565.97	23.582
566.16	24.183
566.36	24.763
566.55	24.172
566.74	24.598
566.94	24.600
567.13	24.875
567.33	24.466
567.52	24.789
567.71	25.261
567.91	25.321
568.10	25.193
568.29	25.308
568.49	25.181
568.68	25.650
568.87	25.341
569.07	25.881
569.26	25.306
569.45	25.198
569.65	25.526
569.84	25.471
570.04	25.706
570.23	25.820
570.42	25.658
570.62	25.695
570.81	25.608
571.00	25.858
571.20	26.061
571.39	25.695
571.58	25.893
571.78	25.881
571.97	25.849
572.16	25.687
572.36	25.929
572.55	26.308
572.74	26.173
572.94	25.920
573.13	26.434
573.32	26.040
573.51	25.672
573.71	26.558
573.90	26.331
574.09	26.456
574.29	26.745
574.48	26.228
574.67	26.814
574.87	26.577
575.06	25.868
575.25	26.470
575.45	26.597
575.64	26.839
575.83	26.342
576.03	27.728
576.22	27.472
576.41	26.304
576.60	26.764
576.80	27.184
576.99	27.521
577.18	26.838
577.38	27.065
577.57	26.935
577.76	26.895
577.95	27.355
578.15	26.902
578.34	27.392
578.53	27.216
578.73	27.339
578.92	26.966
579.11	27.359
579.30	27.922
579.50	27.509
579.69	26.720
579.88	27.749
580.08	27.680
580.27	27.287
580.46	27.036
580.65	27.321
580.85	26.783
581.04	27.295
581.23	27.117
581.42	27.084
581.62	26.845
581.81	27.340
582.00	27.770
582.19	26.458
582.39	27.099
582.58	27.727
582.77	26.624
582.96	27.606
583.16	26.431
583.35	27.034
583.54	27.302
583.73	27.131
583.93	26.686
584.12	27.058
584.31	27.268
584.50	26.566
584.70	28.059
584.89	26.987
585.08	27.123
585.27	27.411
585.47	26.244
585.66	27.122
585.85	26.611
586.04	26.680
586.24	26.894
586.43	27.098
586.62	27.127
586.81	26.963
587.00	27.423
587.20	27.189
587.39	26.462
587.58	26.203
587.77	26.789
587.97	26.364
588.16	26.664
588.35	26.183
588.54	27.158
588.73	26.967
588.93	26.159
589.12	26.826
589.31	26.218
589.50	25.684
589.69	27.155
589.89	26.373
590.08	25.650
590.27	26.324
590.46	26.340
590.65	27.053
590.85	26.293
591.04	26.427
591.23	26.672
591.42	26.945
591.61	26.106
591.81	27.095
592.00	26.852
592.19	26.694
592.38	27.082
592.57	26.797
592.77	26.861
592.96	26.846
593.15	27.130
593.34	26.587
593.53	26.945
593.72	26.599
593.92	26.144
594.11	26.492
594.30	26.009
594.49	26.679
594.68	26.894
594.87	26.997
595.07	26.604
595.26	26.468
595.45	27.139
595.64	26.837
595.83	27.101
596.02	26.996
596.22	27.073
596.41	26.852
596.60	26.887
596.79	26.592
596.98	26.601
597.17	26.909
597.37	26.630
597.56	26.960
597.75	26.756
597.94	27.438
598.13	26.901
598.32	27.231
598.51	26.864
598.71	28.004
598.90	27.232
599.09	28.101
599.28	27.988
599.47	27.024
599.66	28.382
599.85	28.568
600.05	27.978
600.24	28.280
600.43	28.718
600.62	28.446
600.81	28.085
601.00	28.458
601.19	28.412
601.38	28.141
601.58	28.554
601.77	28.114
601.96	28.094
602.15	28.077
602.34	28.096
602.53	28.602
602.72	27.866
602.91	27.966
603.10	27.408
603.30	28.030
603.49	28.441
603.68	28.239
603.87	27.899
604.06	27.537
604.25	28.358
604.44	27.989
604.63	28.157
604.82	27.948
605.01	28.370
605.21	28.427
605.40	28.249
605.59	28.023
605.78	27.695
605.97	27.771
606.16	28.479
606.35	28.549
606.54	29.095
606.73	28.123
606.92	28.480
607.11	28.472
607.30	28.198
607.50	28.468
607.69	27.930
607.88	28.919
608.07	28.496
608.26	28.269
608.45	28.105
608.64	27.988
608.83	27.854
609.02	28.026
609.21	28.120
609.40	27.738
609.59	28.276
609.78	27.958
609.97	27.617
610.16	27.927
610.35	27.305
610.55	27.753
610.74	27.992
610.93	27.453
611.12	27.105
611.31	27.734
611.50	27.401
611.69	27.766
611.88	27.541
612.07	28.322
612.26	27.088
612.45	27.303
612.64	27.091
612.83	27.642
613.02	27.293
613.21	27.362
613.40	27.246
613.59	28.776
613.78	26.709
613.97	27.518
614.16	26.947
614.35	27.916
614.54	26.017
614.73	26.629
614.92	27.191
615.11	26.809
615.30	27.854
615.49	26.636
615.68	26.553
615.87	26.824
616.07	25.579
616.26	26.555
616.45	26.631
616.64	26.046
616.83	26.650
617.02	26.381
617.21	25.647
617.40	26.257
617.59	25.645
617.78	26.569
617.97	25.195
618.16	26.208
618.35	24.606
618.54	25.672
618.73	25.802
618.92	26.125
619.11	25.234
619.30	25.836
619.49	24.702
619.68	25.923
619.86	24.969
620.05	25.862
620.24	25.018
620.43	25.732
620.62	24.431
620.81	25.500
621.00	25.507
621.19	25.690
621.38	25.174
621.57	26.346
621.76	25.043
621.95	25.869
622.14	24.866
622.33	25.617
622.52	24.895
622.71	25.295
622.90	24.475
623.09	24.643
623.28	24.679
623.47	24.916
623.66	24.469
623.85	25.312
624.04	23.597
624.23	24.858
624.42	24.278
624.61	25.359
624.80	24.465
624.99	24.374
625.18	24.341
625.36	25.159
625.55	24.757
625.74	24.682
625.93	24.693
626.12	24.257
626.31	24.168
626.50	24.036
626.69	24.093
626.88	24.498
627.07	24.015
627.26	24.114
627.45	24.520
627.64	24.312
627.83	23.795
628.02	24.238
628.20	24.147
628.39	24.373
628.58	24.692
628.77	25.092
628.96	23.836
629.15	23.845
629.34	24.354
629.53	24.376
629.72	24.056
629.91	24.595
630.10	23.924
630.29	24.469
630.47	23.473
630.66	23.806
630.85	23.893
631.04	24.376
631.23	24.439
631.42	23.454
631.61	23.509
631.80	24.336
631.99	23.808
632.18	23.720
632.36	23.712
632.55	24.515
632.74	23.135
632.93	22.527
633.12	23.537
633.31	23.586
633.50	23.116
633.69	23.070
633.88	23.225
634.06	24.199
634.25	23.012
634.44	23.830
634.63	24.261
634.82	23.832
635.01	23.455
635.20	23.724
635.39	23.039
635.57	23.258
635.76	23.563
635.95	23.775
636.14	23.362
636.33	23.272
636.52	23.477
636.71	23.768
636.89	23.701
637.08	23.622
637.27	23.369
637.46	23.642
637.65	23.468
637.84	23.262
638.03	22.500
638.21	22.951
638.40	23.217
638.59	23.741
638.78	23.363
638.97	24.472
639.16	22.546
639.34	23.554
639.53	23.026
639.72	23.517
639.91	23.003
640.10	23.323
640.29	23.529
640.47	23.889
640.66	23.178
640.85	24.000
641.04	22.370
641.23	23.467
641.42	21.810
641.60	23.366
641.79	23.631
641.98	23.277
642.17	22.748
642.36	22.863
642.54	22.323
642.73	22.698
642.92	22.379
643.11	23.167
643.30	22.901
643.49	23.349
643.67	20.884
643.86	23.462
644.05	22.376
644.24	23.155
644.43	22.623
644.61	22.326
644.80	22.487
644.99	23.023
645.18	22.838
645.37	23.454
645.55	22.239
645.74	22.427
645.93	23.264
646.12	23.116
646.31	21.943
646.49	23.138
646.68	22.694
646.87	22.276
647.06	22.072
647.24	23.176
647.43	22.015
647.62	24.402
647.81	22.088
648.00	23.558
648.18	21.397
648.37	23.311
648.56	22.048
648.75	23.098
648.93	21.523
649.12	22.222
649.31	22.079
649.50	23.155
649.68	22.020
649.87	22.774
650.06	21.628
650.25	22.744
650.43	21.414
650.62	22.868
650.81	21.336
651.00	23.202
651.18	22.400
651.37	22.755
651.56	20.729
651.75	22.584
651.93	21.529
652.12	22.037
652.31	21.414
652.50	22.514
652.68	22.201
652.87	22.724
653.06	21.969
653.25	21.946
653.43	22.678
653.62	22.860
653.81	21.544
654.00	22.040
654.18	22.579
654.37	22.894
654.56	21.166
654.74	21.025
654.93	20.623
655.12	21.094
655.31	21.349
655.49	21.088
655.68	19.428
655.87	21.164
656.05	19.806
656.24	21.085
656.43	18.503
656.62	20.239
656.80	20.559
656.99	19.439
657.18	18.885
657.36	20.100
657.55	18.393
657.74	20.217
657.93	19.815
658.11	20.233
658.30	19.622
658.49	18.328
658.67	18.267
658.86	18.698
659.05	18.354
659.23	18.705
659.42	17.900
659.61	18.693
659.79	17.985
659.98	19.687
660.17	18.889
660.35	19.592
660.54	18.536
660.73	19.367
660.91	18.751
661.10	18.438
661.29	16.281
661.47	17.683
661.66	17.887
661.85	18.156
662.03	17.127
662.22	16.904
662.41	15.817
662.59	16.640
662.78	15.081
662.97	15.601
663.15	14.583
663.34	15.900
663.53	14.660
663.71	15.920
663.90	14.855
664.09	16.373
664.27	15.324
664.46	14.877
664.65	14.363
664.83	14.795
665.02	13.592
665.21	12.655
665.39	13.055
665.58	14.546
665.77	13.055
665.95	15.250
666.14	13.350
666.32	14.564
666.51	13.261
666.70	13.040
666.88	13.120
667.07	13.188
667.26	12.450
667.44	12.437
667.63	12.718
667.81	12.706
668.00	13.260
668.19	15.115
668.37	12.304
668.56	14.803
668.75	11.021
668.93	14.024
669.12	11.800
669.30	12.995
669.49	12.479
669.68	12.736
669.86	13.111
670.05	12.588
670.23	10.628
670.42	12.880
670.61	12.866
670.79	13.371
670.98	10.917
671.16	13.507
671.35	11.022
671.54	13.236
671.72	11.057
671.91	12.904
672.09	10.740
672.28	13.243
672.46	13.051
672.65	13.184
672.84	14.037
673.02	13.298
673.21	10.776
673.39	13.398
673.58	12.518
673.77	13.936
673.95	12.514
674.14	14.233
674.32	12.239
674.51	14.615
674.69	12.878
674.88	14.018
675.07	12.812
675.25	14.527
675.44	12.997
675.62	12.900
675.81	12.065
675.99	16.476
676.18	13.194
676.36	12.983
676.55	11.942
676.74	15.240
676.92	14.302
677.11	12.824
677.29	12.395
677.48	14.833
677.66	14.361
677.85	14.621
678.03	14.013
678.22	15.109
678.40	13.504
678.59	13.731
678.78	12.665
678.96	13.713
679.15	12.668
679.33	16.391
679.52	15.371
679.70	14.521
679.89	14.900
680.07	15.748
680.26	13.947
680.44	15.034
680.63	15.490
680.81	15.288
681.00	12.977
681.18	14.260
681.37	14.851
681.55	16.122
681.74	16.181
681.92	16.832
682.11	15.866
682.29	15.656
682.48	14.877
682.66	16.400
682.85	15.184
683.03	16.879
683.22	16.850
683.40	17.781
683.59	16.125
683.77	17.629
683.96	14.828
684.14	17.980
684.33	14.187
684.51	19.570
684.70	15.955
684.88	20.190
685.07	17.473
685.25	18.762
685.44	15.894
685.62	18.871
685.81	17.443
685.99	19.060
686.18	17.773
686.36	19.245
686.55	17.084
686.73	21.137
686.92	19.568
687.10	21.329
687.29	20.724
687.47	21.033
687.65	21.350
687.84	20.045
688.02	23.600
688.21	23.378
688.39	19.449
688.58	23.477
688.76	22.060
688.95	21.875
689.13	22.290
689.32	24.194
689.50	23.059
689.68	24.229
689.87	23.103
690.05	24.237
690.24	25.151
690.42	24.932
690.61	25.671
690.79	25.274
690.98	25.956
691.16	26.571
691.34	25.221
691.53	28.485
691.71	26.930
691.90	28.283
692.08	25.764
692.27	31.572
692.45	30.856
692.63	29.797
692.82	30.603
693.00	30.359
693.19	28.173
693.37	32.002
693.56	31.078
693.74	33.028
693.92	31.428
694.11	33.363
694.29	32.558
694.48	35.431
694.66	33.541
694.84	35.058
695.03	33.474
695.21	36.778
695.40	36.209
695.58	37.926
695.76	37.031
695.95	38.797
696.13	37.121
696.32	38.150
696.50	41.389
696.68	40.162
696.87	38.086
697.05	39.532
697.24	40.207
697.42	41.143
697.60	38.935
697.79	41.227
697.97	39.368
698.16	40.636
698.34	40.651
698.52	42.561
698.71	41.513
698.89	42.052
699.07	42.477
699.26	42.789
699.44	42.637
699.63	42.951
699.81	43.104
699.99	42.642
700.18	43.018
700.36	43.907
700.54	43.570
700.73	44.187
700.91	45.134
701.09	44.069
701.28	45.926
701.46	46.541
701.64	45.428
701.83	46.574
702.01	46.172
702.20	47.444
702.38	47.909
702.56	47.337
702.75	49.955
702.93	48.679
703.11	47.371
703.30	49.342
703.48	49.920
703.66	49.870
703.85	49.502
704.03	53.077
704.21	51.990
704.40	51.322
704.58	51.721
704.76	53.291
704.95	52.545
705.13	55.241
705.31	51.136
705.50	53.471
705.68	52.734
705.86	52.510
706.04	52.521
706.23	52.762
706.41	54.373
706.59	53.239
706.78	51.229
706.96	53.680
707.14	52.354
707.33	54.987
707.51	54.637
707.69	52.357
707.88	52.793
708.06	55.048
708.24	54.015
708.42	52.956
708.61	53.924
708.79	55.697
708.97	55.134
709.16	56.443
709.34	57.584
709.52	55.877
709.71	53.156
709.89	56.518
710.07	51.590
710.25	56.932
710.44	54.309
710.62	56.068
710.80	54.705
710.98	56.911
711.17	54.599
711.35	54.705
711.53	53.813
711.72	56.032
711.90	56.286
712.08	57.433
712.26	53.751
712.45	54.347
712.63	55.809
712.81	57.470
712.99	57.861
713.18	56.297
713.36	56.315
713.54	57.760
713.72	54.863
713.91	57.703
714.09	55.513
714.27	55.747
714.45	56.498
714.64	58.060
714.82	55.982
715.00	57.847
715.18	57.083
715.37	55.794
715.55	56.563
715.73	56.907
715.91	57.001
716.10	56.744
716.28	56.523
716.46	55.425
716.64	56.263
716.83	57.674
717.01	55.620
717.19	55.860
717.37	56.404
717.55	56.046
717.74	55.972
717.92	54.535
718.10	55.513
718.28	58.444
718.47	55.286
718.65	58.367
718.83	58.336
719.01	57.073
719.19	57.892
719.38	55.889
719.56	58.929
719.74	58.400
719.92	57.741
720.10	56.479
720.29	57.350
720.47	58.706
720.65	59.742
720.83	59.368
721.01	58.203
721.20	58.465
721.38	59.716
721.56	60.606
721.74	59.562
721.92	60.260
722.11	60.246
722.29	59.617
722.47	61.723
722.65	62.297
722.83	62.381
723.01	63.598
723.20	57.984
723.38	62.678
723.56	60.715
723.74	61.418
723.92	61.333
724.10	59.200
724.29	57.133
724.47	60.605
724.65	62.560
724.83	63.274
725.01	60.943
725.19	59.787
725.38	58.561
725.56	60.707
725.74	60.412
725.92	62.386
726.10	60.664
726.28	60.448
726.46	61.822
726.65	61.302
726.83	60.896
727.01	58.984
727.19	64.480
727.37	60.233
727.55	59.928
727.73	59.926
727.92	61.301
728.10	62.941
728.28	60.645
728.46	61.094
728.64	62.682
728.82	62.278
729.00	60.555
729.19	60.900
729.37	60.613
729.55	61.229
729.73	59.506
729.91	59.164
730.09	58.900
730.27	60.214
730.45	58.119
730.63	61.790
730.82	60.096
731.00	63.053
731.18	60.674
731.36	60.083
731.54	62.140
731.72	61.633
731.90	61.683
732.08	59.666
732.26	59.793
732.45	64.727
732.63	62.027
732.81	59.847
732.99	62.246
733.17	61.143
733.35	60.997
733.53	60.890
733.71	61.950
733.89	61.842
734.07	61.125
734.25	63.649
734.44	60.793
734.62	60.597
734.80	60.306
734.98	62.582
735.16	63.192
735.34	66.015
735.52	65.885
735.70	65.163
735.88	64.491
736.06	63.860
736.24	65.626
736.42	64.671
736.60	66.397
736.78	65.970
736.97	65.249
737.15	66.919
737.33	64.206
737.51	63.309
737.69	65.289
737.87	65.714
738.05	65.414
738.23	65.617
738.41	66.920
738.59	67.727
738.77	64.880
738.95	66.592
739.13	67.434
739.31	64.057
739.49	66.211
739.67	65.787
739.85	65.324
740.03	67.689
740.21	67.827
740.39	64.066
740.57	65.716
740.75	67.663
740.93	64.940
741.11	66.212
741.30	67.622
741.48	65.516
741.66	66.622
741.84	69.500
742.02	66.818
742.20	66.845
742.38	66.031
742.56	69.462
742.74	67.115
742.92	66.794
743.10	64.978
743.28	70.860
743.46	67.958
743.64	70.691
743.82	69.100
744.00	71.219
744.18	67.879
744.36	67.891
744.54	68.209
744.72	67.579
744.90	73.011
745.08	72.352
745.26	68.292
745.44	71.220
745.62	65.878
745.80	69.813
745.98	69.204
746.16	70.959
746.34	68.299
746.52	71.135
746.70	70.482
746.87	71.241
747.05	68.964
747.23	72.237
747.41	68.358
747.59	71.305
747.77	70.482
747.95	71.917
748.13	71.082
748.31	74.497
748.49	69.649
748.67	67.228
748.85	68.446
749.03	68.170
749.21	70.839
749.39	71.694
749.57	66.998
749.75	72.762
749.93	71.603
750.11	68.978
750.29	69.344
750.47	71.331
750.65	69.922
750.83	69.090
751.01	69.053
751.18	69.748
751.36	67.834
751.54	72.671
751.72	73.124
751.90	68.248
752.08	67.561
752.26	69.270
752.44	71.527
752.62	70.539
752.80	73.836
752.98	71.912
753.16	71.858
753.34	71.424
753.52	69.732
753.69	70.201
753.87	73.278
754.05	72.573
754.23	68.995
754.41	69.196
754.59	68.800
754.77	67.173
754.95	70.877
755.13	70.625
755.31	67.586
755.49	72.584
755.66	71.133
755.84	69.572
756.02	71.161
756.20	70.788
756.38	68.279
756.56	73.744
756.74	69.515
756.92	71.410
757.10	72.086
757.28	76.603
757.45	71.937
757.63	69.907
757.81	71.586
757.99	74.324
758.17	70.811
758.35	70.187
758.53	67.220
758.71	67.947
758.88	64.862
759.06	69.532
759.24	66.900
759.42	67.835
759.60	64.029
759.78	64.354
759.96	60.701
760.13	61.643
760.31	58.680
760.49	57.938
760.67	57.183
760.85	57.130
761.03	54.039
761.21	55.839
761.38	53.589
761.56	58.442
761.74	55.994
761.92	61.843
762.10	53.934
762.28	57.147
762.46	55.735
762.63	57.556
762.81	54.367
762.99	57.372
763.17	55.673
763.35	56.744
763.53	56.094
763.70	54.999
763.88	58.068
764.06	55.211
764.24	55.392
764.42	55.037
764.60	54.821
764.77	57.450
764.95	56.873
765.13	56.522
765.31	57.284
765.49	57.715
765.66	57.332
765.84	58.720
766.02	56.486
766.20	61.770
766.38	60.086
766.56	59.975
766.73	60.897
766.91	60.397
767.09	66.162
767.27	64.284
767.45	63.039
767.62	61.135
767.80	62.586
767.98	65.922
768.16	63.902
768.33	68.232
768.51	66.768
768.69	65.683
768.87	70.021
769.05	67.295
769.22	65.825
769.40	68.390
769.58	69.441
769.76	70.838
769.94	70.649
770.11	67.938
770.29	72.355
770.47	74.146
770.65	72.024
770.82	74.229
771.00	71.919
771.18	70.770
771.36	73.965
771.53	70.397
771.71	71.820
771.89	73.048
772.07	69.686
772.25	74.857
772.42	74.496
772.60	76.208
772.78	75.482
772.96	75.651
773.13	73.444
773.31	74.271
773.49	73.244
773.67	73.620
773.84	72.052
774.02	78.297
774.20	78.846
774.37	73.091
774.55	70.891
774.73	77.063
774.91	74.887
775.08	75.615
775.26	75.553
775.44	76.851
775.62	71.904
775.79	77.359
775.97	74.864
776.15	72.658
776.32	73.243
776.50	76.574
776.68	78.046
776.86	76.004
777.03	71.920
777.21	74.172
777.39	77.789
777.56	74.940
777.74	74.384
777.92	73.932
778.10	68.376
778.27	75.453
778.45	77.662
778.63	76.130
778.80	77.348
778.98	80.447
779.16	75.610
779.34	75.755
779.51	71.036
779.69	76.168
779.87	77.979
780.04	75.560
780.22	72.423
780.40	77.471
780.57	77.321
780.75	75.320
780.93	83.324
781.10	75.589
781.28	79.925
781.46	69.786
781.63	70.936
781.81	76.670
781.99	75.282
782.16	71.349
782.34	74.773
782.52	76.474
782.69	78.738
782.87	80.835
783.05	80.669
783.22	73.533
783.40	77.955
783.58	81.183
783.75	75.247
783.93	82.350
784.11	75.482
784.28	73.876
784.46	76.461
784.64	81.461
784.81	75.286
784.99	82.312
785.17	75.057
785.34	78.279
785.52	73.475
785.69	79.540
785.87	77.510
786.05	79.725
786.22	73.469
786.40	80.939
786.58	78.015
786.75	74.770
786.93	77.752
787.11	78.515
787.28	73.273
787.46	73.678
787.63	79.050
787.81	74.281
787.99	76.604
788.16	74.190
788.34	69.326
788.51	77.176
788.69	73.113
788.87	74.681
789.04	69.874
789.22	73.710
789.39	69.300
789.57	72.578
789.75	63.435
789.92	71.291
790.10	70.577
790.27	69.885
790.45	68.849
790.63	75.297
790.80	66.851
790.98	71.820
791.15	70.438
791.33	70.504
791.51	66.537
791.68	72.469
791.86	73.746
792.03	76.394
792.21	67.366
792.39	73.944
792.56	73.050
792.74	74.927
792.91	71.517
793.09	71.884
793.26	70.726
793.44	80.569
793.62	70.246
793.79	75.369
793.97	73.181
794.14	72.743
794.32	75.510
794.49	79.625
794.67	63.375
794.84	74.117
795.02	72.705
795.20	76.661
795.37	69.123
795.55	81.066
795.72	77.159
795.90	72.328
796.07	69.826
796.25	71.812
796.42	71.302
796.60	75.348
796.77	75.721
796.95	71.468
797.13	74.478
797.30	73.803
797.48	66.578
797.65	73.092
797.83	69.955
798.00	71.525
798.18	65.737
798.35	74.928
798.53	69.934
798.70	68.850
798.88	65.900
799.05	71.087
799.23	71.866
799.40	71.917
799.58	72.749
799.75	72.282
799.93	66.897
800.10	71.784
800.28	79.609
800.45	70.973
800.63	72.453
800.80	67.002
800.98	71.524
801.15	70.445
801.33	74.566
801.50	71.827
801.68	68.324
801.85	73.814
802.03	70.732
802.20	70.396
802.38	73.405
802.55	69.245
802.73	75.168
802.90	73.346
803.08	71.075
803.25	70.377
803.43	73.841
803.60	77.154
803.78	70.360
803.95	74.494
804.13	67.508
804.30	76.975
804.48	72.330
804.65	72.954
804.83	70.940
805.00	70.028
805.17	76.285
805.35	71.483
805.52	66.667
805.70	73.432
805.87	78.041
806.05	72.258
806.22	68.543
806.40	68.931
806.57	76.478
806.75	80.050
806.92	73.836
807.09	77.527
807.27	73.399
807.44	71.222
807.62	68.085
807.79	68.359
807.97	71.120
808.14	75.779
808.31	62.483
808.49	70.642
808.66	73.638
808.84	66.446
809.01	75.877
809.19	72.219
809.36	73.033
809.53	75.433
809.71	67.035
809.88	79.512
810.06	77.538
810.23	75.018
810.41	76.068
810.58	75.806
810.75	71.496
810.93	74.664
811.10	66.912
811.28	71.376
811.45	68.745
811.62	74.348
811.80	71.920
811.97	75.000
812.15	72.782
812.32	78.107
812.49	63.562
812.67	77.255
812.84	71.837
813.02	75.199
813.19	66.422
813.36	80.031
813.54	70.352
813.71	70.824
813.89	73.188
814.06	74.979
814.23	64.816
814.41	62.785
814.58	67.545
814.75	74.039
814.93	70.409
815.10	70.008
815.28	62.910
815.45	69.591
815.62	70.782
815.80	68.013
815.97	62.898
816.14	68.048
816.32	70.134
816.49	62.613
816.66	65.861
816.84	64.361
817.01	69.486
817.18	68.109
817.36	63.622
817.53	66.588
817.71	55.661
817.88	69.978
818.05	59.344
818.23	69.342
818.40	62.193
818.57	70.487
818.75	68.047
818.92	65.998
819.09	63.395
819.27	71.044
819.44	63.482
819.61	62.229
819.79	57.721
819.96	63.958
820.13	59.729
820.31	65.795
820.48	65.021
820.65	63.245
820.82	57.695
821.00	61.714
821.17	54.413
821.34	61.358
821.52	61.286
821.69	58.848
821.86	58.573
822.04	57.986
822.21	55.848
822.38	55.919
822.56	54.195
822.73	52.700
822.90	51.602
823.07	52.358
823.25	51.352
823.42	52.467
823.59	50.554
823.77	50.841
823.94	49.666
824.11	49.355
824.29	49.599
824.46	50.419
824.63	49.824
824.80	51.452
824.98	50.824
825.15	51.167
825.32	50.350
825.49	52.888
825.67	52.706
825.84	55.293
826.01	53.422
826.19	56.595
826.36	50.605
826.53	56.215
826.70	53.689
826.88	55.245
827.05	54.519
827.22	53.941
827.39	51.493
827.57	55.363
827.74	50.830
827.91	54.899
828.08	54.203
828.26	53.964
828.43	52.492
828.60	53.879
828.77	51.534
828.95	51.268
829.12	50.000
829.29	48.913
829.46	49.803
829.64	52.673
829.81	47.722
829.98	55.840
830.15	55.237
830.32	57.119
830.50	54.726
830.67	59.036
830.84	50.833
831.01	53.676
831.19	54.933
831.36	60.758
831.53	64.990
831.70	64.679
831.87	59.191
832.05	66.691
832.22	61.253
832.39	58.136
832.56	61.818
832.74	59.527
832.91	62.808
833.08	60.949
833.25	54.869
833.42	62.428
833.60	58.552
833.77	53.430
833.94	54.852
834.11	57.532
834.28	53.122
834.45	51.575
834.63	51.672
834.80	50.207
834.97	50.583
835.14	52.412
835.31	53.927
835.49	50.465
835.66	51.777
835.83	51.359
836.00	49.144
836.17	54.748
836.34	52.952
836.52	49.383
836.69	55.998
836.86	55.114
837.03	52.349
837.20	53.805
837.37	52.930
837.55	52.570
837.72	63.629
837.89	59.291
838.06	70.370
838.23	69.975
838.40	70.149
838.58	66.211
838.75	67.118
838.92	72.493
839.09	75.125
839.26	72.938
839.43	69.367
839.60	82.252
839.78	81.374
839.95	74.837
840.12	68.416
840.29	78.781
840.46	77.310
840.63	70.276
840.80	66.798
840.98	80.164
841.15	72.116
841.32	66.898
841.49	60.926
841.66	72.430
841.83	73.474
842.00	65.711
842.17	66.633
842.34	67.197
842.52	75.000
842.69	71.857
842.86	71.092
843.03	87.514
843.20	75.604
843.37	75.375
843.54	77.643
843.71	82.162
843.88	73.642
844.06	97.884
844.23	81.923
844.40	76.887
844.57	87.088
844.74	88.906
844.91	77.778
845.08	94.615
845.25	98.148
845.42	114.659
845.59	77.654
845.76	100.343
845.94	94.814
846.11	107.301
846.28	101.282
846.45	124.744
846.62	121.970
846.79	102.083
846.96	99.612
847.13	113.721
847.30	106.458
847.47	84.615
847.64	106.379
847.81	103.929
847.98	116.314
848.15	101.594
848.32	120.782
848.50	98.052
848.67	98.276
848.84	107.724
849.01	100.980
849.18	124.057
849.35	115.033
849.52	119.666
849.69	111.940
849.86	121.598
850.03	96.250
850.20	107.619
850.37	95.652
850.54	114.839
850.71	106.790
850.88	125.128
851.05	100.883
851.22	115.632
851.39	130.713
851.56	114.039
851.73	134.507
851.90	130.318
852.07	97.053
852.24	107.018
852.41	119.187
852.58	106.550
852.75	106.682
852.92	93.587
853.09	114.066
853.26	111.547
853.43	121.019
853.60	123.733
853.77	110.549
853.94	106.452
854.11	129.351
854.28	114.286
854.45	116.550
854.62	105.423
854.79	111.591
854.96	112.179
855.13	115.227
855.30	110.442
855.47	136.461
855.64	105.611
855.81	125.564
855.98	115.094
856.15	107.375
856.32	100.216
856.49	115.023
856.66	115.851
856.83	96.223
857.00	111.143
857.17	120.241
857.34	123.117
857.51	136.337
857.68	105.263
857.85	118.162
858.02	118.097
858.19	124.455
858.36	114.031
858.53	124.185
858.70	97.172
858.87	119.912
859.04	105.992
859.21	108.621
859.38	130.660
859.55	165.644
859.72	112.673
859.89	110.750
860.05	113.023
860.22	121.918
860.39	120.558
860.56	137.830
860.73	111.135
860.90	154.103
861.07	133.079
861.24	102.592
861.41	134.146
861.58	113.568
861.75	134.474
861.92	160.000
862.09	121.357
862.26	118.045
862.43	136.977
862.59	120.000
862.76	114.404
862.93	122.273
863.10	120.699
863.27	105.446
863.44	113.731
863.61	119.687
863.78	79.065
863.95	145.058
864.12	110.952
864.29	109.977
864.45	124.686
864.62	107.108
864.79	105.034
864.96	115.700
865.13	122.113
865.30	110.549
865.47	110.740
865.64	118.854
865.81	103.292
865.97	103.263
866.14	134.127
866.31	121.598
866.48	121.368
866.65	104.709
866.82	114.912
866.99	153.352
867.16	118.234
867.33	150.627
867.49	98.693
867.66	150.890
867.83	120.408
868.00	103.667
868.17	148.466
868.34	133.333
868.51	103.926
868.67	114.795
868.84	122.105
869.01	148.883
869.18	137.027
869.35	108.831
869.52	87.852
869.69	120.000
869.85	118.465
870.02	100.959
870.19	115.367
870.36	136.574
870.53	117.287
870.70	120.045
870.86	125.401
871.03	124.086
871.20	125.714
871.37	132.010
871.54	116.216
871.71	112.381
871.87	100.662
872.04	104.380
872.21	104.790
872.38	108.403
872.55	133.086
872.72	123.496
872.88	119.578
873.05	85.782
873.22	121.762
873.39	99.302
873.56	112.273
873.72	109.954
873.89	112.760
874.06	121.164
874.23	91.376
874.40	115.263
874.56	143.849
874.73	109.189
874.90	108.883
875.07	135.447
875.24	103.769
875.40	100.866
875.57	111.471
875.74	110.658
875.91	104.706
876.08	112.081
876.24	108.051
876.41	150.898
876.58	98.829
876.75	93.600
876.92	110.900
877.08	107.050
877.25	128.493
877.42	109.167
877.59	103.589
877.75	124.935
877.92	91.591
878.09	94.788
878.26	110.563
878.42	107.789
878.59	113.679
878.76	96.312
878.93	128.286
879.09	92.308
879.26	82.625
879.43	103.742
879.60	108.458
879.76	120.530
879.93	91.935
880.10	90.667
880.27	102.554
880.43	80.742
880.60	81.985
880.77	70.355
880.94	72.704
881.10	70.712
881.27	55.207
881.44	52.632
881.61	54.462
881.77	51.636
881.94	41.752
882.11	43.501
882.28	41.060
882.44	40.242
882.61	45.059
882.78	46.057
882.94	52.153
883.11	46.224
883.28	44.138
883.45	46.863
883.61	45.685
883.78	45.282
883.95	45.560
884.11	45.104
884.28	43.450
>>>>>End Processed Spectral Data<<<<<
