SpectraSuite Data File
++++++++++++++++++++++++++++++++++++
Date: Thu Sep 26 03:00:56 EST 2019
User: sgrac
Dark Spectrum Present: Yes
Reference Spectrum Present: Yes
Number of Sampled Component Spectra: 1
Spectrometers: USB4E01596
Integration Time (usec): 100000 (USB4E01596)
Spectra Averaged: 3 (USB4E01596)
Boxcar Smoothing: 0 (USB4E01596)
Correct for Electrical Dark: No (USB4E01596)
Strobe/Lamp Enabled: Yes (USB4E01596)
Correct for Detector Non-linearity: No (USB4E01596)
Correct for Stray Light: No (USB4E01596)
Number of Pixels in Processed Spectrum: 3648
>>>>>Begin Processed Spectral Data<<<<<
178.44	112.500
178.66	112.500
178.87	112.500
179.09	-67.347
179.30	-0.000
179.52	-4.545
179.74	-97.222
179.95	-207.692
180.17	138.554
180.38	650.000
180.60	80.357
180.82	32.530
181.03	95.833
181.25	96.154
181.46	-170.968
181.68	51.667
181.89	226.667
182.11	-133.333
182.33	38.835
182.54	82.759
182.76	71.429
182.97	88.889
183.19	98.137
183.40	98.058
183.62	175.000
183.84	64.130
184.05	400.000
184.27	80.412
184.48	55.556
184.70	-71.429
184.91	109.000
185.13	713.333
185.34	37.838
185.56	230.000
185.78	103.093
185.99	142.857
186.21	157.143
186.42	340.000
186.64	90.476
186.85	70.408
187.07	67.143
187.28	10.526
187.50	252.174
187.72	327.778
187.93	200.000
188.15	173.585
188.36	312.500
188.58	-1433.333
188.79	135.000
189.01	-1125.000
189.22	120.536
189.44	604.167
189.65	-88.889
189.87	62.162
190.09	206.452
190.30	106.349
190.52	-4400.000
190.73	-3800.000
190.95	141.667
191.16	73.394
191.38	27.174
191.59	194.118
191.81	18.966
192.02	243.333
192.24	93.151
192.45	36.842
192.67	168.085
192.88	56.410
193.10	20.930
193.31	61.798
193.53	-188.235
193.74	92.683
193.96	35.000
194.18	205.263
194.39	46.957
194.61	354.545
194.82	6.757
195.04	45.714
195.25	49.219
195.47	78.125
195.68	29.114
195.90	-155.000
196.11	89.000
196.33	-50.000
196.54	-33.333
196.76	42.857
196.97	186.364
197.19	125.000
197.40	-91.111
197.62	67.273
197.83	107.563
198.05	147.170
198.26	85.915
198.48	16.667
198.69	0.000
198.91	155.556
199.12	53.704
199.34	43.478
199.55	69.369
199.77	58.621
199.98	833.333
200.20	-28.788
200.41	77.570
200.63	-19.048
200.84	84.783
201.06	86.207
201.27	300.000
201.49	270.000
201.70	-71.429
201.91	95.745
202.13	-153.846
202.34	22.917
202.56	-15.152
202.77	-50.000
202.99	70.588
203.20	104.918
203.42	54.545
203.63	87.912
203.85	37.956
204.06	-152.632
204.28	-1.190
204.49	176.471
204.71	45.070
204.92	-650.000
205.14	67.857
205.35	95.652
205.56	29.167
205.78	18.644
205.99	101.887
206.21	110.185
206.42	101.136
206.64	121.875
206.85	105.952
207.07	60.800
207.28	77.778
207.50	128.788
207.71	133.333
207.93	-169.444
208.14	-545.455
208.35	108.000
208.57	71.111
208.78	66.000
209.00	134.211
209.21	1850.000
209.43	88.462
209.64	196.875
209.86	360.000
210.07	65.854
210.28	-23.684
210.50	-566.667
210.71	36.667
210.93	22.414
211.14	92.308
211.36	257.895
211.57	183.929
211.78	-4.762
212.00	129.167
212.21	43.103
212.43	154.762
212.64	42.718
212.86	120.513
213.07	-14.035
213.29	366.667
213.50	60.759
213.71	81.452
213.93	50.000
214.14	101.923
214.36	41.765
214.57	82.979
214.78	-2.439
215.00	101.176
215.21	66.667
215.43	-203.704
215.64	75.000
215.86	62.590
216.07	220.000
216.28	21.519
216.50	39.623
216.71	115.854
216.93	33.333
217.14	227.273
217.35	117.143
217.57	-29.032
217.78	69.027
218.00	67.021
218.21	87.500
218.42	88.372
218.64	29.703
218.85	12.500
219.07	51.000
219.28	62.857
219.49	142.105
219.71	20.000
219.92	-380.000
220.14	164.062
220.35	125.000
220.56	-1550.000
220.78	69.048
220.99	87.500
221.21	106.024
221.42	74.359
221.63	-42.553
221.85	0.000
222.06	73.585
222.28	165.714
222.49	46.970
222.70	178.571
222.92	52.564
223.13	32.639
223.34	16.304
223.56	73.913
223.77	36.306
223.99	37.267
224.20	71.795
224.41	-42.553
224.63	17.007
224.84	-6.306
225.05	55.725
225.27	59.538
225.48	97.368
225.69	44.505
225.91	64.348
226.12	16.883
226.34	-7.059
226.55	-35.294
226.76	26.087
226.98	32.203
227.19	32.402
227.40	34.444
227.62	21.642
227.83	27.711
228.04	12.500
228.26	20.716
228.47	31.863
228.69	9.836
228.90	16.036
229.11	12.224
229.33	28.741
229.54	7.703
229.75	9.159
229.97	11.829
230.18	7.933
230.39	16.667
230.61	16.230
230.82	11.004
231.03	5.143
231.25	14.383
231.46	2.491
231.67	10.886
231.89	15.980
232.10	8.252
232.31	15.556
232.53	13.448
232.74	-1.698
232.95	7.432
233.17	13.575
233.38	14.337
233.59	12.256
233.81	27.425
234.02	5.703
234.23	-7.214
234.45	11.216
234.66	25.210
234.87	14.183
235.09	6.981
235.30	9.217
235.51	12.066
235.73	3.328
235.94	-0.858
236.15	7.785
236.36	17.465
236.58	21.299
236.79	7.645
237.00	7.836
237.22	8.392
237.43	5.595
237.64	10.338
237.86	4.667
238.07	8.669
238.28	6.379
238.50	15.946
238.71	3.686
238.92	8.742
239.13	14.759
239.35	3.448
239.56	11.688
239.77	3.551
239.99	2.131
240.20	14.941
240.41	6.784
240.63	8.649
240.84	10.543
241.05	3.907
241.26	6.505
241.48	8.491
241.69	4.943
241.90	2.946
242.12	10.739
242.33	14.092
242.54	0.067
242.75	3.670
242.97	11.367
243.18	4.636
243.39	4.358
243.61	5.591
243.82	1.207
244.03	6.692
244.24	5.705
244.46	6.187
244.67	8.890
244.88	7.202
245.09	2.032
245.31	4.119
245.52	5.239
245.73	1.740
245.95	10.855
246.16	5.456
246.37	4.859
246.58	0.802
246.80	5.888
247.01	7.718
247.22	4.984
247.43	7.992
247.65	8.271
247.86	8.052
248.07	3.844
248.28	7.664
248.50	8.169
248.71	5.722
248.92	6.733
249.13	7.247
249.35	5.990
249.56	7.200
249.77	6.989
249.98	5.580
250.20	6.270
250.41	8.134
250.62	4.393
250.83	3.426
251.05	8.880
251.26	5.835
251.47	6.117
251.68	7.796
251.90	6.706
252.11	3.786
252.32	7.097
252.53	5.083
252.75	5.897
252.96	7.992
253.17	8.027
253.38	5.398
253.59	6.486
253.81	5.849
254.02	8.456
254.23	2.962
254.44	6.893
254.66	4.414
254.87	1.874
255.08	3.966
255.29	3.815
255.50	3.077
255.72	7.487
255.93	4.542
256.14	6.461
256.35	1.135
256.57	5.007
256.78	-2.085
256.99	4.878
257.20	3.230
257.41	4.470
257.63	0.281
257.84	6.358
258.05	10.068
258.26	5.389
258.47	2.569
258.69	5.804
258.90	3.330
259.11	4.751
259.32	4.192
259.53	1.454
259.75	2.166
259.96	1.994
260.17	3.519
260.38	4.509
260.59	4.409
260.81	6.377
261.02	5.612
261.23	6.040
261.44	6.981
261.65	7.115
261.87	5.812
262.08	6.672
262.29	5.504
262.50	3.713
262.71	5.025
262.92	5.649
263.14	4.134
263.35	2.362
263.56	2.696
263.77	7.335
263.98	2.146
264.20	6.069
264.41	1.644
264.62	2.171
264.83	2.355
265.04	5.249
265.25	5.364
265.47	5.621
265.68	5.866
265.89	4.764
266.10	3.223
266.31	7.200
266.52	-0.879
266.74	6.960
266.95	1.912
267.16	4.809
267.37	2.758
267.58	2.497
267.79	3.508
268.01	4.825
268.22	2.454
268.43	4.883
268.64	4.363
268.85	3.531
269.06	3.705
269.27	5.321
269.49	3.473
269.70	4.270
269.91	1.737
270.12	3.016
270.33	5.748
270.54	5.363
270.75	2.290
270.97	4.460
271.18	2.314
271.39	3.549
271.60	5.867
271.81	3.514
272.02	3.827
272.23	4.504
272.45	3.174
272.66	4.091
272.87	5.807
273.08	3.482
273.29	5.253
273.50	4.859
273.71	3.526
273.92	3.816
274.14	5.821
274.35	2.708
274.56	5.501
274.77	4.218
274.98	5.994
275.19	2.337
275.40	4.004
275.61	3.869
275.83	3.470
276.04	0.775
276.25	5.413
276.46	4.257
276.67	5.212
276.88	5.824
277.09	4.423
277.30	6.351
277.51	1.384
277.73	2.737
277.94	1.677
278.15	4.619
278.36	5.959
278.57	1.563
278.78	5.006
278.99	4.686
279.20	4.877
279.41	3.491
279.62	3.090
279.84	1.972
280.05	1.987
280.26	1.343
280.47	5.472
280.68	1.710
280.89	2.952
281.10	4.065
281.31	1.222
281.52	4.570
281.73	2.820
281.94	2.260
282.16	4.422
282.37	3.523
282.58	3.259
282.79	5.131
283.00	7.375
283.21	2.496
283.42	1.369
283.63	2.801
283.84	3.626
284.05	4.605
284.26	4.714
284.47	5.257
284.68	6.059
284.89	4.837
285.11	3.604
285.32	3.600
285.53	5.221
285.74	5.339
285.95	4.620
286.16	5.265
286.37	4.326
286.58	4.595
286.79	3.239
287.00	2.747
287.21	3.863
287.42	4.915
287.63	5.597
287.84	3.774
288.05	4.393
288.26	5.008
288.48	3.843
288.69	3.396
288.90	3.296
289.11	4.629
289.32	3.933
289.53	3.713
289.74	0.306
289.95	3.285
290.16	4.026
290.37	3.522
290.58	3.156
290.79	0.792
291.00	3.624
291.21	3.883
291.42	3.687
291.63	3.013
291.84	3.618
292.05	3.606
292.26	3.273
292.47	3.907
292.68	3.154
292.89	3.291
293.10	3.225
293.31	5.106
293.52	1.923
293.73	1.725
293.94	2.699
294.15	4.074
294.36	3.093
294.57	2.472
294.79	3.447
295.00	1.635
295.21	4.916
295.42	2.238
295.63	2.951
295.84	3.767
296.05	2.741
296.26	3.260
296.47	3.220
296.68	3.025
296.89	3.657
297.10	4.793
297.31	3.625
297.52	2.951
297.73	4.336
297.94	3.898
298.15	4.630
298.36	3.221
298.57	4.505
298.78	4.548
298.99	2.739
299.20	2.946
299.41	3.607
299.62	4.262
299.83	2.747
300.04	3.443
300.25	4.187
300.46	2.437
300.67	4.947
300.88	5.566
301.09	2.630
301.30	3.746
301.50	3.563
301.71	6.566
301.92	3.698
302.13	2.187
302.34	2.722
302.55	4.239
302.76	2.119
302.97	4.010
303.18	4.758
303.39	2.704
303.60	3.374
303.81	3.128
304.02	1.327
304.23	3.561
304.44	1.857
304.65	5.052
304.86	5.081
305.07	1.491
305.28	3.848
305.49	3.833
305.70	3.535
305.91	1.995
306.12	2.713
306.33	3.510
306.54	2.250
306.75	4.266
306.96	5.511
307.17	2.634
307.38	2.383
307.58	3.766
307.79	3.437
308.00	4.082
308.21	2.957
308.42	3.984
308.63	2.681
308.84	3.572
309.05	2.608
309.26	2.645
309.47	4.404
309.68	3.325
309.89	4.969
310.10	3.836
310.31	2.509
310.52	4.341
310.73	3.274
310.94	2.582
311.14	4.097
311.35	3.545
311.56	4.178
311.77	3.333
311.98	2.982
312.19	2.232
312.40	2.288
312.61	4.480
312.82	3.304
313.03	2.604
313.24	2.609
313.45	5.560
313.66	3.458
313.86	2.394
314.07	2.708
314.28	4.991
314.49	2.455
314.70	4.106
314.91	5.264
315.12	4.301
315.33	4.962
315.54	3.052
315.75	3.140
315.96	2.916
316.16	1.924
316.37	3.526
316.58	1.929
316.79	3.381
317.00	3.695
317.21	4.332
317.42	4.266
317.63	3.587
317.84	3.225
318.05	4.619
318.25	2.061
318.46	3.280
318.67	1.635
318.88	4.724
319.09	5.338
319.30	0.793
319.51	2.674
319.72	6.081
319.93	3.226
320.13	2.861
320.34	3.427
320.55	3.292
320.76	4.041
320.97	2.144
321.18	5.333
321.39	3.549
321.60	3.102
321.80	4.527
322.01	3.781
322.22	3.558
322.43	1.235
322.64	1.313
322.85	5.455
323.06	5.024
323.27	6.172
323.47	4.414
323.68	4.133
323.89	3.140
324.10	4.781
324.31	2.452
324.52	4.136
324.73	2.944
324.93	4.109
325.14	3.693
325.35	3.371
325.56	2.438
325.77	4.700
325.98	3.428
326.19	3.419
326.39	1.003
326.60	4.950
326.81	3.999
327.02	1.951
327.23	3.273
327.44	5.439
327.64	2.109
327.85	3.142
328.06	5.367
328.27	6.782
328.48	5.369
328.69	3.101
328.90	5.269
329.10	2.678
329.31	4.009
329.52	4.918
329.73	5.280
329.94	2.388
330.15	6.524
330.35	4.777
330.56	4.508
330.77	4.661
330.98	4.203
331.19	4.866
331.39	3.609
331.60	4.235
331.81	3.663
332.02	6.476
332.23	6.508
332.44	5.118
332.64	7.115
332.85	6.279
333.06	5.504
333.27	3.552
333.48	5.776
333.68	5.790
333.89	3.535
334.10	4.052
334.31	6.485
334.52	6.119
334.72	6.854
334.93	6.157
335.14	5.071
335.35	5.673
335.56	7.620
335.76	4.352
335.97	7.292
336.18	3.082
336.39	8.776
336.60	7.699
336.80	7.409
337.01	6.154
337.22	7.500
337.43	9.595
337.64	11.149
337.84	9.222
338.05	6.624
338.26	10.512
338.47	8.972
338.68	3.988
338.88	7.136
339.09	7.021
339.30	8.784
339.51	7.966
339.71	10.309
339.92	6.789
340.13	7.219
340.34	7.065
340.55	8.542
340.75	9.681
340.96	7.780
341.17	9.086
341.38	7.457
341.58	8.395
341.79	9.551
342.00	5.963
342.21	9.368
342.41	6.302
342.62	9.454
342.83	11.158
343.04	6.344
343.24	11.793
343.45	11.071
343.66	7.825
343.87	9.981
344.07	8.664
344.28	10.719
344.49	11.243
344.70	13.010
344.90	8.494
345.11	8.885
345.32	7.636
345.53	10.396
345.73	10.663
345.94	12.301
346.15	11.886
346.36	11.760
346.56	10.927
346.77	13.624
346.98	9.430
347.19	12.282
347.39	11.220
347.60	10.885
347.81	10.775
348.02	11.706
348.22	7.168
348.43	10.653
348.64	7.686
348.84	10.892
349.05	9.834
349.26	12.421
349.47	7.260
349.67	7.776
349.88	11.389
350.09	10.672
350.30	12.249
350.50	10.805
350.71	11.257
350.92	10.992
351.12	10.450
351.33	10.014
351.54	9.302
351.74	11.363
351.95	8.661
352.16	11.588
352.37	12.451
352.57	9.585
352.78	9.039
352.99	11.146
353.19	9.922
353.40	10.181
353.61	12.387
353.82	12.327
354.02	10.413
354.23	10.559
354.44	12.745
354.64	10.541
354.85	9.907
355.06	10.529
355.26	8.956
355.47	10.743
355.68	11.919
355.88	13.175
356.09	10.994
356.30	11.139
356.51	10.712
356.71	11.516
356.92	8.644
357.13	12.640
357.33	13.740
357.54	11.418
357.75	7.657
357.95	11.901
358.16	10.399
358.37	13.597
358.57	10.353
358.78	14.347
358.99	10.403
359.19	11.663
359.40	11.909
359.61	10.957
359.81	12.838
360.02	14.806
360.23	10.041
360.43	11.390
360.64	10.701
360.85	11.477
361.05	9.476
361.26	12.014
361.47	11.595
361.67	13.610
361.88	8.930
362.09	13.629
362.29	10.746
362.50	10.475
362.70	10.636
362.91	13.403
363.12	10.493
363.32	12.741
363.53	11.979
363.74	13.418
363.94	9.694
364.15	13.745
364.36	12.612
364.56	9.980
364.77	11.408
364.98	14.245
365.18	11.576
365.39	13.185
365.59	9.290
365.80	11.741
366.01	11.388
366.21	10.606
366.42	8.762
366.63	11.913
366.83	9.814
367.04	8.841
367.24	12.620
367.45	8.613
367.66	8.214
367.86	11.572
368.07	9.865
368.28	10.840
368.48	9.811
368.69	7.433
368.89	9.737
369.10	11.238
369.31	10.118
369.51	10.185
369.72	11.198
369.92	12.488
370.13	8.151
370.34	11.141
370.54	7.328
370.75	10.869
370.95	6.803
371.16	11.223
371.37	9.949
371.57	9.682
371.78	9.783
371.98	9.781
372.19	9.525
372.40	12.033
372.60	9.907
372.81	9.828
373.01	7.607
373.22	8.667
373.43	10.749
373.63	11.465
373.84	10.762
374.04	10.291
374.25	9.523
374.46	11.609
374.66	9.966
374.87	10.628
375.07	7.232
375.28	7.642
375.48	9.384
375.69	11.258
375.90	8.457
376.10	7.858
376.31	8.678
376.51	7.562
376.72	8.227
376.92	8.717
377.13	9.407
377.34	10.750
377.54	9.584
377.75	10.816
377.95	9.135
378.16	11.621
378.36	10.214
378.57	12.304
378.77	9.321
378.98	12.110
379.19	8.800
379.39	9.235
379.60	9.936
379.80	10.337
380.01	10.643
380.21	8.812
380.42	9.934
380.62	9.870
380.83	10.972
381.04	9.876
381.24	9.599
381.45	9.685
381.65	7.318
381.86	9.947
382.06	10.753
382.27	7.325
382.47	8.873
382.68	11.340
382.88	7.093
383.09	8.181
383.29	8.960
383.50	10.013
383.71	9.066
383.91	9.250
384.12	8.569
384.32	10.132
384.53	9.012
384.73	8.116
384.94	7.781
385.14	8.775
385.35	8.294
385.55	9.251
385.76	8.907
385.96	9.380
386.17	9.129
386.37	10.778
386.58	7.537
386.78	10.308
386.99	8.036
387.19	9.928
387.40	8.000
387.60	11.328
387.81	9.558
388.01	8.680
388.22	9.205
388.42	10.959
388.63	9.514
388.83	11.487
389.04	7.208
389.24	9.737
389.45	7.946
389.65	7.935
389.86	8.553
390.06	8.227
390.27	7.803
390.47	8.563
390.68	8.424
390.88	9.347
391.09	9.906
391.29	9.986
391.50	8.290
391.70	10.363
391.91	8.708
392.11	9.737
392.32	9.222
392.52	10.277
392.73	8.739
392.93	9.779
393.14	9.922
393.34	9.712
393.55	9.869
393.75	9.797
393.95	8.900
394.16	10.176
394.36	10.251
394.57	10.718
394.77	9.132
394.98	9.399
395.18	10.004
395.39	10.099
395.59	9.483
395.80	9.888
396.00	8.829
396.21	10.365
396.41	7.789
396.61	10.369
396.82	9.106
397.02	10.678
397.23	9.036
397.43	8.742
397.64	7.664
397.84	10.811
398.05	6.985
398.25	9.854
398.45	8.271
398.66	9.981
398.86	8.842
399.07	10.318
399.27	8.300
399.48	10.584
399.68	7.895
399.89	9.026
400.09	9.020
400.29	8.930
400.50	8.274
400.70	8.694
400.91	7.907
401.11	8.625
401.32	8.309
401.52	7.377
401.72	7.057
401.93	9.927
402.13	8.415
402.34	8.513
402.54	7.245
402.75	10.317
402.95	6.372
403.15	9.360
403.36	6.776
403.56	9.300
403.77	7.545
403.97	8.709
404.17	7.157
404.38	9.555
404.58	8.399
404.79	8.804
404.99	9.043
405.19	7.846
405.40	8.542
405.60	9.235
405.81	8.086
406.01	8.970
406.21	8.627
406.42	9.338
406.62	9.515
406.83	9.591
407.03	8.597
407.23	8.013
407.44	7.698
407.64	8.781
407.85	8.435
408.05	8.903
408.25	7.512
408.46	9.326
408.66	8.277
408.87	7.887
409.07	7.848
409.27	7.962
409.48	7.835
409.68	9.137
409.88	6.302
410.09	9.006
410.29	8.156
410.50	9.273
410.70	6.695
410.90	9.167
411.11	7.399
411.31	8.177
411.51	8.482
411.72	10.076
411.92	7.381
412.12	7.316
412.33	7.111
412.53	7.411
412.74	5.969
412.94	8.156
413.14	7.669
413.35	8.494
413.55	7.306
413.75	8.917
413.96	6.664
414.16	7.671
414.36	7.214
414.57	7.452
414.77	6.559
414.97	8.366
415.18	7.362
415.38	8.333
415.58	8.229
415.79	7.158
415.99	7.192
416.19	8.366
416.40	8.154
416.60	7.940
416.80	7.784
417.01	8.232
417.21	7.367
417.41	9.146
417.62	8.213
417.82	9.396
418.02	7.485
418.23	9.090
418.43	8.316
418.63	9.047
418.84	9.639
419.04	9.041
419.24	9.403
419.45	9.496
419.65	9.956
419.85	9.566
420.06	9.492
420.26	9.923
420.46	9.497
420.67	10.164
420.87	9.703
421.07	10.498
421.28	9.464
421.48	10.376
421.68	9.902
421.88	10.116
422.09	9.615
422.29	10.037
422.49	9.683
422.70	9.720
422.90	9.558
423.10	9.606
423.31	9.878
423.51	9.775
423.71	8.990
423.91	10.175
424.12	9.811
424.32	10.329
424.52	9.593
424.73	9.948
424.93	9.704
425.13	9.755
425.33	9.429
425.54	10.117
425.74	9.914
425.94	9.951
426.15	9.467
426.35	9.312
426.55	9.515
426.75	9.738
426.96	8.829
427.16	9.218
427.36	9.343
427.57	9.662
427.77	8.598
427.97	9.578
428.17	8.589
428.38	9.020
428.58	7.577
428.78	8.975
428.98	7.802
429.19	8.582
429.39	7.265
429.59	8.368
429.79	7.487
430.00	7.898
430.20	7.279
430.40	8.123
430.60	7.582
430.81	8.580
431.01	8.329
431.21	8.392
431.41	7.003
431.62	7.841
431.82	7.849
432.02	9.038
432.22	7.753
432.43	7.761
432.63	7.226
432.83	8.171
433.03	8.009
433.24	8.279
433.44	8.067
433.64	9.115
433.84	8.421
434.05	9.015
434.25	8.618
434.45	9.289
434.65	8.983
434.85	9.597
435.06	8.740
435.26	8.667
435.46	8.671
435.66	8.620
435.87	8.405
436.07	8.586
436.27	7.637
436.47	7.601
436.67	7.655
436.88	8.550
437.08	7.992
437.28	8.375
437.48	7.546
437.69	8.684
437.89	8.078
438.09	8.891
438.29	8.051
438.49	8.777
438.70	8.804
438.90	8.384
439.10	7.797
439.30	8.842
439.50	7.986
439.71	9.017
439.91	8.855
440.11	9.234
440.31	8.921
440.51	8.793
440.72	8.256
440.92	9.206
441.12	8.897
441.32	9.305
441.52	8.930
441.72	9.366
441.93	9.089
442.13	8.948
442.33	8.611
442.53	9.019
442.73	8.554
442.94	9.005
443.14	8.618
443.34	8.919
443.54	8.607
443.74	8.554
443.94	8.370
444.15	8.748
444.35	7.748
444.55	8.989
444.75	8.244
444.95	8.661
445.15	8.388
445.36	8.946
445.56	7.428
445.76	8.968
445.96	8.598
446.16	8.710
446.36	8.270
446.57	9.172
446.77	8.653
446.97	9.391
447.17	9.282
447.37	9.122
447.57	9.318
447.77	8.931
447.98	9.091
448.18	9.179
448.38	8.560
448.58	9.234
448.78	9.361
448.98	8.862
449.18	8.499
449.39	8.767
449.59	8.436
449.79	8.829
449.99	8.187
450.19	8.632
450.39	8.084
450.59	8.589
450.79	7.935
451.00	8.529
451.20	7.906
451.40	8.175
451.60	7.729
451.80	8.448
452.00	7.682
452.20	8.637
452.40	7.997
452.61	7.682
452.81	8.147
453.01	8.313
453.21	7.708
453.41	8.620
453.61	8.077
453.81	8.307
454.01	7.685
454.21	8.220
454.42	8.520
454.62	8.490
454.82	7.730
455.02	8.132
455.22	7.788
455.42	7.603
455.62	7.203
455.82	7.757
456.02	7.219
456.23	7.944
456.43	7.508
456.63	8.212
456.83	7.159
457.03	8.099
457.23	7.610
457.43	8.011
457.63	7.301
457.83	8.279
458.03	7.381
458.23	8.024
458.43	7.208
458.64	8.284
458.84	8.078
459.04	8.410
459.24	8.265
459.44	8.679
459.64	8.670
459.84	8.801
460.04	8.611
460.24	8.854
460.44	8.467
460.64	9.309
460.84	8.714
461.04	9.084
461.24	9.123
461.45	9.260
461.65	8.943
461.85	9.145
462.05	8.328
462.25	8.913
462.45	9.050
462.65	9.043
462.85	7.945
463.05	8.619
463.25	7.117
463.45	8.650
463.65	8.224
463.85	8.366
464.05	7.534
464.25	8.354
464.45	8.409
464.65	7.614
464.85	7.689
465.05	8.051
465.26	7.615
465.46	8.265
465.66	7.763
465.86	8.539
466.06	7.978
466.26	8.298
466.46	7.087
466.66	8.218
466.86	7.827
467.06	8.891
467.26	7.955
467.46	8.404
467.66	7.885
467.86	8.105
468.06	8.006
468.26	8.118
468.46	8.113
468.66	8.313
468.86	7.268
469.06	8.666
469.26	7.145
469.46	8.338
469.66	7.360
469.86	8.813
470.06	7.820
470.26	8.455
470.46	7.293
470.66	8.818
470.86	7.868
471.06	8.143
471.26	7.149
471.46	7.828
471.66	7.552
471.86	8.100
472.06	7.688
472.26	8.547
472.46	8.116
472.66	8.095
472.86	7.708
473.06	8.325
473.26	7.586
473.46	8.602
473.66	7.700
473.86	8.220
474.06	7.273
474.26	8.666
474.46	7.858
474.66	8.737
474.86	8.237
475.06	8.680
475.26	7.322
475.46	8.292
475.66	7.454
475.86	8.494
476.06	8.002
476.26	8.610
476.46	8.059
476.66	8.133
476.86	7.148
477.06	8.736
477.26	7.925
477.46	8.196
477.65	8.200
477.85	8.707
478.05	7.324
478.25	9.183
478.45	7.845
478.65	8.689
478.85	7.838
479.05	9.335
479.25	8.581
479.45	9.139
479.65	8.251
479.85	8.392
480.05	8.510
480.25	8.818
480.45	8.844
480.65	9.124
480.85	8.529
481.05	9.216
481.25	8.530
481.44	8.680
481.64	8.522
481.84	9.321
482.04	9.049
482.24	9.149
482.44	8.872
482.64	9.282
482.84	9.176
483.04	9.361
483.24	9.094
483.44	9.333
483.64	9.307
483.84	9.548
484.04	9.484
484.23	9.708
484.43	9.612
484.63	9.853
484.83	9.868
485.03	10.273
485.23	10.170
485.43	9.784
485.63	9.795
485.83	9.654
486.03	9.564
486.23	9.731
486.42	9.646
486.62	9.603
486.82	9.494
487.02	9.589
487.22	9.641
487.42	9.642
487.62	9.660
487.82	9.769
488.02	9.591
488.22	9.612
488.41	9.516
488.61	9.494
488.81	9.584
489.01	9.663
489.21	9.703
489.41	9.647
489.61	9.457
489.81	9.576
490.01	9.693
490.20	9.427
490.40	9.574
490.60	9.753
490.80	9.180
491.00	9.581
491.20	9.620
491.40	9.564
491.60	9.292
491.79	9.557
491.99	9.505
492.19	9.656
492.39	9.540
492.59	9.571
492.79	9.519
492.99	9.456
493.19	9.613
493.38	9.525
493.58	9.577
493.78	9.559
493.98	9.600
494.18	9.615
494.38	9.120
494.58	9.692
494.77	8.899
494.97	8.958
495.17	8.760
495.37	9.471
495.57	8.677
495.77	9.229
495.96	9.189
496.16	9.060
496.36	8.824
496.56	9.671
496.76	8.410
496.96	9.444
497.15	8.607
497.35	9.542
497.55	9.079
497.75	9.401
497.95	8.628
498.15	9.448
498.34	9.618
498.54	9.200
498.74	9.357
498.94	9.474
499.14	8.973
499.34	9.546
499.53	9.401
499.73	9.402
499.93	9.012
500.13	9.566
500.33	8.998
500.52	9.164
500.72	9.044
500.92	9.111
501.12	8.537
501.32	9.030
501.52	8.498
501.71	9.148
501.91	8.924
502.11	8.971
502.31	8.476
502.51	9.476
502.70	8.567
502.90	9.027
503.10	8.573
503.30	9.452
503.50	9.031
503.69	9.234
503.89	8.476
504.09	9.096
504.29	8.574
504.48	9.353
504.68	9.255
504.88	9.541
505.08	8.695
505.28	9.252
505.47	9.371
505.67	9.728
505.87	8.833
506.07	9.130
506.27	8.766
506.46	9.478
506.66	8.973
506.86	9.025
507.06	9.365
507.25	8.943
507.45	8.928
507.65	9.149
507.85	8.526
508.04	9.187
508.24	9.093
508.44	9.369
508.64	8.907
508.83	9.316
509.03	8.804
509.23	9.761
509.43	8.855
509.63	9.418
509.82	8.736
510.02	9.663
510.22	9.215
510.42	9.722
510.61	9.234
510.81	9.668
511.01	9.211
511.21	9.446
511.40	8.901
511.60	9.542
511.80	9.018
511.99	9.743
512.19	9.308
512.39	9.775
512.59	9.197
512.78	9.744
512.98	9.744
513.18	9.302
513.38	9.248
513.57	9.487
513.77	9.248
513.97	9.553
514.17	9.401
514.36	9.280
514.56	9.015
514.76	9.466
514.95	9.249
515.15	9.338
515.35	8.754
515.55	9.123
515.74	9.219
515.94	9.519
516.14	8.576
516.33	9.322
516.53	8.643
516.73	9.323
516.93	9.363
517.12	9.699
517.32	8.726
517.52	9.847
517.71	8.982
517.91	9.244
518.11	9.773
518.30	9.415
518.50	9.131
518.70	9.834
518.90	9.391
519.09	9.660
519.29	9.569
519.49	9.778
519.68	9.547
519.88	9.727
520.08	9.684
520.27	9.984
520.47	9.823
520.67	9.490
520.86	9.818
521.06	9.723
521.26	9.403
521.45	9.473
521.65	9.118
521.85	9.316
522.04	9.090
522.24	9.825
522.44	8.917
522.63	9.475
522.83	9.223
523.03	9.333
523.22	9.032
523.42	9.676
523.62	9.369
523.81	9.076
524.01	9.410
524.21	9.553
524.40	9.062
524.60	9.540
524.80	9.241
524.99	9.461
525.19	9.375
525.39	9.771
525.58	9.331
525.78	9.744
525.98	9.515
526.17	9.947
526.37	9.801
526.57	9.751
526.76	9.766
526.96	9.961
527.15	9.707
527.35	9.808
527.55	9.916
527.74	9.873
527.94	9.847
528.14	10.032
528.33	10.065
528.53	9.974
528.72	10.142
528.92	10.251
529.12	10.174
529.31	10.153
529.51	10.248
529.71	10.212
529.90	10.267
530.10	10.335
530.29	10.260
530.49	10.352
530.69	10.302
530.88	10.048
531.08	10.056
531.28	10.222
531.47	10.106
531.67	10.232
531.86	9.912
532.06	10.022
532.26	9.723
532.45	10.029
532.65	10.020
532.84	9.930
533.04	10.106
533.24	10.081
533.43	9.824
533.63	10.192
533.82	10.058
534.02	10.224
534.22	10.026
534.41	10.174
534.61	10.078
534.80	10.100
535.00	10.095
535.19	10.018
535.39	10.178
535.59	10.240
535.78	10.270
535.98	10.190
536.17	9.943
536.37	10.111
536.57	10.020
536.76	10.196
536.96	9.989
537.15	10.533
537.35	9.785
537.54	10.483
537.74	9.965
537.93	10.326
538.13	10.110
538.33	10.202
538.52	10.075
538.72	10.108
538.91	9.799
539.11	10.154
539.30	9.865
539.50	9.804
539.70	9.804
539.89	9.910
540.09	9.810
540.28	10.401
540.48	9.925
540.67	10.410
540.87	10.151
541.06	10.598
541.26	10.369
541.45	10.364
541.65	10.412
541.85	10.691
542.04	10.496
542.24	10.595
542.43	10.588
542.63	10.582
542.82	10.660
543.02	10.520
543.21	10.631
543.41	10.552
543.60	10.794
543.80	10.734
543.99	10.355
544.19	10.618
544.38	10.743
544.58	10.331
544.77	10.388
544.97	10.481
545.16	10.344
545.36	10.619
545.56	10.773
545.75	10.170
545.95	10.211
546.14	10.828
546.34	10.275
546.53	10.439
546.73	10.250
546.92	10.718
547.12	10.436
547.31	10.865
547.51	10.134
547.70	10.531
547.90	10.545
548.09	10.757
548.29	10.359
548.48	10.874
548.68	10.607
548.87	10.466
549.07	10.665
549.26	10.601
549.46	10.030
549.65	10.605
549.84	10.090
550.04	10.536
550.23	9.755
550.43	10.721
550.62	10.001
550.82	10.147
551.01	9.394
551.21	10.225
551.40	9.693
551.60	10.077
551.79	9.674
551.99	10.435
552.18	9.639
552.38	10.444
552.57	10.555
552.77	10.718
552.96	10.474
553.16	11.325
553.35	10.865
553.54	11.256
553.74	10.810
553.93	11.284
554.13	11.103
554.32	11.406
554.52	10.695
554.71	11.665
554.91	10.490
555.10	11.453
555.29	10.323
555.49	11.415
555.68	11.000
555.88	11.079
556.07	10.404
556.27	11.381
556.46	11.076
556.66	11.045
556.85	10.977
557.04	11.348
557.24	11.028
557.43	11.545
557.63	10.995
557.82	11.703
558.02	10.976
558.21	11.939
558.40	10.926
558.60	11.397
558.79	11.657
558.99	11.304
559.18	11.563
559.38	11.889
559.57	11.459
559.76	11.876
559.96	11.403
560.15	12.076
560.35	11.176
560.54	11.852
560.73	10.822
560.93	12.224
561.12	11.921
561.32	12.344
561.51	12.237
561.70	12.669
561.90	11.881
562.09	12.982
562.29	11.945
562.48	12.496
562.67	12.298
562.87	12.906
563.06	12.624
563.26	12.544
563.45	12.794
563.64	13.163
563.84	12.634
564.03	13.071
564.23	13.078
564.42	13.470
564.61	12.952
564.81	13.329
565.00	13.484
565.20	14.033
565.39	13.734
565.58	13.777
565.78	13.631
565.97	14.130
566.16	13.960
566.36	14.726
566.55	14.411
566.74	14.385
566.94	14.232
567.13	14.365
567.33	14.409
567.52	14.654
567.71	14.689
567.91	14.907
568.10	14.752
568.29	15.045
568.49	14.750
568.68	15.143
568.87	14.540
569.07	15.029
569.26	15.129
569.45	15.260
569.65	14.643
569.84	15.477
570.04	14.710
570.23	15.549
570.42	14.745
570.62	15.411
570.81	15.586
571.00	15.528
571.20	15.215
571.39	15.629
571.58	15.618
571.78	15.671
571.97	16.047
572.16	15.534
572.36	16.070
572.55	16.469
572.74	16.184
572.94	15.941
573.13	16.287
573.32	16.154
573.51	16.154
573.71	16.688
573.90	15.936
574.09	16.224
574.29	16.163
574.48	16.067
574.67	16.528
574.87	16.246
575.06	16.527
575.25	16.836
575.45	16.140
575.64	16.676
575.83	16.616
576.03	16.343
576.22	17.088
576.41	16.663
576.60	16.953
576.80	16.749
576.99	16.535
577.18	17.172
577.38	16.621
577.57	17.154
577.76	17.100
577.95	16.900
578.15	16.036
578.34	17.333
578.53	16.595
578.73	16.582
578.92	16.204
579.11	16.294
579.30	16.950
579.50	16.139
579.69	16.194
579.88	16.842
580.08	15.196
580.27	16.282
580.46	16.119
580.65	16.613
580.85	15.681
581.04	16.491
581.23	16.291
581.42	16.486
581.62	15.730
581.81	16.512
582.00	16.136
582.19	16.737
582.39	16.220
582.58	16.133
582.77	15.668
582.96	16.029
583.16	15.707
583.35	16.894
583.54	15.471
583.73	15.984
583.93	15.826
584.12	16.787
584.31	16.180
584.50	15.892
584.70	15.568
584.89	16.419
585.08	15.476
585.27	16.128
585.47	14.751
585.66	16.430
585.85	15.296
586.04	16.282
586.24	15.734
586.43	16.159
586.62	15.346
586.81	15.825
587.00	15.482
587.20	15.818
587.39	14.920
587.58	16.182
587.77	15.420
587.97	15.778
588.16	15.449
588.35	15.998
588.54	15.197
588.73	15.885
588.93	16.370
589.12	15.284
589.31	15.681
589.50	15.936
589.69	16.212
589.89	16.405
590.08	14.952
590.27	16.389
590.46	15.682
590.65	16.178
590.85	15.337
591.04	16.604
591.23	16.297
591.42	16.256
591.61	15.797
591.81	16.232
592.00	15.733
592.19	16.495
592.38	15.316
592.57	16.525
592.77	16.212
592.96	16.514
593.15	16.506
593.34	16.364
593.53	15.904
593.72	15.931
593.92	16.221
594.11	17.330
594.30	16.007
594.49	16.894
594.68	16.200
594.87	16.824
595.07	15.478
595.26	17.170
595.45	16.511
595.64	16.580
595.83	15.575
596.02	16.689
596.22	15.840
596.41	17.356
596.60	16.836
596.79	17.180
596.98	16.593
597.17	17.258
597.37	16.966
597.56	17.440
597.75	17.165
597.94	17.655
598.13	17.044
598.32	17.316
598.51	17.153
598.71	18.028
598.90	17.964
599.09	17.674
599.28	16.869
599.47	18.194
599.66	16.928
599.85	18.629
600.05	17.023
600.24	17.760
600.43	17.382
600.62	17.935
600.81	17.284
601.00	18.323
601.19	16.485
601.38	17.978
601.58	17.524
601.77	17.639
601.96	16.859
602.15	17.876
602.34	17.717
602.53	17.837
602.72	17.183
602.91	18.610
603.10	17.829
603.30	18.363
603.49	17.215
603.68	18.822
603.87	17.439
604.06	18.631
604.25	18.961
604.44	18.763
604.63	18.197
604.82	18.648
605.01	18.646
605.21	18.802
605.40	18.534
605.59	18.726
605.78	18.316
605.97	18.990
606.16	18.903
606.35	18.982
606.54	18.118
606.73	18.795
606.92	18.951
607.11	18.401
607.30	17.909
607.50	18.706
607.69	17.524
607.88	17.663
608.07	17.876
608.26	18.559
608.45	17.711
608.64	18.415
608.83	16.973
609.02	18.114
609.21	17.643
609.40	17.859
609.59	17.357
609.78	18.326
609.97	17.421
610.16	18.155
610.35	18.045
610.55	18.194
610.74	17.703
610.93	17.541
611.12	16.961
611.31	18.014
611.50	17.585
611.69	17.294
611.88	16.922
612.07	18.264
612.26	15.889
612.45	17.350
612.64	16.765
612.83	17.172
613.02	15.910
613.21	16.715
613.40	15.589
613.59	16.601
613.78	14.846
613.97	16.095
614.16	15.273
614.35	16.556
614.54	14.716
614.73	15.962
614.92	15.061
615.11	15.006
615.30	14.184
615.49	15.389
615.68	14.715
615.87	14.792
616.07	14.680
616.26	15.808
616.45	15.142
616.64	14.832
616.83	14.859
617.02	15.006
617.21	13.564
617.40	14.372
617.59	14.043
617.78	15.723
617.97	14.345
618.16	14.335
618.35	13.582
618.54	14.888
618.73	13.857
618.92	14.707
619.11	13.822
619.30	15.128
619.49	13.265
619.68	14.811
619.86	13.692
620.05	14.714
620.24	14.003
620.43	14.191
620.62	12.529
620.81	13.971
621.00	13.915
621.19	15.347
621.38	14.175
621.57	14.932
621.76	13.357
621.95	14.561
622.14	13.242
622.33	14.569
622.52	13.103
622.71	13.484
622.90	13.150
623.09	14.361
623.28	13.402
623.47	14.716
623.66	13.090
623.85	13.600
624.04	13.135
624.23	13.274
624.42	13.007
624.61	14.013
624.80	12.024
624.99	13.666
625.18	12.381
625.36	13.310
625.55	14.315
625.74	13.103
625.93	12.836
626.12	14.036
626.31	14.255
626.50	14.381
626.69	14.014
626.88	15.325
627.07	14.201
627.26	14.802
627.45	14.031
627.64	14.371
627.83	13.435
628.02	14.642
628.20	13.823
628.39	14.186
628.58	13.565
628.77	14.684
628.96	13.882
629.15	13.374
629.34	14.087
629.53	13.441
629.72	12.641
629.91	14.403
630.10	13.184
630.29	13.358
630.47	11.978
630.66	12.724
630.85	12.559
631.04	13.268
631.23	12.143
631.42	12.722
631.61	12.293
631.80	12.276
631.99	11.422
632.18	11.940
632.36	11.605
632.55	12.459
632.74	11.080
632.93	12.024
633.12	11.598
633.31	12.738
633.50	12.684
633.69	12.850
633.88	10.907
634.06	13.067
634.25	11.964
634.44	12.900
634.63	12.160
634.82	13.233
635.01	12.457
635.20	13.207
635.39	11.405
635.57	12.398
635.76	11.964
635.95	12.700
636.14	10.707
636.33	13.134
636.52	11.872
636.71	12.056
636.89	12.248
637.08	12.164
637.27	11.084
637.46	12.664
637.65	11.692
637.84	12.408
638.03	10.715
638.21	12.322
638.40	11.977
638.59	12.411
638.78	10.658
638.97	12.619
639.16	13.063
639.34	12.223
639.53	9.837
639.72	12.787
639.91	11.058
640.10	10.873
640.29	12.696
640.47	12.015
640.66	11.015
640.85	13.107
641.04	10.834
641.23	11.814
641.42	11.124
641.60	11.199
641.79	10.445
641.98	11.178
642.17	10.609
642.36	12.482
642.54	10.581
642.73	11.340
642.92	10.063
643.11	10.572
643.30	9.781
643.49	11.236
643.67	8.876
643.86	11.250
644.05	10.375
644.24	11.693
644.43	10.695
644.61	11.159
644.80	10.294
644.99	10.691
645.18	11.627
645.37	11.355
645.55	10.562
645.74	11.016
645.93	10.922
646.12	11.205
646.31	10.294
646.49	11.265
646.68	10.685
646.87	10.925
647.06	10.908
647.24	10.678
647.43	9.541
647.62	12.293
647.81	8.882
648.00	12.212
648.18	9.520
648.37	11.333
648.56	11.107
648.75	10.926
648.93	9.844
649.12	11.167
649.31	9.921
649.50	10.095
649.68	9.892
649.87	10.979
650.06	8.585
650.25	10.409
650.43	8.538
650.62	10.848
650.81	9.957
651.00	10.494
651.18	9.581
651.37	12.826
651.56	9.504
651.75	13.062
651.93	10.064
652.12	11.384
652.31	9.685
652.50	10.790
652.68	10.345
652.87	11.584
653.06	10.357
653.25	10.861
653.43	10.023
653.62	10.768
653.81	9.980
654.00	11.162
654.18	9.577
654.37	10.829
654.56	8.317
654.74	9.963
654.93	8.645
655.12	9.791
655.31	9.272
655.49	11.027
655.68	9.173
655.87	8.500
656.05	7.109
656.24	8.848
656.43	7.398
656.62	9.324
656.80	8.919
656.99	7.932
657.18	7.442
657.36	9.421
657.55	9.304
657.74	8.353
657.93	8.976
658.11	9.627
658.30	9.484
658.49	8.902
658.67	8.612
658.86	9.354
659.05	7.633
659.23	8.947
659.42	8.029
659.61	9.346
659.79	9.477
659.98	9.523
660.17	9.634
660.35	10.434
660.54	9.501
660.73	11.427
660.91	9.400
661.10	9.457
661.29	8.091
661.47	8.560
661.66	8.365
661.85	8.514
662.03	8.963
662.22	7.209
662.41	6.639
662.59	7.707
662.78	6.358
662.97	7.853
663.15	5.744
663.34	6.289
663.53	5.253
663.71	6.935
663.90	6.529
664.09	7.960
664.27	6.484
664.46	5.939
664.65	5.732
664.83	6.347
665.02	6.200
665.21	5.870
665.39	4.382
665.58	5.984
665.77	5.944
665.95	6.419
666.14	5.059
666.32	5.956
666.51	4.620
666.70	6.458
666.88	5.173
667.07	5.390
667.26	4.308
667.44	5.725
667.63	6.646
667.81	4.422
668.00	5.441
668.19	6.258
668.37	5.957
668.56	6.448
668.75	5.596
668.93	7.712
669.12	5.499
669.30	6.952
669.49	5.798
669.68	7.658
669.86	6.971
670.05	6.120
670.23	5.647
670.42	6.969
670.61	6.946
670.79	6.609
670.98	6.215
671.16	7.860
671.35	5.412
671.54	6.969
671.72	5.935
671.91	6.762
672.09	5.463
672.28	8.515
672.46	7.788
672.65	7.537
672.84	6.776
673.02	6.048
673.21	4.505
673.39	5.850
673.58	7.169
673.77	6.850
673.95	6.570
674.14	9.159
674.32	5.806
674.51	8.815
674.69	6.273
674.88	7.014
675.07	6.519
675.25	9.092
675.44	7.570
675.62	7.165
675.81	6.337
675.99	11.357
676.18	8.033
676.36	8.776
676.55	6.225
676.74	8.895
676.92	8.876
677.11	9.141
677.29	7.406
677.48	9.719
677.66	8.775
677.85	8.259
678.03	6.683
678.22	10.077
678.40	8.646
678.59	7.132
678.78	6.319
678.96	8.532
679.15	6.914
679.33	9.990
679.52	9.385
679.70	10.300
679.89	8.869
680.07	9.362
680.26	8.744
680.44	10.747
680.63	9.223
680.81	9.174
681.00	7.876
681.18	10.001
681.37	8.598
681.55	11.195
681.74	10.065
681.92	10.693
682.11	10.370
682.29	9.446
682.48	9.366
682.66	10.933
682.85	10.470
683.03	10.550
683.22	10.491
683.40	10.828
683.59	10.108
683.77	10.978
683.96	8.755
684.14	11.826
684.33	8.439
684.51	12.963
684.70	10.140
684.88	12.776
685.07	11.414
685.25	11.487
685.44	10.743
685.62	12.240
685.81	9.049
685.99	12.231
686.18	9.591
686.36	12.331
686.55	9.330
686.73	11.038
686.92	11.953
687.10	12.656
687.29	12.121
687.47	13.585
687.65	12.625
687.84	12.349
688.02	13.746
688.21	14.439
688.39	12.438
688.58	14.864
688.76	12.194
688.95	13.021
689.13	11.943
689.32	15.110
689.50	13.902
689.68	14.834
689.87	13.580
690.05	16.894
690.24	15.410
690.42	15.460
690.61	15.476
690.79	16.375
690.98	16.361
691.16	16.324
691.34	14.076
691.53	16.555
691.71	16.719
691.90	18.146
692.08	14.481
692.27	18.773
692.45	19.167
692.63	17.869
692.82	19.125
693.00	18.055
693.19	16.472
693.37	20.332
693.56	19.011
693.74	22.320
693.92	19.651
694.11	21.339
694.29	21.176
694.48	23.101
694.66	21.121
694.84	24.170
695.03	20.194
695.21	25.779
695.40	24.831
695.58	27.287
695.76	24.630
695.95	25.723
696.13	23.945
696.32	27.717
696.50	27.615
696.68	28.480
696.87	25.696
697.05	29.833
697.24	28.654
697.42	31.001
697.60	29.989
697.79	31.050
697.97	32.011
698.16	33.435
698.34	32.082
698.52	33.783
698.71	33.820
698.89	35.479
699.07	33.732
699.26	35.362
699.44	35.103
699.63	35.407
699.81	34.246
699.99	36.517
700.18	36.786
700.36	36.636
700.54	37.135
700.73	38.787
700.91	36.169
701.09	38.247
701.28	38.879
701.46	37.876
701.64	38.626
701.83	39.509
702.01	37.861
702.20	42.171
702.38	41.791
702.56	40.616
702.75	38.777
702.93	40.967
703.11	38.326
703.30	41.736
703.48	41.082
703.66	43.822
703.85	40.192
704.03	44.554
704.21	40.857
704.40	44.417
704.58	40.395
704.76	45.167
704.95	41.903
705.13	44.570
705.31	42.310
705.50	45.482
705.68	42.782
705.86	44.528
706.04	42.650
706.23	46.692
706.41	43.847
706.59	46.213
706.78	44.231
706.96	48.231
707.14	45.799
707.33	47.079
707.51	45.970
707.69	46.532
707.88	45.132
708.06	48.067
708.24	47.231
708.42	46.902
708.61	46.917
708.79	49.054
708.97	47.559
709.16	49.185
709.34	46.532
709.52	48.990
709.71	48.370
709.89	50.160
710.07	46.610
710.25	49.835
710.44	48.647
710.62	50.158
710.80	49.106
710.98	50.688
711.17	49.417
711.35	50.250
711.53	49.090
711.72	51.958
711.90	50.349
712.08	50.981
712.26	49.864
712.45	51.280
712.63	51.545
712.81	49.705
712.99	51.557
713.18	54.095
713.36	52.028
713.54	51.719
713.72	50.813
713.91	50.487
714.09	50.082
714.27	53.622
714.45	50.233
714.64	52.519
714.82	51.131
715.00	52.402
715.18	50.277
715.37	52.251
715.55	50.763
715.73	52.937
715.91	53.620
716.10	54.960
716.28	50.749
716.46	52.246
716.64	52.139
716.83	53.912
717.01	49.920
717.19	53.261
717.37	50.949
717.55	53.510
717.74	52.444
717.92	53.590
718.10	52.478
718.28	53.760
718.47	53.421
718.65	52.587
718.83	53.258
719.01	54.016
719.19	51.966
719.38	52.723
719.56	52.963
719.74	53.441
719.92	49.024
720.10	52.117
720.29	50.945
720.47	54.701
720.65	52.528
720.83	53.620
721.01	48.407
721.20	54.526
721.38	51.424
721.56	51.440
721.74	50.445
721.92	52.956
722.11	48.433
722.29	55.538
722.47	51.944
722.65	54.353
722.83	49.242
723.01	53.329
723.20	51.760
723.38	52.259
723.56	50.300
723.74	53.786
723.92	50.697
724.10	55.799
724.29	50.172
724.47	58.001
724.65	51.492
724.83	54.756
725.01	51.492
725.19	55.003
725.38	52.174
725.56	53.782
725.74	53.033
725.92	55.240
726.10	49.898
726.28	56.534
726.46	51.619
726.65	57.409
726.83	52.181
727.01	55.340
727.19	56.354
727.37	53.441
727.55	54.036
727.73	54.557
727.92	52.249
728.10	54.351
728.28	50.517
728.46	56.956
728.64	50.021
728.82	57.973
729.00	52.932
729.19	57.420
729.37	54.889
729.55	54.725
729.73	52.175
729.91	58.383
730.09	55.170
730.27	58.512
730.45	54.201
730.63	56.321
730.82	55.351
731.00	54.363
731.18	53.816
731.36	55.781
731.54	53.336
731.72	55.692
731.90	53.037
732.08	56.508
732.26	54.628
732.45	57.322
732.63	56.632
732.81	57.742
732.99	54.729
733.17	56.763
733.35	54.117
733.53	55.951
733.71	52.763
733.89	59.104
734.07	54.782
734.25	58.075
734.44	55.597
734.62	54.476
734.80	56.079
734.98	56.093
735.16	57.015
735.34	56.653
735.52	57.612
735.70	58.851
735.88	54.060
736.06	56.612
736.24	56.695
736.42	58.049
736.60	57.576
736.78	57.193
736.97	54.302
737.15	58.082
737.33	54.968
737.51	56.012
737.69	55.079
737.87	56.893
738.05	55.841
738.23	59.594
738.41	56.703
738.59	60.064
738.77	52.551
738.95	60.298
739.13	54.124
739.31	57.011
739.49	54.901
739.67	59.367
739.85	55.580
740.03	55.920
740.21	55.616
740.39	59.909
740.57	55.948
740.75	58.501
740.93	56.098
741.11	58.951
741.30	52.993
741.48	56.258
741.66	58.375
741.84	57.027
742.02	52.446
742.20	57.719
742.38	52.964
742.56	57.620
742.74	51.402
742.92	56.266
743.10	52.422
743.28	56.391
743.46	53.905
743.64	55.216
743.82	53.303
744.00	56.876
744.18	53.511
744.36	54.321
744.54	51.951
744.72	59.658
744.90	52.860
745.08	56.410
745.26	53.768
745.44	56.888
745.62	48.442
745.80	55.524
745.98	53.884
746.16	56.721
746.34	49.352
746.52	58.217
746.70	51.063
746.87	53.811
747.05	52.916
747.23	55.389
747.41	51.516
747.59	55.037
747.77	52.569
747.95	55.295
748.13	52.462
748.31	53.409
748.49	52.473
748.67	53.103
748.85	51.601
749.03	57.519
749.21	47.458
749.39	59.517
749.57	49.181
749.75	54.779
749.93	51.401
750.11	54.892
750.29	53.565
750.47	56.763
750.65	51.047
750.83	53.442
751.01	49.341
751.18	55.681
751.36	49.792
751.54	52.844
751.72	51.324
751.90	54.727
752.08	49.113
752.26	52.831
752.44	51.707
752.62	49.878
752.80	49.535
752.98	54.711
753.16	50.000
753.34	55.403
753.52	53.041
753.69	54.659
753.87	53.299
754.05	54.739
754.23	46.384
754.41	52.472
754.59	52.414
754.77	56.166
754.95	49.919
755.13	56.685
755.31	49.952
755.49	51.174
755.66	51.333
755.84	54.508
756.02	49.591
756.20	54.180
756.38	49.670
756.56	48.346
756.74	47.398
756.92	51.727
757.10	47.172
757.28	56.408
757.45	56.776
757.63	52.535
757.81	48.280
757.99	56.826
758.17	49.480
758.35	55.662
758.53	50.635
758.71	54.925
758.88	51.932
759.06	54.316
759.24	50.876
759.42	51.583
759.60	51.435
759.78	53.524
759.96	46.339
760.13	49.631
760.31	45.913
760.49	52.652
760.67	43.246
760.85	50.802
761.03	46.100
761.21	52.419
761.38	43.800
761.56	52.566
761.74	42.941
761.92	53.451
762.10	41.235
762.28	50.707
762.46	42.990
762.63	49.855
762.81	49.816
762.99	49.252
763.17	48.005
763.35	53.753
763.53	49.938
763.70	55.892
763.88	51.563
764.06	54.633
764.24	52.333
764.42	57.915
764.60	53.160
764.77	53.865
764.95	53.579
765.13	54.104
765.31	54.735
765.49	54.800
765.66	52.628
765.84	54.889
766.02	54.163
766.20	51.525
766.38	50.808
766.56	53.438
766.73	51.118
766.91	50.672
767.09	52.123
767.27	53.497
767.45	46.324
767.62	50.204
767.80	44.729
767.98	54.164
768.16	45.387
768.33	49.753
768.51	44.586
768.69	50.134
768.87	44.626
769.05	50.676
769.22	43.008
769.40	50.543
769.58	46.636
769.76	48.507
769.94	44.868
770.11	47.694
770.29	48.082
770.47	48.815
770.65	42.394
770.82	49.861
771.00	44.526
771.18	47.750
771.36	40.218
771.53	49.453
771.71	42.077
771.89	53.872
772.07	45.139
772.25	47.667
772.42	43.234
772.60	46.379
772.78	44.632
772.96	53.573
773.13	41.340
773.31	43.820
773.49	43.877
773.67	48.488
773.84	38.084
774.02	47.777
774.20	36.160
774.37	47.359
774.55	41.971
774.73	46.003
774.91	43.367
775.08	41.321
775.26	44.831
775.44	48.756
775.62	40.860
775.79	44.615
775.97	40.133
776.15	39.421
776.32	37.379
776.50	51.359
776.68	40.547
776.86	44.195
777.03	39.920
777.21	43.779
777.39	40.396
777.56	44.814
777.74	38.405
777.92	41.326
778.10	37.694
778.27	46.117
778.45	40.161
778.63	44.353
778.80	39.116
778.98	39.952
779.16	43.091
779.34	40.954
779.51	39.212
779.69	45.959
779.87	37.213
780.04	42.536
780.22	34.594
780.40	46.800
780.57	42.878
780.75	44.205
780.93	47.574
781.10	41.065
781.28	46.731
781.46	41.798
781.63	41.254
781.81	47.697
781.99	36.450
782.16	38.103
782.34	32.948
782.52	38.065
782.69	38.500
782.87	39.455
783.05	32.390
783.22	41.721
783.40	32.314
783.58	40.495
783.75	36.567
783.93	43.431
784.11	35.976
784.28	40.011
784.46	31.924
784.64	38.032
784.81	28.262
784.99	44.474
785.17	37.046
785.34	37.205
785.52	34.942
785.69	30.394
785.87	31.264
786.05	39.836
786.22	34.966
786.40	36.744
786.58	39.081
786.75	41.772
786.93	35.664
787.11	37.964
787.28	31.110
787.46	39.580
787.63	32.487
787.81	38.854
787.99	37.328
788.16	37.760
788.34	32.704
788.51	39.949
788.69	38.678
788.87	40.443
789.04	29.820
789.22	45.850
789.39	36.722
789.57	40.268
789.75	38.761
789.92	39.534
790.10	35.802
790.27	41.925
790.45	35.523
790.63	40.845
790.80	37.818
790.98	41.188
791.15	37.979
791.33	39.578
791.51	27.506
791.68	40.413
791.86	44.291
792.03	39.045
792.21	27.065
792.39	42.388
792.56	34.168
792.74	35.739
792.91	34.586
793.09	35.701
793.26	28.880
793.44	39.547
793.62	26.201
793.79	35.496
793.97	34.901
794.14	36.906
794.32	35.484
794.49	44.287
794.67	26.040
794.84	29.988
795.02	27.761
795.20	36.196
795.37	34.129
795.55	35.522
795.72	34.620
795.90	31.349
796.07	35.522
796.25	37.435
796.42	31.824
796.60	34.423
796.77	32.822
796.95	34.452
797.13	26.425
797.30	38.644
797.48	32.108
797.65	42.625
797.83	27.819
798.00	39.675
798.18	31.013
798.35	31.160
798.53	32.720
798.70	41.982
798.88	32.644
799.05	35.522
799.23	28.810
799.40	39.302
799.58	32.649
799.75	35.553
799.93	30.282
800.10	35.376
800.28	28.281
800.45	33.780
800.63	26.129
800.80	33.839
800.98	28.816
801.15	34.313
801.33	26.921
801.50	35.078
801.68	25.960
801.85	31.695
802.03	32.841
802.20	34.613
802.38	31.262
802.55	34.150
802.73	32.300
802.90	33.247
803.08	29.227
803.25	40.261
803.43	32.234
803.60	37.769
803.78	31.011
803.95	33.310
804.13	29.981
804.30	34.747
804.48	23.899
804.65	38.247
804.83	28.193
805.00	29.167
805.17	28.487
805.35	32.018
805.52	22.085
805.70	34.750
805.87	33.333
806.05	35.729
806.22	29.034
806.40	29.755
806.57	30.658
806.75	43.236
806.92	34.597
807.09	37.693
807.27	33.980
807.44	40.898
807.62	25.305
807.79	32.388
807.97	25.286
808.14	36.878
808.31	28.723
808.49	25.266
808.66	27.164
808.84	28.636
809.01	28.227
809.19	27.142
809.36	37.746
809.53	26.862
809.71	34.319
809.88	34.955
810.06	33.612
810.23	30.612
810.41	27.724
810.58	38.134
810.75	24.286
810.93	24.883
811.10	29.393
811.28	26.807
811.45	31.309
811.62	20.647
811.80	21.763
811.97	29.118
812.15	35.367
812.32	28.497
812.49	35.418
812.67	25.825
812.84	28.595
813.02	32.749
813.19	24.536
813.36	27.151
813.54	15.883
813.71	33.741
813.89	22.799
814.06	32.362
814.23	30.132
814.41	28.109
814.58	33.061
814.75	35.817
814.93	24.887
815.10	29.342
815.28	16.926
815.45	22.222
815.62	28.452
815.80	20.787
815.97	25.616
816.14	29.777
816.32	27.856
816.49	26.821
816.66	28.214
816.84	25.926
817.01	23.388
817.18	28.723
817.36	27.877
817.53	26.793
817.71	17.895
817.88	27.445
818.05	23.567
818.23	29.274
818.40	17.016
818.57	27.325
818.75	17.735
818.92	23.184
819.09	24.704
819.27	23.542
819.44	21.504
819.61	27.326
819.79	22.041
819.96	33.709
820.13	29.359
820.31	26.842
820.48	34.685
820.65	31.536
820.82	29.182
821.00	31.355
821.17	26.813
821.34	34.831
821.52	36.512
821.69	40.896
821.86	38.922
822.04	44.362
822.21	46.044
822.38	51.919
822.56	51.030
822.73	55.655
822.90	53.924
823.07	55.473
823.25	54.930
823.42	56.568
823.59	53.854
823.77	55.672
823.94	55.266
824.11	56.273
824.29	56.816
824.46	55.272
824.63	55.190
824.80	55.858
824.98	51.052
825.15	53.121
825.32	47.697
825.49	52.496
825.67	46.175
825.84	51.598
826.01	47.902
826.19	47.294
826.36	43.201
826.53	46.631
826.70	43.644
826.88	48.347
827.05	45.814
827.22	45.348
827.39	46.386
827.57	46.154
827.74	45.018
827.91	50.937
828.08	42.799
828.26	50.211
828.43	44.645
828.60	50.973
828.77	48.384
828.95	52.204
829.12	44.255
829.29	40.719
829.46	42.369
829.64	39.788
829.81	35.123
829.98	43.289
830.15	36.419
830.32	32.711
830.50	32.128
830.67	33.076
830.84	27.897
831.01	28.501
831.19	24.751
831.36	30.025
831.53	29.092
831.70	30.915
831.87	25.214
832.05	32.896
832.22	24.681
832.39	20.385
832.56	17.527
832.74	26.251
832.91	17.388
833.08	33.527
833.25	21.946
833.42	19.643
833.60	27.893
833.77	22.682
833.94	31.820
834.11	32.271
834.28	31.557
834.45	36.247
834.63	33.760
834.80	42.620
834.97	36.538
835.14	43.094
835.31	37.128
835.49	41.209
835.66	39.111
835.83	36.174
836.00	34.317
836.17	36.642
836.34	28.236
836.52	32.555
836.69	37.295
836.86	32.437
837.03	31.074
837.20	31.301
837.37	26.590
837.55	16.820
837.72	23.412
837.89	30.922
838.06	28.279
838.23	26.500
838.40	23.226
838.58	20.594
838.75	23.529
838.92	27.586
839.09	28.747
839.26	28.134
839.43	22.187
839.60	23.498
839.78	28.327
839.95	25.124
840.12	22.198
840.29	29.227
840.46	12.945
840.63	25.478
840.80	20.437
840.98	28.977
841.15	27.528
841.32	23.364
841.49	16.651
841.66	29.575
841.83	20.336
842.00	20.237
842.17	22.066
842.34	21.294
842.52	22.660
842.69	16.591
842.86	20.713
843.03	32.962
843.20	12.164
843.37	23.923
843.54	24.816
843.71	25.224
843.88	29.101
844.06	24.167
844.23	26.241
844.40	2.740
844.57	13.772
844.74	20.927
844.91	16.420
845.08	22.975
845.25	12.833
845.42	7.961
845.59	10.751
845.76	24.231
845.94	33.272
846.11	3.689
846.28	12.397
846.45	24.405
846.62	10.482
846.79	13.660
846.96	37.182
847.13	27.288
847.30	22.801
847.47	23.540
847.64	10.667
847.81	28.746
847.98	23.107
848.15	28.995
848.32	34.432
848.50	8.911
848.67	11.563
848.84	29.837
849.01	11.329
849.18	9.692
849.35	24.786
849.52	23.653
849.69	28.416
849.86	20.550
850.03	19.955
850.20	18.089
850.37	17.822
850.54	14.087
850.71	37.325
850.88	32.871
851.05	30.867
851.22	2.302
851.39	15.638
851.56	19.223
851.73	14.168
851.90	20.501
852.07	29.126
852.24	12.421
852.41	31.535
852.58	22.247
852.75	1.905
852.92	2.941
853.09	17.742
853.26	27.019
853.43	22.472
853.60	22.222
853.77	21.343
853.94	23.474
854.11	8.034
854.28	49.169
854.45	2.535
854.62	19.818
854.79	38.053
854.96	28.499
855.13	18.640
855.30	18.158
855.47	5.307
855.64	22.573
855.81	29.773
855.98	34.737
856.15	0.995
856.32	26.823
856.49	13.092
856.66	29.655
856.83	17.571
857.00	11.364
857.17	32.126
857.34	27.840
857.51	12.099
857.68	25.000
857.85	19.483
858.02	32.258
858.19	27.891
858.36	19.697
858.53	5.340
858.70	35.990
858.87	31.611
859.04	20.763
859.21	-2.736
859.38	28.731
859.55	31.011
859.72	19.310
859.89	23.096
860.05	28.770
860.22	32.039
860.39	32.086
860.56	24.946
860.73	13.527
860.90	37.860
861.07	38.215
861.24	34.884
861.41	13.441
861.58	11.028
861.75	30.239
861.92	25.543
862.09	13.245
862.26	22.877
862.43	32.353
862.59	19.685
862.76	18.953
862.93	41.867
863.10	11.823
863.27	22.164
863.44	8.205
863.61	23.607
863.78	31.175
863.95	7.770
864.12	24.353
864.29	22.118
864.45	18.936
864.62	19.290
864.79	18.280
864.96	44.009
865.13	29.783
865.30	24.742
865.47	26.407
865.64	33.131
865.81	-4.190
865.97	30.000
866.14	-4.645
866.31	20.274
866.48	-19.540
866.65	16.545
866.82	25.553
866.99	22.705
867.16	-3.333
867.33	39.452
867.49	19.240
867.66	32.238
867.83	21.550
868.00	24.397
868.17	22.737
868.34	26.330
868.51	8.148
868.67	35.025
868.84	25.747
869.01	40.000
869.18	9.915
869.35	9.821
869.52	14.617
869.69	16.768
869.85	33.333
870.02	8.312
870.19	32.683
870.36	32.464
870.53	6.098
870.70	6.733
870.86	10.649
871.03	17.618
871.20	17.647
871.37	27.764
871.54	42.895
871.71	8.802
871.87	11.175
872.04	31.780
872.21	22.292
872.38	28.457
872.55	28.155
872.72	15.566
872.88	47.566
873.05	20.134
873.22	29.398
873.39	29.400
873.56	11.443
873.72	0.274
873.89	9.824
874.06	15.445
874.23	41.026
874.40	13.452
874.56	38.197
874.73	26.622
874.90	15.802
875.07	20.519
875.24	34.932
875.40	34.632
875.57	27.446
875.74	20.230
875.91	16.447
876.08	15.145
876.24	17.464
876.41	23.965
876.58	30.133
876.75	20.776
876.92	27.297
877.08	19.722
877.25	19.355
877.42	21.767
877.59	18.059
877.75	28.650
877.92	12.607
878.09	19.059
878.26	21.320
878.42	15.876
878.59	20.741
878.76	24.390
878.93	37.924
879.09	9.070
879.26	31.478
879.43	21.739
879.60	3.015
879.76	30.804
879.93	20.638
880.10	24.085
880.27	11.753
880.43	2.740
880.60	21.589
880.77	18.111
880.94	17.122
881.10	17.431
881.27	19.177
881.44	11.181
881.61	24.633
881.77	27.360
881.94	26.453
882.11	21.092
882.28	22.553
882.44	27.375
882.61	33.535
882.78	33.792
882.94	42.890
883.11	37.136
883.28	39.412
883.45	37.387
883.61	32.790
883.78	30.011
883.95	37.790
884.11	39.832
884.28	32.768
>>>>>End Processed Spectral Data<<<<<
