SpectraSuite Data File
++++++++++++++++++++++++++++++++++++
Date: Thu Sep 26 03:08:38 EST 2019
User: sgrac
Dark Spectrum Present: Yes
Reference Spectrum Present: Yes
Number of Sampled Component Spectra: 1
Spectrometers: USB4E01596
Integration Time (usec): 100000 (USB4E01596)
Spectra Averaged: 3 (USB4E01596)
Boxcar Smoothing: 0 (USB4E01596)
Correct for Electrical Dark: No (USB4E01596)
Strobe/Lamp Enabled: Yes (USB4E01596)
Correct for Detector Non-linearity: No (USB4E01596)
Correct for Stray Light: No (USB4E01596)
Number of Pixels in Processed Spectrum: 3648
>>>>>Begin Processed Spectral Data<<<<<
178.44	-875.000
178.66	-875.000
178.87	-875.000
179.09	-134.694
179.30	-71.429
179.52	-386.364
179.74	-258.333
179.95	-323.077
180.17	183.133
180.38	528.571
180.60	226.786
180.82	253.012
181.03	212.500
181.25	91.346
181.46	-296.774
181.68	180.000
181.89	493.333
182.11	-688.889
182.33	193.204
182.54	182.759
182.76	287.500
182.97	596.296
183.19	92.547
183.40	132.039
183.62	-137.500
183.84	221.739
184.05	1300.000
184.27	148.454
184.48	-294.444
184.70	1050.000
184.91	211.000
185.13	1200.000
185.34	178.378
185.56	1090.000
185.78	186.598
185.99	215.584
186.21	317.143
186.42	-113.333
186.64	538.095
186.85	154.082
187.07	187.143
187.28	119.298
187.50	765.217
187.72	600.000
187.93	302.128
188.15	441.509
188.36	521.875
188.58	1633.333
188.79	265.000
189.01	225.000
189.22	147.321
189.44	487.500
189.65	1288.889
189.87	472.973
190.09	509.677
190.30	306.349
190.52	-8100.000
190.73	-11300.000
190.95	683.333
191.16	122.018
191.38	83.696
191.59	500.000
191.81	193.103
192.02	613.333
192.24	100.000
192.45	149.474
192.67	342.553
192.88	289.744
193.10	117.442
193.31	59.551
193.53	794.118
193.74	190.244
193.96	173.750
194.18	573.684
194.39	181.739
194.61	1309.091
194.82	152.703
195.04	90.476
195.25	128.125
195.47	315.625
195.68	108.861
195.90	0.000
196.11	161.000
196.33	384.615
196.54	215.873
196.76	310.714
196.97	281.818
197.19	358.333
197.40	-253.333
197.62	232.727
197.83	111.765
198.05	181.132
198.26	239.437
198.48	683.333
198.69	0.000
198.91	1000.000
199.12	209.259
199.34	256.522
199.55	186.486
199.77	196.552
199.98	4300.000
200.20	143.939
200.41	146.729
200.63	528.571
200.84	182.609
201.06	131.897
201.27	428.571
201.49	405.000
201.70	-700.000
201.91	168.085
202.13	207.692
202.34	-177.083
202.56	257.576
202.77	680.000
202.99	388.235
203.20	170.492
203.42	181.818
203.63	184.615
203.85	83.212
204.06	84.211
204.28	92.857
204.49	476.471
204.71	129.577
204.92	-5750.000
205.14	28.571
205.35	121.739
205.56	425.000
205.78	159.322
205.99	216.981
206.21	140.741
206.42	184.091
206.64	337.500
206.85	117.857
207.07	100.000
207.28	94.017
207.50	201.515
207.71	466.667
207.93	-208.333
208.14	-681.818
208.35	316.000
208.57	105.556
208.78	174.000
209.00	231.579
209.21	3225.000
209.43	164.423
209.64	156.250
209.86	1140.000
210.07	285.366
210.28	-21.053
210.50	2800.000
210.71	430.000
210.93	113.793
211.14	338.462
211.36	505.263
211.57	305.357
211.78	571.429
212.00	441.667
212.21	213.793
212.43	209.524
212.64	163.107
212.86	217.949
213.07	153.509
213.29	993.333
213.50	200.000
213.71	87.903
213.93	118.182
214.14	156.731
214.36	126.471
214.57	297.872
214.78	167.073
215.00	217.647
215.21	98.765
215.43	222.222
215.64	179.348
215.86	86.331
216.07	716.000
216.28	83.544
216.50	57.547
216.71	151.220
216.93	295.238
217.14	1172.727
217.35	331.429
217.57	206.452
217.78	118.584
218.00	175.532
218.21	180.263
218.42	206.977
218.64	91.089
218.85	123.214
219.07	130.000
219.28	125.714
219.49	150.000
219.71	166.000
219.92	-1390.000
220.14	218.750
220.35	429.167
220.56	-3650.000
220.78	138.889
220.99	335.000
221.21	90.361
221.42	100.000
221.63	127.660
221.85	0.000
222.06	134.906
222.28	348.571
222.49	212.121
222.70	985.714
222.92	155.128
223.13	67.361
223.34	51.087
223.56	160.870
223.77	120.382
223.99	96.273
224.20	30.128
224.41	155.319
224.63	57.823
224.84	72.072
225.05	67.176
225.27	97.688
225.48	123.684
225.69	115.385
225.91	123.478
226.12	75.974
226.34	16.471
226.55	111.765
226.76	63.768
226.98	39.407
227.19	53.631
227.40	97.222
227.62	49.627
227.83	79.920
228.04	63.929
228.26	50.128
228.47	36.275
228.69	30.913
228.90	22.494
229.11	18.236
229.33	29.926
229.54	19.767
229.75	19.950
229.97	14.512
230.18	20.223
230.39	19.463
230.61	26.073
230.82	18.056
231.03	13.714
231.25	26.954
231.46	12.702
231.67	28.608
231.89	33.208
232.10	22.797
232.31	27.361
232.53	21.459
232.74	17.997
232.95	22.635
233.17	26.998
233.38	16.846
233.59	27.531
233.81	24.247
234.02	11.202
234.23	25.651
234.45	42.496
234.66	28.571
234.87	26.930
235.09	23.211
235.30	23.130
235.51	19.196
235.73	27.288
235.94	22.985
236.15	17.128
236.36	30.757
236.58	21.752
236.79	14.067
237.00	13.969
237.22	25.175
237.43	23.816
237.64	21.241
237.86	24.000
238.07	26.316
238.28	21.724
238.50	24.324
238.71	18.429
238.92	30.061
239.13	24.398
239.35	22.505
239.56	19.156
239.77	12.074
239.99	22.374
240.20	15.334
240.41	11.533
240.63	15.405
240.84	19.915
241.05	17.212
241.26	14.951
241.48	19.906
241.69	15.711
241.90	14.075
242.12	15.900
242.33	20.750
242.54	8.608
242.75	9.147
242.97	16.897
243.18	8.425
243.39	9.914
243.61	13.657
243.82	12.543
244.03	10.854
244.24	10.198
244.46	12.147
244.67	13.923
244.88	18.373
245.09	11.673
245.31	13.821
245.52	14.680
245.73	9.358
245.95	18.216
246.16	13.929
246.37	12.314
246.58	4.470
246.80	9.538
247.01	14.256
247.22	10.793
247.43	13.676
247.65	14.335
247.86	13.184
248.07	11.456
248.28	14.289
248.50	14.690
248.71	10.064
248.92	12.660
249.13	11.661
249.35	14.473
249.56	11.680
249.77	11.713
249.98	9.897
250.20	13.212
250.41	14.613
250.62	15.034
250.83	11.717
251.05	16.064
251.26	13.984
251.47	12.740
251.68	15.806
251.90	9.764
252.11	9.785
252.32	12.634
252.53	12.413
252.75	12.044
252.96	14.236
253.17	13.968
253.38	9.991
253.59	11.641
253.81	11.214
254.02	9.627
254.23	9.356
254.44	13.934
254.66	8.828
254.87	10.278
255.08	9.425
255.29	15.446
255.50	9.423
255.72	10.871
255.93	9.382
256.14	16.667
256.35	12.708
256.57	14.580
256.78	9.266
256.99	15.423
257.20	12.921
257.41	10.474
257.63	5.911
257.84	10.983
258.05	17.590
258.26	8.054
258.47	5.779
258.69	10.940
258.90	8.183
259.11	8.203
259.32	8.832
259.53	9.359
259.75	5.651
259.96	5.424
260.17	7.665
260.38	9.235
260.59	9.886
260.81	11.312
261.02	10.926
261.23	10.546
261.44	10.526
261.65	11.432
261.87	11.092
262.08	11.578
262.29	13.019
262.50	8.064
262.71	7.186
262.92	12.029
263.14	8.718
263.35	8.673
263.56	7.297
263.77	9.982
263.98	9.499
264.20	10.924
264.41	4.637
264.62	7.512
264.83	4.031
265.04	15.311
265.25	10.597
265.47	10.789
265.68	12.005
265.89	8.984
266.10	7.581
266.31	14.664
266.52	6.984
266.74	9.605
266.95	8.625
267.16	9.809
267.37	8.274
267.58	10.537
267.79	7.183
268.01	8.394
268.22	9.416
268.43	10.669
268.64	10.096
268.85	8.429
269.06	8.120
269.27	11.223
269.49	6.881
269.70	7.432
269.91	9.065
270.12	6.852
270.33	9.779
270.54	8.502
270.75	4.746
270.97	7.498
271.18	5.400
271.39	8.888
271.60	10.155
271.81	7.856
272.02	5.471
272.23	9.712
272.45	6.647
272.66	6.560
272.87	8.329
273.08	7.060
273.29	8.500
273.50	9.695
273.71	8.420
273.92	9.121
274.14	9.262
274.35	8.123
274.56	9.542
274.77	10.012
274.98	9.016
275.19	8.285
275.40	8.009
275.61	6.953
275.83	8.589
276.04	10.712
276.25	8.353
276.46	9.395
276.67	10.542
276.88	11.412
277.09	9.112
277.30	11.449
277.51	7.567
277.73	8.470
277.94	5.509
278.15	11.881
278.36	10.443
278.57	6.101
278.78	7.509
278.99	9.460
279.20	9.408
279.41	10.905
279.62	7.942
279.84	7.917
280.05	5.705
280.26	6.225
280.47	9.654
280.68	7.025
280.89	8.524
281.10	8.601
281.31	5.145
281.52	9.662
281.73	6.535
281.94	7.816
282.16	8.611
282.37	7.909
282.58	7.327
282.79	12.543
283.00	10.794
283.21	5.776
283.42	6.281
283.63	7.853
283.84	5.283
284.05	7.930
284.26	7.246
284.47	9.403
284.68	9.633
284.89	7.324
285.11	6.893
285.32	7.711
285.53	9.195
285.74	9.050
285.95	8.022
286.16	8.094
286.37	8.461
286.58	7.928
286.79	7.411
287.00	9.161
287.21	8.741
287.42	8.974
287.63	8.440
287.84	7.584
288.05	9.880
288.26	8.691
288.48	7.292
288.69	8.643
288.90	8.321
289.11	11.542
289.32	9.843
289.53	8.447
289.74	5.980
289.95	6.717
290.16	7.430
290.37	7.856
290.58	8.135
290.79	5.808
291.00	7.365
291.21	7.691
291.42	6.546
291.63	7.589
291.84	10.834
292.05	7.448
292.26	8.820
292.47	8.416
292.68	7.487
292.89	9.050
293.10	8.308
293.31	8.989
293.52	4.775
293.73	5.990
293.94	9.176
294.15	8.126
294.36	6.462
294.57	9.367
294.79	8.550
295.00	5.611
295.21	10.665
295.42	9.977
295.63	8.411
295.84	9.937
296.05	6.873
296.26	8.608
296.47	9.488
296.68	9.614
296.89	8.825
297.10	12.130
297.31	8.911
297.52	9.063
297.73	11.231
297.94	10.486
298.15	10.879
298.36	10.952
298.57	11.599
298.78	11.644
298.99	9.064
299.20	10.723
299.41	11.455
299.62	11.411
299.83	9.785
300.04	11.781
300.25	11.802
300.46	11.550
300.67	10.506
300.88	14.072
301.09	7.242
301.30	11.462
301.50	9.093
301.71	13.377
301.92	13.769
302.13	10.528
302.34	10.845
302.55	10.020
302.76	9.463
302.97	12.276
303.18	9.475
303.39	8.869
303.60	8.415
303.81	12.407
304.02	6.403
304.23	10.905
304.44	6.327
304.65	9.669
304.86	11.064
305.07	9.410
305.28	10.403
305.49	14.750
305.70	12.724
305.91	11.080
306.12	8.753
306.33	11.134
306.54	10.652
306.75	10.825
306.96	13.495
307.17	10.862
307.38	9.160
307.58	10.244
307.79	11.337
308.00	11.383
308.21	9.760
308.42	11.377
308.63	9.362
308.84	10.975
309.05	8.901
309.26	9.698
309.47	11.772
309.68	9.430
309.89	12.092
310.10	10.802
310.31	10.357
310.52	11.293
310.73	13.705
310.94	11.704
311.14	11.359
311.35	13.886
311.56	12.751
311.77	11.632
311.98	10.846
312.19	11.320
312.40	10.253
312.61	12.200
312.82	11.498
313.03	13.203
313.24	11.843
313.45	15.608
313.66	11.868
313.86	12.332
314.07	11.313
314.28	12.674
314.49	10.634
314.70	11.616
314.91	15.221
315.12	13.137
315.33	13.328
315.54	9.217
315.75	11.116
315.96	9.334
316.16	7.675
316.37	12.981
316.58	11.408
316.79	11.355
317.00	13.639
317.21	11.599
317.42	14.378
317.63	13.688
317.84	8.474
318.05	13.227
318.25	10.599
318.46	11.985
318.67	10.004
318.88	13.391
319.09	14.435
319.30	10.463
319.51	9.961
319.72	14.034
319.93	11.845
320.13	8.200
320.34	11.885
320.55	12.252
320.76	13.093
320.97	12.480
321.18	14.140
321.39	12.457
321.60	10.097
321.80	14.403
322.01	12.497
322.22	12.015
322.43	9.296
322.64	10.323
322.85	11.818
323.06	15.629
323.27	14.606
323.47	15.069
323.68	12.248
323.89	13.345
324.10	16.125
324.31	10.791
324.52	16.122
324.73	14.758
324.93	13.976
325.14	14.908
325.35	14.641
325.56	14.569
325.77	15.456
325.98	13.455
326.19	13.693
326.39	12.444
326.60	15.163
326.81	16.490
327.02	11.248
327.23	13.330
327.44	17.558
327.64	13.238
327.85	12.327
328.06	18.104
328.27	20.383
328.48	19.935
328.69	13.809
328.90	17.688
329.10	14.199
329.31	16.972
329.52	16.176
329.73	19.786
329.94	15.233
330.15	18.655
330.35	16.823
330.56	17.258
330.77	17.321
330.98	17.306
331.19	17.072
331.39	16.677
331.60	15.679
331.81	16.974
332.02	19.367
332.23	17.284
332.44	16.881
332.64	21.899
332.85	18.960
333.06	19.173
333.27	15.366
333.48	19.597
333.68	19.817
333.89	20.312
334.10	15.386
334.31	21.431
334.52	18.643
334.72	19.476
334.93	17.998
335.14	17.135
335.35	18.225
335.56	23.505
335.76	17.164
335.97	22.045
336.18	15.855
336.39	24.532
336.60	19.762
336.80	20.000
337.01	19.511
337.22	21.681
337.43	20.509
337.64	24.601
337.84	21.284
338.05	21.054
338.26	21.649
338.47	23.307
338.68	16.655
338.88	22.983
339.09	19.537
339.30	23.649
339.51	20.515
339.71	23.282
339.92	19.119
340.13	21.603
340.34	20.202
340.55	21.745
340.75	22.012
340.96	19.377
341.17	24.462
341.38	21.725
341.58	20.599
341.79	21.460
342.00	17.924
342.21	22.389
342.41	18.641
342.62	22.569
342.83	23.081
343.04	18.982
343.24	22.124
343.45	24.261
343.66	20.908
343.87	22.844
344.07	19.485
344.28	24.155
344.49	22.469
344.70	24.794
344.90	20.645
345.11	22.496
345.32	20.628
345.53	21.718
345.73	22.253
345.94	25.077
346.15	24.886
346.36	23.858
346.56	23.513
346.77	25.275
346.98	21.099
347.19	24.670
347.39	23.453
347.60	23.039
347.81	22.464
348.02	23.523
348.22	19.341
348.43	21.945
348.64	20.801
348.84	23.160
349.05	21.482
349.26	25.174
349.47	19.513
349.67	20.522
349.88	22.203
350.09	22.381
350.30	22.624
350.50	23.129
350.71	23.103
350.92	23.589
351.12	22.861
351.33	23.180
351.54	21.810
351.74	22.414
351.95	20.906
352.16	22.940
352.37	23.402
352.57	22.072
352.78	21.270
352.99	24.203
353.19	21.129
353.40	23.449
353.61	24.306
353.82	23.111
354.02	21.673
354.23	23.094
354.44	23.031
354.64	21.955
354.85	23.796
355.06	24.408
355.26	20.981
355.47	21.619
355.68	24.123
355.88	23.621
356.09	23.252
356.30	23.944
356.51	24.302
356.71	23.620
356.92	20.570
357.13	23.842
357.33	25.110
357.54	22.550
357.75	20.042
357.95	24.284
358.16	21.855
358.37	25.093
358.57	22.636
358.78	25.222
358.99	22.127
359.19	22.826
359.40	24.889
359.61	23.141
359.81	23.539
360.02	25.022
360.23	22.259
360.43	23.252
360.64	22.160
360.85	22.787
361.05	20.283
361.26	23.334
361.47	22.730
361.67	25.381
361.88	21.233
362.09	23.767
362.29	21.998
362.50	22.803
362.70	21.755
362.91	24.559
363.12	22.068
363.32	23.307
363.53	23.695
363.74	23.625
363.94	20.933
364.15	24.213
364.36	23.195
364.56	22.060
364.77	22.145
364.98	24.748
365.18	22.475
365.39	24.895
365.59	20.723
365.80	22.970
366.01	23.318
366.21	21.109
366.42	20.134
366.63	22.660
366.83	19.807
367.04	19.671
367.24	22.450
367.45	20.958
367.66	20.313
367.86	22.664
368.07	19.880
368.28	21.945
368.48	20.314
368.69	19.305
368.89	20.923
369.10	21.323
369.31	20.353
369.51	22.161
369.72	21.069
369.92	23.061
370.13	19.254
370.34	21.576
370.54	16.734
370.75	20.976
370.95	17.712
371.16	21.346
371.37	18.909
371.57	20.718
371.78	19.331
371.98	20.742
372.19	20.589
372.40	22.381
372.60	20.815
372.81	19.677
373.01	17.903
373.22	19.941
373.43	20.789
373.63	21.338
373.84	20.555
374.04	20.790
374.25	19.719
374.46	21.465
374.66	19.853
374.87	21.156
375.07	17.067
375.28	18.417
375.48	19.452
375.69	20.454
375.90	17.143
376.10	18.837
376.31	18.108
376.51	18.416
376.72	17.787
376.92	18.692
377.13	18.783
377.34	20.008
377.54	19.138
377.75	20.458
377.95	19.063
378.16	20.172
378.36	19.624
378.57	20.817
378.77	19.119
378.98	20.326
379.19	19.548
379.39	18.441
379.60	18.982
379.80	20.009
380.01	20.329
380.21	18.957
380.42	20.300
380.62	20.330
380.83	19.069
381.04	18.456
381.24	19.189
381.45	20.008
381.65	17.798
381.86	18.591
382.06	19.734
382.27	17.227
382.47	17.259
382.68	20.010
382.88	16.442
383.09	17.660
383.29	17.657
383.50	19.759
383.71	17.655
383.91	18.422
384.12	17.671
384.32	18.222
384.53	17.314
384.73	17.455
384.94	17.338
385.14	17.914
385.35	16.614
385.55	19.251
385.76	16.621
385.96	18.657
386.17	17.292
386.37	18.722
386.58	16.985
386.78	18.854
386.99	16.358
387.19	18.521
387.40	16.832
387.60	19.765
387.81	17.784
388.01	17.153
388.22	18.214
388.42	19.096
388.63	18.109
388.83	19.244
389.04	15.986
389.24	18.346
389.45	16.423
389.65	17.145
389.86	16.305
390.06	15.491
390.27	15.908
390.47	17.965
390.68	16.022
390.88	17.159
391.09	18.046
391.29	18.027
391.50	17.680
391.70	18.239
391.91	16.588
392.11	17.335
392.32	18.332
392.52	17.956
392.73	17.448
392.93	17.536
393.14	16.934
393.34	17.568
393.55	17.090
393.75	17.536
393.95	16.831
394.16	17.933
394.36	17.614
394.57	18.519
394.77	16.925
394.98	17.281
395.18	17.440
395.39	17.303
395.59	17.456
395.80	18.228
396.00	17.320
396.21	18.146
396.41	15.810
396.61	17.772
396.82	16.627
397.02	18.982
397.23	16.644
397.43	17.444
397.64	15.327
397.84	18.446
398.05	15.597
398.25	17.427
398.45	16.110
398.66	17.102
398.86	16.628
399.07	17.671
399.27	16.414
399.48	17.559
399.68	16.590
399.89	16.656
400.09	16.517
400.29	16.850
400.50	15.482
400.70	16.384
400.91	15.447
401.11	17.115
401.32	16.072
401.52	15.943
401.72	16.346
401.93	17.433
402.13	16.431
402.34	15.744
402.54	16.320
402.75	17.065
402.95	14.495
403.15	17.353
403.36	14.006
403.56	17.008
403.77	15.433
403.97	15.907
404.17	15.207
404.38	16.836
404.58	15.490
404.79	16.846
404.99	16.130
405.19	16.253
405.40	16.128
405.60	16.746
405.81	15.548
406.01	15.636
406.21	15.366
406.42	16.840
406.62	16.526
406.83	17.205
407.03	16.111
407.23	15.708
407.44	15.858
407.64	16.547
407.85	16.116
408.05	16.799
408.25	15.113
408.46	17.291
408.66	14.839
408.87	16.246
409.07	15.432
409.27	15.793
409.48	15.165
409.68	16.067
409.88	14.347
410.09	15.677
410.29	15.787
410.50	16.307
410.70	14.265
410.90	15.258
411.11	14.725
411.31	15.112
411.51	15.610
411.72	16.186
411.92	14.918
412.12	15.134
412.33	14.236
412.53	14.844
412.74	13.855
412.94	15.374
413.14	15.232
413.35	15.112
413.55	14.832
413.75	16.296
413.96	13.336
414.16	15.357
414.36	14.775
414.57	14.724
414.77	14.095
414.97	16.073
415.18	14.834
415.38	14.965
415.58	14.653
415.79	14.574
415.99	14.432
416.19	15.866
416.40	15.364
416.60	15.354
416.80	15.213
417.01	15.629
417.21	14.586
417.41	16.241
417.62	15.932
417.82	15.801
418.02	14.298
418.23	15.874
418.43	15.053
418.63	15.830
418.84	15.674
419.04	15.709
419.24	16.204
419.45	15.622
419.65	15.845
419.85	15.853
420.06	15.897
420.26	15.994
420.46	15.874
420.67	15.986
420.87	15.979
421.07	16.365
421.28	16.090
421.48	15.947
421.68	16.124
421.88	15.943
422.09	15.870
422.29	15.943
422.49	15.762
422.70	15.800
422.90	15.779
423.10	16.035
423.31	15.688
423.51	16.016
423.71	15.542
423.91	15.536
424.12	15.905
424.32	16.120
424.52	15.546
424.73	15.202
424.93	15.717
425.13	15.409
425.33	15.710
425.54	15.899
425.74	15.960
425.94	15.804
426.15	15.347
426.35	15.880
426.55	15.709
426.75	15.940
426.96	15.478
427.16	15.560
427.36	15.438
427.57	16.013
427.77	15.263
427.97	15.434
428.17	15.487
428.38	15.306
428.58	14.768
428.78	15.797
428.98	14.145
429.19	15.138
429.39	14.552
429.59	14.742
429.79	14.080
430.00	14.700
430.20	14.125
430.40	14.592
430.60	13.909
430.81	14.686
431.01	14.512
431.21	15.251
431.41	14.088
431.62	14.281
431.82	14.769
432.02	15.137
432.22	14.272
432.43	14.087
432.63	13.991
432.83	14.261
433.03	14.438
433.24	14.753
433.44	14.045
433.64	15.091
433.84	14.179
434.05	15.119
434.25	14.555
434.45	14.933
434.65	15.642
434.85	15.338
435.06	14.742
435.26	15.583
435.46	15.312
435.66	15.184
435.87	14.442
436.07	14.553
436.27	14.811
436.47	14.779
436.67	14.475
436.88	14.874
437.08	13.853
437.28	14.570
437.48	13.837
437.69	14.374
437.89	14.438
438.09	14.929
438.29	14.191
438.49	15.190
438.70	14.242
438.90	14.358
439.10	14.203
439.30	14.805
439.50	14.609
439.71	14.434
439.91	14.889
440.11	14.808
440.31	14.137
440.51	14.333
440.72	14.518
440.92	14.516
441.12	14.760
441.32	15.092
441.52	14.862
441.72	14.837
441.93	14.799
442.13	14.624
442.33	14.246
442.53	14.647
442.73	14.254
442.94	15.024
443.14	14.543
443.34	14.728
443.54	14.742
443.74	14.596
443.94	14.602
444.15	14.558
444.35	14.337
444.55	14.603
444.75	14.922
444.95	14.335
445.15	14.094
445.36	14.289
445.56	13.832
445.76	14.306
445.96	14.284
446.16	14.330
446.36	14.209
446.57	14.682
446.77	14.027
446.97	14.726
447.17	14.441
447.37	14.107
447.57	14.673
447.77	14.582
447.98	14.441
448.18	14.215
448.38	14.522
448.58	14.473
448.78	14.657
448.98	14.623
449.18	14.516
449.39	14.656
449.59	14.441
449.79	14.862
449.99	14.202
450.19	14.199
450.39	14.225
450.59	14.470
450.79	14.091
451.00	14.096
451.20	14.819
451.40	14.411
451.60	13.979
451.80	14.516
452.00	14.345
452.20	14.317
452.40	13.668
452.61	14.202
452.81	13.962
453.01	14.229
453.21	13.829
453.41	14.287
453.61	13.810
453.81	14.337
454.01	13.426
454.21	13.919
454.42	14.442
454.62	14.184
454.82	13.570
455.02	14.444
455.22	13.566
455.42	14.111
455.62	13.543
455.82	13.743
456.02	13.809
456.23	14.111
456.43	13.886
456.63	14.276
456.83	13.388
457.03	13.690
457.23	14.031
457.43	14.014
457.63	13.220
457.83	14.313
458.03	13.682
458.23	14.015
458.43	13.492
458.64	14.212
458.84	13.869
459.04	14.090
459.24	13.827
459.44	14.214
459.64	13.533
459.84	14.076
460.04	13.861
460.24	14.199
460.44	14.168
460.64	14.436
460.84	13.976
461.04	14.209
461.24	14.346
461.45	14.038
461.65	14.263
461.85	13.942
462.05	14.065
462.25	14.637
462.45	14.396
462.65	14.523
462.85	13.910
463.05	14.018
463.25	13.035
463.45	14.413
463.65	14.005
463.85	13.995
464.05	13.605
464.25	13.886
464.45	13.861
464.65	13.952
464.85	13.609
465.05	13.591
465.26	13.821
465.46	13.865
465.66	13.612
465.86	14.224
466.06	13.715
466.26	14.030
466.46	13.046
466.66	13.770
466.86	13.692
467.06	13.800
467.26	13.488
467.46	14.305
467.66	13.462
467.86	13.755
468.06	13.198
468.26	13.816
468.46	13.499
468.66	14.132
468.86	13.228
469.06	13.985
469.26	13.116
469.46	13.601
469.66	13.211
469.86	13.815
470.06	13.784
470.26	13.609
470.46	12.919
470.66	14.073
470.86	13.235
471.06	13.911
471.26	13.021
471.46	13.507
471.66	13.589
471.86	13.602
472.06	13.469
472.26	14.325
472.46	13.737
472.66	13.798
472.86	13.602
473.06	13.752
473.26	13.472
473.46	13.521
473.66	13.158
473.86	13.958
474.06	13.502
474.26	13.814
474.46	13.748
474.66	13.977
474.86	13.483
475.06	14.217
475.26	13.227
475.46	13.335
475.66	13.231
475.86	13.964
476.06	13.338
476.26	14.047
476.46	13.627
476.66	13.853
476.86	13.149
477.06	14.103
477.26	13.274
477.46	13.979
477.65	13.693
477.85	13.834
478.05	13.337
478.25	14.133
478.45	13.602
478.65	14.138
478.85	13.742
479.05	13.801
479.25	13.843
479.45	14.071
479.65	13.668
479.85	14.057
480.05	14.030
480.25	14.095
480.45	13.976
480.65	14.384
480.85	13.834
481.05	14.052
481.25	14.027
481.44	13.950
481.64	13.793
481.84	14.262
482.04	14.120
482.24	14.025
482.44	13.896
482.64	14.012
482.84	13.884
483.04	14.199
483.24	14.111
483.44	13.913
483.64	13.860
483.84	14.160
484.04	14.213
484.23	14.079
484.43	14.332
484.63	14.460
484.83	14.794
485.03	15.139
485.23	15.029
485.43	14.946
485.63	14.564
485.83	14.453
486.03	14.651
486.23	14.742
486.42	14.550
486.62	14.387
486.82	14.366
487.02	14.142
487.22	14.336
487.42	14.346
487.62	14.233
487.82	14.235
488.02	14.081
488.22	14.315
488.41	14.408
488.61	14.366
488.81	14.398
489.01	14.626
489.21	14.603
489.41	14.337
489.61	14.539
489.81	14.563
490.01	14.211
490.20	14.314
490.40	14.456
490.60	14.414
490.80	14.397
491.00	14.325
491.20	14.217
491.40	14.269
491.60	14.261
491.79	14.255
491.99	14.451
492.19	14.082
492.39	14.240
492.59	14.320
492.79	14.338
492.99	14.357
493.19	14.477
493.38	14.295
493.58	14.441
493.78	14.542
493.98	14.753
494.18	14.539
494.38	14.413
494.58	14.453
494.77	14.574
494.97	14.095
495.17	14.510
495.37	14.492
495.57	13.937
495.77	14.571
495.96	14.229
496.16	14.622
496.36	14.232
496.56	14.601
496.76	14.024
496.96	14.586
497.15	14.374
497.35	14.461
497.55	14.221
497.75	14.727
497.95	14.112
498.15	14.311
498.34	14.437
498.54	14.396
498.74	14.982
498.94	14.624
499.14	14.293
499.34	14.429
499.53	14.375
499.73	14.226
499.93	14.381
500.13	14.583
500.33	14.397
500.52	14.569
500.72	13.977
500.92	14.354
501.12	14.118
501.32	14.220
501.52	14.147
501.71	14.520
501.91	14.055
502.11	14.654
502.31	13.774
502.51	14.731
502.70	14.436
502.90	14.526
503.10	14.414
503.30	14.724
503.50	14.520
503.69	14.285
503.89	14.337
504.09	14.375
504.29	14.026
504.48	14.586
504.68	14.661
504.88	14.370
505.08	14.474
505.28	14.546
505.47	14.764
505.67	14.620
505.87	14.871
506.07	14.446
506.27	14.302
506.46	14.447
506.66	14.556
506.86	14.211
507.06	14.738
507.25	14.484
507.45	14.534
507.65	14.605
507.85	14.238
508.04	14.886
508.24	14.403
508.44	14.710
508.64	14.177
508.83	14.526
509.03	14.601
509.23	15.265
509.43	14.211
509.63	14.943
509.82	14.422
510.02	14.680
510.22	14.656
510.42	14.826
510.61	14.673
510.81	14.956
511.01	14.692
511.21	14.852
511.40	14.723
511.60	15.035
511.80	14.983
511.99	14.815
512.19	15.004
512.39	14.839
512.59	14.555
512.78	14.929
512.98	15.029
513.18	14.849
513.38	14.943
513.57	14.733
513.77	14.811
513.97	14.809
514.17	15.291
514.36	15.119
514.56	14.765
514.76	14.981
514.95	14.736
515.15	14.830
515.35	14.722
515.55	15.073
515.74	15.012
515.94	14.978
516.14	14.531
516.33	14.896
516.53	14.759
516.73	14.960
516.93	14.672
517.12	14.801
517.32	14.872
517.52	15.345
517.71	14.938
517.91	15.093
518.11	15.104
518.30	14.995
518.50	14.549
518.70	14.968
518.90	15.050
519.09	15.204
519.29	14.915
519.49	15.057
519.68	14.940
519.88	14.876
520.08	15.058
520.27	15.219
520.47	15.050
520.67	14.992
520.86	15.035
521.06	15.243
521.26	14.915
521.45	15.343
521.65	15.261
521.85	15.294
522.04	15.166
522.24	15.074
522.44	14.871
522.63	15.148
522.83	14.938
523.03	15.084
523.22	15.075
523.42	15.185
523.62	15.178
523.81	14.905
524.01	14.774
524.21	15.474
524.40	15.008
524.60	15.186
524.80	14.838
524.99	15.318
525.19	14.932
525.39	15.068
525.58	15.134
525.78	15.032
525.98	14.809
526.17	15.262
526.37	15.348
526.57	15.253
526.76	15.331
526.96	15.404
527.15	15.106
527.35	15.292
527.55	15.379
527.74	15.340
527.94	15.399
528.14	15.444
528.33	15.212
528.53	14.891
528.72	15.337
528.92	15.461
529.12	15.454
529.31	15.452
529.51	15.764
529.71	15.584
529.90	15.652
530.10	15.825
530.29	15.868
530.49	15.771
530.69	15.644
530.88	15.650
531.08	15.746
531.28	15.730
531.47	15.658
531.67	15.707
531.86	15.600
532.06	15.386
532.26	15.385
532.45	15.375
532.65	15.507
532.84	15.212
533.04	15.516
533.24	15.527
533.43	15.533
533.63	15.475
533.82	15.677
534.02	15.604
534.22	15.510
534.41	15.792
534.61	15.555
534.80	15.646
535.00	15.935
535.19	15.699
535.39	15.865
535.59	15.912
535.78	15.701
535.98	15.661
536.17	15.795
536.37	15.859
536.57	15.963
536.76	15.765
536.96	15.726
537.15	15.940
537.35	15.761
537.54	16.086
537.74	15.724
537.93	16.101
538.13	15.879
538.33	15.784
538.52	15.957
538.72	15.913
538.91	16.095
539.11	16.108
539.30	15.713
539.50	15.681
539.70	16.121
539.89	15.906
540.09	15.803
540.28	16.244
540.48	15.741
540.67	15.951
540.87	15.975
541.06	16.356
541.26	16.015
541.45	16.153
541.65	16.034
541.85	16.363
542.04	16.213
542.24	16.442
542.43	16.153
542.63	16.402
542.82	16.348
543.02	16.385
543.21	16.550
543.41	16.550
543.60	16.756
543.80	16.630
543.99	16.526
544.19	16.372
544.38	16.683
544.58	16.461
544.77	16.325
544.97	16.358
545.16	16.539
545.36	16.751
545.56	16.957
545.75	16.346
545.95	16.345
546.14	16.481
546.34	16.522
546.53	16.358
546.73	16.314
546.92	16.921
547.12	16.656
547.31	16.836
547.51	17.215
547.70	17.075
547.90	16.689
548.09	16.719
548.29	17.240
548.48	17.128
548.68	17.459
548.87	17.270
549.07	17.108
549.26	16.903
549.46	16.934
549.65	16.931
549.84	17.162
550.04	17.097
550.23	17.478
550.43	17.475
550.62	17.656
550.82	17.402
551.01	17.203
551.21	17.184
551.40	16.895
551.60	17.625
551.79	17.381
551.99	17.233
552.18	17.072
552.38	17.862
552.57	17.887
552.77	17.456
552.96	17.699
553.16	18.281
553.35	18.327
553.54	17.956
553.74	17.967
553.93	18.205
554.13	18.247
554.32	18.270
554.52	18.206
554.71	18.584
554.91	18.171
555.10	18.555
555.29	18.216
555.49	18.231
555.68	18.190
555.88	18.366
556.07	18.588
556.27	18.543
556.46	18.764
556.66	18.726
556.85	18.810
557.04	18.395
557.24	19.551
557.43	18.886
557.63	19.030
557.82	19.679
558.02	19.234
558.21	19.458
558.40	18.655
558.60	19.078
558.79	19.470
558.99	19.568
559.18	19.246
559.38	19.642
559.57	20.061
559.76	20.305
559.96	20.372
560.15	19.804
560.35	19.881
560.54	19.870
560.73	19.801
560.93	20.689
561.12	20.225
561.32	20.333
561.51	20.622
561.70	21.478
561.90	20.395
562.09	20.958
562.29	20.719
562.48	20.960
562.67	20.862
562.87	20.692
563.06	21.636
563.26	21.197
563.45	20.999
563.64	21.496
563.84	21.739
564.03	21.647
564.23	21.931
564.42	22.511
564.61	21.254
564.81	21.548
565.00	21.340
565.20	22.408
565.39	21.937
565.58	22.163
565.78	22.047
565.97	22.617
566.16	22.427
566.36	22.702
566.55	22.393
566.74	22.957
566.94	22.820
567.13	23.210
567.33	23.133
567.52	22.948
567.71	23.071
567.91	23.195
568.10	23.184
568.29	23.516
568.49	23.318
568.68	23.378
568.87	23.302
569.07	23.918
569.26	23.564
569.45	24.166
569.65	23.407
569.84	24.194
570.04	23.877
570.23	24.494
570.42	23.644
570.62	23.876
570.81	24.176
571.00	24.167
571.20	24.122
571.39	24.238
571.58	24.157
571.78	24.367
571.97	24.930
572.16	25.211
572.36	24.894
572.55	24.818
572.74	24.878
572.94	24.903
573.13	24.827
573.32	24.539
573.51	24.880
573.71	25.366
573.90	24.879
574.09	25.032
574.29	24.880
574.48	25.401
574.67	25.577
574.87	25.499
575.06	25.223
575.25	25.380
575.45	25.346
575.64	25.942
575.83	25.684
576.03	25.489
576.22	25.739
576.41	25.241
576.60	26.144
576.80	25.485
576.99	25.842
577.18	25.606
577.38	25.710
577.57	25.968
577.76	25.807
577.95	26.076
578.15	25.475
578.34	26.464
578.53	25.620
578.73	26.219
578.92	25.546
579.11	26.136
579.30	26.184
579.50	25.516
579.69	25.275
579.88	25.352
580.08	25.999
580.27	26.191
580.46	26.235
580.65	26.064
580.85	25.882
581.04	26.069
581.23	26.184
581.42	26.159
581.62	26.114
581.81	26.059
582.00	25.010
582.19	26.489
582.39	25.517
582.58	25.522
582.77	25.652
582.96	26.175
583.16	25.279
583.35	25.648
583.54	25.789
583.73	25.901
583.93	25.701
584.12	26.378
584.31	25.918
584.50	25.490
584.70	25.203
584.89	25.797
585.08	25.701
585.27	26.060
585.47	25.467
585.66	25.624
585.85	25.042
586.04	25.571
586.24	25.502
586.43	26.096
586.62	25.300
586.81	25.536
587.00	25.542
587.20	25.141
587.39	25.332
587.58	25.660
587.77	25.116
587.97	25.803
588.16	25.731
588.35	25.183
588.54	25.090
588.73	25.767
588.93	25.791
589.12	25.534
589.31	26.022
589.50	25.879
589.69	25.304
589.89	26.012
590.08	24.849
590.27	25.867
590.46	25.738
590.65	25.789
590.85	25.513
591.04	25.830
591.23	25.948
591.42	26.830
591.61	25.445
591.81	25.921
592.00	25.640
592.19	26.444
592.38	25.384
592.57	25.946
592.77	25.676
592.96	26.075
593.15	26.161
593.34	25.755
593.53	25.971
593.72	25.842
593.92	25.671
594.11	25.978
594.30	25.722
594.49	26.531
594.68	25.476
594.87	25.702
595.07	25.976
595.26	25.903
595.45	26.210
595.64	26.252
595.83	26.049
596.02	26.042
596.22	26.234
596.41	26.975
596.60	25.937
596.79	26.245
596.98	26.686
597.17	26.548
597.37	26.068
597.56	26.748
597.75	26.051
597.94	26.757
598.13	26.578
598.32	26.784
598.51	26.614
598.71	27.143
598.90	26.554
599.09	26.718
599.28	26.943
599.47	27.429
599.66	27.211
599.85	27.503
600.05	27.023
600.24	27.190
600.43	26.439
600.62	27.391
600.81	26.855
601.00	27.636
601.19	27.072
601.38	27.977
601.58	27.899
601.77	27.998
601.96	27.430
602.15	28.114
602.34	26.944
602.53	27.585
602.72	27.354
602.91	27.847
603.10	28.126
603.30	28.089
603.49	28.268
603.68	28.393
603.87	27.819
604.06	28.271
604.25	28.100
604.44	27.831
604.63	28.124
604.82	27.746
605.01	27.965
605.21	28.457
605.40	27.868
605.59	28.004
605.78	27.627
605.97	28.234
606.16	27.963
606.35	27.811
606.54	28.298
606.73	27.978
606.92	28.931
607.11	28.053
607.30	28.644
607.50	28.120
607.69	27.431
607.88	27.528
608.07	27.814
608.26	27.608
608.45	27.488
608.64	28.318
608.83	27.240
609.02	27.886
609.21	27.477
609.40	27.648
609.59	26.973
609.78	27.538
609.97	27.468
610.16	27.653
610.35	27.435
610.55	27.476
610.74	27.028
610.93	27.196
611.12	27.303
611.31	27.674
611.50	26.969
611.69	27.565
611.88	26.829
612.07	27.453
612.26	26.728
612.45	26.679
612.64	26.897
612.83	26.863
613.02	25.939
613.21	26.823
613.40	26.148
613.59	25.979
613.78	26.096
613.97	26.686
614.16	25.968
614.35	26.881
614.54	25.234
614.73	26.350
614.92	25.854
615.11	25.398
615.30	25.048
615.49	25.785
615.68	25.324
615.87	24.926
616.07	25.203
616.26	24.941
616.45	24.698
616.64	25.368
616.83	25.370
617.02	25.974
617.21	24.439
617.40	25.627
617.59	24.401
617.78	25.347
617.97	24.230
618.16	24.417
618.35	24.437
618.54	25.479
618.73	23.947
618.92	24.930
619.11	23.424
619.30	25.387
619.49	23.320
619.68	25.065
619.86	23.786
620.05	25.746
620.24	23.642
620.43	23.824
620.62	23.173
620.81	23.619
621.00	24.081
621.19	24.824
621.38	24.424
621.57	25.017
621.76	23.799
621.95	24.550
622.14	24.242
622.33	24.247
622.52	23.138
622.71	24.038
622.90	23.707
623.09	23.577
623.28	23.570
623.47	24.138
623.66	23.442
623.85	24.610
624.04	23.677
624.23	23.478
624.42	23.831
624.61	24.065
624.80	23.153
624.99	22.789
625.18	22.236
625.36	23.103
625.55	23.795
625.74	24.118
625.93	23.560
626.12	23.396
626.31	23.633
626.50	23.990
626.69	23.585
626.88	23.503
627.07	23.884
627.26	23.903
627.45	24.439
627.64	23.614
627.83	23.153
628.02	23.232
628.20	22.892
628.39	23.295
628.58	23.436
628.77	23.605
628.96	22.999
629.15	23.629
629.34	23.762
629.53	23.095
629.72	22.808
629.91	23.225
630.10	23.376
630.29	23.496
630.47	22.931
630.66	23.185
630.85	22.913
631.04	22.805
631.23	22.357
631.42	22.398
631.61	23.134
631.80	22.412
631.99	22.203
632.18	22.947
632.36	22.510
632.55	22.322
632.74	22.434
632.93	22.955
633.12	22.291
633.31	22.381
633.50	21.638
633.69	22.567
633.88	22.473
634.06	22.900
634.25	21.619
634.44	23.099
634.63	22.432
634.82	22.415
635.01	22.520
635.20	22.003
635.39	21.789
635.57	22.330
635.76	22.072
635.95	21.688
636.14	21.312
636.33	23.102
636.52	21.260
636.71	22.053
636.89	21.612
637.08	22.870
637.27	21.702
637.46	21.900
637.65	21.234
637.84	22.096
638.03	21.200
638.21	22.685
638.40	21.698
638.59	22.479
638.78	21.144
638.97	22.618
639.16	22.170
639.34	21.967
639.53	20.039
639.72	22.466
639.91	21.033
640.10	21.017
640.29	22.297
640.47	21.964
640.66	21.819
640.85	22.397
641.04	20.588
641.23	21.755
641.42	21.611
641.60	21.440
641.79	21.117
641.98	20.635
642.17	21.347
642.36	21.512
642.54	20.777
642.73	20.536
642.92	20.558
643.11	20.415
643.30	20.741
643.49	22.017
643.67	19.019
643.86	21.596
644.05	20.224
644.24	20.625
644.43	21.068
644.61	22.224
644.80	20.188
644.99	21.381
645.18	21.922
645.37	20.761
645.55	20.385
645.74	21.501
645.93	20.918
646.12	20.765
646.31	20.890
646.49	20.463
646.68	19.756
646.87	21.188
647.06	20.907
647.24	21.953
647.43	19.849
647.62	21.285
647.81	18.570
648.00	21.381
648.18	19.459
648.37	20.819
648.56	20.805
648.75	20.580
648.93	20.227
649.12	20.467
649.31	20.049
649.50	20.553
649.68	19.637
649.87	21.334
650.06	19.039
650.25	20.829
650.43	19.353
650.62	19.957
650.81	21.067
651.00	21.596
651.18	20.665
651.37	21.116
651.56	19.130
651.75	21.406
651.93	19.684
652.12	20.672
652.31	19.536
652.50	20.815
652.68	19.763
652.87	21.390
653.06	20.519
653.25	21.693
653.43	20.121
653.62	19.989
653.81	19.437
654.00	20.574
654.18	19.281
654.37	19.530
654.56	18.087
654.74	20.046
654.93	18.158
655.12	19.772
655.31	19.128
655.49	20.000
655.68	17.947
655.87	18.068
656.05	16.575
656.24	19.033
656.43	17.093
656.62	19.057
656.80	18.003
656.99	18.173
657.18	17.255
657.36	18.671
657.55	18.088
657.74	18.491
657.93	18.681
658.11	19.771
658.30	18.057
658.49	18.034
658.67	17.846
658.86	18.460
659.05	16.576
659.23	18.603
659.42	17.130
659.61	18.144
659.79	17.349
659.98	18.089
660.17	17.980
660.35	18.714
660.54	17.649
660.73	19.279
660.91	17.494
661.10	18.609
661.29	16.369
661.47	17.710
661.66	16.840
661.85	17.070
662.03	17.624
662.22	16.566
662.41	14.613
662.59	16.244
662.78	14.157
662.97	15.862
663.15	14.743
663.34	15.166
663.53	13.856
663.71	15.424
663.90	14.967
664.09	16.192
664.27	13.861
664.46	14.032
664.65	13.123
664.83	14.088
665.02	13.071
665.21	13.867
665.39	11.931
665.58	14.885
665.77	13.076
665.95	14.441
666.14	12.821
666.32	12.978
666.51	13.675
666.70	14.361
666.88	12.171
667.07	13.446
667.26	11.678
667.44	13.206
667.63	12.632
667.81	13.093
668.00	11.994
668.19	14.434
668.37	12.191
668.56	14.378
668.75	12.482
668.93	15.278
669.12	13.182
669.30	14.625
669.49	13.399
669.68	14.601
669.86	14.595
670.05	13.169
670.23	13.129
670.42	13.441
670.61	14.047
670.79	14.466
670.98	14.173
671.16	15.312
671.35	12.347
671.54	13.190
671.72	12.875
671.91	14.354
672.09	12.659
672.28	15.547
672.46	16.765
672.65	14.351
672.84	14.443
673.02	16.049
673.21	12.572
673.39	13.561
673.58	13.918
673.77	14.515
673.95	14.204
674.14	16.141
674.32	13.110
674.51	17.103
674.69	15.342
674.88	14.919
675.07	13.263
675.25	17.309
675.44	15.331
675.62	15.939
675.81	13.970
675.99	18.153
676.18	16.268
676.36	15.498
676.55	14.406
676.74	17.059
676.92	17.527
677.11	16.863
677.29	15.717
677.48	18.790
677.66	17.726
677.85	16.908
678.03	15.278
678.22	17.439
678.40	17.068
678.59	15.973
678.78	13.920
678.96	18.344
679.15	15.397
679.33	17.797
679.52	18.353
679.70	18.810
679.89	17.031
680.07	18.388
680.26	16.207
680.44	18.656
680.63	17.273
680.81	18.798
681.00	16.041
681.18	17.502
681.37	16.799
681.55	18.831
681.74	18.475
681.92	18.974
682.11	18.381
682.29	18.791
682.48	17.469
682.66	19.871
682.85	18.562
683.03	20.160
683.22	19.581
683.40	19.647
683.59	19.977
683.77	19.885
683.96	17.953
684.14	20.387
684.33	17.567
684.51	22.315
684.70	19.905
684.88	23.172
685.07	21.371
685.25	21.548
685.44	20.720
685.62	22.035
685.81	18.561
685.99	23.378
686.18	19.603
686.36	22.259
686.55	19.748
686.73	21.613
686.92	22.727
687.10	23.752
687.29	24.804
687.47	24.336
687.65	22.859
687.84	23.753
688.02	24.891
688.21	25.616
688.39	22.871
688.58	25.779
688.76	23.614
688.95	24.876
689.13	23.318
689.32	27.373
689.50	25.993
689.68	26.383
689.87	25.744
690.05	28.387
690.24	27.369
690.42	27.163
690.61	26.870
690.79	29.399
690.98	27.304
691.16	29.781
691.34	27.710
691.53	30.000
691.71	28.131
691.90	30.571
692.08	28.879
692.27	32.863
692.45	32.726
692.63	32.813
692.82	33.372
693.00	31.909
693.19	31.327
693.37	34.464
693.56	32.041
693.74	35.581
693.92	33.969
694.11	36.690
694.29	35.562
694.48	36.673
694.66	36.303
694.84	39.269
695.03	36.377
695.21	39.607
695.40	39.862
695.58	40.801
695.76	39.944
695.95	41.506
696.13	40.757
696.32	42.999
696.50	43.318
696.68	44.573
696.87	42.887
697.05	45.526
697.24	43.213
697.42	45.909
697.60	45.220
697.79	46.194
697.97	46.275
698.16	48.196
698.34	45.618
698.52	46.505
698.71	48.070
698.89	48.113
699.07	47.542
699.26	49.135
699.44	48.242
699.63	48.007
699.81	49.339
699.99	49.972
700.18	50.742
700.36	49.505
700.54	50.972
700.73	51.141
700.91	52.266
701.09	52.261
701.28	52.277
701.46	53.212
701.64	53.416
701.83	54.003
702.01	53.967
702.20	53.811
702.38	56.252
702.56	55.332
702.75	54.869
702.93	57.600
703.11	57.261
703.30	59.065
703.48	59.282
703.66	58.673
703.85	59.118
704.03	60.161
704.21	57.731
704.40	60.439
704.58	58.907
704.76	60.886
704.95	60.666
705.13	60.704
705.31	59.932
705.50	63.696
705.68	60.967
705.86	62.487
706.04	61.475
706.23	62.249
706.41	63.847
706.59	63.068
706.78	61.215
706.96	63.517
707.14	63.279
707.33	63.031
707.51	63.291
707.69	65.050
707.88	63.503
708.06	64.594
708.24	63.043
708.42	64.733
708.61	61.704
708.79	65.090
708.97	65.073
709.16	65.665
709.34	65.811
709.52	65.214
709.71	65.340
709.89	67.053
710.07	65.644
710.25	66.049
710.44	65.564
710.62	66.217
710.80	65.001
710.98	66.399
711.17	66.110
711.35	67.840
711.53	65.784
711.72	68.668
711.90	65.035
712.08	67.716
712.26	66.447
712.45	64.701
712.63	68.947
712.81	66.362
712.99	66.104
713.18	68.291
713.36	67.218
713.54	65.928
713.72	65.951
713.91	67.079
714.09	64.826
714.27	68.126
714.45	71.000
714.64	69.120
714.82	68.369
715.00	67.513
715.18	66.965
715.37	68.211
715.55	66.319
715.73	70.817
715.91	70.718
716.10	69.591
716.28	67.013
716.46	67.408
716.64	66.528
716.83	69.970
717.01	66.133
717.19	69.938
717.37	67.235
717.55	67.532
717.74	71.114
717.92	70.059
718.10	67.843
718.28	70.377
718.47	67.143
718.65	68.634
718.83	70.414
719.01	68.262
719.19	69.887
719.38	69.837
719.56	69.874
719.74	70.744
719.92	68.304
720.10	72.276
720.29	69.592
720.47	69.935
720.65	70.748
720.83	72.776
721.01	66.214
721.20	70.512
721.38	70.945
721.56	72.310
721.74	70.920
721.92	72.933
722.11	69.285
722.29	72.108
722.47	71.022
722.65	72.033
722.83	68.650
723.01	75.273
723.20	71.570
723.38	73.247
723.56	69.783
723.74	70.411
723.92	69.761
724.10	72.916
724.29	70.613
724.47	73.572
724.65	70.731
724.83	72.725
725.01	70.891
725.19	74.740
725.38	69.611
725.56	72.445
725.74	68.050
725.92	71.716
726.10	70.847
726.28	72.044
726.46	71.496
726.65	75.091
726.83	70.689
727.01	73.809
727.19	73.862
727.37	71.646
727.55	72.236
727.73	74.597
727.92	71.385
728.10	73.167
728.28	70.787
728.46	73.851
728.64	71.594
728.82	75.533
729.00	70.190
729.19	73.846
729.37	71.312
729.55	72.268
729.73	69.389
729.91	74.116
730.09	71.426
730.27	72.574
730.45	72.478
730.63	71.171
730.82	72.525
731.00	72.312
731.18	71.096
731.36	71.245
731.54	72.692
731.72	74.048
731.90	71.488
732.08	72.971
732.26	72.845
732.45	73.780
732.63	74.111
732.81	75.114
732.99	73.441
733.17	74.074
733.35	72.821
733.53	72.362
733.71	70.557
733.89	73.938
734.07	72.464
734.25	75.498
734.44	72.697
734.62	74.517
734.80	73.159
734.98	75.011
735.16	75.350
735.34	75.617
735.52	75.233
735.70	73.793
735.88	72.982
736.06	75.041
736.24	74.654
736.42	75.694
736.60	74.874
736.78	73.729
736.97	74.312
737.15	76.133
737.33	74.764
737.51	74.284
737.69	77.993
737.87	75.646
738.05	73.906
738.23	75.289
738.41	76.941
738.59	77.990
738.77	72.677
738.95	76.427
739.13	75.942
739.31	74.691
739.49	75.081
739.67	78.976
739.85	72.984
740.03	75.783
740.21	74.592
740.39	77.379
740.57	75.207
740.75	75.629
740.93	75.504
741.11	74.931
741.30	74.716
741.48	73.961
741.66	74.115
741.84	74.851
742.02	72.626
742.20	78.645
742.38	74.442
742.56	75.390
742.74	73.095
742.92	79.349
743.10	75.283
743.28	74.102
743.46	77.217
743.64	73.735
743.82	75.127
744.00	72.897
744.18	74.891
744.36	78.576
744.54	76.274
744.72	80.317
744.90	75.861
745.08	75.488
745.26	75.262
745.44	78.663
745.62	77.885
745.80	78.415
745.98	75.797
746.16	79.508
746.34	70.512
746.52	78.230
746.70	73.863
746.87	79.281
747.05	71.803
747.23	77.545
747.41	74.731
747.59	74.155
747.77	75.671
747.95	77.829
748.13	76.362
748.31	76.673
748.49	71.728
748.67	77.429
748.85	74.798
749.03	76.015
749.21	71.846
749.39	81.771
749.57	74.181
749.75	74.637
749.93	72.914
750.11	77.971
750.29	78.099
750.47	77.066
750.65	72.994
750.83	76.992
751.01	74.451
751.18	73.384
751.36	71.607
751.54	77.185
751.72	74.868
751.90	76.206
752.08	70.076
752.26	73.155
752.44	73.862
752.62	71.988
752.80	70.459
752.98	77.292
753.16	72.072
753.34	76.737
753.52	76.703
753.69	74.427
753.87	71.197
754.05	78.908
754.23	69.302
754.41	74.772
754.59	72.968
754.77	77.902
754.95	74.540
755.13	74.892
755.31	73.738
755.49	72.878
755.66	72.594
755.84	76.794
756.02	73.061
756.20	75.016
756.38	75.610
756.56	69.675
756.74	72.308
756.92	76.074
757.10	71.294
757.28	73.948
757.45	75.363
757.63	72.022
757.81	72.487
757.99	73.994
758.17	73.244
758.35	77.063
758.53	69.511
758.71	71.633
758.88	73.496
759.06	75.154
759.24	69.450
759.42	75.100
759.60	70.663
759.78	73.537
759.96	66.698
760.13	72.786
760.31	63.011
760.49	68.324
760.67	65.881
760.85	67.132
761.03	63.863
761.21	70.447
761.38	63.958
761.56	69.120
761.74	65.395
761.92	72.727
762.10	63.950
762.28	66.291
762.46	64.110
762.63	67.005
762.81	66.298
762.99	66.685
763.17	68.706
763.35	67.813
763.53	66.552
763.70	70.451
763.88	68.836
764.06	69.985
764.24	68.087
764.42	71.023
764.60	68.915
764.77	68.776
764.95	66.506
765.13	69.043
765.31	69.603
765.49	66.622
765.66	67.032
765.84	70.733
766.02	69.080
766.20	69.104
766.38	69.038
766.56	70.734
766.73	70.260
766.91	73.375
767.09	72.613
767.27	71.041
767.45	69.235
767.62	71.321
767.80	69.013
767.98	70.667
768.16	65.042
768.33	71.800
768.51	69.051
768.69	73.773
768.87	67.025
769.05	71.479
769.22	69.706
769.40	73.151
769.58	68.272
769.76	71.012
769.94	67.138
770.11	68.916
770.29	68.966
770.47	72.867
770.65	72.298
770.82	77.347
771.00	68.987
771.18	70.528
771.36	66.815
771.53	69.785
771.71	69.508
771.89	74.840
772.07	69.812
772.25	73.292
772.42	71.021
772.60	73.298
772.78	71.295
772.96	72.743
773.13	73.204
773.31	67.957
773.49	67.910
773.67	75.570
773.84	66.407
774.02	71.315
774.20	68.910
774.37	74.322
774.55	70.119
774.73	74.140
774.91	69.567
775.08	72.276
775.26	70.630
775.44	68.278
775.62	64.809
775.79	71.875
775.97	69.569
776.15	67.403
776.32	63.975
776.50	74.757
776.68	65.636
776.86	70.390
777.03	66.068
777.21	73.184
777.39	68.515
777.56	72.945
777.74	69.030
777.92	70.858
778.10	65.564
778.27	72.291
778.45	69.223
778.63	68.153
778.80	66.843
778.98	69.034
779.16	73.502
779.34	69.632
779.51	67.586
779.69	68.436
779.87	65.762
780.04	69.146
780.22	62.949
780.40	70.450
780.57	64.465
780.75	71.300
780.93	72.405
781.10	69.636
781.28	76.474
781.46	67.391
781.63	66.438
781.81	72.684
781.99	62.553
782.16	73.300
782.34	59.432
782.52	70.813
782.69	65.416
782.87	69.834
783.05	63.533
783.22	66.283
783.40	60.345
783.58	61.282
783.75	68.120
783.93	71.173
784.11	65.244
784.28	64.944
784.46	59.121
784.64	67.385
784.81	61.254
784.99	65.296
785.17	64.628
785.34	63.749
785.52	58.198
785.69	66.183
785.87	60.179
786.05	71.694
786.22	63.155
786.40	71.802
786.58	65.453
786.75	67.606
786.93	64.512
787.11	65.748
787.28	61.472
787.46	65.586
787.63	62.374
787.81	68.848
787.99	63.112
788.16	67.268
788.34	60.000
788.51	64.655
788.69	60.184
788.87	65.533
789.04	59.981
789.22	65.450
789.39	60.944
789.57	65.868
789.75	63.636
789.92	63.186
790.10	62.155
790.27	65.909
790.45	65.437
790.63	65.177
790.80	59.273
790.98	64.353
791.15	64.830
791.33	70.317
791.51	54.900
791.68	63.400
791.86	67.871
792.03	68.596
792.21	61.837
792.39	64.403
792.56	58.847
792.74	64.202
792.91	55.039
793.09	57.977
793.26	55.193
793.44	68.873
793.62	58.827
793.79	67.436
793.97	57.607
794.14	67.323
794.32	57.938
794.49	68.005
794.67	57.198
794.84	64.252
795.02	56.803
795.20	65.399
795.37	60.979
795.55	63.130
795.72	56.040
795.90	65.492
796.07	60.000
796.25	62.738
796.42	58.939
796.60	64.601
796.77	62.521
796.95	64.430
797.13	55.035
797.30	62.594
797.48	64.378
797.65	66.798
797.83	56.487
798.00	66.612
798.18	52.895
798.35	64.743
798.53	61.070
798.70	69.154
798.88	57.989
799.05	62.738
799.23	57.731
799.40	65.103
799.58	62.427
799.75	60.046
799.93	57.225
800.10	62.312
800.28	54.960
800.45	62.726
800.63	50.813
800.80	62.220
800.98	53.642
801.15	61.868
801.33	53.654
801.50	64.424
801.68	50.683
801.85	59.483
802.03	54.113
802.20	57.518
802.38	62.852
802.55	62.517
802.73	59.302
802.90	62.850
803.08	55.441
803.25	63.399
803.43	57.934
803.60	61.492
803.78	59.879
803.95	63.057
804.13	51.720
804.30	66.330
804.48	51.852
804.65	62.351
804.83	51.431
805.00	57.172
805.17	56.713
805.35	57.180
805.52	50.471
805.70	62.348
805.87	56.755
806.05	61.328
806.22	57.870
806.40	56.246
806.57	54.868
806.75	63.926
806.92	59.814
807.09	60.295
807.27	58.462
807.44	65.992
807.62	56.134
807.79	61.280
807.97	55.346
808.14	62.382
808.31	49.305
808.49	58.552
808.66	56.940
808.84	49.675
809.01	52.340
809.19	54.500
809.36	59.496
809.53	57.665
809.71	55.915
809.88	63.473
810.06	56.525
810.23	63.719
810.41	61.305
810.58	63.507
810.75	51.504
810.93	52.886
811.10	47.360
811.28	54.744
811.45	53.218
811.62	52.311
811.80	52.730
811.97	55.221
812.15	58.378
812.32	52.381
812.49	59.343
812.67	46.179
812.84	48.546
813.02	53.885
813.19	48.507
813.36	55.806
813.54	40.113
813.71	52.486
813.89	53.695
814.06	57.008
814.23	48.675
814.41	50.791
814.58	51.227
814.75	61.378
814.93	47.701
815.10	48.929
815.28	37.776
815.45	50.260
815.62	55.146
815.80	39.326
815.97	49.032
816.14	49.204
816.32	52.021
816.49	50.040
816.66	49.583
816.84	47.203
817.01	46.174
817.18	50.655
817.36	51.236
817.53	50.985
817.71	40.891
817.88	54.338
818.05	40.436
818.23	51.366
818.40	39.677
818.57	47.635
818.75	39.270
818.92	46.445
819.09	47.593
819.27	47.675
819.44	47.744
819.61	43.605
819.79	44.224
819.96	56.138
820.13	48.526
820.31	53.385
820.48	55.508
820.65	52.754
820.82	52.193
821.00	58.088
821.17	49.817
821.34	55.416
821.52	56.326
821.69	60.104
821.86	60.783
822.04	65.773
822.21	63.066
822.38	64.693
822.56	64.743
822.73	66.683
822.90	67.296
823.07	66.833
823.25	66.817
823.42	68.372
823.59	65.347
823.77	66.380
823.94	66.113
824.11	66.499
824.29	67.840
824.46	69.279
824.63	65.743
824.80	67.864
824.98	65.966
825.15	67.060
825.32	64.241
825.49	67.135
825.67	62.604
825.84	70.218
826.01	64.613
826.19	64.566
826.36	62.642
826.53	65.069
826.70	59.254
826.88	64.403
827.05	63.459
827.22	63.761
827.39	63.699
827.57	63.161
827.74	61.988
827.91	67.222
828.08	60.476
828.26	66.501
828.43	62.713
828.60	66.243
828.77	62.829
828.95	64.742
829.12	62.017
829.29	58.423
829.46	61.469
829.64	60.564
829.81	58.230
829.98	65.267
830.15	58.954
830.32	60.304
830.50	54.233
830.67	57.232
830.84	46.041
831.01	48.556
831.19	39.906
831.36	50.925
831.53	46.388
831.70	52.746
831.87	46.071
832.05	50.401
832.22	47.037
832.39	44.000
832.56	40.744
832.74	47.806
832.91	37.434
833.08	52.655
833.25	43.632
833.42	45.635
833.60	49.452
833.77	47.075
833.94	50.358
834.11	52.512
834.28	54.508
834.45	54.103
834.63	53.721
834.80	58.471
834.97	55.842
835.14	59.647
835.31	56.962
835.49	57.991
835.66	56.062
835.83	56.390
836.00	52.142
836.17	53.811
836.34	49.435
836.52	55.624
836.69	53.754
836.86	56.857
837.03	47.273
837.20	52.227
837.37	48.698
837.55	46.360
837.72	40.282
837.89	54.113
838.06	49.754
838.23	49.000
838.40	40.323
838.58	43.885
838.75	43.105
838.92	51.724
839.09	56.264
839.26	49.358
839.43	44.798
839.60	50.107
839.78	51.008
839.95	49.505
840.12	40.044
840.29	55.543
840.46	42.688
840.63	47.346
840.80	46.726
840.98	50.379
841.15	54.354
841.32	44.818
841.49	39.323
841.66	45.994
841.83	42.537
842.00	47.187
842.17	39.718
842.34	40.796
842.52	45.517
842.69	44.659
842.86	41.537
843.03	62.027
843.20	28.425
843.37	39.354
843.54	53.686
843.71	38.156
843.88	57.804
844.06	53.056
844.23	53.050
844.40	41.857
844.57	41.317
844.74	49.028
844.91	47.783
845.08	44.463
845.25	42.167
845.42	43.883
845.59	28.498
845.76	54.069
845.94	56.673
846.11	37.295
846.28	45.248
846.45	56.746
846.62	49.895
846.79	30.648
846.96	52.250
847.13	48.014
847.30	42.370
847.47	32.212
847.64	27.429
847.81	55.923
847.98	62.330
848.15	56.164
848.32	57.509
848.50	45.941
848.67	35.760
848.84	56.962
849.01	52.070
849.18	35.022
849.35	66.239
849.52	54.098
849.69	58.785
849.86	51.376
850.03	60.998
850.20	48.374
850.37	48.119
850.54	58.532
850.71	42.116
850.88	43.762
851.05	45.243
851.22	61.125
851.39	66.667
851.56	44.854
851.73	58.932
851.90	65.376
852.07	53.786
852.24	51.368
852.41	47.555
852.58	51.685
852.75	31.190
852.92	54.751
853.09	60.369
853.26	72.671
853.43	38.427
853.60	56.111
853.77	57.554
853.94	48.122
854.11	56.237
854.28	51.544
854.45	41.014
854.62	55.581
854.79	54.867
854.96	47.074
855.13	41.447
855.30	52.368
855.47	40.223
855.64	43.792
855.81	48.409
855.98	54.211
856.15	68.159
856.32	58.594
856.49	60.167
856.66	56.092
856.83	55.814
857.00	48.864
857.17	75.121
857.34	40.757
857.51	51.852
857.68	57.921
857.85	56.660
858.02	58.065
858.19	46.939
858.36	41.558
858.53	47.087
858.70	64.251
858.87	58.359
859.04	36.229
859.21	40.050
859.38	48.775
859.55	44.494
859.72	65.057
859.89	61.675
860.05	52.668
860.22	48.786
860.39	43.583
860.56	54.194
860.73	61.111
860.90	55.967
861.07	60.183
861.24	40.568
861.41	61.559
861.58	45.363
861.75	52.520
861.92	51.630
862.09	45.033
862.26	52.594
862.43	80.481
862.59	34.908
862.76	54.364
862.93	86.667
863.10	52.463
863.27	51.979
863.44	48.205
863.61	49.602
863.78	62.830
863.95	72.973
864.12	44.828
864.29	81.931
864.45	47.447
864.62	52.772
864.79	47.849
864.96	56.912
865.13	39.348
865.30	45.361
865.47	49.351
865.64	56.839
865.81	51.676
865.97	49.091
866.14	45.355
866.31	52.329
866.48	47.701
866.65	46.229
866.82	66.830
866.99	54.106
867.16	28.095
867.33	64.110
867.49	52.494
867.66	56.674
867.83	39.467
868.00	46.649
868.17	43.709
868.34	43.085
868.51	39.012
868.67	55.584
868.84	49.885
869.01	64.565
869.18	41.360
869.35	44.048
869.52	47.332
869.69	70.122
869.85	61.357
870.02	49.351
870.19	50.732
870.36	51.185
870.53	41.768
870.70	42.394
870.86	35.844
871.03	37.221
871.20	56.471
871.37	61.425
871.54	44.737
871.71	54.768
871.87	65.043
872.04	53.602
872.21	59.375
872.38	60.638
872.55	72.573
872.72	47.642
872.88	53.319
873.05	46.756
873.22	42.892
873.39	58.414
873.56	31.592
873.72	65.479
873.89	43.073
874.06	62.827
874.23	70.370
874.40	52.284
874.56	68.026
874.73	50.112
874.90	45.283
875.07	40.779
875.24	50.228
875.40	46.320
875.57	58.950
875.74	53.333
875.91	42.325
876.08	37.416
876.24	49.522
876.41	59.259
876.58	60.267
876.75	47.645
876.92	49.606
877.08	44.167
877.25	53.226
877.42	42.888
877.59	45.372
877.75	52.066
877.92	36.325
878.09	34.901
878.26	58.376
878.42	35.258
878.59	54.568
878.76	44.390
878.93	53.814
879.09	26.757
879.26	51.440
879.43	49.886
879.60	31.658
879.76	53.348
879.93	42.785
880.10	41.040
880.27	24.701
880.43	23.679
880.60	41.623
880.77	28.793
880.94	42.302
881.10	36.124
881.27	43.445
881.44	24.256
881.61	39.233
881.77	44.395
881.94	42.978
882.11	38.237
882.28	36.033
882.44	44.270
882.61	50.562
882.78	51.909
882.94	55.726
883.11	53.541
883.28	57.726
883.45	55.218
883.61	50.507
883.78	50.465
883.95	60.197
884.11	56.926
884.28	50.572
>>>>>End Processed Spectral Data<<<<<
