SpectraSuite Data File
++++++++++++++++++++++++++++++++++++
Date: Thu Sep 26 03:15:22 EST 2019
User: sgrac
Dark Spectrum Present: Yes
Reference Spectrum Present: Yes
Number of Sampled Component Spectra: 1
Spectrometers: USB4E01596
Integration Time (usec): 100000 (USB4E01596)
Spectra Averaged: 3 (USB4E01596)
Boxcar Smoothing: 0 (USB4E01596)
Correct for Electrical Dark: No (USB4E01596)
Strobe/Lamp Enabled: Yes (USB4E01596)
Correct for Detector Non-linearity: No (USB4E01596)
Correct for Stray Light: No (USB4E01596)
Number of Pixels in Processed Spectrum: 3648
>>>>>Begin Processed Spectral Data<<<<<
178.44	-412.500
178.66	-412.500
178.87	-412.500
179.09	-222.449
179.30	-94.048
179.52	-668.182
179.74	-180.556
179.95	-892.308
180.17	146.988
180.38	1064.286
180.60	373.214
180.82	313.253
181.03	298.611
181.25	174.038
181.46	-629.032
181.68	233.333
181.89	1106.667
182.11	-1027.778
182.33	145.631
182.54	194.253
182.76	276.786
182.97	155.556
183.19	122.360
183.40	192.233
183.62	1200.000
183.84	161.957
184.05	1041.667
184.27	229.897
184.48	-352.778
184.70	878.571
184.91	243.000
185.13	1440.000
185.34	478.378
185.56	1250.000
185.78	227.835
185.99	251.948
186.21	434.286
186.42	846.667
186.64	838.095
186.85	219.388
187.07	272.857
187.28	257.895
187.50	821.739
187.72	672.222
187.93	480.851
188.15	460.377
188.36	675.000
188.58	4500.000
188.79	500.000
189.01	3375.000
189.22	196.429
189.44	879.167
189.65	1577.778
189.87	518.919
190.09	538.710
190.30	453.968
190.52	-19300.000
190.73	-15600.000
190.95	595.833
191.16	184.404
191.38	138.043
191.59	420.588
191.81	129.310
192.02	513.333
192.24	206.849
192.45	171.579
192.67	372.340
192.88	328.205
193.10	179.070
193.31	153.933
193.53	747.059
193.74	260.976
193.96	188.750
194.18	794.737
194.39	228.696
194.61	1700.000
194.82	263.514
195.04	133.333
195.25	192.969
195.47	493.750
195.68	189.873
195.90	555.000
196.11	167.000
196.33	588.462
196.54	249.206
196.76	546.429
196.97	386.364
197.19	630.556
197.40	-253.333
197.62	249.091
197.83	137.815
198.05	392.453
198.26	283.099
198.48	1050.000
198.69	0.000
198.91	1833.333
199.12	379.630
199.34	207.246
199.55	175.676
199.77	232.184
199.98	4966.667
200.20	159.091
200.41	212.150
200.63	871.429
200.84	413.043
201.06	194.828
201.27	657.143
201.49	690.000
201.70	-1085.714
201.91	213.830
202.13	261.538
202.34	-227.083
202.56	436.364
202.77	1390.000
202.99	508.824
203.20	288.525
203.42	361.818
203.63	245.055
203.85	168.613
204.06	255.263
204.28	180.952
204.49	400.000
204.71	202.817
204.92	-8750.000
205.14	496.429
205.35	195.652
205.56	570.833
205.78	308.475
205.99	247.170
206.21	195.370
206.42	226.136
206.64	609.375
206.85	214.286
207.07	124.000
207.28	101.709
207.50	371.212
207.71	852.381
207.93	-261.111
208.14	-781.818
208.35	480.000
208.57	178.889
208.78	382.000
209.00	344.737
209.21	4350.000
209.43	180.769
209.64	581.250
209.86	2300.000
210.07	282.927
210.28	-276.316
210.50	4166.667
210.71	476.667
210.93	180.172
211.14	296.154
211.36	742.105
211.57	332.143
211.78	500.000
212.00	508.333
212.21	217.241
212.43	435.714
212.64	166.019
212.86	279.487
213.07	107.895
213.29	880.000
213.50	208.861
213.71	119.355
213.93	343.182
214.14	149.038
214.36	117.647
214.57	321.277
214.78	181.707
215.00	336.471
215.21	145.679
215.43	214.815
215.64	185.870
215.86	157.554
216.07	900.000
216.28	149.367
216.50	216.038
216.71	213.415
216.93	383.333
217.14	845.455
217.35	391.429
217.57	156.452
217.78	196.460
218.00	214.894
218.21	136.184
218.42	200.000
218.64	65.347
218.85	135.714
219.07	167.000
219.28	585.714
219.49	531.579
219.71	306.000
219.92	-1670.000
220.14	270.312
220.35	745.833
220.56	-4050.000
220.78	126.190
220.99	250.000
221.21	171.084
221.42	267.949
221.63	331.915
221.85	0.000
222.06	135.849
222.28	520.000
222.49	196.970
222.70	1292.857
222.92	248.718
223.13	109.028
223.34	118.478
223.56	145.217
223.77	122.293
223.99	155.901
224.20	104.487
224.41	204.255
224.63	124.490
224.84	93.694
225.05	161.069
225.27	121.387
225.48	185.965
225.69	141.758
225.91	110.435
226.12	101.299
226.34	91.765
226.55	65.441
226.76	77.295
226.98	55.085
227.19	70.950
227.40	110.556
227.62	67.164
227.83	73.896
228.04	79.643
228.26	56.010
228.47	50.490
228.69	37.705
228.90	30.512
229.11	21.643
229.33	40.444
229.54	24.709
229.75	17.566
229.97	20.366
230.18	22.905
230.39	23.043
230.61	18.429
230.82	20.833
231.03	16.571
231.25	27.293
231.46	19.552
231.67	19.241
231.89	23.471
232.10	23.636
232.31	28.472
232.53	34.907
232.74	28.014
232.95	31.250
233.17	34.691
233.38	30.287
233.59	40.320
233.81	32.274
234.02	37.067
234.23	22.044
234.45	40.442
234.66	23.529
234.87	31.059
235.09	27.574
235.30	33.913
235.51	30.347
235.73	24.293
235.94	24.014
236.15	33.564
236.36	36.785
236.58	33.233
236.79	26.147
237.00	22.828
237.22	33.147
237.43	24.247
237.64	29.135
237.86	21.167
238.07	30.960
238.28	6.034
238.50	26.622
238.71	32.051
238.92	28.681
239.13	19.127
239.35	28.675
239.56	23.377
239.77	19.602
239.99	24.049
240.20	31.062
240.41	27.408
240.63	21.622
240.84	30.884
241.05	15.312
241.26	19.223
241.48	21.792
241.69	17.564
241.90	15.630
242.12	18.619
242.33	18.100
242.54	7.465
242.75	11.406
242.97	14.132
243.18	9.073
243.39	8.621
243.61	11.870
243.82	8.836
244.03	8.880
244.24	9.434
244.46	15.014
244.67	12.512
244.88	14.797
245.09	6.879
245.31	13.550
245.52	13.587
245.73	11.638
245.95	21.959
246.16	11.956
246.37	11.099
246.58	9.284
246.80	13.382
247.01	13.792
247.22	10.204
247.43	9.645
247.65	10.665
247.86	10.491
248.07	6.645
248.28	8.356
248.50	9.329
248.71	7.675
248.92	8.037
249.13	9.268
249.35	9.539
249.56	7.600
249.77	8.232
249.98	8.311
250.20	8.541
250.41	13.099
250.62	10.077
250.83	9.306
251.05	14.279
251.26	11.821
251.47	15.167
251.68	12.204
251.90	13.841
252.11	11.765
252.32	15.484
252.53	12.895
252.75	8.396
252.96	11.588
253.17	10.567
253.38	9.706
253.59	9.149
253.81	11.038
254.02	9.497
254.23	9.215
254.44	9.010
254.66	12.349
254.87	9.199
255.08	12.931
255.29	13.538
255.50	8.718
255.72	19.654
255.93	10.722
256.14	17.548
256.35	12.557
256.57	13.549
256.78	13.282
256.99	13.343
257.20	15.747
257.41	16.544
257.63	6.897
257.84	11.432
258.05	16.233
258.26	7.487
258.47	11.559
258.69	8.115
258.90	8.658
259.11	6.768
259.32	7.489
259.53	7.942
259.75	6.836
259.96	6.626
260.17	5.892
260.38	6.524
260.59	7.949
260.81	8.733
261.02	7.178
261.23	7.498
261.44	6.780
261.65	7.609
261.87	8.262
262.08	8.359
262.29	9.568
262.50	6.333
262.71	8.015
262.92	7.008
263.14	7.312
263.35	9.288
263.56	5.572
263.77	12.093
263.98	8.307
264.20	12.882
264.41	5.987
264.62	9.075
264.83	6.839
265.04	15.267
265.25	11.949
265.47	8.069
265.68	8.322
265.89	9.301
266.10	5.583
266.31	15.592
266.52	7.031
266.74	7.733
266.95	7.201
267.16	9.313
267.37	7.920
267.58	9.442
267.79	8.654
268.01	9.418
268.22	11.041
268.43	9.331
268.64	11.529
268.85	6.616
269.06	7.564
269.27	7.187
269.49	6.817
269.70	5.704
269.91	9.160
270.12	9.246
270.33	10.605
270.54	6.017
270.75	4.414
270.97	8.500
271.18	7.961
271.39	8.417
271.60	7.713
271.81	8.181
272.02	6.661
272.23	7.542
272.45	6.104
272.66	5.223
272.87	6.240
273.08	6.528
273.29	6.853
273.50	6.487
273.71	7.052
273.92	6.840
274.14	9.427
274.35	6.699
274.56	7.546
274.77	7.612
274.98	8.916
275.19	7.010
275.40	6.674
275.61	6.006
275.83	8.788
276.04	6.519
276.25	6.577
276.46	6.665
276.67	7.610
276.88	7.706
277.09	9.142
277.30	10.495
277.51	7.505
277.73	7.894
277.94	4.251
278.15	7.627
278.36	9.286
278.57	7.020
278.78	7.057
278.99	8.778
279.20	8.811
279.41	9.546
279.62	8.436
279.84	5.638
280.05	6.154
280.26	4.638
280.47	8.082
280.68	4.942
280.89	9.518
281.10	8.866
281.31	5.571
281.52	7.434
281.73	5.911
281.94	6.264
282.16	9.209
282.37	8.492
282.58	6.620
282.79	10.511
283.00	8.376
283.21	4.870
283.42	5.205
283.63	5.672
283.84	5.187
284.05	7.488
284.26	6.503
284.47	7.642
284.68	7.598
284.89	8.205
285.11	5.114
285.32	5.511
285.53	7.208
285.74	6.761
285.95	7.280
286.16	7.642
286.37	6.488
286.58	7.439
286.79	5.855
287.00	6.415
287.21	6.148
287.42	6.001
287.63	5.724
287.84	5.882
288.05	7.118
288.26	5.763
288.48	7.410
288.69	5.918
288.90	7.518
289.11	8.274
289.32	6.447
289.53	5.624
289.74	4.278
289.95	5.712
290.16	7.281
290.37	5.626
290.58	4.570
290.79	4.752
291.00	4.838
291.21	5.978
291.42	3.155
291.63	5.913
291.84	7.612
292.05	5.005
292.26	6.448
292.47	5.928
292.68	5.717
292.89	5.903
293.10	7.582
293.31	7.595
293.52	4.996
293.73	2.723
293.94	7.252
294.15	7.388
294.36	6.624
294.57	5.217
294.79	6.334
295.00	4.595
295.21	7.331
295.42	5.585
295.63	6.809
295.84	6.170
296.05	4.228
296.26	5.050
296.47	4.363
296.68	4.733
296.89	5.895
297.10	7.648
297.31	5.624
297.52	4.161
297.73	6.801
297.94	5.717
298.15	5.996
298.36	5.622
298.57	5.793
298.78	5.282
298.99	4.403
299.20	5.023
299.41	5.946
299.62	5.914
299.83	5.013
300.04	5.782
300.25	6.095
300.46	6.311
300.67	5.633
300.88	6.694
301.09	3.297
301.30	5.670
301.50	5.238
301.71	8.448
301.92	6.619
302.13	5.305
302.34	4.722
302.55	6.389
302.76	4.553
302.97	4.051
303.18	4.406
303.39	5.776
303.60	6.353
303.81	6.108
304.02	4.718
304.23	5.839
304.44	4.729
304.65	6.377
304.86	6.425
305.07	5.146
305.28	6.800
305.49	5.812
305.70	6.598
305.91	3.290
306.12	4.770
306.33	5.870
306.54	5.251
306.75	6.281
306.96	7.557
307.17	4.636
307.38	3.979
307.58	6.232
307.79	6.807
308.00	6.236
308.21	5.958
308.42	5.268
308.63	4.635
308.84	5.014
309.05	6.185
309.26	4.345
309.47	5.474
309.68	5.118
309.89	6.677
310.10	3.894
310.31	3.573
310.52	5.922
310.73	6.696
310.94	4.587
311.14	5.961
311.35	6.378
311.56	5.932
311.77	5.725
311.98	4.598
312.19	4.289
312.40	5.234
312.61	5.512
312.82	5.700
313.03	4.994
313.24	5.117
313.45	6.732
313.66	5.178
313.86	5.858
314.07	4.952
314.28	5.932
314.49	5.703
314.70	6.549
314.91	7.794
315.12	7.046
315.33	7.197
315.54	6.622
315.75	4.731
315.96	5.851
316.16	4.386
316.37	5.441
316.58	6.264
316.79	6.345
317.00	7.307
317.21	6.857
317.42	5.680
317.63	7.132
317.84	4.574
318.05	6.005
318.25	6.751
318.46	4.437
318.67	6.212
318.88	5.673
319.09	6.449
319.30	5.789
319.51	5.951
319.72	6.847
319.93	4.182
320.13	3.716
320.34	5.602
320.55	5.319
320.76	5.564
320.97	6.026
321.18	7.369
321.39	7.122
321.60	6.452
321.80	6.836
322.01	6.594
322.22	5.199
322.43	5.079
322.64	4.539
322.85	7.205
323.06	7.114
323.27	7.402
323.47	4.949
323.68	5.497
323.89	4.557
324.10	6.416
324.31	4.414
324.52	7.910
324.73	5.206
324.93	4.381
325.14	3.965
325.35	4.912
325.56	5.008
325.77	5.573
325.98	5.087
326.19	4.764
326.39	3.083
326.60	6.069
326.81	4.565
327.02	3.553
327.23	3.655
327.44	6.531
327.64	4.474
327.85	5.027
328.06	4.866
328.27	7.265
328.48	6.150
328.69	3.667
328.90	7.094
329.10	4.510
329.31	5.430
329.52	7.742
329.73	7.047
329.94	4.364
330.15	7.482
330.35	7.799
330.56	6.202
330.77	5.963
330.98	5.003
331.19	5.243
331.39	5.158
331.60	5.477
331.81	4.081
332.02	6.106
332.23	7.010
332.44	5.580
332.64	7.650
332.85	5.912
333.06	6.835
333.27	6.027
333.48	5.389
333.68	7.519
333.89	4.354
334.10	5.810
334.31	6.634
334.52	7.545
334.72	5.936
334.93	5.016
335.14	4.731
335.35	6.125
335.56	6.387
335.76	5.909
335.97	6.972
336.18	3.525
336.39	8.147
336.60	6.599
336.80	4.928
337.01	5.738
337.22	6.451
337.43	6.189
337.64	8.844
337.84	5.443
338.05	6.166
338.26	8.763
338.47	7.435
338.68	5.485
338.88	7.047
339.09	5.728
339.30	6.383
339.51	5.569
339.71	7.574
339.92	5.908
340.13	7.183
340.34	6.569
340.55	6.692
340.75	8.112
340.96	5.889
341.17	7.669
341.38	5.571
341.58	5.867
341.79	6.878
342.00	5.244
342.21	7.234
342.41	4.943
342.62	6.919
342.83	8.220
343.04	5.177
343.24	8.258
343.45	8.406
343.66	6.404
343.87	7.999
344.07	6.573
344.28	7.207
344.49	7.964
344.70	9.104
344.90	6.915
345.11	5.842
345.32	5.223
345.53	8.160
345.73	7.866
345.94	8.742
346.15	8.773
346.36	7.795
346.56	9.372
346.77	9.632
346.98	8.088
347.19	9.371
347.39	7.885
347.60	8.684
347.81	8.239
348.02	8.672
348.22	6.087
348.43	6.510
348.64	6.193
348.84	8.538
349.05	7.765
349.26	9.685
349.47	7.209
349.67	5.630
349.88	7.930
350.09	8.502
350.30	9.257
350.50	9.223
350.71	8.225
350.92	8.398
351.12	6.756
351.33	9.176
351.54	7.206
351.74	9.438
351.95	7.424
352.16	8.019
352.37	9.516
352.57	7.993
352.78	8.271
352.99	8.792
353.19	7.856
353.40	8.129
353.61	9.478
353.82	8.974
354.02	8.461
354.23	8.629
354.44	9.598
354.64	7.446
354.85	8.210
355.06	8.840
355.26	6.698
355.47	7.650
355.68	9.947
355.88	9.474
356.09	8.540
356.30	7.207
356.51	8.917
356.71	8.375
356.92	6.689
357.13	9.639
357.33	10.185
357.54	8.115
357.75	5.713
357.95	8.340
358.16	7.315
358.37	10.950
358.57	8.098
358.78	11.650
358.99	8.334
359.19	8.906
359.40	10.150
359.61	9.583
359.81	10.614
360.02	11.438
360.23	8.325
360.43	9.524
360.64	8.295
360.85	8.542
361.05	7.173
361.26	9.697
361.47	7.646
361.67	10.927
361.88	6.703
362.09	9.550
362.29	7.997
362.50	7.576
362.70	7.605
362.91	9.327
363.12	8.213
363.32	9.396
363.53	9.055
363.74	10.152
363.94	8.206
364.15	10.568
364.36	8.952
364.56	8.029
364.77	8.949
364.98	11.294
365.18	8.655
365.39	10.266
365.59	7.284
365.80	9.045
366.01	9.669
366.21	7.657
366.42	7.275
366.63	8.463
366.83	9.207
367.04	6.841
367.24	9.577
367.45	6.677
367.66	5.929
367.86	9.550
368.07	8.619
368.28	8.277
368.48	7.470
368.69	5.883
368.89	8.065
369.10	9.724
369.31	8.085
369.51	8.297
369.72	9.762
369.92	10.128
370.13	7.661
370.34	9.174
370.54	5.475
370.75	9.308
370.95	7.128
371.16	9.468
371.37	8.168
371.57	7.939
371.78	8.507
371.98	8.668
372.19	9.207
372.40	9.484
372.60	8.961
372.81	8.116
373.01	5.964
373.22	7.129
373.43	8.900
373.63	9.712
373.84	8.612
374.04	8.956
374.25	8.209
374.46	9.791
374.66	9.265
374.87	10.106
375.07	6.313
375.28	8.592
375.48	8.766
375.69	9.781
375.90	6.846
376.10	6.653
376.31	7.862
376.51	7.362
376.72	7.242
376.92	7.031
377.13	9.757
377.34	9.460
377.54	9.290
377.75	9.919
377.95	8.066
378.16	9.125
378.36	9.428
378.57	10.183
378.77	9.257
378.98	10.359
379.19	8.047
379.39	8.633
379.60	9.205
379.80	9.774
380.01	9.879
380.21	8.773
380.42	9.405
380.62	9.920
380.83	9.593
381.04	8.445
381.24	9.907
381.45	9.492
381.65	7.646
381.86	9.568
382.06	10.143
382.27	7.365
382.47	6.917
382.68	9.966
382.88	7.708
383.09	8.258
383.29	7.987
383.50	10.418
383.71	7.941
383.91	10.573
384.12	7.559
384.32	9.755
384.53	9.981
384.73	8.183
384.94	8.436
385.14	9.539
385.35	7.668
385.55	9.436
385.76	8.855
385.96	9.711
386.17	10.428
386.37	10.601
386.58	9.284
386.78	10.674
386.99	8.913
387.19	9.996
387.40	8.450
387.60	11.581
387.81	10.000
388.01	9.997
388.22	10.212
388.42	11.604
388.63	10.974
388.83	11.991
389.04	9.128
389.24	10.242
389.45	9.990
389.65	9.945
389.86	10.466
390.06	9.261
390.27	9.321
390.47	10.164
390.68	9.128
390.88	11.792
391.09	11.171
391.29	12.111
391.50	10.780
391.70	12.031
391.91	10.181
392.11	10.661
392.32	11.720
392.52	12.380
392.73	11.476
392.93	11.135
393.14	11.108
393.34	11.345
393.55	11.886
393.75	12.027
393.95	11.488
394.16	12.340
394.36	12.496
394.57	12.854
394.77	11.757
394.98	12.343
395.18	12.401
395.39	12.360
395.59	12.029
395.80	12.752
396.00	11.728
396.21	13.619
396.41	11.163
396.61	13.388
396.82	11.797
397.02	13.738
397.23	12.154
397.43	11.998
397.64	11.318
397.84	13.504
398.05	10.592
398.25	13.088
398.45	12.520
398.66	13.653
398.86	12.344
399.07	13.276
399.27	11.834
399.48	14.397
399.68	12.172
399.89	12.612
400.09	12.789
400.29	13.130
400.50	12.406
400.70	13.041
400.91	11.493
401.11	12.594
401.32	11.662
401.52	11.572
401.72	12.901
401.93	14.127
402.13	12.378
402.34	13.351
402.54	12.116
402.75	14.340
402.95	10.351
403.15	14.421
403.36	11.254
403.56	13.334
403.77	11.948
403.97	12.563
404.17	11.811
404.38	13.512
404.58	12.339
404.79	13.880
404.99	13.377
405.19	12.985
405.40	12.735
405.60	14.000
405.81	12.839
406.01	13.354
406.21	11.799
406.42	13.859
406.62	13.460
406.83	14.175
407.03	13.381
407.23	13.161
407.44	12.602
407.64	13.079
407.85	12.710
408.05	13.227
408.25	12.482
408.46	14.373
408.66	12.802
408.87	12.358
409.07	12.142
409.27	12.521
409.48	12.276
409.68	14.040
409.88	11.392
410.09	12.773
410.29	12.625
410.50	13.857
410.70	11.041
410.90	12.945
411.11	12.030
411.31	12.501
411.51	12.923
411.72	14.098
411.92	12.376
412.12	12.800
412.33	11.683
412.53	11.937
412.74	10.527
412.94	12.585
413.14	12.648
413.35	12.688
413.55	12.132
413.75	13.801
413.96	10.848
414.16	12.343
414.36	12.564
414.57	12.094
414.77	11.003
414.97	12.932
415.18	11.342
415.38	12.175
415.58	11.926
415.79	12.350
415.99	11.284
416.19	13.047
416.40	12.747
416.60	13.082
416.80	12.724
417.01	13.297
417.21	11.816
417.41	13.733
417.62	13.192
417.82	13.725
418.02	11.940
418.23	13.231
418.43	12.421
418.63	12.951
418.84	13.326
419.04	13.154
419.24	12.994
419.45	13.052
419.65	13.739
419.85	13.248
420.06	13.264
420.26	13.337
420.46	13.305
420.67	13.278
420.87	13.237
421.07	13.952
421.28	13.303
421.48	13.431
421.68	13.669
421.88	13.368
422.09	12.831
422.29	13.257
422.49	12.835
422.70	13.510
422.90	13.381
423.10	13.311
423.31	13.181
423.51	13.393
423.71	13.240
423.91	13.435
424.12	13.134
424.32	13.483
424.52	13.068
424.73	13.083
424.93	13.209
425.13	13.046
425.33	12.793
425.54	13.447
425.74	13.391
425.94	13.373
426.15	13.168
426.35	13.268
426.55	13.368
426.75	13.480
426.96	13.247
427.16	13.418
427.36	13.236
427.57	13.612
427.77	13.058
427.97	13.211
428.17	12.953
428.38	13.137
428.58	12.068
428.78	13.109
428.98	11.882
429.19	12.260
429.39	11.695
429.59	12.659
429.79	11.430
430.00	12.381
430.20	11.739
430.40	12.490
430.60	11.824
430.81	12.593
431.01	12.132
431.21	12.533
431.41	11.369
431.62	12.400
431.82	11.656
432.02	12.990
432.22	12.133
432.43	12.325
432.63	11.540
432.83	12.036
433.03	12.314
433.24	11.741
433.44	12.065
433.64	12.823
433.84	11.754
434.05	12.548
434.25	12.215
434.45	12.791
434.65	12.985
434.85	13.153
435.06	12.932
435.26	13.098
435.46	12.470
435.66	13.183
435.87	12.612
436.07	12.563
436.27	12.404
436.47	12.265
436.67	11.833
436.88	12.772
437.08	12.462
437.28	12.832
437.48	12.319
437.69	12.913
437.89	12.116
438.09	12.941
438.29	11.977
438.49	12.800
438.70	12.909
438.90	12.702
439.10	12.065
439.30	12.611
439.50	12.181
439.71	12.568
439.91	12.717
440.11	12.953
440.31	12.218
440.51	12.453
440.72	12.785
440.92	12.859
441.12	12.612
441.32	12.868
441.52	13.266
441.72	13.061
441.93	12.681
442.13	13.219
442.33	12.555
442.53	12.751
442.73	12.740
442.94	12.771
443.14	12.807
443.34	13.262
443.54	12.631
443.74	12.743
443.94	12.593
444.15	12.906
444.35	12.433
444.55	12.718
444.75	12.596
444.95	12.764
445.15	12.127
445.36	12.683
445.56	12.309
445.76	12.630
445.96	12.382
446.16	12.725
446.36	12.088
446.57	12.825
446.77	12.055
446.97	12.932
447.17	12.873
447.37	12.608
447.57	12.913
447.77	12.844
447.98	12.683
448.18	12.661
448.38	12.460
448.58	12.780
448.78	12.746
448.98	12.725
449.18	12.593
449.39	13.020
449.59	12.672
449.79	12.881
449.99	12.435
450.19	13.025
450.39	12.328
450.59	12.621
450.79	12.489
451.00	12.980
451.20	12.450
451.40	12.669
451.60	11.998
451.80	12.738
452.00	11.707
452.20	12.398
452.40	12.064
452.61	12.483
452.81	11.648
453.01	12.528
453.21	12.195
453.41	12.679
453.61	12.140
453.81	12.391
454.01	12.099
454.21	12.143
454.42	12.639
454.62	12.213
454.82	11.658
455.02	12.593
455.22	11.771
455.42	12.277
455.62	11.236
455.82	12.483
456.02	11.588
456.23	12.688
456.43	11.910
456.63	12.413
456.83	11.319
457.03	12.051
457.23	11.821
457.43	12.588
457.63	11.462
457.83	12.391
458.03	11.497
458.23	12.030
458.43	11.431
458.64	12.092
458.84	12.023
459.04	11.790
459.24	12.002
459.44	12.435
459.64	12.276
459.84	12.235
460.04	11.942
460.24	12.139
460.44	12.228
460.64	12.417
460.84	12.226
461.04	12.252
461.24	12.354
461.45	12.526
461.65	12.194
461.85	12.470
462.05	12.222
462.25	12.808
462.45	12.426
462.65	12.662
462.85	12.015
463.05	12.201
463.25	11.399
463.45	12.052
463.65	11.952
463.85	11.982
464.05	11.402
464.25	11.922
464.45	11.914
464.65	11.891
464.85	11.529
465.05	11.714
465.26	11.584
465.46	12.291
465.66	12.133
465.86	12.333
466.06	11.697
466.26	12.103
466.46	11.396
466.66	11.848
466.86	11.254
467.06	12.152
467.26	11.283
467.46	12.023
467.66	11.407
467.86	11.818
468.06	11.326
468.26	11.953
468.46	11.689
468.66	12.202
468.86	11.414
469.06	11.894
469.26	11.437
469.46	11.937
469.66	11.454
469.86	12.032
470.06	11.744
470.26	12.228
470.46	11.251
470.66	12.570
470.86	11.167
471.06	12.128
471.26	10.702
471.46	12.272
471.66	11.425
471.86	12.151
472.06	11.795
472.26	12.248
472.46	12.088
472.66	12.019
472.86	11.875
473.06	11.628
473.26	11.669
473.46	12.222
473.66	11.481
473.86	12.054
474.06	11.585
474.26	12.677
474.46	11.966
474.66	12.333
474.86	11.770
475.06	12.000
475.26	11.348
475.46	11.906
475.66	11.449
475.86	12.143
476.06	11.764
476.26	12.517
476.46	11.993
476.66	11.762
476.86	11.045
477.06	11.862
477.26	11.598
477.46	12.287
477.65	11.934
477.85	12.323
478.05	11.497
478.25	12.312
478.45	11.876
478.65	12.491
478.85	12.105
479.05	12.403
479.25	12.082
479.45	12.281
479.65	11.865
479.85	12.317
480.05	11.972
480.25	12.440
480.45	12.006
480.65	12.575
480.85	12.301
481.05	12.596
481.25	12.350
481.44	12.410
481.64	11.833
481.84	12.501
482.04	12.153
482.24	12.531
482.44	12.366
482.64	12.355
482.84	12.295
483.04	12.509
483.24	12.050
483.44	12.265
483.64	12.246
483.84	12.209
484.04	12.553
484.23	12.517
484.43	12.676
484.63	12.829
484.83	13.061
485.03	13.545
485.23	13.422
485.43	13.228
485.63	13.190
485.83	13.116
486.03	13.087
486.23	13.093
486.42	13.086
486.62	13.183
486.82	13.074
487.02	12.740
487.22	12.830
487.42	12.626
487.62	12.835
487.82	12.724
488.02	12.661
488.22	12.670
488.41	12.758
488.61	12.675
488.81	12.681
489.01	12.945
489.21	13.068
489.41	12.920
489.61	13.109
489.81	13.059
490.01	13.151
490.20	13.093
490.40	13.009
490.60	12.798
490.80	12.690
491.00	12.685
491.20	12.776
491.40	12.734
491.60	12.536
491.79	12.659
491.99	12.637
492.19	12.599
492.39	12.661
492.59	12.653
492.79	12.883
492.99	12.762
493.19	13.018
493.38	12.752
493.58	13.016
493.78	13.046
493.98	13.157
494.18	13.222
494.38	13.115
494.58	12.946
494.77	12.772
494.97	12.886
495.17	12.996
495.37	12.721
495.57	12.746
495.77	12.720
495.96	12.876
496.16	12.597
496.36	12.591
496.56	12.562
496.76	12.631
496.96	12.646
497.15	12.330
497.35	13.074
497.55	12.689
497.75	13.030
497.95	12.713
498.15	13.018
498.34	12.960
498.54	13.002
498.74	12.963
498.94	12.817
499.14	13.096
499.34	12.970
499.53	12.935
499.73	12.727
499.93	12.802
500.13	12.807
500.33	12.898
500.52	13.139
500.72	12.870
500.92	12.844
501.12	12.673
501.32	12.678
501.52	12.780
501.71	13.053
501.91	12.566
502.11	13.281
502.31	12.069
502.51	13.146
502.70	12.456
502.90	12.861
503.10	12.704
503.30	13.204
503.50	12.973
503.69	12.544
503.89	12.653
504.09	13.175
504.29	12.817
504.48	13.372
504.68	13.092
504.88	12.919
505.08	12.839
505.28	12.910
505.47	13.117
505.67	13.215
505.87	12.764
506.07	13.087
506.27	12.746
506.46	13.381
506.66	12.644
506.86	12.897
507.06	12.907
507.25	12.960
507.45	12.831
507.65	13.113
507.85	13.003
508.04	13.168
508.24	13.349
508.44	13.165
508.64	12.894
508.83	12.767
509.03	12.820
509.23	13.197
509.43	12.896
509.63	13.322
509.82	12.888
510.02	13.398
510.22	12.875
510.42	13.170
510.61	12.836
510.81	13.362
511.01	13.039
511.21	12.998
511.40	12.864
511.60	13.575
511.80	13.143
511.99	13.335
512.19	13.394
512.39	13.402
512.59	13.007
512.78	13.456
512.98	13.386
513.18	13.256
513.38	13.304
513.57	13.496
513.77	13.206
513.97	13.264
514.17	13.231
514.36	13.022
514.56	13.131
514.76	13.329
514.95	13.410
515.15	13.311
515.35	13.233
515.55	13.189
515.74	13.256
515.94	13.758
516.14	13.016
516.33	13.203
516.53	13.182
516.73	13.152
516.93	13.110
517.12	13.621
517.32	13.085
517.52	13.796
517.71	13.324
517.91	13.308
518.11	13.034
518.30	13.253
518.50	12.866
518.70	13.226
518.90	12.878
519.09	13.322
519.29	13.187
519.49	13.370
519.68	13.009
519.88	13.138
520.08	13.521
520.27	13.828
520.47	13.605
520.67	13.440
520.86	13.285
521.06	13.713
521.26	13.260
521.45	13.188
521.65	13.302
521.85	13.025
522.04	13.541
522.24	13.346
522.44	13.447
522.63	13.480
522.83	12.984
523.03	13.159
523.22	13.183
523.42	13.281
523.62	13.386
523.81	13.304
524.01	13.689
524.21	12.881
524.40	13.129
524.60	13.378
524.80	13.055
524.99	13.405
525.19	12.954
525.39	13.022
525.58	13.078
525.78	12.948
525.98	13.230
526.17	13.113
526.37	13.581
526.57	13.195
526.76	13.299
526.96	13.099
527.15	13.287
527.35	13.286
527.55	13.482
527.74	13.358
527.94	13.135
528.14	13.153
528.33	12.988
528.53	12.951
528.72	13.316
528.92	13.395
529.12	13.368
529.31	13.179
529.51	13.373
529.71	13.519
529.90	13.355
530.10	13.599
530.29	13.641
530.49	13.809
530.69	13.807
530.88	13.703
531.08	13.700
531.28	13.410
531.47	13.708
531.67	13.443
531.86	13.270
532.06	13.247
532.26	13.179
532.45	13.319
532.65	13.398
532.84	13.171
533.04	13.390
533.24	13.138
533.43	13.284
533.63	13.377
533.82	13.454
534.02	13.317
534.22	13.228
534.41	13.406
534.61	13.455
534.80	13.276
535.00	13.609
535.19	13.304
535.39	13.634
535.59	13.589
535.78	13.593
535.98	13.710
536.17	13.573
536.37	13.603
536.57	13.381
536.76	13.207
536.96	13.489
537.15	13.630
537.35	13.381
537.54	13.659
537.74	13.370
537.93	13.412
538.13	13.836
538.33	13.803
538.52	13.701
538.72	13.493
538.91	13.686
539.11	13.928
539.30	13.879
539.50	13.298
539.70	13.688
539.89	13.702
540.09	13.773
540.28	13.523
540.48	13.781
540.67	13.517
540.87	13.539
541.06	13.410
541.26	13.328
541.45	13.337
541.65	13.492
541.85	13.469
542.04	13.572
542.24	13.892
542.43	13.706
542.63	13.600
542.82	13.860
543.02	13.829
543.21	13.872
543.41	13.846
543.60	13.843
543.80	14.069
543.99	13.928
544.19	13.979
544.38	13.855
544.58	13.879
544.77	14.085
544.97	13.760
545.16	13.846
545.36	13.938
545.56	14.260
545.75	13.808
545.95	13.752
546.14	13.968
546.34	13.611
546.53	13.882
546.73	13.930
546.92	13.757
547.12	13.849
547.31	14.123
547.51	14.162
547.70	14.141
547.90	14.044
548.09	14.491
548.29	13.755
548.48	14.029
548.68	13.956
548.87	14.261
549.07	14.148
549.26	14.169
549.46	14.151
549.65	14.422
549.84	13.909
550.04	14.354
550.23	14.212
550.43	14.126
550.62	13.748
550.82	14.543
551.01	13.908
551.21	14.258
551.40	13.752
551.60	13.757
551.79	14.287
551.99	14.408
552.18	14.039
552.38	14.486
552.57	14.152
552.77	14.286
552.96	14.077
553.16	14.805
553.35	14.329
553.54	15.257
553.74	14.345
553.93	14.849
554.13	14.636
554.32	14.879
554.52	14.649
554.71	15.103
554.91	14.100
555.10	14.970
555.29	14.436
555.49	14.804
555.68	14.678
555.88	14.762
556.07	14.638
556.27	15.210
556.46	14.866
556.66	14.919
556.85	14.859
557.04	15.256
557.24	14.966
557.43	15.269
557.63	15.124
557.82	14.857
558.02	15.012
558.21	14.950
558.40	14.914
558.60	15.538
558.79	15.118
558.99	15.066
559.18	15.385
559.38	15.197
559.57	15.522
559.76	15.813
559.96	16.031
560.15	15.978
560.35	15.382
560.54	15.298
560.73	15.273
560.93	15.615
561.12	15.999
561.32	15.545
561.51	16.307
561.70	16.005
561.90	16.119
562.09	15.902
562.29	15.743
562.48	16.073
562.67	16.226
562.87	16.479
563.06	16.393
563.26	16.365
563.45	16.317
563.64	16.379
563.84	16.938
564.03	16.927
564.23	16.249
564.42	16.788
564.61	16.451
564.81	16.537
565.00	16.473
565.20	16.941
565.39	17.068
565.58	17.042
565.78	16.140
565.97	17.336
566.16	17.065
566.36	17.378
566.55	17.448
566.74	17.480
566.94	16.972
567.13	17.403
567.33	17.568
567.52	18.118
567.71	17.448
567.91	17.474
568.10	17.525
568.29	17.833
568.49	17.944
568.68	17.704
568.87	17.461
569.07	17.512
569.26	18.022
569.45	17.834
569.65	17.895
569.84	18.155
570.04	17.581
570.23	18.244
570.42	17.543
570.62	18.117
570.81	17.731
571.00	17.610
571.20	17.936
571.39	18.262
571.58	18.307
571.78	18.051
571.97	18.522
572.16	18.503
572.36	18.576
572.55	18.302
572.74	18.186
572.94	17.950
573.13	18.448
573.32	18.275
573.51	18.633
573.71	18.445
573.90	18.882
574.09	18.831
574.29	18.626
574.48	18.929
574.67	18.808
574.87	19.120
575.06	18.972
575.25	18.872
575.45	19.073
575.64	18.888
575.83	19.452
576.03	19.285
576.22	19.148
576.41	19.298
576.60	19.226
576.80	19.093
576.99	19.021
577.18	19.686
577.38	19.269
577.57	19.384
577.76	19.440
577.95	19.440
578.15	19.339
578.34	19.321
578.53	19.154
578.73	19.713
578.92	19.105
579.11	19.212
579.30	19.214
579.50	19.045
579.69	19.505
579.88	19.291
580.08	18.766
580.27	19.459
580.46	19.102
580.65	19.318
580.85	19.456
581.04	19.967
581.23	19.067
581.42	19.893
581.62	18.929
581.81	19.138
582.00	19.475
582.19	19.170
582.39	19.551
582.58	18.972
582.77	19.760
582.96	19.564
583.16	18.594
583.35	19.086
583.54	19.055
583.73	19.140
583.93	18.824
584.12	19.096
584.31	19.499
584.50	18.633
584.70	18.720
584.89	19.407
585.08	19.175
585.27	19.790
585.47	18.561
585.66	19.805
585.85	18.446
586.04	19.248
586.24	19.631
586.43	18.985
586.62	18.854
586.81	19.053
587.00	19.178
587.20	19.189
587.39	18.642
587.58	19.124
587.77	18.869
587.97	19.234
588.16	18.745
588.35	19.080
588.54	18.480
588.73	17.956
588.93	19.642
589.12	19.357
589.31	19.091
589.50	19.150
589.69	19.415
589.89	19.365
590.08	18.215
590.27	19.298
590.46	19.030
590.65	19.373
590.85	18.662
591.04	19.253
591.23	19.717
591.42	19.599
591.61	18.910
591.81	19.273
592.00	18.952
592.19	19.524
592.38	18.181
592.57	19.350
592.77	18.694
592.96	19.518
593.15	19.896
593.34	19.394
593.53	19.381
593.72	19.386
593.92	19.424
594.11	20.017
594.30	19.367
594.49	19.588
594.68	18.905
594.87	19.771
595.07	19.178
595.26	20.099
595.45	19.283
595.64	19.054
595.83	19.680
596.02	19.508
596.22	19.102
596.41	19.766
596.60	19.281
596.79	19.688
596.98	20.100
597.17	20.160
597.37	20.106
597.56	20.201
597.75	19.561
597.94	20.103
598.13	19.749
598.32	20.178
598.51	20.285
598.71	20.363
598.90	20.589
599.09	20.638
599.28	20.239
599.47	20.378
599.66	20.123
599.85	20.868
600.05	20.148
600.24	20.618
600.43	19.590
600.62	20.376
600.81	19.787
601.00	21.215
601.19	19.480
601.38	20.543
601.58	21.090
601.77	20.468
601.96	20.227
602.15	21.395
602.34	20.279
602.53	20.731
602.72	20.517
602.91	20.872
603.10	20.704
603.30	20.960
603.49	20.309
603.68	20.716
603.87	20.298
604.06	20.836
604.25	21.422
604.44	20.702
604.63	20.933
604.82	20.075
605.01	20.781
605.21	21.419
605.40	20.970
605.59	20.662
605.78	21.491
605.97	20.996
606.16	20.740
606.35	20.764
606.54	20.776
606.73	20.775
606.92	21.440
607.11	21.111
607.30	21.020
607.50	21.064
607.69	20.240
607.88	21.037
608.07	20.519
608.26	21.100
608.45	20.685
608.64	20.168
608.83	19.731
609.02	20.942
609.21	20.569
609.40	20.077
609.59	19.883
609.78	20.167
609.97	19.933
610.16	20.655
610.35	20.216
610.55	20.903
610.74	20.456
610.93	20.477
611.12	19.751
611.31	20.400
611.50	19.853
611.69	19.961
611.88	20.264
612.07	21.118
612.26	19.894
612.45	19.684
612.64	19.917
612.83	19.775
613.02	18.841
613.21	20.106
613.40	18.818
613.59	19.832
613.78	19.515
613.97	19.804
614.16	19.081
614.35	19.922
614.54	18.200
614.73	18.575
614.92	19.199
615.11	18.844
615.30	17.791
615.49	19.089
615.68	18.403
615.87	18.254
616.07	17.942
616.26	19.036
616.45	18.033
616.64	18.811
616.83	18.318
617.02	18.371
617.21	17.356
617.40	18.305
617.59	18.032
617.78	18.814
617.97	17.840
618.16	18.129
618.35	17.553
618.54	18.768
618.73	18.227
618.92	18.641
619.11	17.621
619.30	18.782
619.49	17.328
619.68	18.406
619.86	17.645
620.05	18.186
620.24	17.759
620.43	17.354
620.62	17.195
620.81	17.868
621.00	17.713
621.19	18.755
621.38	17.797
621.57	18.183
621.76	17.113
621.95	18.107
622.14	17.680
622.33	18.608
622.52	16.740
622.71	17.655
622.90	17.306
623.09	17.942
623.28	17.080
623.47	18.575
623.66	16.735
623.85	16.954
624.04	16.428
624.23	17.910
624.42	17.087
624.61	17.070
624.80	17.000
624.99	17.382
625.18	16.241
625.36	17.528
625.55	17.182
625.74	17.209
625.93	16.188
626.12	18.084
626.31	17.283
626.50	18.408
626.69	17.233
626.88	17.610
627.07	17.460
627.26	17.511
627.45	17.459
627.64	17.548
627.83	17.064
628.02	17.760
628.20	17.014
628.39	17.883
628.58	17.490
628.77	18.375
628.96	16.864
629.15	17.115
629.34	17.473
629.53	17.146
629.72	17.151
629.91	17.560
630.10	17.077
630.29	17.867
630.47	16.627
630.66	16.642
630.85	16.935
631.04	16.718
631.23	16.279
631.42	17.095
631.61	16.722
631.80	17.744
631.99	16.164
632.18	16.433
632.36	15.489
632.55	16.446
632.74	16.022
632.93	16.594
633.12	16.320
633.31	16.183
633.50	16.318
633.69	17.232
633.88	15.351
634.06	16.765
634.25	16.276
634.44	16.890
634.63	16.628
634.82	17.719
635.01	16.965
635.20	16.864
635.39	16.108
635.57	16.877
635.76	16.249
635.95	16.441
636.14	16.692
636.33	17.020
636.52	16.018
636.71	16.389
636.89	16.374
637.08	16.337
637.27	14.967
637.46	16.919
637.65	15.563
637.84	16.557
638.03	15.232
638.21	17.232
638.40	16.528
638.59	16.216
638.78	15.374
638.97	17.176
639.16	16.322
639.34	16.708
639.53	14.176
639.72	16.959
639.91	16.102
640.10	15.134
640.29	16.351
640.47	16.407
640.66	16.175
640.85	17.459
641.04	14.819
641.23	15.857
641.42	15.430
641.60	16.646
641.79	15.541
641.98	16.497
642.17	14.851
642.36	17.042
642.54	15.257
642.73	15.866
642.92	15.512
643.11	15.480
643.30	14.657
643.49	15.712
643.67	13.669
643.86	15.966
644.05	14.843
644.24	16.206
644.43	15.055
644.61	16.378
644.80	14.756
644.99	14.950
645.18	15.519
645.37	15.330
645.55	15.322
645.74	15.267
645.93	16.233
646.12	15.238
646.31	15.799
646.49	15.552
646.68	15.291
646.87	15.399
647.06	15.889
647.24	16.096
647.43	14.198
647.62	16.050
647.81	14.167
648.00	16.252
648.18	14.027
648.37	15.870
648.56	15.843
648.75	15.734
648.93	14.973
649.12	15.472
649.31	15.296
649.50	14.893
649.68	14.843
649.87	15.382
650.06	14.021
650.25	16.097
650.43	14.791
650.62	15.198
650.81	14.476
651.00	15.470
651.18	15.452
651.37	15.788
651.56	13.864
651.75	16.263
651.93	14.642
652.12	15.893
652.31	14.019
652.50	14.718
652.68	14.774
652.87	16.081
653.06	14.817
653.25	16.972
653.43	14.689
653.62	15.006
653.81	15.084
654.00	16.094
654.18	14.463
654.37	15.155
654.56	13.531
654.74	14.724
654.93	13.482
655.12	14.522
655.31	13.704
655.49	15.529
655.68	12.870
655.87	13.981
656.05	11.552
656.24	14.342
656.43	12.396
656.62	14.099
656.80	13.584
656.99	13.451
657.18	12.369
657.36	14.253
657.55	13.777
657.74	13.366
657.93	13.403
658.11	14.868
658.30	13.305
658.49	12.595
658.67	13.206
658.86	14.058
659.05	12.212
659.23	13.687
659.42	12.747
659.61	14.210
659.79	13.421
659.98	13.205
660.17	14.186
660.35	14.890
660.54	14.018
660.73	15.101
660.91	14.065
661.10	14.276
661.29	12.536
661.47	13.755
661.66	12.620
661.85	13.050
662.03	13.852
662.22	12.226
662.41	11.195
662.59	12.423
662.78	11.188
662.97	11.707
663.15	11.458
663.34	10.347
663.53	9.854
663.71	11.946
663.90	10.432
664.09	12.027
664.27	10.835
664.46	10.976
664.65	9.617
664.83	11.110
665.02	9.876
665.21	9.049
665.39	8.480
665.58	10.366
665.77	11.178
665.95	11.088
666.14	9.555
666.32	9.278
666.51	10.433
666.70	10.456
666.88	9.434
667.07	9.985
667.26	8.103
667.44	10.223
667.63	10.083
667.81	9.364
668.00	8.706
668.19	11.499
668.37	9.940
668.56	12.033
668.75	8.826
668.93	10.840
669.12	9.755
669.30	10.777
669.49	8.981
669.68	11.053
669.86	10.304
670.05	9.650
670.23	8.837
670.42	9.887
670.61	10.618
670.79	10.363
670.98	10.477
671.16	10.499
671.35	9.322
671.54	10.017
671.72	9.508
671.91	10.318
672.09	8.443
672.28	11.576
672.46	11.597
672.65	10.330
672.84	10.060
673.02	11.166
673.21	8.345
673.39	9.176
673.58	10.766
673.77	9.985
673.95	9.354
674.14	10.798
674.32	8.628
674.51	12.032
674.69	9.271
674.88	10.582
675.07	8.951
675.25	12.219
675.44	10.771
675.62	9.847
675.81	10.300
675.99	13.605
676.18	11.571
676.36	10.979
676.55	8.449
676.74	11.150
676.92	12.067
677.11	11.866
677.29	10.172
677.48	12.726
677.66	12.464
677.85	10.591
678.03	10.194
678.22	13.176
678.40	11.118
678.59	10.624
678.78	8.760
678.96	11.248
679.15	10.206
679.33	12.958
679.52	12.529
679.70	12.169
679.89	11.176
680.07	12.714
680.26	11.266
680.44	12.304
680.63	11.934
680.81	12.159
681.00	10.878
681.18	11.777
681.37	11.507
681.55	13.685
681.74	13.397
681.92	13.855
682.11	13.006
682.29	12.900
682.48	11.810
682.66	13.702
682.85	12.675
683.03	14.027
683.22	13.392
683.40	14.066
683.59	13.394
683.77	13.717
683.96	11.778
684.14	14.194
684.33	11.776
684.51	14.937
684.70	13.500
684.88	15.230
685.07	15.340
685.25	14.437
685.44	13.083
685.62	13.998
685.81	11.482
685.99	14.759
686.18	12.406
686.36	14.618
686.55	12.672
686.73	14.168
686.92	14.441
687.10	15.275
687.29	16.096
687.47	16.177
687.65	15.066
687.84	15.575
688.02	16.859
688.21	16.915
688.39	14.482
688.58	17.729
688.76	14.656
688.95	16.432
689.13	15.339
689.32	18.144
689.50	17.037
689.68	17.028
689.87	16.777
690.05	19.333
690.24	17.130
690.42	17.293
690.61	17.892
690.79	18.675
690.98	18.007
691.16	19.192
691.34	15.960
691.53	18.954
691.71	17.984
691.90	20.180
692.08	16.208
692.27	22.211
692.45	21.326
692.63	20.666
692.82	20.996
693.00	19.892
693.19	20.233
693.37	22.219
693.56	19.948
693.74	24.295
693.92	20.553
694.11	22.509
694.29	23.738
694.48	24.810
694.66	23.435
694.84	26.119
695.03	22.307
695.21	25.972
695.40	25.035
695.58	27.013
695.76	25.097
695.95	27.123
696.13	24.225
696.32	27.385
696.50	29.266
696.68	29.850
696.87	26.271
697.05	29.572
697.24	27.074
697.42	28.791
697.60	27.626
697.79	29.846
697.97	31.153
698.16	31.619
698.34	30.104
698.52	32.456
698.71	32.817
698.89	32.590
699.07	31.249
699.26	33.107
699.44	32.290
699.63	32.830
699.81	32.765
699.99	34.967
700.18	32.945
700.36	33.097
700.54	33.167
700.73	34.749
700.91	33.866
701.09	35.323
701.28	35.092
701.46	35.542
701.64	33.371
701.83	36.133
702.01	34.139
702.20	37.534
702.38	37.778
702.56	37.375
702.75	35.095
702.93	37.353
703.11	34.648
703.30	38.853
703.48	39.196
703.66	37.502
703.85	36.353
704.03	39.403
704.21	36.471
704.40	38.406
704.58	37.193
704.76	38.992
704.95	36.747
705.13	40.579
705.31	37.967
705.50	41.579
705.68	39.085
705.86	40.687
706.04	38.328
706.23	40.057
706.41	39.947
706.59	41.616
706.78	39.968
706.96	41.932
707.14	42.328
707.33	42.136
707.51	41.022
707.69	41.869
707.88	40.884
708.06	42.598
708.24	41.625
708.42	42.547
708.61	41.559
708.79	44.339
708.97	43.445
709.16	43.760
709.34	42.265
709.52	42.545
709.71	43.085
709.89	43.241
710.07	41.424
710.25	45.682
710.44	43.955
710.62	43.601
710.80	44.593
710.98	45.970
711.17	43.921
711.35	45.372
711.53	41.973
711.72	45.056
711.90	44.708
712.08	45.049
712.26	42.687
712.45	44.089
712.63	44.622
712.81	45.658
712.99	43.918
713.18	46.864
713.36	45.570
713.54	45.185
713.72	44.358
713.91	45.242
714.09	43.458
714.27	46.671
714.45	45.167
714.64	46.516
714.82	45.973
715.00	45.807
715.18	44.676
715.37	47.024
715.55	44.951
715.73	46.521
715.91	46.025
716.10	47.888
716.28	45.532
716.46	46.657
716.64	43.695
716.83	46.736
717.01	45.791
717.19	47.424
717.37	45.691
717.55	46.637
717.74	46.761
717.92	46.126
718.10	45.493
718.28	48.238
718.47	45.076
718.65	47.177
718.83	47.985
719.01	44.500
719.19	47.342
719.38	47.764
719.56	47.274
719.74	48.170
719.92	42.919
720.10	46.626
720.29	47.004
720.47	49.229
720.65	45.967
720.83	50.000
721.01	43.777
721.20	50.119
721.38	45.255
721.56	47.781
721.74	48.866
721.92	47.444
722.11	45.256
722.29	50.224
722.47	48.779
722.65	50.880
722.83	46.524
723.01	50.754
723.20	45.984
723.38	48.587
723.56	48.176
723.74	47.383
723.92	46.775
724.10	49.790
724.29	46.089
724.47	50.376
724.65	47.404
724.83	48.911
725.01	48.255
725.19	51.745
725.38	47.140
725.56	50.360
725.74	46.065
725.92	49.863
726.10	47.525
726.28	49.504
726.46	46.932
726.65	52.068
726.83	48.000
727.01	51.050
727.19	47.319
727.37	49.499
727.55	49.582
727.73	49.945
727.92	49.462
728.10	49.711
728.28	47.986
728.46	52.898
728.64	46.584
728.82	52.492
729.00	47.869
729.19	51.876
729.37	49.335
729.55	50.719
729.73	48.172
729.91	50.775
730.09	49.653
730.27	50.843
730.45	48.600
730.63	49.615
730.82	51.121
731.00	51.282
731.18	49.823
731.36	51.160
731.54	50.217
731.72	51.602
731.90	49.091
732.08	51.401
732.26	49.672
732.45	51.916
732.63	52.055
732.81	51.577
732.99	52.272
733.17	52.415
733.35	48.983
733.53	52.454
733.71	48.235
733.89	54.229
734.07	48.131
734.25	54.176
734.44	51.941
734.62	52.191
734.80	50.505
734.98	53.355
735.16	54.371
735.34	52.808
735.52	53.174
735.70	51.425
735.88	52.422
736.06	53.242
736.24	54.338
736.42	54.755
736.60	55.404
736.78	54.134
736.97	49.750
737.15	55.539
737.33	53.538
737.51	53.448
737.69	55.004
737.87	54.688
738.05	52.831
738.23	56.563
738.41	54.995
738.59	55.311
738.77	54.091
738.95	54.516
739.13	55.244
739.31	52.531
739.49	52.845
739.67	55.764
739.85	53.392
740.03	55.333
740.21	53.711
740.39	57.157
740.57	53.844
740.75	54.257
740.93	54.160
741.11	58.027
741.30	54.076
741.48	54.452
741.66	54.221
741.84	57.976
742.02	53.875
742.20	55.946
742.38	55.142
742.56	56.166
742.74	55.027
742.92	55.219
743.10	55.585
743.28	57.393
743.46	54.698
743.64	54.215
743.82	53.632
744.00	53.919
744.18	53.822
744.36	58.731
744.54	54.594
744.72	61.153
744.90	53.938
745.08	57.204
745.26	55.358
745.44	59.325
745.62	55.570
745.80	55.365
745.98	56.707
746.16	57.443
746.34	54.257
746.52	55.190
746.70	57.344
746.87	58.595
747.05	55.732
747.23	56.753
747.41	55.494
747.59	56.099
747.77	52.768
747.95	55.724
748.13	57.387
748.31	55.303
748.49	56.105
748.67	56.928
748.85	55.742
749.03	59.105
749.21	53.515
749.39	62.351
749.57	53.243
749.75	55.923
749.93	54.826
750.11	58.995
750.29	59.184
750.47	57.567
750.65	54.302
750.83	55.322
751.01	54.363
751.18	54.548
751.36	56.787
751.54	56.085
751.72	54.656
751.90	57.878
752.08	51.013
752.26	54.803
752.44	55.183
752.62	56.177
752.80	56.572
752.98	59.118
753.16	53.977
753.34	57.545
753.52	57.893
753.69	58.112
753.87	53.787
754.05	60.954
754.23	54.098
754.41	59.339
754.59	56.992
754.77	59.750
754.95	55.631
755.13	57.086
755.31	57.859
755.49	53.492
755.66	54.064
755.84	58.540
756.02	55.221
756.20	56.555
756.38	55.076
756.56	51.716
756.74	52.471
756.92	56.894
757.10	51.691
757.28	57.411
757.45	57.317
757.63	55.260
757.81	55.760
757.99	57.365
758.17	55.397
758.35	57.837
758.53	53.109
758.71	56.577
758.88	53.357
759.06	53.453
759.24	52.283
759.42	53.028
759.60	51.339
759.78	54.563
759.96	50.510
760.13	52.983
760.31	46.364
760.49	47.800
760.67	42.913
760.85	49.347
761.03	44.455
761.21	46.780
761.38	45.388
761.56	48.228
761.74	44.632
761.92	51.110
762.10	44.261
762.28	49.033
762.46	43.829
762.63	48.870
762.81	44.454
762.99	48.083
763.17	47.143
763.35	47.276
763.53	45.995
763.70	47.901
763.88	48.052
764.06	48.755
764.24	48.515
764.42	50.487
764.60	48.665
764.77	50.284
764.95	47.235
765.13	51.135
765.31	48.696
765.49	50.241
765.66	48.965
765.84	51.044
766.02	48.566
766.20	50.524
766.38	50.833
766.56	50.750
766.73	50.723
766.91	51.111
767.09	53.662
767.27	53.721
767.45	49.336
767.62	52.007
767.80	49.116
767.98	55.848
768.16	50.975
768.33	54.689
768.51	52.106
768.69	56.725
768.87	53.259
769.05	56.935
769.22	53.178
769.40	56.257
769.58	54.356
769.76	56.227
769.94	53.210
770.11	53.768
770.29	56.722
770.47	56.280
770.65	53.643
770.82	60.554
771.00	48.474
771.18	56.986
771.36	53.314
771.53	58.890
771.71	55.317
771.89	58.023
772.07	55.106
772.25	57.417
772.42	53.617
772.60	60.253
772.78	54.037
772.96	55.712
773.13	55.751
773.31	51.394
773.49	54.558
773.67	55.002
773.84	54.583
774.02	55.639
774.20	52.041
774.37	58.751
774.55	57.938
774.73	60.920
774.91	56.063
775.08	58.341
775.26	56.955
775.44	59.043
775.62	53.472
775.79	57.356
775.97	50.876
776.15	55.277
776.32	49.807
776.50	60.971
776.68	60.061
776.86	59.122
777.03	55.689
777.21	54.850
777.39	58.713
777.56	59.785
777.74	56.376
777.92	55.117
778.10	52.581
778.27	61.074
778.45	53.935
778.63	52.399
778.80	56.367
778.98	55.314
779.16	56.414
779.34	59.692
779.51	52.118
779.69	58.584
779.87	49.426
780.04	54.618
780.22	50.000
780.40	58.600
780.57	52.440
780.75	56.046
780.93	61.711
781.10	58.392
781.28	60.611
781.46	55.435
781.63	53.003
781.81	58.602
781.99	51.786
782.16	57.621
782.34	51.130
782.52	53.216
782.69	57.860
782.87	54.458
783.05	51.642
783.22	54.660
783.40	54.060
783.58	53.096
783.75	53.787
783.93	59.772
784.11	54.324
784.28	56.739
784.46	52.503
784.64	59.204
784.81	49.288
784.99	56.807
785.17	52.510
785.34	49.551
785.52	47.384
785.69	58.005
785.87	50.391
786.05	56.503
786.22	48.861
786.40	55.407
786.58	54.356
786.75	57.250
786.93	53.290
787.11	54.162
787.28	52.099
787.46	53.814
787.63	51.034
787.81	53.677
787.99	51.567
788.16	53.443
788.34	46.480
788.51	52.992
788.69	51.517
788.87	51.005
789.04	45.313
789.22	53.900
789.39	51.313
789.57	49.952
789.75	48.102
789.92	53.764
790.10	50.664
790.27	53.482
790.45	48.156
790.63	53.230
790.80	47.065
790.98	48.927
791.15	51.324
791.33	54.364
791.51	47.216
791.68	47.352
791.86	52.037
792.03	51.461
792.21	53.021
792.39	58.574
792.56	51.688
792.74	54.988
792.91	49.493
793.09	45.876
793.26	49.417
793.44	53.600
793.62	45.540
793.79	52.963
793.97	53.310
794.14	54.114
794.32	48.514
794.49	56.887
794.67	50.032
794.84	50.772
795.02	48.078
795.20	50.982
795.37	48.091
795.55	51.348
795.72	48.826
795.90	52.005
796.07	46.746
796.25	49.971
796.42	48.391
796.60	51.750
796.77	45.088
796.95	49.553
797.13	44.752
797.30	49.516
797.48	47.135
797.65	50.140
797.83	44.193
798.00	50.840
798.18	43.597
798.35	49.336
798.53	48.189
798.70	51.782
798.88	47.184
799.05	49.776
799.23	48.387
799.40	50.458
799.58	46.717
799.75	52.982
799.93	43.754
800.10	51.676
800.28	47.258
800.45	48.748
800.63	43.107
800.80	56.398
800.98	44.459
801.15	45.417
801.33	46.721
801.50	49.657
801.68	42.095
801.85	49.779
802.03	46.658
802.20	46.257
802.38	52.322
802.55	49.184
802.73	43.669
802.90	47.625
803.08	52.225
803.25	50.915
803.43	51.960
803.60	49.261
803.78	50.368
803.95	50.651
804.13	46.398
804.30	53.670
804.48	41.649
804.65	56.906
804.83	49.407
805.00	50.683
805.17	43.157
805.35	48.512
805.52	46.560
805.70	50.607
805.87	44.003
806.05	51.608
806.22	48.810
806.40	47.395
806.57	48.947
806.75	53.581
806.92	50.765
807.09	54.997
807.27	53.244
807.44	54.109
807.62	45.665
807.79	47.493
807.97	45.124
808.14	55.451
808.31	39.312
808.49	43.577
808.66	49.552
808.84	46.688
809.01	43.901
809.19	48.524
809.36	52.246
809.53	49.642
809.71	47.180
809.88	49.850
810.06	51.821
810.23	47.997
810.41	50.852
810.58	54.478
810.75	42.180
810.93	46.568
811.10	46.257
811.28	41.717
811.45	45.192
811.62	40.062
811.80	41.498
811.97	43.456
812.15	52.587
812.32	46.057
812.49	46.599
812.67	41.271
812.84	42.407
813.02	51.629
813.19	41.082
813.36	46.115
813.54	34.846
813.71	44.988
813.89	39.937
814.06	48.031
814.23	39.652
814.41	40.919
814.58	46.481
814.75	44.712
814.93	39.405
815.10	44.013
815.28	32.298
815.45	40.972
815.62	43.180
815.80	40.931
815.97	41.285
816.14	43.471
816.32	45.343
816.49	41.313
816.66	42.905
816.84	38.692
817.01	40.585
817.18	39.689
817.36	41.091
817.53	44.760
817.71	34.251
817.88	39.905
818.05	42.050
818.23	41.686
818.40	31.774
818.57	39.478
818.75	30.700
818.92	44.281
819.09	43.331
819.27	38.303
819.44	40.602
819.61	39.753
819.79	40.326
819.96	42.734
820.13	35.385
820.31	42.121
820.48	40.557
820.65	38.203
820.82	36.654
821.00	46.061
821.17	37.976
821.34	41.213
821.52	41.395
821.69	43.737
821.86	43.501
822.04	44.085
822.21	45.003
822.38	48.146
822.56	44.249
822.73	47.430
822.90	46.982
823.07	47.502
823.25	47.045
823.42	47.544
823.59	46.355
823.77	49.023
823.94	47.200
824.11	48.202
824.29	49.234
824.46	48.858
824.63	49.314
824.80	50.228
824.98	47.102
825.15	48.301
825.32	44.651
825.49	51.815
825.67	46.410
825.84	50.000
826.01	45.234
826.19	46.380
826.36	44.060
826.53	46.039
826.70	40.402
826.88	46.798
827.05	41.977
827.22	44.647
827.39	44.490
827.57	43.694
827.74	42.320
827.91	47.945
828.08	41.417
828.26	44.880
828.43	44.945
828.60	49.551
828.77	43.287
828.95	47.366
829.12	44.607
829.29	43.596
829.46	44.394
829.64	41.744
829.81	40.953
829.98	43.760
830.15	41.408
830.32	38.829
830.50	37.391
830.67	41.176
830.84	36.340
831.01	37.112
831.19	37.156
831.36	36.683
831.53	36.912
831.70	41.898
831.87	40.286
832.05	39.971
832.22	40.960
832.39	35.769
832.56	33.156
832.74	46.266
832.91	33.865
833.08	42.327
833.25	34.226
833.42	38.823
833.60	35.566
833.77	31.457
833.94	37.602
834.11	39.807
834.28	33.515
834.45	39.794
834.63	35.543
834.80	42.922
834.97	39.312
835.14	43.130
835.31	40.210
835.49	42.082
835.66	41.315
835.83	39.156
836.00	38.965
836.17	41.834
836.34	36.099
836.52	41.754
836.69	40.975
836.86	41.297
837.03	45.510
837.20	37.984
837.37	39.855
837.55	36.113
837.72	39.128
837.89	38.014
838.06	38.443
838.23	41.250
838.40	40.000
838.58	37.860
838.75	37.608
838.92	44.921
839.09	45.526
839.26	46.199
839.43	45.648
839.60	39.807
839.78	51.310
839.95	48.144
840.12	41.349
840.29	47.144
840.46	37.253
840.63	39.278
840.80	46.627
840.98	40.341
841.15	43.143
841.32	41.182
841.49	43.838
841.66	39.466
841.83	43.377
842.00	39.487
842.17	31.455
842.34	31.443
842.52	41.182
842.69	45.341
842.86	52.339
843.03	57.238
843.20	33.163
843.37	42.943
843.54	44.717
843.71	44.430
843.88	52.513
844.06	48.472
844.23	57.021
844.40	29.072
844.57	38.024
844.74	51.271
844.91	50.739
845.08	51.240
845.25	57.167
845.42	56.893
845.59	43.174
845.76	47.197
845.94	53.382
846.11	40.574
846.28	54.959
846.45	56.548
846.62	55.556
846.79	40.280
846.96	67.123
847.13	56.131
847.30	47.576
847.47	42.124
847.64	39.429
847.81	47.038
847.98	62.718
848.15	70.320
848.32	72.344
848.50	56.832
848.67	44.754
848.84	61.483
849.01	61.220
849.18	51.101
849.35	69.231
849.52	63.934
849.69	59.436
849.86	63.303
850.03	46.032
850.20	52.033
850.37	48.317
850.54	52.778
850.71	65.669
850.88	38.218
851.05	65.328
851.22	68.286
851.39	58.230
851.56	57.282
851.73	50.719
851.90	60.137
852.07	56.699
852.24	50.105
852.41	54.300
852.58	64.270
852.75	53.333
852.92	45.475
853.09	66.129
853.26	73.913
853.43	56.629
853.60	72.778
853.77	67.866
853.94	66.667
854.11	63.002
854.28	51.544
854.45	54.378
854.62	63.098
854.79	70.575
854.96	63.104
855.13	47.149
855.30	54.211
855.47	61.732
855.64	60.722
855.81	53.864
855.98	83.947
856.15	52.736
856.32	78.385
856.49	49.582
856.66	70.345
856.83	68.734
857.00	55.682
857.17	72.705
857.34	52.561
857.51	58.765
857.68	60.396
857.85	55.467
858.02	82.527
858.19	53.741
858.36	55.628
858.53	51.942
858.70	58.696
858.87	80.851
859.04	54.449
859.21	25.871
859.38	63.697
859.55	62.697
859.72	53.333
859.89	85.025
860.05	65.429
860.22	84.951
860.39	52.941
860.56	56.774
860.73	74.638
860.90	59.877
861.07	76.659
861.24	57.623
861.41	59.946
861.58	29.073
861.75	72.414
861.92	52.174
862.09	63.135
862.26	54.009
862.43	75.401
862.59	56.955
862.76	65.835
862.93	73.067
863.10	57.389
863.27	69.921
863.44	47.949
863.61	60.477
863.78	64.988
863.95	61.149
864.12	69.181
864.29	89.408
864.45	60.851
864.62	49.889
864.79	63.441
864.96	72.811
865.13	54.130
865.30	58.144
865.47	57.792
865.64	73.252
865.81	54.469
865.97	52.273
866.14	61.202
866.31	65.205
866.48	66.092
866.65	54.501
866.82	76.658
866.99	67.874
867.16	67.857
867.33	64.384
867.49	58.432
867.66	60.780
867.83	40.920
868.00	65.147
868.17	64.901
868.34	69.149
868.51	55.309
868.67	64.975
868.84	68.966
869.01	71.739
869.18	51.841
869.35	44.940
869.52	51.044
869.69	47.561
869.85	80.236
870.02	53.506
870.19	49.756
870.36	79.147
870.53	66.768
870.70	34.913
870.86	51.429
871.03	50.868
871.20	42.647
871.37	57.248
871.54	69.211
871.71	51.100
871.87	63.897
872.04	61.229
872.21	43.125
872.38	58.245
872.55	67.233
872.72	44.811
872.88	75.221
873.05	45.190
873.22	54.940
873.39	56.673
873.56	53.234
873.72	43.836
873.89	42.821
874.06	66.230
874.23	68.661
874.40	52.030
874.56	67.382
874.73	60.626
874.90	52.358
875.07	63.117
875.24	55.708
875.40	70.779
875.57	62.053
875.74	38.161
875.91	53.070
876.08	41.425
876.24	58.373
876.41	62.745
876.58	52.267
876.75	59.557
876.92	49.606
877.08	73.889
877.25	32.949
877.42	34.267
877.59	60.722
877.75	65.840
877.92	49.145
878.09	64.851
878.26	37.817
878.42	53.402
878.59	55.062
878.76	67.805
878.93	66.525
879.09	46.032
879.26	64.875
879.43	60.183
879.60	51.005
879.76	57.366
879.93	48.154
880.10	36.609
880.27	31.275
880.43	35.812
880.60	45.078
880.77	40.712
880.94	47.194
881.10	31.766
881.27	37.378
881.44	20.198
881.61	34.013
881.77	35.177
881.94	31.613
882.11	27.961
882.28	27.678
882.44	29.775
882.61	36.992
882.78	36.945
882.94	40.853
883.11	39.851
883.28	37.314
883.45	39.039
883.61	38.406
883.78	38.267
883.95	43.449
884.11	39.472
884.28	36.244
>>>>>End Processed Spectral Data<<<<<
