SpectraSuite Data File
++++++++++++++++++++++++++++++++++++
Date: Thu Sep 26 03:24:18 EST 2019
User: sgrac
Dark Spectrum Present: Yes
Reference Spectrum Present: Yes
Number of Sampled Component Spectra: 1
Spectrometers: USB4E01596
Integration Time (usec): 100000 (USB4E01596)
Spectra Averaged: 3 (USB4E01596)
Boxcar Smoothing: 0 (USB4E01596)
Correct for Electrical Dark: No (USB4E01596)
Strobe/Lamp Enabled: Yes (USB4E01596)
Correct for Detector Non-linearity: No (USB4E01596)
Correct for Stray Light: No (USB4E01596)
Number of Pixels in Processed Spectrum: 3648
>>>>>Begin Processed Spectral Data<<<<<
178.44	-725.000
178.66	-725.000
178.87	-725.000
179.09	-387.755
179.30	-197.619
179.52	-831.818
179.74	-361.111
179.95	-1230.769
180.17	261.446
180.38	1300.000
180.60	403.571
180.82	293.976
181.03	305.556
181.25	264.423
181.46	-622.581
181.68	235.000
181.89	1326.667
182.11	-1388.889
182.33	265.049
182.54	293.103
182.76	417.857
182.97	955.556
183.19	176.398
183.40	221.359
183.62	1587.500
183.84	248.913
184.05	2066.667
184.27	192.784
184.48	-630.556
184.70	1000.000
184.91	323.000
185.13	1506.667
185.34	564.865
185.56	2290.000
185.78	208.247
185.99	357.143
186.21	602.857
186.42	886.667
186.64	700.000
186.85	293.878
187.07	300.000
187.28	342.105
187.50	1256.522
187.72	1177.778
187.93	657.447
188.15	494.340
188.36	709.375
188.58	5466.667
188.79	525.000
189.01	3150.000
189.22	230.357
189.44	825.000
189.65	2577.778
189.87	610.811
190.09	767.742
190.30	468.254
190.52	-18200.000
190.73	-18800.000
190.95	1137.500
191.16	175.229
191.38	205.435
191.59	885.294
191.81	368.966
192.02	703.333
192.24	289.041
192.45	224.211
192.67	465.957
192.88	500.000
193.10	267.442
193.31	192.135
193.53	1129.412
193.74	271.951
193.96	335.000
194.18	1126.316
194.39	215.652
194.61	1972.727
194.82	344.595
195.04	216.190
195.25	191.406
195.47	568.750
195.68	215.190
195.90	410.000
196.11	252.000
196.33	1023.077
196.54	331.746
196.76	578.571
196.97	581.818
197.19	463.889
197.40	-420.000
197.62	378.182
197.83	182.353
198.05	462.264
198.26	411.268
198.48	2366.667
198.69	0.000
198.91	2333.333
199.12	379.630
199.34	291.304
199.55	192.793
199.77	258.621
199.98	6833.333
200.20	248.485
200.41	172.897
200.63	947.619
200.84	408.696
201.06	250.862
201.27	1009.524
201.49	1005.000
201.70	-1328.571
201.91	274.468
202.13	500.000
202.34	-252.083
202.56	445.455
202.77	1630.000
202.99	808.824
203.20	322.951
203.42	318.182
203.63	250.549
203.85	163.504
204.06	426.316
204.28	202.381
204.49	552.941
204.71	283.099
204.92	-9500.000
205.14	475.000
205.35	271.014
205.56	625.000
205.78	333.898
205.99	449.057
206.21	205.556
206.42	215.909
206.64	734.375
206.85	252.381
207.07	172.000
207.28	164.103
207.50	343.939
207.71	976.190
207.93	-586.111
208.14	-2072.727
208.35	732.000
208.57	224.444
208.78	442.000
209.00	547.368
209.21	5575.000
209.43	259.615
209.64	484.375
209.86	3260.000
210.07	507.317
210.28	-392.105
210.50	6766.667
210.71	620.000
210.93	185.345
211.14	334.615
211.36	726.316
211.57	460.714
211.78	890.476
212.00	745.833
212.21	282.759
212.43	657.143
212.64	200.000
212.86	282.051
213.07	157.018
213.29	1413.333
213.50	256.962
213.71	200.806
213.93	415.909
214.14	212.500
214.36	142.353
214.57	234.043
214.78	168.293
215.00	274.118
215.21	216.049
215.43	592.593
215.64	241.304
215.86	213.669
216.07	744.000
216.28	235.443
216.50	243.396
216.71	232.927
216.93	514.286
217.14	2400.000
217.35	311.429
217.57	314.516
217.78	181.416
218.00	172.340
218.21	195.395
218.42	437.209
218.64	235.644
218.85	187.500
219.07	242.000
219.28	388.571
219.49	576.316
219.71	360.000
219.92	-2220.000
220.14	440.625
220.35	791.667
220.56	-7150.000
220.78	201.587
220.99	477.500
221.21	207.229
221.42	288.462
221.63	304.255
221.85	0.000
222.06	214.151
222.28	554.286
222.49	357.576
222.70	1292.857
222.92	256.410
223.13	115.278
223.34	209.783
223.56	186.087
223.77	121.019
223.99	160.248
224.20	134.615
224.41	370.213
224.63	165.986
224.84	148.649
225.05	151.908
225.27	152.601
225.48	188.596
225.69	123.626
225.91	88.696
226.12	146.753
226.34	105.294
226.55	136.765
226.76	121.739
226.98	87.288
227.19	89.944
227.40	138.889
227.62	60.821
227.83	89.558
228.04	69.643
228.26	58.568
228.47	58.824
228.69	36.534
228.90	37.639
229.11	28.257
229.33	44.889
229.54	31.250
229.75	31.242
229.97	36.707
230.18	27.598
230.39	30.425
230.61	20.524
230.82	32.051
231.03	23.771
231.25	29.219
231.46	31.382
231.67	31.266
231.89	30.836
232.10	25.455
232.31	32.778
232.53	32.761
232.74	38.710
232.95	41.723
233.17	39.367
233.38	39.427
233.59	53.641
233.81	24.415
234.02	40.733
234.23	39.679
234.45	28.910
234.66	27.731
234.87	37.522
235.09	34.904
235.30	34.087
235.51	27.239
235.73	31.115
235.94	28.130
236.15	40.484
236.36	47.604
236.58	38.369
236.79	34.862
237.00	24.872
237.22	35.524
237.43	41.750
237.64	37.782
237.86	33.500
238.07	34.830
238.28	43.276
238.50	30.946
238.71	37.019
238.92	35.890
239.13	36.596
239.35	48.639
239.56	38.636
239.77	26.847
239.99	26.788
240.20	39.450
240.41	29.715
240.63	38.108
240.84	25.346
241.05	20.169
241.26	30.097
241.48	26.509
241.69	18.270
241.90	18.576
242.12	20.014
242.33	19.263
242.54	13.114
242.75	9.712
242.97	19.406
243.18	11.167
243.39	12.356
243.61	15.628
243.82	14.655
244.03	13.728
244.24	12.309
244.46	17.197
244.67	16.134
244.88	16.169
245.09	9.484
245.31	16.477
245.52	16.753
245.73	9.778
245.95	30.069
246.16	16.889
246.37	12.203
246.58	15.817
246.80	12.798
247.01	16.111
247.22	12.245
247.43	10.575
247.65	16.325
247.86	12.475
248.07	9.852
248.28	11.669
248.50	13.112
248.71	11.627
248.92	9.839
249.13	12.195
249.35	14.196
249.56	10.933
249.77	12.265
249.98	9.369
250.20	12.220
250.41	14.894
250.62	13.624
250.83	11.591
251.05	19.099
251.26	14.588
251.47	17.543
251.68	16.505
251.90	17.221
252.11	12.114
252.32	13.656
252.53	19.262
252.75	12.694
252.96	13.736
253.17	16.871
253.38	12.263
253.59	13.918
253.81	12.665
254.02	14.007
254.23	14.104
254.44	12.851
254.66	16.132
254.87	13.231
255.08	14.655
255.29	15.446
255.50	12.436
255.72	19.654
255.93	17.945
256.14	19.897
256.35	16.641
256.57	17.452
256.78	18.842
256.99	16.284
257.20	25.303
257.41	15.944
257.63	12.104
257.84	16.121
258.05	19.287
258.26	15.201
258.47	15.120
258.69	12.275
258.90	11.465
259.11	10.847
259.32	9.931
259.53	9.471
259.75	8.020
259.96	7.652
260.17	7.092
260.38	8.683
260.59	8.662
260.81	10.378
261.02	10.351
261.23	10.939
261.44	9.393
261.65	10.316
261.87	10.522
262.08	12.206
262.29	10.732
262.50	9.134
262.71	10.804
262.92	10.905
263.14	8.211
263.35	8.835
263.56	10.208
263.77	13.095
263.98	9.777
264.20	15.975
264.41	7.884
264.62	9.379
264.83	10.688
265.04	18.023
265.25	13.258
265.47	10.154
265.68	13.597
265.89	11.207
266.10	10.350
266.31	15.283
266.52	10.222
266.74	10.256
266.95	10.903
267.16	13.702
267.37	9.259
267.58	10.845
267.79	9.422
268.01	10.575
268.22	9.483
268.43	13.126
268.64	12.166
268.85	11.196
269.06	9.910
269.27	13.394
269.49	8.392
269.70	8.898
269.91	11.908
270.12	8.361
270.33	12.521
270.54	10.824
270.75	7.932
270.97	9.761
271.18	9.688
271.39	8.606
271.60	11.763
271.81	9.303
272.02	7.625
272.23	9.550
272.45	6.891
272.66	7.667
272.87	8.482
273.08	8.341
273.29	8.954
273.50	10.346
273.71	8.281
273.92	7.957
274.14	9.498
274.35	8.007
274.56	9.177
274.77	11.248
274.98	9.865
275.19	8.178
275.40	5.884
275.61	7.955
275.83	10.466
276.04	8.874
276.25	9.080
276.46	9.454
276.67	14.007
276.88	10.412
277.09	9.736
277.30	10.405
277.51	9.659
277.73	10.343
277.94	8.862
278.15	8.083
278.36	11.860
278.57	8.676
278.78	11.037
278.99	10.824
279.20	12.964
279.41	12.851
279.62	10.260
279.84	7.425
280.05	7.340
280.26	7.751
280.47	11.258
280.68	7.056
280.89	9.729
281.10	10.427
281.31	6.765
281.52	12.496
281.73	7.294
281.94	8.252
282.16	10.900
282.37	7.757
282.58	7.630
282.79	11.948
283.00	12.357
283.21	7.000
283.42	7.087
283.63	6.705
283.84	9.342
284.05	8.698
284.26	8.128
284.47	10.190
284.68	8.095
284.89	9.019
285.11	8.178
285.32	9.111
285.53	10.484
285.74	10.204
285.95	8.414
286.16	9.273
286.37	8.480
286.58	8.776
286.79	7.228
287.00	8.848
287.21	8.433
287.42	10.399
287.63	8.748
287.84	8.472
288.05	9.268
288.26	9.483
288.48	9.677
288.69	8.257
288.90	9.248
289.11	11.353
289.32	10.810
289.53	8.556
289.74	6.809
289.95	8.872
290.16	8.715
290.37	7.814
290.58	7.541
290.79	5.950
291.00	8.639
291.21	7.386
291.42	6.388
291.63	8.286
291.84	10.894
292.05	8.473
292.26	7.703
292.47	7.658
292.68	7.528
292.89	9.502
293.10	10.060
293.31	10.856
293.52	7.339
293.73	8.055
293.94	9.810
294.15	8.417
294.36	10.455
294.57	9.481
294.79	9.579
295.00	6.384
295.21	11.712
295.42	9.166
295.63	8.326
295.84	9.591
296.05	7.355
296.26	8.250
296.47	9.488
296.68	8.241
296.89	10.462
297.10	11.663
297.31	8.860
297.52	9.031
297.73	9.031
297.94	9.691
298.15	8.949
298.36	10.059
298.57	8.703
298.78	10.363
298.99	8.777
299.20	9.353
299.41	10.791
299.62	9.620
299.83	7.760
300.04	11.781
300.25	11.060
300.46	11.568
300.67	10.710
300.88	11.575
301.09	7.066
301.30	9.599
301.50	9.794
301.71	13.807
301.92	12.666
302.13	9.901
302.34	8.474
302.55	10.568
302.76	10.281
302.97	9.665
303.18	9.847
303.39	9.627
303.60	9.956
303.81	10.938
304.02	6.150
304.23	10.926
304.44	7.515
304.65	10.745
304.86	11.841
305.07	9.641
305.28	10.546
305.49	13.146
305.70	11.531
305.91	8.979
306.12	10.766
306.33	10.236
306.54	9.666
306.75	12.090
306.96	14.395
307.17	10.797
307.38	8.395
307.58	10.267
307.79	10.466
308.00	11.587
308.21	10.138
308.42	11.155
308.63	8.225
308.84	10.480
309.05	10.280
309.26	8.669
309.47	11.566
309.68	9.752
309.89	12.461
310.10	9.393
310.31	8.856
310.52	10.686
310.73	14.496
310.94	10.605
311.14	10.656
311.35	10.671
311.56	11.464
311.77	10.774
311.98	9.130
312.19	10.698
312.40	8.920
312.61	9.686
312.82	11.317
313.03	10.186
313.24	9.963
313.45	12.704
313.66	9.453
313.86	11.951
314.07	11.925
314.28	12.053
314.49	10.020
314.70	11.776
314.91	13.895
315.12	11.989
315.33	13.307
315.54	11.044
315.75	9.085
315.96	8.686
316.16	9.516
316.37	11.555
316.58	9.977
316.79	11.438
317.00	12.892
317.21	12.133
317.42	12.380
317.63	11.488
317.84	9.212
318.05	10.792
318.25	10.789
318.46	10.324
318.67	9.917
318.88	13.328
319.09	13.026
319.30	8.941
319.51	10.953
319.72	12.885
319.93	9.552
320.13	10.527
320.34	11.863
320.55	11.227
320.76	11.504
320.97	11.149
321.18	13.897
321.39	11.816
321.60	8.897
321.80	14.198
322.01	12.589
322.22	10.675
322.43	10.042
322.64	9.908
322.85	10.682
323.06	14.051
323.27	12.607
323.47	11.391
323.68	11.902
323.89	10.903
324.10	12.854
324.31	11.384
324.52	14.770
324.73	12.535
324.93	10.777
325.14	12.323
325.35	13.042
325.56	10.979
325.77	12.317
325.98	13.218
326.19	12.105
326.39	8.915
326.60	14.906
326.81	13.477
327.02	9.610
327.23	11.784
327.44	16.004
327.64	10.396
327.85	10.996
328.06	15.152
328.27	18.172
328.48	16.736
328.69	11.664
328.90	15.565
329.10	10.831
329.31	15.415
329.52	13.473
329.73	16.540
329.94	11.918
330.15	17.059
330.35	15.394
330.56	14.667
330.77	15.305
330.98	13.922
331.19	14.492
331.39	13.109
331.60	14.213
331.81	13.416
332.02	15.255
332.23	13.999
332.44	12.063
332.64	17.004
332.85	16.351
333.06	16.233
333.27	11.774
333.48	16.379
333.68	14.552
333.89	14.640
334.10	12.748
334.31	16.698
334.52	16.420
334.72	15.581
334.93	13.946
335.14	12.931
335.35	13.061
335.56	18.222
335.76	12.362
335.97	18.775
336.18	12.754
336.39	18.478
336.60	15.564
336.80	14.746
337.01	15.294
337.22	15.834
337.43	16.371
337.64	17.813
337.84	16.637
338.05	15.962
338.26	18.062
338.47	18.552
338.68	12.017
338.88	17.814
339.09	15.694
339.30	17.834
339.51	15.756
339.71	19.407
339.92	14.624
340.13	16.942
340.34	14.627
340.55	16.068
340.75	16.261
340.96	14.137
341.17	16.528
341.38	14.735
341.58	15.093
341.79	15.726
342.00	14.241
342.21	18.137
342.41	13.963
342.62	16.591
342.83	17.765
343.04	13.145
343.24	19.303
343.45	17.478
343.66	14.932
343.87	16.878
344.07	13.378
344.28	16.600
344.49	16.998
344.70	18.515
344.90	15.342
345.11	16.119
345.32	14.215
345.53	16.768
345.73	18.220
345.94	18.436
346.15	18.233
346.36	17.831
346.56	18.352
346.77	19.635
346.98	16.978
347.19	18.241
347.39	17.220
347.60	17.383
347.81	17.092
348.02	18.234
348.22	14.094
348.43	17.642
348.64	15.321
348.84	17.921
349.05	17.074
349.26	19.154
349.47	14.469
349.67	15.222
349.88	16.366
350.09	15.530
350.30	17.938
350.50	17.181
350.71	16.533
350.92	16.099
351.12	14.938
351.33	17.342
351.54	15.984
351.74	17.389
351.95	15.186
352.16	17.626
352.37	18.368
352.57	16.412
352.78	15.723
352.99	18.042
353.19	15.046
353.40	16.484
353.61	17.703
353.82	18.026
354.02	15.945
354.23	17.320
354.44	18.992
354.64	15.106
354.85	16.744
355.06	17.408
355.26	16.028
355.47	16.869
355.68	19.850
355.88	17.934
356.09	17.194
356.30	15.889
356.51	17.379
356.71	16.894
356.92	14.090
357.13	17.978
357.33	19.005
357.54	17.616
357.75	13.830
357.95	17.579
358.16	15.700
358.37	18.916
358.57	15.186
358.78	19.163
358.99	16.314
359.19	17.238
359.40	18.258
359.61	17.632
359.81	17.398
360.02	19.134
360.23	16.099
360.43	16.721
360.64	16.198
360.85	17.524
361.05	14.658
361.26	17.087
361.47	16.430
361.67	18.858
361.88	14.982
362.09	17.933
362.29	16.090
362.50	15.634
362.70	15.154
362.91	18.590
363.12	16.199
363.32	17.485
363.53	17.358
363.74	17.642
363.94	14.953
364.15	18.765
364.36	17.251
364.56	15.556
364.77	16.067
364.98	18.726
365.18	16.098
365.39	18.302
365.59	15.559
365.80	16.152
366.01	16.985
366.21	14.640
366.42	14.380
366.63	17.018
366.83	15.448
367.04	13.394
367.24	16.296
367.45	15.114
367.66	13.607
367.86	17.546
368.07	16.246
368.28	16.197
368.48	15.022
368.69	13.798
368.89	15.766
369.10	15.873
369.31	15.006
369.51	15.814
369.72	16.580
369.92	16.551
370.13	13.482
370.34	16.771
370.54	11.591
370.75	15.652
370.95	12.523
371.16	16.419
371.37	14.661
371.57	15.911
371.78	15.178
371.98	16.279
372.19	14.777
372.40	16.839
372.60	15.534
372.81	14.327
373.01	12.535
373.22	14.331
373.43	15.221
373.63	16.003
373.84	15.285
374.04	15.732
374.25	14.745
374.46	16.504
374.66	16.131
374.87	16.543
375.07	11.585
375.28	12.402
375.48	14.540
375.69	15.217
375.90	12.444
376.10	12.607
376.31	12.895
376.51	13.110
376.72	13.785
376.92	13.275
377.13	14.430
377.34	15.355
377.54	14.552
377.75	15.236
377.95	13.975
378.16	15.642
378.36	14.474
378.57	16.538
378.77	13.688
378.98	16.963
379.19	13.073
379.39	14.755
379.60	14.201
379.80	15.542
380.01	15.418
380.21	13.845
380.42	15.515
380.62	14.154
380.83	13.935
381.04	13.997
381.24	13.472
381.45	14.402
381.65	14.115
381.86	14.366
382.06	13.842
382.27	12.310
382.47	12.813
382.68	15.811
382.88	12.427
383.09	11.709
383.29	13.163
383.50	14.451
383.71	12.952
383.91	13.566
384.12	12.482
384.32	13.951
384.53	13.347
384.73	13.307
384.94	12.025
385.14	13.463
385.35	12.329
385.55	13.796
385.76	12.637
385.96	13.371
386.17	13.675
386.37	13.346
386.58	11.248
386.78	14.677
386.99	12.084
387.19	14.501
387.40	10.885
387.60	14.080
387.81	13.169
388.01	12.871
388.22	13.931
388.42	14.630
388.63	13.679
388.83	14.208
389.04	11.382
389.24	12.741
389.45	12.267
389.65	12.983
389.86	12.088
390.06	12.071
390.27	11.904
390.47	12.750
390.68	12.249
390.88	13.518
391.09	14.388
391.29	13.383
391.50	12.815
391.70	13.219
391.91	11.863
392.11	13.599
392.32	13.844
392.52	13.263
392.73	12.796
392.93	13.372
393.14	12.943
393.34	13.292
393.55	12.898
393.75	13.370
393.95	12.958
394.16	12.965
394.36	13.035
394.57	13.368
394.77	12.340
394.98	13.918
395.18	13.299
395.39	12.680
395.59	12.970
395.80	13.750
396.00	12.894
396.21	13.567
396.41	11.964
396.61	13.508
396.82	12.395
397.02	14.439
397.23	13.144
397.43	11.958
397.64	11.243
397.84	14.044
398.05	10.699
398.25	13.513
398.45	12.154
398.66	13.621
398.86	11.953
399.07	13.682
399.27	12.240
399.48	13.876
399.68	11.561
399.89	12.436
400.09	12.360
400.29	13.000
400.50	11.699
400.70	12.847
400.91	10.996
401.11	12.775
401.32	11.736
401.52	10.985
401.72	11.713
401.93	13.591
402.13	11.907
402.34	12.303
402.54	12.043
402.75	13.416
402.95	10.737
403.15	13.758
403.36	10.519
403.56	12.605
403.77	11.145
403.97	12.437
404.17	11.345
404.38	12.171
404.58	11.674
404.79	13.081
404.99	12.601
405.19	11.801
405.40	11.319
405.60	12.460
405.81	11.732
406.01	11.582
406.21	11.616
406.42	12.854
406.62	12.330
406.83	12.905
407.03	12.685
407.23	11.236
407.44	11.003
407.64	12.150
407.85	11.870
408.05	11.660
408.25	10.725
408.46	13.137
408.66	11.753
408.87	11.391
409.07	11.162
409.27	11.746
409.48	11.472
409.68	12.351
409.88	10.440
410.09	11.761
410.29	11.706
410.50	12.768
410.70	10.064
410.90	11.035
411.11	11.142
411.31	11.266
411.51	12.771
411.72	12.486
411.92	11.061
412.12	11.263
412.33	10.887
412.53	10.656
412.74	10.442
412.94	11.304
413.14	11.397
413.35	11.380
413.55	10.761
413.75	12.091
413.96	10.237
414.16	11.717
414.36	10.942
414.57	11.304
414.77	10.386
414.97	12.235
415.18	10.402
415.38	12.073
415.58	11.707
415.79	11.155
415.99	10.619
416.19	10.898
416.40	11.009
416.60	11.530
416.80	10.783
417.01	11.578
417.21	10.526
417.41	12.122
417.62	11.661
417.82	12.461
418.02	10.748
418.23	12.330
418.43	10.721
418.63	11.711
418.84	12.166
419.04	11.221
419.24	12.020
419.45	11.850
419.65	12.147
419.85	11.581
420.06	11.861
420.26	12.097
420.46	11.912
420.67	12.522
420.87	11.661
421.07	12.734
421.28	11.782
421.48	12.222
421.68	12.187
421.88	12.418
422.09	12.060
422.29	11.778
422.49	11.866
422.70	11.980
422.90	11.604
423.10	11.952
423.31	11.583
423.51	12.011
423.71	11.451
423.91	12.461
424.12	11.827
424.32	12.287
424.52	11.955
424.73	11.668
424.93	11.906
425.13	12.109
425.33	11.637
425.54	11.788
425.74	11.788
425.94	12.150
426.15	11.776
426.35	11.950
426.55	11.628
426.75	12.081
426.96	12.050
427.16	11.649
427.36	12.011
427.57	12.375
427.77	11.634
427.97	11.779
428.17	11.496
428.38	11.911
428.58	10.707
428.78	11.715
428.98	10.662
429.19	11.091
429.39	10.569
429.59	11.324
429.79	10.221
430.00	10.698
430.20	10.028
430.40	10.731
430.60	11.301
430.81	11.291
431.01	11.036
431.21	11.039
431.41	10.165
431.62	10.504
431.82	10.426
432.02	11.902
432.22	10.586
432.43	10.377
432.63	10.103
432.83	10.886
433.03	10.568
433.24	10.757
433.44	10.422
433.64	11.033
433.84	10.559
434.05	11.311
434.25	10.958
434.45	11.374
434.65	11.741
434.85	11.525
435.06	11.185
435.26	11.094
435.46	11.224
435.66	11.529
435.87	10.798
436.07	11.171
436.27	10.862
436.47	10.568
436.67	10.541
436.88	10.967
437.08	10.568
437.28	11.200
437.48	10.500
437.69	11.074
437.89	10.832
438.09	11.256
438.29	10.146
438.49	11.482
438.70	10.668
438.90	10.897
439.10	10.167
439.30	10.892
439.50	10.382
439.71	10.956
439.91	10.513
440.11	11.191
440.31	10.796
440.51	10.705
440.72	10.214
440.92	10.476
441.12	10.835
441.32	11.167
441.52	11.415
441.72	11.039
441.93	11.124
442.13	11.217
442.33	10.777
442.53	11.060
442.73	10.701
442.94	11.207
443.14	10.967
443.34	11.072
443.54	11.076
443.74	11.177
443.94	10.947
444.15	11.173
444.35	10.507
444.55	10.979
444.75	10.949
444.95	10.850
445.15	10.336
445.36	10.933
445.56	9.628
445.76	10.736
445.96	10.245
446.16	10.747
446.36	10.312
446.57	10.669
446.77	10.613
446.97	10.944
447.17	10.733
447.37	10.956
447.57	11.072
447.77	10.875
447.98	10.779
448.18	10.954
448.38	10.761
448.58	10.883
448.78	11.063
448.98	11.075
449.18	10.952
449.39	10.951
449.59	10.506
449.79	11.037
449.99	10.271
450.19	10.798
450.39	10.607
450.59	10.622
450.79	10.634
451.00	10.914
451.20	11.078
451.40	10.565
451.60	10.211
451.80	10.686
452.00	10.311
452.20	10.789
452.40	10.416
452.61	10.171
452.81	10.419
453.01	10.643
453.21	10.073
453.41	10.648
453.61	10.502
453.81	10.755
454.01	10.391
454.21	11.128
454.42	10.836
454.62	10.693
454.82	10.217
455.02	10.479
455.22	10.154
455.42	10.314
455.62	9.559
455.82	10.690
456.02	9.935
456.23	10.847
456.43	10.159
456.63	10.606
456.83	9.900
457.03	10.408
457.23	10.069
457.43	10.980
457.63	9.976
457.83	11.128
458.03	9.897
458.23	10.323
458.43	10.198
458.64	10.661
458.84	10.280
459.04	10.371
459.24	10.557
459.44	10.594
459.64	10.515
459.84	10.675
460.04	10.266
460.24	10.544
460.44	10.570
460.64	10.995
460.84	10.446
461.04	10.881
461.24	10.624
461.45	10.760
461.65	10.780
461.85	10.865
462.05	10.585
462.25	10.842
462.45	10.570
462.65	11.060
462.85	9.995
463.05	10.421
463.25	10.043
463.45	10.502
463.65	10.094
463.85	10.102
464.05	9.936
464.25	10.201
464.45	10.514
464.65	10.119
464.85	10.120
465.05	9.872
465.26	10.153
465.46	10.201
465.66	10.277
465.86	10.753
466.06	10.026
466.26	10.229
466.46	9.537
466.66	10.033
466.86	9.985
467.06	10.313
467.26	10.187
467.46	10.506
467.66	9.634
467.86	10.022
468.06	9.933
468.26	10.260
468.46	10.017
468.66	10.629
468.86	9.773
469.06	10.465
469.26	9.864
469.46	10.083
469.66	9.531
469.86	10.458
470.06	9.952
470.26	10.551
470.46	9.690
470.66	10.786
470.86	9.647
471.06	10.328
471.26	9.233
471.46	9.948
471.66	9.751
471.86	10.273
472.06	9.832
472.26	10.501
472.46	10.086
472.66	10.249
472.86	9.884
473.06	9.896
473.26	9.726
473.46	10.288
473.66	9.589
473.86	10.076
474.06	9.806
474.26	10.317
474.46	10.024
474.66	10.793
474.86	10.155
475.06	10.219
475.26	9.502
475.46	9.789
475.66	9.466
475.86	10.141
476.06	10.343
476.26	10.532
476.46	9.949
476.66	10.220
476.86	9.816
477.06	10.076
477.26	9.757
477.46	10.042
477.65	10.055
477.85	10.569
478.05	9.138
478.25	10.420
478.45	10.106
478.65	10.351
478.85	9.856
479.05	10.212
479.25	10.186
479.45	10.165
479.65	9.694
479.85	10.403
480.05	9.981
480.25	10.572
480.45	10.126
480.65	10.536
480.85	10.702
481.05	10.489
481.25	10.567
481.44	10.134
481.64	9.709
481.84	10.331
482.04	10.489
482.24	10.511
482.44	10.432
482.64	10.498
482.84	10.323
483.04	10.398
483.24	10.253
483.44	10.387
483.64	10.274
483.84	10.121
484.04	10.521
484.23	10.389
484.43	10.474
484.63	10.642
484.83	10.687
485.03	11.155
485.23	11.135
485.43	10.967
485.63	10.982
485.83	10.842
486.03	10.869
486.23	10.896
486.42	10.932
486.62	11.041
486.82	10.767
487.02	10.721
487.22	10.794
487.42	10.615
487.62	10.509
487.82	10.557
488.02	10.554
488.22	10.550
488.41	10.547
488.61	10.652
488.81	10.744
489.01	10.678
489.21	10.927
489.41	10.810
489.61	10.863
489.81	10.995
490.01	10.858
490.20	10.969
490.40	10.780
490.60	10.916
490.80	10.754
491.00	10.733
491.20	10.854
491.40	10.876
491.60	10.449
491.79	10.716
491.99	10.445
492.19	10.540
492.39	10.565
492.59	10.608
492.79	10.783
492.99	10.790
493.19	10.937
493.38	10.998
493.58	11.114
493.78	11.253
493.98	11.502
494.18	11.198
494.38	10.984
494.58	11.082
494.77	11.233
494.97	11.009
495.17	11.109
495.37	11.146
495.57	11.122
495.77	11.129
495.96	11.067
496.16	11.014
496.36	10.738
496.56	11.220
496.76	10.730
496.96	11.072
497.15	10.655
497.35	10.937
497.55	10.874
497.75	11.243
497.95	11.005
498.15	11.191
498.34	11.293
498.54	10.909
498.74	11.768
498.94	11.238
499.14	11.308
499.34	11.239
499.53	11.028
499.73	11.501
499.93	11.135
500.13	11.398
500.33	11.165
500.52	11.344
500.72	10.879
500.92	11.271
501.12	10.893
501.32	11.045
501.52	10.889
501.71	11.502
501.91	10.959
502.11	11.497
502.31	10.916
502.51	11.604
502.70	11.114
502.90	11.620
503.10	10.968
503.30	11.775
503.50	11.334
503.69	11.116
503.89	11.575
504.09	11.446
504.29	11.003
504.48	11.459
504.68	11.534
504.88	11.465
505.08	11.079
505.28	11.228
505.47	11.268
505.67	11.468
505.87	11.158
506.07	11.698
506.27	11.313
506.46	11.826
506.66	11.196
506.86	11.285
507.06	11.463
507.25	11.252
507.45	11.219
507.65	11.236
507.85	11.306
508.04	11.691
508.24	11.812
508.44	11.391
508.64	11.141
508.83	11.142
509.03	10.976
509.23	11.482
509.43	11.346
509.63	11.563
509.82	11.119
510.02	11.393
510.22	11.570
510.42	11.604
510.61	11.495
510.81	11.576
511.01	11.608
511.21	11.506
511.40	11.184
511.60	11.876
511.80	11.779
511.99	11.650
512.19	11.692
512.39	11.561
512.59	11.415
512.78	11.498
512.98	11.385
513.18	11.650
513.38	11.474
513.57	11.517
513.77	11.663
513.97	11.448
514.17	11.752
514.36	11.713
514.56	11.657
514.76	12.209
514.95	11.471
515.15	11.360
515.35	11.331
515.55	11.565
515.74	11.592
515.94	11.969
516.14	11.263
516.33	11.765
516.53	11.462
516.73	11.682
516.93	11.609
517.12	11.892
517.32	11.291
517.52	12.179
517.71	11.465
517.91	11.422
518.11	11.539
518.30	11.776
518.50	11.186
518.70	11.538
518.90	11.518
519.09	11.678
519.29	11.633
519.49	11.544
519.68	11.396
519.88	11.606
520.08	11.874
520.27	11.748
520.47	11.759
520.67	11.816
520.86	11.453
521.06	11.687
521.26	11.737
521.45	11.683
521.65	11.407
521.85	12.106
522.04	11.684
522.24	12.274
522.44	11.379
522.63	11.740
522.83	11.640
523.03	11.749
523.22	11.861
523.42	11.738
523.62	11.671
523.81	11.924
524.01	11.832
524.21	11.772
524.40	11.584
524.60	11.775
524.80	11.664
524.99	11.661
525.19	11.376
525.39	11.770
525.58	11.495
525.78	11.662
525.98	11.868
526.17	11.749
526.37	11.977
526.57	11.570
526.76	12.067
526.96	11.617
527.15	11.546
527.35	11.764
527.55	11.512
527.74	11.809
527.94	11.850
528.14	11.479
528.33	11.771
528.53	11.494
528.72	11.850
528.92	11.620
529.12	11.803
529.31	11.836
529.51	11.957
529.71	11.892
529.90	12.048
530.10	11.927
530.29	12.102
530.49	12.186
530.69	12.372
530.88	12.218
531.08	12.184
531.28	12.048
531.47	12.117
531.67	12.172
531.86	12.244
532.06	12.110
532.26	12.043
532.45	11.760
532.65	12.085
532.84	11.775
533.04	11.817
533.24	11.887
533.43	11.758
533.63	11.797
533.82	11.858
534.02	12.020
534.22	12.082
534.41	12.027
534.61	12.211
534.80	11.921
535.00	12.080
535.19	12.179
535.39	12.079
535.59	12.240
535.78	12.174
535.98	12.376
536.17	11.858
536.37	12.179
536.57	12.149
536.76	12.007
536.96	12.357
537.15	12.404
537.35	11.933
537.54	12.100
537.74	12.040
537.93	12.278
538.13	12.420
538.33	12.224
538.52	12.399
538.72	12.486
538.91	12.829
539.11	12.331
539.30	12.549
539.50	12.268
539.70	12.226
539.89	12.359
540.09	12.373
540.28	12.571
540.48	12.079
540.67	12.461
540.87	12.218
541.06	12.225
541.26	12.312
541.45	12.322
541.65	12.258
541.85	12.277
542.04	12.378
542.24	12.582
542.43	12.447
542.63	12.307
542.82	12.437
543.02	12.475
543.21	12.632
543.41	12.683
543.60	12.533
543.80	12.706
543.99	12.764
544.19	12.593
544.38	12.879
544.58	12.638
544.77	12.863
544.97	12.979
545.16	12.636
545.36	12.784
545.56	13.012
545.75	12.594
545.95	12.734
546.14	13.057
546.34	12.959
546.53	12.576
546.73	12.589
546.92	12.588
547.12	12.490
547.31	13.035
547.51	13.168
547.70	12.946
547.90	12.781
548.09	13.163
548.29	12.905
548.48	12.889
548.68	13.101
548.87	13.058
549.07	13.155
549.26	13.392
549.46	12.910
549.65	13.259
549.84	13.469
550.04	12.981
550.23	13.393
550.43	13.329
550.62	13.409
550.82	13.253
551.01	12.638
551.21	13.429
551.40	13.037
551.60	13.434
551.79	13.029
551.99	13.281
552.18	13.282
552.38	13.584
552.57	13.457
552.77	13.932
552.96	13.734
553.16	13.266
553.35	13.814
553.54	13.645
553.74	13.530
553.93	13.690
554.13	13.987
554.32	13.717
554.52	14.085
554.71	13.624
554.91	14.044
555.10	13.943
555.29	13.714
555.49	13.787
555.68	14.226
555.88	13.984
556.07	14.103
556.27	14.232
556.46	13.880
556.66	14.376
556.85	14.900
557.04	14.338
557.24	14.127
557.43	14.526
557.63	14.289
557.82	14.181
558.02	14.337
558.21	14.632
558.40	14.313
558.60	15.128
558.79	15.128
558.99	14.741
559.18	14.447
559.38	15.022
559.57	15.157
559.76	15.425
559.96	15.145
560.15	15.662
560.35	14.739
560.54	15.230
560.73	14.596
560.93	15.516
561.12	15.670
561.32	15.125
561.51	15.139
561.70	15.284
561.90	15.649
562.09	16.012
562.29	15.092
562.48	15.830
562.67	15.629
562.87	15.847
563.06	15.946
563.26	15.969
563.45	15.467
563.64	15.991
563.84	15.962
564.03	16.043
564.23	15.826
564.42	16.859
564.61	15.716
564.81	16.284
565.00	16.356
565.20	16.690
565.39	16.041
565.58	16.736
565.78	16.620
565.97	16.715
566.16	17.160
566.36	17.289
566.55	16.628
566.74	16.938
566.94	16.972
567.13	17.444
567.33	17.261
567.52	16.792
567.71	17.388
567.91	17.275
568.10	17.463
568.29	17.464
568.49	16.993
568.68	17.716
568.87	17.532
569.07	17.279
569.26	17.362
569.45	17.570
569.65	17.038
569.84	18.059
570.04	17.154
570.23	18.385
570.42	18.135
570.62	17.674
570.81	17.710
571.00	17.905
571.20	18.155
571.39	17.874
571.58	18.353
571.78	18.211
571.97	18.258
572.16	18.297
572.36	18.836
572.55	18.643
572.74	18.764
572.94	18.069
573.13	18.529
573.32	18.446
573.51	18.381
573.71	18.728
573.90	18.912
574.09	18.744
574.29	18.749
574.48	18.392
574.67	18.948
574.87	18.616
575.06	19.086
575.25	18.670
575.45	18.714
575.64	18.815
575.83	19.078
576.03	19.461
576.22	18.981
576.41	18.955
576.60	18.830
576.80	18.765
576.99	19.175
577.18	19.269
577.38	19.328
577.57	19.026
577.76	19.582
577.95	19.211
578.15	18.596
578.34	19.069
578.53	19.220
578.73	18.977
578.92	19.216
579.11	18.931
579.30	19.636
579.50	19.791
579.69	19.392
579.88	18.430
580.08	19.182
580.27	19.029
580.46	19.356
580.65	19.612
580.85	19.083
581.04	19.478
581.23	19.561
581.42	19.307
581.62	19.198
581.81	19.110
582.00	19.019
582.19	18.665
582.39	19.456
582.58	18.751
582.77	19.222
582.96	18.824
583.16	18.544
583.35	19.264
583.54	18.578
583.73	18.899
583.93	18.460
584.12	18.764
584.31	19.436
584.50	18.542
584.70	18.725
584.89	18.814
585.08	18.629
585.27	18.839
585.47	18.143
585.66	19.204
585.85	18.963
586.04	18.302
586.24	18.895
586.43	18.316
586.62	18.654
586.81	18.822
587.00	18.672
587.20	18.878
587.39	18.677
587.58	19.187
587.77	19.351
587.97	18.788
588.16	18.881
588.35	19.097
588.54	18.783
588.73	18.399
588.93	19.390
589.12	18.598
589.31	19.455
589.50	18.902
589.69	19.001
589.89	18.853
590.08	18.360
590.27	19.127
590.46	18.579
590.65	18.525
590.85	18.446
591.04	18.997
591.23	18.363
591.42	19.295
591.61	18.073
591.81	19.071
592.00	18.651
592.19	19.463
592.38	18.641
592.57	18.785
592.77	18.746
592.96	19.460
593.15	19.452
593.34	19.302
593.53	18.652
593.72	17.851
593.92	18.834
594.11	19.601
594.30	18.562
594.49	19.038
594.68	18.833
594.87	18.618
595.07	18.527
595.26	18.976
595.45	18.723
595.64	18.748
595.83	18.725
596.02	19.213
596.22	18.380
596.41	19.761
596.60	18.404
596.79	19.313
596.98	19.120
597.17	19.074
597.37	19.082
597.56	19.304
597.75	18.925
597.94	19.630
598.13	19.311
598.32	19.309
598.51	19.492
598.71	19.866
598.90	20.184
599.09	19.818
599.28	19.916
599.47	19.655
599.66	19.169
599.85	20.365
600.05	19.607
600.24	20.288
600.43	19.573
600.62	20.322
600.81	19.483
601.00	20.707
601.19	19.474
601.38	20.199
601.58	20.284
601.77	20.474
601.96	19.538
602.15	20.709
602.34	19.323
602.53	20.529
602.72	19.553
602.91	20.161
603.10	20.245
603.30	20.433
603.49	20.363
603.68	20.684
603.87	19.884
604.06	20.529
604.25	20.432
604.44	20.370
604.63	20.316
604.82	20.162
605.01	20.547
605.21	20.613
605.40	19.890
605.59	20.489
605.78	20.530
605.97	19.856
606.16	20.545
606.35	20.530
606.54	20.426
606.73	20.984
606.92	21.019
607.11	20.463
607.30	20.205
607.50	20.721
607.69	20.268
607.88	19.696
608.07	20.490
608.26	21.351
608.45	20.666
608.64	20.364
608.83	20.076
609.02	20.215
609.21	19.774
609.40	19.605
609.59	19.698
609.78	19.586
609.97	19.459
610.16	19.906
610.35	20.073
610.55	20.049
610.74	19.710
610.93	19.500
611.12	19.228
611.31	20.298
611.50	19.414
611.69	19.559
611.88	19.148
612.07	20.130
612.26	19.336
612.45	19.824
612.64	19.855
612.83	19.259
613.02	18.763
613.21	19.995
613.40	19.181
613.59	18.885
613.78	18.531
613.97	18.934
614.16	18.310
614.35	19.030
614.54	17.783
614.73	19.333
614.92	19.301
615.11	18.229
615.30	17.166
615.49	17.681
615.68	17.919
615.87	18.165
616.07	17.718
616.26	18.779
616.45	18.010
616.64	18.560
616.83	18.318
617.02	19.074
617.21	16.703
617.40	18.195
617.59	17.661
617.78	18.065
617.97	17.388
618.16	18.216
618.35	16.801
618.54	18.486
618.73	17.400
618.92	17.414
619.11	16.998
619.30	18.340
619.49	17.590
619.68	17.515
619.86	17.086
620.05	18.026
620.24	16.669
620.43	17.492
620.62	16.616
620.81	17.516
621.00	17.523
621.19	18.260
621.38	17.135
621.57	17.609
621.76	17.158
621.95	17.804
622.14	16.829
622.33	18.007
622.52	16.275
622.71	17.515
622.90	17.003
623.09	17.275
623.28	16.507
623.47	17.538
623.66	16.682
623.85	16.992
624.04	16.518
624.23	16.904
624.42	16.974
624.61	16.966
624.80	15.860
624.99	16.717
625.18	15.986
625.36	17.177
625.55	17.160
625.74	16.744
625.93	16.477
626.12	17.108
626.31	16.471
626.50	17.787
626.69	17.102
626.88	17.371
627.07	16.777
627.26	16.875
627.45	16.894
627.64	16.935
627.83	16.737
628.02	17.151
628.20	16.352
628.39	16.901
628.58	16.719
628.77	17.267
628.96	16.505
629.15	16.529
629.34	17.441
629.53	16.803
629.72	16.355
629.91	17.021
630.10	16.458
630.29	16.416
630.47	15.866
630.66	15.828
630.85	15.798
631.04	15.905
631.23	16.279
631.42	15.505
631.61	15.909
631.80	16.281
631.99	15.714
632.18	16.344
632.36	16.022
632.55	15.724
632.74	15.070
632.93	16.280
633.12	14.953
633.31	15.387
633.50	15.141
633.69	16.234
633.88	14.779
634.06	16.209
634.25	14.998
634.44	16.606
634.63	15.740
634.82	16.338
635.01	15.633
635.20	16.289
635.39	15.556
635.57	15.770
635.76	15.490
635.95	15.191
636.14	15.408
636.33	16.320
636.52	14.847
636.71	16.070
636.89	15.655
637.08	15.330
637.27	14.595
637.46	15.186
637.65	15.213
637.84	15.810
638.03	14.915
638.21	16.012
638.40	15.755
638.59	15.285
638.78	15.449
638.97	16.203
639.16	15.692
639.34	15.277
639.53	14.608
639.72	15.828
639.91	15.383
640.10	14.515
640.29	15.902
640.47	15.875
640.66	16.087
640.85	16.014
641.04	14.213
641.23	15.584
641.42	15.269
641.60	14.921
641.79	14.518
641.98	15.704
642.17	14.232
642.36	15.144
642.54	14.779
642.73	15.220
642.92	13.870
643.11	14.487
643.30	13.162
643.49	15.972
643.67	12.392
643.86	14.796
644.05	14.448
644.24	15.207
644.43	14.352
644.61	14.635
644.80	14.033
644.99	14.001
645.18	15.703
645.37	15.568
645.55	14.165
645.74	14.394
645.93	13.958
646.12	14.241
646.31	14.600
646.49	14.457
646.68	13.368
646.87	14.699
647.06	14.326
647.24	14.315
647.43	13.223
647.62	15.622
647.81	12.461
648.00	14.908
648.18	12.741
648.37	13.883
648.56	14.548
648.75	14.144
648.93	14.357
649.12	14.139
649.31	13.724
649.50	14.157
649.68	13.426
649.87	13.794
650.06	12.304
650.25	13.683
650.43	13.091
650.62	14.278
650.81	13.416
651.00	14.076
651.18	14.174
651.37	14.614
651.56	12.127
651.75	14.801
651.93	13.348
652.12	13.657
652.31	13.261
652.50	13.843
652.68	13.610
652.87	14.985
653.06	14.094
653.25	14.250
653.43	13.525
653.62	13.609
653.81	14.276
654.00	14.541
654.18	13.662
654.37	14.236
654.56	12.814
654.74	13.852
654.93	13.048
655.12	13.784
655.31	13.100
655.49	14.542
655.68	12.513
655.87	12.313
656.05	10.908
656.24	13.241
656.43	11.232
656.62	12.555
656.80	12.641
656.99	12.478
657.18	10.775
657.36	13.427
657.55	13.310
657.74	12.216
657.93	12.884
658.11	13.754
658.30	12.830
658.49	11.472
658.67	12.080
658.86	12.609
659.05	11.669
659.23	12.552
659.42	12.118
659.61	12.326
659.79	12.556
659.98	12.968
660.17	13.627
660.35	12.811
660.54	12.756
660.73	13.866
660.91	12.628
661.10	12.985
661.29	11.223
661.47	11.707
661.66	11.287
661.85	12.569
662.03	13.142
662.22	11.396
662.41	10.644
662.59	11.235
662.78	9.993
662.97	11.610
663.15	10.530
663.34	9.217
663.53	10.652
663.71	11.180
663.90	10.636
664.09	11.635
664.27	9.672
664.46	10.345
664.65	9.962
664.83	9.849
665.02	10.122
665.21	10.157
665.39	8.877
665.58	10.469
665.77	9.784
665.95	9.578
666.14	10.049
666.32	10.619
666.51	9.460
666.70	10.421
666.88	9.596
667.07	9.505
667.26	8.255
667.44	10.142
667.63	9.855
667.81	8.683
668.00	8.764
668.19	11.454
668.37	9.894
668.56	10.148
668.75	9.151
668.93	11.540
669.12	9.195
669.30	10.112
669.49	9.459
669.68	11.074
669.86	11.339
670.05	9.628
670.23	10.016
670.42	10.481
670.61	10.729
670.79	10.678
670.98	9.967
671.16	11.769
671.35	9.834
671.54	9.824
671.72	10.398
671.91	11.968
672.09	9.975
672.28	11.891
672.46	12.943
672.65	10.872
672.84	11.195
673.02	12.009
673.21	8.877
673.39	9.890
673.58	11.127
673.77	10.355
673.95	11.742
674.14	12.888
674.32	10.188
674.51	13.419
674.69	10.568
674.88	11.698
675.07	9.954
675.25	13.919
675.44	12.537
675.62	12.273
675.81	10.909
675.99	14.075
676.18	12.692
676.36	12.844
676.55	9.817
676.74	13.776
676.92	13.974
677.11	13.109
677.29	11.727
677.48	14.099
677.66	14.025
677.85	12.823
678.03	11.980
678.22	13.138
678.40	12.907
678.59	12.895
678.78	11.394
678.96	13.481
679.15	11.566
679.33	14.736
679.52	13.295
679.70	13.771
679.89	13.146
680.07	13.702
680.26	12.117
680.44	13.472
680.63	13.188
680.81	13.267
681.00	12.209
681.18	12.916
681.37	12.649
681.55	14.386
681.74	13.953
681.92	14.922
682.11	13.591
682.29	13.845
682.48	13.668
682.66	14.925
682.85	14.000
683.03	14.836
683.22	15.036
683.40	14.881
683.59	14.295
683.77	14.603
683.96	13.097
684.14	16.095
684.33	13.251
684.51	17.304
684.70	14.590
684.88	17.039
685.07	15.103
685.25	16.442
685.44	15.323
685.62	16.864
685.81	14.558
685.99	17.740
686.18	15.183
686.36	17.020
686.55	14.677
686.73	17.568
686.92	17.917
687.10	17.430
687.29	18.397
687.47	18.514
687.65	17.407
687.84	16.835
688.02	18.588
688.21	20.215
688.39	17.401
688.58	19.142
688.76	17.485
688.95	18.473
689.13	16.197
689.32	19.855
689.50	18.810
689.68	20.121
689.87	19.350
690.05	21.747
690.24	21.228
690.42	20.448
690.61	20.966
690.79	21.869
690.98	21.538
691.16	23.326
691.34	20.198
691.53	22.748
691.71	22.027
691.90	23.307
692.08	21.128
692.27	24.098
692.45	24.748
692.63	23.858
692.82	24.464
693.00	24.807
693.19	22.405
693.37	26.901
693.56	24.993
693.74	27.666
693.92	25.466
694.11	28.166
694.29	27.285
694.48	29.969
694.66	28.841
694.84	29.559
695.03	28.734
695.21	31.381
695.40	31.255
695.58	32.110
695.76	30.270
695.95	31.943
696.13	31.514
696.32	33.233
696.50	35.291
696.68	35.358
696.87	32.869
697.05	36.679
697.24	33.860
697.42	36.574
697.60	35.075
697.79	36.548
697.97	37.381
698.16	38.262
698.34	36.183
698.52	37.741
698.71	37.865
698.89	37.545
699.07	37.202
699.26	39.152
699.44	39.177
699.63	37.957
699.81	39.911
699.99	40.449
700.18	39.435
700.36	39.382
700.54	39.959
700.73	41.779
700.91	40.763
701.09	42.411
701.28	42.197
701.46	42.898
701.64	43.018
701.83	44.593
702.01	43.683
702.20	46.258
702.38	45.269
702.56	46.158
702.75	45.457
702.93	47.187
703.11	45.759
703.30	48.831
703.48	49.007
703.66	51.389
703.85	48.038
704.03	51.703
704.21	48.672
704.40	51.314
704.58	50.732
704.76	51.047
704.95	52.268
705.13	53.088
705.31	52.047
705.50	51.577
705.68	51.682
705.86	51.122
706.04	52.670
706.23	53.078
706.41	52.841
706.59	52.150
706.78	54.425
706.96	55.980
707.14	53.649
707.33	54.805
707.51	52.952
707.69	54.044
707.88	53.242
708.06	55.329
708.24	56.705
708.42	57.625
708.61	55.401
708.79	56.590
708.97	57.033
709.16	57.751
709.34	58.637
709.52	57.051
709.71	56.675
709.89	56.793
710.07	57.424
710.25	58.455
710.44	58.066
710.62	57.830
710.80	58.416
710.98	58.781
711.17	56.000
711.35	58.537
711.53	58.347
711.72	58.892
711.90	57.890
712.08	58.415
712.26	59.014
712.45	58.105
712.63	57.658
712.81	58.592
712.99	58.368
713.18	59.142
713.36	58.279
713.54	60.046
713.72	59.106
713.91	60.251
714.09	58.777
714.27	59.792
714.45	60.533
714.64	61.335
714.82	61.281
715.00	61.163
715.18	60.811
715.37	60.214
715.55	59.480
715.73	58.701
715.91	62.104
716.10	60.997
716.28	58.424
716.46	58.715
716.64	60.183
716.83	59.776
717.01	58.243
717.19	62.113
717.37	59.550
717.55	59.354
717.74	61.018
717.92	59.197
718.10	58.987
718.28	61.332
718.47	60.626
718.65	62.277
718.83	62.524
719.01	60.397
719.19	61.707
719.38	60.657
719.56	61.359
719.74	61.317
719.92	58.541
720.10	62.217
720.29	61.182
720.47	63.216
720.65	61.743
720.83	63.881
721.01	60.637
721.20	62.519
721.38	60.656
721.56	61.832
721.74	63.339
721.92	64.333
722.11	61.805
722.29	64.013
722.47	65.212
722.65	66.711
722.83	63.748
723.01	66.481
723.20	62.365
723.38	66.882
723.56	63.596
723.74	62.503
723.92	63.737
724.10	66.279
724.29	63.593
724.47	66.834
724.65	62.274
724.83	64.061
725.01	62.167
725.19	64.664
725.38	61.945
725.56	63.575
725.74	63.021
725.92	65.195
726.10	63.232
726.28	67.735
726.46	63.776
726.65	67.000
726.83	65.740
727.01	65.094
727.19	64.579
727.37	64.808
727.55	65.385
727.73	64.621
727.92	64.538
728.10	66.667
728.28	64.248
728.46	66.982
728.64	65.226
728.82	65.729
729.00	63.207
729.19	64.736
729.37	65.587
729.55	64.975
729.73	63.631
729.91	64.358
730.09	65.572
730.27	64.659
730.45	64.940
730.63	66.754
730.82	66.201
731.00	64.454
731.18	65.128
731.36	65.738
731.54	65.193
731.72	64.840
731.90	64.876
732.08	65.871
732.26	66.088
732.45	67.588
732.63	65.957
732.81	66.667
732.99	66.770
733.17	64.694
733.35	66.499
733.53	66.183
733.71	64.253
733.89	69.187
734.07	65.668
734.25	68.849
734.44	66.481
734.62	66.791
734.80	67.017
734.98	69.766
735.16	68.619
735.34	66.441
735.52	69.174
735.70	68.667
735.88	65.977
736.06	69.393
736.24	69.623
736.42	70.902
736.60	68.965
736.78	72.541
736.97	70.360
737.15	70.141
737.33	68.480
737.51	69.803
737.69	69.448
737.87	70.603
738.05	69.017
738.23	72.129
738.41	69.979
738.59	71.330
738.77	70.455
738.95	72.506
739.13	72.963
739.31	67.135
739.49	69.316
739.67	71.616
739.85	67.355
740.03	68.224
740.21	70.807
740.39	73.290
740.57	69.647
740.75	69.327
740.93	69.664
741.11	69.538
741.30	69.505
741.48	70.942
741.66	72.703
741.84	72.843
742.02	68.818
742.20	74.500
742.38	71.850
742.56	70.732
742.74	71.141
742.92	70.071
743.10	70.583
743.28	70.231
743.46	71.139
743.64	71.478
743.82	72.466
744.00	70.858
744.18	71.970
744.36	73.480
744.54	74.921
744.72	71.742
744.90	72.417
745.08	72.466
745.26	68.553
745.44	73.383
745.62	74.304
745.80	74.976
745.98	72.776
746.16	74.951
746.34	71.407
746.52	74.585
746.70	72.686
746.87	74.266
747.05	72.167
747.23	74.684
747.41	73.329
747.59	72.031
747.77	71.859
747.95	74.728
748.13	73.966
748.31	73.169
748.49	70.726
748.67	72.194
748.85	73.957
749.03	74.397
749.21	71.783
749.39	78.583
749.57	69.270
749.75	73.554
749.93	73.474
750.11	73.309
750.29	73.121
750.47	72.145
750.65	70.706
750.83	71.351
751.01	67.922
751.18	74.058
751.36	70.936
751.54	74.102
751.72	67.362
751.90	71.801
752.08	68.588
752.26	71.883
752.44	71.302
752.62	69.755
752.80	68.661
752.98	72.437
753.16	69.205
753.34	70.034
753.52	71.220
753.69	70.425
753.87	68.082
754.05	71.783
754.23	69.817
754.41	70.646
754.59	71.162
754.77	71.917
754.95	70.442
755.13	72.089
755.31	71.713
755.49	73.379
755.66	70.709
755.84	73.714
756.02	71.031
756.20	70.519
756.38	70.732
756.56	68.624
756.74	70.835
756.92	70.100
757.10	70.936
757.28	72.460
757.45	71.646
757.63	70.817
757.81	68.815
757.99	70.542
758.17	70.839
758.35	73.960
758.53	69.670
758.71	71.789
758.88	70.488
759.06	69.729
759.24	69.137
759.42	68.060
759.60	66.295
759.78	67.055
759.96	63.485
760.13	65.252
760.31	60.577
760.49	63.442
760.67	58.628
760.85	60.956
761.03	58.257
761.21	61.048
761.38	58.949
761.56	62.859
761.74	58.628
761.92	64.275
762.10	57.567
762.28	61.270
762.46	58.388
762.63	59.907
762.81	61.645
762.99	60.484
763.17	59.946
763.35	63.143
763.53	57.185
763.70	60.880
763.88	60.702
764.06	62.623
764.24	61.038
764.42	62.661
764.60	60.461
764.77	62.751
764.95	59.589
765.13	61.687
765.31	62.199
765.49	58.799
765.66	61.548
765.84	63.533
766.02	61.887
766.20	62.934
766.38	65.556
766.56	64.943
766.73	63.240
766.91	65.643
767.09	66.686
767.27	68.523
767.45	65.545
767.62	65.474
767.80	67.337
767.98	67.575
768.16	66.797
768.33	68.641
768.51	66.377
768.69	71.352
768.87	66.297
769.05	71.337
769.22	68.761
769.40	70.452
769.58	66.076
769.76	70.757
769.94	67.900
770.11	70.041
770.29	74.312
770.47	74.210
770.65	69.095
770.82	71.406
771.00	68.987
771.18	70.528
771.36	66.977
771.53	72.094
771.71	67.935
771.89	73.299
772.07	69.690
772.25	71.708
772.42	69.191
772.60	70.986
772.78	72.937
772.96	74.326
773.13	73.292
773.31	66.833
773.49	70.856
773.67	73.476
773.84	68.744
774.02	73.000
774.20	71.602
774.37	74.322
774.55	70.438
774.73	71.818
774.91	70.233
775.08	71.022
775.26	70.254
775.44	73.876
775.62	70.666
775.79	72.163
775.97	72.788
776.15	66.568
776.32	70.551
776.50	75.146
776.68	72.073
776.86	72.585
777.03	75.100
777.21	64.551
777.39	73.168
777.56	76.272
777.74	66.224
777.92	72.612
778.10	71.328
778.27	73.442
778.45	72.250
778.63	71.449
778.80	65.786
778.98	69.227
779.16	71.025
779.34	74.105
779.51	74.039
779.69	72.501
779.87	69.520
780.04	69.446
780.22	62.382
780.40	71.450
780.57	65.796
780.75	73.658
780.93	73.813
781.10	75.448
781.28	77.599
781.46	68.725
781.63	68.862
781.81	76.548
781.99	68.435
782.16	67.928
782.34	65.791
782.52	66.986
782.69	66.189
782.87	71.970
783.05	68.630
783.22	68.695
783.40	66.352
783.58	72.052
783.75	67.629
783.93	72.801
784.11	70.177
784.28	70.005
784.46	62.848
784.64	72.029
784.81	59.544
784.99	71.116
785.17	66.359
785.34	68.013
785.52	65.640
785.69	66.763
785.87	67.114
786.05	70.546
786.22	70.729
786.40	76.279
786.58	69.511
786.75	72.267
786.93	69.741
787.11	67.042
787.28	67.855
787.46	72.432
787.63	65.387
787.81	71.453
787.99	70.423
788.16	71.694
788.34	62.806
788.51	68.798
788.69	64.464
788.87	66.718
789.04	58.912
789.22	71.000
789.39	62.305
789.57	64.525
789.75	62.587
789.92	63.963
790.10	61.696
790.27	67.263
790.45	65.538
790.63	63.575
790.80	66.130
790.98	62.906
791.15	62.723
791.33	69.038
791.51	65.479
791.68	66.578
791.86	67.355
792.03	65.674
792.21	61.714
792.39	71.477
792.56	67.520
792.74	66.667
792.91	66.786
793.09	65.262
793.26	62.135
793.44	67.886
793.62	59.888
793.79	70.992
793.97	67.305
794.14	68.714
794.32	62.935
794.49	72.020
794.67	64.939
794.84	64.430
795.02	61.257
795.20	63.436
795.37	65.752
795.55	64.420
795.72	61.577
795.90	64.945
796.07	62.388
796.25	65.107
796.42	59.058
796.60	67.355
796.77	62.294
796.95	67.729
797.13	57.059
797.30	63.455
797.48	61.351
797.65	68.985
797.83	61.700
798.00	66.179
798.18	55.624
798.35	60.127
798.53	63.485
798.70	69.098
798.88	59.368
799.05	59.764
799.23	60.734
799.40	66.590
799.58	66.413
799.75	58.888
799.93	57.225
800.10	65.202
800.28	61.922
800.45	59.988
800.63	55.087
800.80	64.403
800.98	59.721
801.15	63.925
801.33	60.337
801.50	64.486
801.68	61.028
801.85	63.075
802.03	60.861
802.20	58.413
802.38	61.871
802.55	64.830
802.73	58.786
802.90	64.867
803.08	60.780
803.25	65.686
803.43	65.215
803.60	67.339
803.78	58.875
803.95	66.895
804.13	64.828
804.30	69.091
804.48	60.727
804.65	61.089
804.83	61.968
805.00	63.866
805.17	55.665
805.35	62.160
805.52	61.115
805.70	61.606
805.87	61.742
806.05	60.849
806.22	61.574
806.40	58.255
806.57	63.684
806.75	68.568
806.92	59.681
807.09	66.667
807.27	68.562
807.44	64.665
807.62	57.354
807.79	61.346
807.97	60.726
808.14	66.824
808.31	58.968
808.49	63.378
808.66	63.358
808.84	58.117
809.01	59.645
809.19	61.699
809.36	66.903
809.53	59.527
809.71	60.867
809.88	66.018
810.06	66.085
810.23	63.114
810.41	61.453
810.58	67.090
810.75	54.962
810.93	63.417
811.10	59.102
811.28	56.401
811.45	51.555
811.62	55.932
811.80	55.772
811.97	57.868
812.15	65.405
812.32	56.920
812.49	60.125
812.67	56.798
812.84	61.793
813.02	64.662
813.19	58.273
813.36	56.475
813.54	51.459
813.71	63.325
813.89	60.063
814.06	57.874
814.23	57.533
814.41	57.423
814.58	58.101
814.75	61.619
814.93	51.217
815.10	57.891
815.28	43.581
815.45	53.993
815.62	55.565
815.80	48.876
815.97	54.049
816.14	58.201
816.32	54.130
816.49	49.400
816.66	53.589
816.84	53.349
817.01	51.591
817.18	53.764
817.36	56.692
817.53	53.586
817.71	42.105
817.88	60.252
818.05	53.107
818.23	56.596
818.40	48.145
818.57	46.411
818.75	44.262
818.92	55.487
819.09	53.354
819.27	53.284
819.44	48.120
819.61	55.814
819.79	47.838
819.96	58.328
820.13	51.731
820.31	54.044
820.48	52.785
820.65	55.304
820.82	50.244
821.00	55.410
821.17	53.156
821.34	53.483
821.52	51.163
821.69	55.462
821.86	53.619
822.04	57.579
822.21	54.451
822.38	58.664
822.56	56.557
822.73	58.988
822.90	57.184
823.07	57.285
823.25	57.368
823.42	58.510
823.59	58.375
823.77	57.414
823.94	57.686
824.11	57.620
824.29	59.992
824.46	58.812
824.63	59.218
824.80	59.510
824.98	59.689
825.15	58.963
825.32	55.029
825.49	61.019
825.67	59.024
825.84	61.047
826.01	56.682
826.19	58.265
826.36	57.463
826.53	56.809
826.70	53.372
826.88	58.713
827.05	54.157
827.22	56.867
827.39	56.224
827.57	54.186
827.74	53.710
827.91	58.559
828.08	54.157
828.26	58.716
828.43	53.629
828.60	55.938
828.77	57.011
828.95	59.498
829.12	56.285
829.29	53.859
829.46	56.573
829.64	53.575
829.81	50.907
829.98	59.301
830.15	52.113
830.32	54.143
830.50	50.481
830.67	53.086
830.84	47.090
831.01	48.992
831.19	50.790
831.36	52.404
831.53	49.437
831.70	55.661
831.87	48.000
832.05	50.693
832.22	52.888
832.39	48.923
832.56	42.109
832.74	53.657
832.91	44.799
833.08	55.636
833.25	42.587
833.42	49.868
833.60	46.041
833.77	50.938
833.94	47.396
834.11	50.773
834.28	48.588
834.45	49.072
834.63	49.380
834.80	56.175
834.97	52.911
835.14	53.913
835.31	54.061
835.49	55.115
835.66	52.185
835.83	54.183
836.00	49.879
836.17	54.690
836.34	47.611
836.52	54.480
836.69	53.058
836.86	57.120
837.03	49.587
837.20	53.751
837.37	46.457
837.55	46.855
837.72	45.542
837.89	53.546
838.06	51.721
838.23	57.333
838.40	46.210
838.58	47.842
838.75	54.291
838.92	56.757
839.09	58.501
839.26	60.316
839.43	64.650
839.60	54.828
839.78	54.637
839.95	70.916
840.12	59.630
840.29	65.062
840.46	45.850
840.63	54.883
840.80	52.877
840.98	57.197
841.15	56.456
841.32	53.091
841.49	49.012
841.66	53.808
841.83	54.664
842.00	50.543
842.17	54.460
842.34	47.463
842.52	57.833
842.69	64.432
842.86	51.559
843.03	71.269
843.20	51.601
843.37	58.852
843.54	66.585
843.71	55.954
843.88	53.175
844.06	61.528
844.23	63.404
844.40	60.122
844.57	50.000
844.74	62.332
844.91	61.248
845.08	69.752
845.25	68.000
845.42	63.107
845.59	62.287
845.76	65.642
845.94	78.976
846.11	59.836
846.28	72.314
846.45	76.984
846.62	64.570
846.79	46.935
846.96	77.104
847.13	67.358
847.30	66.966
847.47	52.212
847.64	53.524
847.81	73.868
847.98	89.126
848.15	78.767
848.32	80.952
848.50	68.515
848.67	75.803
848.84	81.013
849.01	67.538
849.18	71.145
849.35	77.991
849.52	95.316
849.69	81.996
849.86	71.743
850.03	65.533
850.20	66.463
850.37	64.752
850.54	64.881
850.71	71.457
850.88	73.069
851.05	75.476
851.22	78.772
851.39	79.630
851.56	63.883
851.73	70.021
851.90	79.499
852.07	68.932
852.24	60.000
852.41	64.081
852.58	71.011
852.75	57.143
852.92	63.575
853.09	81.797
853.26	100.311
853.43	77.079
853.60	61.667
853.77	77.698
853.94	74.648
854.11	82.030
854.28	87.648
854.45	67.051
854.62	76.538
854.79	101.770
854.96	64.377
855.13	71.053
855.30	82.105
855.47	85.196
855.64	73.815
855.81	75.227
855.98	108.684
856.15	65.920
856.32	82.552
856.49	83.287
856.66	76.782
856.83	79.845
857.00	76.364
857.17	69.565
857.34	70.156
857.51	67.654
857.68	75.990
857.85	70.378
858.02	81.183
858.19	61.905
858.36	65.152
858.53	75.243
858.70	82.126
858.87	83.891
859.04	65.678
859.21	68.159
859.38	71.047
859.55	85.393
859.72	64.598
859.89	103.299
860.05	74.478
860.22	87.864
860.39	72.193
860.56	64.946
860.73	70.773
860.90	82.510
861.07	93.364
861.24	71.835
861.41	87.903
861.58	75.689
861.75	84.881
861.92	75.272
862.09	67.991
862.26	70.991
862.43	102.139
862.59	68.241
862.76	101.746
862.93	96.267
863.10	65.517
863.27	89.446
863.44	59.744
863.61	70.557
863.78	65.707
863.95	98.986
864.12	72.414
864.29	74.766
864.45	72.979
864.62	69.623
864.79	87.366
864.96	87.327
865.13	79.348
865.30	56.701
865.47	69.264
865.64	94.529
865.81	71.229
865.97	79.545
866.14	62.295
866.31	67.945
866.48	63.506
866.65	79.075
866.82	91.892
866.99	75.604
867.16	67.857
867.33	83.288
867.49	74.347
867.66	61.807
867.83	61.017
868.00	74.799
868.17	67.991
868.34	90.426
868.51	71.111
868.67	81.218
868.84	76.782
869.01	98.696
869.18	78.187
869.35	65.476
869.52	44.780
869.69	86.585
869.85	88.496
870.02	61.818
870.19	68.780
870.36	79.858
870.53	65.854
870.70	66.833
870.86	48.052
871.03	62.283
871.20	71.176
871.37	70.270
871.54	77.895
871.71	56.235
871.87	55.874
872.04	77.119
872.21	61.250
872.38	73.138
872.55	93.447
872.72	53.066
872.88	79.646
873.05	60.850
873.22	85.783
873.39	64.410
873.56	81.592
873.72	59.452
873.89	54.156
874.06	69.372
874.23	109.972
874.40	69.036
874.56	79.828
874.73	69.351
874.90	68.160
875.07	71.429
875.24	64.840
875.40	84.416
875.57	74.224
875.74	75.402
875.91	58.772
876.08	67.261
876.24	73.445
876.41	71.460
876.58	70.133
876.75	74.515
876.92	60.630
877.08	77.500
877.25	61.290
877.42	74.569
877.59	55.305
877.75	71.901
877.92	64.744
878.09	65.842
878.26	85.533
878.42	67.216
878.59	85.926
878.76	73.171
878.93	81.568
879.09	49.433
879.26	68.906
879.43	71.625
879.60	70.352
879.76	78.571
879.93	65.940
880.10	60.308
880.27	40.438
880.43	53.229
880.60	55.613
880.77	47.833
880.94	55.827
881.10	40.596
881.27	49.837
881.44	37.241
881.61	52.773
881.77	42.699
881.94	44.024
882.11	38.291
882.28	39.057
882.44	41.773
882.61	46.456
882.78	47.336
882.94	50.730
883.11	52.439
883.28	50.591
883.45	48.198
883.61	47.826
883.78	43.994
883.95	50.551
884.11	45.917
884.28	45.146
>>>>>End Processed Spectral Data<<<<<
