SpectraSuite Data File
++++++++++++++++++++++++++++++++++++
Date: Thu Sep 26 03:31:25 EST 2019
User: sgrac
Dark Spectrum Present: Yes
Reference Spectrum Present: Yes
Number of Sampled Component Spectra: 1
Spectrometers: USB4E01596
Integration Time (usec): 100000 (USB4E01596)
Spectra Averaged: 3 (USB4E01596)
Boxcar Smoothing: 0 (USB4E01596)
Correct for Electrical Dark: No (USB4E01596)
Strobe/Lamp Enabled: Yes (USB4E01596)
Correct for Detector Non-linearity: No (USB4E01596)
Correct for Stray Light: No (USB4E01596)
Number of Pixels in Processed Spectrum: 3648
>>>>>Begin Processed Spectral Data<<<<<
178.44	-1650.000
178.66	-1650.000
178.87	-1650.000
179.09	-353.061
179.30	-89.286
179.52	-813.636
179.74	-416.667
179.95	-1515.385
180.17	292.771
180.38	1750.000
180.60	460.714
180.82	365.060
181.03	398.611
181.25	231.731
181.46	-583.871
181.68	416.667
181.89	1433.333
182.11	-1094.444
182.33	230.097
182.54	250.575
182.76	432.143
182.97	751.852
183.19	182.609
183.40	274.757
183.62	2062.500
183.84	244.565
184.05	2016.667
184.27	307.216
184.48	-538.889
184.70	1628.571
184.91	313.000
185.13	1520.000
185.34	645.946
185.56	2020.000
185.78	221.649
185.99	336.364
186.21	768.571
186.42	1426.667
186.64	1019.048
186.85	268.367
187.07	387.143
187.28	271.930
187.50	1082.609
187.72	1094.444
187.93	610.638
188.15	515.094
188.36	640.625
188.58	6600.000
188.79	545.000
189.01	3950.000
189.22	275.000
189.44	870.833
189.65	2422.222
189.87	724.324
190.09	745.161
190.30	414.286
190.52	-17800.000
190.73	-19500.000
190.95	995.833
191.16	200.917
191.38	222.826
191.59	952.941
191.81	417.241
192.02	1040.000
192.24	349.315
192.45	287.368
192.67	623.404
192.88	551.282
193.10	198.837
193.31	204.494
193.53	1317.647
193.74	293.902
193.96	220.000
194.18	1021.053
194.39	260.000
194.61	2300.000
194.82	340.541
195.04	175.238
195.25	205.469
195.47	606.250
195.68	263.291
195.90	800.000
196.11	290.000
196.33	876.923
196.54	314.286
196.76	650.000
196.97	831.818
197.19	663.889
197.40	-353.333
197.62	394.545
197.83	215.966
198.05	524.528
198.26	353.521
198.48	1800.000
198.69	0.000
198.91	2833.333
199.12	566.667
199.34	295.652
199.55	216.216
199.77	206.897
199.98	4933.333
200.20	348.485
200.41	220.561
200.63	1133.333
200.84	365.217
201.06	223.276
201.27	1147.619
201.49	1225.000
201.70	-1657.143
201.91	321.277
202.13	502.564
202.34	-333.333
202.56	612.121
202.77	2000.000
202.99	729.412
203.20	429.508
203.42	452.727
203.63	300.000
203.85	193.431
204.06	328.947
204.28	277.381
204.49	523.529
204.71	308.451
204.92	-10150.000
205.14	775.000
205.35	272.464
205.56	733.333
205.78	444.068
205.99	320.755
206.21	286.111
206.42	345.455
206.64	790.625
206.85	345.238
207.07	217.600
207.28	137.607
207.50	419.697
207.71	895.238
207.93	-441.667
208.14	-2427.273
208.35	808.000
208.57	255.556
208.78	412.000
209.00	397.368
209.21	4375.000
209.43	284.615
209.64	784.375
209.86	4480.000
210.07	578.049
210.28	-507.895
210.50	5866.667
210.71	610.000
210.93	206.897
211.14	444.231
211.36	978.947
211.57	439.286
211.78	900.000
212.00	1137.500
212.21	410.345
212.43	611.905
212.64	235.922
212.86	315.385
213.07	216.667
213.29	1493.333
213.50	292.405
213.71	204.032
213.93	502.273
214.14	230.769
214.36	160.000
214.57	487.234
214.78	165.854
215.00	300.000
215.21	281.481
215.43	766.667
215.64	294.565
215.86	182.014
216.07	1200.000
216.28	355.696
216.50	271.698
216.71	287.805
216.93	430.952
217.14	1981.818
217.35	454.286
217.57	285.484
217.78	219.469
218.00	244.681
218.21	213.816
218.42	446.512
218.64	226.733
218.85	218.750
219.07	241.000
219.28	797.143
219.49	571.053
219.71	436.000
219.92	-1740.000
220.14	465.625
220.35	1012.500
220.56	-7900.000
220.78	223.810
220.99	500.000
221.21	338.554
221.42	288.462
221.63	465.957
221.85	0.000
222.06	231.132
222.28	488.571
222.49	371.212
222.70	1735.714
222.92	283.333
223.13	116.667
223.34	244.565
223.56	197.391
223.77	154.140
223.99	174.534
224.20	183.974
224.41	429.787
224.63	117.687
224.84	191.892
225.05	175.573
225.27	164.740
225.48	175.439
225.69	171.429
225.91	100.000
226.12	133.766
226.34	108.824
226.55	102.206
226.76	141.063
226.98	97.034
227.19	82.682
227.40	132.222
227.62	104.478
227.83	72.691
228.04	87.500
228.26	76.726
228.47	64.951
228.69	42.623
228.90	54.566
229.11	21.443
229.33	53.481
229.54	34.884
229.75	36.512
229.97	40.366
230.18	36.760
230.39	32.774
230.61	24.084
230.82	38.782
231.03	29.257
231.25	41.903
231.46	28.892
231.67	39.873
231.89	42.322
232.10	34.825
232.31	40.694
232.53	47.210
232.74	37.521
232.95	42.230
233.17	46.305
233.38	39.427
233.59	47.425
233.81	49.498
234.02	34.827
234.23	47.896
234.45	60.506
234.66	28.739
234.87	47.756
235.09	38.394
235.30	41.217
235.51	44.973
235.73	47.088
235.94	39.280
236.15	46.886
236.36	43.895
236.58	35.347
236.79	39.144
237.00	32.879
237.22	40.699
237.43	48.637
237.64	41.165
237.86	40.833
238.07	53.406
238.28	44.655
238.50	32.703
238.71	35.096
238.92	39.724
239.13	38.554
239.35	44.102
239.56	43.669
239.77	45.455
239.99	39.269
240.20	47.969
240.41	35.957
240.63	28.108
240.84	33.972
241.05	26.610
241.26	38.155
241.48	28.208
241.69	22.771
241.90	18.331
242.12	22.803
242.33	29.218
242.54	12.038
242.75	17.222
242.97	24.936
243.18	14.257
243.39	15.421
243.61	19.432
243.82	19.784
244.03	17.332
244.24	20.305
244.46	18.972
244.67	23.754
244.88	21.999
245.09	17.978
245.31	20.271
245.52	19.632
245.73	23.095
245.95	28.197
246.16	20.720
246.37	15.737
246.58	19.771
246.80	18.394
247.01	23.113
247.22	17.622
247.43	17.155
247.65	17.662
247.86	19.308
248.07	16.013
248.28	17.899
248.50	19.749
248.71	15.694
248.92	17.686
249.13	17.724
249.35	19.381
249.56	18.533
249.77	20.193
249.98	14.332
250.20	21.081
250.41	20.141
250.62	23.539
250.83	17.428
251.05	23.159
251.26	17.907
251.47	21.234
251.68	20.161
251.90	21.191
252.11	18.171
252.32	18.011
252.53	23.060
252.75	17.641
252.96	19.231
253.17	19.184
253.38	16.477
253.59	15.120
253.81	19.393
254.02	15.915
254.23	15.656
254.44	18.119
254.66	17.604
254.87	14.991
255.08	18.218
255.29	23.569
255.50	20.192
255.72	24.910
255.93	18.987
256.14	24.670
256.35	23.676
256.57	24.448
256.78	18.764
256.99	18.795
257.20	25.707
257.41	20.080
257.63	13.230
257.84	17.791
258.05	27.941
258.26	17.640
258.47	15.820
258.69	15.254
258.90	12.084
259.11	15.957
259.32	16.158
259.53	13.609
259.75	13.976
259.96	11.434
260.17	11.375
260.38	15.231
260.59	13.360
260.81	15.760
261.02	16.895
261.23	17.595
261.44	17.270
261.65	17.907
261.87	15.233
262.08	18.878
262.29	17.570
262.50	14.328
262.71	14.146
262.92	17.809
263.14	13.639
263.35	14.790
263.56	13.480
263.77	17.889
263.98	14.269
264.20	17.659
264.41	11.847
264.62	13.634
264.83	11.232
265.04	21.172
265.25	17.096
265.47	18.812
265.68	17.826
265.89	14.065
266.10	11.484
266.31	20.760
266.52	11.517
266.74	15.140
266.95	15.989
267.16	14.962
267.37	16.627
267.58	12.419
267.79	13.866
268.01	14.375
268.22	14.058
268.43	17.760
268.64	15.478
268.85	11.959
269.06	13.337
269.27	15.505
269.49	13.473
269.70	13.983
269.91	13.234
270.12	12.754
270.33	16.452
270.54	14.519
270.75	12.745
270.97	15.191
271.18	11.601
271.39	14.479
271.60	17.332
271.81	15.771
272.02	10.516
272.23	15.464
272.45	10.743
272.66	12.503
272.87	14.875
273.08	13.564
273.29	14.255
273.50	15.392
273.71	13.987
273.92	12.122
274.14	16.804
274.35	14.566
274.56	16.431
274.77	15.248
274.98	14.885
275.19	14.870
275.40	11.959
275.61	12.581
275.83	16.297
276.04	16.198
276.25	14.203
276.46	13.036
276.67	18.774
276.88	17.088
277.09	14.693
277.30	17.472
277.51	13.196
277.73	13.051
277.94	11.766
278.15	15.011
278.36	16.488
278.57	12.661
278.78	15.501
278.99	15.125
279.20	14.789
279.41	17.022
279.62	13.752
279.84	13.185
280.05	10.673
280.26	11.016
280.47	17.704
280.68	11.564
280.89	13.404
281.10	16.200
281.31	11.853
281.52	17.038
281.73	10.087
281.94	11.138
282.16	14.672
282.37	13.308
282.58	11.950
282.79	17.600
283.00	16.264
283.21	11.674
283.42	11.388
283.63	12.905
283.84	11.071
284.05	14.093
284.26	12.610
284.47	14.683
284.68	14.391
284.89	13.562
285.11	11.737
285.32	11.778
285.53	14.416
285.74	15.131
285.95	13.054
286.16	14.754
286.37	13.660
286.58	15.179
286.79	11.711
287.00	14.783
287.21	14.182
287.42	15.491
287.63	13.892
287.84	14.798
288.05	15.996
288.26	13.349
288.48	16.121
288.69	13.077
288.90	12.585
289.11	16.716
289.32	15.624
289.53	13.681
289.74	10.388
289.95	12.074
290.16	12.934
290.37	12.878
290.58	10.041
290.79	9.647
291.00	12.537
291.21	12.298
291.42	11.376
291.63	12.674
291.84	14.433
292.05	12.473
292.26	11.936
292.47	12.750
292.68	11.943
292.89	14.192
293.10	13.669
293.31	15.576
293.52	10.544
293.73	12.321
293.94	12.743
294.15	10.454
294.36	11.216
294.57	16.512
294.79	12.019
295.00	9.344
295.21	13.956
295.42	12.854
295.63	13.638
295.84	12.075
296.05	11.081
296.26	13.260
296.47	11.736
296.68	13.493
296.89	15.429
297.10	15.349
297.31	13.705
297.52	12.546
297.73	14.756
297.94	15.133
298.15	13.877
298.36	13.763
298.57	13.572
298.78	15.976
298.99	13.481
299.20	14.730
299.41	15.379
299.62	14.623
299.83	12.420
300.04	14.706
300.25	14.223
300.46	14.878
300.67	15.583
300.88	15.274
301.09	9.951
301.30	15.269
301.50	12.072
301.71	17.918
301.92	16.282
302.13	12.270
302.34	11.979
302.55	12.637
302.76	13.366
302.97	14.004
303.18	13.757
303.39	11.491
303.60	13.164
303.81	15.791
304.02	10.067
304.23	14.527
304.44	10.257
304.65	12.774
304.86	14.865
305.07	12.854
305.28	13.131
305.49	15.604
305.70	15.663
305.91	11.951
306.12	13.326
306.33	13.829
306.54	12.366
306.75	15.627
306.96	17.679
307.17	14.388
307.38	11.828
307.58	12.441
307.79	14.707
308.00	14.218
308.21	12.361
308.42	15.250
308.63	13.906
308.84	14.375
309.05	11.832
309.26	12.510
309.47	14.324
309.68	13.963
309.89	16.479
310.10	13.112
310.31	13.227
310.52	14.070
310.73	16.943
310.94	13.169
311.14	12.678
311.35	14.946
311.56	14.505
311.77	12.836
311.98	12.746
312.19	14.652
312.40	12.656
312.61	14.714
312.82	13.927
313.03	14.439
313.24	14.300
313.45	17.192
313.66	13.814
313.86	15.669
314.07	12.778
314.28	14.708
314.49	12.970
314.70	15.522
314.91	17.466
315.12	15.901
315.33	16.896
315.54	13.930
315.75	13.146
315.96	11.460
316.16	10.405
316.37	15.468
316.58	12.777
316.79	12.920
317.00	16.110
317.21	13.652
317.42	16.105
317.63	15.439
317.84	12.352
318.05	14.382
318.25	13.228
318.46	13.162
318.67	12.489
318.88	14.951
319.09	15.503
319.30	13.272
319.51	13.303
319.72	16.691
319.93	12.842
320.13	14.499
320.34	13.730
320.55	14.650
320.76	14.970
320.97	15.121
321.18	17.615
321.39	15.961
321.60	12.633
321.80	17.421
322.01	13.373
322.22	15.042
322.43	10.694
322.64	11.452
322.85	14.727
323.06	17.541
323.27	16.495
323.47	16.184
323.68	14.218
323.89	13.367
324.10	16.083
324.31	14.020
324.52	15.738
324.73	15.819
324.93	14.654
325.14	15.355
325.35	16.028
325.56	13.265
325.77	14.899
325.98	16.317
326.19	16.365
326.39	11.274
326.60	17.088
326.81	15.979
327.02	10.309
327.23	15.439
327.44	17.354
327.64	12.431
327.85	14.045
328.06	17.674
328.27	21.052
328.48	18.317
328.69	13.985
328.90	16.868
329.10	13.883
329.31	16.524
329.52	17.496
329.73	18.615
329.94	15.377
330.15	18.875
330.35	16.088
330.56	17.625
330.77	16.922
330.98	17.306
331.19	16.988
331.39	12.701
331.60	16.046
331.81	15.153
332.02	17.229
332.23	16.426
332.44	14.994
332.64	20.927
332.85	15.515
333.06	19.114
333.27	13.889
333.48	18.938
333.68	17.952
333.89	19.073
334.10	13.991
334.31	18.897
334.52	19.099
334.72	19.157
334.93	16.326
335.14	16.701
335.35	17.094
335.56	19.989
335.76	13.468
335.97	20.654
336.18	13.732
336.39	20.496
336.60	17.232
336.80	16.938
337.01	17.611
337.22	18.393
337.43	19.008
337.64	21.464
337.84	18.047
338.05	17.424
338.26	23.309
338.47	20.983
338.68	14.652
338.88	19.603
339.09	16.771
339.30	19.417
339.51	18.100
339.71	20.845
339.92	18.037
340.13	20.370
340.34	17.166
340.55	19.061
340.75	20.209
340.96	17.288
341.17	19.966
341.38	17.628
341.58	18.288
341.79	18.962
342.00	16.626
342.21	18.560
342.41	13.892
342.62	18.489
342.83	19.633
343.04	14.769
343.24	20.595
343.45	20.195
343.66	17.791
343.87	19.793
344.07	16.332
344.28	19.765
344.49	19.458
344.70	21.388
344.90	17.670
345.11	19.210
345.32	17.752
345.53	19.323
345.73	18.606
345.94	20.322
346.15	20.568
346.36	19.216
346.56	19.167
346.77	20.793
346.98	18.521
347.19	21.425
347.39	18.513
347.60	19.569
347.81	18.305
348.02	20.235
348.22	16.145
348.43	19.290
348.64	16.831
348.84	20.093
349.05	18.769
349.26	20.663
349.47	17.262
349.67	17.632
349.88	18.745
350.09	18.089
350.30	21.029
350.50	20.819
350.71	18.335
350.92	17.915
351.12	17.158
351.33	19.096
351.54	17.540
351.74	19.659
351.95	16.841
352.16	19.764
352.37	19.931
352.57	18.603
352.78	18.195
352.99	19.317
353.19	17.274
353.40	19.069
353.61	19.776
353.82	20.183
354.02	17.182
354.23	18.842
354.44	19.618
354.64	18.140
354.85	19.136
355.06	18.163
355.26	15.950
355.47	18.571
355.68	20.527
355.88	20.149
356.09	19.194
356.30	18.228
356.51	19.672
356.71	19.332
356.92	17.093
357.13	20.882
357.33	20.838
357.54	18.581
357.75	16.063
357.95	19.240
358.16	17.230
358.37	20.681
358.57	17.566
358.78	21.589
358.99	18.749
359.19	19.097
359.40	20.300
359.61	18.589
359.81	19.671
360.02	21.529
360.23	18.494
360.43	18.914
360.64	18.532
360.85	19.140
361.05	16.433
361.26	19.516
361.47	18.858
361.67	20.827
361.88	15.991
362.09	19.708
362.29	17.586
362.50	18.255
362.70	16.800
362.91	20.227
363.12	18.116
363.32	20.117
363.53	19.614
363.74	20.676
363.94	17.996
364.15	20.259
364.36	19.076
364.56	19.330
364.77	19.599
364.98	21.764
365.18	17.720
365.39	20.155
365.59	17.850
365.80	19.015
366.01	19.122
366.21	17.554
366.42	16.559
366.63	19.664
366.83	17.985
367.04	17.015
367.24	19.719
367.45	16.768
367.66	16.177
367.86	18.803
368.07	17.411
368.28	16.749
368.48	17.012
368.69	16.357
368.89	16.779
369.10	19.005
369.31	17.333
369.51	18.969
369.72	19.235
369.92	19.071
370.13	16.541
370.34	18.667
370.54	15.119
370.75	18.837
370.95	15.798
371.16	17.847
371.37	15.778
371.57	18.584
371.78	17.685
371.98	18.179
372.19	17.524
372.40	19.389
372.60	19.137
372.81	17.083
373.01	14.931
373.22	17.209
373.43	17.478
373.63	18.036
373.84	17.892
374.04	17.517
374.25	17.226
374.46	18.399
374.66	16.821
374.87	18.366
375.07	14.974
375.28	15.273
375.48	16.726
375.69	18.591
375.90	15.029
376.10	16.267
376.31	15.501
376.51	15.595
376.72	15.913
376.92	15.565
377.13	17.435
377.34	17.127
377.54	16.717
377.75	17.442
377.95	15.932
378.16	17.297
378.36	17.058
378.57	18.908
378.77	16.459
378.98	18.211
379.19	16.028
379.39	16.654
379.60	16.564
379.80	17.037
380.01	17.409
380.21	16.512
380.42	16.812
380.62	16.517
380.83	16.810
381.04	16.473
381.24	16.566
381.45	16.480
381.65	15.551
381.86	17.072
382.06	17.108
382.27	14.543
382.47	15.016
382.68	17.652
382.88	14.703
383.09	15.266
383.29	15.585
383.50	17.317
383.71	15.164
383.91	17.264
384.12	15.384
384.32	16.322
384.53	15.764
384.73	14.979
384.94	14.987
385.14	15.652
385.35	14.557
385.55	16.215
385.76	15.665
385.96	15.678
386.17	14.893
386.37	16.776
386.58	14.543
386.78	16.857
386.99	14.916
387.19	15.818
387.40	14.660
387.60	17.413
387.81	15.143
388.01	15.928
388.22	15.774
388.42	16.588
388.63	15.825
388.83	17.317
389.04	14.188
389.24	16.317
389.45	15.841
389.65	15.746
389.86	14.675
390.06	14.899
390.27	14.638
390.47	15.979
390.68	14.827
390.88	15.789
391.09	15.737
391.29	16.370
391.50	14.991
391.70	16.052
391.91	14.535
392.11	15.737
392.32	15.587
392.52	15.920
392.73	14.560
392.93	15.943
393.14	15.263
393.34	15.231
393.55	15.883
393.75	16.257
393.95	15.368
394.16	15.657
394.36	16.193
394.57	16.115
394.77	15.152
394.98	15.375
395.18	15.464
395.39	15.468
395.59	15.413
395.80	16.152
396.00	15.375
396.21	16.217
396.41	14.299
396.61	15.969
396.82	15.804
397.02	17.157
397.23	15.499
397.43	15.262
397.64	13.558
397.84	17.003
398.05	13.592
398.25	15.666
398.45	14.311
398.66	15.963
398.86	15.056
399.07	15.835
399.27	14.655
399.48	16.614
399.68	14.209
399.89	15.043
400.09	15.044
400.29	15.767
400.50	14.554
400.70	16.033
400.91	13.988
401.11	15.111
401.32	15.040
401.52	13.717
401.72	13.937
401.93	15.946
402.13	14.880
402.34	14.718
402.54	14.336
402.75	15.768
402.95	13.270
403.15	16.289
403.36	13.444
403.56	15.467
403.77	13.606
403.97	14.395
404.17	12.744
404.38	14.766
404.58	13.889
404.79	14.986
404.99	14.443
405.19	14.488
405.40	14.624
405.60	15.344
405.81	14.271
406.01	15.084
406.21	14.680
406.42	15.002
406.62	14.712
406.83	15.571
407.03	15.161
407.23	14.242
407.44	14.201
407.64	14.795
407.85	14.217
408.05	14.765
408.25	14.334
408.46	15.556
408.66	14.104
408.87	14.608
409.07	14.203
409.27	14.808
409.48	14.520
409.68	15.572
409.88	13.472
410.09	14.561
410.29	14.009
410.50	14.924
410.70	13.258
410.90	14.758
411.11	14.026
411.31	14.326
411.51	14.726
411.72	15.022
411.92	13.474
412.12	14.338
412.33	12.746
412.53	13.736
412.74	13.061
412.94	13.866
413.14	14.388
413.35	14.231
413.55	13.306
413.75	15.205
413.96	12.921
414.16	13.450
414.36	13.545
414.57	14.337
414.77	13.257
414.97	14.521
415.18	12.792
415.38	13.935
415.58	13.208
415.79	14.355
415.99	13.489
416.19	14.004
416.40	13.962
416.60	14.309
416.80	14.111
417.01	14.064
417.21	13.075
417.41	14.032
417.62	14.543
417.82	14.623
418.02	13.366
418.23	14.802
418.43	13.923
418.63	14.436
418.84	14.345
419.04	13.955
419.24	13.834
419.45	13.974
419.65	14.609
419.85	14.236
420.06	14.307
420.26	14.527
420.46	14.107
420.67	14.407
420.87	14.425
421.07	14.747
421.28	14.357
421.48	14.607
421.68	14.499
421.88	14.451
422.09	14.226
422.29	14.375
422.49	13.896
422.70	14.621
422.90	14.035
423.10	14.260
423.31	14.332
423.51	14.977
423.71	14.260
423.91	14.578
424.12	14.304
424.32	14.775
424.52	13.963
424.73	14.555
424.93	14.612
425.13	14.281
425.33	13.888
425.54	14.382
425.74	14.205
425.94	14.523
426.15	13.983
426.35	13.994
426.55	14.251
426.75	14.538
426.96	14.385
427.16	14.430
427.36	14.240
427.57	14.746
427.77	14.202
427.97	14.633
428.17	13.821
428.38	14.714
428.58	13.277
428.78	15.036
428.98	13.330
429.19	14.161
429.39	13.054
429.59	13.641
429.79	13.028
430.00	13.861
430.20	13.210
430.40	13.601
430.60	12.993
430.81	13.645
431.01	13.016
431.21	13.892
431.41	13.239
431.62	13.487
431.82	13.697
432.02	14.018
432.22	13.589
432.43	13.580
432.63	12.829
432.83	13.461
433.03	13.219
433.24	13.584
433.44	13.093
433.64	13.723
433.84	13.062
434.05	13.955
434.25	13.171
434.45	13.828
434.65	13.474
434.85	14.238
435.06	13.868
435.26	13.783
435.46	13.542
435.66	14.055
435.87	13.330
436.07	13.270
436.27	13.706
436.47	13.316
436.67	12.829
436.88	13.634
437.08	13.371
437.28	13.464
437.48	13.013
437.69	13.423
437.89	13.620
438.09	13.672
438.29	12.856
438.49	13.829
438.70	12.887
438.90	13.393
439.10	12.499
439.30	13.606
439.50	12.838
439.71	13.948
439.91	13.113
440.11	13.418
440.31	13.259
440.51	13.086
440.72	12.977
440.92	13.330
441.12	13.272
441.32	13.672
441.52	13.623
441.72	13.605
441.93	13.219
442.13	13.568
442.33	13.038
442.53	13.619
442.73	12.872
442.94	13.980
443.14	13.324
443.34	13.783
443.54	13.778
443.74	13.417
443.94	13.061
444.15	13.357
444.35	13.043
444.55	13.500
444.75	13.461
444.95	13.027
445.15	13.166
445.36	13.141
445.56	12.102
445.76	13.102
445.96	13.067
446.16	12.943
446.36	12.784
446.57	13.325
446.77	12.799
446.97	13.420
447.17	13.017
447.37	13.056
447.57	13.198
447.77	13.282
447.98	13.223
448.18	13.120
448.38	13.191
448.58	13.269
448.78	13.355
448.98	13.363
449.18	13.105
449.39	13.517
449.59	13.083
449.79	13.625
449.99	13.011
450.19	13.468
450.39	13.192
450.59	13.471
450.79	12.758
451.00	13.175
451.20	13.706
451.40	12.939
451.60	13.137
451.80	13.105
452.00	12.962
452.20	13.357
452.40	12.517
452.61	12.928
452.81	12.707
453.01	12.836
453.21	12.614
453.41	13.183
453.61	12.878
453.81	13.084
454.01	12.582
454.21	13.130
454.42	13.512
454.62	13.252
454.82	12.784
455.02	13.406
455.22	12.529
455.42	13.021
455.62	12.256
455.82	12.856
456.02	12.256
456.23	12.984
456.43	12.360
456.63	13.094
456.83	12.685
457.03	12.536
457.23	12.513
457.43	12.928
457.63	12.192
457.83	13.359
458.03	12.345
458.23	12.821
458.43	12.785
458.64	12.666
458.84	12.465
459.04	12.956
459.24	12.606
459.44	13.163
459.64	12.907
459.84	12.473
460.04	12.663
460.24	12.708
460.44	12.499
460.64	12.804
460.84	12.794
461.04	13.160
461.24	13.113
461.45	12.913
461.65	13.089
461.85	13.043
462.05	12.670
462.25	13.094
462.45	13.034
462.65	13.587
462.85	12.885
463.05	12.653
463.25	12.505
463.45	13.293
463.65	13.119
463.85	13.225
464.05	12.268
464.25	12.561
464.45	13.007
464.65	12.697
464.85	12.192
465.05	12.388
465.26	12.219
465.46	12.778
465.66	12.235
465.86	12.817
466.06	13.036
466.26	13.083
466.46	11.868
466.66	12.835
466.86	12.286
467.06	13.124
467.26	12.058
467.46	12.596
467.66	12.419
467.86	12.779
468.06	12.120
468.26	12.620
468.46	12.432
468.66	13.153
468.86	12.315
469.06	13.036
469.26	12.514
469.46	12.529
469.66	12.370
469.86	13.063
470.06	11.938
470.26	13.128
470.46	11.763
470.66	12.988
470.86	12.254
471.06	12.668
471.26	11.842
471.46	12.748
471.66	12.023
471.86	12.829
472.06	12.576
472.26	12.986
472.46	12.833
472.66	12.411
472.86	12.156
473.06	12.193
473.26	12.515
473.46	13.125
473.66	12.319
473.86	12.727
474.06	12.046
474.26	12.964
474.46	12.498
474.66	12.770
474.86	12.082
475.06	12.993
475.26	12.177
475.46	12.933
475.66	12.100
475.86	12.867
476.06	12.327
476.26	12.925
476.46	12.159
476.66	12.424
476.86	12.390
477.06	12.715
477.26	11.836
477.46	12.494
477.65	12.294
477.85	12.856
478.05	12.078
478.25	12.538
478.45	12.323
478.65	12.968
478.85	12.181
479.05	13.012
479.25	12.453
479.45	13.052
479.65	12.714
479.85	13.072
480.05	12.308
480.25	13.289
480.45	12.638
480.65	12.676
480.85	12.896
481.05	12.997
481.25	12.470
481.44	12.427
481.64	12.567
481.84	12.582
482.04	12.833
482.24	12.584
482.44	12.650
482.64	12.799
482.84	12.572
483.04	12.709
483.24	12.368
483.44	12.395
483.64	12.437
483.84	12.404
484.04	12.596
484.23	12.526
484.43	12.697
484.63	12.944
484.83	12.992
485.03	13.617
485.23	13.569
485.43	13.541
485.63	13.163
485.83	13.333
486.03	13.234
486.23	13.474
486.42	13.300
486.62	13.367
486.82	13.164
487.02	13.067
487.22	13.033
487.42	13.032
487.62	12.957
487.82	12.911
488.02	12.803
488.22	12.952
488.41	12.945
488.61	12.812
488.81	12.691
489.01	13.207
489.21	13.166
489.41	13.031
489.61	12.939
489.81	13.468
490.01	13.364
490.20	13.350
490.40	13.250
490.60	13.277
490.80	13.177
491.00	13.239
491.20	13.205
491.40	12.921
491.60	12.784
491.79	13.006
491.99	12.785
492.19	13.004
492.39	12.992
492.59	13.133
492.79	13.235
492.99	13.084
493.19	13.113
493.38	13.308
493.58	13.396
493.78	13.678
493.98	13.540
494.18	13.343
494.38	13.455
494.58	13.550
494.77	13.187
494.97	13.425
495.17	13.262
495.37	13.751
495.57	13.009
495.77	13.586
495.96	13.407
496.16	13.370
496.36	13.186
496.56	13.426
496.76	13.022
496.96	13.269
497.15	12.713
497.35	13.325
497.55	13.301
497.75	13.649
497.95	13.150
498.15	13.427
498.34	13.634
498.54	13.303
498.74	13.889
498.94	13.473
499.14	13.594
499.34	13.707
499.53	13.527
499.73	13.833
499.93	13.496
500.13	13.859
500.33	13.681
500.52	13.507
500.72	13.473
500.92	13.993
501.12	13.906
501.32	13.696
501.52	13.554
501.71	13.846
501.91	13.420
502.11	14.286
502.31	13.427
502.51	14.029
502.70	13.819
502.90	14.257
503.10	13.440
503.30	14.126
503.50	13.578
503.69	13.568
503.89	13.589
504.09	13.925
504.29	13.656
504.48	14.096
504.68	13.817
504.88	14.058
505.08	13.724
505.28	13.984
505.47	13.977
505.67	14.071
505.87	13.776
506.07	14.019
506.27	13.673
506.46	14.413
506.66	13.729
506.86	13.657
507.06	13.972
507.25	13.964
507.45	13.704
507.65	14.108
507.85	13.624
508.04	13.788
508.24	13.605
508.44	13.715
508.64	13.678
508.83	13.538
509.03	13.524
509.23	14.000
509.43	13.468
509.63	13.719
509.82	13.438
510.02	14.165
510.22	13.878
510.42	13.795
510.61	13.699
510.81	13.967
511.01	13.670
511.21	13.938
511.40	13.891
511.60	14.112
511.80	13.786
511.99	13.965
512.19	13.586
512.39	13.860
512.59	13.515
512.78	13.924
512.98	13.932
513.18	14.071
513.38	13.870
513.57	13.508
513.77	13.539
513.97	13.926
514.17	13.821
514.36	13.946
514.56	13.433
514.76	14.111
514.95	13.614
515.15	14.119
515.35	13.884
515.55	13.813
515.74	13.690
515.94	14.108
516.14	13.724
516.33	14.004
516.53	13.553
516.73	13.774
516.93	14.049
517.12	14.039
517.32	13.325
517.52	14.227
517.71	13.821
517.91	13.824
518.11	13.675
518.30	13.708
518.50	13.852
518.70	13.755
518.90	13.495
519.09	13.762
519.29	13.732
519.49	13.907
519.68	13.425
519.88	13.842
520.08	13.613
520.27	14.042
520.47	13.884
520.67	13.941
520.86	13.922
521.06	14.127
521.26	13.689
521.45	13.988
521.65	13.704
521.85	14.175
522.04	14.146
522.24	14.235
522.44	13.658
522.63	13.803
522.83	13.600
523.03	14.021
523.22	13.670
523.42	14.180
523.62	14.175
523.81	13.784
524.01	13.858
524.21	13.902
524.40	13.611
524.60	14.147
524.80	14.098
524.99	13.986
525.19	13.693
525.39	13.852
525.58	13.894
525.78	13.609
525.98	13.830
526.17	13.849
526.37	13.950
526.57	13.971
526.76	13.719
526.96	13.696
527.15	13.749
527.35	13.943
527.55	14.088
527.74	14.068
527.94	13.843
528.14	13.937
528.33	13.735
528.53	13.544
528.72	13.836
528.92	13.759
529.12	13.695
529.31	13.852
529.51	14.078
529.71	14.178
529.90	14.153
530.10	14.234
530.29	14.147
530.49	14.513
530.69	14.322
530.88	14.682
531.08	14.290
531.28	14.347
531.47	14.438
531.67	14.140
531.86	14.074
532.06	14.160
532.26	14.032
532.45	14.121
532.65	14.070
532.84	13.657
533.04	13.863
533.24	14.069
533.43	13.673
533.63	14.082
533.82	14.127
534.02	14.153
534.22	14.029
534.41	14.267
534.61	14.330
534.80	14.093
535.00	14.172
535.19	14.321
535.39	14.372
535.59	14.330
535.78	14.246
535.98	14.395
536.17	14.080
536.37	14.214
536.57	14.015
536.76	14.202
536.96	14.238
537.15	14.432
537.35	14.000
537.54	14.480
537.74	14.349
537.93	14.526
538.13	14.285
538.33	14.571
538.52	14.322
538.72	14.444
538.91	14.757
539.11	14.959
539.30	14.389
539.50	14.564
539.70	14.499
539.89	14.554
540.09	14.451
540.28	14.559
540.48	14.658
540.67	14.078
540.87	14.258
541.06	14.358
541.26	14.108
541.45	14.283
541.65	14.231
541.85	14.415
542.04	14.503
542.24	14.489
542.43	14.501
542.63	14.751
542.82	14.789
543.02	14.773
543.21	14.716
543.41	15.201
543.60	15.031
543.80	14.996
543.99	14.954
544.19	15.071
544.38	15.161
544.58	14.862
544.77	15.119
544.97	14.901
545.16	14.955
545.36	15.135
545.56	15.132
545.75	14.926
545.95	14.534
546.14	15.084
546.34	14.973
546.53	14.699
546.73	14.822
546.92	14.817
547.12	14.880
547.31	15.270
547.51	14.995
547.70	15.226
547.90	15.095
548.09	14.981
548.29	15.121
548.48	15.417
548.68	15.312
548.87	15.623
549.07	15.460
549.26	15.342
549.46	15.510
549.65	15.758
549.84	15.630
550.04	15.410
550.23	15.920
550.43	15.886
550.62	15.648
550.82	15.202
551.01	15.380
551.21	15.589
551.40	15.131
551.60	15.946
551.79	15.271
551.99	16.570
552.18	15.449
552.38	15.620
552.57	15.692
552.77	15.680
552.96	15.839
553.16	15.724
553.35	16.080
553.54	16.188
553.74	15.950
553.93	16.214
554.13	16.307
554.32	16.582
554.52	16.351
554.71	16.307
554.91	16.220
555.10	16.751
555.29	16.073
555.49	16.539
555.68	16.509
555.88	16.868
556.07	16.399
556.27	16.666
556.46	16.408
556.66	16.626
556.85	17.098
557.04	17.228
557.24	16.830
557.43	16.934
557.63	16.878
557.82	16.986
558.02	16.674
558.21	17.499
558.40	16.461
558.60	17.061
558.79	17.789
558.99	17.136
559.18	16.791
559.38	17.633
559.57	17.872
559.76	18.226
559.96	18.173
560.15	18.118
560.35	17.171
560.54	18.172
560.73	17.554
560.93	18.103
561.12	17.843
561.32	17.864
561.51	17.906
561.70	18.666
561.90	17.987
562.09	18.689
562.29	18.363
562.48	18.440
562.67	18.750
562.87	18.270
563.06	18.604
563.26	18.627
563.45	18.630
563.64	19.041
563.84	18.881
564.03	19.138
564.23	18.399
564.42	19.227
564.61	18.891
564.81	18.664
565.00	18.876
565.20	19.393
565.39	19.352
565.58	19.545
565.78	18.994
565.97	19.372
566.16	19.731
566.36	19.298
566.55	19.559
566.74	19.723
566.94	19.849
567.13	19.979
567.33	19.662
567.52	19.634
567.71	19.704
567.91	19.633
568.10	20.337
568.29	20.095
568.49	20.039
568.68	20.677
568.87	19.851
569.07	20.537
569.26	20.601
569.45	20.323
569.65	20.570
569.84	20.602
570.04	20.191
570.23	20.878
570.42	20.530
570.62	20.423
570.81	20.615
571.00	21.036
571.20	20.627
571.39	21.117
571.58	20.897
571.78	20.384
571.97	20.611
572.16	20.926
572.36	21.624
572.55	21.085
572.74	21.156
572.94	20.986
573.13	21.486
573.32	21.532
573.51	21.290
573.71	21.314
573.90	21.213
574.09	21.214
574.29	21.466
574.48	21.507
574.67	21.271
574.87	21.436
575.06	21.464
575.25	21.000
575.45	21.848
575.64	21.317
575.83	21.473
576.03	21.913
576.22	22.302
576.41	21.609
576.60	21.783
576.80	21.572
576.99	22.356
577.18	22.039
577.38	22.111
577.57	22.139
577.76	21.944
577.95	22.284
578.15	21.197
578.34	22.501
578.53	21.756
578.73	21.654
578.92	21.971
579.11	22.189
579.30	22.197
579.50	22.201
579.69	21.846
579.88	21.740
580.08	21.930
580.27	22.011
580.46	21.790
580.65	21.723
580.85	22.345
581.04	22.148
581.23	22.073
581.42	22.453
581.62	21.907
581.81	22.115
582.00	21.879
582.19	22.058
582.39	21.714
582.58	22.562
582.77	21.991
582.96	21.607
583.16	21.526
583.35	22.247
583.54	21.937
583.73	21.416
583.93	21.611
584.12	21.737
584.31	22.400
584.50	20.856
584.70	21.244
584.89	22.234
585.08	21.548
585.27	22.295
585.47	21.379
585.66	21.937
585.85	21.096
586.04	21.452
586.24	21.728
586.43	21.788
586.62	21.915
586.81	21.317
587.00	21.786
587.20	21.516
587.39	21.818
587.58	21.996
587.77	21.402
587.97	21.312
588.16	21.629
588.35	21.658
588.54	21.189
588.73	20.929
588.93	21.781
589.12	21.282
589.31	21.431
589.50	21.210
589.69	21.311
589.89	21.559
590.08	21.839
590.27	21.520
590.46	21.384
590.65	21.442
590.85	21.054
591.04	21.939
591.23	21.719
591.42	21.794
591.61	21.472
591.81	21.750
592.00	21.018
592.19	21.642
592.38	21.127
592.57	21.786
592.77	21.222
592.96	22.125
593.15	22.487
593.34	21.830
593.53	21.693
593.72	21.283
593.92	21.931
594.11	22.367
594.30	21.574
594.49	21.895
594.68	21.482
594.87	21.586
595.07	21.117
595.26	21.817
595.45	21.671
595.64	21.696
595.83	21.341
596.02	21.689
596.22	21.721
596.41	21.940
596.60	21.540
596.79	22.148
596.98	22.432
597.17	22.396
597.37	22.389
597.56	22.492
597.75	22.218
597.94	22.551
598.13	22.159
598.32	22.424
598.51	22.346
598.71	22.944
598.90	22.525
599.09	22.625
599.28	22.611
599.47	23.165
599.66	22.713
599.85	23.284
600.05	22.635
600.24	23.395
600.43	21.515
600.62	22.931
600.81	22.449
601.00	23.122
601.19	22.369
601.38	23.647
601.58	23.261
601.77	23.072
601.96	22.527
602.15	23.511
602.34	22.609
602.53	23.344
602.72	22.875
602.91	23.450
603.10	23.619
603.30	23.664
603.49	22.458
603.68	22.930
603.87	22.831
604.06	23.891
604.25	24.062
604.44	23.524
604.63	23.042
604.82	22.958
605.01	23.241
605.21	23.367
605.40	23.281
605.59	23.700
605.78	23.251
605.97	23.166
606.16	23.416
606.35	23.584
606.54	23.710
606.73	23.284
606.92	24.039
607.11	23.887
607.30	23.381
607.50	23.803
607.69	22.404
607.88	22.773
608.07	23.011
608.26	23.958
608.45	23.070
608.64	22.922
608.83	22.615
609.02	23.268
609.21	22.616
609.40	22.626
609.59	22.865
609.78	23.014
609.97	22.006
610.16	22.707
610.35	22.925
610.55	23.024
610.74	22.387
610.93	22.678
611.12	21.964
611.31	22.948
611.50	22.761
611.69	23.147
611.88	21.994
612.07	23.115
612.26	21.516
612.45	23.099
612.64	22.138
612.83	22.383
613.02	21.572
613.21	22.077
613.40	21.279
613.59	21.948
613.78	21.607
613.97	22.024
614.16	21.101
614.35	21.889
614.54	21.389
614.73	21.881
614.92	21.789
615.11	20.800
615.30	20.273
615.49	21.606
615.68	20.705
615.87	20.963
616.07	21.636
616.26	22.073
616.45	21.060
616.64	21.751
616.83	20.402
617.02	21.500
617.21	19.730
617.40	21.451
617.59	21.658
617.78	21.009
617.97	20.423
618.16	20.448
618.35	20.295
618.54	21.505
618.73	20.325
618.92	20.952
619.11	20.276
619.30	21.430
619.49	20.553
619.68	20.444
619.86	20.225
620.05	21.040
620.24	20.352
620.43	20.233
620.62	19.717
620.81	20.462
621.00	19.719
621.19	21.402
621.38	20.192
621.57	20.684
621.76	19.504
621.95	20.621
622.14	19.967
622.33	21.123
622.52	18.855
622.71	20.422
622.90	19.803
623.09	20.426
623.28	19.439
623.47	20.957
623.66	19.224
623.85	20.182
624.04	19.472
624.23	19.736
624.42	20.873
624.61	19.866
624.80	19.258
624.99	20.448
625.18	18.969
625.36	19.680
625.55	19.134
625.74	19.305
625.93	19.448
626.12	19.723
626.31	19.411
626.50	20.467
626.69	19.601
626.88	20.424
627.07	19.490
627.26	20.231
627.45	19.716
627.64	19.655
627.83	19.197
628.02	20.188
628.20	20.211
628.39	20.095
628.58	19.713
628.77	20.341
628.96	19.122
629.15	19.542
629.34	19.548
629.53	20.070
629.72	19.465
629.91	19.106
630.10	19.349
630.29	19.035
630.47	18.779
630.66	18.829
630.85	19.161
631.04	18.408
631.23	18.848
631.42	19.140
631.61	18.418
631.80	19.201
631.99	17.956
632.18	19.322
632.36	18.581
632.55	18.633
632.74	17.872
632.93	18.842
633.12	19.145
633.31	18.289
633.50	19.204
633.69	19.168
633.88	18.146
634.06	18.867
634.25	17.684
634.44	19.413
634.63	18.453
634.82	19.023
635.01	18.588
635.20	18.803
635.39	18.460
635.57	19.064
635.76	17.809
635.95	17.868
636.14	18.466
636.33	18.289
636.52	18.412
636.71	18.857
636.89	18.970
637.08	18.623
637.27	18.028
637.46	18.504
637.65	18.289
637.84	19.055
638.03	18.077
638.21	19.152
638.40	18.482
638.59	18.315
638.78	17.844
638.97	18.652
639.16	18.529
639.34	18.531
639.53	17.328
639.72	19.096
639.91	17.861
640.10	17.942
640.29	19.264
640.47	18.997
640.66	18.132
640.85	19.385
641.04	17.022
641.23	18.912
641.42	18.175
641.60	19.104
641.79	18.067
641.98	18.038
642.17	17.882
642.36	17.787
642.54	17.627
642.73	17.628
642.92	17.301
643.11	17.565
643.30	17.332
643.49	18.897
643.67	16.230
643.86	18.361
644.05	17.082
644.24	18.130
644.43	17.667
644.61	17.924
644.80	16.897
644.99	17.663
645.18	18.387
645.37	17.908
645.55	17.645
645.74	16.880
645.93	17.351
646.12	17.259
646.31	17.084
646.49	17.611
646.68	17.139
646.87	17.253
647.06	17.735
647.24	17.598
647.43	16.867
647.62	18.049
647.81	15.694
648.00	17.830
648.18	16.438
648.37	17.754
648.56	17.374
648.75	16.511
648.93	17.080
649.12	16.861
649.31	16.707
649.50	17.398
649.68	16.794
649.87	17.498
650.06	15.557
650.25	17.603
650.43	16.299
650.62	17.494
650.81	17.307
651.00	18.219
651.18	17.490
651.37	16.887
651.56	15.468
651.75	19.060
651.93	16.576
652.12	18.408
652.31	16.200
652.50	18.035
652.68	16.324
652.87	18.561
653.06	17.024
653.25	18.220
653.43	16.657
653.62	16.365
653.81	16.909
654.00	17.967
654.18	16.222
654.37	17.362
654.56	15.956
654.74	16.087
654.93	16.138
655.12	18.195
655.31	16.058
655.49	18.328
655.68	15.291
655.87	16.238
656.05	14.852
656.24	16.019
656.43	14.443
656.62	15.714
656.80	16.660
656.99	15.139
657.18	14.905
657.36	16.236
657.55	16.268
657.74	15.364
657.93	16.592
658.11	17.026
658.30	16.059
658.49	16.125
658.67	15.586
658.86	16.379
659.05	15.084
659.23	15.423
659.42	15.266
659.61	15.871
659.79	14.909
659.98	15.410
660.17	15.972
660.35	16.113
660.54	16.206
660.73	16.772
660.91	15.641
661.10	16.270
661.29	14.893
661.47	15.337
661.66	15.251
661.85	15.129
662.03	16.266
662.22	14.815
662.41	13.305
662.59	14.074
662.78	13.550
662.97	14.159
663.15	13.937
663.34	12.947
663.53	13.048
663.71	14.275
663.90	13.809
664.09	15.050
664.27	13.129
664.46	13.043
664.65	13.402
664.83	13.720
665.02	12.568
665.21	12.725
665.39	11.511
665.58	13.271
665.77	12.527
665.95	13.594
666.14	12.487
666.32	12.692
666.51	11.811
666.70	12.647
666.88	11.513
667.07	13.071
667.26	11.817
667.44	12.437
667.63	13.042
667.81	12.123
668.00	11.797
668.19	14.183
668.37	12.734
668.56	13.619
668.75	12.201
668.93	14.612
669.12	10.863
669.30	13.217
669.49	12.753
669.68	14.261
669.86	13.125
670.05	12.557
670.23	12.714
670.42	13.755
670.61	13.472
670.79	13.679
670.98	13.418
671.16	14.054
671.35	11.858
671.54	13.099
671.72	12.955
671.91	13.138
672.09	12.849
672.28	14.730
672.46	14.241
672.65	14.315
672.84	14.125
673.02	13.930
673.21	12.923
673.39	13.512
673.58	14.062
673.77	13.910
673.95	14.316
674.14	16.466
674.32	12.466
674.51	15.666
674.69	13.440
674.88	14.721
675.07	13.577
675.25	17.546
675.44	14.048
675.62	15.147
675.81	13.284
675.99	18.115
676.18	15.966
676.36	15.148
676.55	14.010
676.74	15.944
676.92	16.006
677.11	16.700
677.29	15.271
677.48	16.606
677.66	16.002
677.85	16.164
678.03	15.778
678.22	17.799
678.40	16.311
678.59	15.472
678.78	13.654
678.96	16.449
679.15	14.261
679.33	17.219
679.52	16.056
679.70	16.652
679.89	15.638
680.07	16.717
680.26	15.274
680.44	16.894
680.63	15.898
680.81	16.562
681.00	15.451
681.18	16.363
681.37	15.330
681.55	17.858
681.74	17.404
681.92	17.492
682.11	16.761
682.29	16.719
682.48	16.258
682.66	18.079
682.85	16.878
683.03	18.249
683.22	17.220
683.40	18.096
683.59	17.889
683.77	18.101
683.96	15.408
684.14	19.582
684.33	16.020
684.51	19.577
684.70	17.097
684.88	19.614
685.07	18.841
685.25	19.077
685.44	17.914
685.62	19.666
685.81	16.527
685.99	20.746
686.18	17.017
686.36	19.997
686.55	17.783
686.73	19.462
686.92	19.815
687.10	20.513
687.29	20.973
687.47	20.582
687.65	20.367
687.84	20.161
688.02	21.740
688.21	22.240
688.39	19.990
688.58	22.233
688.76	20.632
688.95	22.505
689.13	19.859
689.32	23.551
689.50	21.059
689.68	23.149
689.87	22.170
690.05	24.441
690.24	24.034
690.42	24.074
690.61	22.982
690.79	24.510
690.98	24.468
691.16	26.234
691.34	21.855
691.53	25.550
691.71	24.185
691.90	26.147
692.08	22.772
692.27	27.481
692.45	27.356
692.63	27.499
692.82	29.558
693.00	27.548
693.19	25.612
693.37	29.441
693.56	27.342
693.74	30.368
693.92	28.741
694.11	30.747
694.29	31.332
694.48	31.738
694.66	30.364
694.84	33.196
695.03	30.451
695.21	33.810
695.40	34.302
695.58	35.341
695.76	32.747
695.95	34.518
696.13	35.282
696.32	35.931
696.50	37.003
696.68	38.306
696.87	35.381
697.05	38.796
697.24	37.979
697.42	38.597
697.60	38.758
697.79	40.161
697.97	40.294
698.16	39.554
698.34	38.173
698.52	39.269
698.71	40.667
698.89	41.030
699.07	41.061
699.26	41.446
699.44	42.000
699.63	41.999
699.81	42.789
699.99	43.429
700.18	42.562
700.36	42.781
700.54	44.366
700.73	44.139
700.91	43.854
701.09	44.325
701.28	45.984
701.46	44.843
701.64	45.270
701.83	45.921
702.01	47.776
702.20	48.280
702.38	47.015
702.56	48.922
702.75	46.838
702.93	49.886
703.11	49.296
703.30	51.762
703.48	51.969
703.66	51.089
703.85	51.389
704.03	53.532
704.21	49.294
704.40	53.106
704.58	50.545
704.76	54.867
704.95	53.809
705.13	55.135
705.31	53.240
705.50	54.821
705.68	52.488
705.86	55.437
706.04	54.045
706.23	55.969
706.41	56.100
706.59	54.832
706.78	54.586
706.96	56.989
707.14	55.447
707.33	56.481
707.51	56.734
707.69	56.300
707.88	56.162
708.06	58.934
708.24	56.517
708.42	56.627
708.61	57.599
708.79	58.167
708.97	59.918
709.16	59.742
709.34	60.915
709.52	58.499
709.71	60.913
709.89	59.244
710.07	57.288
710.25	60.175
710.44	59.903
710.62	59.727
710.80	59.067
710.98	58.748
711.17	56.661
711.35	61.040
711.53	59.432
711.72	62.857
711.90	59.379
712.08	61.816
712.26	60.250
712.45	61.213
712.63	60.683
712.81	59.708
712.99	60.331
713.18	61.060
713.36	61.158
713.54	60.388
713.72	60.114
713.91	61.801
714.09	61.949
714.27	61.778
714.45	61.283
714.64	62.610
714.82	63.960
715.00	63.703
715.18	62.651
715.37	62.869
715.55	61.856
715.73	60.866
715.91	62.379
716.10	63.441
716.28	61.860
716.46	60.676
716.64	60.615
716.83	61.878
717.01	60.755
717.19	64.314
717.37	61.511
717.55	63.190
717.74	63.132
717.92	63.682
718.10	60.981
718.28	64.470
718.47	63.215
718.65	64.226
718.83	63.559
719.01	63.346
719.19	63.663
719.38	65.150
719.56	63.354
719.74	65.712
719.92	58.808
720.10	66.974
720.29	63.213
720.47	63.871
720.65	66.318
720.83	65.701
721.01	63.071
721.20	64.204
721.38	64.064
721.56	64.949
721.74	67.163
721.92	65.311
722.11	63.680
722.29	65.964
722.47	67.586
722.65	68.849
722.83	64.372
723.01	67.919
723.20	64.801
723.38	68.084
723.56	67.844
723.74	64.929
723.92	64.564
724.10	66.698
724.29	63.593
724.47	69.224
724.65	67.536
724.83	68.027
725.01	66.713
725.19	69.193
725.38	63.890
725.56	66.209
725.74	66.990
725.92	66.819
726.10	66.418
726.28	67.896
726.46	67.761
726.65	68.159
726.83	66.802
727.01	68.977
727.19	66.359
727.37	67.509
727.55	66.968
727.73	68.109
727.92	66.754
728.10	66.709
728.28	65.218
728.46	67.991
728.64	65.458
728.82	68.769
729.00	66.561
729.19	67.312
729.37	66.188
729.55	67.646
729.73	64.488
729.91	68.493
730.09	66.667
730.27	67.496
730.45	67.088
730.63	68.922
730.82	67.153
731.00	67.494
731.18	65.876
731.36	69.304
731.54	67.383
731.72	67.641
731.90	67.521
732.08	67.532
732.26	69.816
732.45	68.838
732.63	68.214
732.81	70.195
732.99	66.522
733.17	69.605
733.35	69.479
733.53	67.157
733.71	67.046
733.89	72.312
734.07	66.267
734.25	70.224
734.44	69.620
734.62	69.595
734.80	68.258
734.98	72.442
735.16	72.705
735.34	68.997
735.52	70.728
735.70	72.184
735.88	68.501
736.06	72.763
736.24	72.053
736.42	72.524
736.60	73.889
736.78	74.210
736.97	72.761
737.15	73.288
737.33	70.856
737.51	67.538
737.69	72.019
737.87	71.211
738.05	72.903
738.23	72.232
738.41	73.214
738.59	74.449
738.77	71.944
738.95	75.335
739.13	71.385
739.31	71.179
739.49	74.254
739.67	74.833
739.85	71.829
740.03	72.432
740.21	71.277
740.39	75.284
740.57	73.829
740.75	73.139
740.93	73.566
741.11	73.034
741.30	73.220
741.48	73.497
741.66	75.233
741.84	72.680
742.02	72.124
742.20	75.129
742.38	70.334
742.56	73.398
742.74	73.435
742.92	75.219
743.10	73.310
743.28	70.148
743.46	71.022
743.64	73.592
743.82	73.004
744.00	75.423
744.18	75.047
744.36	76.788
744.54	76.589
744.72	77.662
744.90	73.196
745.08	74.389
745.26	74.817
745.44	76.882
745.62	76.061
745.80	75.740
745.98	73.805
746.16	79.541
746.34	69.741
746.52	78.067
746.70	73.536
746.87	76.015
747.05	75.083
747.23	76.580
747.41	73.296
747.59	76.215
747.77	75.307
747.95	74.431
748.13	78.332
748.31	77.620
748.49	71.259
748.67	74.357
748.85	75.121
749.03	75.666
749.21	72.850
749.39	77.456
749.57	71.159
749.75	71.822
749.93	72.603
750.11	76.625
750.29	74.631
750.47	76.230
750.65	73.445
750.83	76.036
751.01	71.532
751.18	73.660
751.36	70.712
751.54	76.390
751.72	70.134
751.90	75.177
752.08	71.343
752.26	74.491
752.44	72.724
752.62	72.599
752.80	74.706
752.98	77.228
753.16	71.979
753.34	74.380
753.52	76.238
753.69	73.266
753.87	72.114
754.05	77.495
754.23	72.870
754.41	74.961
754.59	71.971
754.77	75.666
754.95	72.669
755.13	74.030
755.31	73.867
755.49	75.509
755.66	74.025
755.84	75.587
756.02	77.021
756.20	73.908
756.38	72.281
756.56	70.541
756.74	72.340
756.92	71.973
757.10	71.554
757.28	74.239
757.45	75.194
757.63	71.451
757.81	73.990
757.99	73.329
758.17	72.074
758.35	76.040
758.53	71.003
758.71	70.854
758.88	73.433
759.06	70.900
759.24	66.573
759.42	71.042
759.60	69.579
759.78	71.429
759.96	69.354
760.13	71.310
760.31	63.642
760.49	65.793
760.67	60.411
760.85	65.143
761.03	63.803
761.21	64.746
761.38	65.150
761.56	68.204
761.74	62.535
761.92	68.258
762.10	61.702
762.28	66.494
762.46	59.916
762.63	66.802
762.81	63.433
762.99	63.612
763.17	61.887
763.35	64.826
763.53	66.256
763.70	65.801
763.88	63.806
764.06	64.192
764.24	63.846
764.42	67.666
764.60	65.130
764.77	66.048
764.95	62.253
765.13	65.431
765.31	66.433
765.49	66.293
765.66	63.411
765.84	67.556
766.02	67.322
766.20	66.822
766.38	64.636
766.56	69.571
766.73	66.816
766.91	67.864
767.09	67.911
767.27	67.683
767.45	67.110
767.62	67.801
767.80	65.844
767.98	71.464
768.16	70.923
768.33	73.412
768.51	69.118
768.69	71.251
768.87	70.042
769.05	71.764
769.22	67.635
769.40	78.058
769.58	67.635
769.76	71.668
769.94	70.040
770.11	72.591
770.29	74.235
770.47	73.815
770.65	71.737
770.82	76.713
771.00	68.417
771.18	74.012
771.36	69.846
771.53	74.281
771.71	67.563
771.89	77.450
772.07	73.938
772.25	76.375
772.42	70.298
772.60	71.422
772.78	72.582
772.96	73.641
773.13	74.041
773.31	68.789
773.49	73.619
773.67	74.965
773.84	69.340
774.02	76.322
774.20	74.563
774.37	74.736
774.55	73.038
774.73	74.364
774.91	75.749
775.08	75.121
775.26	77.444
775.44	75.167
775.62	71.705
775.79	74.375
775.97	73.119
776.15	76.141
776.32	71.470
776.50	79.757
776.68	77.446
776.86	75.220
777.03	70.110
777.21	77.806
777.39	73.960
777.56	74.511
777.74	72.378
777.92	73.733
778.10	74.135
778.27	77.709
778.45	74.773
778.63	76.587
778.80	72.561
778.98	72.995
779.16	73.898
779.34	77.535
779.51	69.852
779.69	71.832
779.87	68.841
780.04	72.142
780.22	67.391
780.40	76.400
780.57	69.049
780.75	72.353
780.93	77.986
781.10	75.122
781.28	80.386
781.46	70.306
781.63	70.074
781.81	78.031
781.99	69.748
782.16	74.781
782.34	67.262
782.52	66.401
782.69	75.455
782.87	76.775
783.05	67.950
783.22	75.329
783.40	69.021
783.58	74.421
783.75	70.354
783.93	76.493
784.11	67.960
784.28	72.722
784.46	67.742
784.64	76.009
784.81	67.635
784.99	71.490
785.17	70.225
785.34	65.769
785.52	69.709
785.69	69.316
785.87	67.953
786.05	71.858
786.22	69.875
786.40	74.128
786.58	70.107
786.75	77.330
786.93	70.799
787.11	77.897
787.28	67.798
787.46	78.559
787.63	73.479
787.81	72.727
787.99	69.049
788.16	69.563
788.34	67.194
788.51	70.895
788.69	70.260
788.87	66.306
789.04	62.992
789.22	71.300
789.39	63.911
789.57	66.731
789.75	68.981
789.92	69.791
790.10	66.445
790.27	69.004
790.45	70.389
790.63	67.654
790.80	66.545
790.98	67.399
791.15	64.290
791.33	70.317
791.51	64.588
791.68	66.790
791.86	70.683
792.03	74.157
792.21	66.400
792.39	73.005
792.56	64.959
792.74	70.716
792.91	67.442
793.09	69.597
793.26	68.261
793.44	69.628
793.62	65.190
793.79	73.362
793.97	66.028
794.14	66.396
794.32	64.326
794.49	78.135
794.67	67.690
794.84	67.755
795.02	61.928
795.20	69.018
795.37	65.095
795.55	65.358
795.72	67.002
795.90	69.684
796.07	65.493
796.25	64.934
796.42	65.197
796.60	66.150
796.77	64.338
796.95	69.295
797.13	65.317
797.30	67.492
797.48	60.541
797.65	71.116
797.83	65.099
798.00	67.859
798.18	57.572
798.35	68.090
798.53	62.852
798.70	72.216
798.88	63.046
799.05	66.386
799.23	61.791
799.40	68.993
799.58	65.416
799.75	65.895
799.93	65.170
800.10	66.936
800.28	66.482
800.45	67.094
800.63	60.566
800.80	68.223
800.98	62.571
801.15	71.152
801.33	61.024
801.50	69.907
801.68	62.915
801.85	67.108
802.03	69.537
802.20	65.707
802.38	59.254
802.55	68.776
802.73	63.501
802.90	66.623
803.08	61.396
803.25	66.209
803.43	66.770
803.60	63.978
803.78	66.912
803.95	68.609
804.13	65.801
804.30	67.542
804.48	58.700
804.65	70.584
804.83	64.271
805.00	66.393
805.17	62.344
805.35	64.101
805.52	56.481
805.70	70.040
805.87	65.025
806.05	71.047
806.22	65.939
806.40	64.595
806.57	66.316
806.75	65.915
806.92	65.269
807.09	73.038
807.27	69.431
807.44	71.302
807.62	63.327
807.79	58.641
807.97	64.425
808.14	70.188
808.31	63.336
808.49	60.043
808.66	67.388
808.84	56.429
809.01	62.199
809.19	66.883
809.36	75.099
809.53	61.533
809.71	64.030
809.88	71.482
810.06	72.307
810.23	72.940
810.41	67.606
810.58	71.493
810.75	63.609
810.93	66.147
811.10	60.205
811.28	63.178
811.45	67.607
811.62	62.943
811.80	61.388
811.97	66.176
812.15	67.413
812.32	64.955
812.49	67.944
812.67	63.556
812.84	64.943
813.02	71.261
813.19	52.704
813.36	67.753
813.54	55.186
813.71	68.786
813.89	59.906
814.06	64.252
814.23	58.361
814.41	60.362
814.58	57.201
814.75	64.022
814.93	63.030
815.10	63.600
815.28	44.808
815.45	49.479
815.62	62.510
815.80	49.518
815.97	56.162
816.14	63.057
816.32	62.127
816.49	53.723
816.66	52.755
816.84	58.314
817.01	58.727
817.18	54.337
817.36	57.630
817.53	62.648
817.71	48.988
817.88	59.069
818.05	53.995
818.23	61.436
818.40	45.000
818.57	51.468
818.75	48.286
818.92	60.278
819.09	55.880
819.27	57.196
819.44	49.850
819.61	56.032
819.79	54.146
819.96	60.451
820.13	50.833
820.31	62.792
820.48	59.867
820.65	58.087
820.82	56.524
821.00	58.088
821.17	54.825
821.34	60.989
821.52	60.419
821.69	59.144
821.86	59.084
822.04	62.446
822.21	61.218
822.38	62.720
822.56	61.634
822.73	62.637
822.90	61.395
823.07	62.225
823.25	62.775
823.42	62.597
823.59	60.716
823.77	61.520
823.94	61.087
824.11	62.282
824.29	64.637
824.46	63.019
824.63	64.458
824.80	64.227
824.98	61.551
825.15	63.193
825.32	61.835
825.49	64.387
825.67	61.666
825.84	66.582
826.01	62.891
826.19	62.837
826.36	61.922
826.53	62.165
826.70	60.803
826.88	64.939
827.05	60.552
827.22	64.686
827.39	61.308
827.57	60.413
827.74	60.820
827.91	66.025
828.08	58.122
828.26	64.840
828.43	61.111
828.60	63.249
828.77	59.622
828.95	64.032
829.12	59.394
829.29	57.344
829.46	59.807
829.64	57.903
829.81	55.848
829.98	62.794
830.15	57.223
830.32	56.312
830.50	51.396
830.67	56.365
830.84	56.529
831.01	55.477
831.19	50.205
831.36	56.042
831.53	55.136
831.70	63.119
831.87	52.643
832.05	56.090
832.22	54.989
832.39	50.538
832.56	44.310
832.74	57.506
832.91	52.012
833.08	60.145
833.25	47.093
833.42	54.167
833.60	50.426
833.77	52.097
833.94	54.037
834.11	57.585
834.28	55.601
834.45	56.990
834.63	52.326
834.80	61.483
834.97	58.890
835.14	61.558
835.31	58.194
835.49	57.991
835.66	58.913
835.83	55.732
836.00	53.476
836.17	57.077
836.34	53.736
836.52	61.010
836.69	54.799
836.86	60.549
837.03	56.694
837.20	52.755
837.37	51.787
837.55	50.742
837.72	51.443
837.89	56.525
838.06	58.279
838.23	58.417
838.40	51.613
838.58	51.169
838.75	52.170
838.92	65.704
839.09	63.758
839.26	58.243
839.43	61.677
839.60	56.330
839.78	71.069
839.95	63.490
840.12	58.977
840.29	63.270
840.46	58.992
840.63	66.773
840.80	54.663
840.98	64.110
841.15	59.960
841.32	58.545
841.49	51.176
841.66	61.128
841.83	58.955
842.00	58.934
842.17	52.207
842.34	53.134
842.52	63.941
842.69	62.386
842.86	67.038
843.03	73.608
843.20	56.722
843.37	60.766
843.54	67.813
843.71	62.996
843.88	72.222
844.06	66.250
844.23	66.809
844.40	63.318
844.57	62.725
844.74	58.744
844.91	66.831
845.08	71.405
845.25	72.667
845.42	76.117
845.59	64.334
845.76	77.939
845.94	72.943
846.11	70.697
846.28	79.959
846.45	82.540
846.62	80.084
846.79	63.398
846.96	74.951
847.13	70.294
847.30	79.354
847.47	72.920
847.64	57.905
847.81	64.634
847.98	73.786
848.15	81.735
848.32	86.264
848.50	71.881
848.67	66.809
848.84	78.300
849.01	71.242
849.18	65.859
849.35	101.923
849.52	78.220
849.69	70.065
849.86	74.679
850.03	68.707
850.20	84.959
850.37	54.653
850.54	79.762
850.71	79.840
850.88	78.218
851.05	74.419
851.22	82.097
851.39	85.802
851.56	75.340
851.73	78.439
851.90	82.916
852.07	64.466
852.24	74.526
852.41	71.838
852.58	82.472
852.75	76.905
852.92	76.697
853.09	81.336
853.26	100.000
853.43	73.933
853.60	86.111
853.77	98.082
853.94	74.883
854.11	86.681
854.28	104.513
854.45	58.295
854.62	78.815
854.79	97.345
854.96	81.425
855.13	68.640
855.30	101.053
855.47	81.564
855.64	87.585
855.81	76.591
855.98	92.368
856.15	80.100
856.32	62.760
856.49	88.858
856.66	84.828
856.83	91.990
857.00	76.818
857.17	89.855
857.34	68.374
857.51	68.148
857.68	91.584
857.85	73.360
858.02	84.677
858.19	80.045
858.36	62.771
858.53	79.369
858.70	82.126
858.87	102.736
859.04	61.653
859.21	82.338
859.38	94.209
859.55	96.180
859.72	73.563
859.89	88.579
860.05	96.984
860.22	92.476
860.39	80.214
860.56	68.172
860.73	88.406
860.90	73.457
861.07	86.270
861.24	86.305
861.41	97.581
861.58	55.639
861.75	84.350
861.92	84.783
862.09	79.691
862.26	82.075
862.43	96.791
862.59	72.966
862.76	81.796
862.93	127.467
863.10	76.847
863.27	79.420
863.44	87.179
863.61	80.371
863.78	68.585
863.95	79.392
864.12	86.638
864.29	87.227
864.45	59.362
864.62	73.836
864.79	75.806
864.96	73.733
865.13	67.391
865.30	65.361
865.47	83.550
865.64	87.538
865.81	87.430
865.97	73.182
866.14	81.967
866.31	84.110
866.48	77.586
866.65	80.535
866.82	88.943
866.99	91.546
867.16	49.048
867.33	75.616
867.49	76.485
867.66	74.743
867.83	76.271
868.00	68.901
868.17	71.744
868.34	93.883
868.51	74.815
868.67	94.924
868.84	81.839
869.01	102.609
869.18	59.490
869.35	102.976
869.52	69.606
869.69	92.683
869.85	102.065
870.02	65.974
870.19	83.902
870.36	77.251
870.53	84.146
870.70	61.347
870.86	66.753
871.03	81.390
871.20	75.000
871.37	93.612
871.54	87.632
871.71	66.504
871.87	90.544
872.04	77.966
872.21	61.875
872.38	96.277
872.55	95.388
872.72	75.000
872.88	110.177
873.05	73.378
873.22	71.807
873.39	64.603
873.56	78.856
873.72	78.082
873.89	67.003
874.06	85.340
874.23	103.134
874.40	67.005
874.56	90.129
874.73	71.812
874.90	79.009
875.07	78.701
875.24	76.484
875.40	64.286
875.57	76.850
875.74	74.483
875.91	74.561
876.08	81.069
876.24	88.995
876.41	77.124
876.58	83.733
876.75	77.839
876.92	79.790
877.08	79.722
877.25	61.751
877.42	73.276
877.59	76.524
877.75	79.614
877.92	77.350
878.09	78.465
878.26	91.371
878.42	69.897
878.59	98.025
878.76	61.951
878.93	84.322
879.09	50.567
879.26	64.107
879.43	71.625
879.60	72.111
879.76	67.634
879.93	65.268
880.10	51.638
880.27	57.570
880.43	59.100
880.60	59.758
880.77	60.526
880.94	54.820
881.10	47.706
881.27	46.587
881.44	37.511
881.61	43.312
881.77	49.263
881.94	45.787
882.11	44.456
882.28	45.618
882.44	45.005
882.61	51.599
882.78	52.753
882.94	56.610
883.11	53.147
883.28	55.818
883.45	54.017
883.61	53.986
883.78	51.097
883.95	54.615
884.11	52.042
884.28	56.549
>>>>>End Processed Spectral Data<<<<<
