SpectraSuite Data File
++++++++++++++++++++++++++++++++++++
Date: Thu Sep 26 03:38:50 EST 2019
User: sgrac
Dark Spectrum Present: Yes
Reference Spectrum Present: Yes
Number of Sampled Component Spectra: 1
Spectrometers: USB4E01596
Integration Time (usec): 100000 (USB4E01596)
Spectra Averaged: 3 (USB4E01596)
Boxcar Smoothing: 0 (USB4E01596)
Correct for Electrical Dark: No (USB4E01596)
Strobe/Lamp Enabled: Yes (USB4E01596)
Correct for Detector Non-linearity: No (USB4E01596)
Correct for Stray Light: No (USB4E01596)
Number of Pixels in Processed Spectrum: 3648
>>>>>Begin Processed Spectral Data<<<<<
178.44	-862.500
178.66	-862.500
178.87	-862.500
179.09	-434.694
179.30	-138.095
179.52	-959.091
179.74	-708.333
179.95	-1469.231
180.17	272.289
180.38	1550.000
180.60	523.214
180.82	277.108
181.03	341.667
181.25	263.462
181.46	-761.290
181.68	350.000
181.89	1306.667
182.11	-1538.889
182.33	316.505
182.54	362.069
182.76	419.643
182.97	881.481
183.19	196.273
183.40	315.534
183.62	2337.500
183.84	220.652
184.05	2191.667
184.27	288.660
184.48	-544.444
184.70	1471.429
184.91	317.000
185.13	1773.333
185.34	632.432
185.56	1930.000
185.78	314.433
185.99	353.247
186.21	680.000
186.42	1246.667
186.64	1109.524
186.85	229.592
187.07	458.571
187.28	422.807
187.50	1334.783
187.72	1611.111
187.93	619.149
188.15	550.943
188.36	965.625
188.58	5700.000
188.79	565.000
189.01	3250.000
189.22	293.750
189.44	1216.667
189.65	2288.889
189.87	783.784
190.09	812.903
190.30	384.127
190.52	-18500.000
190.73	-17900.000
190.95	1133.333
191.16	252.294
191.38	250.000
191.59	923.529
191.81	413.793
192.02	1070.000
192.24	301.370
192.45	293.684
192.67	638.298
192.88	397.436
193.10	256.977
193.31	307.865
193.53	1217.647
193.74	259.756
193.96	417.500
194.18	1184.211
194.39	235.652
194.61	2700.000
194.82	385.135
195.04	217.143
195.25	241.406
195.47	587.500
195.68	288.608
195.90	1115.000
196.11	285.000
196.33	961.538
196.54	414.286
196.76	850.000
196.97	1190.909
197.19	602.778
197.40	-568.889
197.62	360.000
197.83	210.924
198.05	549.057
198.26	405.634
198.48	2016.667
198.69	0.000
198.91	2577.778
199.12	505.556
199.34	447.826
199.55	243.243
199.77	291.954
199.98	8366.667
200.20	334.848
200.41	249.533
200.63	1119.048
200.84	480.435
201.06	262.931
201.27	776.190
201.49	1280.000
201.70	-1328.571
201.91	280.851
202.13	764.103
202.34	-333.333
202.56	687.879
202.77	1930.000
202.99	670.588
203.20	431.148
203.42	496.364
203.63	339.560
203.85	203.650
204.06	571.053
204.28	301.190
204.49	958.824
204.71	291.549
204.92	-10400.000
205.14	810.714
205.35	311.594
205.56	975.000
205.78	503.390
205.99	552.830
206.21	256.481
206.42	315.909
206.64	746.875
206.85	226.190
207.07	203.200
207.28	210.256
207.50	530.303
207.71	1142.857
207.93	-647.222
208.14	-2072.727
208.35	660.000
208.57	247.778
208.78	466.000
209.00	578.947
209.21	4650.000
209.43	277.885
209.64	646.875
209.86	4120.000
210.07	626.829
210.28	-573.684
210.50	5366.667
210.71	806.667
210.93	178.448
211.14	486.538
211.36	936.842
211.57	526.786
211.78	1138.095
212.00	920.833
212.21	384.483
212.43	635.714
212.64	256.311
212.86	414.103
213.07	200.877
213.29	1773.333
213.50	388.608
213.71	220.161
213.93	634.091
214.14	224.038
214.36	170.588
214.57	510.638
214.78	306.098
215.00	330.588
215.21	288.889
215.43	896.296
215.64	289.130
215.86	219.424
216.07	820.000
216.28	262.025
216.50	279.245
216.71	279.268
216.93	602.381
217.14	1745.455
217.35	657.143
217.57	396.774
217.78	241.593
218.00	270.213
218.21	210.526
218.42	390.698
218.64	194.059
218.85	253.571
219.07	285.000
219.28	562.857
219.49	684.211
219.71	602.000
219.92	-2470.000
220.14	523.437
220.35	1383.333
220.56	-8800.000
220.78	221.429
220.99	505.000
221.21	224.096
221.42	332.051
221.63	304.255
221.85	0.000
222.06	276.415
222.28	620.000
222.49	381.818
222.70	1785.714
222.92	271.795
223.13	179.861
223.34	168.478
223.56	166.957
223.77	151.592
223.99	212.422
224.20	180.128
224.41	485.106
224.63	195.918
224.84	238.739
225.05	212.977
225.27	158.960
225.48	256.140
225.69	160.440
225.91	166.957
226.12	159.740
226.34	118.235
226.55	164.706
226.76	114.493
226.98	116.525
227.19	136.872
227.40	125.556
227.62	95.149
227.83	118.876
228.04	72.857
228.26	69.565
228.47	70.343
228.69	52.225
228.90	50.334
229.11	32.265
229.33	55.556
229.54	35.465
229.75	36.888
229.97	33.780
230.18	41.564
230.39	31.655
230.61	31.204
230.82	36.859
231.03	31.771
231.25	39.638
231.46	21.793
231.67	45.190
231.89	35.955
232.10	34.825
232.31	51.667
232.53	40.343
232.74	49.576
232.95	49.493
233.17	45.852
233.38	38.172
233.59	54.529
233.81	59.866
234.02	40.937
234.23	56.313
234.45	56.240
234.66	38.824
234.87	53.142
235.09	38.220
235.30	40.348
235.51	40.585
235.73	38.103
235.94	36.535
236.15	46.021
236.36	57.032
236.58	33.686
236.79	43.272
237.00	37.308
237.22	36.364
237.43	45.050
237.64	52.632
237.86	31.333
238.07	52.322
238.28	51.207
238.50	44.324
238.71	50.962
238.92	50.613
239.13	48.494
239.35	45.191
239.56	36.851
239.77	47.301
239.99	32.572
240.20	46.920
240.41	26.323
240.63	29.324
240.84	36.635
241.05	25.238
241.26	28.058
241.48	30.660
241.69	24.801
241.90	23.241
242.12	20.921
242.33	23.012
242.54	11.231
242.75	14.003
242.97	20.225
243.18	15.304
243.39	13.458
243.61	15.674
243.82	16.638
244.03	15.444
244.24	14.555
244.46	15.651
244.67	21.119
244.88	21.558
245.09	14.278
245.31	14.959
245.52	18.883
245.73	19.136
245.95	32.938
246.16	17.063
246.37	17.559
246.58	12.722
246.80	16.594
247.01	17.588
247.22	13.932
247.43	13.297
247.65	14.521
247.86	15.140
248.07	11.125
248.28	12.015
248.50	14.899
248.71	10.478
248.92	12.281
249.13	12.358
249.35	14.498
249.56	11.520
249.77	11.823
249.98	11.630
250.20	15.067
250.41	15.317
250.62	13.704
250.83	14.298
251.05	22.311
251.26	16.348
251.47	19.565
251.68	20.108
251.90	16.363
252.11	18.229
252.32	19.301
252.53	19.155
252.75	15.492
252.96	17.582
253.17	15.692
253.38	11.553
253.59	14.390
253.81	17.722
254.02	16.305
254.23	11.801
254.44	14.476
254.66	15.817
254.87	15.332
255.08	16.379
255.29	14.954
255.50	16.987
255.72	23.470
255.93	29.710
256.14	25.477
256.35	20.953
256.57	17.599
256.78	19.228
256.99	18.006
257.20	25.908
257.41	21.014
257.63	17.804
257.84	19.846
258.05	21.493
258.26	15.145
258.47	15.528
258.69	14.535
258.90	12.131
259.11	13.133
259.32	9.727
259.53	11.857
259.75	10.694
259.96	7.593
260.17	9.793
260.38	9.523
260.59	9.152
260.81	9.586
261.02	9.399
261.23	9.910
261.44	9.832
261.65	11.743
261.87	10.427
262.08	11.656
262.29	11.600
262.50	9.954
262.71	8.518
262.92	12.500
263.14	8.577
263.35	10.032
263.56	8.950
263.77	12.200
263.98	12.719
264.20	14.174
264.41	13.702
264.62	9.422
264.83	10.915
265.04	19.948
265.25	14.610
265.47	13.146
265.68	16.735
265.89	15.653
266.10	10.032
266.31	17.977
266.52	10.685
266.74	13.024
266.95	11.310
267.16	13.511
267.37	11.545
267.58	11.324
267.79	12.763
268.01	11.765
268.22	11.870
268.43	13.872
268.64	10.796
268.85	9.955
269.06	10.682
269.27	10.979
269.49	10.161
269.70	9.974
269.91	8.054
270.12	8.393
270.33	12.851
270.54	12.198
270.75	9.028
270.97	11.926
271.18	8.578
271.39	10.647
271.60	10.750
271.81	10.484
272.02	9.722
272.23	9.794
272.45	8.030
272.66	7.255
272.87	9.399
273.08	8.317
273.29	10.864
273.50	7.975
273.71	9.650
273.92	7.352
274.14	10.299
274.35	8.427
274.56	9.567
274.77	10.206
274.98	11.938
275.19	10.223
275.40	8.744
275.61	9.821
275.83	12.742
276.04	9.563
276.25	9.895
276.46	8.808
276.67	14.451
276.88	11.559
277.09	11.606
277.30	11.449
277.51	8.951
277.73	10.602
277.94	9.072
278.15	11.334
278.36	12.091
278.57	10.760
278.78	10.404
278.99	10.380
279.20	14.317
279.41	12.357
279.62	9.456
279.84	9.427
280.05	10.256
280.26	8.300
280.47	13.616
280.68	8.766
280.89	11.205
281.10	11.605
281.31	8.016
281.52	11.629
281.73	7.185
281.94	7.081
282.16	10.692
282.37	9.024
282.58	8.969
282.79	11.725
283.00	11.038
283.21	7.636
283.42	7.967
283.63	8.014
283.84	7.565
284.05	9.605
284.26	8.778
284.47	11.278
284.68	8.947
284.89	8.725
285.11	7.885
285.32	8.267
285.53	9.469
285.74	9.194
285.95	8.393
286.16	9.136
286.37	9.695
286.58	8.682
286.79	6.972
287.00	7.797
287.21	8.741
287.42	6.784
287.63	8.314
287.84	7.529
288.05	9.064
288.26	9.114
288.48	8.632
288.69	7.871
288.90	8.321
289.11	10.327
289.32	9.779
289.53	9.381
289.74	6.089
289.95	8.768
290.16	9.893
290.37	7.647
290.58	8.545
290.79	5.991
291.00	8.737
291.21	7.329
291.42	6.703
291.63	8.249
291.84	8.580
292.05	6.502
292.26	6.429
292.47	7.600
292.68	7.121
292.89	8.248
293.10	8.458
293.31	8.153
293.52	7.803
293.73	5.128
293.94	9.481
294.15	8.753
294.36	8.101
294.57	8.800
294.79	7.319
295.00	5.743
295.21	8.784
295.42	7.013
295.63	7.420
295.84	8.450
296.05	6.062
296.26	7.097
296.47	8.097
296.68	6.700
296.89	6.386
297.10	8.202
297.31	7.572
297.52	5.596
297.73	7.908
297.94	6.879
298.15	5.773
298.36	6.398
298.57	7.234
298.78	7.671
298.99	5.765
299.20	5.421
299.41	7.063
299.62	6.779
299.83	5.913
300.04	7.253
300.25	7.739
300.46	7.548
300.67	7.893
300.88	8.173
301.09	4.652
301.30	7.857
301.50	8.022
301.71	10.288
301.92	9.581
302.13	7.410
302.34	5.753
302.55	7.809
302.76	7.994
302.97	7.670
303.18	7.799
303.39	7.640
303.60	7.811
303.81	7.619
304.02	6.424
304.23	7.060
304.44	5.981
304.65	6.729
304.86	7.978
305.07	5.839
305.28	7.838
305.49	8.125
305.70	9.209
305.91	7.047
306.12	6.149
306.33	7.019
306.54	7.394
306.75	8.617
306.96	9.334
307.17	7.074
307.38	6.624
307.58	6.792
307.79	8.480
308.00	6.871
308.21	7.715
308.42	8.167
308.63	7.203
308.84	6.649
309.05	7.091
309.26	6.129
309.47	7.327
309.68	5.158
309.89	8.832
310.10	6.654
310.31	7.013
310.52	8.277
310.73	8.370
310.94	6.210
311.14	6.699
311.35	7.994
311.56	8.005
311.77	7.375
311.98	5.432
312.19	5.469
312.40	7.093
312.61	6.720
312.82	6.559
313.03	6.873
313.24	6.642
313.45	8.249
313.66	6.759
313.86	8.342
314.07	5.749
314.28	8.644
314.49	6.574
314.70	7.430
314.91	9.774
315.12	7.746
315.33	10.068
315.54	7.660
315.75	7.159
315.96	4.981
316.16	4.365
316.37	9.232
316.58	7.633
316.79	6.951
317.00	9.446
317.21	7.309
317.42	9.655
317.63	9.097
317.84	6.914
318.05	6.781
318.25	8.097
318.46	6.518
318.67	8.827
318.88	8.541
319.09	8.584
319.30	6.904
319.51	8.021
319.72	9.356
319.93	7.663
320.13	5.979
320.34	7.865
320.55	7.979
320.76	7.838
320.97	5.823
321.18	8.697
321.39	7.213
321.60	5.818
321.80	10.174
322.01	9.407
322.22	7.994
322.43	6.873
322.64	7.419
322.85	7.432
323.06	9.426
323.27	8.390
323.47	7.891
323.68	7.163
323.89	7.043
324.10	8.220
324.31	6.601
324.52	9.584
324.73	6.107
324.93	7.094
325.14	7.250
325.35	7.802
325.56	7.426
325.77	7.319
325.98	8.040
326.19	7.398
326.39	5.591
326.60	7.719
326.81	8.218
327.02	4.547
327.23	6.256
327.44	8.807
327.64	5.281
327.85	7.281
328.06	8.301
328.27	10.368
328.48	8.283
328.69	4.837
328.90	8.751
329.10	6.223
329.31	8.564
329.52	8.738
329.73	7.499
329.94	7.575
330.15	10.874
330.35	10.269
330.56	9.180
330.77	8.776
330.98	9.288
331.19	7.865
331.39	8.930
331.60	7.473
331.81	6.969
332.02	9.622
332.23	9.060
332.44	8.551
332.64	9.572
332.85	8.522
333.06	9.875
333.27	8.102
333.48	9.653
333.68	10.045
333.89	9.307
334.10	7.588
334.31	11.014
334.52	10.775
334.72	9.270
334.93	9.186
335.14	7.710
335.35	7.689
335.56	11.117
335.76	6.153
335.97	10.562
336.18	6.460
336.39	12.609
336.60	9.533
336.80	8.098
337.01	9.104
337.22	9.508
337.43	10.602
337.64	12.496
337.84	9.620
338.05	9.866
338.26	12.404
338.47	11.903
338.68	7.759
338.88	11.304
339.09	10.558
339.30	10.846
339.51	9.165
339.71	12.009
339.92	9.633
340.13	9.650
340.34	10.941
340.55	10.374
340.75	12.079
340.96	10.319
341.17	11.598
341.38	10.171
341.58	8.305
341.79	10.589
342.00	9.400
342.21	10.215
342.41	8.473
342.62	10.848
342.83	12.755
343.04	7.630
343.24	11.368
343.45	10.866
343.66	10.017
343.87	10.354
344.07	9.527
344.28	10.620
344.49	10.691
344.70	12.397
344.90	9.392
345.11	11.474
345.32	9.421
345.53	10.604
345.73	10.910
345.94	12.117
346.15	11.855
346.36	10.978
346.56	11.847
346.77	13.342
346.98	10.032
347.19	11.691
347.39	10.862
347.60	10.427
347.81	10.618
348.02	11.134
348.22	7.378
348.43	10.637
348.64	9.213
348.84	9.798
349.05	10.275
349.26	12.604
349.47	9.257
349.67	8.437
349.88	10.343
350.09	10.024
350.30	11.575
350.50	10.615
350.71	11.011
350.92	10.944
351.12	9.235
351.33	10.883
351.54	10.683
351.74	10.127
351.95	7.954
352.16	10.409
352.37	11.835
352.57	10.169
352.78	9.390
352.99	11.015
353.19	9.873
353.40	9.712
353.61	11.902
353.82	9.839
354.02	10.983
354.23	10.966
354.44	11.257
354.64	10.709
354.85	9.954
355.06	10.892
355.26	8.583
355.47	9.929
355.68	12.611
355.88	11.217
356.09	11.633
356.30	10.276
356.51	11.197
356.71	10.283
356.92	8.127
357.13	11.866
357.33	12.018
357.54	10.058
357.75	7.552
357.95	10.494
358.16	8.526
358.37	12.018
358.57	8.957
358.78	13.510
358.99	9.705
359.19	9.580
359.40	11.725
359.61	10.393
359.81	11.442
360.02	13.072
360.23	8.594
360.43	9.415
360.64	8.905
360.85	9.885
361.05	9.176
361.26	10.928
361.47	9.932
361.67	10.581
361.88	7.586
362.09	10.354
362.29	8.298
362.50	9.021
362.70	8.823
362.91	10.719
363.12	8.922
363.32	10.940
363.53	10.738
363.74	11.250
363.94	9.166
364.15	11.424
364.36	10.288
364.56	9.244
364.77	9.881
364.98	11.859
365.18	10.299
365.39	11.609
365.59	8.492
365.80	10.204
366.01	10.619
366.21	8.640
366.42	7.945
366.63	10.234
366.83	9.290
367.04	7.703
367.24	9.923
367.45	7.487
367.66	7.175
367.86	9.573
368.07	8.538
368.28	9.208
368.48	7.622
368.69	7.046
368.89	8.807
369.10	9.794
369.31	9.154
369.51	9.966
369.72	10.885
369.92	10.771
370.13	8.079
370.34	9.657
370.54	6.817
370.75	10.033
370.95	6.370
371.16	9.795
371.37	7.552
371.57	8.191
371.78	8.764
371.98	9.196
372.19	9.163
372.40	9.991
372.60	9.789
372.81	7.922
373.01	6.602
373.22	7.558
373.43	9.201
373.63	8.561
373.84	9.581
374.04	9.339
374.25	8.838
374.46	9.605
374.66	8.484
374.87	9.883
375.07	6.457
375.28	7.664
375.48	9.031
375.69	9.516
375.90	7.109
376.10	6.790
376.31	7.766
376.51	6.859
376.72	7.814
376.92	6.980
377.13	8.337
377.34	8.920
377.54	7.536
377.75	8.993
377.95	7.551
378.16	9.346
378.36	8.810
378.57	9.998
378.77	8.367
378.98	10.042
379.19	7.398
379.39	7.128
379.60	8.990
379.80	7.734
380.01	9.096
380.21	7.150
380.42	8.848
380.62	8.799
380.83	8.224
381.04	7.381
381.24	8.542
381.45	8.264
381.65	7.819
381.86	8.273
382.06	9.424
382.27	6.718
382.47	6.778
382.68	9.430
382.88	6.956
383.09	7.787
383.29	7.676
383.50	9.469
383.71	7.333
383.91	8.400
384.12	7.283
384.32	7.940
384.53	8.219
384.73	6.816
384.94	6.713
385.14	7.894
385.35	6.012
385.55	7.573
385.76	7.635
385.96	7.592
386.17	7.712
386.37	8.202
386.58	6.893
386.78	8.939
386.99	6.568
387.19	7.777
387.40	6.779
387.60	9.090
387.81	7.455
388.01	7.647
388.22	8.045
388.42	8.696
388.63	8.286
388.83	9.138
389.04	6.471
389.24	7.608
389.45	7.277
389.65	6.943
389.86	6.695
390.06	5.930
390.27	6.480
390.47	7.210
390.68	6.601
390.88	8.055
391.09	8.285
391.29	8.722
391.50	8.364
391.70	7.530
391.91	7.187
392.11	7.120
392.32	8.654
392.52	8.000
392.73	7.186
392.93	7.586
393.14	7.109
393.34	7.616
393.55	7.484
393.75	7.246
393.95	7.247
394.16	8.360
394.36	7.565
394.57	8.188
394.77	7.441
394.98	7.883
395.18	7.780
395.39	7.418
395.59	8.148
395.80	8.116
396.00	7.354
396.21	8.183
396.41	6.801
396.61	7.969
396.82	7.147
397.02	8.272
397.23	7.973
397.43	7.554
397.64	6.357
397.84	8.804
398.05	5.645
398.25	8.149
398.45	7.066
398.66	7.974
398.86	7.170
399.07	7.678
399.27	6.630
399.48	8.580
399.68	6.963
399.89	7.237
400.09	8.178
400.29	7.334
400.50	6.907
400.70	7.362
400.91	6.301
401.11	7.244
401.32	7.260
401.52	6.268
401.72	6.302
401.93	8.611
402.13	8.033
402.34	6.649
402.54	7.253
402.75	7.900
402.95	5.870
403.15	8.140
403.36	6.197
403.56	7.692
403.77	6.666
403.97	7.151
404.17	6.325
404.38	8.141
404.58	6.016
404.79	7.881
404.99	7.680
405.19	6.482
405.40	7.065
405.60	7.177
405.81	7.129
406.01	6.983
406.21	6.963
406.42	7.151
406.62	6.598
406.83	8.010
407.03	7.408
407.23	6.554
407.44	6.276
407.64	6.979
407.85	7.616
408.05	7.124
408.25	6.013
408.46	8.284
408.66	6.608
408.87	6.470
409.07	6.371
409.27	6.885
409.48	7.512
409.68	7.553
409.88	6.034
410.09	6.782
410.29	7.411
410.50	7.868
410.70	5.834
410.90	6.612
411.11	6.350
411.31	6.815
411.51	7.881
411.72	7.770
411.92	5.978
412.12	6.344
412.33	5.707
412.53	5.900
412.74	5.604
412.94	6.728
413.14	6.983
413.35	7.201
413.55	6.565
413.75	6.893
413.96	5.993
414.16	6.556
414.36	6.203
414.57	6.826
414.77	6.089
414.97	7.512
415.18	5.645
415.38	7.128
415.58	6.629
415.79	6.454
415.99	6.324
416.19	6.602
416.40	6.668
416.60	7.115
416.80	6.558
417.01	6.989
417.21	6.337
417.41	7.423
417.62	7.071
417.82	6.981
418.02	5.777
418.23	7.417
418.43	6.394
418.63	7.268
418.84	7.851
419.04	7.074
419.24	7.505
419.45	7.274
419.65	7.596
419.85	7.447
420.06	7.650
420.26	7.505
420.46	7.628
420.67	7.835
420.87	7.888
421.07	8.262
421.28	7.395
421.48	8.198
421.68	7.970
421.88	8.155
422.09	7.457
422.29	7.443
422.49	7.264
422.70	7.669
422.90	7.499
423.10	7.759
423.31	7.763
423.51	8.016
423.71	6.902
423.91	7.979
424.12	7.581
424.32	7.821
424.52	7.466
424.73	7.666
424.93	7.518
425.13	7.355
425.33	7.378
425.54	7.987
425.74	7.514
425.94	7.895
426.15	7.704
426.35	7.519
426.55	7.567
426.75	7.954
426.96	7.132
427.16	7.902
427.36	7.327
427.57	7.933
427.77	6.803
427.97	7.686
428.17	7.175
428.38	7.262
428.58	5.857
428.78	7.706
428.98	6.135
429.19	7.132
429.39	5.991
429.59	6.846
429.79	6.241
430.00	6.498
430.20	5.541
430.40	6.495
430.60	6.052
430.81	6.622
431.01	6.666
431.21	6.800
431.41	6.289
431.62	6.568
431.82	6.262
432.02	7.283
432.22	6.371
432.43	6.295
432.63	5.966
432.83	6.799
433.03	6.563
433.24	6.404
433.44	5.901
433.64	7.324
433.84	6.249
434.05	6.692
434.25	6.520
434.45	7.131
434.65	7.551
434.85	7.543
435.06	7.048
435.26	7.095
435.46	6.811
435.66	7.240
435.87	6.371
436.07	6.622
436.27	6.579
436.47	6.280
436.67	6.082
436.88	7.048
437.08	6.320
437.28	6.915
437.48	5.916
437.69	6.795
437.89	6.432
438.09	7.308
438.29	6.008
438.49	6.992
438.70	6.931
438.90	6.678
439.10	6.088
439.30	6.813
439.50	6.252
439.71	7.121
439.91	7.051
440.11	7.232
440.31	6.859
440.51	6.462
440.72	6.826
440.92	6.913
441.12	6.680
441.32	7.323
441.52	7.308
441.72	7.335
441.93	6.974
442.13	7.397
442.33	6.487
442.53	7.497
442.73	6.627
442.94	7.356
443.14	6.801
443.34	7.565
443.54	6.596
443.74	7.222
443.94	6.789
444.15	6.652
444.35	6.793
444.55	6.638
444.75	6.648
444.95	6.867
445.15	6.642
445.36	6.753
445.56	5.941
445.76	6.784
445.96	6.392
446.16	6.608
446.36	6.028
446.57	7.094
446.77	6.146
446.97	7.372
447.17	7.161
447.37	6.984
447.57	7.383
447.77	7.007
447.98	6.625
448.18	7.221
448.38	7.155
448.58	7.178
448.78	6.835
448.98	6.766
449.18	6.880
449.39	6.691
449.59	6.848
449.79	6.776
449.99	6.307
450.19	7.101
450.39	6.191
450.59	6.728
450.79	6.289
451.00	6.961
451.20	6.747
451.40	6.871
451.60	6.094
451.80	6.817
452.00	5.962
452.20	6.502
452.40	6.258
452.61	6.280
452.81	5.956
453.01	6.387
453.21	6.247
453.41	6.524
453.61	6.246
453.81	6.251
454.01	6.216
454.21	6.432
454.42	6.860
454.62	6.552
454.82	5.898
455.02	5.771
455.22	5.608
455.42	6.437
455.62	5.543
455.82	5.849
456.02	5.584
456.23	6.589
456.43	6.297
456.63	6.472
456.83	5.268
457.03	6.374
457.23	5.991
457.43	6.441
457.63	6.025
457.83	6.869
458.03	5.422
458.23	6.777
458.43	5.859
458.64	6.704
458.84	6.087
459.04	6.239
459.24	6.180
459.44	6.505
459.64	6.348
459.84	6.498
460.04	6.220
460.24	6.768
460.44	6.604
460.64	6.852
460.84	6.343
461.04	7.093
461.24	6.924
461.45	6.832
461.65	6.964
461.85	6.908
462.05	6.784
462.25	6.902
462.45	6.993
462.65	7.155
462.85	5.864
463.05	6.617
463.25	5.542
463.45	6.694
463.65	6.586
463.85	6.486
464.05	5.608
464.25	5.985
464.45	6.181
464.65	6.071
464.85	5.679
465.05	5.501
465.26	6.105
465.46	6.000
465.66	6.369
465.86	6.564
466.06	6.260
466.26	6.420
466.46	5.419
466.66	5.973
466.86	5.999
467.06	6.416
467.26	5.921
467.46	6.880
467.66	6.100
467.86	5.876
468.06	5.819
468.26	5.989
468.46	5.760
468.66	6.642
468.86	5.345
469.06	6.307
469.26	5.365
469.46	5.843
469.66	5.789
469.86	6.705
470.06	5.792
470.26	6.169
470.46	5.165
470.66	6.632
470.86	5.652
471.06	6.088
471.26	5.197
471.46	5.696
471.66	5.934
471.86	5.843
472.06	5.626
472.26	6.611
472.46	6.366
472.66	5.923
472.86	5.804
473.06	6.103
473.26	5.804
473.46	6.363
473.66	5.340
473.86	6.073
474.06	5.499
474.26	6.442
474.46	5.395
474.66	6.426
474.86	5.834
475.06	6.559
475.26	5.477
475.46	6.420
475.66	5.186
475.86	6.190
476.06	5.967
476.26	6.354
476.46	5.551
476.66	6.045
476.86	5.098
477.06	6.028
477.26	5.571
477.46	5.959
477.65	6.026
477.85	6.270
478.05	5.153
478.25	6.415
478.45	5.603
478.65	6.054
478.85	5.745
479.05	6.480
479.25	5.940
479.45	6.463
479.65	5.581
479.85	6.442
480.05	5.618
480.25	6.501
480.45	5.866
480.65	6.688
480.85	5.907
481.05	6.576
481.25	6.058
481.44	6.155
481.64	5.502
481.84	6.654
482.04	6.292
482.24	6.423
482.44	6.080
482.64	6.316
482.84	6.103
483.04	6.740
483.24	6.153
483.44	6.516
483.64	6.440
483.84	6.685
484.04	6.818
484.23	6.832
484.43	6.917
484.63	6.895
484.83	6.902
485.03	7.377
485.23	7.276
485.43	7.214
485.63	7.127
485.83	7.124
486.03	7.158
486.23	7.246
486.42	7.092
486.62	7.246
486.82	6.955
487.02	6.999
487.22	7.052
487.42	6.950
487.62	6.776
487.82	6.914
488.02	6.703
488.22	6.833
488.41	6.818
488.61	6.767
488.81	6.893
489.01	7.028
489.21	7.078
489.41	6.999
489.61	6.901
489.81	6.964
490.01	6.819
490.20	7.070
490.40	6.889
490.60	7.156
490.80	6.534
491.00	6.728
491.20	6.642
491.40	6.876
491.60	6.512
491.79	6.552
491.99	6.617
492.19	6.819
492.39	6.788
492.59	6.911
492.79	6.743
492.99	6.951
493.19	6.852
493.38	7.002
493.58	6.881
493.78	7.190
493.98	6.920
494.18	6.861
494.38	6.507
494.58	6.752
494.77	6.089
494.97	6.396
495.17	6.216
495.37	6.140
495.57	6.014
495.77	6.432
495.96	6.221
496.16	6.056
496.36	5.902
496.56	6.557
496.76	5.500
496.96	6.259
497.15	5.799
497.35	6.557
497.55	5.780
497.75	6.504
497.95	6.007
498.15	6.443
498.34	6.510
498.54	5.990
498.74	6.957
498.94	6.536
499.14	5.878
499.34	6.498
499.53	6.284
499.73	6.641
499.93	5.849
500.13	6.257
500.33	5.887
500.52	6.267
500.72	5.936
500.92	5.925
501.12	5.363
501.32	5.920
501.52	5.823
501.71	5.529
501.91	5.467
502.11	6.164
502.31	5.119
502.51	5.976
502.70	5.709
502.90	6.274
503.10	5.786
503.30	6.128
503.50	5.463
503.69	5.978
503.89	5.472
504.09	5.982
504.29	5.423
504.48	5.946
504.68	6.142
504.88	6.177
505.08	5.571
505.28	6.360
505.47	5.865
505.67	6.331
505.87	5.902
506.07	5.863
506.27	5.735
506.46	6.209
506.66	5.534
506.86	5.791
507.06	6.147
507.25	5.622
507.45	5.448
507.65	6.133
507.85	5.722
508.04	6.105
508.24	6.108
508.44	6.150
508.64	5.492
508.83	5.856
509.03	5.602
509.23	6.133
509.43	5.619
509.63	6.147
509.82	5.881
510.02	6.330
510.22	6.004
510.42	6.473
510.61	6.212
510.81	6.111
511.01	6.005
511.21	6.340
511.40	5.782
511.60	6.352
511.80	6.010
511.99	6.519
512.19	5.690
512.39	6.603
512.59	5.619
512.78	6.485
512.98	6.295
513.18	6.347
513.38	6.091
513.57	6.377
513.77	5.929
513.97	6.324
514.17	6.202
514.36	5.947
514.56	5.994
514.76	6.599
514.95	5.698
515.15	6.100
515.35	5.577
515.55	6.244
515.74	6.030
515.94	6.233
516.14	5.288
516.33	6.137
516.53	5.741
516.73	5.880
516.93	5.803
517.12	6.593
517.32	5.601
517.52	6.642
517.71	6.258
517.91	6.150
518.11	6.214
518.30	5.967
518.50	5.696
518.70	6.156
518.90	6.133
519.09	6.447
519.29	6.370
519.49	6.583
519.68	6.018
519.88	6.631
520.08	6.219
520.27	6.681
520.47	6.441
520.67	6.357
520.86	6.280
521.06	6.758
521.26	5.741
521.45	6.289
521.65	5.932
521.85	6.246
522.04	5.809
522.24	6.400
522.44	5.691
522.63	6.205
522.83	5.671
523.03	6.082
523.22	5.954
523.42	6.319
523.62	6.262
523.81	6.114
524.01	6.098
524.21	6.060
524.40	5.619
524.60	6.142
524.80	5.811
524.99	6.146
525.19	5.974
525.39	6.072
525.58	5.668
525.78	6.354
525.98	6.235
526.17	6.339
526.37	6.483
526.57	6.543
526.76	6.469
526.96	6.679
527.15	6.311
527.35	6.495
527.55	6.270
527.74	6.701
527.94	6.380
528.14	6.578
528.33	6.441
528.53	6.663
528.72	6.652
528.92	6.817
529.12	6.596
529.31	6.606
529.51	6.751
529.71	6.688
529.90	6.831
530.10	6.882
530.29	6.869
530.49	7.032
530.69	7.112
530.88	6.930
531.08	7.084
531.28	6.749
531.47	6.845
531.67	6.879
531.86	6.383
532.06	6.798
532.26	6.305
532.45	6.410
532.65	6.350
532.84	6.515
533.04	6.342
533.24	6.444
533.43	6.198
533.63	6.631
533.82	6.688
534.02	6.874
534.22	6.549
534.41	6.734
534.61	6.718
534.80	6.749
535.00	6.817
535.19	6.656
535.39	6.736
535.59	6.718
535.78	6.567
535.98	6.547
536.17	6.248
536.37	6.566
536.57	6.413
536.76	6.704
536.96	6.417
537.15	6.632
537.35	6.340
537.54	6.753
537.74	6.336
537.93	6.815
538.13	6.693
538.33	6.571
538.52	6.194
538.72	6.449
538.91	6.419
539.11	6.506
539.30	6.007
539.50	6.540
539.70	6.267
539.89	6.574
540.09	6.182
540.28	6.526
540.48	6.115
540.67	6.559
540.87	6.269
541.06	6.684
541.26	6.236
541.45	6.585
541.65	6.577
541.85	6.901
542.04	6.560
542.24	6.896
542.43	6.585
542.63	6.793
542.82	6.903
543.02	6.873
543.21	7.022
543.41	7.027
543.60	6.861
543.80	6.990
543.99	6.738
544.19	6.933
544.38	6.531
544.58	6.760
544.77	6.499
544.97	6.806
545.16	6.415
545.36	6.656
545.56	6.570
545.75	6.540
545.95	6.158
546.14	6.834
546.34	6.101
546.53	6.688
546.73	6.313
546.92	6.665
547.12	6.199
547.31	6.894
547.51	6.052
547.70	6.751
547.90	6.386
548.09	6.810
548.29	6.551
548.48	6.691
548.68	6.555
548.87	6.532
549.07	6.366
549.26	6.332
549.46	6.211
549.65	6.390
549.84	5.984
550.04	6.144
550.23	6.066
550.43	6.219
550.62	6.060
550.82	5.916
551.01	5.625
551.21	5.996
551.40	5.386
551.60	6.095
551.79	5.832
551.99	6.127
552.18	5.694
552.38	6.405
552.57	5.886
552.77	6.337
552.96	6.043
553.16	6.593
553.35	5.913
553.54	6.588
553.74	6.868
553.93	6.893
554.13	6.447
554.32	6.679
554.52	6.151
554.71	6.737
554.91	5.586
555.10	6.780
555.29	6.078
555.49	6.237
555.68	5.701
555.88	6.536
556.07	5.981
556.27	6.732
556.46	6.178
556.66	6.210
556.85	6.411
557.04	6.536
557.24	6.669
557.43	6.469
557.63	6.115
557.82	6.159
558.02	6.023
558.21	6.720
558.40	5.638
558.60	6.800
558.79	6.454
558.99	6.732
559.18	5.719
559.38	6.639
559.57	6.262
559.76	6.671
559.96	7.096
560.15	7.177
560.35	6.082
560.54	6.464
560.73	5.675
560.93	6.655
561.12	6.422
561.32	6.282
561.51	6.420
561.70	7.100
561.90	6.482
562.09	7.007
562.29	6.809
562.48	6.682
562.67	6.575
562.87	7.557
563.06	6.667
563.26	6.865
563.45	6.799
563.64	7.450
563.84	6.758
564.03	7.329
564.23	6.584
564.42	8.158
564.61	6.980
564.81	6.849
565.00	7.214
565.20	7.627
565.39	7.694
565.58	7.571
565.78	7.071
565.97	7.518
566.16	7.429
566.36	8.157
566.55	7.427
566.74	7.844
566.94	7.456
567.13	7.791
567.33	7.696
567.52	8.046
567.71	7.384
567.91	7.763
568.10	7.945
568.29	8.047
568.49	7.405
568.68	8.190
568.87	7.477
569.07	8.102
569.26	7.922
569.45	8.374
569.65	7.614
569.84	8.079
570.04	7.847
570.23	8.410
570.42	7.465
570.62	7.866
570.81	8.369
571.00	8.059
571.20	7.582
571.39	8.463
571.58	7.240
571.78	8.181
571.97	8.195
572.16	7.922
572.36	8.451
572.55	8.208
572.74	8.591
572.94	8.019
573.13	8.569
573.32	8.189
573.51	7.871
573.71	8.469
573.90	8.102
574.09	8.679
574.29	8.393
574.48	8.645
574.67	8.303
574.87	8.548
575.06	8.044
575.25	8.501
575.45	8.701
575.64	8.622
575.83	8.194
576.03	8.843
576.22	8.078
576.41	8.530
576.60	8.227
576.80	8.588
576.99	8.497
577.18	8.780
577.38	7.970
577.57	8.605
577.76	8.521
577.95	8.721
578.15	7.827
578.34	8.559
578.53	8.013
578.73	8.057
578.92	7.634
579.11	8.186
579.30	7.983
579.50	7.952
579.69	8.459
579.88	7.501
580.08	7.842
580.27	8.223
580.46	8.289
580.65	8.360
580.85	7.382
581.04	8.810
581.23	7.832
581.42	8.395
581.62	7.499
581.81	7.910
582.00	7.520
582.19	8.067
582.39	7.801
582.58	7.324
582.77	7.646
582.96	7.782
583.16	7.190
583.35	8.308
583.54	7.537
583.73	7.798
583.93	7.202
584.12	7.735
584.31	7.140
584.50	7.068
584.70	6.942
584.89	7.288
585.08	7.416
585.27	7.726
585.47	6.755
585.66	7.495
585.85	6.951
586.04	7.435
586.24	8.022
586.43	7.220
586.62	7.187
586.81	7.440
587.00	7.364
587.20	7.366
587.39	7.015
587.58	7.536
587.77	6.934
587.97	7.258
588.16	7.121
588.35	7.494
588.54	6.840
588.73	6.831
588.93	7.453
589.12	7.394
589.31	7.384
589.50	7.619
589.69	7.823
589.89	7.634
590.08	6.978
590.27	7.486
590.46	7.503
590.65	7.361
590.85	6.856
591.04	7.814
591.23	7.644
591.42	8.005
591.61	6.783
591.81	7.727
592.00	7.262
592.19	7.725
592.38	6.432
592.57	7.629
592.77	7.329
592.96	7.792
593.15	8.318
593.34	8.035
593.53	7.426
593.72	7.606
593.92	7.137
594.11	7.981
594.30	6.800
594.49	7.695
594.68	7.803
594.87	7.496
595.07	7.411
595.26	8.161
595.45	7.229
595.64	7.827
595.83	6.671
596.02	7.620
596.22	6.540
596.41	7.858
596.60	7.014
596.79	7.988
596.98	7.799
597.17	8.218
597.37	7.765
597.56	8.186
597.75	7.378
597.94	8.459
598.13	8.336
598.32	8.284
598.51	7.673
598.71	8.510
598.90	7.877
599.09	8.744
599.28	7.828
599.47	7.686
599.66	7.344
599.85	8.443
600.05	6.949
600.24	8.620
600.43	7.416
600.62	7.829
600.81	7.700
601.00	8.490
601.19	7.153
601.38	8.141
601.58	7.962
601.77	7.906
601.96	7.041
602.15	8.544
602.34	7.247
602.53	8.740
602.72	7.205
602.91	8.048
603.10	7.904
603.30	8.172
603.49	7.862
603.68	7.837
603.87	6.987
604.06	8.548
604.25	8.610
604.44	8.372
604.63	7.840
604.82	8.272
605.01	7.983
605.21	8.748
605.40	7.913
605.59	8.743
605.78	8.654
605.97	8.339
606.16	8.020
606.35	8.820
606.54	8.052
606.73	8.836
606.92	7.858
607.11	8.133
607.30	7.688
607.50	8.860
607.69	7.731
607.88	7.723
608.07	7.581
608.26	8.680
608.45	7.805
608.64	8.565
608.83	7.069
609.02	8.226
609.21	7.877
609.40	8.927
609.59	7.747
609.78	7.911
609.97	7.520
610.16	8.489
610.35	7.900
610.55	8.267
610.74	8.026
610.93	7.837
611.12	7.715
611.31	7.916
611.50	7.598
611.69	7.996
611.88	7.489
612.07	8.858
612.26	6.661
612.45	7.159
612.64	7.787
612.83	8.303
613.02	6.544
613.21	7.451
613.40	6.584
613.59	7.497
613.78	6.034
613.97	7.439
614.16	6.248
614.35	7.508
614.54	6.343
614.73	6.685
614.92	6.845
615.11	6.576
615.30	5.707
615.49	6.000
615.68	6.357
615.87	6.141
616.07	6.344
616.26	6.947
616.45	6.175
616.64	6.484
616.83	6.469
617.02	6.967
617.21	5.422
617.40	6.682
617.59	6.999
617.78	6.673
617.97	6.122
618.16	5.953
618.35	5.126
618.54	6.559
618.73	6.134
618.92	6.440
619.11	6.050
619.30	6.736
619.49	5.737
619.68	6.871
619.86	6.490
620.05	6.972
620.24	5.702
620.43	6.049
620.62	5.549
620.81	6.330
621.00	6.610
621.19	7.370
621.38	6.731
621.57	6.561
621.76	6.146
621.95	6.827
622.14	6.501
622.33	6.599
622.52	6.323
622.71	6.235
622.90	6.423
623.09	5.813
623.28	5.811
623.47	6.921
623.66	5.357
623.85	6.072
624.04	5.848
624.23	6.082
624.42	6.398
624.61	5.950
624.80	5.324
624.99	6.489
625.18	4.804
625.36	6.035
625.55	6.448
625.74	6.001
625.93	5.549
626.12	6.349
626.31	6.684
626.50	6.728
626.69	6.483
626.88	7.807
627.07	6.691
627.26	6.368
627.45	6.225
627.64	6.702
627.83	6.189
628.02	6.862
628.20	6.352
628.39	6.619
628.58	6.213
628.77	6.771
628.96	5.794
629.15	5.983
629.34	6.690
629.53	6.108
629.72	5.153
629.91	6.958
630.10	5.863
630.29	5.953
630.47	4.643
630.66	5.518
630.85	5.312
631.04	5.617
631.23	5.780
631.42	5.324
631.61	5.248
631.80	5.861
631.99	5.059
632.18	5.455
632.36	5.110
632.55	5.006
632.74	4.988
632.93	5.244
633.12	5.575
633.31	5.216
633.50	6.016
633.69	5.845
633.88	5.230
634.06	6.142
634.25	5.024
634.44	6.166
634.63	5.895
634.82	6.413
635.01	5.680
635.20	6.095
635.39	4.696
635.57	5.390
635.76	5.433
635.95	5.197
636.14	4.861
636.33	6.432
636.52	4.795
636.71	5.463
636.89	5.776
637.08	5.368
637.27	5.123
637.46	5.114
637.65	5.647
637.84	5.736
638.03	5.302
638.21	6.562
638.40	5.235
638.59	4.703
638.78	5.588
638.97	5.579
639.16	6.917
639.34	6.124
639.53	4.779
639.72	5.870
639.91	6.361
640.10	4.629
640.29	6.447
640.47	6.201
640.66	6.091
640.85	6.917
641.04	4.654
641.23	6.110
641.42	6.351
641.60	6.240
641.79	4.915
641.98	5.688
642.17	5.073
642.36	6.305
642.54	5.713
642.73	5.243
642.92	5.559
643.11	4.462
643.30	5.647
643.49	5.618
643.67	4.679
643.86	6.243
644.05	5.249
644.24	5.332
644.43	5.842
644.61	5.406
644.80	5.090
644.99	5.160
645.18	6.383
645.37	6.163
645.55	5.566
645.74	4.782
645.93	5.629
646.12	5.358
646.31	6.724
646.49	5.005
646.68	5.722
646.87	5.940
647.06	5.558
647.24	6.006
647.43	4.931
647.62	6.825
647.81	4.910
648.00	5.101
648.18	4.488
648.37	5.109
648.56	5.407
648.75	5.781
648.93	5.466
649.12	5.308
649.31	5.008
649.50	5.086
649.68	5.153
649.87	5.102
650.06	4.264
650.25	5.185
650.43	4.994
650.62	5.466
650.81	5.222
651.00	5.976
651.18	5.298
651.37	5.775
651.56	3.794
651.75	7.488
651.93	5.383
652.12	5.521
652.31	4.963
652.50	4.994
652.68	5.035
652.87	5.382
653.06	6.027
653.25	6.289
653.43	5.291
653.62	4.615
653.81	5.608
654.00	6.598
654.18	5.521
654.37	5.758
654.56	4.271
654.74	4.601
654.93	4.948
655.12	5.270
655.31	4.882
655.49	5.992
655.68	4.637
655.87	4.453
656.05	4.577
656.24	5.206
656.43	5.039
656.62	5.235
656.80	5.475
656.99	5.084
657.18	5.434
657.36	5.606
657.55	6.294
657.74	5.286
657.93	6.327
658.11	5.520
658.30	5.295
658.49	4.921
658.67	5.757
658.86	5.495
659.05	4.985
659.23	5.850
659.42	4.988
659.61	5.507
659.79	5.565
659.98	5.091
660.17	6.284
660.35	5.932
660.54	6.336
660.73	7.581
660.91	6.287
661.10	6.610
661.29	5.016
661.47	6.078
661.66	5.707
661.85	6.031
662.03	7.072
662.22	5.729
662.41	4.631
662.59	5.566
662.78	5.016
662.97	5.245
663.15	5.408
663.34	5.107
663.53	4.853
663.71	5.638
663.90	5.179
664.09	6.764
664.27	5.267
664.46	5.145
664.65	5.042
664.83	5.254
665.02	5.430
665.21	5.859
665.39	4.904
665.58	5.961
665.77	5.566
665.95	4.703
666.14	5.439
666.32	5.899
666.51	5.616
666.70	5.327
666.88	6.120
667.07	5.063
667.26	4.971
667.44	5.220
667.63	6.669
667.81	4.815
668.00	5.522
668.19	6.395
668.37	5.819
668.56	6.631
668.75	5.809
668.93	6.662
669.12	5.051
669.30	6.398
669.49	6.332
669.68	7.581
669.86	6.916
670.05	6.306
670.23	6.270
670.42	6.299
670.61	7.787
670.79	6.395
670.98	6.748
671.16	7.275
671.35	6.708
671.54	6.652
671.72	7.031
671.91	7.171
672.09	6.733
672.28	7.861
672.46	8.809
672.65	7.621
672.84	7.386
673.02	7.882
673.21	5.326
673.39	6.836
673.58	8.625
673.77	7.554
673.95	7.275
674.14	8.283
674.32	7.489
674.51	8.815
674.69	7.810
674.88	7.361
675.07	7.058
675.25	10.268
675.44	7.926
675.62	7.701
675.81	7.696
675.99	12.335
676.18	9.519
676.36	9.164
676.55	7.222
676.74	9.725
676.92	9.786
677.11	8.526
677.29	7.890
677.48	9.507
677.66	10.387
677.85	8.725
678.03	7.958
678.22	10.882
678.40	9.528
678.59	8.402
678.78	6.730
678.96	8.086
679.15	8.179
679.33	10.486
679.52	9.176
679.70	8.966
679.89	9.043
680.07	8.910
680.26	8.508
680.44	10.183
680.63	9.223
680.81	9.075
681.00	7.765
681.18	9.113
681.37	8.886
681.55	9.989
681.74	9.728
681.92	9.052
682.11	9.396
682.29	9.243
682.48	9.136
682.66	10.526
682.85	9.677
683.03	9.761
683.22	10.403
683.40	10.605
683.59	9.595
683.77	10.288
683.96	8.778
684.14	10.718
684.33	8.560
684.51	11.445
684.70	9.965
684.88	11.501
685.07	10.617
685.25	10.213
685.44	9.146
685.62	9.629
685.81	8.959
685.99	10.902
686.18	9.171
686.36	10.197
686.55	8.675
686.73	9.299
686.92	10.825
687.10	9.947
687.29	10.251
687.47	11.057
687.65	10.082
687.84	9.047
688.02	11.376
688.21	10.801
688.39	9.722
688.58	12.202
688.76	8.743
688.95	9.560
689.13	9.292
689.32	11.401
689.50	9.996
689.68	10.728
689.87	9.799
690.05	11.378
690.24	11.041
690.42	10.708
690.61	10.580
690.79	10.606
690.98	9.980
691.16	11.070
691.34	7.953
691.53	10.268
691.71	9.061
691.90	11.374
692.08	9.686
692.27	10.973
692.45	12.297
692.63	11.500
692.82	11.815
693.00	9.611
693.19	9.825
693.37	12.103
693.56	10.839
693.74	12.741
693.92	10.712
694.11	11.420
694.29	12.051
694.48	13.855
694.66	10.873
694.84	13.699
695.03	11.017
695.21	13.724
695.40	13.821
695.58	13.696
695.76	12.510
695.95	13.886
696.13	14.190
696.32	14.650
696.50	17.049
696.68	15.930
696.87	13.120
697.05	16.142
697.24	15.893
697.42	16.078
697.60	14.036
697.79	16.187
697.97	17.033
698.16	18.588
698.34	15.658
698.52	18.040
698.71	16.877
698.89	17.744
699.07	17.001
699.26	17.963
699.44	18.033
699.63	18.385
699.81	17.934
699.99	20.109
700.18	18.877
700.36	18.696
700.54	17.981
700.73	20.292
700.91	19.462
701.09	20.602
701.28	21.144
701.46	20.688
701.64	20.108
701.83	21.791
702.01	19.683
702.20	23.500
702.38	22.416
702.56	22.761
702.75	22.818
702.93	23.510
703.11	21.721
703.30	25.080
703.48	24.851
703.66	23.416
703.85	23.455
704.03	27.622
704.21	23.193
704.40	26.134
704.58	24.557
704.76	26.622
704.95	25.337
705.13	25.746
705.31	25.365
705.50	29.781
705.68	26.629
705.86	28.464
706.04	26.755
706.23	29.697
706.41	26.340
706.59	28.835
706.78	25.761
706.96	28.326
707.14	28.818
707.33	29.018
707.51	28.703
707.69	29.439
707.88	29.261
708.06	31.470
708.24	29.767
708.42	30.929
708.61	29.332
708.79	32.420
708.97	33.356
709.16	32.961
709.34	30.755
709.52	32.296
709.71	32.292
709.89	32.578
710.07	29.797
710.25	32.942
710.44	32.198
710.62	32.385
710.80	32.709
710.98	32.126
711.17	31.654
711.35	32.337
711.53	31.631
711.72	35.024
711.90	32.906
712.08	34.767
712.26	33.216
712.45	34.171
712.63	33.123
712.81	34.336
712.99	33.004
713.18	34.932
713.36	35.947
713.54	35.310
713.72	34.862
713.91	35.412
714.09	32.774
714.27	34.771
714.45	35.967
714.64	35.967
714.82	35.025
715.00	36.851
715.18	33.865
715.37	34.757
715.55	34.741
715.73	36.204
715.91	37.136
716.10	37.126
716.28	34.815
716.46	36.745
716.64	34.337
716.83	38.438
717.01	35.611
717.19	38.213
717.37	34.341
717.55	36.337
717.74	36.648
717.92	36.669
718.10	33.763
718.28	36.670
718.47	35.844
718.65	37.851
718.83	37.458
719.01	36.617
719.19	36.850
719.38	38.351
719.56	37.712
719.74	37.649
719.92	35.128
720.10	38.223
720.29	36.583
720.47	39.700
720.65	37.944
720.83	39.946
721.01	35.336
721.20	39.512
721.38	38.870
721.56	40.680
721.74	39.262
721.92	41.000
722.11	37.621
722.29	38.901
722.47	41.162
722.65	41.661
722.83	39.906
723.01	44.816
723.20	39.418
723.38	41.442
723.56	39.012
723.74	39.384
723.92	41.035
724.10	44.155
724.29	41.363
724.47	43.934
724.65	40.944
724.83	42.677
725.01	39.440
725.19	41.715
725.38	38.421
725.56	41.986
725.74	41.060
725.92	42.174
726.10	40.429
726.28	42.729
726.46	38.850
726.65	46.750
726.83	39.842
727.01	42.922
727.19	42.587
727.37	41.333
727.55	41.488
727.73	42.904
727.92	42.374
728.10	41.629
728.28	41.616
728.46	45.170
728.64	41.185
728.82	43.268
729.00	41.224
729.19	42.786
729.37	42.946
729.55	42.584
729.73	39.739
729.91	43.746
730.09	41.061
730.27	42.660
730.45	40.788
730.63	43.193
730.82	42.936
731.00	42.763
731.18	41.402
731.36	45.738
731.54	42.450
731.72	42.938
731.90	40.682
732.08	43.367
732.26	41.284
732.45	44.796
732.63	43.176
732.81	45.289
732.99	44.837
733.17	44.626
733.35	43.688
733.53	43.990
733.71	43.547
733.89	45.396
734.07	43.132
734.25	44.757
734.44	43.618
734.62	45.275
734.80	45.541
734.98	46.773
735.16	46.591
735.34	45.947
735.52	48.646
735.70	46.437
735.88	46.668
736.06	48.501
736.24	49.356
736.42	49.767
736.60	47.702
736.78	48.091
736.97	46.998
737.15	49.018
737.33	47.561
737.51	47.722
737.69	49.105
737.87	47.795
738.05	48.147
738.23	50.706
738.41	48.137
738.59	49.418
738.77	47.879
738.95	49.479
739.13	50.713
739.31	48.680
739.49	48.383
739.67	49.074
739.85	49.017
740.03	47.774
740.21	47.773
740.39	52.058
740.57	48.610
740.75	50.521
740.93	49.070
741.11	49.988
741.30	48.865
741.48	50.090
741.66	51.531
741.84	50.488
742.02	49.352
742.20	51.286
742.38	49.904
742.56	50.539
742.74	50.184
742.92	52.475
743.10	48.622
743.28	52.409
743.46	52.584
743.64	49.814
743.82	53.602
744.00	52.541
744.18	51.523
744.36	52.116
744.54	53.682
744.72	54.501
744.90	53.309
745.08	52.595
745.26	49.921
745.44	55.483
745.62	52.719
745.80	52.563
745.98	52.822
746.16	55.738
746.34	52.313
746.52	54.312
746.70	52.731
746.87	54.899
747.05	53.214
747.23	54.757
747.41	53.733
747.59	54.651
747.77	52.337
747.95	52.029
748.13	51.838
748.31	53.378
748.49	50.783
748.67	52.100
748.85	50.987
749.03	57.107
749.21	49.623
749.39	55.459
749.57	49.433
749.75	54.315
749.93	50.996
750.11	53.611
750.29	48.619
750.47	53.637
750.65	49.275
750.83	53.633
751.01	50.471
751.18	51.424
751.36	49.856
751.54	52.463
751.72	54.376
751.90	52.412
752.08	48.005
752.26	53.753
752.44	53.003
752.62	50.550
752.80	52.945
752.98	54.296
753.16	51.634
753.34	53.260
753.52	54.570
753.69	51.910
753.87	51.283
754.05	53.515
754.23	50.466
754.41	55.276
754.59	53.877
754.77	52.088
754.95	52.146
755.13	53.666
755.31	51.334
755.49	51.331
755.66	51.886
755.84	53.365
756.02	52.144
756.20	53.325
756.38	52.505
756.56	50.479
756.74	47.496
756.92	49.273
757.10	52.146
757.28	53.981
757.45	54.850
757.63	53.327
757.81	52.387
757.99	53.785
758.17	50.975
758.35	51.408
758.53	51.142
758.71	52.618
758.88	49.525
759.06	52.959
759.24	47.624
759.42	47.771
759.60	46.811
759.78	48.804
759.96	45.752
760.13	44.865
760.31	40.204
760.49	42.104
760.67	37.776
760.85	42.043
761.03	38.513
761.21	40.247
761.38	38.821
761.56	42.547
761.74	39.865
761.92	43.600
762.10	40.216
762.28	41.385
762.46	38.676
762.63	40.469
762.81	41.248
762.99	39.353
763.17	40.701
763.35	40.522
763.53	39.537
763.70	41.625
763.88	41.117
764.06	40.368
764.24	38.275
764.42	41.927
764.60	39.328
764.77	42.061
764.95	40.743
765.13	40.942
765.31	41.573
765.49	42.573
765.66	40.915
765.84	42.067
766.02	42.021
766.20	43.166
766.38	42.477
766.56	46.251
766.73	43.308
766.91	47.573
767.09	48.532
767.27	47.734
767.45	46.590
767.62	48.982
767.80	47.471
767.98	52.756
768.16	46.914
768.33	50.280
768.51	51.270
768.69	52.656
768.87	49.307
769.05	52.632
769.22	47.875
769.40	55.626
769.58	48.513
769.76	52.476
769.94	47.044
770.11	53.581
770.29	56.838
770.47	53.989
770.65	52.122
770.82	54.574
771.00	53.887
771.18	54.129
771.36	53.314
771.53	53.422
771.71	53.082
771.89	58.964
772.07	52.124
772.25	53.917
772.42	53.064
772.60	52.880
772.78	56.167
772.96	56.098
773.13	53.283
773.31	50.520
773.49	57.366
773.67	56.026
773.84	53.300
774.02	54.235
774.20	53.836
774.37	53.698
774.55	52.920
774.73	55.561
774.91	55.017
775.08	57.184
775.26	58.271
775.44	57.656
775.62	53.897
775.79	55.865
775.97	53.904
776.15	51.841
776.32	55.754
776.50	62.087
776.68	57.881
776.86	53.659
777.03	55.190
777.21	54.038
777.39	57.030
777.56	58.659
777.74	51.354
777.92	52.144
778.10	54.737
778.27	57.430
778.45	57.820
778.63	55.841
778.80	53.868
778.98	55.556
779.16	56.067
779.34	57.058
779.51	53.300
779.69	56.289
779.87	52.088
780.04	55.067
780.22	50.803
780.40	56.400
780.57	56.826
780.75	56.648
780.93	60.094
781.10	54.318
781.28	59.539
781.46	55.731
781.63	55.585
781.81	57.438
781.99	54.884
782.16	52.412
782.34	50.604
782.52	56.459
782.69	59.129
782.87	56.273
783.05	52.945
783.22	55.921
783.40	55.951
783.58	56.166
783.75	51.662
783.93	61.346
784.11	55.377
784.28	55.248
784.46	52.725
784.64	54.561
784.81	53.732
784.99	58.462
785.17	57.992
785.34	51.852
785.52	52.616
785.69	51.160
785.87	53.244
786.05	55.628
786.22	53.474
786.40	59.244
786.58	53.640
786.75	54.661
786.93	52.350
787.11	55.849
787.28	56.354
787.46	54.054
787.63	52.569
787.81	53.040
787.99	54.096
788.16	52.022
788.34	49.490
788.51	52.532
788.69	51.896
788.87	48.171
789.04	43.759
789.22	55.350
789.39	46.449
789.57	48.945
789.75	49.550
789.92	52.938
790.10	46.629
790.27	50.048
790.45	48.105
790.63	45.945
790.80	50.026
790.98	50.924
791.15	46.569
791.33	51.417
791.51	49.443
791.68	51.430
791.86	51.807
792.03	52.416
792.21	49.753
792.39	59.083
792.56	52.328
792.74	53.345
792.91	49.493
793.09	53.281
793.26	51.400
793.44	51.103
793.62	52.090
793.79	57.330
793.97	49.477
794.14	49.942
794.32	50.348
794.49	54.416
794.67	53.039
794.84	55.463
795.02	46.675
795.20	51.595
795.37	51.074
795.55	50.528
795.72	49.776
795.90	51.154
796.07	50.985
796.25	52.744
796.42	48.272
796.60	51.807
796.77	50.653
796.95	55.034
797.13	48.322
797.30	49.839
797.48	49.622
797.65	50.981
797.83	48.952
798.00	50.190
798.18	41.648
798.35	52.337
798.53	46.578
798.70	52.673
798.88	52.356
799.05	47.363
799.23	47.553
799.40	51.259
799.58	45.428
799.75	49.566
799.93	44.675
800.10	49.249
800.28	47.505
800.45	50.437
800.63	43.227
800.80	49.181
800.98	42.875
801.15	47.767
801.33	47.283
801.50	49.034
801.68	51.529
801.85	48.771
802.03	45.308
802.20	51.376
802.38	52.518
802.55	47.007
802.73	47.481
802.90	51.464
803.08	51.472
803.25	53.268
803.43	49.160
803.60	51.344
803.78	47.354
803.95	56.751
804.13	47.631
804.30	48.620
804.48	44.025
804.65	55.843
804.83	51.012
805.00	52.801
805.17	44.532
805.35	48.836
805.52	47.574
805.70	49.123
805.87	50.379
806.05	50.924
806.22	49.537
806.40	48.839
806.57	53.224
806.75	52.188
806.92	54.824
807.09	56.740
807.27	53.244
807.44	53.856
807.62	44.894
807.79	48.483
807.97	49.630
808.14	51.884
808.31	47.320
808.49	47.764
808.66	54.627
808.84	45.000
809.01	45.745
809.19	49.964
809.36	53.507
809.53	49.069
809.71	46.492
809.88	51.048
810.06	56.601
810.23	48.753
810.41	51.223
810.58	53.582
810.75	48.722
810.93	48.830
811.10	46.809
811.28	46.084
811.45	53.290
811.62	42.450
811.80	49.766
811.97	50.147
812.15	49.035
812.32	53.423
812.49	50.352
812.67	41.673
812.84	47.981
813.02	54.052
813.19	41.404
813.36	50.209
813.54	42.626
813.71	48.411
813.89	48.506
814.06	49.134
814.23	51.325
814.41	46.194
814.58	48.200
814.75	52.724
814.93	49.414
815.10	50.833
815.28	35.977
815.45	45.313
815.62	50.126
815.80	44.222
815.97	41.285
816.14	46.895
816.32	55.360
816.49	41.633
816.66	47.663
816.84	46.336
817.01	44.368
817.18	40.917
817.36	49.275
817.53	48.227
817.71	38.704
817.88	46.530
818.05	39.952
818.23	48.478
818.40	36.290
818.57	40.946
818.75	38.823
818.92	48.995
819.09	42.226
819.27	41.550
819.44	40.752
819.61	40.480
819.79	38.696
819.96	48.706
820.13	39.872
820.31	42.600
820.48	47.215
820.65	40.406
820.82	37.520
821.00	40.179
821.17	35.107
821.34	37.978
821.52	33.023
821.69	41.497
821.86	37.297
822.04	37.307
822.21	36.023
822.38	38.842
822.56	37.823
822.73	38.773
822.90	37.957
823.07	39.463
823.25	36.721
823.42	37.809
823.59	36.074
823.77	38.221
823.94	38.177
824.11	38.761
824.29	39.729
824.46	39.225
824.63	38.834
824.80	39.820
824.98	39.862
825.15	38.679
825.32	37.093
825.49	40.445
825.67	38.206
825.84	40.690
826.01	37.837
826.19	39.387
826.36	37.663
826.53	39.724
826.70	37.131
826.88	41.972
827.05	36.163
827.22	37.640
827.39	37.153
827.57	36.552
827.74	34.925
827.91	40.062
828.08	34.024
828.26	38.185
828.43	34.710
828.60	38.398
828.77	37.071
828.95	39.134
829.12	36.010
829.29	34.163
829.46	37.715
829.64	37.769
829.81	36.154
829.98	41.641
830.15	36.378
830.32	37.614
830.50	34.096
830.67	37.560
830.84	37.861
831.01	39.564
831.19	33.353
831.36	38.779
831.53	43.009
831.70	39.593
831.87	40.500
832.05	42.378
832.22	38.185
832.39	35.308
832.56	34.901
832.74	44.419
832.91	37.130
833.08	43.345
833.25	37.100
833.42	41.336
833.60	40.195
833.77	31.236
833.94	37.028
834.11	36.377
834.28	34.153
834.45	33.897
834.63	35.543
834.80	37.349
834.97	32.825
835.14	36.928
835.31	37.165
835.49	36.258
835.66	36.184
835.83	34.934
836.00	34.115
836.17	34.631
836.34	34.318
836.52	40.467
836.69	39.334
836.86	39.926
837.03	39.945
837.20	37.046
837.37	40.036
837.55	39.788
837.72	38.550
837.89	39.362
838.06	45.492
838.23	49.417
838.40	43.710
838.58	42.536
838.75	38.959
838.92	55.359
839.09	60.515
839.26	50.938
839.43	55.096
839.60	51.395
839.78	51.714
839.95	54.455
840.12	52.884
840.29	54.535
840.46	51.779
840.63	50.637
840.80	52.381
840.98	46.970
841.15	52.452
841.32	49.273
841.49	44.403
841.66	47.478
841.83	48.507
842.00	38.796
842.17	41.972
842.34	35.522
842.52	52.414
842.69	48.636
842.86	55.011
843.03	63.474
843.20	48.912
843.37	53.828
843.54	59.459
843.71	55.186
843.88	63.889
844.06	64.444
844.23	55.603
844.40	57.839
844.57	56.886
844.74	56.801
844.91	70.443
845.08	65.785
845.25	71.333
845.42	81.165
845.59	61.775
845.76	68.354
845.94	91.956
846.11	67.418
846.28	54.132
846.45	70.238
846.62	87.421
846.79	52.014
846.96	79.843
847.13	70.121
847.30	84.740
847.47	57.876
847.64	62.857
847.81	64.983
847.98	79.223
848.15	86.530
848.32	83.700
848.50	86.733
848.67	67.880
848.84	71.429
849.01	69.935
849.18	67.181
849.35	85.684
849.52	89.696
849.69	85.466
849.86	79.817
850.03	83.220
850.20	70.935
850.37	68.911
850.54	95.635
850.71	81.238
850.88	74.059
851.05	83.932
851.22	72.634
851.39	86.214
851.56	70.874
851.73	70.637
851.90	82.232
852.07	83.689
852.24	76.421
852.41	73.524
852.58	75.056
852.75	71.190
852.92	78.281
853.09	83.641
853.26	102.795
853.43	73.708
853.60	97.778
853.77	74.580
853.94	73.944
854.11	83.721
854.28	97.862
854.45	81.336
854.62	81.777
854.79	88.053
854.96	80.407
855.13	74.342
855.30	88.158
855.47	85.754
855.64	77.201
855.81	86.364
855.98	99.211
856.15	79.104
856.32	92.188
856.49	74.652
856.66	88.276
856.83	68.992
857.00	71.364
857.17	88.406
857.34	73.497
857.51	79.753
857.68	79.950
857.85	65.209
858.02	101.882
858.19	73.923
858.36	82.684
858.53	83.738
858.70	83.092
858.87	113.070
859.04	77.542
859.21	71.393
859.38	85.078
859.55	95.730
859.72	76.782
859.89	94.162
860.05	74.478
860.22	84.951
860.39	81.551
860.56	79.355
860.73	85.749
860.90	83.128
861.07	102.288
861.24	62.274
861.41	79.570
861.58	65.915
861.75	96.286
861.92	72.554
862.09	85.651
862.26	92.217
862.43	102.139
862.59	81.627
862.76	95.262
862.93	101.600
863.10	79.557
863.27	70.185
863.44	85.385
863.61	70.822
863.78	76.978
863.95	112.500
864.12	82.543
864.29	114.642
864.45	69.574
864.62	78.271
864.79	73.118
864.96	85.714
865.13	68.913
865.30	59.381
865.47	87.662
865.64	116.413
865.81	60.615
865.97	87.727
866.14	75.410
866.31	90.137
866.48	83.908
866.65	71.533
866.82	87.469
866.99	88.889
867.16	58.095
867.33	84.384
867.49	80.760
867.66	81.109
867.83	75.545
868.00	87.131
868.17	64.459
868.34	78.457
868.51	62.716
868.67	81.726
868.84	99.080
869.01	80.217
869.18	79.603
869.35	92.857
869.52	59.629
869.69	93.293
869.85	77.876
870.02	77.403
870.19	80.732
870.36	94.076
870.53	67.073
870.70	69.327
870.86	84.156
871.03	90.323
871.20	92.647
871.37	83.292
871.54	77.895
871.71	69.682
871.87	89.971
872.04	69.703
872.21	68.125
872.38	77.128
872.55	92.476
872.72	71.934
872.88	101.549
873.05	76.510
873.22	86.506
873.39	82.979
873.56	74.129
873.72	95.890
873.89	63.728
874.06	76.702
874.23	93.162
874.40	79.695
874.56	96.567
874.73	84.116
874.90	71.934
875.07	71.169
875.24	69.406
875.40	75.974
875.57	70.406
875.74	77.241
875.91	67.763
876.08	69.042
876.24	97.368
876.41	75.599
876.58	93.333
876.75	82.271
876.92	77.953
877.08	82.778
877.25	57.143
877.42	63.578
877.59	76.298
877.75	85.675
877.92	69.017
878.09	60.644
878.26	78.934
878.42	74.021
878.59	76.543
878.76	73.659
878.93	91.949
879.09	61.224
879.26	72.169
879.43	76.430
879.60	56.030
879.76	62.946
879.93	62.919
880.10	46.628
880.27	46.813
880.43	52.642
880.60	49.223
880.77	53.406
880.94	50.935
881.10	44.839
881.27	44.095
881.44	27.142
881.61	30.179
881.77	36.209
881.94	30.046
882.11	30.395
882.28	27.473
882.44	29.873
882.61	29.041
882.78	30.773
882.94	35.780
883.11	29.426
883.28	31.019
883.45	32.020
883.61	32.174
883.78	29.862
883.95	36.232
884.11	30.504
884.28	32.429
>>>>>End Processed Spectral Data<<<<<
