SpectraSuite Data File
++++++++++++++++++++++++++++++++++++
Date: Thu Sep 26 03:46:45 EST 2019
User: sgrac
Dark Spectrum Present: Yes
Reference Spectrum Present: Yes
Number of Sampled Component Spectra: 1
Spectrometers: USB4E01596
Integration Time (usec): 100000 (USB4E01596)
Spectra Averaged: 3 (USB4E01596)
Boxcar Smoothing: 0 (USB4E01596)
Correct for Electrical Dark: No (USB4E01596)
Strobe/Lamp Enabled: Yes (USB4E01596)
Correct for Detector Non-linearity: No (USB4E01596)
Correct for Stray Light: No (USB4E01596)
Number of Pixels in Processed Spectrum: 3648
>>>>>Begin Processed Spectral Data<<<<<
178.44	-1725.000
178.66	-1725.000
178.87	-1725.000
179.09	-306.122
179.30	-146.429
179.52	-1222.727
179.74	-627.778
179.95	-1646.154
180.17	277.108
180.38	1557.143
180.60	539.286
180.82	331.325
181.03	423.611
181.25	244.231
181.46	-735.484
181.68	368.333
181.89	1593.333
182.11	-1455.556
182.33	362.136
182.54	363.218
182.76	466.071
182.97	803.704
183.19	214.907
183.40	339.806
183.62	3337.500
183.84	301.087
184.05	1658.333
184.27	345.361
184.48	-575.000
184.70	1800.000
184.91	298.000
185.13	1780.000
185.34	721.622
185.56	2330.000
185.78	263.918
185.99	427.273
186.21	602.857
186.42	1300.000
186.64	1000.000
186.85	240.816
187.07	430.000
187.28	443.860
187.50	1360.870
187.72	1061.111
187.93	742.553
188.15	494.340
188.36	887.500
188.58	4033.333
188.79	605.000
189.01	5525.000
189.22	340.179
189.44	1204.167
189.65	2566.667
189.87	708.108
190.09	806.452
190.30	550.794
190.52	-22100.000
190.73	-25500.000
190.95	1125.000
191.16	243.119
191.38	275.000
191.59	823.529
191.81	327.586
192.02	923.333
192.24	363.014
192.45	254.737
192.67	676.596
192.88	705.128
193.10	269.767
193.31	278.652
193.53	1541.176
193.74	318.293
193.96	303.750
194.18	1221.053
194.39	248.696
194.61	2481.818
194.82	322.973
195.04	258.095
195.25	231.250
195.47	643.750
195.68	317.722
195.90	950.000
196.11	259.000
196.33	1092.308
196.54	557.143
196.76	800.000
196.97	759.091
197.19	847.222
197.40	-562.222
197.62	485.455
197.83	242.017
198.05	671.698
198.26	409.859
198.48	2608.333
198.69	0.000
198.91	2844.444
199.12	531.481
199.34	295.652
199.55	225.225
199.77	306.897
199.98	6333.333
200.20	339.394
200.41	216.822
200.63	1190.476
200.84	465.217
201.06	246.552
201.27	1323.810
201.49	1425.000
201.70	-1892.857
201.91	348.936
202.13	664.103
202.34	-331.250
202.56	775.758
202.77	2230.000
202.99	655.882
203.20	449.180
203.42	507.273
203.63	331.868
203.85	222.628
204.06	515.789
204.28	314.286
204.49	870.588
204.71	350.704
204.92	-11650.000
205.14	703.571
205.35	408.696
205.56	904.167
205.78	501.695
205.99	369.811
206.21	234.259
206.42	293.182
206.64	725.000
206.85	278.571
207.07	245.600
207.28	188.034
207.50	459.091
207.71	1095.238
207.93	-525.000
208.14	-2354.545
208.35	856.000
208.57	243.333
208.78	450.000
209.00	621.053
209.21	7025.000
209.43	285.577
209.64	781.250
209.86	3920.000
210.07	658.537
210.28	-552.632
210.50	5400.000
210.71	760.000
210.93	201.724
211.14	461.538
211.36	900.000
211.57	498.214
211.78	1123.810
212.00	900.000
212.21	398.276
212.43	757.143
212.64	194.175
212.86	383.333
213.07	216.667
213.29	1593.333
213.50	375.949
213.71	185.484
213.93	590.909
214.14	275.000
214.36	201.765
214.57	412.766
214.78	292.683
215.00	360.000
215.21	292.593
215.43	807.407
215.64	250.000
215.86	180.576
216.07	932.000
216.28	264.557
216.50	277.358
216.71	378.049
216.93	604.762
217.14	2754.545
217.35	797.143
217.57	404.839
217.78	265.487
218.00	323.404
218.21	197.368
218.42	648.837
218.64	247.525
218.85	250.000
219.07	248.000
219.28	608.571
219.49	581.579
219.71	542.000
219.92	-2080.000
220.14	409.375
220.35	1195.833
220.56	-9000.000
220.78	219.048
220.99	480.000
221.21	300.000
221.42	397.436
221.63	300.000
221.85	0.000
222.06	239.623
222.28	860.000
222.49	406.061
222.70	1564.286
222.92	401.282
223.13	183.333
223.34	203.261
223.56	186.957
223.77	204.459
223.99	200.621
224.20	180.128
224.41	442.553
224.63	170.748
224.84	204.505
225.05	222.137
225.27	149.711
225.48	238.596
225.69	151.099
225.91	224.348
226.12	188.961
226.34	104.118
226.55	142.647
226.76	136.715
226.98	128.390
227.19	101.676
227.40	170.000
227.62	91.791
227.83	123.293
228.04	103.214
228.26	76.982
228.47	69.118
228.69	48.244
228.90	48.330
229.11	35.070
229.33	61.333
229.54	41.424
229.75	38.269
229.97	40.366
230.18	35.196
230.39	31.991
230.61	25.550
230.82	29.701
231.03	28.457
231.25	46.206
231.46	33.001
231.67	44.557
231.89	38.702
232.10	38.322
232.31	40.417
232.53	34.621
232.74	31.409
232.95	51.858
233.17	40.724
233.38	43.011
233.59	52.398
233.81	53.177
234.02	43.381
234.23	53.307
234.45	50.079
234.66	41.176
234.87	47.038
235.09	45.201
235.30	57.565
235.51	42.230
235.73	37.604
235.94	41.166
236.15	48.443
236.36	39.258
236.58	39.275
236.79	34.557
237.00	32.879
237.22	40.000
237.43	48.637
237.64	40.414
237.86	40.167
238.07	44.118
238.28	41.724
238.50	43.649
238.71	30.128
238.92	37.270
239.13	40.361
239.35	47.550
239.56	38.636
239.77	34.517
239.99	41.857
240.20	41.153
240.41	34.871
240.63	35.946
240.84	39.084
241.05	26.188
241.26	23.398
241.48	28.774
241.69	29.214
241.90	21.113
242.12	23.082
242.33	26.503
242.54	11.903
242.75	16.714
242.97	20.123
243.18	13.858
243.39	13.170
243.61	17.278
243.82	16.121
244.03	15.744
244.24	14.331
244.46	16.879
244.67	18.109
244.88	18.471
245.09	10.526
245.31	17.832
245.52	16.177
245.73	18.236
245.95	27.261
246.16	20.081
246.37	12.811
246.58	16.447
246.80	16.934
247.01	18.136
247.22	13.815
247.43	11.815
247.65	15.392
247.86	13.439
248.07	9.929
248.28	11.669
248.50	11.673
248.71	9.743
248.92	9.578
249.13	10.453
249.35	12.107
249.56	12.187
249.77	9.890
249.98	11.189
250.20	13.404
250.41	14.507
250.62	16.566
250.83	15.017
251.05	19.545
251.26	13.531
251.47	17.543
251.68	16.989
251.90	18.777
252.11	14.036
252.32	19.140
252.53	19.850
252.75	20.140
252.96	17.033
253.17	16.463
253.38	11.884
253.59	13.402
253.81	14.424
254.02	16.522
254.23	12.177
254.44	15.313
254.66	17.446
254.87	14.310
255.08	17.529
255.29	19.938
255.50	16.474
255.72	20.734
255.93	24.572
256.14	19.383
256.35	20.197
256.57	24.963
256.78	17.375
256.99	18.938
257.20	25.505
257.41	21.681
257.63	13.089
257.84	17.469
258.05	18.269
258.26	17.016
258.47	14.828
258.69	12.738
258.90	14.938
259.11	12.506
259.32	11.396
259.53	10.030
259.75	10.761
259.96	7.534
260.17	7.392
260.38	8.539
260.59	8.283
260.81	8.063
261.02	7.694
261.23	8.732
261.44	9.722
261.65	8.743
261.87	8.927
262.08	10.322
262.29	10.669
262.50	8.018
262.71	10.327
262.92	12.186
263.14	10.152
263.35	11.553
263.56	10.208
263.77	12.057
263.98	12.401
264.20	15.975
264.41	10.835
264.62	10.899
264.83	8.967
265.04	19.160
265.25	13.563
265.47	12.285
265.68	14.461
265.89	14.701
266.10	11.621
266.31	17.403
266.52	9.667
266.74	12.821
266.95	9.764
267.16	13.168
267.37	11.939
267.58	12.898
267.79	12.596
268.01	10.608
268.22	11.107
268.43	12.317
268.64	12.452
268.85	9.955
269.06	11.022
269.27	11.988
269.49	8.553
269.70	10.202
269.91	10.834
270.12	7.508
270.33	12.025
270.54	11.772
270.75	8.563
270.97	11.797
271.18	8.516
271.39	10.490
271.60	11.018
271.81	9.333
272.02	7.426
272.23	10.472
272.45	8.356
272.66	8.413
272.87	10.621
273.08	7.955
273.29	9.026
273.50	8.463
273.71	8.235
273.92	8.609
274.14	9.121
274.35	8.007
274.56	10.346
274.77	9.745
274.98	11.239
275.19	8.603
275.40	9.561
275.61	7.170
275.83	10.466
276.04	11.516
276.25	11.583
276.46	9.630
276.67	11.667
276.88	10.618
277.09	11.873
277.30	10.942
277.51	9.566
277.73	8.643
277.94	7.485
278.15	11.364
278.36	13.017
278.57	9.135
278.78	8.353
278.99	10.409
279.20	13.027
279.41	14.489
279.62	10.538
279.84	9.519
280.05	9.647
280.26	6.561
280.47	12.830
280.68	8.393
280.89	9.036
281.10	11.753
281.31	8.840
281.52	10.963
281.73	9.246
281.94	7.816
282.16	10.926
282.37	9.632
282.58	8.742
282.79	11.626
283.00	10.916
283.21	7.269
283.42	6.281
283.63	7.669
283.84	8.622
284.05	9.116
284.26	8.012
284.47	9.796
284.68	9.207
284.89	8.341
285.11	7.321
285.32	8.822
285.53	8.899
285.74	9.462
285.95	9.466
286.16	7.642
286.37	8.670
286.58	6.478
286.79	8.161
287.00	7.281
287.21	8.778
287.42	8.600
287.63	8.748
287.84	8.232
288.05	8.638
288.26	8.231
288.48	9.381
288.69	7.423
288.90	8.136
289.11	11.311
289.32	8.833
289.53	7.514
289.74	6.416
289.95	9.374
290.16	9.422
290.37	7.981
290.58	7.541
290.79	6.214
291.00	8.345
291.21	7.900
291.42	7.512
291.63	8.079
291.84	8.640
292.05	7.704
292.26	8.212
292.47	7.911
292.68	8.342
292.89	8.021
293.10	10.701
293.31	10.491
293.52	8.068
293.73	8.010
293.94	8.566
294.15	8.596
294.36	8.816
294.57	11.114
294.79	9.624
295.00	6.737
295.21	10.408
295.42	7.674
295.63	9.106
295.84	8.308
296.05	7.239
296.26	8.489
296.47	7.659
296.68	7.999
296.89	10.426
297.10	10.209
297.31	10.351
297.52	7.402
297.73	9.203
297.94	8.178
298.15	8.370
298.36	8.082
298.57	7.668
298.78	8.477
298.99	7.744
299.20	9.206
299.41	9.780
299.62	8.725
299.83	8.226
300.04	9.275
300.25	8.887
300.46	9.567
300.67	10.339
300.88	11.335
301.09	6.340
301.30	9.417
301.50	9.132
301.71	13.459
301.92	9.622
302.13	8.403
302.34	8.825
302.55	9.047
302.76	9.736
302.97	9.130
303.18	10.385
303.39	8.460
303.60	10.373
303.81	11.279
304.02	7.350
304.23	9.705
304.44	7.601
304.65	9.151
304.86	10.246
305.07	7.477
305.28	9.406
305.49	12.104
305.70	11.182
305.91	8.639
306.12	9.059
306.33	10.341
306.54	9.687
306.75	10.311
306.96	12.506
307.17	10.906
307.38	9.510
307.58	10.738
307.79	11.181
308.00	10.567
308.21	10.316
308.42	10.181
308.63	8.634
308.84	10.071
309.05	9.332
309.26	8.648
309.47	9.014
309.68	10.558
309.89	11.005
310.10	10.020
310.31	9.445
310.52	8.957
310.73	11.277
310.94	8.599
311.14	9.865
311.35	9.663
311.56	10.846
311.77	8.299
311.98	8.314
312.19	8.179
312.40	8.377
312.61	9.234
312.82	9.268
313.03	9.890
313.24	9.641
313.45	10.493
313.66	9.192
313.86	11.897
314.07	8.958
314.28	10.527
314.49	9.149
314.70	10.114
314.91	12.834
315.12	10.549
315.33	12.569
315.54	10.401
315.75	9.378
315.96	8.403
316.16	6.640
316.37	10.210
316.58	9.417
316.79	10.875
317.00	12.082
317.21	10.532
317.42	12.131
317.63	10.826
317.84	9.549
318.05	11.064
318.25	9.148
318.46	9.336
318.67	10.876
318.88	11.830
319.09	12.727
319.30	9.091
319.51	11.406
319.72	12.737
319.93	9.319
320.13	8.712
320.34	10.830
320.55	10.464
320.76	10.907
320.97	11.758
321.18	12.702
321.39	11.381
321.60	9.101
321.80	12.529
322.01	12.013
322.22	11.091
322.43	9.902
322.64	8.641
322.85	12.227
323.06	11.939
323.27	12.365
323.47	11.770
323.68	9.392
323.89	9.006
324.10	11.596
324.31	8.747
324.52	13.701
324.73	11.334
324.93	10.099
325.14	11.001
325.35	12.772
325.56	10.223
325.77	9.716
325.98	10.046
326.19	11.694
326.39	8.098
326.60	11.771
326.81	10.993
327.02	8.524
327.23	10.456
327.44	13.358
327.64	7.591
327.85	9.351
328.06	12.111
328.27	14.716
328.48	13.271
328.69	9.694
328.90	11.786
329.10	9.551
329.31	11.172
329.52	12.030
329.73	13.972
329.94	11.466
330.15	14.785
330.35	12.719
330.56	12.729
330.77	10.561
330.98	12.446
331.19	11.892
331.39	12.375
331.60	10.100
331.81	11.072
332.02	14.453
332.23	12.199
332.44	9.715
332.64	12.901
332.85	10.663
333.06	13.551
333.27	9.060
333.48	12.561
333.68	11.813
333.89	10.985
334.10	9.729
334.31	13.921
334.52	13.398
334.72	11.067
334.93	10.484
335.14	9.029
335.35	11.214
335.56	13.620
335.76	9.285
335.97	13.757
336.18	9.874
336.39	14.516
336.60	12.117
336.80	11.576
337.01	12.525
337.22	11.978
337.43	12.067
337.64	14.144
337.84	11.881
338.05	12.685
338.26	13.636
338.47	13.709
338.68	10.051
338.88	13.128
339.09	12.121
339.30	11.095
339.51	11.350
339.71	13.797
339.92	9.468
340.13	10.920
340.34	11.801
340.55	12.060
340.75	13.377
340.96	10.805
341.17	12.599
341.38	10.512
341.58	10.886
341.79	10.572
342.00	9.681
342.21	12.332
342.41	8.526
342.62	10.563
342.83	12.075
343.04	9.271
343.24	12.506
343.45	12.182
343.66	10.034
343.87	11.829
344.07	9.975
344.28	11.531
344.49	12.883
344.70	13.123
344.90	9.624
345.11	10.099
345.32	10.248
345.53	10.380
345.73	11.142
345.94	13.344
346.15	12.145
346.36	9.829
346.56	11.319
346.77	12.570
346.98	10.264
347.19	11.387
347.39	11.002
347.60	10.335
347.81	9.704
348.02	12.166
348.22	7.959
348.43	10.972
348.64	9.467
348.84	9.914
349.05	11.156
349.26	14.212
349.47	9.054
349.67	9.444
349.88	9.836
350.09	9.992
350.30	12.808
350.50	11.232
350.71	10.847
350.92	10.571
351.12	9.543
351.33	11.209
351.54	9.460
351.74	11.488
351.95	8.549
352.16	11.038
352.37	11.172
352.57	10.594
352.78	9.808
352.99	9.953
353.19	9.987
353.40	10.440
353.61	10.548
353.82	11.776
354.02	9.795
354.23	10.072
354.44	11.163
354.64	10.326
354.85	10.139
355.06	10.605
355.26	8.645
355.47	10.447
355.68	11.708
355.88	10.646
356.09	9.633
356.30	8.551
356.51	10.570
356.71	10.670
356.92	8.058
357.13	9.943
357.33	11.356
357.54	8.971
357.75	7.867
357.95	10.621
358.16	9.622
358.37	12.018
358.57	9.368
358.78	11.921
358.99	9.093
359.19	9.829
359.40	10.925
359.61	10.798
359.81	10.985
360.02	12.386
360.23	8.991
360.43	10.130
360.64	9.235
360.85	9.944
361.05	8.264
361.26	10.715
361.47	10.096
361.67	11.154
361.88	7.722
362.09	9.579
362.29	8.045
362.50	8.706
362.70	8.023
362.91	9.727
363.12	8.149
363.32	9.789
363.53	8.707
363.74	10.301
363.94	7.678
364.15	10.010
364.36	9.299
364.56	8.668
364.77	8.873
364.98	11.902
365.18	9.599
365.39	11.176
365.59	8.287
365.80	9.168
366.01	9.714
366.21	9.074
366.42	8.183
366.63	9.407
366.83	8.587
367.04	7.163
367.24	9.128
367.45	7.768
367.66	6.878
367.86	9.013
368.07	8.515
368.28	9.116
368.48	7.950
368.69	7.410
368.89	7.971
369.10	9.293
369.31	8.719
369.51	8.333
369.72	10.800
369.92	11.191
370.13	7.004
370.34	9.257
370.54	6.473
370.75	9.898
370.95	6.779
371.16	9.421
371.37	7.924
371.57	8.627
371.78	8.742
371.98	9.016
372.19	8.570
372.40	9.797
372.60	9.348
372.81	8.127
373.01	6.487
373.22	7.181
373.43	8.814
373.63	8.077
373.84	8.656
374.04	8.715
374.25	7.726
374.46	9.539
374.66	8.835
374.87	9.728
375.07	6.069
375.28	6.943
375.48	8.666
375.69	9.362
375.90	6.430
376.10	6.399
376.31	7.268
376.51	7.184
376.72	6.924
376.92	6.990
377.13	8.265
377.34	8.718
377.54	7.604
377.75	8.735
377.95	6.558
378.16	8.579
378.36	8.136
378.57	8.799
378.77	7.670
378.98	7.042
379.19	6.842
379.39	7.514
379.60	7.293
379.80	7.217
380.01	8.217
380.21	7.343
380.42	8.416
380.62	7.848
380.83	7.510
381.04	6.974
381.24	8.023
381.45	7.259
381.65	6.807
381.86	8.283
382.06	8.244
382.27	5.827
382.47	6.401
382.68	8.524
382.88	6.526
383.09	6.258
383.29	7.724
383.50	7.888
383.71	7.074
383.91	6.913
384.12	6.989
384.32	6.388
384.53	6.964
384.73	5.812
384.94	6.147
385.14	6.650
385.35	5.529
385.55	7.388
385.76	6.152
385.96	6.511
386.17	5.863
386.37	7.784
386.58	5.859
386.78	7.918
386.99	5.543
387.19	7.131
387.40	5.752
387.60	8.706
387.81	6.831
388.01	6.806
388.22	7.328
388.42	7.611
388.63	7.135
388.83	8.030
389.04	5.323
389.24	6.455
389.45	6.521
389.65	5.987
389.86	6.212
390.06	5.399
390.27	5.903
390.47	6.671
390.68	5.527
390.88	7.379
391.09	7.079
391.29	7.040
391.50	7.206
391.70	6.838
391.91	6.302
392.11	6.525
392.32	6.851
392.52	6.927
392.73	6.485
392.93	6.379
393.14	6.304
393.34	6.455
393.55	6.959
393.75	6.353
393.95	6.027
394.16	6.860
394.36	7.348
394.57	7.019
394.77	6.626
394.98	6.219
395.18	6.904
395.39	6.258
395.59	6.922
395.80	7.146
396.00	6.554
396.21	6.657
396.41	5.028
396.61	6.815
396.82	6.504
397.02	7.770
397.23	6.869
397.43	6.278
397.64	5.762
397.84	7.304
398.05	4.610
398.25	7.381
398.45	5.902
398.66	7.201
398.86	6.006
399.07	6.744
399.27	5.852
399.48	8.075
399.68	6.094
399.89	5.913
400.09	6.798
400.29	6.911
400.50	5.638
400.70	6.622
400.91	5.535
401.11	6.147
401.32	6.525
401.52	5.256
401.72	5.628
401.93	7.100
402.13	6.213
402.34	6.043
402.54	5.912
402.75	6.473
402.95	5.130
403.15	7.878
403.36	5.363
403.56	6.897
403.77	5.183
403.97	5.992
404.17	5.315
404.38	5.838
404.58	5.124
404.79	6.189
404.99	6.509
405.19	5.970
405.40	5.900
405.60	6.417
405.81	5.241
406.01	5.300
406.21	6.019
406.42	5.941
406.62	6.091
406.83	6.238
407.03	6.304
407.23	5.412
407.44	5.452
407.64	5.299
407.85	5.957
408.05	6.011
408.25	5.645
408.46	7.622
408.66	6.118
408.87	5.651
409.07	5.997
409.27	5.714
409.48	6.496
409.68	6.607
409.88	4.821
410.09	5.334
410.29	6.240
410.50	6.591
410.70	4.565
410.90	5.868
411.11	5.920
411.31	5.531
411.51	6.223
411.72	6.698
411.92	5.205
412.12	5.129
412.33	4.861
412.53	4.994
412.74	4.838
412.94	5.740
413.14	5.529
413.35	6.206
413.55	5.677
413.75	6.199
413.96	5.247
414.16	5.764
414.36	5.727
414.57	5.298
414.77	4.950
414.97	6.110
415.18	5.371
415.38	5.529
415.58	5.439
415.79	5.292
415.99	5.143
416.19	6.035
416.40	6.041
416.60	5.759
416.80	5.948
417.01	6.135
417.21	4.973
417.41	6.169
417.62	6.050
417.82	6.325
418.02	4.825
418.23	5.763
418.43	5.103
418.63	5.648
418.84	6.102
419.04	5.304
419.24	6.199
419.45	5.675
419.65	6.324
419.85	5.755
420.06	6.080
420.26	5.921
420.46	5.782
420.67	6.225
420.87	6.316
421.07	6.718
421.28	6.028
421.48	6.580
421.68	6.416
421.88	6.660
422.09	6.020
422.29	5.846
422.49	5.847
422.70	6.400
422.90	5.980
423.10	6.246
423.31	5.986
423.51	6.548
423.71	5.756
423.91	6.328
424.12	5.910
424.32	6.592
424.52	6.220
424.73	5.933
424.93	6.098
425.13	6.282
425.33	5.784
425.54	6.582
425.74	6.344
425.94	6.534
426.15	6.289
426.35	5.831
426.55	6.177
426.75	6.164
426.96	6.185
427.16	6.045
427.36	5.877
427.57	6.467
427.77	5.324
427.97	6.178
428.17	5.852
428.38	6.124
428.58	4.773
428.78	6.035
428.98	4.988
429.19	5.439
429.39	4.706
429.59	5.511
429.79	4.464
430.00	5.450
430.20	4.525
430.40	5.394
430.60	4.624
430.81	5.445
431.01	4.988
431.21	5.344
431.41	4.846
431.62	5.023
431.82	5.011
432.02	6.037
432.22	5.089
432.43	4.689
432.63	4.642
432.83	5.160
433.03	5.358
433.24	5.133
433.44	4.859
433.64	5.900
433.84	4.988
434.05	5.524
434.25	5.259
434.45	5.759
434.65	5.822
434.85	5.987
435.06	5.829
435.26	5.632
435.46	5.318
435.66	6.119
435.87	5.107
436.07	5.713
436.27	5.110
436.47	5.110
436.67	4.750
436.88	5.386
437.08	5.340
437.28	5.633
437.48	4.560
437.69	5.613
437.89	5.185
438.09	6.194
438.29	4.700
438.49	5.696
438.70	5.181
438.90	5.345
439.10	4.712
439.30	5.330
439.50	4.970
439.71	6.125
439.91	5.381
440.11	5.631
440.31	5.330
440.51	5.029
440.72	4.889
440.92	5.414
441.12	5.238
441.32	6.197
441.52	5.887
441.72	5.552
441.93	5.645
442.13	5.756
442.33	5.178
442.53	5.943
442.73	5.083
442.94	5.748
443.14	5.589
443.34	5.566
443.54	5.475
443.74	5.736
443.94	5.184
444.15	5.395
444.35	4.901
444.55	5.421
444.75	5.279
444.95	5.570
445.15	4.964
445.36	5.178
445.56	4.251
445.76	5.562
445.96	5.043
446.16	5.162
446.36	4.577
446.57	5.734
446.77	4.729
446.97	5.591
447.17	5.593
447.37	5.585
447.57	5.588
447.77	5.434
447.98	5.552
448.18	5.692
448.38	5.194
448.58	5.450
448.78	5.533
448.98	5.267
449.18	5.252
449.39	5.368
449.59	4.884
449.79	5.553
449.99	4.941
450.19	5.526
450.39	5.063
450.59	5.089
450.79	4.767
451.00	5.509
451.20	5.915
451.40	4.985
451.60	4.333
451.80	5.462
452.00	4.752
452.20	5.282
452.40	4.675
452.61	4.955
452.81	4.816
453.01	5.228
453.21	5.009
453.41	5.032
453.61	4.641
453.81	4.863
454.01	4.812
454.21	5.441
454.42	5.371
454.62	5.236
454.82	4.625
455.02	4.799
455.22	4.389
455.42	5.011
455.62	4.199
455.82	4.646
456.02	4.555
456.23	5.045
456.43	5.176
456.63	4.914
456.83	4.165
457.03	4.862
457.23	4.663
457.43	4.749
457.63	4.231
457.83	5.725
458.03	4.574
458.23	4.731
458.43	4.510
458.64	5.384
458.84	5.065
459.04	4.780
459.24	4.868
459.44	5.202
459.64	5.182
459.84	5.216
460.04	4.805
460.24	5.313
460.44	5.058
460.64	5.326
460.84	5.324
461.04	5.696
461.24	5.441
461.45	5.576
461.65	5.521
461.85	5.659
462.05	5.319
462.25	5.686
462.45	5.487
462.65	5.706
462.85	4.677
463.05	5.079
463.25	3.772
463.45	5.334
463.65	5.135
463.85	5.256
464.05	4.756
464.25	5.029
464.45	4.986
464.65	4.725
464.85	4.691
465.05	4.547
465.26	4.753
465.46	4.859
465.66	5.023
465.86	5.547
466.06	4.985
466.26	5.035
466.46	4.194
466.66	4.681
466.86	4.538
467.06	5.262
467.26	4.289
467.46	5.675
467.66	4.538
467.86	4.752
468.06	4.793
468.26	4.732
468.46	4.400
468.66	5.080
468.86	4.331
469.06	5.122
469.26	4.325
469.46	4.508
469.66	4.766
469.86	5.360
470.06	4.315
470.26	5.064
470.46	4.193
470.66	5.452
470.86	4.437
471.06	4.758
471.26	3.980
471.46	4.089
471.66	4.611
471.86	4.742
472.06	4.923
472.26	5.128
472.46	4.968
472.66	4.575
472.86	4.737
473.06	4.808
473.26	4.535
473.46	4.985
473.66	4.326
473.86	5.044
474.06	4.287
474.26	4.957
474.46	4.500
474.66	4.667
474.86	4.909
475.06	4.992
475.26	4.410
475.46	4.759
475.66	4.025
475.86	4.996
476.06	5.059
476.26	4.941
476.46	4.651
476.66	4.758
476.86	4.256
477.06	4.627
477.26	4.501
477.46	4.870
477.65	4.543
477.85	5.075
478.05	4.173
478.25	5.294
478.45	4.119
478.65	4.815
478.85	4.006
479.05	4.803
479.25	4.748
479.45	5.041
479.65	4.401
479.85	4.580
480.05	4.459
480.25	4.993
480.45	4.665
480.65	5.461
480.85	4.959
481.05	5.338
481.25	4.818
481.44	4.768
481.64	4.312
481.84	5.144
482.04	4.916
482.24	4.920
482.44	4.873
482.64	4.902
482.84	4.841
483.04	5.079
483.24	5.084
483.44	5.461
483.64	5.299
483.84	5.380
484.04	5.556
484.23	5.568
484.43	5.590
484.63	5.775
484.83	5.723
485.03	6.036
485.23	5.968
485.43	5.858
485.63	5.868
485.83	5.815
486.03	5.845
486.23	6.118
486.42	5.866
486.62	6.088
486.82	5.722
487.02	5.797
487.22	5.495
487.42	5.666
487.62	5.434
487.82	5.692
488.02	5.481
488.22	5.714
488.41	5.667
488.61	5.728
488.81	5.665
489.01	5.704
489.21	5.772
489.41	5.751
489.61	5.648
489.81	5.906
490.01	5.928
490.20	5.720
490.40	5.537
490.60	5.801
490.80	5.232
491.00	5.688
491.20	5.629
491.40	5.662
491.60	5.102
491.79	5.559
491.99	5.355
492.19	5.652
492.39	5.588
492.59	5.625
492.79	5.699
492.99	5.821
493.19	5.690
493.38	5.732
493.58	5.634
493.78	5.860
493.98	5.837
494.18	5.781
494.38	5.373
494.58	5.625
494.77	5.070
494.97	4.975
495.17	4.708
495.37	5.396
495.57	4.772
495.77	5.268
495.96	5.257
496.16	5.048
496.36	5.005
496.56	5.081
496.76	4.312
496.96	5.364
497.15	4.723
497.35	5.479
497.55	5.097
497.75	5.188
497.95	4.672
498.15	5.612
498.34	5.222
498.54	5.152
498.74	5.956
498.94	5.556
499.14	5.046
499.34	5.293
499.53	5.063
499.73	5.419
499.93	4.919
500.13	5.398
500.33	4.873
500.52	5.061
500.72	4.901
500.92	4.789
501.12	4.625
501.32	5.078
501.52	5.032
501.71	5.143
501.91	4.287
502.11	5.117
502.31	4.345
502.51	5.132
502.70	4.875
502.90	5.030
503.10	4.596
503.30	5.293
503.50	4.763
503.69	4.839
503.89	4.949
504.09	5.333
504.29	4.683
504.48	5.331
504.68	5.293
504.88	5.405
505.08	4.519
505.28	5.300
505.47	5.126
505.67	5.527
505.87	4.880
506.07	5.128
506.27	4.757
506.46	5.714
506.66	4.830
506.86	4.947
507.06	5.595
507.25	5.248
507.45	4.954
507.65	5.240
507.85	5.105
508.04	5.269
508.24	5.266
508.44	5.347
508.64	5.241
508.83	5.319
509.03	4.958
509.23	5.321
509.43	4.697
509.63	5.266
509.82	5.135
510.02	5.281
510.22	5.099
510.42	5.765
510.61	5.109
510.81	5.670
511.01	5.499
511.21	5.529
511.40	4.827
511.60	5.790
511.80	5.242
511.99	5.835
512.19	5.623
512.39	5.910
512.59	4.917
512.78	5.885
512.98	5.610
513.18	5.412
513.38	5.226
513.57	6.106
513.77	5.240
513.97	5.600
514.17	5.478
514.36	5.804
514.56	5.243
514.76	6.048
514.95	5.248
515.15	5.342
515.35	5.220
515.55	5.632
515.74	5.725
515.94	6.062
516.14	5.109
516.33	5.681
516.53	5.350
516.73	5.350
516.93	5.486
517.12	5.941
517.32	5.010
517.52	6.078
517.71	5.380
517.91	5.643
518.11	5.753
518.30	5.527
518.50	5.341
518.70	5.735
518.90	5.679
519.09	6.079
519.29	5.656
519.49	6.196
519.68	5.683
519.88	6.238
520.08	5.906
520.27	6.319
520.47	6.091
520.67	5.957
520.86	6.107
521.06	6.311
521.26	5.611
521.45	6.078
521.65	5.875
521.85	5.696
522.04	5.624
522.24	5.829
522.44	5.576
522.63	6.049
522.83	5.563
523.03	5.915
523.22	5.477
523.42	6.101
523.62	6.005
523.81	5.784
524.01	6.210
524.21	5.832
524.40	5.373
524.60	5.959
524.80	5.480
524.99	5.944
525.19	5.666
525.39	6.162
525.58	5.539
525.78	6.109
525.98	5.955
526.17	6.490
526.37	6.387
526.57	6.335
526.76	6.231
526.96	6.309
527.15	6.148
527.35	6.337
527.55	6.089
527.74	6.385
527.94	6.390
528.14	6.381
528.33	6.115
528.53	6.409
528.72	6.628
528.92	6.530
529.12	6.525
529.31	6.588
529.51	6.520
529.71	6.757
529.90	6.645
530.10	6.833
530.29	6.696
530.49	6.865
530.69	6.981
530.88	6.814
531.08	6.699
531.28	6.723
531.47	6.699
531.67	6.764
531.86	6.593
532.06	6.516
532.26	6.315
532.45	6.425
532.65	6.416
532.84	6.538
533.04	6.245
533.24	6.377
533.43	6.045
533.63	6.706
533.82	6.441
534.02	6.648
534.22	6.450
534.41	6.678
534.61	6.640
534.80	6.744
535.00	6.688
535.19	6.695
535.39	6.704
535.59	6.744
535.78	6.609
535.98	6.499
536.17	6.205
536.37	6.493
536.57	6.443
536.76	6.664
536.96	6.705
537.15	6.804
537.35	6.244
537.54	6.779
537.74	6.417
537.93	6.905
538.13	6.404
538.33	6.743
538.52	6.409
538.72	6.432
538.91	6.617
539.11	6.893
539.30	6.222
539.50	6.406
539.70	6.389
539.89	6.658
540.09	6.357
540.28	6.772
540.48	6.320
540.67	6.759
540.87	6.634
541.06	6.863
541.26	6.461
541.45	6.866
541.65	6.809
541.85	6.862
542.04	6.823
542.24	7.123
542.43	6.941
542.63	7.039
542.82	7.090
543.02	7.063
543.21	7.078
543.41	7.279
543.60	6.987
543.80	7.513
543.99	7.266
544.19	7.018
544.38	6.861
544.58	7.228
544.77	6.845
544.97	7.169
545.16	6.635
545.36	7.167
545.56	7.100
545.75	6.929
545.95	6.472
546.14	7.219
546.34	6.515
546.53	6.927
546.73	6.597
546.92	7.012
547.12	6.494
547.31	7.273
547.51	6.800
547.70	7.240
547.90	6.863
548.09	7.320
548.29	6.727
548.48	7.397
548.68	7.061
548.87	7.212
549.07	7.010
549.26	7.102
549.46	7.001
549.65	7.014
549.84	6.956
550.04	6.645
550.23	6.588
550.43	6.869
550.62	6.601
550.82	6.967
551.01	6.036
551.21	6.930
551.40	6.341
551.60	6.698
551.79	6.761
551.99	7.065
552.18	6.309
552.38	7.113
552.57	7.038
552.77	7.202
552.96	7.021
553.16	7.554
553.35	6.962
553.54	7.374
553.74	7.282
553.93	8.129
554.13	7.476
554.32	7.833
554.52	7.138
554.71	7.890
554.91	7.052
555.10	7.916
555.29	6.981
555.49	7.021
555.68	6.938
555.88	7.304
556.07	6.771
556.27	7.894
556.46	7.101
556.66	7.369
556.85	7.558
557.04	7.802
557.24	7.370
557.43	8.001
557.63	7.418
557.82	7.515
558.02	7.089
558.21	8.034
558.40	7.403
558.60	7.741
558.79	7.685
558.99	7.830
559.18	7.640
559.38	7.861
559.57	7.902
559.76	8.347
559.96	8.083
560.15	8.820
560.35	7.439
560.54	7.980
560.73	7.606
560.93	8.508
561.12	7.957
561.32	8.134
561.51	8.608
561.70	8.400
561.90	8.071
562.09	8.647
562.29	7.755
562.48	8.766
562.67	8.579
562.87	8.505
563.06	8.358
563.26	8.695
563.45	8.453
563.64	9.128
563.84	8.955
564.03	9.125
564.23	8.516
564.42	9.757
564.61	8.264
564.81	9.051
565.00	8.861
565.20	9.499
565.39	9.374
565.58	9.591
565.78	8.918
565.97	9.542
566.16	9.789
566.36	10.350
566.55	9.443
566.74	9.473
566.94	9.375
567.13	10.181
567.33	9.752
567.52	10.152
567.71	9.865
567.91	9.892
568.10	10.405
568.29	10.203
568.49	10.102
568.68	10.032
568.87	9.696
569.07	10.527
569.26	9.902
569.45	10.379
569.65	9.717
569.84	10.745
570.04	9.769
570.23	10.926
570.42	10.057
570.62	10.303
570.81	10.122
571.00	10.328
571.20	10.492
571.39	10.734
571.58	9.722
571.78	10.813
571.97	10.689
572.16	10.532
572.36	11.172
572.55	10.854
572.74	10.615
572.94	10.441
573.13	11.088
573.32	11.057
573.51	10.250
573.71	10.988
573.90	10.459
574.09	11.082
574.29	11.029
574.48	10.935
574.67	10.844
574.87	11.178
575.06	10.607
575.25	11.129
575.45	11.157
575.64	11.502
575.83	11.077
576.03	11.209
576.22	10.775
576.41	10.966
576.60	10.807
576.80	10.916
576.99	11.007
577.18	11.509
577.38	10.967
577.57	11.436
577.76	11.261
577.95	10.983
578.15	10.250
578.34	10.991
578.53	10.130
578.73	10.775
578.92	10.544
579.11	10.415
579.30	10.118
579.50	10.051
579.69	10.641
579.88	10.586
580.08	9.934
580.27	10.822
580.46	10.961
580.65	10.482
580.85	10.184
581.04	11.200
581.23	10.124
581.42	10.846
581.62	10.345
581.81	10.398
582.00	10.244
582.19	10.554
582.39	10.648
582.58	10.334
582.77	10.275
582.96	10.472
583.16	10.172
583.35	10.560
583.54	9.813
583.73	10.411
583.93	10.029
584.12	10.445
584.31	9.624
584.50	10.047
584.70	9.281
584.89	9.977
585.08	9.898
585.27	10.425
585.47	9.492
585.66	10.518
585.85	8.961
586.04	9.472
586.24	10.108
586.43	9.988
586.62	9.318
586.81	9.837
587.00	9.607
587.20	9.872
587.39	8.952
587.58	10.622
587.77	9.508
587.97	9.516
588.16	9.735
588.35	10.236
588.54	8.776
588.73	9.446
588.93	9.884
589.12	9.765
589.31	9.646
589.50	10.157
589.69	9.838
589.89	10.232
590.08	9.269
590.27	9.974
590.46	9.776
590.65	9.601
590.85	9.145
591.04	10.127
591.23	9.872
591.42	10.318
591.61	9.107
591.81	10.023
592.00	9.512
592.19	10.365
592.38	8.998
592.57	10.288
592.77	9.173
592.96	9.790
593.15	10.371
593.34	10.113
593.53	9.691
593.72	9.038
593.92	9.284
594.11	10.194
594.30	9.150
594.49	9.777
594.68	9.988
594.87	10.008
595.07	9.741
595.26	10.683
595.45	9.595
595.64	10.286
595.83	8.893
596.02	10.323
596.22	9.159
596.41	10.462
596.60	9.610
596.79	10.463
596.98	9.588
597.17	10.755
597.37	10.089
597.56	10.710
597.75	9.992
597.94	10.833
598.13	10.537
598.32	10.491
598.51	9.995
598.71	10.988
598.90	10.512
599.09	10.645
599.28	10.054
599.47	10.117
599.66	10.124
599.85	11.120
600.05	9.954
600.24	10.928
600.43	9.913
600.62	10.764
600.81	9.973
601.00	10.936
601.19	8.811
601.38	10.631
601.58	10.325
601.77	9.859
601.96	9.502
602.15	11.176
602.34	10.146
602.53	10.897
602.72	10.033
602.91	11.372
603.10	10.430
603.30	10.808
603.49	10.211
603.68	10.553
603.87	9.763
604.06	11.115
604.25	10.619
604.44	11.260
604.63	10.616
604.82	10.703
605.01	10.920
605.21	11.229
605.40	11.178
605.59	11.068
605.78	11.078
605.97	11.023
606.16	10.563
606.35	11.313
606.54	10.291
606.73	11.392
606.92	10.778
607.11	11.231
607.30	10.435
607.50	11.130
607.69	9.878
607.88	9.820
608.07	9.798
608.26	11.388
608.45	10.178
608.64	10.881
608.83	9.678
609.02	10.436
609.21	10.116
609.40	10.749
609.59	10.157
609.78	10.276
609.97	9.805
610.16	10.472
610.35	10.412
610.55	10.981
610.74	10.019
610.93	10.372
611.12	10.095
611.31	10.343
611.50	9.998
611.69	9.409
611.88	10.312
612.07	10.741
612.26	9.103
612.45	9.432
612.64	9.338
612.83	10.829
613.02	9.114
613.21	9.094
613.40	8.972
613.59	9.741
613.78	8.348
613.97	8.935
614.16	8.927
614.35	9.512
614.54	8.013
614.73	9.147
614.92	9.253
615.11	8.596
615.30	8.183
615.49	8.336
615.68	8.072
615.87	8.835
616.07	8.523
616.26	8.546
616.45	8.681
616.64	8.606
616.83	8.359
617.02	9.489
617.21	7.142
617.40	8.388
617.59	8.608
617.78	8.625
617.97	8.304
618.16	8.468
618.35	7.242
618.54	8.907
618.73	7.999
618.92	7.985
619.11	7.519
619.30	8.950
619.49	7.594
619.68	8.825
619.86	8.060
620.05	8.577
620.24	7.568
620.43	7.648
620.62	7.062
620.81	8.564
621.00	8.403
621.19	9.241
621.38	8.530
621.57	8.834
621.76	7.548
621.95	8.331
622.14	8.220
622.33	8.923
622.52	7.628
622.71	7.825
622.90	7.868
623.09	8.274
623.28	7.673
623.47	9.079
623.66	7.417
623.85	7.723
624.04	7.573
624.23	7.297
624.42	8.002
624.61	7.982
624.80	7.093
624.99	7.243
625.18	7.525
625.36	8.253
625.55	7.982
625.74	7.367
625.93	7.548
626.12	8.315
626.31	7.918
626.50	8.832
626.69	7.655
626.88	8.921
627.07	7.908
627.26	8.386
627.45	7.794
627.64	8.716
627.83	7.550
628.02	8.538
628.20	7.892
628.39	7.942
628.58	8.045
628.77	8.719
628.96	7.267
629.15	7.520
629.34	8.345
629.53	7.263
629.72	7.037
629.91	8.192
630.10	7.611
630.29	6.817
630.47	6.228
630.66	6.502
630.85	6.976
631.04	7.083
631.23	6.193
631.42	6.297
631.61	6.305
631.80	7.594
631.99	6.342
632.18	6.014
632.36	6.100
632.55	6.821
632.74	5.772
632.93	6.278
633.12	6.202
633.31	6.741
633.50	7.001
633.69	6.724
633.88	6.711
634.06	6.519
634.25	5.909
634.44	6.563
634.63	6.734
634.82	7.773
635.01	6.610
635.20	6.600
635.39	5.787
635.57	6.210
635.76	6.278
635.95	6.097
636.14	5.708
636.33	6.979
636.52	5.906
636.71	6.050
636.89	6.215
637.08	6.909
637.27	5.697
637.46	6.644
637.65	5.640
637.84	6.632
638.03	6.182
638.21	7.821
638.40	5.724
638.59	5.275
638.78	6.296
638.97	6.731
639.16	7.340
639.34	7.098
639.53	5.414
639.72	7.078
639.91	5.772
640.10	5.918
640.29	7.294
640.47	7.084
640.66	6.056
640.85	7.189
641.04	5.546
641.23	6.913
641.42	7.114
641.60	6.101
641.79	5.947
641.98	6.229
642.17	5.887
642.36	6.904
642.54	6.384
642.73	5.961
642.92	5.495
643.11	5.372
643.30	5.861
643.49	5.962
643.67	5.303
643.86	5.800
644.05	6.114
644.24	5.627
644.43	6.155
644.61	6.118
644.80	5.480
644.99	5.796
645.18	7.310
645.37	5.231
645.55	5.916
645.74	5.598
645.93	6.410
646.12	6.308
646.31	6.035
646.49	5.826
646.68	5.319
646.87	6.602
647.06	6.003
647.24	6.052
647.43	4.752
647.62	6.611
647.81	4.347
648.00	5.946
648.18	4.450
648.37	5.306
648.56	5.965
648.75	5.678
648.93	5.446
649.12	5.243
649.31	5.356
649.50	5.468
649.68	5.374
649.87	5.867
650.06	3.834
650.25	4.983
650.43	5.398
650.62	5.475
650.81	5.400
651.00	5.686
651.18	5.673
651.37	5.896
651.56	4.917
651.75	6.853
651.93	4.893
652.12	6.059
652.31	5.720
652.50	5.924
652.68	6.090
652.87	6.156
653.06	5.916
653.25	6.440
653.43	5.849
653.62	4.719
653.81	6.701
654.00	6.955
654.18	4.730
654.37	5.903
654.56	4.919
654.74	5.563
654.93	4.716
655.12	5.969
655.31	5.885
655.49	6.727
655.68	4.842
655.87	5.013
656.05	4.017
656.24	5.782
656.43	4.894
656.62	5.695
656.80	6.346
656.99	4.908
657.18	5.393
657.36	5.798
657.55	5.369
657.74	5.730
657.93	5.507
658.11	6.663
658.30	6.274
658.49	4.624
658.67	5.729
658.86	5.931
659.05	5.261
659.23	5.408
659.42	5.045
659.61	4.768
659.79	5.495
659.98	5.718
660.17	6.108
660.35	6.238
660.54	5.870
660.73	7.362
660.91	6.334
661.10	5.843
661.29	4.853
661.47	5.670
661.66	5.870
661.85	6.435
662.03	7.472
662.22	5.648
662.41	4.556
662.59	4.622
662.78	5.232
662.97	6.286
663.15	5.071
663.34	4.922
663.53	5.137
663.71	5.787
663.90	5.918
664.09	6.949
664.27	5.051
664.46	5.232
664.65	5.977
664.83	5.733
665.02	6.312
665.21	4.818
665.39	5.154
665.58	6.676
665.77	5.806
665.95	5.378
666.14	5.634
666.32	5.212
666.51	5.211
666.70	5.910
666.88	5.785
667.07	5.530
667.26	4.669
667.44	5.805
667.63	7.283
667.81	6.108
668.00	5.360
668.19	6.600
668.37	6.176
668.56	7.045
668.75	6.213
668.93	7.667
669.12	5.477
669.30	6.453
669.49	5.865
669.68	7.306
669.86	6.219
670.05	5.869
670.23	6.412
670.42	6.937
670.61	7.322
670.79	6.890
670.98	7.192
671.16	8.755
671.35	6.719
671.54	6.652
671.72	6.540
671.91	7.101
672.09	6.496
672.28	7.826
672.46	8.268
672.65	8.006
672.84	7.435
673.02	8.328
673.21	6.703
673.39	7.230
673.58	8.060
673.77	8.109
673.95	8.241
674.14	9.009
674.32	7.093
674.51	9.883
674.69	8.465
674.88	7.955
675.07	7.008
675.25	10.655
675.44	8.345
675.62	8.812
675.81	7.582
675.99	11.179
676.18	10.262
676.36	9.414
676.55	8.219
676.74	10.728
676.92	10.322
677.11	8.400
677.29	8.273
677.48	9.707
677.66	10.248
677.85	9.671
678.03	8.582
678.22	10.796
678.40	9.441
678.59	8.878
678.78	8.712
678.96	9.124
679.15	9.187
679.33	10.348
679.52	10.209
679.70	9.677
679.89	9.718
680.07	9.593
680.26	8.683
680.44	10.235
680.63	9.395
680.81	9.544
681.00	8.266
681.18	9.373
681.37	8.956
681.55	10.252
681.74	9.768
681.92	10.396
682.11	10.504
682.29	9.325
682.48	9.815
682.66	9.764
682.85	10.590
683.03	10.517
683.22	10.866
683.40	11.208
683.59	10.645
683.77	10.541
683.96	8.930
684.14	10.369
684.33	9.576
684.51	12.222
684.70	10.466
684.88	12.509
685.07	12.125
685.25	11.285
685.44	11.561
685.62	11.069
685.81	8.881
685.99	12.037
686.18	10.228
686.36	12.842
686.55	10.392
686.73	11.721
686.92	12.300
687.10	12.244
687.29	13.075
687.47	12.806
687.65	11.942
687.84	11.454
688.02	12.836
688.21	14.264
688.39	11.359
688.58	13.615
688.76	11.077
688.95	11.817
689.13	11.185
689.32	14.048
689.50	13.208
689.68	13.217
689.87	12.073
690.05	15.451
690.24	14.105
690.42	13.483
690.61	13.357
690.79	14.338
690.98	13.405
691.16	15.271
691.34	13.354
691.53	15.630
691.71	13.942
691.90	15.688
692.08	12.934
692.27	17.277
692.45	17.386
692.63	15.929
692.82	17.226
693.00	14.029
693.19	15.466
693.37	16.799
693.56	16.590
693.74	17.582
693.92	16.496
694.11	17.287
694.29	18.069
694.48	19.964
694.66	17.740
694.84	19.680
695.03	16.700
695.21	22.187
695.40	20.858
695.58	23.737
695.76	20.315
695.95	22.003
696.13	19.836
696.32	22.668
696.50	25.122
696.68	24.713
696.87	22.004
697.05	25.656
697.24	23.941
697.42	25.684
697.60	23.583
697.79	25.365
697.97	26.121
698.16	27.462
698.34	24.529
698.52	27.116
698.71	26.941
698.89	28.765
699.07	27.091
699.26	28.849
699.44	29.063
699.63	29.473
699.81	28.768
699.99	30.048
700.18	29.470
700.36	29.968
700.54	31.183
700.73	31.263
700.91	30.912
701.09	31.213
701.28	33.513
701.46	32.677
701.64	31.869
701.83	34.830
702.01	32.343
702.20	35.416
702.38	35.286
702.56	36.377
702.75	36.179
702.93	36.408
703.11	35.618
703.30	38.341
703.48	38.832
703.66	39.631
703.85	37.178
704.03	41.232
704.21	38.958
704.40	42.575
704.58	39.339
704.76	42.498
704.95	41.159
705.13	41.915
705.31	41.919
705.50	44.930
705.68	43.220
705.86	43.809
706.04	43.258
706.23	44.705
706.41	45.521
706.59	43.653
706.78	43.192
706.96	45.718
707.14	46.458
707.33	45.887
707.51	46.218
707.69	45.532
707.88	45.167
708.06	48.537
708.24	46.464
708.42	48.778
708.61	47.347
708.79	47.477
708.97	48.498
709.16	49.167
709.34	48.980
709.52	47.997
709.71	48.868
709.89	50.092
710.07	48.661
710.25	49.752
710.44	49.950
710.62	49.742
710.80	50.677
710.98	51.950
711.17	48.441
711.35	51.623
711.53	49.617
711.72	53.579
711.90	50.634
712.08	51.297
712.26	50.313
712.45	49.863
712.63	51.965
712.81	51.334
712.99	50.665
713.18	54.237
713.36	52.473
713.54	52.925
713.72	52.894
713.91	52.779
714.09	51.644
714.27	53.687
714.45	54.150
714.64	54.694
714.82	54.060
715.00	55.024
715.18	53.614
715.37	54.707
715.55	52.801
715.73	54.737
715.91	55.268
716.10	54.491
716.28	51.915
716.46	55.381
716.64	54.318
716.83	55.398
717.01	53.137
717.19	56.880
717.37	54.550
717.55	55.795
717.74	55.961
717.92	56.301
718.10	54.719
718.28	58.422
718.47	55.775
718.65	57.705
718.83	56.573
719.01	58.357
719.19	57.064
719.38	59.510
719.56	58.672
719.74	59.149
719.92	54.717
720.10	59.451
720.29	56.592
720.47	61.209
720.65	58.880
720.83	61.274
721.01	57.214
721.20	58.911
721.38	56.385
721.56	60.944
721.74	60.627
721.92	60.778
722.11	59.576
722.29	60.897
722.47	61.234
722.65	62.258
722.83	58.824
723.01	61.471
723.20	60.266
723.38	61.117
723.56	58.703
723.74	61.222
723.92	61.611
724.10	63.787
724.29	61.918
724.47	61.848
724.65	60.324
724.83	62.090
725.01	59.573
725.19	64.248
725.38	57.780
725.56	61.076
725.74	60.248
725.92	65.057
726.10	62.463
726.28	65.960
726.46	59.362
726.65	66.159
726.83	60.701
727.01	64.845
727.19	63.452
727.37	62.957
727.55	62.605
727.73	63.408
727.92	64.033
728.10	63.866
728.28	60.915
728.46	66.660
728.64	63.454
728.82	63.268
729.00	62.004
729.19	62.222
729.37	64.858
729.55	64.482
729.73	61.548
729.91	64.751
730.09	64.224
730.27	65.234
730.45	63.171
730.63	62.966
730.82	64.361
731.00	63.007
731.18	62.404
731.36	65.274
731.54	63.788
731.72	63.006
731.90	63.058
732.08	67.033
732.26	64.224
732.45	66.115
732.63	66.489
732.81	68.286
732.99	66.378
733.17	65.640
733.35	64.868
733.53	64.872
733.71	63.654
733.89	66.208
734.07	64.346
734.25	67.248
734.44	65.262
734.62	68.100
734.80	67.585
734.98	68.259
735.16	66.980
735.34	66.397
735.52	69.019
735.70	69.425
735.88	65.476
736.06	68.557
736.24	69.478
736.42	71.271
736.60	68.712
736.78	69.001
736.97	66.408
737.15	70.443
737.33	69.323
737.51	69.256
737.69	70.986
737.87	69.488
738.05	69.686
738.23	71.205
738.41	69.306
738.59	69.943
738.77	69.773
738.95	70.174
739.13	70.010
739.31	69.218
739.49	68.363
739.67	71.462
739.85	68.781
740.03	69.398
740.21	69.495
740.39	73.719
740.57	71.726
740.75	71.385
740.93	71.163
741.11	70.811
741.30	70.304
741.48	72.645
741.66	76.005
741.84	72.653
742.02	69.029
742.20	73.471
742.38	70.554
742.56	72.375
742.74	70.320
742.92	71.938
743.10	73.571
743.28	71.429
743.46	70.757
743.64	72.278
743.82	70.912
744.00	71.978
744.18	72.623
744.36	73.778
744.54	71.963
744.72	75.648
744.90	73.375
745.08	71.612
745.26	71.701
745.44	75.414
745.62	73.773
745.80	73.543
745.98	72.709
746.16	75.705
746.34	70.913
746.52	75.496
746.70	74.877
746.87	76.971
747.05	72.863
747.23	78.177
747.41	72.905
747.59	75.024
747.77	72.953
747.95	75.388
748.13	73.769
748.31	73.453
748.49	73.763
748.67	74.483
748.85	75.283
749.03	78.046
749.21	72.913
749.39	76.908
749.57	71.568
749.75	73.554
749.93	71.856
750.11	76.264
750.29	75.947
750.47	72.547
750.65	73.219
750.83	73.964
751.01	71.720
751.18	70.689
751.36	72.565
751.54	74.515
751.72	72.345
751.90	72.894
752.08	72.483
752.26	73.537
752.44	73.767
752.62	71.957
752.80	71.234
752.98	76.174
753.16	72.596
753.34	71.901
753.52	74.942
753.69	74.305
753.87	72.908
754.05	76.805
754.23	71.874
754.41	74.110
754.59	74.681
754.77	78.658
754.95	73.088
755.13	75.015
755.31	72.806
755.49	74.726
755.66	71.749
755.84	74.603
756.02	72.242
756.20	75.301
756.38	73.764
756.56	69.428
756.74	68.740
756.92	71.618
757.10	71.261
757.28	78.026
757.45	79.419
757.63	70.311
757.81	70.718
757.99	71.650
758.17	73.440
758.35	73.417
758.53	72.398
758.71	72.880
758.88	70.519
759.06	71.887
759.24	71.732
759.42	69.874
759.60	70.918
759.78	71.303
759.96	66.389
760.13	71.525
760.31	62.440
760.49	68.023
760.67	61.801
760.85	64.935
761.03	61.944
761.21	67.088
761.38	64.722
761.56	67.929
761.74	62.996
761.92	68.866
762.10	61.462
762.28	65.483
762.46	63.241
762.63	63.876
762.81	63.915
762.99	66.304
763.17	66.199
763.35	65.177
763.53	61.203
763.70	65.395
763.88	64.212
764.06	65.739
764.24	63.684
764.42	65.442
764.60	64.400
764.77	64.494
764.95	59.978
765.13	64.996
765.31	64.105
765.49	64.188
765.66	64.031
765.84	67.000
766.02	65.472
766.20	65.192
766.38	65.705
766.56	68.382
766.73	67.973
766.91	68.769
767.09	66.743
767.27	71.461
767.45	67.759
767.62	68.063
767.80	66.697
767.98	71.402
768.16	68.616
768.33	72.919
768.51	70.856
768.69	73.302
768.87	68.967
769.05	73.506
769.22	69.560
769.40	72.871
769.58	71.317
769.76	72.833
769.94	70.076
770.11	70.716
770.29	73.886
770.47	74.724
770.65	71.377
770.82	72.713
771.00	69.678
771.18	77.182
771.36	71.625
771.53	73.147
771.71	72.114
771.89	79.504
772.07	72.141
772.25	76.208
772.42	73.404
772.60	75.000
772.78	71.917
772.96	76.337
773.13	75.408
773.31	71.785
773.49	74.263
773.67	79.153
773.84	71.036
774.02	78.568
774.20	69.179
774.37	74.277
774.55	73.814
774.73	73.604
774.91	75.369
775.08	76.471
775.26	74.624
775.44	76.507
775.62	71.658
775.79	77.356
775.97	76.810
776.15	73.785
776.32	69.632
776.50	81.845
776.68	73.847
776.86	72.439
777.03	76.597
777.21	72.981
777.39	75.198
777.56	79.354
777.74	71.295
777.92	72.904
778.10	70.226
778.27	73.106
778.45	73.613
778.63	72.710
778.80	73.138
778.98	76.232
779.16	77.167
779.34	75.696
779.51	72.266
779.69	74.366
779.87	70.198
780.04	73.640
780.22	64.698
780.40	78.000
780.57	69.985
780.75	75.213
780.93	76.369
781.10	77.567
781.28	75.348
781.46	70.109
781.63	72.129
781.81	81.948
781.99	71.218
782.16	81.360
782.34	68.523
782.52	72.993
782.69	74.021
782.87	76.081
783.05	72.707
783.22	74.561
783.40	72.247
783.58	74.152
783.75	72.643
783.93	77.742
784.11	68.514
784.28	70.698
784.46	71.524
784.64	72.526
784.81	74.416
784.99	76.775
785.17	74.899
785.34	69.809
785.52	66.686
785.69	71.346
785.87	70.582
786.05	73.388
786.22	71.128
786.40	77.151
786.58	69.212
786.75	73.245
786.93	73.502
787.11	74.859
787.28	72.685
787.46	73.033
787.63	66.982
787.81	74.349
787.99	69.214
788.16	71.257
788.34	65.816
788.51	73.453
788.69	67.660
788.87	72.334
789.04	63.380
789.22	73.950
789.39	68.385
789.57	70.997
789.75	65.135
789.92	69.840
790.10	66.650
790.27	69.536
790.45	67.206
790.63	65.906
790.80	68.260
790.98	68.697
791.15	66.234
791.33	71.984
791.51	66.871
791.68	72.881
791.86	69.650
792.03	68.090
792.21	67.386
792.39	74.080
792.56	69.092
792.74	77.934
792.91	69.290
793.09	69.416
793.26	63.536
793.44	70.557
793.62	68.372
793.79	70.243
793.97	69.803
794.14	68.076
794.32	72.423
794.49	76.035
794.67	67.818
794.84	71.021
795.02	64.674
795.20	71.718
795.37	68.854
795.55	70.281
795.72	68.960
795.90	70.049
796.07	64.358
796.25	66.031
796.42	65.375
796.60	72.347
796.77	71.664
796.95	68.289
797.13	66.010
797.30	72.497
797.48	66.595
797.65	71.677
797.83	66.742
798.00	69.322
798.18	59.800
798.35	72.591
798.53	67.798
798.70	68.207
798.88	61.379
799.05	65.881
799.23	66.518
799.40	65.618
799.58	66.764
799.75	67.690
799.93	64.191
800.10	66.012
800.28	64.325
800.45	70.763
800.63	62.252
800.80	72.650
800.98	66.054
801.15	73.325
801.33	69.644
801.50	68.349
801.68	61.809
801.85	68.809
802.03	64.396
802.20	69.674
802.38	65.925
802.55	67.415
802.73	63.243
802.90	71.438
803.08	67.488
803.25	71.830
803.43	70.131
803.60	72.849
803.78	61.353
803.95	72.927
804.13	64.763
804.30	73.805
804.48	61.006
804.65	71.713
804.83	70.482
805.00	67.555
805.17	61.952
805.35	63.972
805.52	59.957
805.70	75.304
805.87	66.604
806.05	74.401
806.22	65.212
806.40	65.411
806.57	67.434
806.75	72.679
806.92	67.265
807.09	76.392
807.27	70.502
807.44	72.124
807.62	58.125
807.79	64.050
807.97	68.056
808.14	74.293
808.31	66.512
808.49	63.236
808.66	70.896
808.84	61.169
809.01	60.071
809.19	70.050
809.36	72.419
809.53	66.691
809.71	61.829
809.88	64.296
810.06	73.976
810.23	71.051
810.41	72.276
810.58	77.761
810.75	60.150
810.93	65.367
811.10	64.539
811.28	64.759
811.45	63.124
811.62	64.715
811.80	67.629
811.97	65.294
812.15	67.181
812.32	70.089
812.49	71.306
812.67	65.648
812.84	61.874
813.02	68.003
813.19	60.533
813.36	68.003
813.54	55.429
813.71	71.720
813.89	62.107
814.06	70.079
814.23	63.659
814.41	61.266
814.58	64.975
814.75	64.663
814.93	62.940
815.10	65.186
815.28	50.204
815.45	66.580
815.62	65.105
815.80	56.421
815.97	56.866
816.14	60.589
816.32	61.072
816.49	54.363
816.66	59.599
816.84	58.629
817.01	57.094
817.18	59.247
817.36	65.899
817.53	62.648
817.71	47.935
817.88	61.120
818.05	59.483
818.23	63.700
818.40	55.323
818.57	62.153
818.75	51.863
818.92	60.201
819.09	53.354
819.27	62.066
819.44	58.872
819.61	57.631
819.79	56.839
819.96	57.332
820.13	59.551
820.31	61.594
820.48	65.678
820.65	60.174
820.82	57.553
821.00	60.242
821.17	52.321
821.34	56.404
821.52	64.605
821.69	60.464
821.86	59.417
822.04	61.368
822.21	61.556
822.38	63.891
822.56	61.428
822.73	64.262
822.90	62.225
823.07	61.962
823.25	62.139
823.42	63.219
823.59	62.198
823.77	62.838
823.94	62.186
824.11	62.399
824.29	63.675
824.46	62.686
824.63	63.751
824.80	64.562
824.98	62.418
825.15	63.904
825.32	60.368
825.49	64.227
825.67	62.561
825.84	66.327
826.01	60.296
826.19	63.603
826.36	61.950
826.53	62.898
826.70	60.373
826.88	62.586
827.05	61.395
827.22	64.294
827.39	63.177
827.57	63.475
827.74	60.093
827.91	67.950
828.08	58.813
828.26	60.997
828.43	60.160
828.60	63.373
828.77	63.327
828.95	63.349
829.12	61.152
829.29	60.332
829.46	60.562
829.64	59.314
829.81	57.910
829.98	64.717
830.15	55.573
830.32	59.479
830.50	55.332
830.67	61.283
830.84	52.753
831.01	56.349
831.19	51.317
831.36	59.618
831.53	62.691
831.70	62.305
831.87	59.429
832.05	64.770
832.22	59.865
832.39	53.462
832.56	49.090
832.74	61.817
832.91	49.886
833.08	57.673
833.25	49.641
833.42	58.333
833.60	55.847
833.77	49.945
833.94	55.280
834.11	57.440
834.28	54.918
834.45	59.052
834.63	52.907
834.80	61.333
834.97	58.929
835.14	58.565
835.31	59.173
835.49	58.646
835.66	59.027
835.83	54.415
836.00	57.154
836.17	56.281
836.34	55.256
836.52	63.394
836.69	56.638
836.86	63.397
837.03	56.860
837.20	56.155
837.37	53.362
837.55	55.053
837.72	55.420
837.89	55.035
838.06	62.705
838.23	66.667
838.40	51.048
838.58	55.665
838.75	65.092
838.92	67.568
839.09	68.009
839.26	59.131
839.43	60.828
839.60	66.309
839.78	62.097
839.95	71.411
840.12	56.692
840.29	73.012
840.46	64.130
840.63	64.544
840.80	58.135
840.98	65.152
841.15	61.862
841.32	63.273
841.49	59.266
841.66	62.413
841.83	58.489
842.00	62.192
842.17	59.718
842.34	54.129
842.52	69.951
842.69	63.182
842.86	64.031
843.03	73.051
843.20	52.625
843.37	66.148
843.54	65.848
843.71	56.338
843.88	72.222
844.06	72.361
844.23	74.043
844.40	61.187
844.57	66.018
844.74	68.759
844.91	86.864
845.08	68.595
845.25	76.833
845.42	78.641
845.59	66.894
845.76	76.311
845.94	86.106
846.11	85.451
846.28	67.355
846.45	92.063
846.62	91.405
846.79	67.776
846.96	77.104
847.13	77.893
847.30	84.022
847.47	64.956
847.64	70.476
847.81	72.300
847.98	89.515
848.15	78.082
848.32	85.897
848.50	61.980
848.67	73.448
848.84	89.873
849.01	72.113
849.18	78.414
849.35	100.000
849.52	94.379
849.69	66.594
849.86	88.624
850.03	76.644
850.20	91.870
850.37	81.782
850.54	81.349
850.71	85.828
850.88	78.416
851.05	78.647
851.22	88.747
851.39	95.885
851.56	73.592
851.73	86.653
851.90	78.815
852.07	72.621
852.24	82.105
852.41	76.223
852.58	87.640
852.75	82.381
852.92	83.710
853.09	98.848
853.26	89.130
853.43	85.169
853.60	102.778
853.77	95.923
853.94	85.915
854.11	98.097
854.28	103.800
854.45	80.876
854.62	99.544
854.79	106.195
854.96	88.041
855.13	77.412
855.30	92.895
855.47	73.184
855.64	88.036
855.81	79.773
855.98	108.421
856.15	91.791
856.32	106.510
856.49	94.986
856.66	91.954
856.83	100.775
857.00	97.500
857.17	97.826
857.34	77.951
857.51	87.654
857.68	92.822
857.85	82.903
858.02	110.484
858.19	83.900
858.36	82.035
858.53	88.107
858.70	88.406
858.87	94.225
859.04	79.025
859.21	85.572
859.38	85.746
859.55	100.449
859.72	82.989
859.89	93.655
860.05	82.599
860.22	110.922
860.39	93.583
860.56	87.742
860.73	90.821
860.90	89.918
861.07	111.899
861.24	94.315
861.41	108.602
861.58	92.982
861.75	93.899
861.92	93.207
862.09	71.082
862.26	89.623
862.43	118.182
862.59	74.541
862.76	98.753
862.93	112.000
863.10	78.325
863.27	89.710
863.44	77.949
863.61	68.700
863.78	91.127
863.95	113.514
864.12	84.698
864.29	116.822
864.45	66.383
864.62	76.497
864.79	89.785
864.96	90.553
865.13	81.957
865.30	83.505
865.47	87.879
865.64	105.471
865.81	100.000
865.97	71.364
866.14	89.071
866.31	84.658
866.48	98.276
866.65	82.968
866.82	103.686
866.99	107.005
867.16	80.714
867.33	104.384
867.49	87.411
867.66	81.930
867.83	66.102
868.00	83.646
868.17	68.874
868.34	97.872
868.51	80.741
868.67	88.325
868.84	71.954
869.01	102.174
869.18	56.374
869.35	108.929
869.52	78.654
869.69	105.488
869.85	96.755
870.02	75.065
870.19	95.122
870.36	93.602
870.53	85.976
870.70	92.269
870.86	85.714
871.03	71.464
871.20	95.882
871.37	99.509
871.54	98.421
871.71	74.328
871.87	76.791
872.04	81.568
872.21	82.708
872.38	102.660
872.55	104.126
872.72	76.415
872.88	94.690
873.05	76.734
873.22	76.627
873.39	75.048
873.56	84.080
873.72	93.151
873.89	70.025
874.06	79.581
874.23	97.721
874.40	86.548
874.56	88.627
874.73	87.696
874.90	64.151
875.07	90.909
875.24	84.475
875.40	86.580
875.57	86.874
875.74	74.943
875.91	78.070
876.08	75.278
876.24	96.411
876.41	84.532
876.58	98.667
876.75	91.690
876.92	92.126
877.08	70.833
877.25	80.415
877.42	77.371
877.59	84.650
877.75	81.818
877.92	59.829
878.09	85.396
878.26	98.223
878.42	79.794
878.59	101.235
878.76	87.073
878.93	98.517
879.09	86.848
879.26	79.079
879.43	85.355
879.60	62.563
879.76	83.259
879.93	71.812
880.10	64.355
880.27	63.944
880.43	61.252
880.60	62.003
880.77	58.824
880.94	55.252
881.10	50.344
881.27	49.404
881.44	42.200
881.61	52.365
881.77	56.047
881.94	49.379
882.11	45.430
882.28	45.105
882.44	51.322
882.61	52.723
882.78	56.261
882.94	58.993
883.11	56.766
883.28	58.871
883.45	54.842
883.61	57.609
883.78	55.262
883.95	59.628
884.11	58.647
884.28	54.642
>>>>>End Processed Spectral Data<<<<<
