SpectraSuite Data File
++++++++++++++++++++++++++++++++++++
Date: Thu Sep 26 03:54:26 EST 2019
User: sgrac
Dark Spectrum Present: Yes
Reference Spectrum Present: Yes
Number of Sampled Component Spectra: 1
Spectrometers: USB4E01596
Integration Time (usec): 100000 (USB4E01596)
Spectra Averaged: 3 (USB4E01596)
Boxcar Smoothing: 0 (USB4E01596)
Correct for Electrical Dark: No (USB4E01596)
Strobe/Lamp Enabled: Yes (USB4E01596)
Correct for Detector Non-linearity: No (USB4E01596)
Correct for Stray Light: No (USB4E01596)
Number of Pixels in Processed Spectrum: 3648
>>>>>Begin Processed Spectral Data<<<<<
178.44	-1250.000
178.66	-1250.000
178.87	-1250.000
179.09	-338.776
179.30	-177.381
179.52	-1090.909
179.74	-641.667
179.95	-2007.692
180.17	309.639
180.38	1685.714
180.60	464.286
180.82	380.723
181.03	447.222
181.25	275.962
181.46	-1022.581
181.68	355.000
181.89	1953.333
182.11	-1583.333
182.33	343.689
182.54	321.839
182.76	425.000
182.97	877.778
183.19	191.304
183.40	308.738
183.62	2225.000
183.84	327.174
184.05	2133.333
184.27	317.526
184.48	-686.111
184.70	1850.000
184.91	306.000
185.13	1826.667
185.34	610.811
185.56	2350.000
185.78	283.505
185.99	470.130
186.21	574.286
186.42	1213.333
186.64	1209.524
186.85	313.265
187.07	370.000
187.28	389.474
187.50	1265.217
187.72	1605.556
187.93	755.319
188.15	579.245
188.36	1028.125
188.58	6533.333
188.79	590.000
189.01	2925.000
189.22	308.036
189.44	1216.667
189.65	2377.778
189.87	872.973
190.09	909.677
190.30	485.714
190.52	-23200.000
190.73	-17100.000
190.95	1300.000
191.16	261.468
191.38	311.957
191.59	1035.294
191.81	444.828
192.02	996.667
192.24	416.438
192.45	296.842
192.67	602.128
192.88	633.333
193.10	320.930
193.31	259.551
193.53	1552.941
193.74	292.683
193.96	376.250
194.18	1289.474
194.39	265.217
194.61	2227.273
194.82	356.757
195.04	240.000
195.25	238.281
195.47	781.250
195.68	331.646
195.90	915.000
196.11	292.000
196.33	969.231
196.54	444.444
196.76	885.714
196.97	759.091
197.19	769.444
197.40	-455.556
197.62	501.818
197.83	262.185
198.05	552.830
198.26	432.394
198.48	2258.333
198.69	0.000
198.91	2600.000
199.12	594.444
199.34	408.696
199.55	300.000
199.77	308.046
199.98	5600.000
200.20	319.697
200.41	200.935
200.63	838.095
200.84	569.565
201.06	280.172
201.27	1176.190
201.49	1740.000
201.70	-1607.143
201.91	342.553
202.13	628.205
202.34	-364.583
202.56	527.273
202.77	2220.000
202.99	729.412
203.20	545.902
203.42	538.182
203.63	409.890
203.85	238.686
204.06	434.211
204.28	310.714
204.49	776.471
204.71	285.915
204.92	-11850.000
205.14	771.429
205.35	298.551
205.56	1070.833
205.78	474.576
205.99	486.792
206.21	216.667
206.42	323.864
206.64	793.750
206.85	297.619
207.07	222.400
207.28	213.675
207.50	484.848
207.71	1080.952
207.93	-716.667
208.14	-1727.273
208.35	844.000
208.57	333.333
208.78	568.000
209.00	652.632
209.21	5800.000
209.43	299.038
209.64	806.250
209.86	3300.000
210.07	634.146
210.28	-568.421
210.50	6933.333
210.71	713.333
210.93	196.552
211.14	471.154
211.36	1273.684
211.57	612.500
211.78	1271.429
212.00	987.500
212.21	448.276
212.43	738.095
212.64	284.466
212.86	360.256
213.07	215.789
213.29	1940.000
213.50	307.595
213.71	232.258
213.93	511.364
214.14	222.115
214.36	191.176
214.57	717.021
214.78	313.415
215.00	372.941
215.21	265.432
215.43	903.704
215.64	277.174
215.86	234.532
216.07	880.000
216.28	332.911
216.50	295.283
216.71	291.463
216.93	611.905
217.14	2036.364
217.35	668.571
217.57	443.548
217.78	234.513
218.00	295.745
218.21	238.158
218.42	704.651
218.64	205.941
218.85	273.214
219.07	251.000
219.28	760.000
219.49	660.526
219.71	488.000
219.92	-1810.000
220.14	423.437
220.35	1037.500
220.56	-11400.000
220.78	219.841
220.99	622.500
221.21	234.940
221.42	294.872
221.63	319.149
221.85	0.000
222.06	253.774
222.28	751.429
222.49	365.152
222.70	1707.143
222.92	410.256
223.13	168.056
223.34	281.522
223.56	150.435
223.77	173.248
223.99	225.466
224.20	177.564
224.41	468.085
224.63	175.510
224.84	187.387
225.05	194.656
225.27	216.185
225.48	242.982
225.69	167.582
225.91	246.087
226.12	158.442
226.34	126.471
226.55	172.794
226.76	150.242
226.98	104.661
227.19	118.436
227.40	140.000
227.62	108.582
227.83	109.639
228.04	93.929
228.26	76.982
228.47	70.343
228.69	48.712
228.90	57.016
229.11	39.078
229.33	56.593
229.54	42.151
229.75	34.755
229.97	31.951
230.18	33.520
230.39	34.004
230.61	27.330
230.82	43.269
231.03	29.829
231.25	37.146
231.46	28.394
231.67	41.266
231.89	44.195
232.10	38.741
232.31	40.139
232.53	38.913
232.74	48.896
232.95	46.284
233.17	46.606
233.38	54.839
233.59	54.352
233.81	42.977
234.02	52.749
234.23	48.497
234.45	47.077
234.66	34.958
234.87	49.551
235.09	50.262
235.30	48.522
235.51	42.048
235.73	49.917
235.94	36.364
236.15	53.287
236.36	51.159
236.58	40.937
236.79	46.177
237.00	39.353
237.22	41.399
237.43	39.024
237.64	47.180
237.86	34.333
238.07	48.916
238.28	45.172
238.50	41.081
238.71	44.391
238.92	47.546
239.13	39.458
239.35	52.087
239.56	48.214
239.77	41.903
239.99	34.247
240.20	50.983
240.41	35.414
240.63	34.730
240.84	39.723
241.05	29.356
241.26	35.534
241.48	23.962
241.69	21.536
241.90	21.604
242.12	24.128
242.33	24.499
242.54	8.339
242.75	14.229
242.97	23.041
243.18	11.715
243.39	13.745
243.61	18.515
243.82	13.664
244.03	14.200
244.24	15.409
244.46	13.967
244.67	15.381
244.88	16.756
245.09	10.162
245.31	14.363
245.52	15.486
245.73	15.597
245.95	26.326
246.16	20.081
246.37	16.786
246.58	9.742
246.80	17.372
247.01	16.449
247.22	12.166
247.43	13.676
247.65	13.029
247.86	12.447
248.07	9.954
248.28	10.235
248.50	11.186
248.71	9.513
248.92	8.061
249.13	7.456
249.35	9.212
249.56	9.467
249.77	9.917
249.98	9.398
250.20	10.237
250.41	12.606
250.62	12.455
250.83	14.679
251.05	17.448
251.26	13.783
251.47	16.127
251.68	17.258
251.90	16.577
252.11	17.647
252.32	22.849
252.53	15.570
252.75	14.093
252.96	13.087
253.17	14.014
253.38	14.489
253.59	14.562
253.81	14.952
254.02	13.313
254.23	10.672
254.44	14.771
254.66	14.503
254.87	13.118
255.08	19.828
255.29	18.400
255.50	14.679
255.72	19.654
255.93	20.923
256.14	25.477
256.35	18.154
256.57	20.913
256.78	17.452
256.99	17.719
257.20	22.948
257.41	16.011
257.63	11.823
257.84	16.313
258.05	26.414
258.26	16.449
258.47	13.952
258.69	15.819
258.90	11.037
259.11	14.523
259.32	12.983
259.53	9.843
259.75	9.577
259.96	8.091
260.17	7.392
260.38	7.820
260.59	7.259
260.81	6.621
261.02	7.000
261.23	6.657
261.44	7.237
261.65	6.201
261.87	7.768
262.08	8.850
262.29	8.489
262.50	6.925
262.71	8.216
262.92	10.905
263.14	9.027
263.35	10.485
263.56	9.022
263.77	11.306
263.98	11.248
264.20	13.939
264.41	9.696
264.62	9.944
264.83	9.284
265.04	20.166
265.25	12.865
265.47	13.282
265.68	14.188
265.89	14.973
266.10	10.304
266.31	15.283
266.52	11.286
266.74	13.105
266.95	8.340
267.16	12.786
267.37	10.559
267.58	10.263
267.79	10.992
268.01	11.467
268.22	9.549
268.43	10.482
268.64	10.064
268.85	11.291
269.06	8.799
269.27	13.486
269.49	8.907
269.70	10.398
269.91	8.149
270.12	8.590
270.33	11.959
270.54	8.502
270.75	8.895
270.97	12.411
271.18	9.195
271.39	11.118
271.60	10.334
271.81	9.451
272.02	6.774
272.23	7.976
272.45	5.073
272.66	8.516
272.87	8.940
273.08	7.060
273.29	8.262
273.50	8.231
273.71	9.023
273.92	7.864
274.14	9.687
274.35	7.026
274.56	9.396
274.77	7.055
274.98	9.615
275.19	8.789
275.40	9.044
275.61	7.440
275.83	9.499
276.04	8.501
276.25	8.411
276.46	8.074
276.67	12.230
276.88	11.294
277.09	9.736
277.30	9.153
277.51	9.043
277.73	10.775
277.94	7.964
278.15	9.815
278.36	11.021
278.57	7.725
278.78	7.992
278.99	9.549
279.20	11.108
279.41	11.832
279.62	7.664
279.84	7.394
280.05	8.301
280.26	7.934
280.47	11.509
280.68	7.056
280.89	9.096
281.10	10.398
281.31	8.982
281.52	10.327
281.73	7.592
281.94	5.419
282.16	10.328
282.37	8.593
282.58	9.702
282.79	10.288
283.00	10.940
283.21	5.042
283.42	6.720
283.63	6.223
283.84	6.748
284.05	6.814
284.26	7.153
284.47	8.847
284.68	7.905
284.89	8.544
285.11	6.623
285.32	7.800
285.53	8.096
285.74	7.916
285.95	7.197
286.16	6.464
286.37	7.532
286.58	6.177
286.79	6.002
287.00	5.880
287.21	8.034
287.42	6.392
287.63	6.321
287.84	7.196
288.05	7.340
288.26	7.384
288.48	6.977
288.69	7.077
288.90	7.580
289.11	9.007
289.32	7.372
289.53	5.993
289.74	6.024
289.95	6.277
290.16	8.116
290.37	6.835
290.58	6.414
290.79	5.118
291.00	6.562
291.21	6.568
291.42	6.112
291.63	6.102
291.84	6.781
292.05	6.305
292.26	6.684
292.47	6.842
292.68	6.409
292.89	8.536
293.10	7.988
293.31	8.582
293.52	5.813
293.73	7.148
293.94	7.839
294.15	6.783
294.36	8.193
294.57	6.169
294.79	7.833
295.00	6.737
295.21	8.271
295.42	4.988
295.63	6.345
295.84	7.595
296.05	6.081
296.26	6.680
296.47	6.554
296.68	4.566
296.89	7.424
297.10	7.891
297.31	7.301
297.52	6.096
297.73	7.316
297.94	5.625
298.15	6.129
298.36	6.208
298.57	6.380
298.78	6.304
298.99	5.034
299.20	5.656
299.41	7.561
299.62	6.115
299.83	5.977
300.04	7.035
300.25	5.689
300.46	5.748
300.67	7.134
300.88	7.896
301.09	5.613
301.30	7.695
301.50	6.912
301.71	9.613
301.92	8.866
302.13	6.702
302.34	4.948
302.55	8.763
302.76	5.854
302.97	7.629
303.18	7.199
303.39	8.152
303.60	7.269
303.81	7.470
304.02	6.887
304.23	6.429
304.44	6.068
304.65	7.930
304.86	7.306
305.07	4.768
305.28	7.980
305.49	6.896
305.70	7.523
305.91	5.731
306.12	6.433
306.33	6.518
306.54	5.829
306.75	9.389
306.96	7.737
307.17	5.660
307.38	6.843
307.58	6.277
307.79	9.060
308.00	9.138
308.21	7.514
308.42	7.481
308.63	6.612
308.84	7.876
309.05	6.897
309.26	5.688
309.47	7.224
309.68	5.823
309.89	9.220
310.10	6.125
310.31	6.518
310.52	7.008
310.73	8.168
310.94	6.332
311.14	6.946
311.35	7.212
311.56	7.604
311.77	7.276
311.98	5.765
312.19	5.788
312.40	6.386
312.61	6.753
312.82	6.047
313.03	7.351
313.24	7.184
313.45	7.870
313.66	6.116
313.86	6.692
314.07	6.973
314.28	8.418
314.49	5.980
314.70	6.990
314.91	9.896
315.12	7.980
315.33	9.001
315.54	8.096
315.75	7.055
315.96	5.082
316.16	6.413
316.37	8.661
316.58	7.530
316.79	8.537
317.00	9.342
317.21	7.432
317.42	9.155
317.63	7.495
317.84	5.544
318.05	7.495
318.25	7.508
318.46	7.170
318.67	6.997
318.88	7.824
319.09	9.332
319.30	5.296
319.51	7.503
319.72	9.164
319.93	7.960
320.13	6.791
320.34	8.238
320.55	8.001
320.76	8.898
320.97	7.944
321.18	10.777
321.39	9.274
321.60	7.154
321.80	9.556
322.01	9.062
322.22	7.856
322.43	6.477
322.64	6.820
322.85	9.045
323.06	9.315
323.27	9.115
323.47	8.359
323.68	8.440
323.89	6.803
324.10	8.870
324.31	6.479
324.52	10.089
324.73	8.050
324.93	7.928
325.14	7.677
325.35	7.340
325.56	6.274
325.77	8.527
325.98	7.639
326.19	7.061
326.39	5.275
326.60	8.122
326.81	7.305
327.02	6.572
327.23	5.965
327.44	9.602
327.64	5.244
327.85	7.392
328.06	8.193
328.27	11.111
328.48	8.797
328.69	6.358
328.90	8.527
329.10	6.636
329.31	10.023
329.52	7.478
329.73	9.184
329.94	6.916
330.15	8.958
330.35	9.453
330.56	9.323
330.77	8.314
330.98	9.083
331.19	9.585
331.39	8.196
331.60	8.288
331.81	5.965
332.02	10.362
332.23	10.462
332.44	8.129
332.64	9.433
332.85	8.767
333.06	9.696
333.27	7.304
333.48	9.265
333.68	10.025
333.89	8.348
334.10	7.091
334.31	11.107
334.52	10.680
334.72	8.015
334.93	7.750
335.14	6.522
335.35	9.009
335.56	9.976
335.76	7.597
335.97	10.524
336.18	7.217
336.39	11.350
336.60	9.606
336.80	9.366
337.01	9.195
337.22	10.343
337.43	10.200
337.64	12.017
337.84	10.325
338.05	9.249
338.26	12.172
338.47	10.777
338.68	7.597
338.88	9.927
339.09	8.942
339.30	11.042
339.51	8.689
339.71	12.798
339.92	8.073
340.13	9.722
340.34	9.987
340.55	9.866
340.75	10.853
340.96	9.797
341.17	11.957
341.38	8.985
341.58	8.901
341.79	9.288
342.00	8.015
342.21	10.374
342.41	8.738
342.62	10.730
342.83	10.445
343.04	7.207
343.24	9.992
343.45	10.815
343.66	8.253
343.87	9.812
344.07	8.315
344.28	9.874
344.49	10.022
344.70	10.412
344.90	7.530
345.11	8.755
345.32	8.281
345.53	8.544
345.73	11.018
345.94	10.782
346.15	10.513
346.36	9.078
346.56	9.976
346.77	11.457
346.98	8.690
347.19	10.296
347.39	9.771
347.60	10.564
347.81	9.121
348.02	10.086
348.22	6.845
348.43	8.781
348.64	7.855
348.84	9.101
349.05	9.580
349.26	10.348
349.47	9.020
349.67	8.271
349.88	8.841
350.09	9.085
350.30	11.279
350.50	8.242
350.71	10.700
350.92	9.160
351.12	9.073
351.33	9.688
351.54	8.095
351.74	10.268
351.95	9.577
352.16	10.063
352.37	11.583
352.57	8.608
352.78	9.089
352.99	9.185
353.19	9.841
353.40	8.953
353.61	10.899
353.82	10.831
354.02	9.697
354.23	10.590
354.44	10.678
354.64	8.610
354.85	9.460
355.06	8.961
355.26	8.302
355.47	9.071
355.68	10.113
355.88	9.560
356.09	9.420
356.30	8.961
356.51	9.829
356.71	8.977
356.92	6.787
357.13	10.109
357.33	8.462
357.54	9.202
357.75	5.976
357.95	7.275
358.16	7.175
358.37	10.602
358.57	7.961
358.78	10.702
358.99	8.163
359.19	8.507
359.40	9.609
359.61	8.871
359.81	10.392
360.02	10.390
360.23	7.633
360.43	8.082
360.64	8.160
360.85	8.079
361.05	6.093
361.26	9.327
361.47	8.007
361.67	10.181
361.88	5.989
362.09	9.119
362.29	6.549
362.50	6.455
362.70	7.149
362.91	8.917
363.12	6.796
363.32	8.948
363.53	8.256
363.74	8.588
363.94	6.728
364.15	8.386
364.36	8.513
364.56	6.611
364.77	8.667
364.98	11.153
365.18	8.132
365.39	9.967
365.59	7.398
365.80	7.308
366.01	9.058
366.21	7.497
366.42	6.605
366.63	8.194
366.83	8.051
367.04	6.243
367.24	9.554
367.45	5.750
367.66	6.101
367.86	7.871
368.07	8.100
368.28	7.599
368.48	6.791
368.69	5.601
368.89	6.806
369.10	8.594
369.31	6.910
369.51	7.615
369.72	9.738
369.92	9.363
370.13	7.087
370.34	7.561
370.54	5.938
370.75	8.521
370.95	5.719
371.16	7.349
371.37	6.784
371.57	7.617
371.78	7.790
371.98	7.768
372.19	7.229
372.40	7.907
372.60	7.939
372.81	6.868
373.01	6.341
373.22	6.888
373.43	7.987
373.63	7.335
373.84	7.854
374.04	7.828
374.25	6.390
374.46	8.181
374.66	7.896
374.87	8.027
375.07	5.228
375.28	5.873
375.48	7.253
375.69	8.270
375.90	5.105
376.10	4.844
376.31	6.167
376.51	5.737
376.72	6.046
376.92	5.887
377.13	6.927
377.34	7.263
377.54	6.026
377.75	7.628
377.95	6.348
378.16	6.684
378.36	7.293
378.57	7.895
378.77	6.734
378.98	8.114
379.19	5.647
379.39	5.586
379.60	6.834
379.80	6.617
380.01	7.453
380.21	6.947
380.42	7.532
380.62	6.426
380.83	7.188
381.04	5.533
381.24	7.149
381.45	6.167
381.65	5.881
381.86	6.794
382.06	7.172
382.27	4.534
382.47	5.915
382.68	7.014
382.88	5.236
383.09	5.326
383.29	6.606
383.50	7.967
383.71	5.868
383.91	6.672
384.12	6.346
384.32	6.745
384.53	6.282
384.73	5.047
384.94	5.133
385.14	6.059
385.35	4.769
385.55	6.461
385.76	5.108
385.96	5.396
386.17	5.782
386.37	6.158
386.58	4.937
386.78	6.706
386.99	5.152
387.19	6.910
387.40	4.751
387.60	7.473
387.81	5.732
388.01	5.998
388.22	5.682
388.42	6.620
388.63	6.886
388.83	6.905
389.04	4.875
389.24	6.749
389.45	5.356
389.65	5.260
389.86	5.065
390.06	4.860
390.27	4.616
390.47	6.105
390.68	5.089
390.88	6.494
391.09	6.460
391.29	5.974
391.50	5.411
391.70	5.398
391.91	5.304
392.11	5.491
392.32	5.482
392.52	6.102
392.73	4.969
392.93	5.675
393.14	5.214
393.34	5.287
393.55	5.654
393.75	5.288
393.95	5.101
394.16	5.834
394.36	5.904
394.57	6.290
394.77	5.489
394.98	5.100
395.18	5.848
395.39	5.227
395.59	5.223
395.80	6.156
396.00	5.262
396.21	5.823
396.41	4.654
396.61	6.075
396.82	5.241
397.02	6.957
397.23	5.935
397.43	5.300
397.64	4.663
397.84	6.635
398.05	4.257
398.25	6.228
398.45	5.471
398.66	6.420
398.86	5.482
399.07	6.679
399.27	4.790
399.48	6.176
399.68	4.895
399.89	5.544
400.09	5.385
400.29	5.405
400.50	4.971
400.70	5.360
400.91	4.516
401.11	5.366
401.32	5.476
401.52	4.203
401.72	4.969
401.93	6.385
402.13	5.377
402.34	4.932
402.54	5.269
402.75	6.456
402.95	4.308
403.15	6.846
403.36	4.586
403.56	5.757
403.77	4.502
403.97	5.467
404.17	4.600
404.38	5.277
404.58	4.664
404.79	5.801
404.99	5.400
405.19	4.952
405.40	4.911
405.60	4.903
405.81	5.024
406.01	4.707
406.21	5.312
406.42	5.062
406.62	5.245
406.83	5.497
407.03	4.854
407.23	4.439
407.44	4.300
407.64	5.084
407.85	4.790
408.05	4.756
408.25	4.021
408.46	6.170
408.66	5.383
408.87	4.611
409.07	4.924
409.27	4.559
409.48	5.276
409.68	5.594
409.88	3.930
410.09	5.171
410.29	5.230
410.50	5.779
410.70	4.624
410.90	5.000
411.11	4.479
411.31	4.948
411.51	5.588
411.72	5.444
411.92	4.541
412.12	4.409
412.33	3.725
412.53	4.439
412.74	4.129
412.94	4.927
413.14	5.386
413.35	4.883
413.55	4.159
413.75	5.288
413.96	3.875
414.16	4.875
414.36	4.792
414.57	4.754
414.77	3.863
414.97	5.308
415.18	4.136
415.38	5.025
415.58	4.865
415.79	4.714
415.99	4.478
416.19	4.792
416.40	4.813
416.60	4.655
416.80	4.505
417.01	5.133
417.21	4.338
417.41	5.431
417.62	5.067
417.82	4.889
418.02	3.716
418.23	4.877
418.43	4.559
418.63	4.764
418.84	5.523
419.04	4.518
419.24	5.279
419.45	4.539
419.65	5.446
419.85	5.076
420.06	4.961
420.26	4.807
420.46	5.183
420.67	5.311
420.87	5.077
421.07	5.690
421.28	4.773
421.48	5.424
421.68	5.408
421.88	5.447
422.09	5.066
422.29	4.973
422.49	4.929
422.70	5.130
422.90	4.974
423.10	5.093
423.31	4.757
423.51	5.502
423.71	4.835
423.91	5.406
424.12	4.880
424.32	5.102
424.52	5.290
424.73	4.907
424.93	4.997
425.13	4.870
425.33	4.865
425.54	5.496
425.74	5.041
425.94	5.506
426.15	4.765
426.35	4.639
426.55	5.270
426.75	5.202
426.96	5.294
427.16	4.953
427.36	5.106
427.57	5.329
427.77	4.978
427.97	5.310
428.17	4.950
428.38	5.009
428.58	4.209
428.78	5.213
428.98	4.111
429.19	4.836
429.39	4.185
429.59	4.618
429.79	3.901
430.00	4.531
430.20	3.824
430.40	4.497
430.60	4.662
430.81	4.425
431.01	4.391
431.21	4.661
431.41	4.038
431.62	4.338
431.82	4.751
432.02	5.656
432.22	4.602
432.43	3.810
432.63	4.206
432.83	4.728
433.03	4.337
433.24	4.353
433.44	4.083
433.64	4.988
433.84	4.250
434.05	4.514
434.25	4.263
434.45	5.030
434.65	5.141
434.85	5.837
435.06	5.003
435.26	4.859
435.46	4.372
435.66	5.103
435.87	4.363
436.07	4.726
436.27	4.437
436.47	4.188
436.67	3.864
436.88	5.102
437.08	4.337
437.28	4.308
437.48	4.046
437.69	4.906
437.89	4.833
438.09	5.421
438.29	3.869
438.49	4.745
438.70	4.911
438.90	4.351
439.10	3.989
439.30	4.673
439.50	3.979
439.71	4.750
439.91	4.736
440.11	4.900
440.31	4.415
440.51	4.489
440.72	4.308
440.92	4.811
441.12	4.664
441.32	5.264
441.52	5.155
441.72	5.029
441.93	4.632
442.13	5.023
442.33	4.310
442.53	5.084
442.73	4.267
442.94	4.896
443.14	4.436
443.34	4.958
443.54	4.975
443.74	4.710
443.94	4.639
444.15	4.740
444.35	4.395
444.55	4.683
444.75	4.738
444.95	4.844
445.15	4.481
445.36	4.793
445.56	3.756
445.76	4.393
445.96	4.348
446.16	4.737
446.36	4.002
446.57	4.777
446.77	4.275
446.97	5.020
447.17	4.975
447.37	4.754
447.57	4.958
447.77	4.807
447.98	4.732
448.18	4.901
448.38	4.678
448.58	4.743
448.78	4.827
448.98	4.937
449.18	4.427
449.39	4.709
449.59	4.466
449.79	4.302
449.99	3.877
450.19	4.518
450.39	4.069
450.59	4.825
450.79	4.309
451.00	4.932
451.20	5.269
451.40	4.366
451.60	4.368
451.80	4.808
452.00	4.349
452.20	4.473
452.40	4.270
452.61	4.173
452.81	4.207
453.01	4.511
453.21	4.360
453.41	4.372
453.61	3.882
453.81	4.251
454.01	4.268
454.21	4.358
454.42	4.804
454.62	4.897
454.82	4.016
455.02	4.085
455.22	3.797
455.42	4.111
455.62	3.853
455.82	3.963
456.02	3.939
456.23	4.636
456.43	4.294
456.63	4.325
456.83	3.800
457.03	4.428
457.23	3.920
457.43	4.539
457.63	3.822
457.83	4.909
458.03	4.257
458.23	4.470
458.43	3.756
458.64	4.746
458.84	4.490
459.04	4.048
459.24	4.236
459.44	4.693
459.64	4.366
459.84	4.628
460.04	4.286
460.24	4.455
460.44	4.465
460.64	4.784
460.84	4.513
461.04	4.856
461.24	4.765
461.45	4.949
461.65	4.515
461.85	4.684
462.05	4.356
462.25	4.983
462.45	5.010
462.65	4.966
462.85	3.822
463.05	4.679
463.25	3.514
463.45	4.571
463.65	4.525
463.85	4.326
464.05	3.921
464.25	4.094
464.45	4.025
464.65	4.178
464.85	4.016
465.05	4.152
465.26	4.333
465.46	4.347
465.66	4.588
465.86	4.673
466.06	4.444
466.26	4.473
466.46	3.705
466.66	4.141
466.86	4.108
467.06	4.217
467.26	4.526
467.46	4.557
467.66	4.224
467.86	4.239
468.06	4.129
468.26	3.997
468.46	4.342
468.66	4.498
468.86	3.846
469.06	4.650
469.26	3.768
469.46	4.313
469.66	3.974
469.86	4.688
470.06	3.744
470.26	4.994
470.46	3.681
470.66	4.744
470.86	3.826
471.06	4.473
471.26	3.720
471.46	4.035
471.66	4.112
471.86	4.054
472.06	4.159
472.26	5.180
472.46	4.827
472.66	4.726
472.86	4.050
473.06	4.136
473.26	4.264
473.46	4.676
473.66	4.115
473.86	4.733
474.06	3.949
474.26	5.061
474.46	3.849
474.66	4.820
474.86	4.219
475.06	4.762
475.26	3.763
475.46	4.531
475.66	3.889
475.86	4.221
476.06	4.769
476.26	4.720
476.46	3.976
476.66	4.516
476.86	3.530
477.06	4.656
477.26	3.948
477.46	4.309
477.65	4.309
477.85	4.850
478.05	3.634
478.25	4.805
478.45	3.983
478.65	4.582
478.85	3.662
479.05	4.789
479.25	4.495
479.45	4.571
479.65	4.069
479.85	4.210
480.05	4.137
480.25	4.702
480.45	4.443
480.65	5.026
480.85	4.578
481.05	4.944
481.25	4.628
481.44	4.403
481.64	3.827
481.84	4.772
482.04	4.758
482.24	4.708
482.44	4.252
482.64	4.599
482.84	4.236
483.04	4.715
483.24	4.539
483.44	4.704
483.64	4.747
483.84	4.796
484.04	4.972
484.23	4.973
484.43	4.881
484.63	5.091
484.83	5.005
485.03	5.451
485.23	5.322
485.43	5.245
485.63	5.237
485.83	5.147
486.03	5.186
486.23	5.485
486.42	5.152
486.62	5.194
486.82	5.107
487.02	5.115
487.22	4.894
487.42	5.200
487.62	5.050
487.82	4.999
488.02	4.930
488.22	5.085
488.41	4.866
488.61	5.120
488.81	4.971
489.01	5.240
489.21	5.038
489.41	5.086
489.61	5.000
489.81	5.113
490.01	5.081
490.20	5.098
490.40	4.938
490.60	5.117
490.80	4.945
491.00	5.035
491.20	4.902
491.40	4.987
491.60	4.747
491.79	4.897
491.99	4.939
492.19	4.966
492.39	4.928
492.59	4.988
492.79	5.099
492.99	5.105
493.19	5.022
493.38	5.013
493.58	4.997
493.78	5.049
493.98	5.016
494.18	5.003
494.38	4.955
494.58	4.850
494.77	4.284
494.97	4.724
495.17	4.532
495.37	4.646
495.57	4.180
495.77	4.772
495.96	4.428
496.16	4.259
496.36	4.225
496.56	4.826
496.76	4.039
496.96	4.182
497.15	3.905
497.35	4.663
497.55	4.468
497.75	4.612
497.95	4.066
498.15	4.926
498.34	4.889
498.54	4.273
498.74	5.016
498.94	4.923
499.14	4.413
499.34	4.964
499.53	4.483
499.73	4.714
499.93	4.142
500.13	4.342
500.33	4.249
500.52	4.299
500.72	4.153
500.92	4.412
501.12	3.955
501.32	4.172
501.52	4.237
501.71	4.579
501.91	3.840
502.11	4.367
502.31	3.765
502.51	4.658
502.70	4.178
502.90	4.316
503.10	3.794
503.30	4.783
503.50	4.000
503.69	4.291
503.89	4.017
504.09	4.271
504.29	3.858
504.48	4.722
504.68	4.332
504.88	4.675
505.08	3.964
505.28	4.272
505.47	4.335
505.67	4.947
505.87	4.074
506.07	4.207
506.27	4.526
506.46	4.997
506.66	3.935
506.86	4.278
507.06	4.493
507.25	4.254
507.45	4.257
507.65	4.462
507.85	4.074
508.04	4.697
508.24	4.633
508.44	4.432
508.64	3.869
508.83	4.359
509.03	3.919
509.23	4.586
509.43	4.115
509.63	4.631
509.82	4.004
510.02	4.475
510.22	4.273
510.42	4.675
510.61	4.207
510.81	4.490
511.01	4.219
511.21	4.691
511.40	3.758
511.60	4.748
511.80	4.122
511.99	4.649
512.19	4.407
512.39	4.988
512.59	4.043
512.78	4.783
512.98	4.648
513.18	4.262
513.38	4.216
513.57	4.728
513.77	4.215
513.97	4.407
514.17	4.045
514.36	4.318
514.56	4.264
514.76	4.993
514.95	4.148
515.15	4.106
515.35	3.938
515.55	4.369
515.74	4.338
515.94	4.671
516.14	3.921
516.33	4.682
516.53	3.831
516.73	4.089
516.93	4.332
517.12	4.677
517.32	3.765
517.52	4.886
517.71	4.112
517.91	4.206
518.11	4.342
518.30	4.332
518.50	4.021
518.70	4.517
518.90	4.229
519.09	4.820
519.29	4.494
519.49	4.713
519.68	4.173
519.88	4.747
520.08	4.293
520.27	4.828
520.47	4.688
520.67	4.463
520.86	4.512
521.06	4.915
521.26	4.175
521.45	4.459
521.65	4.464
521.85	4.329
522.04	4.128
522.24	4.603
522.44	3.920
522.63	4.412
522.83	4.018
523.03	4.430
523.22	3.842
523.42	4.468
523.62	4.412
523.81	4.305
524.01	4.512
524.21	4.311
524.40	3.746
524.60	4.350
524.80	4.007
524.99	4.376
525.19	4.183
525.39	4.572
525.58	4.014
525.78	4.599
525.98	4.187
526.17	4.898
526.37	4.639
526.57	4.652
526.76	4.684
526.96	4.440
527.15	4.376
527.35	4.503
527.55	4.602
527.74	4.929
527.94	4.644
528.14	4.708
528.33	4.595
528.53	4.783
528.72	4.803
528.92	4.934
529.12	4.873
529.31	4.853
529.51	5.000
529.71	5.058
529.90	4.951
530.10	5.058
530.29	5.017
530.49	5.123
530.69	5.067
530.88	5.073
531.08	5.020
531.28	4.939
531.47	5.072
531.67	4.816
531.86	4.563
532.06	4.731
532.26	4.448
532.45	4.851
532.65	4.513
532.84	4.735
533.04	4.510
533.24	4.896
533.43	4.573
533.63	4.833
533.82	4.677
534.02	4.905
534.22	4.537
534.41	4.847
534.61	4.720
534.80	4.713
535.00	4.870
535.19	4.886
535.39	4.759
535.59	4.888
535.78	4.665
535.98	4.778
536.17	4.555
536.37	4.681
536.57	4.605
536.76	4.694
536.96	4.503
537.15	5.171
537.35	4.363
537.54	4.843
537.74	4.470
537.93	4.756
538.13	4.608
538.33	4.780
538.52	4.481
538.72	4.608
538.91	4.694
539.11	4.893
539.30	4.482
539.50	4.742
539.70	4.537
539.89	4.825
540.09	4.788
540.28	4.709
540.48	4.063
540.67	4.953
540.87	4.421
541.06	4.843
541.26	4.542
541.45	4.941
541.65	4.700
541.85	4.994
542.04	4.789
542.24	5.243
542.43	4.835
542.63	5.002
542.82	5.023
543.02	5.059
543.21	4.920
543.41	5.044
543.60	4.869
543.80	5.292
543.99	4.816
544.19	5.028
544.38	4.865
544.58	4.867
544.77	4.580
544.97	5.104
545.16	4.388
545.36	5.140
545.56	4.903
545.75	4.722
545.95	4.459
546.14	4.837
546.34	4.436
546.53	4.690
546.73	4.467
546.92	4.692
547.12	4.418
547.31	4.897
547.51	4.432
547.70	4.711
547.90	4.606
548.09	4.943
548.29	4.547
548.48	4.702
548.68	4.811
548.87	4.797
549.07	4.510
549.26	4.599
549.46	4.547
549.65	4.696
549.84	4.724
550.04	4.258
550.23	4.611
550.43	4.562
550.62	4.317
550.82	4.507
551.01	3.869
551.21	4.635
551.40	4.020
551.60	4.603
551.79	4.052
551.99	4.476
552.18	4.125
552.38	4.382
552.57	4.762
552.77	4.644
552.96	4.419
553.16	4.862
553.35	4.387
553.54	5.237
553.74	4.727
553.93	4.772
554.13	4.552
554.32	5.080
554.52	4.449
554.71	5.331
554.91	4.131
555.10	4.987
555.29	4.166
555.49	4.732
555.68	4.523
555.88	4.928
556.07	4.357
556.27	5.114
556.46	4.993
556.66	4.373
556.85	4.919
557.04	5.437
557.24	4.917
557.43	5.043
557.63	4.899
557.82	4.934
558.02	4.673
558.21	5.368
558.40	4.617
558.60	4.932
558.79	4.896
558.99	5.275
559.18	4.588
559.38	5.156
559.57	5.201
559.76	5.296
559.96	5.610
560.15	5.300
560.35	4.753
560.54	4.870
560.73	4.456
560.93	5.442
561.12	4.903
561.32	5.157
561.51	5.029
561.70	5.353
561.90	5.134
562.09	5.823
562.29	5.176
562.48	5.323
562.67	5.380
562.87	5.752
563.06	5.349
563.26	5.315
563.45	5.575
563.64	5.902
563.84	5.721
564.03	5.699
564.23	5.426
564.42	6.439
564.61	5.399
564.81	5.582
565.00	5.731
565.20	6.373
565.39	6.431
565.58	6.379
565.78	5.319
565.97	6.263
566.16	6.639
566.36	7.285
566.55	6.164
566.74	6.429
566.94	5.984
567.13	6.853
567.33	6.465
567.52	6.968
567.71	6.389
567.91	6.453
568.10	6.985
568.29	7.120
568.49	6.562
568.68	6.759
568.87	6.237
569.07	7.222
569.26	7.267
569.45	7.081
569.65	6.473
569.84	7.148
570.04	6.884
570.23	7.187
570.42	6.373
570.62	6.832
570.81	7.105
571.00	7.094
571.20	7.233
571.39	7.266
571.58	6.665
571.78	7.514
571.97	7.172
572.16	7.609
572.36	7.317
572.55	7.949
572.74	7.531
572.94	7.586
573.13	7.397
573.32	7.704
573.51	7.432
573.71	7.855
573.90	7.291
574.09	7.636
574.29	7.470
574.48	7.741
574.67	7.593
574.87	7.930
575.06	7.413
575.25	7.933
575.45	7.687
575.64	7.784
575.83	7.292
576.03	8.193
576.22	7.617
576.41	7.767
576.60	7.726
576.80	7.335
576.99	7.619
577.18	8.289
577.38	7.763
577.57	8.059
577.76	8.294
577.95	8.593
578.15	6.874
578.34	7.546
578.53	7.253
578.73	7.663
578.92	7.265
579.11	7.050
579.30	7.949
579.50	7.487
579.69	7.817
579.88	7.153
580.08	6.906
580.27	7.551
580.46	7.835
580.65	7.222
580.85	6.982
581.04	7.918
581.23	6.991
581.42	7.776
581.62	6.739
581.81	7.564
582.00	7.344
582.19	7.539
582.39	7.390
582.58	7.556
582.77	7.652
582.96	6.910
583.16	6.912
583.35	7.683
583.54	7.295
583.73	7.036
583.93	6.895
584.12	7.385
584.31	7.049
584.50	6.681
584.70	6.408
584.89	6.730
585.08	7.054
585.27	7.588
585.47	6.442
585.66	7.033
585.85	6.015
586.04	6.816
586.24	7.210
586.43	7.261
586.62	6.652
586.81	6.777
587.00	6.987
587.20	7.216
587.39	6.288
587.58	6.849
587.77	6.593
587.97	6.789
588.16	6.733
588.35	7.153
588.54	6.593
588.73	6.422
588.93	7.350
589.12	6.992
589.31	7.351
589.50	7.070
589.69	7.447
589.89	7.289
590.08	6.688
590.27	7.097
590.46	7.374
590.65	6.763
590.85	5.998
591.04	7.190
591.23	7.434
591.42	7.343
591.61	6.702
591.81	6.762
592.00	6.850
592.19	7.470
592.38	6.219
592.57	7.310
592.77	6.454
592.96	7.247
593.15	7.460
593.34	7.405
593.53	6.877
593.72	6.887
593.92	6.860
594.11	7.427
594.30	6.589
594.49	7.616
594.68	7.058
594.87	7.569
595.07	6.897
595.26	7.935
595.45	7.086
595.64	7.386
595.83	6.434
596.02	7.420
596.22	7.022
596.41	7.272
596.60	7.054
596.79	7.974
596.98	7.471
597.17	7.579
597.37	7.457
597.56	8.006
597.75	7.383
597.94	7.981
598.13	7.762
598.32	7.957
598.51	7.290
598.71	8.626
598.90	7.825
599.09	8.134
599.28	7.651
599.47	7.768
599.66	7.017
599.85	8.515
600.05	6.733
600.24	8.614
600.43	7.475
600.62	8.034
600.81	7.657
601.00	8.161
601.19	6.927
601.38	7.728
601.58	8.142
601.77	7.380
601.96	7.314
602.15	8.399
602.34	7.747
602.53	8.316
602.72	7.428
602.91	8.141
603.10	7.625
603.30	8.279
603.49	7.878
603.68	8.387
603.87	7.008
604.06	8.548
604.25	8.488
604.44	8.246
604.63	8.411
604.82	8.537
605.01	8.269
605.21	8.599
605.40	8.332
605.59	8.772
605.78	8.731
605.97	8.734
606.16	8.371
606.35	8.582
606.54	7.882
606.73	8.931
606.92	8.018
607.11	8.538
607.30	8.327
607.50	8.849
607.69	7.549
607.88	7.906
608.07	7.791
608.26	8.507
608.45	8.418
608.64	8.873
608.83	7.176
609.02	8.295
609.21	7.770
609.40	8.477
609.59	7.710
609.78	8.307
609.97	7.455
610.16	8.391
610.35	8.132
610.55	8.403
610.74	7.583
610.93	7.658
611.12	7.275
611.31	7.881
611.50	7.397
611.69	7.620
611.88	7.134
612.07	8.493
612.26	6.352
612.45	7.815
612.64	7.663
612.83	7.533
613.02	6.995
613.21	7.267
613.40	6.631
613.59	7.437
613.78	6.048
613.97	7.049
614.16	6.459
614.35	7.373
614.54	5.904
614.73	7.573
614.92	7.326
615.11	6.192
615.30	6.354
615.49	6.247
615.68	6.401
615.87	5.720
616.07	6.150
616.26	6.903
616.45	6.341
616.64	6.469
616.83	6.634
617.02	7.891
617.21	5.693
617.40	5.741
617.59	5.984
617.78	6.907
617.97	6.583
618.16	5.961
618.35	5.446
618.54	6.530
618.73	6.359
618.92	6.382
619.11	5.514
619.30	6.909
619.49	5.373
619.68	6.631
619.86	6.105
620.05	6.282
620.24	5.934
620.43	5.947
620.62	5.222
620.81	5.678
621.00	6.705
621.19	6.365
621.38	6.106
621.57	6.517
621.76	5.659
621.95	6.716
622.14	5.799
622.33	6.474
622.52	5.670
622.71	6.198
622.90	5.601
623.09	6.265
623.28	5.706
623.47	6.555
623.66	5.636
623.85	5.141
624.04	5.644
624.23	5.814
624.42	5.728
624.61	5.772
624.80	5.116
624.99	5.597
625.18	4.699
625.36	5.714
625.55	5.893
625.74	5.443
625.93	5.309
626.12	5.659
626.31	5.797
626.50	6.391
626.69	5.875
626.88	6.686
627.07	5.723
627.26	5.926
627.45	5.893
627.64	5.718
627.83	5.961
628.02	6.058
628.20	5.316
628.39	5.626
628.58	5.549
628.77	6.545
628.96	5.155
629.15	5.563
629.34	5.474
629.53	5.138
629.72	5.213
629.91	6.315
630.10	5.842
630.29	5.656
630.47	4.684
630.66	4.779
630.85	4.938
631.04	5.757
631.23	5.047
631.42	5.466
631.61	5.119
631.80	6.174
631.99	4.048
632.18	5.036
632.36	5.079
632.55	5.408
632.74	4.379
632.93	5.087
633.12	4.895
633.31	5.171
633.50	5.136
633.69	5.572
633.88	4.320
634.06	5.900
634.25	4.791
634.44	5.571
634.63	5.063
634.82	5.888
635.01	5.313
635.20	5.437
635.39	4.441
635.57	4.864
635.76	4.732
635.95	4.433
636.14	5.153
636.33	5.564
636.52	5.175
636.71	4.824
636.89	5.246
637.08	4.834
637.27	4.565
637.46	4.981
637.65	5.227
637.84	5.273
638.03	5.120
638.21	5.775
638.40	5.374
638.59	4.515
638.78	5.556
638.97	5.417
639.16	6.187
639.34	4.943
639.53	4.008
639.72	5.895
639.91	5.971
640.10	4.672
640.29	6.603
640.47	5.746
640.66	5.354
640.85	6.068
641.04	4.378
641.23	5.271
641.42	4.889
641.60	5.238
641.79	4.598
641.98	5.472
642.17	4.981
642.36	5.759
642.54	5.456
642.73	5.588
642.92	5.128
643.11	4.826
643.30	4.858
643.49	5.070
643.67	4.197
643.86	5.460
644.05	5.145
644.24	4.675
644.43	5.965
644.61	5.875
644.80	5.118
644.99	4.876
645.18	6.770
645.37	5.278
645.55	5.869
645.74	5.257
645.93	5.880
646.12	5.443
646.31	5.836
646.49	5.467
646.68	5.169
646.87	5.855
647.06	5.445
647.24	5.362
647.43	4.240
647.62	6.491
647.81	4.338
648.00	5.984
648.18	4.736
648.37	5.859
648.56	5.426
648.75	5.865
648.93	4.840
649.12	4.774
649.31	4.791
649.50	5.105
649.68	5.061
649.87	5.187
650.06	3.481
650.25	5.243
650.43	5.186
650.62	5.178
650.81	5.128
651.00	5.817
651.18	4.903
651.37	5.076
651.56	3.539
651.75	6.356
651.93	4.597
652.12	5.363
652.31	4.889
652.50	4.967
652.68	5.255
652.87	5.686
653.06	5.165
653.25	5.839
653.43	4.846
653.62	4.521
653.81	5.693
654.00	6.249
654.18	4.994
654.37	5.458
654.56	4.016
654.74	4.941
654.93	4.686
655.12	5.310
655.31	5.046
655.49	6.405
655.68	4.719
655.87	3.925
656.05	3.757
656.24	3.868
656.43	5.154
656.62	4.335
656.80	5.331
656.99	3.987
657.18	4.492
657.36	4.912
657.55	5.074
657.74	4.378
657.93	4.888
658.11	5.201
658.30	4.820
658.49	4.211
658.67	4.017
658.86	4.277
659.05	4.649
659.23	4.699
659.42	4.080
659.61	3.918
659.79	4.918
659.98	4.264
660.17	5.235
660.35	4.233
660.54	5.074
660.73	6.293
660.91	5.159
661.10	5.225
661.29	3.988
661.47	4.421
661.66	4.221
661.85	4.914
662.03	5.999
662.22	4.972
662.41	4.052
662.59	4.283
662.78	4.017
662.97	4.953
663.15	3.949
663.34	3.586
663.53	4.160
663.71	5.021
663.90	5.693
664.09	5.611
664.27	4.416
664.46	4.514
664.65	4.029
664.83	3.882
665.02	5.742
665.21	4.739
665.39	4.734
665.58	4.577
665.77	3.852
665.95	4.634
666.14	4.990
666.32	4.628
666.51	4.933
666.70	4.220
666.88	4.977
667.07	4.127
667.26	4.308
667.44	4.819
667.63	5.781
667.81	4.399
668.00	4.364
668.19	4.568
668.37	5.207
668.56	5.746
668.75	4.867
668.93	5.702
669.12	4.088
669.30	5.012
669.49	4.986
669.68	6.383
669.86	6.121
670.05	3.869
670.23	5.352
670.42	4.927
670.61	6.150
670.79	4.642
670.98	5.705
671.16	6.326
671.35	4.775
671.54	5.688
671.72	4.840
671.91	5.241
672.09	4.596
672.28	6.728
672.46	7.451
672.65	5.574
672.84	6.141
673.02	6.159
673.21	4.722
673.39	5.358
673.58	6.628
673.77	6.628
673.95	5.778
674.14	6.544
674.32	5.534
674.51	8.079
674.69	5.593
674.88	6.035
675.07	5.202
675.25	7.516
675.44	6.770
675.62	6.552
675.81	5.779
675.99	9.223
676.18	8.058
676.36	7.436
676.55	5.867
676.74	6.653
676.92	8.190
677.11	6.831
677.29	6.042
677.48	8.384
677.66	7.768
677.85	6.166
678.03	6.471
678.22	7.647
678.40	8.335
678.59	6.533
678.78	6.162
678.96	6.843
679.15	7.136
679.33	8.534
679.52	6.357
679.70	6.863
679.89	7.248
680.07	6.956
680.26	6.571
680.44	6.639
680.63	6.968
680.81	6.689
681.00	5.684
681.18	6.767
681.37	6.692
681.55	7.237
681.74	7.319
681.92	7.471
682.11	7.867
682.29	6.836
682.48	6.745
682.66	7.318
682.85	7.505
683.03	7.569
683.22	7.910
683.40	7.624
683.59	8.283
683.77	6.318
683.96	6.222
684.14	7.768
684.33	5.646
684.51	9.041
684.70	7.308
684.88	9.351
685.07	8.536
685.25	7.666
685.44	7.775
685.62	7.528
685.81	6.976
685.99	8.102
686.18	7.324
686.36	8.037
686.55	6.290
686.73	7.625
686.92	8.439
687.10	7.999
687.29	8.473
687.47	8.733
687.65	8.792
687.84	7.308
688.02	10.056
688.21	8.826
688.39	8.034
688.58	9.842
688.76	6.979
688.95	7.684
689.13	7.954
689.32	9.466
689.50	8.917
689.68	9.021
689.87	8.616
690.05	10.599
690.24	8.972
690.42	8.876
690.61	9.185
690.79	9.686
690.98	9.712
691.16	9.909
691.34	7.927
691.53	10.054
691.71	9.473
691.90	10.172
692.08	8.526
692.27	11.826
692.45	11.455
692.63	9.194
692.82	11.613
693.00	9.756
693.19	9.752
693.37	11.422
693.56	10.680
693.74	12.890
693.92	10.607
694.11	10.909
694.29	12.597
694.48	14.003
694.66	12.015
694.84	13.531
695.03	11.153
695.21	14.364
695.40	13.711
695.58	15.031
695.76	14.208
695.95	14.277
696.13	13.586
696.32	14.574
696.50	18.639
696.68	16.704
696.87	14.422
697.05	16.838
697.24	15.777
697.42	16.890
697.60	16.996
697.79	17.793
697.97	17.969
698.16	19.795
698.34	16.197
698.52	18.943
698.71	18.666
698.89	19.677
699.07	19.194
699.26	20.305
699.44	19.189
699.63	19.878
699.81	20.020
699.99	21.189
700.18	20.051
700.36	20.685
700.54	20.903
700.73	22.435
700.91	21.281
701.09	23.212
701.28	22.883
701.46	22.516
701.64	22.035
701.83	23.663
702.01	22.561
702.20	23.968
702.38	25.303
702.56	25.061
702.75	24.317
702.93	25.004
703.11	25.274
703.30	26.473
703.48	25.761
703.66	27.457
703.85	26.065
704.03	28.864
704.21	25.798
704.40	30.856
704.58	26.890
704.76	28.664
704.95	26.878
705.13	29.736
705.31	29.779
705.50	28.747
705.68	27.680
705.86	30.147
706.04	28.059
706.23	30.797
706.41	29.742
706.59	30.089
706.78	28.681
706.96	32.024
707.14	32.467
707.33	31.317
707.51	30.912
707.69	30.744
707.88	30.502
708.06	33.438
708.24	31.641
708.42	32.771
708.61	32.269
708.79	33.383
708.97	33.424
709.16	33.562
709.34	35.481
709.52	33.221
709.71	33.356
709.89	33.938
710.07	31.593
710.25	35.076
710.44	32.832
710.62	34.498
710.80	33.829
710.98	34.912
711.17	31.276
711.35	35.406
711.53	33.610
711.72	34.896
711.90	34.221
712.08	34.625
712.26	33.312
712.45	35.192
712.63	35.436
712.81	34.600
712.99	34.998
713.18	34.837
713.36	35.295
713.54	35.946
713.72	35.724
713.91	37.242
714.09	34.467
714.27	36.660
714.45	36.967
714.64	36.981
714.82	36.689
715.00	37.111
715.18	36.307
715.37	35.977
715.55	36.459
715.73	38.099
715.91	36.296
716.10	37.336
716.28	35.997
716.46	37.502
716.64	34.450
716.83	38.170
717.01	35.451
717.19	36.257
717.37	36.447
717.55	37.365
717.74	37.477
717.92	36.854
718.10	34.362
718.28	37.791
718.47	35.391
718.65	38.361
718.83	36.798
719.01	36.153
719.19	37.305
719.38	37.553
719.56	37.416
719.74	37.510
719.92	33.628
720.10	38.097
720.29	36.197
720.47	37.841
720.65	38.341
720.83	38.560
721.01	36.111
721.20	38.756
721.38	37.942
721.56	40.225
721.74	38.595
721.92	41.333
722.11	38.019
722.29	39.372
722.47	40.303
722.65	41.438
722.83	39.305
723.01	42.983
723.20	39.440
723.38	40.886
723.56	38.666
723.74	40.912
723.92	39.806
724.10	42.385
724.29	39.482
724.47	41.065
724.65	38.266
724.83	39.606
725.01	37.351
725.19	42.246
725.38	37.918
725.56	41.198
725.74	39.955
725.92	41.236
726.10	39.006
726.28	41.231
726.46	38.918
726.65	42.727
726.83	39.390
727.01	41.838
727.19	40.807
727.37	41.812
727.55	41.013
727.73	40.587
727.92	40.992
728.10	40.667
728.28	39.949
728.46	41.348
728.64	38.887
728.82	39.710
729.00	38.228
729.19	40.787
729.37	41.145
729.55	40.386
729.73	39.473
729.91	40.955
730.09	39.566
730.27	40.851
730.45	38.682
730.63	41.532
730.82	41.582
731.00	40.860
731.18	39.988
731.36	41.835
731.54	40.136
731.72	41.104
731.90	38.740
732.08	41.727
732.26	39.504
732.45	45.462
732.63	41.388
732.81	41.469
732.99	42.751
733.17	40.721
733.35	41.232
733.53	42.102
733.71	40.794
733.89	44.042
734.07	40.901
734.25	43.731
734.44	40.686
734.62	42.783
734.80	42.049
734.98	45.117
735.16	42.504
735.34	41.730
735.52	44.075
735.70	44.736
735.88	45.122
736.06	46.549
736.24	45.006
736.42	46.645
736.60	43.990
736.78	46.574
736.97	45.573
737.15	46.224
737.33	46.411
737.51	44.810
737.69	45.979
737.87	46.427
738.05	46.629
738.23	50.809
738.41	47.697
738.59	48.527
738.77	46.566
738.95	49.156
739.13	47.963
739.31	44.200
739.49	44.798
739.67	48.791
739.85	44.444
740.03	46.624
740.21	44.730
740.39	47.917
740.57	47.608
740.75	47.039
740.93	43.953
741.11	47.815
741.30	48.323
741.48	45.290
741.66	46.977
741.84	46.907
742.02	47.210
742.20	46.798
742.38	46.567
742.56	47.900
742.74	48.881
742.92	50.552
743.10	46.243
743.28	47.619
743.46	47.798
743.64	48.614
743.82	51.510
744.00	47.890
744.18	47.514
744.36	49.583
744.54	49.843
744.72	51.449
744.90	49.176
745.08	51.557
745.26	48.935
745.44	54.296
745.62	49.403
745.80	50.143
745.98	50.764
746.16	52.918
746.34	49.599
746.52	51.155
746.70	50.769
746.87	52.095
747.05	50.663
747.23	53.992
747.41	51.418
747.59	49.662
747.77	47.133
747.95	50.379
748.13	52.068
748.31	52.652
748.49	49.374
748.67	52.320
748.85	51.278
749.03	51.142
749.21	47.803
749.39	50.757
749.57	47.261
749.75	51.748
749.93	49.440
750.11	50.492
750.29	48.170
750.47	50.820
750.65	44.828
750.83	48.853
751.01	50.251
751.18	47.289
751.36	50.687
751.54	50.906
751.72	50.794
751.90	51.511
752.08	46.422
752.26	46.851
752.44	49.716
752.62	47.309
752.80	47.458
752.98	50.495
753.16	51.110
753.34	49.036
753.52	50.947
753.69	48.976
753.87	48.534
754.05	53.233
754.23	46.320
754.41	49.417
754.59	48.178
754.77	50.444
754.95	47.564
755.13	50.616
755.31	51.398
755.49	48.262
755.66	49.382
755.84	49.714
756.02	48.216
756.20	49.177
756.38	46.572
756.56	46.151
756.74	48.969
756.92	47.691
757.10	47.757
757.28	54.984
757.45	51.538
757.63	48.701
757.81	52.187
757.99	52.677
758.17	50.195
758.35	52.239
758.53	45.654
758.71	48.005
758.88	46.453
759.06	45.746
759.24	45.622
759.42	46.818
759.60	43.527
759.78	47.105
759.96	38.029
760.13	43.727
760.31	37.019
760.49	37.131
760.67	32.396
760.85	36.490
761.03	35.954
761.21	37.042
761.38	35.370
761.56	36.469
761.74	34.728
761.92	38.826
762.10	34.702
762.28	38.990
762.46	35.171
762.63	36.587
762.81	36.539
762.99	35.572
763.17	35.310
763.35	37.911
763.53	35.494
763.70	37.472
763.88	36.109
764.06	35.244
764.24	33.125
764.42	36.087
764.60	35.812
764.77	35.506
764.95	35.417
765.13	37.840
765.31	37.480
765.49	38.092
765.66	36.527
765.84	37.156
766.02	38.228
766.20	38.370
766.38	39.120
766.56	39.529
766.73	42.204
766.91	41.486
767.09	42.719
767.27	44.880
767.45	43.283
767.62	42.641
767.80	43.236
767.98	47.336
768.16	43.145
768.33	46.199
768.51	43.783
768.69	47.949
768.87	48.093
769.05	49.680
769.22	47.294
769.40	53.523
769.58	45.397
769.76	49.709
769.94	47.116
770.11	47.769
770.29	54.901
770.47	48.657
770.65	50.921
770.82	50.812
771.00	46.968
771.18	52.446
771.36	49.798
771.53	52.005
771.71	49.069
771.89	53.231
772.07	53.554
772.25	52.792
772.42	53.489
772.60	51.178
772.78	52.396
772.96	54.343
773.13	53.944
773.31	51.020
773.49	49.770
773.67	55.468
773.84	49.954
774.02	55.311
774.20	49.978
774.37	56.500
774.55	50.319
774.73	54.801
774.91	50.642
775.08	56.943
775.26	52.867
775.44	56.555
775.62	53.566
775.79	52.692
775.97	54.283
776.15	51.595
776.32	55.368
776.50	57.670
776.68	57.273
776.86	55.512
777.03	56.188
777.21	56.374
777.39	53.317
777.56	56.507
777.74	51.354
777.92	55.166
778.10	52.130
778.27	53.835
778.45	58.678
778.63	56.229
778.80	49.784
778.98	55.411
779.16	54.334
779.34	54.076
779.51	53.103
779.69	53.754
779.87	53.653
780.04	52.421
780.22	41.682
780.40	54.400
780.57	53.130
780.75	51.932
780.93	61.711
781.10	53.775
781.28	55.841
781.46	51.136
781.63	51.159
781.81	56.008
781.99	55.620
782.16	54.989
782.34	52.969
782.52	53.907
782.69	52.620
782.87	57.234
783.05	50.283
783.22	55.318
783.40	50.501
783.58	49.058
783.75	53.624
783.93	56.732
784.11	53.548
784.28	52.904
784.46	52.558
784.64	55.224
784.81	50.142
784.99	54.245
785.17	53.780
785.34	51.515
785.52	54.535
785.69	48.666
785.87	52.573
786.05	55.574
786.22	49.772
786.40	58.430
786.58	52.088
786.75	54.833
786.93	54.700
787.11	55.062
787.28	49.684
787.46	50.691
787.63	52.156
787.81	49.566
787.99	50.907
788.16	49.672
788.34	44.439
788.51	49.821
788.69	48.646
788.87	45.286
789.04	45.022
789.22	46.550
789.39	46.109
789.57	46.309
789.75	44.605
789.92	48.519
790.10	46.731
790.27	49.081
790.45	46.943
790.63	47.547
790.80	49.299
790.98	50.624
791.15	44.895
791.33	49.917
791.51	46.882
791.68	49.206
791.86	55.881
792.03	49.944
792.21	48.027
792.39	49.010
792.56	49.302
792.74	51.174
792.91	48.420
793.09	51.174
793.26	46.383
793.44	51.394
793.62	54.336
793.79	55.833
793.97	52.962
794.14	51.390
794.32	51.739
794.49	55.590
794.67	52.527
794.84	52.435
795.02	43.746
795.20	49.387
795.37	46.062
795.55	51.231
795.72	46.477
795.90	48.056
796.07	48.716
796.25	48.989
796.42	44.934
796.60	46.701
796.77	47.871
796.95	46.756
797.13	46.084
797.30	49.839
797.48	48.973
797.65	49.243
797.83	45.666
798.00	47.425
798.18	41.314
798.35	49.798
798.53	45.198
798.70	55.290
798.88	46.494
799.05	43.883
799.23	46.496
799.40	50.572
799.58	49.297
799.75	49.624
799.93	40.415
800.10	47.746
800.28	44.486
800.45	45.312
800.63	43.227
800.80	49.242
800.98	43.635
801.15	47.650
801.33	48.345
801.50	49.533
801.68	47.755
801.85	46.125
802.03	47.494
802.20	43.186
802.38	46.239
802.55	46.735
802.73	45.930
802.90	50.098
803.08	47.091
803.25	51.307
803.43	51.898
803.60	51.277
803.78	50.837
803.95	50.583
804.13	49.384
804.30	52.323
804.48	44.584
804.65	50.531
804.83	50.663
805.00	51.503
805.17	47.872
805.35	49.030
805.52	48.298
805.70	50.675
805.87	50.316
806.05	49.350
806.22	48.810
806.40	47.897
806.57	48.684
806.75	50.464
806.92	46.374
807.09	48.759
807.27	48.629
807.44	53.413
807.62	42.325
807.79	49.934
807.97	47.007
808.14	52.894
808.31	48.246
808.49	45.848
808.66	49.254
808.84	46.039
809.01	51.206
809.19	46.652
809.36	50.355
809.53	52.221
809.71	49.450
809.88	49.850
810.06	49.393
810.23	61.451
810.41	49.444
810.58	53.060
810.75	42.556
810.93	53.588
811.10	52.009
811.28	45.482
811.45	48.084
811.62	43.991
811.80	47.426
811.97	45.515
812.15	56.293
812.32	43.452
812.49	55.043
812.67	45.857
812.84	47.173
813.02	56.307
813.19	49.395
813.36	48.287
813.54	44.084
813.71	52.323
813.89	48.349
814.06	53.780
814.23	48.510
814.41	47.325
814.58	45.008
814.75	50.881
814.93	44.995
815.10	45.757
815.28	40.638
815.45	40.278
815.62	42.092
815.80	40.610
815.97	43.574
816.14	45.939
816.32	46.573
816.49	41.553
816.66	44.825
816.84	42.553
817.01	41.101
817.18	35.434
817.36	42.967
817.53	44.208
817.71	37.571
817.88	47.792
818.05	41.001
818.23	40.906
818.40	36.371
818.57	36.215
818.75	42.474
818.92	43.818
819.09	44.357
819.27	41.771
819.44	37.744
819.61	42.442
819.79	45.429
819.96	42.203
820.13	36.859
820.31	40.204
820.48	44.310
820.65	34.435
820.82	30.861
821.00	37.080
821.17	35.003
821.34	34.427
821.52	33.535
821.69	34.254
821.86	31.093
822.04	33.580
822.21	30.375
822.38	31.967
822.56	30.274
822.73	32.554
822.90	32.418
823.07	32.738
823.25	31.633
823.42	32.898
823.59	30.082
823.77	32.914
823.94	31.923
824.11	32.541
824.29	31.933
824.46	32.376
824.63	31.587
824.80	32.958
824.98	32.172
825.15	33.114
825.32	29.836
825.49	34.109
825.67	29.448
825.84	33.881
826.01	31.870
826.19	32.790
826.36	30.712
826.53	31.717
826.70	31.019
826.88	33.304
827.05	31.860
827.22	33.240
827.39	31.932
827.57	32.732
827.74	30.228
827.91	32.752
828.08	28.038
828.26	33.722
828.43	29.930
828.60	31.886
828.77	30.482
828.95	34.549
829.12	29.224
829.29	29.571
829.46	30.946
829.64	32.575
829.81	31.568
829.98	35.361
830.15	33.722
830.32	32.581
830.50	29.748
830.67	35.824
830.84	33.770
831.01	34.223
831.19	33.236
831.36	34.155
831.53	37.773
831.70	42.305
831.87	38.214
832.05	39.679
832.22	38.935
832.39	38.000
832.56	32.853
832.74	40.955
832.91	33.485
833.08	44.945
833.25	33.442
833.42	37.500
833.60	31.121
833.77	28.146
833.94	34.974
834.11	33.285
834.28	30.009
834.45	34.722
834.63	29.535
834.80	34.563
834.97	31.614
835.14	34.583
835.31	30.674
835.49	33.273
835.66	32.459
835.83	30.248
836.00	31.164
836.17	29.983
836.34	31.494
836.52	36.702
836.69	34.610
836.86	40.770
837.03	35.978
837.20	33.587
837.37	36.826
837.55	35.972
837.72	38.550
837.89	37.376
838.06	43.525
838.23	49.833
838.40	43.306
838.58	43.345
838.75	43.973
838.92	52.563
839.09	53.132
839.26	54.393
839.43	53.715
839.60	58.047
839.78	51.310
839.95	62.376
840.12	52.884
840.29	61.590
840.46	45.257
840.63	56.369
840.80	47.421
840.98	48.864
841.15	53.754
841.32	47.091
841.49	41.392
841.66	47.379
841.83	39.272
842.00	44.817
842.17	38.028
842.34	47.065
842.52	52.118
842.69	54.318
842.86	48.107
843.03	65.033
843.20	46.607
843.37	52.990
843.54	59.337
843.71	48.143
843.88	66.799
844.06	66.944
844.23	69.787
844.40	52.664
844.57	55.689
844.74	57.848
844.91	77.504
845.08	62.975
845.25	80.833
845.42	61.165
845.59	68.089
845.76	66.908
845.94	67.459
846.11	68.852
846.28	85.124
846.45	78.373
846.62	89.518
846.79	63.222
846.96	86.693
847.13	70.294
847.30	84.201
847.47	63.540
847.64	57.333
847.81	76.132
847.98	72.233
848.15	92.922
848.32	87.729
848.50	63.762
848.67	71.092
848.84	86.799
849.01	67.538
849.18	81.278
849.35	93.376
849.52	87.119
849.69	88.503
849.86	71.743
850.03	87.528
850.20	75.000
850.37	69.505
850.54	82.937
850.71	88.423
850.88	68.515
851.05	80.550
851.22	102.813
851.39	87.037
851.56	68.932
851.73	84.394
851.90	81.777
852.07	82.718
852.24	72.000
852.41	67.960
852.58	101.348
852.75	77.381
852.92	82.353
853.09	100.000
853.26	121.739
853.43	80.674
853.60	86.944
853.77	86.331
853.94	86.385
854.11	96.195
854.28	101.188
854.45	87.097
854.62	92.027
854.79	101.106
854.96	77.099
855.13	84.211
855.30	91.053
855.47	86.592
855.64	88.036
855.81	77.727
855.98	92.368
856.15	99.502
856.32	93.229
856.49	96.100
856.66	95.632
856.83	97.158
857.00	73.182
857.17	97.826
857.34	63.920
857.51	74.074
857.68	93.069
857.85	75.547
858.02	105.914
858.19	79.138
858.36	80.519
858.53	93.689
858.70	80.676
858.87	104.559
859.04	79.025
859.21	69.154
859.38	89.532
859.55	106.292
859.72	81.839
859.89	106.345
860.05	86.543
860.22	86.408
860.39	84.492
860.56	72.688
860.73	83.816
860.90	91.975
861.07	108.696
861.24	103.876
861.41	92.473
861.58	76.441
861.75	79.045
861.92	92.120
862.09	78.808
862.26	84.906
862.43	108.556
862.59	97.638
862.76	77.805
862.93	122.933
863.10	75.369
863.27	88.127
863.44	68.462
863.61	61.804
863.78	73.381
863.95	106.081
864.12	72.198
864.29	121.807
864.45	66.596
864.62	73.614
864.79	94.892
864.96	91.244
865.13	84.348
865.30	74.639
865.47	81.385
865.64	117.325
865.81	79.330
865.97	78.182
866.14	93.716
866.31	85.479
866.48	84.483
866.65	96.107
866.82	101.720
866.99	94.928
867.16	76.905
867.33	89.041
867.49	100.713
867.66	81.109
867.83	83.777
868.00	83.914
868.17	69.978
868.34	82.713
868.51	86.420
868.67	94.924
868.84	88.506
869.01	93.043
869.18	89.235
869.35	95.238
869.52	72.158
869.69	111.585
869.85	101.180
870.02	76.364
870.19	74.634
870.36	94.787
870.53	82.927
870.70	75.062
870.86	74.286
871.03	95.285
871.20	82.059
871.37	87.961
871.54	101.316
871.71	79.951
871.87	80.229
872.04	80.508
872.21	66.250
872.38	107.447
872.55	99.515
872.72	67.217
872.88	97.345
873.05	74.720
873.22	64.337
873.39	71.180
873.56	76.617
873.72	89.589
873.89	68.262
874.06	84.555
874.23	98.291
874.40	81.980
874.56	77.468
874.73	66.219
874.90	79.009
875.07	98.961
875.24	74.429
875.40	89.827
875.57	88.783
875.74	82.759
875.91	79.386
876.08	80.846
876.24	90.191
876.41	75.163
876.58	89.067
876.75	66.759
876.92	81.627
877.08	84.444
877.25	74.654
877.42	66.595
877.59	76.298
877.75	88.981
877.92	69.231
878.09	88.861
878.26	82.995
878.42	71.959
878.59	100.247
878.76	86.585
878.93	85.593
879.09	86.395
879.26	69.482
879.43	64.302
879.60	73.618
879.76	75.670
879.93	67.450
880.10	50.482
880.27	51.394
880.43	55.969
880.60	50.432
880.77	41.022
880.94	59.424
881.10	38.303
881.27	44.095
881.44	29.035
881.61	34.502
881.77	36.799
881.94	31.548
882.11	23.743
882.28	26.038
882.44	25.612
882.61	22.558
882.78	25.933
882.94	29.631
883.11	25.452
883.28	27.242
883.45	26.051
883.61	26.087
883.78	25.474
883.95	28.295
884.11	27.862
884.28	27.469
>>>>>End Processed Spectral Data<<<<<
