SpectraSuite Data File
++++++++++++++++++++++++++++++++++++
Date: Thu Sep 26 04:02:08 EST 2019
User: sgrac
Dark Spectrum Present: Yes
Reference Spectrum Present: Yes
Number of Sampled Component Spectra: 1
Spectrometers: USB4E01596
Integration Time (usec): 100000 (USB4E01596)
Spectra Averaged: 3 (USB4E01596)
Boxcar Smoothing: 0 (USB4E01596)
Correct for Electrical Dark: No (USB4E01596)
Strobe/Lamp Enabled: Yes (USB4E01596)
Correct for Detector Non-linearity: No (USB4E01596)
Correct for Stray Light: No (USB4E01596)
Number of Pixels in Processed Spectrum: 3648
>>>>>Begin Processed Spectral Data<<<<<
178.44	-2062.500
178.66	-2062.500
178.87	-2062.500
179.09	-432.653
179.30	-166.667
179.52	-1095.455
179.74	-575.000
179.95	-1984.615
180.17	357.831
180.38	1842.857
180.60	594.643
180.82	410.843
181.03	444.444
181.25	312.500
181.46	-1003.226
181.68	473.333
181.89	1846.667
182.11	-1722.222
182.33	364.078
182.54	356.322
182.76	596.429
182.97	777.778
183.19	202.484
183.40	369.903
183.62	2450.000
183.84	268.478
184.05	2425.000
184.27	335.052
184.48	-758.333
184.70	1671.429
184.91	418.000
185.13	1766.667
185.34	727.027
185.56	2620.000
185.78	393.814
185.99	492.208
186.21	731.429
186.42	1680.000
186.64	1114.286
186.85	332.653
187.07	311.429
187.28	396.491
187.50	1526.087
187.72	1405.556
187.93	755.319
188.15	709.434
188.36	975.000
188.58	7366.667
188.79	675.000
189.01	5400.000
189.22	315.179
189.44	1145.833
189.65	3166.667
189.87	937.838
190.09	974.194
190.30	544.444
190.52	-25800.000
190.73	-23300.000
190.95	1500.000
191.16	305.505
191.38	273.913
191.59	894.118
191.81	450.000
192.02	983.333
192.24	434.247
192.45	209.474
192.67	695.745
192.88	582.051
193.10	315.116
193.31	335.955
193.53	1747.059
193.74	339.024
193.96	336.250
194.18	1273.684
194.39	266.957
194.61	2790.909
194.82	363.514
195.04	244.762
195.25	263.281
195.47	584.375
195.68	373.418
195.90	1445.000
196.11	320.000
196.33	1184.615
196.54	525.397
196.76	775.000
196.97	1081.818
197.19	816.667
197.40	-542.222
197.62	432.727
197.83	282.353
198.05	592.453
198.26	470.423
198.48	2533.333
198.69	0.000
198.91	2566.667
199.12	598.148
199.34	484.058
199.55	272.072
199.77	311.494
199.98	8133.333
200.20	316.667
200.41	296.262
200.63	1338.095
200.84	573.913
201.06	335.345
201.27	1409.524
201.49	1585.000
201.70	-1850.000
201.91	342.553
202.13	533.333
202.34	-302.083
202.56	542.424
202.77	2500.000
202.99	700.000
203.20	496.721
203.42	529.091
203.63	330.769
203.85	207.299
204.06	476.316
204.28	360.714
204.49	573.529
204.71	356.338
204.92	-9650.000
205.14	996.429
205.35	362.319
205.56	937.500
205.78	457.627
205.99	454.717
206.21	207.407
206.42	321.591
206.64	884.375
206.85	361.905
207.07	198.400
207.28	246.154
207.50	571.212
207.71	952.381
207.93	-758.333
208.14	-2190.909
208.35	980.000
208.57	308.889
208.78	532.000
209.00	550.000
209.21	6375.000
209.43	331.731
209.64	675.000
209.86	3380.000
210.07	641.463
210.28	-539.474
210.50	7966.667
210.71	856.667
210.93	269.828
211.14	551.923
211.36	1047.368
211.57	544.643
211.78	1366.667
212.00	783.333
212.21	398.276
212.43	664.286
212.64	266.990
212.86	435.897
213.07	192.105
213.29	1613.333
213.50	334.177
213.71	256.452
213.93	534.091
214.14	231.731
214.36	191.765
214.57	693.617
214.78	258.537
215.00	403.529
215.21	306.173
215.43	1011.111
215.64	321.739
215.86	229.496
216.07	1036.000
216.28	379.747
216.50	313.208
216.71	324.390
216.93	676.190
217.14	2209.091
217.35	700.000
217.57	435.484
217.78	307.080
218.00	245.745
218.21	229.605
218.42	616.279
218.64	307.921
218.85	192.857
219.07	328.000
219.28	911.429
219.49	726.316
219.71	432.000
219.92	-2120.000
220.14	473.437
220.35	1333.333
220.56	-10600.000
220.78	211.111
220.99	705.000
221.21	302.410
221.42	310.256
221.63	278.723
221.85	0.000
222.06	285.849
222.28	851.429
222.49	406.061
222.70	1478.571
222.92	365.385
223.13	174.306
223.34	264.130
223.56	206.957
223.77	159.873
223.99	200.621
224.20	176.923
224.41	521.277
224.63	161.905
224.84	239.640
225.05	203.053
225.27	190.751
225.48	227.193
225.69	148.352
225.91	218.261
226.12	148.701
226.34	132.353
226.55	138.971
226.76	121.739
226.98	91.949
227.19	131.844
227.40	221.111
227.62	104.104
227.83	107.229
228.04	97.143
228.26	79.284
228.47	70.343
228.69	49.180
228.90	51.670
229.11	47.695
229.33	56.000
229.54	28.343
229.75	37.641
229.97	40.732
230.18	36.313
230.39	34.899
230.61	28.272
230.82	33.761
231.03	24.000
231.25	39.751
231.46	34.994
231.67	41.899
231.89	36.205
232.10	42.238
232.31	42.361
232.53	37.339
232.74	51.783
232.95	49.493
233.17	52.036
233.38	51.075
233.59	55.950
233.81	42.642
234.02	56.619
234.23	50.100
234.45	57.978
234.66	37.143
234.87	55.476
235.09	45.375
235.30	55.130
235.51	45.887
235.73	41.930
235.94	40.309
236.15	56.401
236.36	48.068
236.58	44.864
236.79	41.590
237.00	39.693
237.22	36.084
237.43	65.854
237.64	53.195
237.86	38.833
238.07	51.548
238.28	42.069
238.50	46.892
238.71	52.083
238.92	32.055
239.13	44.880
239.35	62.795
239.56	45.779
239.77	29.261
239.99	34.551
240.20	49.934
240.41	35.007
240.63	30.676
240.84	40.788
241.05	26.927
241.26	32.330
241.48	28.208
241.69	22.418
241.90	21.522
242.12	23.082
242.33	18.875
242.54	7.599
242.75	14.399
242.97	19.816
243.18	11.167
243.39	12.979
243.61	13.061
243.82	13.491
244.03	13.771
244.24	13.522
244.46	16.606
244.67	13.452
244.88	17.295
245.09	10.631
245.31	14.580
245.52	14.393
245.73	15.477
245.95	33.250
246.16	14.045
246.37	14.301
246.58	15.358
246.80	16.010
247.01	14.298
247.22	13.108
247.43	11.299
247.65	11.318
247.86	9.385
248.07	8.019
248.28	7.812
248.50	9.886
248.71	7.835
248.92	7.183
249.13	7.549
249.35	8.256
249.56	7.627
249.77	8.453
249.98	9.457
250.20	9.341
250.41	12.042
250.62	13.744
250.83	12.775
251.05	16.287
251.26	17.404
251.47	17.189
251.68	17.043
251.90	17.275
252.11	15.667
252.32	16.022
252.53	13.590
252.75	16.342
252.96	13.836
253.17	12.472
253.38	11.032
253.59	13.187
253.81	13.149
254.02	14.441
254.23	11.048
254.44	13.245
254.66	18.707
254.87	13.004
255.08	16.724
255.29	16.123
255.50	19.615
255.72	19.654
255.93	24.051
256.14	23.275
256.35	18.079
256.57	21.208
256.78	16.834
256.99	18.436
257.20	23.957
257.41	20.414
257.63	15.764
257.84	18.433
258.05	19.514
258.26	13.556
258.47	13.018
258.69	13.713
258.90	12.702
259.11	12.595
259.32	11.518
259.53	10.999
259.75	10.288
259.96	7.212
260.17	6.192
260.38	5.901
260.59	7.348
260.81	6.194
261.02	5.354
261.23	6.694
261.44	6.287
261.65	5.725
261.87	6.838
262.08	6.927
262.29	8.404
262.50	5.399
262.71	8.116
262.92	7.897
263.14	8.746
263.35	8.414
263.56	10.316
263.77	14.132
263.98	8.983
264.20	15.309
264.41	9.528
264.62	10.551
264.83	8.469
265.04	17.104
265.25	13.171
265.47	11.514
265.68	14.734
265.89	13.793
266.10	9.396
266.31	17.314
266.52	9.436
266.74	10.582
266.95	9.194
267.16	10.763
267.37	8.629
267.58	10.674
267.79	9.990
268.01	10.575
268.22	8.156
268.43	10.731
268.64	8.535
268.85	8.174
269.06	10.065
269.27	9.480
269.49	6.817
269.70	11.115
269.91	9.918
270.12	8.459
270.33	12.256
270.54	8.797
270.75	8.596
270.97	10.213
271.18	10.676
271.39	9.045
271.60	9.678
271.81	9.451
272.02	7.143
272.23	9.007
272.45	6.647
272.66	5.454
272.87	7.361
273.08	6.721
273.29	8.214
273.50	7.835
273.71	7.260
273.92	8.469
274.14	9.852
274.35	6.046
274.56	9.202
274.77	6.861
274.98	9.865
275.19	7.408
275.40	8.771
275.61	6.304
275.83	8.931
276.04	8.472
276.25	10.361
276.46	6.988
276.67	10.838
276.88	8.706
277.09	9.706
277.30	8.140
277.51	9.720
277.73	7.289
277.94	7.605
278.15	8.143
278.36	9.864
278.57	9.350
278.78	9.590
278.99	8.393
279.20	11.894
279.41	11.091
279.62	9.487
279.84	7.671
280.05	8.846
280.26	7.782
280.47	8.774
280.68	7.460
280.89	10.151
281.10	7.923
281.31	7.817
281.52	8.360
281.73	7.457
281.94	7.816
282.16	7.544
282.37	8.897
282.58	8.994
282.79	8.800
283.00	10.281
283.21	5.286
283.42	5.132
283.63	5.465
283.84	7.781
284.05	6.465
284.26	8.360
284.47	8.708
284.68	7.929
284.89	8.205
285.11	7.074
285.32	7.044
285.53	7.715
285.74	6.452
285.95	6.063
286.16	5.403
286.37	7.001
286.58	6.629
286.79	6.898
287.00	5.364
287.21	6.837
287.42	5.377
287.63	5.379
287.84	5.808
288.05	6.024
288.26	6.242
288.48	5.124
288.69	6.223
288.90	6.900
289.11	7.185
289.32	7.028
289.53	5.841
289.74	5.565
289.95	6.612
290.16	4.454
290.37	6.501
290.58	6.148
290.79	3.635
291.00	5.465
291.21	6.739
291.42	6.250
291.63	5.857
291.84	6.386
292.05	6.128
292.26	6.586
292.47	6.706
292.68	5.351
292.89	5.594
293.10	6.856
293.31	9.054
293.52	7.294
293.73	6.830
293.94	7.557
294.15	7.701
294.36	7.662
294.57	7.008
294.79	7.744
295.00	4.727
295.21	9.105
295.42	5.990
295.63	7.230
295.84	6.577
296.05	6.255
296.26	5.746
296.47	6.268
296.68	4.269
296.89	6.386
297.10	7.562
297.31	7.267
297.52	5.628
297.73	5.428
297.94	4.769
298.15	5.373
298.36	5.315
298.57	5.709
298.78	5.872
298.99	4.575
299.20	5.259
299.41	6.278
299.62	5.806
299.83	6.186
300.04	6.283
300.25	5.618
300.46	6.802
300.67	5.800
300.88	7.175
301.09	5.888
301.30	7.533
301.50	6.328
301.71	8.816
301.92	6.578
302.13	6.479
302.34	4.845
302.55	8.357
302.76	6.253
302.97	8.246
303.18	8.399
303.39	8.009
303.60	8.165
303.81	6.448
304.02	6.403
304.23	6.429
304.44	6.629
304.65	6.998
304.86	8.104
305.07	4.705
305.28	7.716
305.49	8.479
305.70	8.777
305.91	8.066
306.12	6.127
306.33	6.852
306.54	6.815
306.75	7.160
306.96	8.952
307.17	6.487
307.38	5.925
307.58	6.703
307.79	8.168
308.00	8.095
308.21	8.604
308.42	7.171
308.63	6.226
308.84	6.908
309.05	7.543
309.26	5.500
309.47	6.483
309.68	7.113
309.89	9.899
310.10	6.536
310.31	6.043
310.52	5.794
310.73	7.561
310.94	4.657
311.14	6.664
311.35	6.535
311.56	7.370
311.77	6.501
311.98	6.281
312.19	5.947
312.40	6.501
312.61	5.383
312.82	6.674
313.03	5.917
313.24	6.184
313.45	7.045
313.66	6.603
313.86	6.529
314.07	5.564
314.28	7.571
314.49	6.277
314.70	7.531
314.91	9.835
315.12	7.435
315.33	8.735
315.54	8.325
315.75	6.594
315.96	6.580
316.16	6.806
316.37	7.866
316.58	8.276
316.79	8.432
317.00	8.719
317.21	7.658
317.42	8.718
317.63	8.755
317.84	6.640
318.05	4.976
318.25	7.950
318.46	6.602
318.67	6.997
318.88	7.318
319.09	9.631
319.30	6.818
319.51	8.430
319.72	8.718
319.93	6.411
320.13	6.235
320.34	8.590
320.55	7.892
320.76	8.390
320.97	7.448
321.18	9.161
321.39	7.831
321.60	7.358
321.80	9.922
322.01	8.116
322.22	6.701
322.43	6.454
322.64	5.968
322.85	9.023
323.06	9.026
323.27	9.620
323.47	7.535
323.68	8.808
323.89	7.785
324.10	8.849
324.31	6.581
324.52	10.452
324.73	7.909
324.93	8.296
325.14	7.230
325.35	7.725
325.56	6.878
325.77	7.264
325.98	7.785
326.19	7.491
326.39	5.516
326.60	8.159
326.81	7.177
327.02	5.339
327.23	7.347
327.44	8.455
327.64	4.914
327.85	6.801
328.06	8.265
328.27	11.594
328.48	8.378
328.69	6.437
328.90	7.243
329.10	6.952
329.31	7.610
329.52	8.291
329.73	11.013
329.94	7.019
330.15	8.739
330.35	9.147
330.56	9.160
330.77	8.104
330.98	9.514
331.19	10.235
331.39	7.584
331.60	8.756
331.81	5.442
332.02	10.444
332.23	9.040
332.44	8.952
332.64	9.711
332.85	8.665
333.06	8.941
333.27	7.104
333.48	7.056
333.68	9.306
333.89	7.849
334.10	7.454
334.31	9.989
334.52	9.141
334.72	8.708
334.93	7.297
335.14	8.294
335.35	8.783
335.56	10.160
335.76	7.259
335.97	10.600
336.18	6.848
336.39	10.387
336.60	8.726
336.80	8.152
337.01	8.072
337.22	8.495
337.43	8.185
337.64	10.014
337.84	8.807
338.05	7.100
338.26	11.422
338.47	9.187
338.68	6.460
338.88	9.211
339.09	8.170
339.30	9.282
339.51	7.878
339.71	9.292
339.92	10.367
340.13	7.636
340.34	7.008
340.55	8.633
340.75	10.186
340.96	9.418
341.17	8.009
341.38	7.206
341.58	6.824
341.79	7.282
342.00	8.278
342.21	8.769
342.41	5.931
342.62	8.917
342.83	10.020
343.04	6.649
343.24	9.193
343.45	8.081
343.66	6.507
343.87	6.473
344.07	7.651
344.28	7.969
344.49	7.897
344.70	9.233
344.90	6.632
345.11	7.202
345.32	6.281
345.53	7.234
345.73	8.778
345.94	7.178
346.15	8.087
346.36	8.179
346.56	9.372
346.77	8.964
346.98	6.066
347.19	8.537
347.39	7.231
347.60	8.225
347.81	8.381
348.02	8.402
348.22	5.941
348.43	7.550
348.64	7.313
348.84	7.991
349.05	7.562
349.26	9.403
349.47	7.683
349.67	7.429
349.88	7.373
350.09	7.563
350.30	9.257
350.50	6.929
350.71	7.767
350.92	6.566
351.12	6.789
351.33	7.685
351.54	7.778
351.74	7.638
351.95	7.585
352.16	7.987
352.37	8.395
352.57	7.709
352.78	7.636
352.99	7.681
353.19	8.133
353.40	6.723
353.61	9.595
353.82	8.013
354.02	8.379
354.23	7.986
354.44	9.144
354.64	7.032
354.85	6.759
355.06	6.607
355.26	6.651
355.47	7.310
355.68	7.765
355.88	8.560
356.09	7.377
356.30	6.973
356.51	7.123
356.71	7.156
356.92	5.711
357.13	7.468
357.33	7.842
357.54	7.136
357.75	4.728
357.95	7.795
358.16	6.270
358.37	8.079
358.57	6.067
358.78	9.138
358.99	6.523
359.19	5.663
359.40	7.542
359.61	6.135
359.81	6.969
360.02	7.447
360.23	6.493
360.43	6.567
360.64	7.317
360.85	6.451
361.05	5.074
361.26	7.110
361.47	6.541
361.67	7.530
361.88	4.906
362.09	6.471
362.29	4.839
362.50	5.789
362.70	5.002
362.91	5.569
363.12	5.278
363.32	6.544
363.53	5.463
363.74	6.727
363.94	4.885
364.15	6.355
364.36	6.699
364.56	5.107
364.77	6.154
364.98	8.267
365.18	7.166
365.39	7.370
365.59	5.494
365.80	6.583
366.01	7.102
366.21	6.309
366.42	5.652
366.63	6.586
366.83	5.526
367.04	5.116
367.24	6.488
367.45	4.752
367.66	5.312
367.86	6.431
368.07	6.150
368.28	6.346
368.48	5.819
368.69	4.098
368.89	6.358
369.10	6.242
369.31	5.640
369.51	5.629
369.72	7.819
369.92	7.164
370.13	5.486
370.34	5.959
370.54	5.297
370.75	7.119
370.95	5.467
371.16	6.940
371.37	5.946
371.57	5.988
371.78	5.910
371.98	6.093
372.19	5.263
372.40	5.455
372.60	6.713
372.81	4.865
373.01	4.583
373.22	4.847
373.43	6.794
373.63	5.421
373.84	6.462
374.04	5.222
374.25	5.581
374.46	6.516
374.66	6.900
374.87	6.959
375.07	4.452
375.28	4.520
375.48	6.039
375.69	6.219
375.90	4.787
376.10	4.981
376.31	5.520
376.51	3.576
376.72	4.669
376.92	4.875
377.13	5.568
377.34	5.549
377.54	4.851
377.75	5.957
377.95	4.906
378.16	5.843
378.36	5.411
378.57	6.217
378.77	5.284
378.98	6.418
379.19	3.896
379.39	4.692
379.60	5.531
379.80	5.159
380.01	5.491
380.21	5.256
380.42	5.880
380.62	5.586
380.83	5.985
381.04	4.885
381.24	5.352
381.45	4.968
381.65	4.975
381.86	5.431
382.06	5.844
382.27	4.427
382.47	5.071
382.68	5.689
382.88	5.119
383.09	4.624
383.29	5.069
383.50	4.853
383.71	4.852
383.91	4.692
384.12	4.996
384.32	4.459
384.53	5.230
384.73	4.847
384.94	4.496
385.14	5.142
385.35	4.026
385.55	4.899
385.76	4.300
385.96	4.009
386.17	4.032
386.37	4.789
386.58	3.973
386.78	5.416
386.99	3.935
387.19	4.692
387.40	3.716
387.60	5.292
387.81	4.892
388.01	4.740
388.22	4.419
388.42	5.230
388.63	5.066
388.83	5.103
389.04	3.832
389.24	4.713
389.45	4.677
389.65	3.631
389.86	3.890
390.06	3.888
390.27	3.755
390.47	4.718
390.68	3.911
390.88	4.665
391.09	5.067
391.29	4.899
391.50	4.484
391.70	4.564
391.91	3.823
392.11	3.885
392.32	4.772
392.52	4.328
392.73	3.936
392.93	3.919
393.14	4.028
393.34	3.632
393.55	4.762
393.75	4.059
393.95	3.432
394.16	4.063
394.36	4.048
394.57	4.853
394.77	4.420
394.98	4.438
395.18	4.336
395.39	3.784
395.59	4.632
395.80	4.694
396.00	4.469
396.21	3.976
396.41	4.272
396.61	4.513
396.82	3.820
397.02	4.821
397.23	4.839
397.43	4.258
397.64	3.480
397.84	5.095
398.05	3.131
398.25	4.451
398.45	4.217
398.66	4.684
398.86	4.700
399.07	5.029
399.27	3.785
399.48	4.840
399.68	3.486
399.89	4.100
400.09	4.485
400.29	4.615
400.50	4.165
400.70	3.739
400.91	3.611
401.11	3.969
401.32	4.063
401.52	3.247
401.72	3.862
401.93	4.882
402.13	4.459
402.34	3.837
402.54	3.692
402.75	4.680
402.95	4.185
403.15	4.815
403.36	3.545
403.56	4.707
403.77	3.868
403.97	3.783
404.17	3.652
404.38	3.972
404.58	3.662
404.79	4.277
404.99	3.805
405.19	3.400
405.40	4.166
405.60	4.110
405.81	4.012
406.01	3.158
406.21	4.144
406.42	3.919
406.62	4.060
406.83	4.101
407.03	3.919
407.23	3.297
407.44	3.518
407.64	3.418
407.85	4.036
408.05	3.906
408.25	3.264
408.46	4.704
408.66	4.196
408.87	3.837
409.07	3.850
409.27	4.125
409.48	4.976
409.68	4.715
409.88	3.639
410.09	3.568
410.29	4.538
410.50	4.697
410.70	3.289
410.90	3.841
411.11	3.597
411.31	3.671
411.51	4.490
411.72	4.659
411.92	3.518
412.12	3.193
412.33	3.002
412.53	3.108
412.74	3.893
412.94	3.683
413.14	4.105
413.35	3.725
413.55	3.205
413.75	4.242
413.96	3.219
414.16	3.835
414.36	3.909
414.57	3.636
414.77	2.762
414.97	4.011
415.18	3.803
415.38	3.418
415.58	3.980
415.79	3.360
415.99	3.460
416.19	3.542
416.40	3.715
416.60	3.856
416.80	3.864
417.01	3.940
417.21	3.165
417.41	4.037
417.62	3.920
417.82	3.657
418.02	3.133
418.23	3.621
418.43	3.328
418.63	3.554
418.84	4.044
419.04	3.223
419.24	3.761
419.45	3.337
419.65	3.956
419.85	3.501
420.06	3.557
420.26	3.893
420.46	3.696
420.67	3.570
420.87	3.584
421.07	3.938
421.28	3.446
421.48	3.849
421.68	3.713
421.88	3.743
422.09	3.434
422.29	3.399
422.49	3.210
422.70	3.482
422.90	3.280
423.10	3.567
423.31	3.433
423.51	3.753
423.71	3.380
423.91	3.669
424.12	3.356
424.32	3.678
424.52	3.553
424.73	3.479
424.93	3.517
425.13	3.204
425.33	3.045
425.54	3.689
425.74	3.330
425.94	3.786
426.15	3.548
426.35	3.193
426.55	3.658
426.75	3.616
426.96	3.380
427.16	3.291
427.36	3.687
427.57	3.904
427.77	3.341
427.97	3.539
428.17	3.245
428.38	3.770
428.58	2.738
428.78	3.989
428.98	2.839
429.19	3.371
429.39	3.027
429.59	3.314
429.79	2.613
430.00	3.228
430.20	3.155
430.40	3.328
430.60	3.023
430.81	3.194
431.01	3.107
431.21	3.606
431.41	2.850
431.62	3.354
431.82	3.404
432.02	3.509
432.22	3.532
432.43	2.661
432.63	3.128
432.83	2.890
433.03	3.021
433.24	2.849
433.44	3.104
433.64	3.474
433.84	2.742
434.05	3.321
434.25	3.006
434.45	3.314
434.65	3.955
434.85	3.576
435.06	3.745
435.26	3.446
435.46	3.434
435.66	3.635
435.87	2.955
436.07	3.214
436.27	3.054
436.47	3.027
436.67	2.734
436.88	3.626
437.08	3.178
437.28	3.002
437.48	2.690
437.69	3.427
437.89	3.301
438.09	3.912
438.29	2.912
438.49	3.587
438.70	3.410
438.90	2.894
439.10	2.737
439.30	3.260
439.50	2.885
439.71	3.478
439.91	3.359
440.11	3.464
440.31	3.150
440.51	2.781
440.72	2.824
440.92	3.166
441.12	3.294
441.32	3.689
441.52	3.613
441.72	3.437
441.93	3.283
442.13	3.478
442.33	3.191
442.53	3.686
442.73	2.608
442.94	3.394
443.14	3.347
443.34	3.398
443.54	3.325
443.74	3.373
443.94	3.122
444.15	3.283
444.35	3.498
444.55	3.399
444.75	2.995
444.95	3.397
445.15	3.043
445.36	3.182
445.56	2.334
445.76	3.262
445.96	3.161
446.16	2.875
446.36	2.908
446.57	3.314
446.77	2.807
446.97	3.544
447.17	3.290
447.37	3.206
447.57	3.483
447.77	3.308
447.98	3.272
448.18	3.404
448.38	3.042
448.58	3.184
448.78	3.338
448.98	3.256
449.18	3.237
449.39	3.063
449.59	3.002
449.79	3.301
449.99	2.773
450.19	3.159
450.39	3.071
450.59	3.331
450.79	3.048
451.00	3.431
451.20	3.889
451.40	3.009
451.60	3.064
451.80	3.506
452.00	2.575
452.20	3.470
452.40	2.765
452.61	3.091
452.81	3.046
453.01	3.243
453.21	2.937
453.41	3.296
453.61	2.894
453.81	2.840
454.01	3.019
454.21	3.081
454.42	3.295
454.62	3.033
454.82	2.777
455.02	2.806
455.22	2.434
455.42	2.942
455.62	2.632
455.82	2.871
456.02	3.102
456.23	3.105
456.43	3.083
456.63	2.882
456.83	2.652
457.03	2.925
457.23	2.837
457.43	3.584
457.63	2.987
457.83	3.720
458.03	2.879
458.23	3.064
458.43	2.934
458.64	3.260
458.84	3.146
459.04	2.685
459.24	2.718
459.44	3.046
459.64	3.214
459.84	3.094
460.04	2.728
460.24	2.949
460.44	2.970
460.64	3.157
460.84	2.654
461.04	3.320
461.24	3.100
461.45	3.396
461.65	2.953
461.85	3.120
462.05	2.919
462.25	3.025
462.45	3.356
462.65	3.368
462.85	2.657
463.05	2.937
463.25	2.347
463.45	3.518
463.65	3.147
463.85	3.151
464.05	2.951
464.25	2.538
464.45	3.172
464.65	2.772
464.85	2.853
465.05	2.916
465.26	3.015
465.46	2.889
465.66	3.357
465.86	3.231
466.06	3.311
466.26	2.755
466.46	2.539
466.66	2.598
466.86	2.780
467.06	2.528
467.26	2.875
467.46	3.516
467.66	2.923
467.86	2.866
468.06	2.910
468.26	2.849
468.46	2.658
468.66	3.106
468.86	2.735
469.06	3.099
469.26	2.504
469.46	2.666
469.66	2.598
469.86	3.035
470.06	2.451
470.26	3.099
470.46	2.427
470.66	3.408
470.86	2.628
471.06	2.906
471.26	2.315
471.46	2.696
471.66	2.707
471.86	2.727
472.06	2.787
472.26	3.148
472.46	3.200
472.66	2.955
472.86	2.690
473.06	2.829
473.26	2.961
473.46	2.886
473.66	2.507
473.86	2.865
474.06	2.358
474.26	3.211
474.46	2.793
474.66	2.991
474.86	2.773
475.06	2.880
475.26	2.506
475.46	2.912
475.66	2.740
475.86	3.074
476.06	2.738
476.26	3.169
476.46	2.736
476.66	2.862
476.86	2.355
477.06	2.784
477.26	2.216
477.46	2.678
477.65	2.622
477.85	3.096
478.05	2.077
478.25	2.943
478.45	2.345
478.65	2.763
478.85	2.191
479.05	2.796
479.25	2.610
479.45	3.111
479.65	2.714
479.85	2.883
480.05	2.567
480.25	3.142
480.45	2.873
480.65	3.259
480.85	2.922
481.05	3.245
481.25	3.114
481.44	2.608
481.64	2.468
481.84	2.936
482.04	3.055
482.24	2.900
482.44	2.550
482.64	2.355
482.84	2.556
483.04	2.883
483.24	2.887
483.44	2.932
483.64	2.956
483.84	3.083
484.04	3.249
484.23	3.248
484.43	3.340
484.63	3.474
484.83	3.361
485.03	3.716
485.23	3.532
485.43	3.549
485.63	3.433
485.83	3.565
486.03	3.529
486.23	3.670
486.42	3.511
486.62	3.675
486.82	3.227
487.02	3.273
487.22	3.082
487.42	3.491
487.62	3.161
487.82	3.287
488.02	3.163
488.22	3.371
488.41	3.286
488.61	3.310
488.81	3.143
489.01	3.438
489.21	3.275
489.41	3.333
489.61	3.173
489.81	3.452
490.01	3.247
490.20	3.304
490.40	3.199
490.60	3.305
490.80	2.986
491.00	3.301
491.20	3.206
491.40	3.188
491.60	2.935
491.79	3.231
491.99	3.154
492.19	3.101
492.39	3.215
492.59	3.417
492.79	3.199
492.99	3.225
493.19	3.319
493.38	3.257
493.58	3.133
493.78	3.366
493.98	3.568
494.18	3.344
494.38	3.027
494.58	2.960
494.77	2.789
494.97	2.693
495.17	2.580
495.37	3.021
495.57	2.578
495.77	2.866
495.96	2.952
496.16	2.375
496.36	2.672
496.56	2.919
496.76	2.562
496.96	2.718
497.15	2.649
497.35	2.924
497.55	2.481
497.75	2.897
497.95	2.358
498.15	2.890
498.34	3.124
498.54	2.717
498.74	3.195
498.94	3.038
499.14	2.718
499.34	3.297
499.53	2.851
499.73	3.099
499.93	2.661
500.13	2.774
500.33	2.709
500.52	2.948
500.72	2.442
500.92	2.554
501.12	2.386
501.32	2.810
501.52	2.658
501.71	2.542
501.91	2.546
502.11	2.873
502.31	2.207
502.51	2.939
502.70	2.278
502.90	2.778
503.10	2.666
503.30	3.007
503.50	2.889
503.69	2.823
503.89	2.598
504.09	2.876
504.29	2.525
504.48	2.700
504.68	3.110
504.88	2.895
505.08	2.298
505.28	2.865
505.47	2.750
505.67	3.495
505.87	2.388
506.07	2.613
506.27	2.590
506.46	3.075
506.66	2.533
506.86	2.414
507.06	3.246
507.25	2.984
507.45	2.793
507.65	2.907
507.85	2.370
508.04	2.710
508.24	2.992
508.44	2.801
508.64	2.651
508.83	2.750
509.03	2.731
509.23	2.816
509.43	2.367
509.63	2.926
509.82	2.413
510.02	3.012
510.22	2.776
510.42	2.995
510.61	2.715
510.81	2.826
511.01	2.557
511.21	2.982
511.40	2.596
511.60	3.052
511.80	2.724
511.99	3.205
512.19	3.047
512.39	3.205
512.59	2.516
512.78	3.202
512.98	2.677
513.18	2.903
513.38	2.664
513.57	3.197
513.77	2.684
513.97	2.996
514.17	2.809
514.36	2.935
514.56	2.816
514.76	3.334
514.95	2.760
515.15	2.646
515.35	2.760
515.55	2.966
515.74	2.942
515.94	3.300
516.14	2.680
516.33	2.961
516.53	2.569
516.73	2.769
516.93	2.746
517.12	3.173
517.32	2.585
517.52	3.134
517.71	2.938
517.91	2.909
518.11	2.880
518.30	2.906
518.50	2.617
518.70	2.989
518.90	2.963
519.09	3.107
519.29	3.102
519.49	3.233
519.68	2.635
519.88	3.201
520.08	3.136
520.27	3.331
520.47	3.155
520.67	3.149
520.86	2.956
521.06	3.328
521.26	2.676
521.45	3.096
521.65	3.017
521.85	3.041
522.04	2.878
522.24	3.302
522.44	2.756
522.63	2.866
522.83	2.483
523.03	2.848
523.22	2.668
523.42	3.114
523.62	3.123
523.81	3.058
524.01	3.204
524.21	2.596
524.40	2.918
524.60	3.100
524.80	2.708
524.99	2.695
525.19	2.751
525.39	2.919
525.58	2.789
525.78	2.959
525.98	3.001
526.17	2.949
526.37	3.353
526.57	3.121
526.76	3.152
526.96	3.148
527.15	2.986
527.35	3.130
527.55	2.993
527.74	3.456
527.94	3.248
528.14	3.351
528.33	3.293
528.53	3.265
528.72	3.371
528.92	3.476
529.12	3.347
529.31	3.457
529.51	3.399
529.71	3.587
529.90	3.543
530.10	3.702
530.29	3.626
530.49	3.682
530.69	3.665
530.88	3.499
531.08	3.532
531.28	3.562
531.47	3.444
531.67	3.366
531.86	3.321
532.06	3.394
532.26	3.049
532.45	3.265
532.65	3.312
532.84	3.256
533.04	3.162
533.24	3.301
533.43	3.188
533.63	3.377
533.82	3.267
534.02	3.413
534.22	3.125
534.41	3.504
534.61	3.207
534.80	3.401
535.00	3.246
535.19	3.263
535.39	3.413
535.59	3.571
535.78	3.430
535.98	3.215
536.17	3.151
536.37	3.264
536.57	3.345
536.76	3.327
536.96	3.194
537.15	3.782
537.35	2.828
537.54	3.720
537.74	3.200
537.93	3.606
538.13	3.388
538.33	3.296
538.52	3.038
538.72	3.358
538.91	3.248
539.11	3.493
539.30	3.141
539.50	3.342
539.70	3.357
539.89	3.532
540.09	3.291
540.28	3.283
540.48	2.793
540.67	3.406
540.87	3.212
541.06	3.517
541.26	3.089
541.45	3.458
541.65	3.377
541.85	3.491
542.04	3.311
542.24	3.658
542.43	3.485
542.63	3.563
542.82	3.458
543.02	3.755
543.21	3.654
543.41	3.746
543.60	3.609
543.80	3.853
543.99	3.589
544.19	3.566
544.38	3.578
544.58	3.528
544.77	3.246
544.97	3.624
545.16	3.278
545.36	3.572
545.56	3.516
545.75	3.342
545.95	3.014
546.14	3.519
546.34	2.980
546.53	3.728
546.73	3.345
546.92	3.411
547.12	3.121
547.31	3.506
547.51	3.095
547.70	3.571
547.90	3.119
548.09	3.249
548.29	3.340
548.48	3.293
548.68	3.420
548.87	3.535
549.07	3.505
549.26	3.402
549.46	3.327
549.65	3.729
549.84	3.405
550.04	3.160
550.23	3.389
550.43	3.448
550.62	3.144
550.82	3.222
551.01	2.842
551.21	3.199
551.40	3.010
551.60	3.464
551.79	3.136
551.99	3.496
552.18	2.769
552.38	3.141
552.57	3.424
552.77	3.387
552.96	3.591
553.16	3.557
553.35	3.041
553.54	3.607
553.74	3.701
553.93	3.822
554.13	3.861
554.32	3.625
554.52	3.527
554.71	3.891
554.91	3.266
555.10	3.839
555.29	3.317
555.49	3.148
555.68	3.499
555.88	3.547
556.07	3.289
556.27	3.864
556.46	3.455
556.66	3.209
556.85	3.786
557.04	3.713
557.24	3.773
557.43	3.696
557.63	3.739
557.82	3.834
558.02	3.361
558.21	4.050
558.40	3.122
558.60	4.034
558.79	3.693
558.99	3.757
559.18	3.524
559.38	3.834
559.57	4.009
559.76	4.061
559.96	4.393
560.15	4.285
560.35	3.612
560.54	3.628
560.73	3.419
560.93	3.946
561.12	3.592
561.32	3.579
561.51	4.098
561.70	3.552
561.90	4.348
562.09	4.486
562.29	4.044
562.48	4.198
562.67	4.002
562.87	4.438
563.06	4.050
563.26	4.216
563.45	4.205
563.64	4.788
563.84	4.726
564.03	4.196
564.23	4.078
564.42	5.107
564.61	4.340
564.81	4.156
565.00	4.632
565.20	4.636
565.39	5.023
565.58	4.829
565.78	4.437
565.97	4.354
566.16	4.601
566.36	5.758
566.55	4.722
566.74	4.464
566.94	4.659
567.13	5.245
567.33	4.968
567.52	5.420
567.71	4.719
567.91	4.910
568.10	4.990
568.29	5.207
568.49	4.676
568.68	5.205
568.87	4.489
569.07	5.615
569.26	5.283
569.45	5.740
569.65	5.062
569.84	5.261
570.04	5.224
570.23	5.697
570.42	4.763
570.62	5.143
570.81	5.318
571.00	5.448
571.20	5.492
571.39	5.805
571.58	5.109
571.78	5.708
571.97	5.649
572.16	5.563
572.36	5.772
572.55	6.123
572.74	5.709
572.94	5.435
573.13	5.747
573.32	5.871
573.51	5.260
573.71	6.134
573.90	5.284
574.09	6.080
574.29	6.019
574.48	5.697
574.67	5.430
574.87	5.890
575.06	5.809
575.25	6.242
575.45	5.737
575.64	5.900
575.83	5.854
576.03	5.955
576.22	5.899
576.41	6.126
576.60	5.514
576.80	5.630
576.99	6.142
577.18	6.609
577.38	5.742
577.57	5.752
577.76	6.279
577.95	5.996
578.15	4.651
578.34	6.094
578.53	5.440
578.73	5.662
578.92	5.447
579.11	5.244
579.30	5.848
579.50	5.031
579.69	6.016
579.88	5.354
580.08	5.449
580.27	5.776
580.46	6.040
580.65	5.784
580.85	5.589
581.04	5.646
581.23	5.414
581.42	5.928
581.62	5.093
581.81	5.345
582.00	5.424
582.19	5.722
582.39	5.839
582.58	5.424
582.77	5.079
582.96	4.783
583.16	5.014
583.35	5.626
583.54	5.809
583.73	5.096
583.93	5.211
584.12	4.795
584.31	5.355
584.50	5.009
584.70	5.236
584.89	5.273
585.08	5.268
585.27	6.058
585.47	4.876
585.66	5.692
585.85	4.946
586.04	4.727
586.24	5.030
586.43	5.346
586.62	4.945
586.81	5.204
587.00	5.051
587.20	5.132
587.39	5.066
587.58	5.577
587.77	4.995
587.97	4.989
588.16	5.044
588.35	5.501
588.54	4.795
588.73	4.546
588.93	5.405
589.12	5.240
589.31	5.509
589.50	5.230
589.69	5.758
589.89	5.467
590.08	4.720
590.27	5.456
590.46	5.057
590.65	5.030
590.85	4.729
591.04	5.714
591.23	5.249
591.42	5.549
591.61	4.578
591.81	5.486
592.00	5.135
592.19	5.824
592.38	4.649
592.57	5.267
592.77	4.981
592.96	5.455
593.15	5.632
593.34	5.662
593.53	4.875
593.72	4.956
593.92	4.678
594.11	5.864
594.30	5.043
594.49	5.551
594.68	5.422
594.87	4.801
595.07	4.799
595.26	5.826
595.45	5.138
595.64	5.089
595.83	4.546
596.02	5.839
596.22	4.870
596.41	5.763
596.60	5.304
596.79	5.767
596.98	5.501
597.17	5.809
597.37	5.350
597.56	6.173
597.75	5.701
597.94	6.098
598.13	5.058
598.32	5.852
598.51	5.176
598.71	6.363
598.90	5.442
599.09	5.699
599.28	5.672
599.47	5.843
599.66	5.594
599.85	6.414
600.05	5.236
600.24	6.329
600.43	5.780
600.62	6.075
600.81	5.269
601.00	5.895
601.19	4.992
601.38	5.832
601.58	5.804
601.77	5.583
601.96	5.624
602.15	6.309
602.34	5.416
602.53	6.429
602.72	5.511
602.91	6.409
603.10	5.529
603.30	6.102
603.49	5.529
603.68	6.055
603.87	5.102
604.06	6.222
604.25	6.397
604.44	5.990
604.63	5.789
604.82	6.093
605.01	5.957
605.21	6.474
605.40	6.112
605.59	6.110
605.78	5.895
605.97	6.359
606.16	5.981
606.35	6.579
606.54	5.473
606.73	6.698
606.92	6.182
607.11	6.196
607.30	5.703
607.50	6.398
607.69	5.510
607.88	6.038
608.07	5.779
608.26	6.377
608.45	6.227
608.64	6.202
608.83	5.148
609.02	6.251
609.21	5.520
609.40	6.318
609.59	5.519
609.78	5.614
609.97	5.356
610.16	6.048
610.35	5.862
610.55	6.515
610.74	5.768
610.93	5.848
611.12	5.369
611.31	5.780
611.50	5.599
611.69	5.758
611.88	5.280
612.07	6.318
612.26	4.867
612.45	5.160
612.64	5.677
612.83	6.426
613.02	4.824
613.21	5.650
613.40	5.232
613.59	5.563
613.78	4.738
613.97	4.732
614.16	4.972
614.35	5.683
614.54	4.557
614.73	5.876
614.92	5.546
615.11	4.852
615.30	4.495
615.49	4.825
615.68	5.484
615.87	4.724
616.07	4.672
616.26	4.930
616.45	4.899
616.64	4.848
616.83	4.751
617.02	4.859
617.21	3.988
617.40	4.448
617.59	4.782
617.78	5.160
617.97	4.683
618.16	4.456
618.35	3.904
618.54	4.313
618.73	4.530
618.92	5.018
619.11	3.966
619.30	5.252
619.49	4.499
619.68	4.975
619.86	4.658
620.05	4.605
620.24	4.547
620.43	4.246
620.62	4.458
620.81	4.945
621.00	4.889
621.19	5.397
621.38	4.737
621.57	4.700
621.76	4.437
621.95	4.726
622.14	4.738
622.33	5.257
622.52	4.125
622.71	4.105
622.90	5.253
623.09	4.426
623.28	4.492
623.47	4.995
623.66	3.855
623.85	4.331
624.04	4.054
624.23	4.263
624.42	4.863
624.61	4.711
624.80	4.050
624.99	3.885
625.18	4.144
625.36	4.101
625.55	4.524
625.74	3.812
625.93	4.112
626.12	4.308
626.31	4.004
626.50	4.882
626.69	4.194
626.88	5.352
627.07	4.612
627.26	4.114
627.45	4.206
627.64	3.936
627.83	4.126
628.02	4.467
628.20	4.338
628.39	4.326
628.58	4.601
628.77	4.715
628.96	3.743
629.15	4.137
629.34	4.589
629.53	3.838
629.72	3.535
629.91	4.775
630.10	4.424
630.29	3.591
630.47	3.508
630.66	4.328
630.85	3.932
631.04	4.439
631.23	4.207
631.42	4.210
631.61	3.904
631.80	4.747
631.99	3.768
632.18	3.853
632.36	3.967
632.55	4.389
632.74	3.434
632.93	4.068
633.12	4.200
633.31	4.115
633.50	4.078
633.69	4.182
633.88	3.616
634.06	3.954
634.25	3.848
634.44	4.139
634.63	4.741
634.82	4.766
635.01	4.328
635.20	4.086
635.39	3.818
635.57	4.002
635.76	4.299
635.95	3.941
636.14	3.890
636.33	4.237
636.52	3.811
636.71	3.954
636.89	4.133
637.08	3.737
637.27	4.209
637.46	4.193
637.65	4.261
637.84	4.330
638.03	4.264
638.21	4.800
638.40	4.063
638.59	3.634
638.78	3.342
638.97	4.477
639.16	4.860
639.34	4.169
639.53	3.169
639.72	4.578
639.91	4.220
640.10	3.779
640.29	5.030
640.47	4.443
640.66	4.204
640.85	4.395
641.04	3.807
641.23	4.273
641.42	4.225
641.60	3.321
641.79	3.802
641.98	4.165
642.17	3.965
642.36	5.042
642.54	4.198
642.73	4.080
642.92	3.954
643.11	3.560
643.30	3.390
643.49	4.485
643.67	3.601
643.86	4.677
644.05	4.374
644.24	2.923
644.43	4.046
644.61	4.010
644.80	4.158
644.99	3.538
645.18	5.273
645.37	3.947
645.55	4.143
645.74	4.156
645.93	3.837
646.12	3.723
646.31	4.014
646.49	4.476
646.68	5.038
646.87	4.465
647.06	4.536
647.24	4.402
647.43	4.098
647.62	4.919
647.81	3.907
648.00	4.105
648.18	3.421
648.37	3.918
648.56	4.641
648.75	4.284
648.93	4.340
649.12	4.057
649.31	3.332
649.50	4.512
649.68	4.178
649.87	4.488
650.06	3.396
650.25	3.689
650.43	3.160
650.62	4.034
650.81	3.835
651.00	4.433
651.18	4.452
651.37	2.999
651.56	3.567
651.75	4.535
651.93	3.931
652.12	4.166
652.31	3.715
652.50	4.110
652.68	4.567
652.87	4.718
653.06	4.886
653.25	4.224
653.43	4.117
653.62	2.454
653.81	4.724
654.00	5.214
654.18	3.958
654.37	3.958
654.56	3.113
654.74	4.941
654.93	4.242
655.12	4.911
655.31	4.298
655.49	4.924
655.68	3.626
655.87	3.711
656.05	3.435
656.24	3.796
656.43	3.907
656.62	4.212
656.80	4.388
656.99	3.666
657.18	4.213
657.36	3.764
657.55	5.114
657.74	3.954
657.93	4.008
658.11	4.316
658.30	4.102
658.49	3.137
658.67	3.822
658.86	4.215
659.05	3.795
659.23	3.397
659.42	3.475
659.61	3.099
659.79	3.803
659.98	3.743
660.17	4.552
660.35	3.577
660.54	4.006
660.73	5.164
660.91	4.032
661.10	3.770
661.29	3.385
661.47	3.830
661.66	3.853
661.85	4.055
662.03	4.756
662.22	4.214
662.41	3.697
662.59	3.566
662.78	3.556
662.97	3.445
663.15	4.408
663.34	2.980
663.53	3.866
663.71	3.415
663.90	4.203
664.09	4.480
664.27	4.168
664.46	3.601
664.65	3.751
664.83	3.670
665.02	4.659
665.21	3.212
665.39	4.200
665.58	4.762
665.77	4.218
665.95	3.639
666.14	3.875
666.32	4.135
666.51	4.296
666.70	4.313
666.88	4.596
667.07	2.783
667.26	4.145
667.44	4.876
667.63	5.189
667.81	4.769
668.00	3.473
668.19	4.202
668.37	3.810
668.56	4.436
668.75	4.553
668.93	4.867
669.12	3.528
669.30	4.080
669.49	4.997
669.68	4.779
669.86	4.586
670.05	3.978
670.23	4.358
670.42	4.300
670.61	5.298
670.79	3.788
670.98	4.606
671.16	5.189
671.35	4.832
671.54	4.601
671.72	4.725
671.91	4.750
672.09	4.429
672.28	5.829
672.46	5.925
672.65	4.503
672.84	5.604
673.02	5.131
673.21	3.998
673.39	4.409
673.58	5.137
673.77	4.999
673.95	6.273
674.14	6.244
674.32	5.447
674.51	6.384
674.69	4.975
674.88	5.713
675.07	4.939
675.25	7.004
675.44	6.262
675.62	5.517
675.81	5.055
675.99	7.647
676.18	6.094
676.36	5.371
676.55	5.548
676.74	6.132
676.92	6.881
677.11	5.274
677.29	6.068
677.48	6.638
677.66	7.063
677.85	5.510
678.03	5.309
678.22	6.284
678.40	6.547
678.59	4.714
678.78	4.978
678.96	6.215
679.15	5.683
679.33	6.583
679.52	5.302
679.70	6.418
679.89	6.225
680.07	5.348
680.26	5.874
680.44	6.178
680.63	5.168
680.81	5.790
681.00	4.633
681.18	5.483
681.37	5.004
681.55	5.544
681.74	6.049
681.92	5.920
682.11	5.611
682.29	5.282
682.48	5.012
682.66	6.041
682.85	5.659
683.03	5.971
683.22	6.663
683.40	5.883
683.59	6.241
683.77	6.433
683.96	5.113
684.14	7.243
684.33	4.739
684.51	7.857
684.70	7.032
684.88	7.348
685.07	7.053
685.25	6.758
685.44	6.743
685.62	6.471
685.81	6.191
685.99	6.773
686.18	5.770
686.36	6.018
686.55	5.150
686.73	7.045
686.92	7.336
687.10	5.793
687.29	8.747
687.47	6.959
687.65	7.350
687.84	6.754
688.02	8.429
688.21	8.014
688.39	6.371
688.58	8.050
688.76	7.042
688.95	6.479
689.13	5.896
689.32	8.492
689.50	7.876
689.68	7.776
689.87	6.498
690.05	8.160
690.24	7.654
690.42	7.776
690.61	7.816
690.79	7.307
690.98	7.371
691.16	7.735
691.34	7.499
691.53	8.150
691.71	8.318
691.90	8.575
692.08	6.964
692.27	9.240
692.45	10.432
692.63	7.789
692.82	8.793
693.00	7.379
693.19	8.411
693.37	8.357
693.56	8.028
693.74	9.088
693.92	9.029
694.11	9.319
694.29	9.489
694.48	10.629
694.66	9.015
694.84	10.487
695.03	8.813
695.21	11.504
695.40	11.088
695.58	11.057
695.76	10.687
695.95	11.431
696.13	10.003
696.32	11.771
696.50	14.327
696.68	12.759
696.87	11.274
697.05	13.793
697.24	13.153
697.42	12.643
697.60	12.173
697.79	14.528
697.97	13.912
698.16	14.968
698.34	11.893
698.52	14.974
698.71	15.493
698.89	14.342
699.07	14.129
699.26	15.970
699.44	15.143
699.63	15.502
699.81	14.636
699.99	16.907
700.18	15.787
700.36	15.932
700.54	16.994
700.73	17.616
700.91	16.286
701.09	17.819
701.28	17.323
701.46	17.458
701.64	16.041
701.83	19.046
702.01	17.426
702.20	19.799
702.38	20.783
702.56	20.055
702.75	17.904
702.93	19.454
703.11	20.642
703.30	21.541
703.48	21.046
703.66	22.401
703.85	19.936
704.03	25.457
704.21	20.723
704.40	23.556
704.58	21.952
704.76	24.320
704.95	22.750
705.13	23.491
705.31	22.766
705.50	24.309
705.68	22.267
705.86	25.851
706.04	23.647
706.23	24.960
706.41	24.363
706.59	24.447
706.78	24.364
706.96	24.628
707.14	27.287
707.33	27.152
707.51	24.920
707.69	26.963
707.88	25.101
708.06	27.952
708.24	26.427
708.42	27.625
708.61	26.361
708.79	27.556
708.97	30.283
709.16	28.841
709.34	28.902
709.52	27.163
709.71	28.689
709.89	30.479
710.07	25.475
710.25	29.533
710.44	28.674
710.62	29.289
710.80	29.233
710.98	29.391
711.17	28.646
711.35	30.932
711.53	28.535
711.72	31.701
711.90	29.151
712.08	30.671
712.26	30.197
712.45	31.170
712.63	30.277
712.81	32.056
712.99	30.230
713.18	31.945
713.36	31.080
713.54	31.677
713.72	30.179
713.91	32.806
714.09	28.287
714.27	33.436
714.45	30.850
714.64	34.936
714.82	32.496
715.00	33.464
715.18	31.814
715.37	32.943
715.55	31.241
715.73	33.880
715.91	33.775
716.10	34.989
716.28	32.403
716.46	32.237
716.64	30.828
716.83	35.799
717.01	31.338
717.19	35.165
717.37	31.720
717.55	34.101
717.74	33.638
717.92	32.653
718.10	32.263
718.28	35.127
718.47	33.490
718.65	34.208
718.83	34.576
719.01	33.426
719.19	34.222
719.38	33.703
719.56	34.650
719.74	34.666
719.92	29.579
720.10	34.241
720.29	33.557
720.47	36.573
720.65	34.977
720.83	36.740
721.01	32.386
721.20	34.954
721.38	34.448
721.56	36.436
721.74	36.305
721.92	36.444
722.11	33.782
722.29	36.368
722.47	37.048
722.65	38.722
722.83	35.316
723.01	38.808
723.20	36.259
723.38	34.787
723.56	34.257
723.74	37.497
723.92	35.696
724.10	38.309
724.29	35.375
724.47	39.221
724.65	35.447
724.83	37.543
725.01	37.190
725.19	37.717
725.38	34.256
725.56	37.145
725.74	36.933
725.92	38.490
726.10	35.842
726.28	38.926
726.46	36.360
726.65	40.409
726.83	36.023
727.01	38.722
727.19	35.714
727.37	38.654
727.55	36.604
727.73	37.232
727.92	35.901
728.10	36.220
728.28	35.098
728.46	37.613
728.64	35.871
728.82	38.780
729.00	35.274
729.19	36.748
729.37	35.999
729.55	37.675
729.73	36.961
729.91	38.970
730.09	37.903
730.27	38.569
730.45	35.734
730.63	38.979
730.82	37.352
731.00	37.531
731.18	36.598
731.36	38.059
731.54	37.038
731.72	38.203
731.90	37.934
732.08	38.447
732.26	37.810
732.45	40.803
732.63	38.706
732.81	40.224
732.99	39.632
733.17	39.473
733.35	37.105
733.53	38.883
733.71	37.263
733.89	38.708
734.07	35.819
734.25	41.330
734.44	38.290
734.62	38.609
734.80	38.305
734.98	40.234
735.16	40.603
735.34	38.125
735.52	41.811
735.70	40.874
735.88	39.368
736.06	40.437
736.24	41.191
736.42	40.919
736.60	41.061
736.78	41.239
736.97	38.594
737.15	43.177
737.33	40.562
737.51	41.847
737.69	42.854
737.87	41.156
738.05	41.122
738.23	42.255
738.41	41.796
738.59	42.931
738.77	41.717
738.95	43.846
739.13	42.617
739.31	40.954
739.49	39.960
739.67	43.078
739.85	38.029
740.03	42.099
740.21	42.603
740.39	45.317
740.57	41.898
740.75	42.999
740.93	42.558
741.11	41.174
741.30	40.299
741.48	42.065
741.66	43.063
741.84	44.438
742.02	39.090
742.20	44.568
742.38	40.336
742.56	42.838
742.74	39.734
742.92	44.102
743.10	41.340
743.28	44.194
743.46	41.926
743.64	42.012
743.82	39.791
744.00	43.755
744.18	42.480
744.36	44.219
744.54	39.679
744.72	45.041
744.90	42.228
745.08	43.803
745.26	43.370
745.44	45.080
745.62	42.407
745.80	43.649
745.98	43.194
746.16	44.852
746.34	41.518
746.52	44.972
746.70	41.969
746.87	43.022
747.05	42.478
747.23	45.343
747.41	43.397
747.59	46.444
747.77	44.084
747.95	44.969
748.13	44.025
748.31	46.307
748.49	42.392
748.67	43.103
748.85	42.090
749.03	46.701
749.21	40.741
749.39	49.372
749.57	37.248
749.75	43.551
749.93	41.438
750.11	44.255
750.29	43.642
750.47	45.156
750.65	43.281
750.83	43.435
751.01	39.328
751.18	45.023
751.36	40.434
751.54	42.485
751.72	45.002
751.90	44.759
752.08	39.360
752.26	40.331
752.44	41.150
752.62	42.263
752.80	43.428
752.98	44.331
753.16	43.557
753.34	45.057
753.52	44.766
753.69	43.233
753.87	41.539
754.05	45.261
754.23	40.051
754.41	43.559
754.59	42.168
754.77	42.190
754.95	42.982
755.13	47.073
755.31	41.884
755.49	46.163
755.66	41.092
755.84	42.921
756.02	43.437
756.20	43.540
756.38	39.717
756.56	40.866
756.74	40.786
756.92	41.459
757.10	45.026
757.28	46.408
757.45	45.590
757.63	43.536
757.81	41.569
757.99	41.780
758.17	40.897
758.35	45.170
758.53	40.324
758.71	41.677
758.88	41.577
759.06	45.068
759.24	38.493
759.42	42.392
759.60	38.520
759.78	40.057
759.96	36.824
760.13	38.899
760.31	35.186
760.49	36.588
760.67	33.333
760.85	36.639
761.03	34.674
761.21	35.501
761.38	32.254
761.56	34.545
761.74	32.759
761.92	37.337
762.10	31.256
762.28	34.921
762.46	31.995
762.63	33.951
762.81	35.887
762.99	35.491
763.17	35.040
763.35	36.204
763.53	33.867
763.70	35.282
763.88	34.782
764.06	37.273
764.24	32.963
764.42	38.967
764.60	35.677
764.77	36.718
764.95	35.768
765.13	37.538
765.31	35.393
765.49	38.053
765.66	36.134
765.84	37.778
766.02	39.107
766.20	37.718
766.38	38.548
766.56	37.927
766.73	38.312
766.91	38.333
767.09	40.952
767.27	41.690
767.45	37.024
767.62	38.947
767.80	39.580
767.98	42.376
768.16	41.488
768.33	40.441
768.51	38.770
768.69	45.629
768.87	41.019
769.05	40.683
769.22	38.177
769.40	44.444
769.58	41.820
769.76	42.862
769.94	41.132
770.11	42.295
770.29	43.975
770.47	41.430
770.65	43.315
770.82	45.465
771.00	42.084
771.18	42.192
771.36	43.492
771.53	42.811
771.71	41.167
771.89	46.769
772.07	42.606
772.25	45.875
772.42	42.851
772.60	43.630
772.78	42.990
772.96	45.956
773.13	46.805
773.31	42.697
773.49	38.674
773.67	44.300
773.84	39.047
774.02	43.940
774.20	43.786
774.37	42.352
774.55	42.974
774.73	46.717
774.91	43.414
775.08	41.225
775.26	45.254
775.44	48.086
775.62	43.552
775.79	45.481
775.97	41.505
776.15	36.033
776.32	40.716
776.50	48.447
776.68	51.191
776.86	45.463
777.03	44.810
777.21	42.052
777.39	42.079
777.56	46.526
777.74	43.624
777.92	45.078
778.10	42.456
778.27	43.816
778.45	45.661
778.63	45.080
778.80	43.969
778.98	42.319
779.16	48.242
779.34	46.769
779.51	43.448
779.69	49.689
779.87	43.685
780.04	41.687
780.22	41.399
780.40	45.250
780.57	42.780
780.75	44.255
780.93	47.209
781.10	45.627
781.28	47.696
781.46	41.897
781.63	41.043
781.81	50.397
781.99	41.964
782.16	45.175
782.34	39.779
782.52	41.999
782.69	44.402
782.87	44.901
783.05	38.618
783.22	44.353
783.40	40.545
783.58	43.403
783.75	41.308
783.93	46.851
784.11	42.738
784.28	46.031
784.46	39.433
784.64	42.399
784.81	40.285
784.99	45.969
785.17	46.682
785.34	39.562
785.52	41.221
785.69	39.559
785.87	40.716
786.05	45.847
786.22	46.868
786.40	48.488
786.58	40.990
786.75	46.893
786.93	43.948
787.11	47.019
787.28	47.556
787.46	43.483
787.63	39.634
787.81	43.080
787.99	41.671
788.16	41.257
788.34	36.378
788.51	41.637
788.69	40.899
788.87	38.331
789.04	38.417
789.22	43.100
789.39	39.640
789.57	38.063
789.75	40.260
789.92	43.953
790.10	39.019
790.27	41.248
790.45	36.887
790.63	41.088
790.80	43.792
790.98	39.690
791.15	35.494
791.33	44.414
791.51	39.811
791.68	46.875
791.86	43.546
792.03	40.843
792.21	39.334
792.39	45.048
792.56	40.861
792.74	45.716
792.91	45.677
793.09	39.314
793.26	33.839
793.44	45.064
793.62	42.233
793.79	46.663
793.97	40.070
794.14	41.194
794.32	41.619
794.49	52.502
794.67	37.876
794.84	40.558
795.02	42.465
795.20	41.227
795.37	42.661
795.55	40.211
795.72	42.058
795.90	42.467
796.07	39.940
796.25	41.826
796.42	38.677
796.60	41.136
796.77	39.409
796.95	43.848
797.13	36.015
797.30	40.420
797.48	41.027
797.65	40.213
797.83	37.054
798.00	41.301
798.18	36.024
798.35	38.546
798.53	42.726
798.70	43.151
798.88	38.218
799.05	40.236
799.23	39.155
799.40	42.506
799.58	46.424
799.75	41.807
799.93	37.594
800.10	43.410
800.28	39.680
800.45	44.962
800.63	32.149
800.80	39.600
800.98	37.619
801.15	38.954
801.33	41.724
801.50	45.109
801.68	35.264
801.85	41.462
802.03	36.761
802.20	39.155
802.38	43.427
802.55	39.456
802.73	41.214
802.90	41.379
803.08	39.836
803.25	43.660
803.43	42.688
803.60	40.860
803.78	40.656
803.95	42.838
804.13	39.714
804.30	42.828
804.48	37.666
804.65	44.887
804.83	40.823
805.00	38.730
805.17	42.829
805.35	38.939
805.52	34.251
805.70	42.443
805.87	41.667
806.05	41.205
806.22	42.923
806.40	36.158
806.57	38.487
806.75	44.164
806.92	45.509
807.09	44.131
807.27	42.341
807.44	45.006
807.62	37.636
807.79	37.467
807.97	38.736
808.14	47.106
808.31	37.459
808.49	36.764
808.66	39.851
808.84	41.883
809.01	39.858
809.19	41.253
809.36	46.809
809.53	47.923
809.71	40.646
809.88	45.734
810.06	44.765
810.23	42.177
810.41	45.663
810.58	46.567
810.75	36.992
810.93	38.456
811.10	41.214
811.28	44.428
811.45	41.215
811.62	40.447
811.80	39.158
811.97	41.471
812.15	45.792
812.32	45.089
812.49	46.208
812.67	38.536
812.84	40.711
813.02	47.703
813.19	37.207
813.36	41.604
813.54	35.818
813.71	43.684
813.89	45.047
814.06	50.079
814.23	44.123
814.41	41.748
814.58	42.635
814.75	42.628
814.93	42.290
815.10	39.968
815.28	37.694
815.45	35.417
815.62	42.427
815.80	40.048
815.97	35.299
816.14	40.844
816.32	42.355
816.49	44.355
816.66	39.649
816.84	37.589
817.01	41.359
817.18	42.553
817.36	43.308
817.53	41.608
817.71	27.287
817.88	39.590
818.05	36.642
818.23	36.612
818.40	31.371
818.57	33.687
818.75	35.917
818.92	39.181
819.09	38.595
819.27	36.531
819.44	36.541
819.61	34.956
819.79	39.192
819.96	35.899
820.13	31.154
820.31	34.751
820.48	37.712
820.65	31.826
820.82	30.157
821.00	35.557
821.17	29.890
821.34	34.787
821.52	31.674
821.69	33.974
821.86	33.309
822.04	31.084
822.21	32.041
822.38	34.895
822.56	31.660
822.73	35.124
822.90	33.610
823.07	35.727
823.25	34.760
823.42	33.558
823.59	32.435
823.77	35.126
823.94	34.354
824.11	35.434
824.29	34.907
824.46	36.172
824.63	36.177
824.80	36.534
824.98	34.628
825.15	36.442
825.32	30.570
825.49	36.114
825.67	32.943
825.84	36.799
826.01	32.695
826.19	35.458
826.36	32.429
826.53	35.185
826.70	31.679
826.88	35.180
827.05	32.297
827.22	32.707
827.39	35.202
827.57	30.351
827.74	29.787
827.91	38.033
828.08	29.394
828.26	33.647
828.43	29.930
828.60	34.381
828.77	33.491
828.95	34.954
829.12	31.279
829.29	29.627
829.46	32.910
829.64	30.491
829.81	32.030
829.98	36.931
830.15	30.986
830.32	31.150
830.50	30.343
830.67	34.523
830.84	30.257
831.01	32.698
831.19	34.289
831.36	31.813
831.53	41.352
831.70	35.729
831.87	34.714
832.05	43.399
832.22	34.959
832.39	34.000
832.56	29.135
832.74	40.493
832.91	33.030
833.08	36.291
833.25	31.156
833.42	32.077
833.60	31.851
833.77	24.614
833.94	28.333
834.11	33.768
834.28	29.690
834.45	32.495
834.63	28.605
834.80	34.300
834.97	28.918
835.14	33.393
835.31	30.892
835.49	32.326
835.66	33.029
835.83	26.878
836.00	29.911
836.17	31.616
836.34	31.885
836.52	36.606
836.69	34.262
836.86	39.399
837.03	34.876
837.20	32.474
837.37	34.767
837.55	34.912
837.72	40.154
837.89	34.043
838.06	36.803
838.23	41.250
838.40	35.323
838.58	34.892
838.75	37.030
838.92	44.455
839.09	44.519
839.26	48.470
839.43	47.877
839.60	43.884
839.78	46.371
839.95	49.257
840.12	42.111
840.29	50.616
840.46	44.269
840.63	38.854
840.80	44.940
840.98	49.242
841.15	44.945
841.32	45.727
841.49	38.570
841.66	35.905
841.83	43.190
842.00	37.414
842.17	34.930
842.34	35.423
842.52	50.542
842.69	47.386
842.86	53.118
843.03	62.695
843.20	50.576
843.37	47.010
843.54	55.160
843.71	44.942
843.88	62.566
844.06	58.333
844.23	65.390
844.40	50.837
844.57	50.898
844.74	48.729
844.91	68.966
845.08	59.008
845.25	61.500
845.42	58.641
845.59	50.683
845.76	62.749
845.94	76.234
846.11	49.180
846.28	70.455
846.45	82.143
846.62	74.004
846.79	52.715
846.96	72.016
847.13	70.294
847.30	63.734
847.47	63.894
847.64	49.524
847.81	64.983
847.98	78.835
848.15	70.320
848.32	84.432
848.50	60.990
848.67	58.672
848.84	66.546
849.01	66.885
849.18	70.264
849.35	79.060
849.52	74.707
849.69	74.403
849.86	74.312
850.03	71.202
850.20	70.528
850.37	62.376
850.54	69.048
850.71	79.242
850.88	86.139
851.05	72.939
851.22	81.330
851.39	81.687
851.56	66.214
851.73	80.287
851.90	76.993
852.07	69.903
852.24	63.368
852.41	66.273
852.58	80.674
852.75	60.952
852.92	65.611
853.09	83.410
853.26	99.068
853.43	66.292
853.60	92.778
853.77	83.213
853.94	73.239
854.11	77.167
854.28	88.124
854.45	76.728
854.62	72.437
854.79	95.133
854.96	62.341
855.13	77.193
855.30	70.789
855.47	80.447
855.64	77.201
855.81	78.636
855.98	79.737
856.15	82.338
856.32	83.333
856.49	85.794
856.66	95.172
856.83	89.922
857.00	86.136
857.17	94.444
857.34	79.955
857.51	69.383
857.68	89.851
857.85	72.167
858.02	114.247
858.19	82.086
858.36	71.212
858.53	90.049
858.70	74.638
858.87	110.942
859.04	80.932
859.21	63.930
859.38	78.842
859.55	71.685
859.72	72.644
859.89	93.909
860.05	93.039
860.22	59.709
860.39	65.241
860.56	70.538
860.73	84.300
860.90	71.811
861.07	92.906
861.24	86.047
861.41	98.656
861.58	65.163
861.75	87.533
861.92	76.630
862.09	70.199
862.26	87.736
862.43	95.722
862.59	60.367
862.76	83.292
862.93	105.333
863.10	73.892
863.27	71.504
863.44	71.282
863.61	72.944
863.78	78.657
863.95	103.041
864.12	80.603
864.29	80.997
864.45	75.106
864.62	74.058
864.79	74.462
864.96	72.120
865.13	66.304
865.30	66.392
865.47	68.615
865.64	119.453
865.81	87.430
865.97	70.227
866.14	81.694
866.31	72.329
866.48	65.805
866.65	84.672
866.82	103.686
866.99	84.541
867.16	55.714
867.33	100.000
867.49	78.147
867.66	74.743
867.83	70.218
868.00	73.995
868.17	67.991
868.34	87.500
868.51	68.642
868.67	88.579
868.84	91.494
869.01	89.565
869.18	78.754
869.35	104.167
869.52	78.422
869.69	104.268
869.85	78.171
870.02	91.429
870.19	90.000
870.36	83.412
870.53	83.841
870.70	90.025
870.86	75.065
871.03	83.871
871.20	89.706
871.37	87.961
871.54	80.789
871.71	68.215
871.87	84.241
872.04	67.797
872.21	56.667
872.38	83.777
872.55	102.670
872.72	75.472
872.88	86.283
873.05	54.586
873.22	69.639
873.39	75.822
873.56	76.368
873.72	80.274
873.89	71.033
874.06	82.199
874.23	92.308
874.40	77.411
874.56	74.464
874.73	73.154
874.90	71.698
875.07	70.390
875.24	64.840
875.40	90.693
875.57	79.952
875.74	77.241
875.91	66.667
876.08	70.824
876.24	81.818
876.41	69.935
876.58	87.467
876.75	70.637
876.92	76.903
877.08	102.778
877.25	72.120
877.42	62.284
877.59	80.587
877.75	69.146
877.92	55.769
878.09	73.020
878.26	69.289
878.42	77.526
878.59	84.691
878.76	74.634
878.93	81.356
879.09	45.805
879.26	71.401
879.43	70.938
879.60	74.121
879.76	67.857
879.93	64.765
880.10	45.279
880.27	60.757
880.43	48.337
880.60	51.468
880.77	42.879
880.94	49.640
881.10	46.904
881.27	35.320
881.44	27.502
881.61	36.215
881.77	34.145
881.94	28.870
882.11	26.393
882.28	25.730
882.44	26.983
882.61	29.818
882.78	27.709
882.94	32.975
883.11	28.639
883.28	27.814
883.45	30.480
883.61	29.167
883.78	27.296
883.95	34.144
884.11	29.944
884.28	29.716
>>>>>End Processed Spectral Data<<<<<
