SpectraSuite Data File
++++++++++++++++++++++++++++++++++++
Date: Wed Sep 18 03:10:44 EST 2019
User: sgrac
Dark Spectrum Present: Yes
Reference Spectrum Present: Yes
Number of Sampled Component Spectra: 1
Spectrometers: USB4E01596
Integration Time (usec): 100000 (USB4E01596)
Spectra Averaged: 3 (USB4E01596)
Boxcar Smoothing: 0 (USB4E01596)
Correct for Electrical Dark: No (USB4E01596)
Strobe/Lamp Enabled: Yes (USB4E01596)
Correct for Detector Non-linearity: No (USB4E01596)
Correct for Stray Light: No (USB4E01596)
Number of Pixels in Processed Spectrum: 3648
>>>>>Begin Processed Spectral Data<<<<<
178.44	-9.677
178.66	-9.677
178.87	-9.677
179.09	-96.000
179.30	114.130
179.52	402.632
179.74	133.333
179.95	-546.667
180.17	348.837
180.38	-226.667
180.60	207.143
180.82	625.000
181.03	151.163
181.25	-835.714
181.46	-230.000
181.68	-106.977
181.89	267.347
182.11	242.500
182.33	294.118
182.54	108.772
182.76	160.870
182.97	335.714
183.19	136.957
183.40	136.364
183.62	275.000
183.84	296.774
184.05	387.879
184.27	262.295
184.48	800.000
184.70	-47.222
184.91	278.261
185.13	-37.500
185.34	-36.667
185.56	-281.818
185.78	411.111
185.99	59.016
186.21	126.829
186.42	-1030.000
186.64	63.636
186.85	537.500
187.07	188.095
187.28	292.857
187.50	-188.235
187.72	138.000
187.93	134.940
188.15	264.706
188.36	-511.765
188.58	162.338
188.79	-5200.000
189.01	114.966
189.22	107.792
189.44	295.833
189.65	183.146
189.87	110.526
190.09	179.787
190.30	356.667
190.52	518.750
190.73	150.602
190.95	209.091
191.16	155.224
191.38	-7900.000
191.59	334.783
191.81	221.429
192.02	-266.667
192.24	159.677
192.45	191.111
192.67	142.424
192.88	184.375
193.10	265.909
193.31	176.786
193.53	183.871
193.74	245.455
193.96	137.288
194.18	-313.043
194.39	213.725
194.61	582.759
194.82	584.615
195.04	46.667
195.25	191.803
195.47	-1925.000
195.68	84.507
195.90	108.791
196.11	208.333
196.33	1017.647
196.54	374.419
196.76	-400.000
196.97	151.000
197.19	265.000
197.40	138.346
197.62	-160.606
197.83	198.077
198.05	106.040
198.26	-240.000
198.48	33.333
198.69	96.330
198.91	184.058
199.12	-775.000
199.34	368.000
199.55	10600.000
199.77	93.421
199.98	1716.667
200.20	329.412
200.41	218.310
200.63	170.370
200.84	861.905
201.06	283.871
201.27	151.852
201.49	120.313
201.70	283.607
201.91	368.182
202.13	415.000
202.34	-185.714
202.56	295.000
202.77	-84.884
202.99	200.000
203.20	329.787
203.42	257.143
203.63	144.037
203.85	-175.862
204.06	254.545
204.28	833.333
204.49	258.140
204.71	119.328
204.92	188.462
205.14	194.737
205.35	3675.000
205.56	197.183
205.78	172.840
205.99	125.954
206.21	93.939
206.42	165.217
206.64	311.765
206.85	104.444
207.07	305.714
207.28	144.318
207.50	308.696
207.71	167.442
207.93	231.250
208.14	274.419
208.35	103.390
208.57	184.000
208.78	265.957
209.00	176.344
209.21	157.042
209.43	197.222
209.64	465.385
209.86	654.545
210.07	94.937
210.28	116.867
210.50	86.957
210.71	159.091
210.93	172.727
211.14	165.000
211.36	438.095
211.57	90.833
211.78	519.231
212.00	205.405
212.21	911.111
212.43	869.231
212.64	225.000
212.86	212.727
213.07	184.615
213.29	136.735
213.50	151.667
213.71	151.250
213.93	158.427
214.14	262.500
214.36	309.756
214.57	136.905
214.78	1200.000
215.00	70.732
215.21	133.333
215.43	-3020.000
215.64	205.714
215.86	126.471
216.07	168.493
216.28	320.000
216.50	136.000
216.71	633.333
216.93	-1000.000
217.14	631.579
217.35	-35.593
217.57	134.091
217.78	131.034
218.00	132.381
218.21	145.588
218.42	-2125.000
218.64	232.143
218.85	185.294
219.07	25.581
219.28	133.333
219.49	-2550.000
219.71	200.000
219.92	257.895
220.14	-3000.000
220.35	163.014
220.56	210.870
220.78	110.976
220.99	-93.333
221.21	91.566
221.42	106.579
221.63	915.385
221.85	-123.333
222.06	110.101
222.28	-235.714
222.49	164.912
222.70	154.310
222.92	50.000
223.13	115.068
223.34	1116.667
223.56	116.239
223.77	124.691
223.99	120.202
224.20	132.143
224.41	67.273
224.63	97.159
224.84	113.710
225.05	36.885
225.27	156.364
225.48	70.732
225.69	181.250
225.91	156.923
226.12	166.667
226.34	78.431
226.55	69.811
226.76	61.240
226.98	147.436
227.19	31.429
227.40	77.465
227.62	38.462
227.83	13.333
228.04	20.000
228.26	45.270
228.47	10.577
228.69	8.197
228.90	25.068
229.11	15.169
229.33	38.202
229.54	26.834
229.75	16.517
229.97	19.120
230.18	4.561
230.39	20.424
230.61	6.293
230.82	23.714
231.03	11.641
231.25	26.163
231.46	19.456
231.67	17.840
231.89	15.843
232.10	21.837
232.31	32.264
232.53	26.222
232.74	35.341
232.95	28.911
233.17	30.905
233.38	36.643
233.59	33.333
233.81	29.211
234.02	12.392
234.23	19.792
234.45	19.553
234.66	26.238
234.87	32.135
235.09	25.359
235.30	32.161
235.51	18.296
235.73	15.202
235.94	25.630
236.15	18.977
236.36	9.438
236.58	11.932
236.79	23.881
237.00	31.657
237.22	10.313
237.43	32.285
237.64	8.266
237.86	11.789
238.07	29.844
238.28	15.451
238.50	7.566
238.71	22.692
238.92	17.540
239.13	17.521
239.35	31.911
239.56	29.512
239.77	33.789
239.99	16.034
240.20	31.667
240.41	10.591
240.63	33.640
240.84	23.762
241.05	8.444
241.26	26.034
241.48	19.971
241.69	22.796
241.90	7.673
242.12	24.575
242.33	10.663
242.54	15.923
242.75	5.332
242.97	12.491
243.18	12.067
243.39	7.916
243.61	8.967
243.82	11.877
244.03	11.628
244.24	10.449
244.46	7.213
244.67	10.098
244.88	6.168
245.09	11.765
245.31	7.537
245.52	6.296
245.73	8.744
245.95	24.617
246.16	15.480
246.37	13.192
246.58	10.340
246.80	16.067
247.01	14.239
247.22	10.950
247.43	8.633
247.65	13.081
247.86	6.878
248.07	8.377
248.28	9.519
248.50	11.433
248.71	9.881
248.92	10.203
249.13	8.274
249.35	10.260
249.56	8.067
249.77	7.508
249.98	7.847
250.20	11.673
250.41	13.893
250.62	10.516
250.83	11.662
251.05	14.302
251.26	12.297
251.47	12.304
251.68	10.526
251.90	6.937
252.11	11.738
252.32	8.779
252.53	16.561
252.75	1.183
252.96	11.897
253.17	13.791
253.38	10.782
253.59	6.519
253.81	7.373
254.02	12.528
254.23	10.248
254.44	9.950
254.66	10.347
254.87	10.656
255.08	5.843
255.29	13.200
255.50	9.762
255.72	13.599
255.93	10.048
256.14	11.501
256.35	9.558
256.57	7.472
256.78	17.835
256.99	10.971
257.20	8.889
257.41	7.832
257.63	15.187
257.84	20.614
258.05	4.003
258.26	5.230
258.47	12.786
258.69	13.170
258.90	10.388
259.11	8.575
259.32	7.532
259.53	9.177
259.75	3.372
259.96	8.914
260.17	8.596
260.38	7.751
260.59	7.704
260.81	9.249
261.02	8.634
261.23	8.136
261.44	7.620
261.65	6.976
261.87	7.271
262.08	8.500
262.29	8.033
262.50	6.039
262.71	6.092
262.92	7.431
263.14	6.042
263.35	4.557
263.56	7.639
263.77	8.778
263.98	10.118
264.20	10.553
264.41	13.924
264.62	8.929
264.83	5.994
265.04	10.757
265.25	6.254
265.47	7.011
265.68	10.731
265.89	8.229
266.10	10.431
266.31	10.410
266.52	6.287
266.74	9.159
266.95	6.557
267.16	11.576
267.37	9.352
267.58	6.994
267.79	8.318
268.01	5.157
268.22	5.794
268.43	7.023
268.64	7.312
268.85	7.798
269.06	7.468
269.27	7.182
269.49	5.029
269.70	7.134
269.91	7.804
270.12	10.373
270.33	10.542
270.54	7.103
270.75	5.472
270.97	5.885
271.18	7.601
271.39	6.391
271.60	7.614
271.81	5.216
272.02	9.835
272.23	6.573
272.45	5.713
272.66	5.701
272.87	4.929
273.08	6.479
273.29	9.190
273.50	4.693
273.71	5.858
273.92	6.964
274.14	7.374
274.35	6.335
274.56	7.947
274.77	6.932
274.98	5.384
275.19	5.300
275.40	8.658
275.61	3.659
275.83	4.149
276.04	7.395
276.25	8.737
276.46	7.188
276.67	7.431
276.88	8.998
277.09	4.674
277.30	8.966
277.51	8.506
277.73	5.447
277.94	7.452
278.15	7.582
278.36	9.441
278.57	5.723
278.78	8.897
278.99	4.156
279.20	9.773
279.41	11.355
279.62	5.755
279.84	8.659
280.05	4.259
280.26	7.005
280.47	9.453
280.68	5.226
280.89	4.882
281.10	5.380
281.31	8.460
281.52	8.750
281.73	4.843
281.94	3.655
282.16	6.159
282.37	7.651
282.58	5.819
282.79	4.491
283.00	10.765
283.21	5.730
283.42	5.963
283.63	8.232
283.84	5.919
284.05	5.400
284.26	5.417
284.47	6.495
284.68	5.843
284.89	4.517
285.11	4.482
285.32	7.456
285.53	6.040
285.74	8.876
285.95	5.941
286.16	7.280
286.37	4.433
286.58	5.137
286.79	4.257
287.00	6.013
287.21	5.528
287.42	4.736
287.63	6.010
287.84	6.160
288.05	5.394
288.26	6.813
288.48	5.504
288.69	5.475
288.90	6.847
289.11	4.586
289.32	6.617
289.53	4.782
289.74	5.574
289.95	5.401
290.16	7.149
290.37	6.574
290.58	3.869
290.79	3.238
291.00	3.547
291.21	6.866
291.42	4.993
291.63	4.699
291.84	5.816
292.05	3.743
292.26	4.689
292.47	4.883
292.68	4.374
292.89	5.256
293.10	5.657
293.31	5.269
293.52	3.593
293.73	4.640
293.94	5.304
294.15	5.271
294.36	4.266
294.57	4.314
294.79	5.265
295.00	3.866
295.21	7.535
295.42	7.062
295.63	7.257
295.84	3.221
296.05	4.224
296.26	5.532
296.47	4.250
296.68	4.615
296.89	6.687
297.10	6.187
297.31	5.663
297.52	2.921
297.73	4.497
297.94	3.196
298.15	4.856
298.36	5.672
298.57	4.003
298.78	4.882
298.99	4.313
299.20	5.189
299.41	4.981
299.62	4.301
299.83	4.238
300.04	4.248
300.25	4.718
300.46	8.003
300.67	6.125
300.88	5.960
301.09	3.040
301.30	4.599
301.50	4.252
301.71	6.471
301.92	4.370
302.13	3.325
302.34	4.303
302.55	4.176
302.76	3.754
302.97	4.795
303.18	3.921
303.39	4.942
303.60	4.606
303.81	6.492
304.02	2.549
304.23	4.511
304.44	4.214
304.65	3.417
304.86	5.100
305.07	3.598
305.28	4.824
305.49	6.114
305.70	6.287
305.91	4.056
306.12	2.856
306.33	4.012
306.54	6.078
306.75	5.886
306.96	6.968
307.17	3.513
307.38	5.140
307.58	5.618
307.79	4.593
308.00	6.456
308.21	3.235
308.42	1.865
308.63	6.781
308.84	5.716
309.05	6.169
309.26	4.429
309.47	5.072
309.68	4.740
309.89	6.259
310.10	4.994
310.31	4.498
310.52	3.961
310.73	7.349
310.94	3.608
311.14	3.533
311.35	5.369
311.56	5.020
311.77	3.924
311.98	3.819
312.19	3.945
312.40	5.155
312.61	3.129
312.82	4.552
313.03	5.007
313.24	3.907
313.45	4.363
313.66	4.105
313.86	3.923
314.07	2.029
314.28	5.725
314.49	1.744
314.70	3.932
314.91	5.048
315.12	6.296
315.33	6.732
315.54	4.302
315.75	3.930
315.96	2.975
316.16	3.301
316.37	7.700
316.58	5.145
316.79	5.907
317.00	5.735
317.21	5.681
317.42	7.232
317.63	3.724
317.84	4.895
318.05	3.741
318.25	6.140
318.46	4.742
318.67	4.276
318.88	6.548
319.09	7.285
319.30	5.609
319.51	3.231
319.72	3.136
319.93	4.166
320.13	5.915
320.34	5.236
320.55	2.717
320.76	6.727
320.97	6.226
321.18	8.939
321.39	3.859
321.60	2.210
321.80	5.548
322.01	5.701
322.22	7.992
322.43	5.221
322.64	6.335
322.85	7.011
323.06	6.121
323.27	5.762
323.47	5.269
323.68	5.827
323.89	4.406
324.10	4.972
324.31	5.229
324.52	5.297
324.73	4.715
324.93	3.127
325.14	3.055
325.35	7.877
325.56	4.352
325.77	7.000
325.98	3.238
326.19	5.243
326.39	4.090
326.60	4.206
326.81	2.528
327.02	4.653
327.23	5.876
327.44	7.271
327.64	3.947
327.85	3.146
328.06	4.684
328.27	7.042
328.48	6.092
328.69	1.396
328.90	2.831
329.10	2.734
329.31	2.871
329.52	3.946
329.73	6.746
329.94	4.512
330.15	7.239
330.35	4.617
330.56	4.144
330.77	3.846
330.98	6.127
331.19	4.293
331.39	3.548
331.60	5.738
331.81	4.315
332.02	4.725
332.23	4.604
332.44	5.001
332.64	5.820
332.85	4.153
333.06	6.138
333.27	4.159
333.48	4.633
333.68	4.267
333.89	4.634
334.10	4.615
334.31	5.927
334.52	4.430
334.72	5.292
334.93	4.908
335.14	1.949
335.35	4.635
335.56	5.342
335.76	4.715
335.97	4.569
336.18	4.662
336.39	6.094
336.60	4.445
336.80	5.452
337.01	3.090
337.22	5.274
337.43	5.185
337.64	5.572
337.84	4.021
338.05	5.250
338.26	6.191
338.47	6.775
338.68	4.585
338.88	6.197
339.09	5.984
339.30	4.624
339.51	4.384
339.71	6.800
339.92	2.778
340.13	3.934
340.34	3.588
340.55	2.011
340.75	3.792
340.96	4.865
341.17	6.916
341.38	4.374
341.58	6.418
341.79	5.784
342.00	3.489
342.21	6.482
342.41	4.797
342.62	4.810
342.83	4.176
343.04	4.188
343.24	5.625
343.45	7.088
343.66	5.154
343.87	4.918
344.07	4.654
344.28	7.568
344.49	7.155
344.70	7.284
344.90	4.778
345.11	3.671
345.32	6.187
345.53	5.476
345.73	6.921
345.94	7.296
346.15	8.545
346.36	6.374
346.56	6.264
346.77	7.883
346.98	7.770
347.19	7.573
347.39	7.614
347.60	7.509
347.81	7.443
348.02	8.055
348.22	5.914
348.43	8.054
348.64	6.353
348.84	7.950
349.05	7.382
349.26	9.489
349.47	5.806
349.67	7.188
349.88	8.927
350.09	7.615
350.30	10.465
350.50	8.562
350.71	9.573
350.92	7.673
351.12	8.478
351.33	8.622
351.54	7.804
351.74	8.961
351.95	7.013
352.16	10.162
352.37	9.291
352.57	9.599
352.78	9.658
352.99	9.350
353.19	8.394
353.40	10.725
353.61	10.560
353.82	11.242
354.02	10.466
354.23	10.127
354.44	12.809
354.64	10.441
354.85	13.564
355.06	10.994
355.26	9.640
355.47	10.882
355.68	13.150
355.88	12.648
356.09	12.289
356.30	10.139
356.51	12.182
356.71	13.002
356.92	11.834
357.13	12.782
357.33	14.444
357.54	12.306
357.75	10.144
357.95	13.456
358.16	10.951
358.37	17.059
358.57	11.379
358.78	16.933
358.99	13.641
359.19	12.111
359.40	15.191
359.61	15.968
359.81	15.576
360.02	18.084
360.23	13.511
360.43	13.424
360.64	14.054
360.85	13.478
361.05	13.947
361.26	15.725
361.47	14.230
361.67	16.671
361.88	12.972
362.09	17.364
362.29	13.411
362.50	14.728
362.70	13.877
362.91	17.249
363.12	15.345
363.32	16.423
363.53	16.227
363.74	17.051
363.94	13.804
364.15	17.644
364.36	15.766
364.56	15.513
364.77	15.416
364.98	18.724
365.18	14.931
365.39	17.348
365.59	15.036
365.80	15.996
366.01	14.395
366.21	15.687
366.42	14.981
366.63	16.495
366.83	15.154
367.04	13.638
367.24	16.751
367.45	14.882
367.66	14.438
367.86	15.353
368.07	14.031
368.28	16.073
368.48	14.343
368.69	14.257
368.89	15.499
369.10	16.529
369.31	16.555
369.51	18.376
369.72	16.637
369.92	18.717
370.13	13.549
370.34	16.056
370.54	12.265
370.75	17.031
370.95	15.273
371.16	16.883
371.37	14.363
371.57	16.038
371.78	13.936
371.98	17.273
372.19	17.219
372.40	17.944
372.60	17.248
372.81	17.728
373.01	16.352
373.22	16.802
373.43	17.977
373.63	19.008
373.84	16.424
374.04	18.115
374.25	17.216
374.46	19.726
374.66	17.908
374.87	19.719
375.07	16.685
375.28	17.628
375.48	18.612
375.69	20.256
375.90	16.257
376.10	16.892
376.31	17.681
376.51	17.561
376.72	18.341
376.92	18.762
377.13	18.450
377.34	19.478
377.54	18.024
377.75	20.140
377.95	18.916
378.16	21.151
378.36	20.222
378.57	22.070
378.77	18.981
378.98	21.102
379.19	19.490
379.39	19.975
379.60	20.084
379.80	20.789
380.01	21.312
380.21	21.578
380.42	21.647
380.62	21.427
380.83	21.653
381.04	21.442
381.24	22.595
381.45	21.826
381.65	21.856
381.86	22.239
382.06	22.813
382.27	21.084
382.47	20.753
382.68	23.538
382.88	20.670
383.09	22.476
383.29	21.807
383.50	24.939
383.71	22.902
383.91	24.535
384.12	22.331
384.32	25.023
384.53	24.153
384.73	24.126
384.94	24.131
385.14	24.487
385.35	23.778
385.55	26.382
385.76	24.870
385.96	27.105
386.17	27.400
386.37	26.832
386.58	26.586
386.78	29.062
386.99	27.063
387.19	28.218
387.40	27.243
387.60	28.833
387.81	28.302
388.01	29.001
388.22	29.586
388.42	30.313
388.63	29.540
388.83	31.761
389.04	29.668
389.24	31.794
389.45	30.316
389.65	29.709
389.86	29.189
390.06	31.061
390.27	30.725
390.47	32.360
390.68	31.544
390.88	33.386
391.09	32.671
391.29	33.524
391.50	33.269
391.70	34.537
391.91	33.392
392.11	34.281
392.32	34.650
392.52	34.685
392.73	35.922
392.93	36.154
393.14	34.669
393.34	35.509
393.55	35.720
393.75	35.732
393.95	36.777
394.16	37.269
394.36	37.076
394.57	38.151
394.77	37.521
394.98	37.404
395.18	37.804
395.39	38.570
395.59	37.785
395.80	40.263
396.00	38.160
396.21	39.330
396.41	38.156
396.61	38.306
396.82	40.767
397.02	40.358
397.23	39.518
397.43	40.364
397.64	39.244
397.84	41.192
398.05	38.724
398.25	40.329
398.45	40.831
398.66	40.491
398.86	41.283
399.07	42.589
399.27	41.024
399.48	41.136
399.68	40.241
399.89	40.702
400.09	42.432
400.29	41.814
400.50	41.266
400.70	41.968
400.91	40.358
401.11	42.314
401.32	42.523
401.52	41.303
401.72	42.013
401.93	42.647
402.13	40.889
402.34	42.744
402.54	41.413
402.75	44.081
402.95	41.956
403.15	42.202
403.36	42.044
403.56	41.717
403.77	40.199
403.97	42.745
404.17	42.448
404.38	42.872
404.58	42.070
404.79	41.399
404.99	42.595
405.19	41.208
405.40	42.624
405.60	42.797
405.81	42.351
406.01	41.758
406.21	41.881
406.42	41.624
406.62	42.439
406.83	42.939
407.03	42.659
407.23	42.222
407.44	42.926
407.64	42.433
407.85	41.763
408.05	41.254
408.25	41.631
408.46	42.279
408.66	40.576
408.87	41.684
409.07	41.966
409.27	40.994
409.48	40.499
409.68	41.977
409.88	41.413
410.09	41.252
410.29	41.417
410.50	42.054
410.70	40.688
410.90	40.812
411.11	40.889
411.31	41.844
411.51	41.038
411.72	41.365
411.92	40.993
412.12	41.210
412.33	40.722
412.53	41.025
412.74	40.125
412.94	41.739
413.14	40.866
413.35	40.335
413.55	39.596
413.75	40.515
413.96	39.861
414.16	40.791
414.36	40.867
414.57	40.142
414.77	39.967
414.97	40.698
415.18	39.580
415.38	39.362
415.58	39.564
415.79	40.228
415.99	40.363
416.19	40.641
416.40	39.189
416.60	40.509
416.80	38.743
417.01	39.301
417.21	38.858
417.41	39.573
417.62	38.923
417.82	39.465
418.02	38.595
418.23	38.530
418.43	38.667
418.63	38.902
418.84	38.734
419.04	39.153
419.24	38.369
419.45	39.338
419.65	38.187
419.85	38.913
420.06	37.806
420.26	38.302
420.46	38.261
420.67	37.823
420.87	37.854
421.07	38.783
421.28	37.479
421.48	38.020
421.68	38.043
421.88	37.582
422.09	38.330
422.29	37.424
422.49	37.709
422.70	37.906
422.90	37.964
423.10	37.797
423.31	37.799
423.51	37.477
423.71	37.219
423.91	36.828
424.12	37.193
424.32	37.405
424.52	37.131
424.73	36.979
424.93	37.072
425.13	37.147
425.33	36.825
425.54	36.661
425.74	37.121
425.94	37.430
426.15	37.477
426.35	36.700
426.55	36.797
426.75	37.126
426.96	37.327
427.16	37.128
427.36	36.881
427.57	37.363
427.77	37.660
427.97	36.808
428.17	37.454
428.38	36.895
428.58	35.961
428.78	37.489
428.98	36.705
429.19	36.922
429.39	35.915
429.59	36.687
429.79	36.402
430.00	36.143
430.20	35.939
430.40	37.314
430.60	36.287
430.81	34.973
431.01	36.260
431.21	36.289
431.41	35.805
431.62	35.700
431.82	35.470
432.02	36.116
432.22	36.646
432.43	35.790
432.63	35.767
432.83	36.601
433.03	35.800
433.24	36.089
433.44	35.681
433.64	36.550
433.84	35.797
434.05	35.995
434.25	36.234
434.45	36.541
434.65	36.484
434.85	36.569
435.06	36.143
435.26	36.190
435.46	36.391
435.66	36.026
435.87	36.190
436.07	37.335
436.27	36.549
436.47	36.594
436.67	37.098
436.88	36.247
437.08	36.395
437.28	37.113
437.48	36.800
437.69	36.966
437.89	36.973
438.09	37.182
438.29	36.589
438.49	37.024
438.70	36.620
438.90	37.216
439.10	36.076
439.30	36.666
439.50	36.614
439.71	36.739
439.91	36.521
440.11	36.855
440.31	36.955
440.51	36.840
440.72	36.748
440.92	36.890
441.12	36.192
441.32	37.171
441.52	37.038
441.72	37.018
441.93	36.953
442.13	36.910
442.33	36.825
442.53	37.230
442.73	37.557
442.94	37.201
443.14	37.294
443.34	37.094
443.54	37.407
443.74	37.191
443.94	36.852
444.15	37.135
444.35	36.525
444.55	37.235
444.75	37.413
444.95	37.240
445.15	36.854
445.36	37.637
445.56	36.650
445.76	36.563
445.96	37.545
446.16	36.849
446.36	36.816
446.57	37.457
446.77	36.990
446.97	36.765
447.17	37.536
447.37	37.132
447.57	37.265
447.77	37.220
447.98	36.866
448.18	37.139
448.38	36.939
448.58	36.966
448.78	37.483
448.98	36.864
449.18	37.140
449.39	37.191
449.59	37.208
449.79	37.440
449.99	37.717
450.19	37.952
450.39	36.822
450.59	37.788
450.79	37.170
451.00	36.814
451.20	37.482
451.40	37.387
451.60	37.373
451.80	37.578
452.00	37.820
452.20	38.770
452.40	37.553
452.61	37.229
452.81	36.834
453.01	37.264
453.21	36.758
453.41	36.894
453.61	37.557
453.81	37.452
454.01	36.789
454.21	36.850
454.42	36.798
454.62	37.226
454.82	36.709
455.02	37.355
455.22	37.402
455.42	36.956
455.62	37.226
455.82	36.994
456.02	37.187
456.23	37.101
456.43	36.950
456.63	37.385
456.83	36.531
457.03	37.310
457.23	36.598
457.43	37.119
457.63	36.861
457.83	36.707
458.03	36.997
458.23	36.544
458.43	36.259
458.64	37.165
458.84	37.067
459.04	36.845
459.24	36.308
459.44	36.631
459.64	36.612
459.84	36.590
460.04	36.168
460.24	36.250
460.44	35.966
460.64	36.256
460.84	36.025
461.04	36.140
461.24	36.344
461.45	36.712
461.65	36.605
461.85	36.498
462.05	36.529
462.25	37.074
462.45	37.050
462.65	36.590
462.85	36.370
463.05	36.736
463.25	36.390
463.45	36.328
463.65	36.766
463.85	36.367
464.05	36.903
464.25	36.870
464.45	37.154
464.65	36.478
464.85	37.105
465.05	36.513
465.26	36.579
465.46	36.210
465.66	36.298
465.86	36.836
466.06	36.734
466.26	36.911
466.46	36.139
466.66	36.319
466.86	35.861
467.06	36.137
467.26	35.678
467.46	35.810
467.66	36.546
467.86	36.853
468.06	36.758
468.26	36.584
468.46	36.348
468.66	36.230
468.86	36.291
469.06	37.245
469.26	36.888
469.46	37.182
469.66	36.137
469.86	36.182
470.06	35.884
470.26	36.370
470.46	37.120
470.66	36.627
470.86	36.506
471.06	36.090
471.26	36.483
471.46	36.256
471.66	36.683
471.86	36.440
472.06	36.713
472.26	36.476
472.46	35.886
472.66	36.041
472.86	35.668
473.06	36.599
473.26	36.829
473.46	36.183
473.66	36.684
473.86	36.429
474.06	36.593
474.26	36.048
474.46	36.838
474.66	36.320
474.86	36.811
475.06	36.290
475.26	36.439
475.46	36.686
475.66	36.033
475.86	37.311
476.06	36.368
476.26	37.286
476.46	36.702
476.66	36.384
476.86	37.035
477.06	36.563
477.26	36.808
477.46	36.883
477.65	36.487
477.85	37.510
478.05	36.371
478.25	37.394
478.45	36.871
478.65	36.150
478.85	36.384
479.05	36.218
479.25	36.472
479.45	36.369
479.65	36.975
479.85	37.279
480.05	36.635
480.25	36.325
480.45	36.697
480.65	36.414
480.85	36.767
481.05	36.860
481.25	37.512
481.44	36.821
481.64	36.853
481.84	36.850
482.04	37.257
482.24	36.992
482.44	36.707
482.64	36.822
482.84	36.715
483.04	36.834
483.24	36.291
483.44	36.539
483.64	36.021
483.84	36.286
484.04	36.336
484.23	36.676
484.43	36.951
484.63	37.261
484.83	36.960
485.03	37.945
485.23	37.454
485.43	37.636
485.63	37.327
485.83	37.700
486.03	37.467
486.23	37.525
486.42	37.140
486.62	37.462
486.82	36.940
487.02	36.894
487.22	36.893
487.42	36.462
487.62	36.477
487.82	36.627
488.02	36.607
488.22	36.978
488.41	36.278
488.61	36.789
488.81	36.762
489.01	37.029
489.21	36.581
489.41	36.818
489.61	36.766
489.81	36.701
490.01	36.718
490.20	37.187
490.40	36.790
490.60	37.058
490.80	36.287
491.00	36.674
491.20	36.551
491.40	35.746
491.60	36.156
491.79	36.060
491.99	36.144
492.19	36.398
492.39	36.229
492.59	36.358
492.79	36.078
492.99	36.825
493.19	36.666
493.38	36.860
493.58	36.320
493.78	37.223
493.98	36.905
494.18	37.001
494.38	37.130
494.58	36.814
494.77	36.465
494.97	36.371
495.17	36.297
495.37	36.405
495.57	36.483
495.77	36.422
495.96	36.376
496.16	36.125
496.36	36.417
496.56	36.443
496.76	35.996
496.96	36.368
497.15	36.264
497.35	36.049
497.55	36.614
497.75	36.952
497.95	36.418
498.15	36.038
498.34	35.999
498.54	36.397
498.74	36.623
498.94	36.754
499.14	36.662
499.34	36.382
499.53	36.872
499.73	36.986
499.93	36.360
500.13	36.668
500.33	36.394
500.52	37.024
500.72	36.631
500.92	36.540
501.12	36.991
501.32	36.350
501.52	37.193
501.71	36.488
501.91	36.878
502.11	36.846
502.31	36.461
502.51	37.058
502.70	36.981
502.90	37.437
503.10	36.642
503.30	36.696
503.50	36.939
503.69	37.431
503.89	37.167
504.09	37.468
504.29	36.429
504.48	36.994
504.68	37.224
504.88	37.072
505.08	37.338
505.28	37.820
505.47	37.222
505.67	37.299
505.87	37.559
506.07	37.191
506.27	37.852
506.46	37.673
506.66	37.710
506.86	37.952
507.06	37.155
507.25	37.689
507.45	37.322
507.65	37.259
507.85	37.573
508.04	37.230
508.24	37.542
508.44	37.134
508.64	37.743
508.83	38.078
509.03	37.549
509.23	37.630
509.43	38.071
509.63	37.435
509.82	38.354
510.02	37.276
510.22	38.146
510.42	37.811
510.61	37.857
510.81	37.344
511.01	37.533
511.21	38.223
511.40	38.254
511.60	38.064
511.80	37.808
511.99	38.360
512.19	38.332
512.39	38.282
512.59	38.018
512.78	38.116
512.98	38.114
513.18	38.234
513.38	38.185
513.57	38.631
513.77	38.629
513.97	38.009
514.17	38.164
514.36	38.093
514.56	38.453
514.76	38.769
514.95	37.961
515.15	38.255
515.35	38.936
515.55	38.081
515.74	38.308
515.94	38.250
516.14	38.420
516.33	38.599
516.53	38.613
516.73	38.741
516.93	38.450
517.12	38.406
517.32	37.662
517.52	38.595
517.71	38.114
517.91	38.223
518.11	38.253
518.30	37.989
518.50	38.680
518.70	38.145
518.90	38.611
519.09	38.447
519.29	38.221
519.49	38.247
519.68	38.099
519.88	38.481
520.08	38.812
520.27	38.307
520.47	38.092
520.67	38.322
520.86	38.946
521.06	39.057
521.26	38.512
521.45	38.407
521.65	38.760
521.85	38.814
522.04	38.049
522.24	38.130
522.44	38.540
522.63	38.330
522.83	38.634
523.03	38.387
523.22	37.973
523.42	38.890
523.62	38.002
523.81	38.358
524.01	38.359
524.21	37.911
524.40	38.177
524.60	38.527
524.80	38.031
524.99	38.062
525.19	38.804
525.39	38.198
525.58	37.955
525.78	38.256
525.98	37.974
526.17	38.258
526.37	38.008
526.57	38.064
526.76	38.074
526.96	38.090
527.15	38.209
527.35	38.237
527.55	38.162
527.74	38.639
527.94	37.853
528.14	37.792
528.33	37.414
528.53	37.589
528.72	37.652
528.92	38.308
529.12	38.351
529.31	38.544
529.51	38.224
529.71	38.554
529.90	38.286
530.10	38.748
530.29	38.819
530.49	38.644
530.69	38.811
530.88	38.508
531.08	38.062
531.28	38.485
531.47	38.072
531.67	38.108
531.86	37.931
532.06	38.132
532.26	37.733
532.45	37.936
532.65	37.916
532.84	37.523
533.04	37.687
533.24	38.202
533.43	37.603
533.63	38.415
533.82	37.691
534.02	38.181
534.22	37.835
534.41	38.074
534.61	38.198
534.80	38.440
535.00	37.987
535.19	38.098
535.39	38.460
535.59	38.415
535.78	37.916
535.98	38.083
536.17	38.427
536.37	38.072
536.57	38.008
536.76	37.987
536.96	38.212
537.15	38.563
537.35	37.977
537.54	38.019
537.74	38.226
537.93	38.599
538.13	38.075
538.33	38.298
538.52	38.290
538.72	38.277
538.91	38.689
539.11	38.385
539.30	38.000
539.50	37.986
539.70	37.134
539.89	38.390
540.09	38.639
540.28	38.123
540.48	37.697
540.67	37.881
540.87	38.108
541.06	37.979
541.26	38.000
541.45	38.310
541.65	38.131
541.85	38.743
542.04	38.058
542.24	38.456
542.43	38.331
542.63	38.280
542.82	38.338
543.02	39.171
543.21	38.938
543.41	38.749
543.60	38.706
543.80	39.063
543.99	38.526
544.19	38.941
544.38	38.405
544.58	38.717
544.77	38.874
544.97	39.129
545.16	38.958
545.36	38.798
545.56	38.913
545.75	39.923
545.95	38.916
546.14	38.867
546.34	38.837
546.53	38.901
546.73	39.146
546.92	38.819
547.12	38.812
547.31	38.963
547.51	39.255
547.70	38.754
547.90	38.698
548.09	39.307
548.29	39.097
548.48	39.507
548.68	39.322
548.87	39.310
549.07	38.666
549.26	39.657
549.46	39.445
549.65	39.570
549.84	39.226
550.04	39.376
550.23	39.280
550.43	39.808
550.62	39.687
550.82	39.732
551.01	39.830
551.21	39.919
551.40	39.725
551.60	39.564
551.79	39.211
551.99	40.113
552.18	40.149
552.38	40.274
552.57	40.122
552.77	40.801
552.96	40.155
553.16	39.865
553.35	40.039
553.54	40.263
553.74	39.924
553.93	40.154
554.13	40.605
554.32	39.647
554.52	39.979
554.71	40.422
554.91	40.522
555.10	40.677
555.29	40.582
555.49	40.976
555.68	40.010
555.88	39.848
556.07	40.693
556.27	40.869
556.46	40.532
556.66	39.775
556.85	41.247
557.04	40.508
557.24	40.515
557.43	40.750
557.63	40.452
557.82	40.820
558.02	41.045
558.21	40.784
558.40	40.912
558.60	41.296
558.79	41.177
558.99	40.388
559.18	40.535
559.38	40.691
559.57	41.278
559.76	41.311
559.96	40.731
560.15	40.677
560.35	41.552
560.54	41.547
560.73	40.951
560.93	41.267
561.12	41.673
561.32	41.784
561.51	41.289
561.70	40.778
561.90	40.724
562.09	40.395
562.29	41.009
562.48	41.455
562.67	40.920
562.87	40.917
563.06	40.719
563.26	41.174
563.45	41.216
563.64	41.073
563.84	41.427
564.03	40.794
564.23	41.183
564.42	41.532
564.61	41.299
564.81	40.546
565.00	40.555
565.20	41.791
565.39	40.929
565.58	41.127
565.78	40.635
565.97	41.165
566.16	41.939
566.36	41.079
566.55	40.075
566.74	41.222
566.94	41.561
567.13	40.977
567.33	40.866
567.52	41.307
567.71	41.376
567.91	41.907
568.10	41.054
568.29	41.091
568.49	41.318
568.68	41.758
568.87	40.642
569.07	41.518
569.26	41.401
569.45	40.896
569.65	41.369
569.84	41.253
570.04	41.462
570.23	40.401
570.42	41.393
570.62	41.043
570.81	41.162
571.00	41.460
571.20	40.792
571.39	40.645
571.58	40.964
571.78	41.087
571.97	40.596
572.16	41.131
572.36	40.333
572.55	39.868
572.74	41.215
572.94	41.172
573.13	41.201
573.32	40.700
573.51	40.593
573.71	40.162
573.90	40.600
574.09	40.677
574.29	40.131
574.48	41.305
574.67	39.905
574.87	40.069
575.06	40.205
575.25	40.207
575.45	40.676
575.64	39.935
575.83	39.904
576.03	40.875
576.22	40.932
576.41	40.302
576.60	39.970
576.80	39.986
576.99	39.822
577.18	40.696
577.38	40.333
577.57	40.695
577.76	39.843
577.95	40.467
578.15	40.524
578.34	40.905
578.53	39.917
578.73	40.455
578.92	40.439
579.11	39.970
579.30	40.477
579.50	40.101
579.69	39.836
579.88	39.226
580.08	40.312
580.27	40.330
580.46	40.095
580.65	40.563
580.85	40.092
581.04	39.214
581.23	39.583
581.42	39.544
581.62	39.720
581.81	40.495
582.00	39.948
582.19	39.054
582.39	39.678
582.58	39.825
582.77	40.378
582.96	40.602
583.16	40.449
583.35	39.917
583.54	40.004
583.73	40.545
583.93	38.779
584.12	40.232
584.31	39.995
584.50	40.243
584.70	39.463
584.89	40.066
585.08	38.953
585.27	40.668
585.47	39.656
585.66	40.441
585.85	41.056
586.04	40.455
586.24	40.818
586.43	39.676
586.62	40.073
586.81	40.469
587.00	40.464
587.20	40.102
587.39	39.839
587.58	39.909
587.77	40.790
587.97	40.874
588.16	40.622
588.35	40.460
588.54	40.512
588.73	40.403
588.93	40.147
589.12	40.391
589.31	41.093
589.50	41.290
589.69	41.784
589.89	41.242
590.08	41.028
590.27	40.642
590.46	40.394
590.65	41.034
590.85	41.131
591.04	41.449
591.23	41.385
591.42	40.950
591.61	41.661
591.81	42.170
592.00	41.308
592.19	41.546
592.38	41.713
592.57	42.165
592.77	41.508
592.96	41.880
593.15	41.460
593.34	42.569
593.53	42.310
593.72	42.649
593.92	42.848
594.11	42.233
594.30	42.507
594.49	41.383
594.68	42.413
594.87	43.363
595.07	42.032
595.26	43.567
595.45	43.709
595.64	42.794
595.83	43.652
596.02	43.337
596.22	43.266
596.41	44.454
596.60	43.743
596.79	42.745
596.98	43.986
597.17	43.862
597.37	44.161
597.56	44.239
597.75	43.526
597.94	44.247
598.13	45.249
598.32	44.811
598.51	45.150
598.71	44.795
598.90	45.106
599.09	45.261
599.28	45.090
599.47	45.692
599.66	45.685
599.85	45.014
600.05	45.552
600.24	44.928
600.43	45.848
600.62	46.367
600.81	47.256
601.00	47.308
601.19	46.041
601.38	46.951
601.58	47.600
601.77	46.693
601.96	46.672
602.15	47.189
602.34	46.849
602.53	48.305
602.72	47.395
602.91	47.519
603.10	47.979
603.30	47.915
603.49	47.645
603.68	48.339
603.87	48.184
604.06	47.778
604.25	48.166
604.44	48.189
604.63	48.425
604.82	47.734
605.01	48.496
605.21	48.885
605.40	48.049
605.59	49.181
605.78	48.986
605.97	49.294
606.16	48.912
606.35	49.046
606.54	49.702
606.73	48.790
606.92	48.716
607.11	49.146
607.30	49.125
607.50	49.200
607.69	49.333
607.88	49.580
608.07	49.387
608.26	49.760
608.45	49.952
608.64	50.400
608.83	49.721
609.02	49.958
609.21	49.745
609.40	50.528
609.59	49.242
609.78	49.910
609.97	50.292
610.16	49.837
610.35	50.427
610.55	50.039
610.74	50.244
610.93	49.284
611.12	49.602
611.31	50.515
611.50	50.100
611.69	49.838
611.88	49.500
612.07	49.467
612.26	49.860
612.45	49.650
612.64	50.516
612.83	49.938
613.02	51.377
613.21	50.449
613.40	49.959
613.59	49.766
613.78	50.442
613.97	51.060
614.16	50.656
614.35	49.681
614.54	50.237
614.73	50.620
614.92	50.605
615.11	51.034
615.30	50.265
615.49	50.371
615.68	50.163
615.87	49.472
616.07	49.417
616.26	49.987
616.45	50.462
616.64	49.920
616.83	49.945
617.02	50.494
617.21	51.208
617.40	50.550
617.59	50.009
617.78	50.939
617.97	49.704
618.16	49.444
618.35	49.709
618.54	50.115
618.73	49.808
618.92	50.437
619.11	49.119
619.30	49.666
619.49	48.711
619.68	50.234
619.86	48.876
620.05	49.831
620.24	50.167
620.43	50.223
620.62	48.997
620.81	49.660
621.00	50.631
621.19	49.904
621.38	50.288
621.57	49.859
621.76	50.144
621.95	48.856
622.14	49.545
622.33	50.063
622.52	48.884
622.71	50.008
622.90	50.104
623.09	49.170
623.28	47.653
623.47	50.034
623.66	49.802
623.85	49.494
624.04	49.775
624.23	49.228
624.42	49.151
624.61	49.529
624.80	48.936
624.99	49.163
625.18	48.749
625.36	49.159
625.55	48.965
625.74	49.210
625.93	49.324
626.12	48.379
626.31	49.502
626.50	48.604
626.69	49.576
626.88	48.824
627.07	49.010
627.26	48.969
627.45	49.262
627.64	48.803
627.83	49.410
628.02	48.790
628.20	49.428
628.39	49.180
628.58	49.043
628.77	48.655
628.96	48.541
629.15	49.048
629.34	48.713
629.53	48.495
629.72	47.988
629.91	49.554
630.10	49.351
630.29	48.294
630.47	48.815
630.66	49.001
630.85	49.191
631.04	49.342
631.23	49.295
631.42	48.311
631.61	49.806
631.80	47.857
631.99	48.090
632.18	48.346
632.36	48.167
632.55	50.977
632.74	48.925
632.93	47.912
633.12	48.384
633.31	49.695
633.50	48.660
633.69	48.343
633.88	47.500
634.06	47.467
634.25	48.284
634.44	48.369
634.63	48.591
634.82	47.615
635.01	48.170
635.20	48.002
635.39	47.808
635.57	47.635
635.76	49.088
635.95	47.829
636.14	47.504
636.33	48.083
636.52	48.272
636.71	47.767
636.89	46.569
637.08	48.749
637.27	47.552
637.46	48.794
637.65	48.491
637.84	48.568
638.03	47.145
638.21	49.065
638.40	47.615
638.59	48.743
638.78	48.071
638.97	47.064
639.16	48.709
639.34	47.739
639.53	48.177
639.72	46.817
639.91	47.961
640.10	47.490
640.29	47.994
640.47	49.105
640.66	48.547
640.85	48.540
641.04	48.562
641.23	48.082
641.42	47.764
641.60	47.464
641.79	46.951
641.98	48.569
642.17	46.987
642.36	47.805
642.54	48.070
642.73	46.904
642.92	47.017
643.11	48.360
643.30	47.482
643.49	47.949
643.67	46.493
643.86	48.690
644.05	47.248
644.24	47.089
644.43	46.936
644.61	48.806
644.80	47.115
644.99	47.371
645.18	48.853
645.37	48.273
645.55	46.130
645.74	46.619
645.93	47.715
646.12	47.245
646.31	47.360
646.49	46.971
646.68	47.066
646.87	46.531
647.06	47.894
647.24	47.614
647.43	47.271
647.62	47.186
647.81	47.302
648.00	46.032
648.18	48.302
648.37	47.660
648.56	48.377
648.75	48.200
648.93	46.759
649.12	47.332
649.31	46.925
649.50	47.474
649.68	48.227
649.87	46.840
650.06	46.331
650.25	46.724
650.43	46.382
650.62	48.090
650.81	46.532
651.00	45.840
651.18	46.333
651.37	47.332
651.56	45.307
651.75	48.057
651.93	46.037
652.12	47.832
652.31	46.386
652.50	47.060
652.68	45.811
652.87	46.738
653.06	46.249
653.25	47.504
653.43	45.656
653.62	45.594
653.81	46.333
654.00	47.115
654.18	44.826
654.37	46.070
654.56	45.826
654.74	46.089
654.93	46.286
655.12	45.488
655.31	46.071
655.49	46.613
655.68	46.588
655.87	45.083
656.05	45.418
656.24	44.848
656.43	45.529
656.62	45.715
656.80	45.121
656.99	45.350
657.18	45.679
657.36	45.433
657.55	43.948
657.74	44.872
657.93	44.104
658.11	44.693
658.30	44.224
658.49	42.604
658.67	44.552
658.86	43.094
659.05	44.111
659.23	42.779
659.42	42.100
659.61	44.021
659.79	41.599
659.98	43.600
660.17	42.873
660.35	42.322
660.54	42.753
660.73	42.815
660.91	42.735
661.10	42.059
661.29	41.729
661.47	41.739
661.66	41.510
661.85	41.630
662.03	42.007
662.22	41.093
662.41	40.417
662.59	41.035
662.78	39.414
662.97	41.580
663.15	38.626
663.34	39.154
663.53	39.821
663.71	40.191
663.90	40.392
664.09	41.114
664.27	39.671
664.46	38.775
664.65	39.030
664.83	38.176
665.02	36.653
665.21	38.374
665.39	36.035
665.58	39.222
665.77	37.129
665.95	38.998
666.14	36.451
666.32	37.959
666.51	36.328
666.70	36.706
666.88	36.131
667.07	36.747
667.26	34.253
667.44	36.262
667.63	36.316
667.81	35.628
668.00	36.486
668.19	37.511
668.37	34.673
668.56	36.731
668.75	33.906
668.93	36.516
669.12	34.463
669.30	36.338
669.49	34.967
669.68	36.223
669.86	35.853
670.05	37.012
670.23	34.840
670.42	35.807
670.61	34.874
670.79	36.777
670.98	35.970
671.16	36.313
671.35	35.063
671.54	34.876
671.72	35.705
671.91	35.514
672.09	31.795
672.28	36.484
672.46	36.499
672.65	36.452
672.84	35.316
673.02	36.538
673.21	34.938
673.39	35.596
673.58	36.082
673.77	36.273
673.95	35.744
674.14	36.023
674.32	34.514
674.51	37.180
674.69	36.764
674.88	37.803
675.07	36.802
675.25	38.244
675.44	35.836
675.62	37.417
675.81	36.434
675.99	40.912
676.18	37.565
676.36	37.367
676.55	36.958
676.74	38.761
676.92	37.719
677.11	38.482
677.29	37.897
677.48	39.150
677.66	38.722
677.85	38.876
678.03	38.131
678.22	40.382
678.40	38.790
678.59	39.187
678.78	37.341
678.96	39.671
679.15	37.495
679.33	40.775
679.52	38.902
679.70	41.046
679.89	40.552
680.07	39.910
680.26	37.907
680.44	40.205
680.63	38.834
680.81	39.928
681.00	38.901
681.18	40.567
681.37	40.084
681.55	39.736
681.74	41.255
681.92	41.679
682.11	41.144
682.29	41.296
682.48	40.930
682.66	42.339
682.85	42.169
683.03	42.999
683.22	43.564
683.40	41.947
683.59	43.679
683.77	44.327
683.96	43.695
684.14	43.968
684.33	41.892
684.51	46.118
684.70	43.725
684.88	47.339
685.07	43.213
685.25	46.939
685.44	44.784
685.62	45.725
685.81	45.439
685.99	47.171
686.18	44.630
686.36	48.747
686.55	48.247
686.73	48.340
686.92	47.459
687.10	48.745
687.29	49.335
687.47	49.154
687.65	48.911
687.84	49.250
688.02	51.205
688.21	50.705
688.39	49.957
688.58	51.592
688.76	49.072
688.95	51.643
689.13	49.462
689.32	52.392
689.50	51.464
689.68	53.826
689.87	52.824
690.05	53.071
690.24	51.720
690.42	55.027
690.61	54.751
690.79	53.700
690.98	56.062
691.16	55.837
691.34	54.200
691.53	56.653
691.71	54.259
691.90	58.266
692.08	55.506
692.27	58.584
692.45	58.103
692.63	57.440
692.82	59.111
693.00	59.626
693.19	58.032
693.37	60.656
693.56	58.085
693.74	60.765
693.92	58.940
694.11	59.456
694.29	60.985
694.48	62.288
694.66	59.781
694.84	63.069
695.03	59.462
695.21	62.292
695.40	60.641
695.58	61.009
695.76	61.893
695.95	63.568
696.13	62.636
696.32	63.894
696.50	63.468
696.68	61.987
696.87	63.286
697.05	65.421
697.24	62.975
697.42	64.790
697.60	64.363
697.79	65.838
697.97	65.395
698.16	64.827
698.34	62.900
698.52	62.903
698.71	64.308
698.89	64.491
699.07	65.407
699.26	63.902
699.44	63.591
699.63	65.027
699.81	63.665
699.99	65.742
700.18	63.784
700.36	64.204
700.54	65.930
700.73	67.116
700.91	65.574
701.09	64.687
701.28	65.985
701.46	66.698
701.64	67.113
701.83	66.999
702.01	66.763
702.20	68.259
702.38	68.059
702.56	66.836
702.75	66.667
702.93	66.816
703.11	66.435
703.30	68.020
703.48	68.613
703.66	70.015
703.85	67.001
704.03	69.449
704.21	68.945
704.40	69.556
704.58	67.956
704.76	68.651
704.95	67.603
705.13	69.773
705.31	68.161
705.50	70.755
705.68	68.124
705.86	69.287
706.04	69.933
706.23	71.796
706.41	69.123
706.59	69.702
706.78	67.481
706.96	69.975
707.14	68.926
707.33	70.080
707.51	68.485
707.69	69.865
707.88	69.078
708.06	69.946
708.24	71.148
708.42	71.037
708.61	70.631
708.79	68.376
708.97	73.236
709.16	70.609
709.34	71.382
709.52	70.218
709.71	67.936
709.89	69.176
710.07	68.971
710.25	70.260
710.44	70.572
710.62	70.617
710.80	70.756
710.98	71.531
711.17	71.786
711.35	72.941
711.53	70.660
711.72	69.654
711.90	70.639
712.08	68.758
712.26	70.638
712.45	70.745
712.63	70.103
712.81	69.064
712.99	68.282
713.18	69.780
713.36	71.539
713.54	71.052
713.72	69.130
713.91	71.968
714.09	69.284
714.27	71.065
714.45	71.969
714.64	69.054
714.82	69.414
715.00	72.293
715.18	67.193
715.37	66.667
715.55	68.489
715.73	72.837
715.91	68.894
716.10	70.265
716.28	66.708
716.46	69.823
716.64	70.654
716.83	72.531
717.01	69.177
717.19	73.071
717.37	67.603
717.55	68.988
717.74	72.126
717.92	70.636
718.10	69.492
718.28	71.734
718.47	66.834
718.65	70.798
718.83	69.971
719.01	72.148
719.19	68.234
719.38	66.050
719.56	68.223
719.74	68.992
719.92	66.606
720.10	69.567
720.29	68.337
720.47	70.343
720.65	68.512
720.83	71.114
721.01	66.096
721.20	70.329
721.38	69.403
721.56	68.906
721.74	70.544
721.92	72.725
722.11	70.516
722.29	69.498
722.47	67.789
722.65	73.510
722.83	72.041
723.01	71.002
723.20	70.916
723.38	70.279
723.56	66.016
723.74	72.904
723.92	68.708
724.10	71.175
724.29	69.982
724.47	69.550
724.65	69.694
724.83	71.028
725.01	67.949
725.19	70.867
725.38	68.646
725.56	71.117
725.74	68.872
725.92	70.180
726.10	67.862
726.28	69.691
726.46	72.000
726.65	72.151
726.83	70.609
727.01	71.248
727.19	66.757
727.37	68.562
727.55	70.605
727.73	70.167
727.92	69.506
728.10	68.291
728.28	69.249
728.46	68.239
728.64	69.271
728.82	70.804
729.00	69.807
729.19	69.701
729.37	70.038
729.55	71.916
729.73	67.627
729.91	68.623
730.09	66.598
730.27	70.435
730.45	66.245
730.63	70.751
730.82	66.979
731.00	70.642
731.18	69.206
731.36	71.561
731.54	71.580
731.72	69.613
731.90	68.030
732.08	69.622
732.26	68.701
732.45	70.938
732.63	71.221
732.81	70.803
732.99	68.925
733.17	72.376
733.35	67.299
733.53	72.954
733.71	69.816
733.89	70.361
734.07	69.274
734.25	70.081
734.44	68.288
734.62	69.498
734.80	69.513
734.98	71.105
735.16	69.480
735.34	68.488
735.52	68.664
735.70	69.539
735.88	68.606
736.06	72.158
736.24	72.793
736.42	73.101
736.60	70.033
736.78	72.046
736.97	73.635
737.15	71.855
737.33	70.163
737.51	70.388
737.69	67.142
737.87	72.873
738.05	67.034
738.23	72.352
738.41	72.188
738.59	72.479
738.77	70.776
738.95	73.759
739.13	69.360
739.31	69.920
739.49	69.986
739.67	70.824
739.85	67.746
740.03	71.516
740.21	71.001
740.39	73.289
740.57	68.907
740.75	71.272
740.93	69.092
741.11	72.300
741.30	69.878
741.48	75.340
741.66	70.617
741.84	72.560
742.02	67.674
742.20	71.628
742.38	67.010
742.56	72.733
742.74	69.826
742.92	70.127
743.10	68.665
743.28	72.581
743.46	70.307
743.64	72.319
743.82	68.153
744.00	70.507
744.18	69.863
744.36	68.795
744.54	66.386
744.72	68.469
744.90	68.441
745.08	68.777
745.26	67.025
745.44	72.371
745.62	66.157
745.80	68.919
745.98	70.442
746.16	70.459
746.34	68.967
746.52	70.499
746.70	66.547
746.87	72.984
747.05	69.664
747.23	71.096
747.41	70.037
747.59	69.359
747.77	66.811
747.95	69.565
748.13	70.695
748.31	71.631
748.49	65.222
748.67	74.394
748.85	67.099
749.03	73.101
749.21	64.462
749.39	71.105
749.57	67.008
749.75	67.207
749.93	68.479
750.11	69.207
750.29	64.810
750.47	74.954
750.65	68.837
750.83	72.308
751.01	65.996
751.18	72.192
751.36	66.808
751.54	73.494
751.72	71.918
751.90	69.713
752.08	65.338
752.26	70.647
752.44	68.311
752.62	70.804
752.80	65.868
752.98	69.885
753.16	67.132
753.34	70.424
753.52	64.854
753.69	72.295
753.87	68.845
754.05	67.583
754.23	65.311
754.41	69.345
754.59	65.974
754.77	73.105
754.95	67.690
755.13	68.193
755.31	68.472
755.49	67.625
755.66	66.231
755.84	69.175
756.02	63.962
756.20	72.045
756.38	65.089
756.56	65.675
756.74	67.576
756.92	70.032
757.10	68.738
757.28	68.288
757.45	70.628
757.63	70.349
757.81	63.986
757.99	70.730
758.17	68.248
758.35	72.569
758.53	69.731
758.71	69.635
758.88	66.029
759.06	72.275
759.24	63.801
759.42	70.031
759.60	64.031
759.78	66.209
759.96	61.474
760.13	66.724
760.31	59.640
760.49	64.335
760.67	59.595
760.85	61.490
761.03	58.092
761.21	60.658
761.38	58.145
761.56	64.094
761.74	55.199
761.92	64.200
762.10	56.891
762.28	63.537
762.46	55.715
762.63	60.815
762.81	63.776
762.99	62.347
763.17	60.938
763.35	63.882
763.53	61.334
763.70	68.561
763.88	64.529
764.06	65.696
764.24	64.897
764.42	67.611
764.60	66.688
764.77	65.791
764.95	66.737
765.13	66.095
765.31	64.587
765.49	63.458
765.66	61.421
765.84	66.641
766.02	62.562
766.20	66.460
766.38	64.016
766.56	66.380
766.73	61.124
766.91	68.554
767.09	61.829
767.27	64.803
767.45	63.710
767.62	66.632
767.80	64.668
767.98	64.588
768.16	59.456
768.33	67.822
768.51	62.583
768.69	64.807
768.87	64.254
769.05	65.063
769.22	66.310
769.40	65.517
769.58	67.679
769.76	70.648
769.94	64.889
770.11	69.103
770.29	64.676
770.47	62.619
770.65	60.952
770.82	71.467
771.00	63.579
771.18	67.431
771.36	60.443
771.53	65.138
771.71	61.729
771.89	68.248
772.07	62.034
772.25	68.127
772.42	60.176
772.60	65.349
772.78	60.131
772.96	63.952
773.13	63.812
773.31	66.617
773.49	57.698
773.67	61.858
773.84	60.566
774.02	63.219
774.20	57.535
774.37	64.446
774.55	54.203
774.73	62.729
774.91	59.119
775.08	66.050
775.26	67.129
775.44	69.084
775.62	60.820
775.79	59.213
775.97	61.590
776.15	58.652
776.32	54.742
776.50	64.063
776.68	56.722
776.86	63.956
777.03	57.236
777.21	63.248
777.39	62.047
777.56	62.804
777.74	60.161
777.92	63.351
778.10	56.688
778.27	65.287
778.45	62.446
778.63	62.233
778.80	61.733
778.98	61.272
779.16	63.101
779.34	63.433
779.51	61.235
779.69	62.527
779.87	54.926
780.04	61.114
780.22	55.403
780.40	61.312
780.57	59.127
780.75	62.376
780.93	56.059
781.10	63.248
781.28	65.196
781.46	59.662
781.63	62.537
781.81	62.261
781.99	58.595
782.16	62.186
782.34	55.932
782.52	66.001
782.69	61.510
782.87	64.281
783.05	53.105
783.22	62.321
783.40	57.872
783.58	61.562
783.75	54.236
783.93	62.812
784.11	56.039
784.28	68.335
784.46	55.191
784.64	60.589
784.81	55.195
784.99	68.316
785.17	63.148
785.34	62.477
785.52	51.785
785.69	60.190
785.87	50.914
786.05	54.051
786.22	51.149
786.40	71.781
786.58	58.600
786.75	63.606
786.93	59.242
787.11	57.566
787.28	52.742
787.46	55.023
787.63	52.050
787.81	58.834
787.99	56.320
788.16	56.499
788.34	53.791
788.51	58.558
788.69	54.139
788.87	54.511
789.04	56.112
789.22	64.286
789.39	50.988
789.57	58.031
789.75	55.925
789.92	62.884
790.10	54.749
790.27	63.375
790.45	50.767
790.63	59.349
790.80	51.345
790.98	59.966
791.15	55.595
791.33	59.351
791.51	56.732
791.68	61.515
791.86	55.175
792.03	56.671
792.21	41.558
792.39	56.163
792.56	54.308
792.74	56.798
792.91	55.326
793.09	52.381
793.26	43.335
793.44	60.669
793.62	51.409
793.79	57.733
793.97	52.841
794.14	55.271
794.32	51.318
794.49	58.525
794.67	51.595
794.84	55.413
795.02	49.355
795.20	58.494
795.37	51.380
795.55	55.787
795.72	55.163
795.90	58.868
796.07	52.182
796.25	58.552
796.42	53.657
796.60	51.096
796.77	52.956
796.95	56.258
797.13	51.168
797.30	65.233
797.48	56.636
797.65	63.556
797.83	51.677
798.00	60.357
798.18	46.228
798.35	54.768
798.53	52.458
798.70	62.785
798.88	53.717
799.05	53.569
799.23	47.521
799.40	52.235
799.58	47.671
799.75	51.292
799.93	53.359
800.10	54.101
800.28	46.294
800.45	50.888
800.63	46.459
800.80	55.398
800.98	52.236
801.15	53.138
801.33	52.526
801.50	52.165
801.68	52.950
801.85	47.639
802.03	49.965
802.20	52.248
802.38	46.662
802.55	43.887
802.73	48.200
802.90	53.532
803.08	45.772
803.25	60.841
803.43	46.159
803.60	45.647
803.78	51.965
803.95	52.814
804.13	51.177
804.30	48.056
804.48	43.048
804.65	50.549
804.83	45.383
805.00	51.148
805.17	54.269
805.35	55.499
805.52	51.201
805.70	48.015
805.87	53.840
806.05	51.059
806.22	48.480
806.40	45.907
806.57	42.995
806.75	51.267
806.92	58.252
807.09	51.349
807.27	51.984
807.44	56.562
807.62	52.149
807.79	52.670
807.97	45.560
808.14	57.418
808.31	46.554
808.49	52.243
808.66	41.372
808.84	49.513
809.01	51.378
809.19	51.670
809.36	56.326
809.53	48.607
809.71	46.295
809.88	50.377
810.06	54.344
810.23	47.577
810.41	50.539
810.58	53.328
810.75	37.280
810.93	48.170
811.10	47.718
811.28	48.848
811.45	47.815
811.62	45.681
811.80	36.468
811.97	50.738
812.15	52.196
812.32	44.569
812.49	50.045
812.67	50.000
812.84	48.957
813.02	52.513
813.19	44.329
813.36	49.219
813.54	37.411
813.71	45.501
813.89	44.660
814.06	43.504
814.23	40.860
814.41	38.440
814.58	43.012
814.75	40.937
814.93	35.056
815.10	40.282
815.28	39.279
815.45	40.726
815.62	35.521
815.80	46.951
815.97	40.297
816.14	50.306
816.32	43.641
816.49	44.849
816.66	39.498
816.84	40.110
817.01	36.613
817.18	41.352
817.36	36.505
817.53	47.885
817.71	35.320
817.88	42.543
818.05	33.393
818.23	37.627
818.40	34.274
818.57	41.470
818.75	36.590
818.92	40.401
819.09	46.986
819.27	50.040
819.44	47.553
819.61	35.958
819.79	40.960
819.96	50.000
820.13	46.406
820.31	47.264
820.48	51.731
820.65	48.287
820.82	48.148
821.00	55.349
821.17	40.117
821.34	48.536
821.52	54.466
821.69	54.330
821.86	56.968
822.04	57.092
822.21	62.855
822.38	63.819
822.56	64.984
822.73	67.221
822.90	64.058
823.07	64.848
823.25	65.099
823.42	64.506
823.59	65.923
823.77	66.220
823.94	65.486
824.11	64.897
824.29	62.668
824.46	63.571
824.63	63.136
824.80	63.956
824.98	60.141
825.15	61.082
825.32	58.731
825.49	62.273
825.67	57.413
825.84	61.796
826.01	52.784
826.19	59.599
826.36	53.708
826.53	60.398
826.70	53.592
826.88	56.460
827.05	54.032
827.22	59.933
827.39	59.848
827.57	55.966
827.74	56.895
827.91	61.020
828.08	55.473
828.26	60.162
828.43	55.215
828.60	63.896
828.77	59.747
828.95	59.443
829.12	52.909
829.29	50.931
829.46	52.061
829.64	53.550
829.81	47.480
829.98	53.268
830.15	43.291
830.32	50.771
830.50	39.690
830.67	49.431
830.84	38.316
831.01	39.834
831.19	39.806
831.36	43.813
831.53	35.486
831.70	46.396
831.87	44.205
832.05	44.619
832.22	46.655
832.39	37.964
832.56	31.906
832.74	33.751
832.91	31.657
833.08	52.266
833.25	37.793
833.42	39.485
833.60	38.155
833.77	38.122
833.94	42.289
834.11	48.207
834.28	46.157
834.45	55.148
834.63	51.711
834.80	54.515
834.97	49.000
835.14	50.913
835.31	52.589
835.49	50.990
835.66	47.397
835.83	47.853
836.00	45.278
836.17	47.351
836.34	46.575
836.52	46.220
836.69	47.743
836.86	42.634
837.03	42.253
837.20	42.595
837.37	40.942
837.55	31.715
837.72	38.481
837.89	45.275
838.06	38.863
838.23	44.645
838.40	33.832
838.58	33.537
838.75	35.929
838.92	31.412
839.09	49.820
839.26	45.255
839.43	40.024
839.60	40.967
839.78	44.037
839.95	40.640
840.12	39.952
840.29	43.029
840.46	42.327
840.63	46.879
840.80	38.298
840.98	43.302
841.15	41.146
841.32	37.562
841.49	31.382
841.66	42.237
841.83	35.558
842.00	32.337
842.17	52.860
842.34	43.057
842.52	40.875
842.69	36.614
842.86	43.717
843.03	57.687
843.20	43.225
843.37	36.220
843.54	36.005
843.71	41.304
843.88	37.803
844.06	52.025
844.23	42.679
844.40	46.024
844.57	40.667
844.74	46.125
844.91	39.831
845.08	38.095
845.25	30.934
845.42	33.078
845.59	28.542
845.76	38.104
845.94	54.106
846.11	44.255
846.28	40.217
846.45	47.887
846.62	46.369
846.79	49.012
846.96	32.996
847.13	33.908
847.30	50.214
847.47	43.629
847.64	37.131
847.81	60.131
847.98	46.653
848.15	31.332
848.32	59.725
848.50	33.726
848.67	42.516
848.84	49.392
849.01	48.668
849.18	48.864
849.35	44.068
849.52	51.731
849.69	58.025
849.86	69.249
850.03	41.237
850.20	64.317
850.37	30.345
850.54	60.976
850.71	52.260
850.88	35.988
851.05	45.215
851.22	49.505
851.39	42.333
851.56	43.564
851.73	57.955
851.90	56.436
852.07	49.223
852.24	45.205
852.41	30.556
852.58	57.853
852.75	42.141
852.92	30.025
853.09	50.923
853.26	61.190
853.43	43.796
853.60	61.337
853.77	53.071
853.94	55.072
854.11	39.669
854.28	58.568
854.45	37.768
854.62	41.331
854.79	46.961
854.96	32.488
855.13	51.319
855.30	42.922
855.47	38.415
855.64	40.810
855.81	45.676
855.98	56.667
856.15	55.990
856.32	42.424
856.49	40.513
856.66	36.859
856.83	39.173
857.00	43.443
857.17	59.677
857.34	40.426
857.51	51.344
857.68	47.059
857.85	42.120
858.02	54.608
858.19	53.205
858.36	54.483
858.53	43.413
858.70	30.052
858.87	67.901
859.04	18.056
859.21	42.939
859.38	55.635
859.55	50.515
859.72	43.370
859.89	54.749
860.05	33.170
860.22	40.064
860.39	51.524
860.56	53.495
860.73	53.412
860.90	44.828
861.07	58.592
861.24	41.527
861.41	65.416
861.58	34.314
861.75	45.912
861.92	63.285
862.09	50.777
862.26	52.632
862.43	55.069
862.59	25.806
862.76	29.814
862.93	63.243
863.10	34.203
863.27	33.559
863.44	37.915
863.61	52.454
863.78	61.937
863.95	50.000
864.12	53.333
864.29	47.658
864.45	35.937
864.62	35.544
864.79	47.301
864.96	43.341
865.13	42.582
865.30	52.099
865.47	41.416
865.64	42.368
865.81	11.260
865.97	38.170
866.14	35.789
866.31	60.156
866.48	59.506
866.65	32.808
866.82	76.815
866.99	47.761
867.16	29.363
867.33	72.414
867.49	59.184
867.66	51.948
867.83	40.701
868.00	43.704
868.17	34.343
868.34	40.293
868.51	38.166
868.67	40.762
868.84	56.614
869.01	41.613
869.18	32.890
869.35	40.323
869.52	19.777
869.69	69.914
869.85	43.264
870.02	38.926
870.19	51.438
870.36	54.769
870.53	44.131
870.70	35.813
870.86	37.879
871.03	51.902
871.20	47.814
871.37	42.722
871.54	47.701
871.71	45.209
871.87	33.604
872.04	56.250
872.21	33.046
872.38	42.262
872.55	38.592
872.72	37.057
872.88	64.268
873.05	37.336
873.22	51.915
873.39	48.663
873.56	71.594
873.72	42.932
873.89	51.299
874.06	38.123
874.23	43.346
874.40	53.988
874.56	66.168
874.73	35.264
874.90	46.803
875.07	28.620
875.24	58.734
875.40	35.845
875.57	60.955
875.74	30.423
875.91	50.608
876.08	34.030
876.24	50.678
876.41	62.323
876.58	58.631
876.75	35.493
876.92	58.170
877.08	43.860
877.25	31.472
877.42	46.705
877.59	28.190
877.75	47.688
877.92	48.404
878.09	34.987
878.26	37.859
878.42	36.765
878.59	58.621
878.76	20.948
878.93	49.153
879.09	39.740
879.26	21.739
879.43	31.081
879.60	29.873
879.76	47.117
879.93	40.075
880.10	46.951
880.27	42.447
880.43	41.444
880.60	31.988
880.77	35.535
880.94	34.904
881.10	22.585
881.27	28.503
881.44	24.544
881.61	46.253
881.77	42.216
881.94	44.609
882.11	36.734
882.28	40.498
882.44	43.379
882.61	45.618
882.78	42.387
882.94	58.027
883.11	48.517
883.28	49.337
883.45	49.960
883.61	43.366
883.78	45.734
883.95	47.595
884.11	50.581
884.28	44.783
>>>>>End Processed Spectral Data<<<<<
