SpectraSuite Data File
++++++++++++++++++++++++++++++++++++
Date: Wed Sep 18 04:23:29 EST 2019
User: sgrac
Dark Spectrum Present: Yes
Reference Spectrum Present: Yes
Number of Sampled Component Spectra: 1
Spectrometers: USB4E01596
Integration Time (usec): 100000 (USB4E01596)
Spectra Averaged: 3 (USB4E01596)
Boxcar Smoothing: 0 (USB4E01596)
Correct for Electrical Dark: No (USB4E01596)
Strobe/Lamp Enabled: Yes (USB4E01596)
Correct for Detector Non-linearity: No (USB4E01596)
Correct for Stray Light: No (USB4E01596)
Number of Pixels in Processed Spectrum: 3648
>>>>>Begin Processed Spectral Data<<<<<
178.44	-230.645
178.66	-230.645
178.87	-230.645
179.09	-238.000
179.30	245.652
179.52	689.474
179.74	-1044.444
179.95	-1440.000
180.17	553.488
180.38	-946.667
180.60	480.000
180.82	1906.250
181.03	430.233
181.25	-2200.000
181.46	-590.000
181.68	-525.581
181.89	640.816
182.11	687.500
182.33	715.686
182.54	508.772
182.76	1230.435
182.97	2050.000
183.19	357.609
183.40	253.409
183.62	488.462
183.84	422.581
184.05	790.909
184.27	544.262
184.48	2750.000
184.70	602.778
184.91	573.913
185.13	-590.625
185.34	-330.000
185.56	-557.576
185.78	1238.889
185.99	413.115
186.21	600.000
186.42	-2230.000
186.64	330.303
186.85	2218.750
187.07	561.905
187.28	757.143
187.50	-1523.529
187.72	464.000
187.93	403.614
188.15	467.647
188.36	-1617.647
188.58	298.701
188.79	-10500.000
189.01	207.483
189.22	344.156
189.44	975.000
189.65	330.337
189.87	435.526
190.09	373.404
190.30	1093.333
190.52	1700.000
190.73	367.470
190.95	1300.000
191.16	377.612
191.38	-29400.000
191.59	528.261
191.81	312.857
192.02	-687.179
192.24	464.516
192.45	330.000
192.67	400.000
192.88	418.750
193.10	670.455
193.31	446.429
193.53	462.903
193.74	793.939
193.96	522.034
194.18	-1013.043
194.39	556.863
194.61	955.172
194.82	1088.462
195.04	506.667
195.25	439.344
195.47	-6325.000
195.68	339.437
195.90	351.648
196.11	656.250
196.33	2041.176
196.54	751.163
196.76	-928.000
196.97	241.000
197.19	1235.000
197.40	236.842
197.62	-727.273
197.83	619.231
198.05	262.416
198.26	-864.000
198.48	555.556
198.69	230.275
198.91	442.029
199.12	-1658.333
199.34	1236.000
199.55	27600.000
199.77	352.632
199.98	4200.000
200.20	667.647
200.41	398.592
200.63	485.185
200.84	1376.190
201.06	732.258
201.27	339.506
201.49	520.312
201.70	521.311
201.91	761.364
202.13	1605.000
202.34	-677.143
202.56	486.667
202.77	-170.930
202.99	502.439
203.20	634.043
203.42	468.571
203.63	296.330
203.85	-796.552
204.06	959.091
204.28	1340.000
204.49	611.628
204.71	266.387
204.92	884.615
205.14	1342.105
205.35	7100.000
205.56	343.662
205.78	437.037
205.99	248.855
206.21	310.101
206.42	597.826
206.64	617.647
206.85	314.444
207.07	668.571
207.28	320.455
207.50	1230.435
207.71	609.302
207.93	639.583
208.14	602.326
208.35	318.644
208.57	552.000
208.78	330.851
209.00	332.258
209.21	232.394
209.43	475.000
209.64	1146.154
209.86	1845.455
210.07	451.899
210.28	320.482
210.50	408.696
210.71	445.455
210.93	463.636
211.14	720.000
211.36	995.238
211.57	244.167
211.78	892.308
212.00	705.405
212.21	2722.222
212.43	2146.154
212.64	900.000
212.86	301.818
213.07	588.462
213.29	361.224
213.50	383.333
213.71	321.250
213.93	333.708
214.14	737.500
214.36	524.390
214.57	373.810
214.78	8025.000
215.00	262.195
215.21	502.222
215.43	-5120.000
215.64	367.143
215.86	339.706
216.07	417.808
216.28	454.000
216.50	518.000
216.71	1360.000
216.93	-25700.000
217.14	1463.158
217.35	-359.322
217.57	376.136
217.78	810.345
218.00	301.905
218.21	317.647
218.42	-5250.000
218.64	1071.429
218.85	502.941
219.07	660.465
219.28	525.000
219.49	-9200.000
219.71	443.284
219.92	594.737
220.14	-19400.000
220.35	309.589
220.56	515.217
220.78	278.049
220.99	-384.444
221.21	378.313
221.42	209.868
221.63	1846.154
221.85	-816.667
222.06	258.586
222.28	-732.143
222.49	547.368
222.70	293.103
222.92	650.000
223.13	201.370
223.34	2150.000
223.56	264.957
223.77	323.457
223.99	291.919
224.20	305.952
224.41	194.545
224.63	209.659
224.84	242.742
225.05	272.951
225.27	605.455
225.48	331.707
225.69	404.687
225.91	363.077
226.12	424.000
226.34	333.333
226.55	276.415
226.76	220.930
226.98	330.769
227.19	139.286
227.40	167.606
227.62	126.154
227.83	117.143
228.04	151.351
228.26	149.324
228.47	130.288
228.69	70.492
228.90	61.035
229.11	63.202
229.33	66.742
229.54	60.039
229.75	51.706
229.97	50.254
230.18	49.324
230.39	38.727
230.61	46.769
230.82	72.286
231.03	36.886
231.25	61.337
231.46	51.073
231.67	44.288
231.89	50.937
232.10	63.432
232.31	62.264
232.53	78.444
232.74	79.719
232.95	81.782
233.17	60.265
233.38	65.485
233.59	69.978
233.81	61.834
234.02	64.841
234.23	70.573
234.45	82.402
234.66	58.663
234.87	84.944
235.09	76.794
235.30	59.799
235.51	62.155
235.73	59.620
235.94	65.966
236.15	50.746
236.36	63.146
236.58	71.970
236.79	59.328
237.00	51.955
237.22	53.223
237.43	66.667
237.64	50.202
237.86	53.252
238.07	67.929
238.28	66.738
238.50	66.462
238.71	54.615
238.92	57.403
239.13	64.103
239.35	59.184
239.56	57.962
239.77	78.320
239.99	51.899
240.20	87.708
240.41	53.360
240.63	58.456
240.84	63.036
241.05	43.407
241.26	52.833
241.48	52.874
241.69	40.860
241.90	30.941
242.12	38.861
242.33	42.363
242.54	36.308
242.75	29.876
242.97	38.885
243.18	23.925
243.39	24.089
243.61	26.841
243.82	38.181
244.03	31.140
244.24	30.306
244.46	24.026
244.67	28.852
244.88	29.097
245.09	30.615
245.31	23.168
245.52	30.744
245.73	34.738
245.95	53.511
246.16	38.932
246.37	26.308
246.58	35.802
246.80	33.467
247.01	29.199
247.22	27.268
247.43	27.578
247.65	30.897
247.86	27.276
248.07	25.513
248.28	27.252
248.50	29.615
248.71	26.209
248.92	27.616
249.13	26.970
249.35	29.559
249.56	25.147
249.77	25.826
249.98	24.752
250.20	32.167
250.41	31.078
250.62	33.301
250.83	30.648
251.05	30.079
251.26	27.185
251.47	30.039
251.68	25.714
251.90	26.273
252.11	31.151
252.32	34.618
252.53	34.820
252.75	19.137
252.96	29.196
253.17	31.835
253.38	24.111
253.59	23.536
253.81	23.502
254.02	22.383
254.23	30.685
254.44	26.990
254.66	25.147
254.87	28.265
255.08	25.843
255.29	38.066
255.50	27.419
255.72	31.545
255.93	33.493
256.14	35.770
256.35	28.880
256.57	37.973
256.78	33.593
256.99	29.766
257.20	36.232
257.41	30.146
257.63	27.265
257.84	32.094
258.05	30.275
258.26	19.334
258.47	32.123
258.69	31.502
258.90	18.767
259.11	28.686
259.32	25.408
259.53	20.411
259.75	18.304
259.96	20.812
260.17	21.365
260.38	19.727
260.59	21.547
260.81	23.705
261.02	24.086
261.23	24.121
261.44	25.155
261.65	25.469
261.87	23.953
262.08	25.745
262.29	27.028
262.50	22.556
262.71	20.962
262.92	23.753
263.14	19.755
263.35	20.422
263.56	18.333
263.77	22.599
263.98	22.650
264.20	32.992
264.41	22.943
264.62	19.252
264.83	15.742
265.04	29.492
265.25	23.228
265.47	30.838
265.68	26.972
265.89	23.375
266.10	20.679
266.31	29.822
266.52	18.503
266.74	24.210
266.95	22.548
267.16	20.398
267.37	22.662
267.58	17.864
267.79	20.018
268.01	21.917
268.22	17.991
268.43	23.675
268.64	24.260
268.85	21.308
269.06	20.576
269.27	23.132
269.49	18.615
269.70	22.675
269.91	21.710
270.12	24.604
270.33	24.413
270.54	21.180
270.75	18.182
270.97	22.188
271.18	17.187
271.39	18.797
271.60	21.709
271.81	17.011
272.02	23.281
272.23	21.612
272.45	18.666
272.66	18.343
272.87	18.657
273.08	19.253
273.29	21.495
273.50	19.605
273.71	17.321
273.92	18.855
274.14	18.359
274.35	23.578
274.56	21.064
274.77	23.486
274.98	20.605
275.19	20.470
275.40	22.608
275.61	18.650
275.83	20.357
276.04	20.819
276.25	19.677
276.46	20.966
276.67	24.506
276.88	28.212
277.09	19.702
277.30	22.816
277.51	20.607
277.73	20.138
277.94	18.182
278.15	21.683
278.36	24.942
278.57	16.551
278.78	20.348
278.99	19.356
279.20	21.897
279.41	24.745
279.62	16.931
279.84	18.374
280.05	16.865
280.26	17.150
280.47	20.469
280.68	18.789
280.89	16.006
281.10	20.331
281.31	19.970
281.52	22.506
281.73	15.323
281.94	15.586
282.16	16.650
282.37	18.720
282.58	16.255
282.79	21.962
283.00	23.119
283.21	19.563
283.42	16.863
283.63	19.604
283.84	19.027
284.05	18.160
284.26	16.682
284.47	20.503
284.68	17.220
284.89	18.278
285.11	18.166
285.32	20.453
285.53	18.974
285.74	21.407
285.95	18.904
286.16	18.212
286.37	15.954
286.58	17.063
286.79	15.608
287.00	16.401
287.21	14.914
287.42	18.417
287.63	16.851
287.84	17.729
288.05	16.711
288.26	16.543
288.48	19.389
288.69	16.043
288.90	17.456
289.11	17.956
289.32	17.645
289.53	16.667
289.74	13.322
289.95	14.515
290.16	16.372
290.37	14.274
290.58	12.322
290.79	13.425
291.00	15.873
291.21	15.634
291.42	15.152
291.63	15.590
291.84	15.722
292.05	13.337
292.26	14.778
292.47	15.388
292.68	11.289
292.89	15.664
293.10	17.215
293.31	17.762
293.52	10.986
293.73	12.898
293.94	14.667
294.15	10.662
294.36	14.717
294.57	19.563
294.79	15.259
295.00	11.627
295.21	17.889
295.42	16.388
295.63	16.030
295.84	11.624
296.05	12.983
296.26	13.499
296.47	14.801
296.68	13.128
296.89	14.299
297.10	17.225
297.31	15.017
297.52	11.851
297.73	14.103
297.94	13.581
298.15	12.974
298.36	13.651
298.57	12.063
298.78	15.691
298.99	14.763
299.20	13.941
299.41	15.056
299.62	12.883
299.83	12.042
300.04	14.826
300.25	15.498
300.46	16.274
300.67	14.664
300.88	13.858
301.09	9.509
301.30	15.671
301.50	10.656
301.71	16.190
301.92	16.215
302.13	11.169
302.34	12.804
302.55	12.918
302.76	11.288
302.97	13.630
303.18	12.466
303.39	13.951
303.60	12.114
303.81	16.296
304.02	11.787
304.23	13.664
304.44	9.903
304.65	10.089
304.86	16.684
305.07	10.847
305.28	11.945
305.49	15.707
305.70	15.149
305.91	11.604
306.12	11.862
306.33	11.929
306.54	15.261
306.75	13.276
306.96	18.288
307.17	10.764
307.38	11.467
307.58	12.685
307.79	12.536
308.00	14.647
308.21	12.045
308.42	11.334
308.63	12.861
308.84	14.501
309.05	13.915
309.26	12.446
309.47	12.627
309.68	13.229
309.89	14.126
310.10	12.797
310.31	11.655
310.52	12.025
310.73	17.140
310.94	10.071
311.14	11.169
311.35	13.781
311.56	11.789
311.77	10.850
311.98	10.255
312.19	13.231
312.40	10.002
312.61	11.304
312.82	13.045
313.03	13.909
313.24	12.119
313.45	13.845
313.66	12.880
313.86	14.305
314.07	11.466
314.28	12.435
314.49	9.324
314.70	12.670
314.91	14.885
315.12	10.822
315.33	16.224
315.54	11.056
315.75	10.255
315.96	9.651
316.16	11.856
316.37	13.588
316.58	13.703
316.79	12.661
317.00	15.116
317.21	12.880
317.42	14.972
317.63	13.048
317.84	11.872
318.05	12.334
318.25	13.158
318.46	11.311
318.67	11.076
318.88	14.401
319.09	14.760
319.30	12.105
319.51	11.911
319.72	9.620
319.93	9.567
320.13	13.142
320.34	14.164
320.55	9.385
320.76	14.083
320.97	14.158
321.18	15.038
321.39	12.704
321.60	9.688
321.80	16.499
322.01	13.870
322.22	15.087
322.43	12.835
322.64	12.641
322.85	11.050
323.06	13.616
323.27	13.730
323.47	13.722
323.68	14.012
323.89	11.905
324.10	11.943
324.31	11.666
324.52	12.857
324.73	13.004
324.93	11.180
325.14	12.171
325.35	13.214
325.56	12.778
325.77	15.137
325.98	10.631
326.19	12.693
326.39	8.135
326.60	10.063
326.81	10.021
327.02	8.578
327.23	12.459
327.44	16.427
327.64	8.367
327.85	8.983
328.06	12.197
328.27	15.907
328.48	14.550
328.69	10.480
328.90	11.822
329.10	10.959
329.31	11.176
329.52	12.541
329.73	11.818
329.94	12.032
330.15	15.155
330.35	13.747
330.56	12.791
330.77	12.700
330.98	13.074
331.19	12.878
331.39	13.339
331.60	10.656
331.81	10.594
332.02	13.041
332.23	12.106
332.44	11.942
332.64	13.114
332.85	11.578
333.06	13.781
333.27	9.166
333.48	13.873
333.68	10.115
333.89	13.415
334.10	12.485
334.31	12.676
334.52	12.074
334.72	11.908
334.93	11.508
335.14	8.415
335.35	11.958
335.56	13.707
335.76	9.876
335.97	12.718
336.18	11.963
336.39	15.923
336.60	11.415
336.80	11.335
337.01	9.294
337.22	10.433
337.43	13.593
337.64	14.640
337.84	11.677
338.05	11.330
338.26	14.232
338.47	12.695
338.68	9.280
338.88	14.105
339.09	12.389
339.30	13.012
339.51	9.858
339.71	12.800
339.92	9.656
340.13	12.096
340.34	11.270
340.55	11.116
340.75	10.398
340.96	11.639
341.17	13.628
341.38	11.672
341.58	11.637
341.79	11.568
342.00	8.898
342.21	11.000
342.41	11.104
342.62	10.901
342.83	10.870
343.04	8.775
343.24	12.644
343.45	14.261
343.66	11.007
343.87	11.770
344.07	10.276
344.28	11.828
344.49	13.025
344.70	14.198
344.90	11.048
345.11	8.759
345.32	12.709
345.53	11.151
345.73	11.861
345.94	13.191
346.15	13.510
346.36	11.777
346.56	12.491
346.77	13.157
346.98	12.956
347.19	12.023
347.39	13.061
347.60	11.049
347.81	14.925
348.02	14.313
348.22	10.549
348.43	11.922
348.64	11.589
348.84	13.547
349.05	12.714
349.26	13.268
349.47	9.872
349.67	11.850
349.88	14.387
350.09	12.650
350.30	14.823
350.50	14.137
350.71	15.776
350.92	15.037
351.12	14.726
351.33	13.776
351.54	13.423
351.74	14.526
351.95	12.247
352.16	16.384
352.37	16.700
352.57	14.870
352.78	14.172
352.99	15.433
353.19	13.996
353.40	17.843
353.61	17.912
353.82	17.215
354.02	18.424
354.23	17.605
354.44	19.822
354.64	17.697
354.85	18.116
355.06	17.896
355.26	14.197
355.47	16.968
355.68	21.324
355.88	19.781
356.09	18.542
356.30	16.099
356.51	21.028
356.71	18.691
356.92	17.316
357.13	21.058
357.33	21.088
357.54	20.111
357.75	16.220
357.95	21.124
358.16	19.513
358.37	24.006
358.57	19.403
358.78	25.499
358.99	21.627
359.19	18.771
359.40	22.185
359.61	23.012
359.81	23.121
360.02	24.811
360.23	20.728
360.43	22.295
360.64	21.324
360.85	22.089
361.05	20.132
361.26	24.790
361.47	21.506
361.67	23.051
361.88	20.366
362.09	24.418
362.29	21.973
362.50	21.793
362.70	21.001
362.91	24.478
363.12	22.634
363.32	22.825
363.53	23.655
363.74	24.631
363.94	20.019
364.15	25.435
364.36	24.459
364.56	23.095
364.77	23.462
364.98	27.307
365.18	23.819
365.39	25.865
365.59	21.676
365.80	24.180
366.01	24.052
366.21	23.776
366.42	22.076
366.63	24.814
366.83	22.261
367.04	20.031
367.24	25.681
367.45	21.634
367.66	21.131
367.86	23.846
368.07	22.441
368.28	23.918
368.48	23.967
368.69	21.687
368.89	23.780
369.10	24.964
369.31	23.709
369.51	25.842
369.72	24.556
369.92	27.875
370.13	20.766
370.34	25.675
370.54	17.205
370.75	24.710
370.95	20.647
371.16	23.867
371.37	21.310
371.57	24.071
371.78	21.994
371.98	24.431
372.19	25.597
372.40	25.389
372.60	23.716
372.81	24.476
373.01	22.630
373.22	23.036
373.43	24.283
373.63	25.817
373.84	24.935
374.04	24.018
374.25	23.719
374.46	26.637
374.66	24.179
374.87	24.939
375.07	20.912
375.28	23.463
375.48	23.097
375.69	25.433
375.90	21.263
376.10	21.089
376.31	22.256
376.51	22.243
376.72	22.310
376.92	21.870
377.13	24.081
377.34	24.645
377.54	23.283
377.75	25.882
377.95	23.263
378.16	25.000
378.36	25.107
378.57	26.226
378.77	23.457
378.98	23.355
379.19	23.848
379.39	23.492
379.60	24.441
379.80	25.011
380.01	24.645
380.21	24.455
380.42	25.323
380.62	24.994
380.83	25.341
381.04	23.834
381.24	23.907
381.45	24.828
381.65	23.243
381.86	24.854
382.06	26.235
382.27	23.265
382.47	23.159
382.68	25.424
382.88	23.559
383.09	23.977
383.29	24.400
383.50	25.522
383.71	24.323
383.91	25.436
384.12	23.636
384.32	26.208
384.53	24.689
384.73	23.861
384.94	23.532
385.14	24.255
385.35	23.690
385.55	25.784
385.76	25.076
385.96	24.414
386.17	25.773
386.37	26.083
386.58	24.973
386.78	26.678
386.99	24.845
387.19	26.392
387.40	24.433
387.60	26.450
387.81	24.100
388.01	25.932
388.22	26.204
388.42	27.679
388.63	26.506
388.83	28.570
389.04	24.816
389.24	27.124
389.45	25.781
389.65	25.530
389.86	25.183
390.06	24.732
390.27	25.342
390.47	26.774
390.68	25.443
390.88	27.940
391.09	27.323
391.29	27.424
391.50	26.515
391.70	27.392
391.91	26.820
392.11	27.199
392.32	26.939
392.52	27.618
392.73	26.469
392.93	27.041
393.14	26.522
393.34	28.292
393.55	27.638
393.75	27.252
393.95	26.312
394.16	27.635
394.36	27.410
394.57	27.829
394.77	27.699
394.98	26.792
395.18	27.596
395.39	26.898
395.59	27.244
395.80	27.591
396.00	26.521
396.21	28.731
396.41	26.144
396.61	27.697
396.82	28.078
397.02	28.708
397.23	27.821
397.43	27.743
397.64	24.935
397.84	29.320
398.05	25.106
398.25	27.725
398.45	27.300
398.66	27.284
398.86	27.397
399.07	28.383
399.27	26.362
399.48	27.804
399.68	25.579
399.89	25.739
400.09	28.237
400.29	27.386
400.50	26.802
400.70	28.036
400.91	25.812
401.11	27.395
401.32	28.079
401.52	26.415
401.72	26.432
401.93	28.021
402.13	27.747
402.34	26.895
402.54	25.293
402.75	28.678
402.95	24.459
403.15	26.825
403.36	26.184
403.56	27.601
403.77	25.431
403.97	27.134
404.17	25.554
404.38	25.814
404.58	25.414
404.79	26.931
404.99	27.636
405.19	26.023
405.40	26.521
405.60	26.073
405.81	26.076
406.01	26.894
406.21	25.480
406.42	25.561
406.62	27.047
406.83	27.078
407.03	26.270
407.23	25.802
407.44	25.579
407.64	26.298
407.85	25.943
408.05	26.672
408.25	24.857
408.46	27.646
408.66	26.142
408.87	26.931
409.07	25.433
409.27	24.877
409.48	25.468
409.68	25.728
409.88	24.193
410.09	26.333
410.29	25.090
410.50	26.811
410.70	23.663
410.90	25.315
411.11	24.186
411.31	25.915
411.51	26.066
411.72	26.290
411.92	25.298
412.12	26.182
412.33	24.048
412.53	25.357
412.74	23.362
412.94	25.287
413.14	25.166
413.35	24.480
413.55	24.121
413.75	26.070
413.96	24.590
414.16	24.436
414.36	24.487
414.57	25.861
414.77	24.298
414.97	25.372
415.18	24.703
415.38	24.706
415.58	24.852
415.79	23.946
415.99	23.507
416.19	25.024
416.40	23.624
416.60	24.573
416.80	23.508
417.01	24.153
417.21	22.548
417.41	25.205
417.62	24.405
417.82	24.763
418.02	23.340
418.23	24.422
418.43	23.150
418.63	24.468
418.84	23.617
419.04	24.375
419.24	23.752
419.45	24.333
419.65	24.390
419.85	24.405
420.06	24.258
420.26	24.493
420.46	24.086
420.67	23.745
420.87	23.767
421.07	24.240
421.28	23.666
421.48	23.894
421.68	23.359
421.88	23.807
422.09	24.237
422.29	23.658
422.49	23.314
422.70	24.051
422.90	24.071
423.10	24.133
423.31	24.131
423.51	23.701
423.71	23.379
423.91	23.502
424.12	23.481
424.32	23.537
424.52	23.086
424.73	23.451
424.93	23.586
425.13	23.797
425.33	23.055
425.54	23.282
425.74	23.496
425.94	23.924
426.15	23.771
426.35	23.281
426.55	23.466
426.75	23.555
426.96	24.068
427.16	23.542
427.36	23.593
427.57	24.111
427.77	24.056
427.97	24.311
428.17	23.626
428.38	24.143
428.58	22.334
428.78	24.344
428.98	22.891
429.19	23.838
429.39	22.775
429.59	24.179
429.79	23.241
430.00	22.402
430.20	22.623
430.40	23.670
430.60	23.178
430.81	22.538
431.01	22.398
431.21	22.822
431.41	21.869
431.62	23.268
431.82	22.109
432.02	23.691
432.22	22.852
432.43	23.161
432.63	22.502
432.83	22.961
433.03	22.089
433.24	21.965
433.44	22.023
433.64	22.356
433.84	22.049
434.05	22.560
434.25	22.196
434.45	22.806
434.65	22.013
434.85	22.977
435.06	21.999
435.26	22.870
435.46	22.370
435.66	23.314
435.87	22.761
436.07	22.787
436.27	23.102
436.47	22.648
436.67	22.584
436.88	22.678
437.08	22.334
437.28	22.509
437.48	22.456
437.69	22.425
437.89	22.864
438.09	22.417
438.29	22.330
438.49	22.404
438.70	22.696
438.90	21.534
439.10	21.728
439.30	22.047
439.50	22.303
439.71	21.680
439.91	21.773
440.11	22.626
440.31	21.679
440.51	22.214
440.72	21.640
440.92	22.572
441.12	21.798
441.32	22.122
441.52	22.169
441.72	22.225
441.93	22.170
442.13	22.615
442.33	21.871
442.53	22.744
442.73	22.231
442.94	22.447
443.14	22.317
443.34	22.553
443.54	22.584
443.74	22.390
443.94	22.605
444.15	22.296
444.35	22.688
444.55	22.883
444.75	22.361
444.95	22.289
445.15	21.916
445.36	22.136
445.56	21.916
445.76	21.895
445.96	21.181
446.16	21.326
446.36	21.427
446.57	22.253
446.77	21.794
446.97	21.728
447.17	22.222
447.37	21.529
447.57	21.837
447.77	21.735
447.98	21.597
448.18	21.748
448.38	21.857
448.58	21.973
448.78	22.277
448.98	22.312
449.18	22.309
449.39	22.078
449.59	22.274
449.79	22.840
449.99	22.522
450.19	22.770
450.39	23.039
450.59	22.667
450.79	22.095
451.00	22.195
451.20	22.834
451.40	22.566
451.60	22.159
451.80	22.647
452.00	22.139
452.20	22.662
452.40	22.351
452.61	22.057
452.81	21.079
453.01	21.815
453.21	22.182
453.41	21.914
453.61	21.806
453.81	21.889
454.01	20.983
454.21	22.101
454.42	22.033
454.62	22.088
454.82	21.967
455.02	22.396
455.22	21.848
455.42	21.801
455.62	21.573
455.82	22.092
456.02	21.111
456.23	21.710
456.43	21.954
456.63	21.881
456.83	21.414
457.03	21.660
457.23	21.684
457.43	21.680
457.63	21.736
457.83	21.775
458.03	21.828
458.23	21.878
458.43	21.481
458.64	21.462
458.84	21.439
459.04	21.504
459.24	21.525
459.44	21.080
459.64	21.135
459.84	21.196
460.04	21.031
460.24	21.298
460.44	20.919
460.64	21.227
460.84	20.728
461.04	21.536
461.24	21.246
461.45	21.728
461.65	21.309
461.85	21.562
462.05	21.454
462.25	21.755
462.45	21.808
462.65	21.903
462.85	21.563
463.05	21.960
463.25	21.389
463.45	21.952
463.65	21.818
463.85	21.194
464.05	21.543
464.25	21.723
464.45	21.707
464.65	21.210
464.85	21.797
465.05	21.349
465.26	20.990
465.46	21.641
465.66	21.109
465.86	21.538
466.06	21.726
466.26	21.981
466.46	20.866
466.66	21.357
466.86	21.485
467.06	21.181
467.26	20.799
467.46	21.154
467.66	21.466
467.86	21.264
468.06	20.822
468.26	21.534
468.46	21.129
468.66	21.423
468.86	20.850
469.06	21.755
469.26	21.345
469.46	21.638
469.66	20.871
469.86	21.797
470.06	21.104
470.26	22.029
470.46	20.933
470.66	21.241
470.86	21.328
471.06	21.052
471.26	20.852
471.46	21.385
471.66	21.536
471.86	21.328
472.06	21.198
472.26	21.510
472.46	21.129
472.66	21.265
472.86	21.390
473.06	21.057
473.26	21.115
473.46	21.355
473.66	21.331
473.86	21.256
474.06	21.179
474.26	21.737
474.46	21.349
474.66	21.169
474.86	21.746
475.06	21.369
475.26	21.462
475.46	21.550
475.66	20.915
475.86	22.091
476.06	21.776
476.26	22.032
476.46	21.042
476.66	21.832
476.86	21.069
477.06	21.514
477.26	21.180
477.46	21.817
477.65	21.252
477.85	21.888
478.05	21.303
478.25	21.334
478.45	21.188
478.65	21.685
478.85	21.404
479.05	21.294
479.25	21.669
479.45	22.094
479.65	20.790
479.85	21.979
480.05	21.730
480.25	21.645
480.45	21.279
480.65	21.557
480.85	21.868
481.05	21.637
481.25	21.750
481.44	21.643
481.64	21.118
481.84	21.655
482.04	21.450
482.24	21.170
482.44	21.219
482.64	21.290
482.84	21.034
483.04	21.256
483.24	20.422
483.44	20.726
483.64	20.423
483.84	20.618
484.04	20.470
484.23	20.938
484.43	20.915
484.63	21.286
484.83	21.181
485.03	21.808
485.23	21.496
485.43	21.885
485.63	21.919
485.83	22.128
486.03	22.070
486.23	22.318
486.42	21.948
486.62	22.156
486.82	22.214
487.02	21.465
487.22	21.477
487.42	21.156
487.62	21.330
487.82	21.173
488.02	21.268
488.22	21.202
488.41	21.269
488.61	21.073
488.81	21.052
489.01	21.577
489.21	21.562
489.41	21.648
489.61	21.696
489.81	21.793
490.01	21.847
490.20	21.908
490.40	21.856
490.60	22.137
490.80	21.686
491.00	21.811
491.20	21.420
491.40	21.260
491.60	20.720
491.79	21.270
491.99	20.829
492.19	21.167
492.39	21.064
492.59	21.716
492.79	21.133
492.99	21.617
493.19	21.573
493.38	21.799
493.58	21.309
493.78	22.260
493.98	22.150
494.18	22.386
494.38	22.294
494.58	22.153
494.77	21.554
494.97	21.808
495.17	21.951
495.37	21.540
495.57	21.788
495.77	21.521
495.96	22.119
496.16	21.847
496.36	21.183
496.56	21.455
496.76	21.338
496.96	20.975
497.15	21.429
497.35	21.096
497.55	21.737
497.75	21.857
497.95	21.712
498.15	21.302
498.34	21.555
498.54	21.239
498.74	21.596
498.94	21.872
499.14	21.399
499.34	21.524
499.53	21.714
499.73	21.898
499.93	21.987
500.13	22.068
500.33	21.297
500.52	22.419
500.72	21.662
500.92	22.066
501.12	22.510
501.32	22.131
501.52	22.115
501.71	22.067
501.91	21.873
502.11	22.117
502.31	22.017
502.51	22.064
502.70	22.278
502.90	22.224
503.10	22.354
503.30	22.694
503.50	22.562
503.69	22.968
503.89	22.191
504.09	22.475
504.29	21.843
504.48	22.185
504.68	22.586
504.88	22.720
505.08	22.433
505.28	22.423
505.47	22.239
505.67	22.157
505.87	22.525
506.07	22.182
506.27	22.344
506.46	22.378
506.66	22.191
506.86	22.940
507.06	22.766
507.25	22.493
507.45	22.978
507.65	22.858
507.85	22.782
508.04	22.928
508.24	22.822
508.44	22.652
508.64	22.095
508.83	22.378
509.03	22.441
509.23	22.503
509.43	22.690
509.63	22.519
509.82	23.007
510.02	23.226
510.22	22.527
510.42	22.978
510.61	22.916
510.81	22.379
511.01	22.617
511.21	22.573
511.40	23.442
511.60	23.099
511.80	22.507
511.99	23.286
512.19	22.723
512.39	23.086
512.59	22.800
512.78	22.832
512.98	22.986
513.18	23.116
513.38	23.388
513.57	23.454
513.77	23.535
513.97	23.134
514.17	23.080
514.36	23.418
514.56	23.437
514.76	23.643
514.95	23.597
515.15	23.643
515.35	23.371
515.55	23.099
515.74	23.656
515.94	23.711
516.14	23.300
516.33	23.638
516.53	23.575
516.73	23.545
516.93	23.605
517.12	23.483
517.32	23.141
517.52	23.495
517.71	23.593
517.91	23.229
518.11	23.048
518.30	23.472
518.50	23.187
518.70	23.110
518.90	23.250
519.09	23.497
519.29	23.136
519.49	23.705
519.68	23.352
519.88	23.571
520.08	23.583
520.27	23.704
520.47	23.938
520.67	23.706
520.86	23.907
521.06	23.830
521.26	23.871
521.45	24.137
521.65	24.077
521.85	23.931
522.04	24.096
522.24	23.816
522.44	23.529
522.63	23.481
522.83	24.193
523.03	23.788
523.22	23.631
523.42	24.382
523.62	23.807
523.81	23.628
524.01	23.766
524.21	24.185
524.40	23.747
524.60	24.244
524.80	23.755
524.99	23.602
525.19	23.785
525.39	23.437
525.58	23.889
525.78	23.982
525.98	23.434
526.17	23.633
526.37	23.908
526.57	23.683
526.76	23.647
526.96	23.609
527.15	23.938
527.35	24.000
527.55	23.666
527.74	24.278
527.94	24.061
528.14	23.674
528.33	22.882
528.53	23.277
528.72	23.093
528.92	23.604
529.12	23.399
529.31	23.725
529.51	23.733
529.71	23.795
529.90	24.030
530.10	24.102
530.29	24.239
530.49	24.731
530.69	24.712
530.88	24.769
531.08	24.285
531.28	24.503
531.47	24.524
531.67	24.549
531.86	24.380
532.06	24.509
532.26	24.226
532.45	24.438
532.65	24.292
532.84	23.926
533.04	23.939
533.24	24.218
533.43	23.646
533.63	24.292
533.82	24.044
534.02	24.356
534.22	24.023
534.41	24.102
534.61	24.309
534.80	24.189
535.00	24.536
535.19	24.828
535.39	24.805
535.59	24.939
535.78	24.604
535.98	24.453
536.17	24.536
536.37	24.430
536.57	24.074
536.76	24.398
536.96	24.576
537.15	24.737
537.35	24.153
537.54	24.525
537.74	24.843
537.93	24.676
538.13	24.590
538.33	24.911
538.52	24.842
538.72	24.911
538.91	25.211
539.11	25.440
539.30	25.145
539.50	24.720
539.70	24.670
539.89	25.255
540.09	25.254
540.28	24.451
540.48	25.153
540.67	24.672
540.87	23.975
541.06	24.269
541.26	23.941
541.45	24.486
541.65	24.330
541.85	24.451
542.04	24.717
542.24	24.962
542.43	24.457
542.63	24.921
542.82	25.046
543.02	25.032
543.21	25.359
543.41	25.471
543.60	26.045
543.80	26.036
543.99	25.395
544.19	25.633
544.38	25.529
544.58	25.782
544.77	25.241
544.97	25.960
545.16	25.397
545.36	25.746
545.56	25.571
545.75	26.101
545.95	25.554
546.14	25.847
546.34	25.667
546.53	26.024
546.73	25.378
546.92	25.702
547.12	25.504
547.31	25.989
547.51	25.691
547.70	25.746
547.90	25.712
548.09	26.278
548.29	26.005
548.48	26.217
548.68	26.452
548.87	26.771
549.07	26.621
549.26	26.130
549.46	26.999
549.65	27.151
549.84	27.117
550.04	26.752
550.23	27.241
550.43	26.911
550.62	27.199
550.82	27.426
551.01	26.708
551.21	26.913
551.40	27.320
551.60	27.092
551.79	26.827
551.99	27.553
552.18	26.539
552.38	27.130
552.57	26.607
552.77	27.412
552.96	27.322
553.16	27.493
553.35	27.316
553.54	27.918
553.74	26.704
553.93	27.595
554.13	27.751
554.32	27.247
554.52	27.596
554.71	27.746
554.91	27.742
555.10	28.290
555.29	27.721
555.49	28.500
555.68	27.883
555.88	27.855
556.07	28.303
556.27	28.644
556.46	28.077
556.66	27.967
556.85	28.062
557.04	28.440
557.24	27.759
557.43	28.672
557.63	28.868
557.82	28.949
558.02	28.816
558.21	28.653
558.40	29.447
558.60	29.057
558.79	29.188
558.99	28.878
559.18	28.913
559.38	29.300
559.57	29.234
559.76	29.143
559.96	29.878
560.15	28.960
560.35	29.210
560.54	29.585
560.73	29.113
560.93	29.832
561.12	29.899
561.32	29.617
561.51	29.609
561.70	29.265
561.90	29.596
562.09	29.842
562.29	29.506
562.48	29.878
562.67	29.720
562.87	29.824
563.06	30.197
563.26	30.694
563.45	29.867
563.64	30.609
563.84	30.003
564.03	30.545
564.23	30.021
564.42	30.472
564.61	30.341
564.81	30.546
565.00	30.421
565.20	29.881
565.39	30.557
565.58	29.927
565.78	30.075
565.97	30.556
566.16	30.815
566.36	29.953
566.55	29.891
566.74	30.566
566.94	30.996
567.13	30.841
567.33	30.779
567.52	30.505
567.71	30.242
567.91	31.018
568.10	30.563
568.29	30.607
568.49	30.448
568.68	31.581
568.87	31.286
569.07	31.983
569.26	31.659
569.45	31.515
569.65	30.854
569.84	31.705
570.04	31.084
570.23	31.129
570.42	31.158
570.62	31.234
570.81	31.639
571.00	31.520
571.20	31.876
571.39	31.144
571.58	31.660
571.78	31.294
571.97	31.791
572.16	31.308
572.36	31.285
572.55	31.221
572.74	31.831
572.94	31.451
573.13	31.311
573.32	31.665
573.51	31.852
573.71	31.650
573.90	31.756
574.09	31.558
574.29	32.156
574.48	32.130
574.67	31.214
574.87	31.676
575.06	32.140
575.25	31.543
575.45	31.412
575.64	32.156
575.83	31.225
576.03	32.785
576.22	31.540
576.41	32.042
576.60	31.888
576.80	31.554
576.99	31.699
577.18	32.469
577.38	32.159
577.57	32.021
577.76	31.876
577.95	32.026
578.15	31.817
578.34	32.467
578.53	32.029
578.73	32.278
578.92	32.014
579.11	32.546
579.30	32.623
579.50	32.564
579.69	32.240
579.88	31.566
580.08	32.649
580.27	32.596
580.46	31.930
580.65	32.293
580.85	33.308
581.04	32.072
581.23	31.533
581.42	32.149
581.62	31.810
581.81	32.880
582.00	32.492
582.19	32.075
582.39	31.963
582.58	31.890
582.77	32.373
582.96	32.577
583.16	31.753
583.35	32.242
583.54	32.433
583.73	32.140
583.93	31.928
584.12	31.982
584.31	32.034
584.50	32.028
584.70	31.418
584.89	32.617
585.08	31.898
585.27	32.257
585.47	32.042
585.66	32.802
585.85	32.169
586.04	32.234
586.24	32.246
586.43	32.283
586.62	31.385
586.81	32.038
587.00	32.366
587.20	31.837
587.39	32.196
587.58	31.619
587.77	31.925
587.97	31.861
588.16	31.095
588.35	32.002
588.54	31.157
588.73	31.506
588.93	32.016
589.12	31.478
589.31	31.900
589.50	30.927
589.69	31.322
589.89	31.901
590.08	31.521
590.27	31.266
590.46	31.209
590.65	31.522
590.85	30.737
591.04	32.072
591.23	32.011
591.42	32.042
591.61	31.670
591.81	32.682
592.00	31.565
592.19	31.614
592.38	30.781
592.57	31.287
592.77	31.905
592.96	31.804
593.15	32.060
593.34	31.643
593.53	31.953
593.72	32.549
593.92	31.412
594.11	32.144
594.30	32.268
594.49	31.834
594.68	31.602
594.87	31.763
595.07	30.775
595.26	31.253
595.45	32.224
595.64	31.315
595.83	32.397
596.02	32.319
596.22	31.710
596.41	30.836
596.60	31.797
596.79	32.265
596.98	31.731
597.17	31.670
597.37	31.468
597.56	31.491
597.75	31.076
597.94	30.994
598.13	32.268
598.32	31.881
598.51	31.885
598.71	32.394
598.90	32.392
599.09	32.240
599.28	32.116
599.47	32.885
599.66	31.761
599.85	32.626
600.05	32.668
600.24	32.638
600.43	32.584
600.62	32.859
600.81	33.030
601.00	33.439
601.19	32.995
601.38	33.378
601.58	33.312
601.77	33.197
601.96	32.178
602.15	32.904
602.34	33.150
602.53	32.322
602.72	33.009
602.91	32.828
603.10	32.981
603.30	33.238
603.49	32.414
603.68	33.345
603.87	32.551
604.06	32.049
604.25	33.108
604.44	32.254
604.63	32.195
604.82	31.893
605.01	31.862
605.21	32.543
605.40	31.547
605.59	32.727
605.78	33.167
605.97	32.588
606.16	32.325
606.35	33.102
606.54	32.971
606.73	33.261
606.92	32.995
607.11	33.290
607.30	32.615
607.50	33.599
607.69	33.372
607.88	32.566
608.07	32.929
608.26	33.403
608.45	33.026
608.64	32.802
608.83	32.666
609.02	33.857
609.21	32.706
609.40	32.998
609.59	32.663
609.78	32.359
609.97	32.320
610.16	32.525
610.35	32.748
610.55	32.398
610.74	32.735
610.93	32.662
611.12	31.681
611.31	33.061
611.50	31.922
611.69	32.846
611.88	32.472
612.07	32.828
612.26	32.888
612.45	33.402
612.64	33.499
612.83	32.634
613.02	32.889
613.21	32.453
613.40	32.802
613.59	33.382
613.78	33.087
613.97	32.244
614.16	33.132
614.35	32.296
614.54	32.299
614.73	33.229
614.92	32.941
615.11	31.500
615.30	32.392
615.49	32.881
615.68	32.918
615.87	32.316
616.07	31.151
616.26	32.174
616.45	32.156
616.64	31.999
616.83	32.953
617.02	31.550
617.21	31.292
617.40	31.861
617.59	32.270
617.78	31.380
617.97	31.466
618.16	31.540
618.35	30.998
618.54	30.954
618.73	31.147
618.92	31.306
619.11	30.263
619.30	32.305
619.49	31.902
619.68	30.815
619.86	32.048
620.05	30.339
620.24	30.837
620.43	31.053
620.62	29.804
620.81	31.219
621.00	31.016
621.19	31.454
621.38	31.595
621.57	30.954
621.76	31.054
621.95	30.839
622.14	30.463
622.33	31.122
622.52	30.003
622.71	30.131
622.90	30.496
623.09	30.887
623.28	30.127
623.47	30.264
623.66	31.152
623.85	29.664
624.04	31.054
624.23	30.517
624.42	29.945
624.61	30.165
624.80	30.903
624.99	30.581
625.18	30.245
625.36	31.142
625.55	30.116
625.74	31.307
625.93	30.375
626.12	30.189
626.31	30.316
626.50	30.562
626.69	29.990
626.88	30.495
627.07	29.880
627.26	29.977
627.45	29.626
627.64	29.972
627.83	30.070
628.02	29.981
628.20	29.982
628.39	29.853
628.58	30.480
628.77	30.774
628.96	30.062
629.15	30.072
629.34	30.326
629.53	30.827
629.72	30.020
629.91	31.172
630.10	30.871
630.29	30.021
630.47	31.149
630.66	30.434
630.85	30.972
631.04	31.504
631.23	30.791
631.42	30.604
631.61	30.687
631.80	30.610
631.99	30.616
632.18	30.048
632.36	29.472
632.55	32.311
632.74	30.205
632.93	29.295
633.12	30.745
633.31	30.115
633.50	30.513
633.69	30.199
633.88	29.367
634.06	29.953
634.25	29.511
634.44	29.524
634.63	29.758
634.82	29.966
635.01	29.770
635.20	29.956
635.39	30.381
635.57	29.829
635.76	30.476
635.95	30.245
636.14	29.307
636.33	30.646
636.52	30.373
636.71	29.384
636.89	28.793
637.08	29.757
637.27	29.842
637.46	30.140
637.65	30.749
637.84	30.483
638.03	29.090
638.21	30.097
638.40	29.538
638.59	29.763
638.78	29.197
638.97	29.217
639.16	29.650
639.34	29.392
639.53	29.013
639.72	28.629
639.91	29.832
640.10	29.921
640.29	30.564
640.47	31.283
640.66	28.987
640.85	29.799
641.04	29.149
641.23	29.608
641.42	27.845
641.60	28.650
641.79	28.953
641.98	30.428
642.17	28.275
642.36	29.480
642.54	29.304
642.73	29.336
642.92	29.184
643.11	29.659
643.30	28.439
643.49	30.971
643.67	28.657
643.86	28.925
644.05	28.310
644.24	29.340
644.43	27.955
644.61	29.124
644.80	29.262
644.99	29.290
645.18	30.269
645.37	29.769
645.55	28.484
645.74	29.922
645.93	29.576
646.12	29.548
646.31	29.437
646.49	29.737
646.68	28.607
646.87	29.606
647.06	29.585
647.24	30.529
647.43	27.432
647.62	30.407
647.81	28.847
648.00	29.563
648.18	28.891
648.37	29.303
648.56	28.435
648.75	29.399
648.93	28.611
649.12	29.970
649.31	28.670
649.50	29.497
649.68	28.649
649.87	28.734
650.06	27.957
650.25	28.717
650.43	28.477
650.62	29.140
650.81	28.163
651.00	27.976
651.18	27.163
651.37	28.800
651.56	28.125
651.75	30.119
651.93	28.046
652.12	29.397
652.31	27.493
652.50	28.633
652.68	28.176
652.87	30.241
653.06	27.952
653.25	29.377
653.43	27.681
653.62	28.721
653.81	28.826
654.00	29.494
654.18	28.301
654.37	29.134
654.56	27.838
654.74	27.943
654.93	28.144
655.12	28.597
655.31	27.141
655.49	28.905
655.68	27.375
655.87	27.112
656.05	25.957
656.24	27.816
656.43	26.306
656.62	28.142
656.80	26.821
656.99	27.377
657.18	25.388
657.36	28.069
657.55	27.045
657.74	26.645
657.93	25.849
658.11	27.781
658.30	27.550
658.49	26.417
658.67	26.375
658.86	25.676
659.05	26.618
659.23	26.706
659.42	25.883
659.61	26.218
659.79	25.420
659.98	26.105
660.17	26.194
660.35	25.061
660.54	25.964
660.73	27.053
660.91	24.956
661.10	25.792
661.29	24.665
661.47	24.642
661.66	24.183
661.85	26.181
662.03	25.208
662.22	24.525
662.41	24.107
662.59	24.995
662.78	23.369
662.97	24.696
663.15	22.736
663.34	23.808
663.53	22.461
663.71	23.767
663.90	22.428
664.09	23.967
664.27	23.137
664.46	22.945
664.65	23.740
664.83	23.127
665.02	21.728
665.21	21.819
665.39	18.792
665.58	23.305
665.77	20.966
665.95	22.660
666.14	20.039
666.32	22.161
666.51	20.112
666.70	21.085
666.88	20.039
667.07	20.915
667.26	19.703
667.44	20.642
667.63	20.725
667.81	19.725
668.00	20.772
668.19	22.358
668.37	19.987
668.56	22.570
668.75	17.767
668.93	21.975
669.12	19.152
669.30	22.209
669.49	19.322
669.68	20.541
669.86	20.361
670.05	20.955
670.23	18.982
670.42	20.512
670.61	21.184
670.79	21.103
670.98	18.541
671.16	21.831
671.35	19.562
671.54	19.809
671.72	20.357
671.91	19.827
672.09	18.744
672.28	21.983
672.46	20.104
672.65	21.992
672.84	21.274
673.02	21.582
673.21	19.972
673.39	19.594
673.58	20.990
673.77	21.497
673.95	19.802
674.14	21.443
674.32	18.726
674.51	21.997
674.69	20.396
674.88	20.333
675.07	19.166
675.25	23.301
675.44	20.805
675.62	21.030
675.81	20.068
675.99	25.597
676.18	21.647
676.36	20.580
676.55	20.035
676.74	22.915
676.92	21.248
677.11	22.452
677.29	20.182
677.48	22.495
677.66	22.885
677.85	22.347
678.03	21.120
678.22	23.067
678.40	22.614
678.59	21.721
678.78	20.535
678.96	21.927
679.15	20.423
679.33	24.378
679.52	22.606
679.70	23.164
679.89	23.843
680.07	22.547
680.26	21.304
680.44	22.793
680.63	22.252
680.81	23.249
681.00	21.506
681.18	24.215
681.37	22.525
681.55	24.750
681.74	24.635
681.92	23.863
682.11	23.939
682.29	24.259
682.48	22.815
682.66	24.761
682.85	24.461
683.03	25.221
683.22	23.775
683.40	25.327
683.59	25.489
683.77	26.470
683.96	23.171
684.14	26.320
684.33	23.341
684.51	27.783
684.70	25.115
684.88	28.058
685.07	24.577
685.25	26.446
685.44	26.010
685.62	26.978
685.81	27.150
685.99	28.640
686.18	25.155
686.36	28.283
686.55	24.566
686.73	28.197
686.92	26.581
687.10	28.674
687.29	28.832
687.47	29.258
687.65	29.404
687.84	29.657
688.02	29.433
688.21	31.035
688.39	27.802
688.58	30.690
688.76	28.557
688.95	29.037
689.13	27.487
689.32	31.986
689.50	30.870
689.68	32.290
689.87	29.730
690.05	32.220
690.24	31.680
690.42	32.651
690.61	33.106
690.79	34.198
690.98	32.592
691.16	33.437
691.34	31.375
691.53	35.837
691.71	32.237
691.90	34.657
692.08	33.531
692.27	36.054
692.45	37.647
692.63	35.996
692.82	37.308
693.00	35.913
693.19	34.051
693.37	36.690
693.56	35.918
693.74	38.487
693.92	37.697
694.11	37.875
694.29	38.110
694.48	39.494
694.66	40.065
694.84	39.713
695.03	36.647
695.21	41.385
695.40	41.029
695.58	39.361
695.76	38.980
695.95	42.436
696.13	39.722
696.32	41.490
696.50	43.580
696.68	42.134
696.87	40.788
697.05	43.695
697.24	41.164
697.42	43.553
697.60	43.494
697.79	43.312
697.97	43.215
698.16	42.158
698.34	40.354
698.52	42.548
698.71	41.537
698.89	42.949
699.07	41.868
699.26	43.552
699.44	43.038
699.63	42.939
699.81	42.515
699.99	44.044
700.18	43.055
700.36	42.380
700.54	43.320
700.73	45.399
700.91	44.224
701.09	45.376
701.28	46.122
701.46	45.859
701.64	44.728
701.83	46.421
702.01	46.052
702.20	47.254
702.38	47.855
702.56	47.980
702.75	47.504
702.93	48.164
703.11	46.948
703.30	50.249
703.48	48.960
703.66	49.490
703.85	49.237
704.03	50.604
704.21	48.301
704.40	51.601
704.58	50.469
704.76	49.914
704.95	49.882
705.13	49.785
705.31	50.868
705.50	51.778
705.68	50.997
705.86	53.149
706.04	51.505
706.23	52.873
706.41	52.237
706.59	52.750
706.78	50.560
706.96	51.414
707.14	50.371
707.33	52.105
707.51	52.459
707.69	53.776
707.88	52.314
708.06	50.727
708.24	53.001
708.42	52.630
708.61	50.779
708.79	52.251
708.97	53.741
709.16	51.379
709.34	55.133
709.52	51.672
709.71	53.893
709.89	53.988
710.07	51.283
710.25	52.513
710.44	53.479
710.62	52.226
710.80	54.235
710.98	54.277
711.17	53.780
711.35	53.755
711.53	54.935
711.72	53.675
711.90	54.388
712.08	53.233
712.26	53.136
712.45	54.010
712.63	55.028
712.81	53.206
712.99	52.845
713.18	53.544
713.36	54.289
713.54	52.602
713.72	53.841
713.91	55.718
714.09	53.011
714.27	54.380
714.45	53.972
714.64	53.804
714.82	55.044
715.00	55.432
715.18	52.231
715.37	51.278
715.55	53.975
715.73	56.525
715.91	54.708
716.10	54.496
716.28	53.212
716.46	54.892
716.64	51.576
716.83	55.425
717.01	53.810
717.19	52.883
717.37	52.955
717.55	53.252
717.74	55.238
717.92	52.268
718.10	52.560
718.28	53.572
718.47	52.948
718.65	54.980
718.83	55.500
719.01	55.705
719.19	52.565
719.38	53.871
719.56	55.237
719.74	56.130
719.92	55.013
720.10	55.026
720.29	55.446
720.47	56.418
720.65	57.367
720.83	54.771
721.01	56.445
721.20	57.040
721.38	55.542
721.56	58.550
721.74	57.082
721.92	60.787
722.11	57.014
722.29	58.117
722.47	58.268
722.65	61.487
722.83	60.103
723.01	57.344
723.20	57.290
723.38	61.148
723.56	55.894
723.74	60.109
723.92	60.113
724.10	58.421
724.29	59.113
724.47	60.319
724.65	56.242
724.83	59.825
725.01	57.503
725.19	57.551
725.38	59.070
725.56	61.758
725.74	59.124
725.92	61.341
726.10	58.705
726.28	58.848
726.46	59.232
726.65	57.307
726.83	58.100
727.01	59.706
727.19	58.237
727.37	59.840
727.55	58.179
727.73	59.244
727.92	60.573
728.10	58.922
728.28	56.839
728.46	59.085
728.64	58.570
728.82	58.392
729.00	58.694
729.19	59.195
729.37	57.779
729.55	58.279
729.73	57.133
729.91	58.578
730.09	55.212
730.27	62.460
730.45	56.381
730.63	59.666
730.82	58.396
731.00	59.091
731.18	57.372
731.36	58.733
731.54	59.006
731.72	60.005
731.90	60.271
732.08	59.512
732.26	59.028
732.45	60.814
732.63	59.789
732.81	57.310
732.99	59.845
733.17	62.358
733.35	60.713
733.53	58.780
733.71	58.710
733.89	61.858
734.07	58.377
734.25	59.433
734.44	59.605
734.62	60.550
734.80	59.397
734.98	62.559
735.16	60.893
735.34	60.745
735.52	61.529
735.70	61.818
735.88	60.830
736.06	63.399
736.24	66.604
736.42	64.190
736.60	61.148
736.78	65.178
736.97	66.704
737.15	65.192
737.33	66.142
737.51	66.142
737.69	67.142
737.87	64.704
738.05	66.483
738.23	66.142
738.41	65.395
738.59	68.196
738.77	65.060
738.95	67.011
739.13	66.704
739.31	65.149
739.49	69.643
739.67	67.473
739.85	62.874
740.03	66.112
740.21	64.132
740.39	66.501
740.57	67.061
740.75	65.532
740.93	65.815
741.11	64.994
741.30	64.203
741.48	67.944
741.66	69.196
741.84	69.960
742.02	68.520
742.20	67.922
742.38	65.797
742.56	70.155
742.74	65.712
742.92	66.487
743.10	66.280
743.28	71.925
743.46	69.066
743.64	67.272
743.82	69.596
744.00	71.330
744.18	71.429
744.36	69.313
744.54	67.194
744.72	69.483
744.90	72.469
745.08	70.787
745.26	66.331
745.44	70.481
745.62	70.083
745.80	71.454
745.98	70.802
746.16	68.432
746.34	70.376
746.52	69.321
746.70	70.747
746.87	73.356
747.05	73.918
747.23	72.063
747.41	73.626
747.59	73.362
747.77	66.667
747.95	73.657
748.13	70.361
748.31	72.248
748.49	69.054
748.67	73.059
748.85	69.690
749.03	70.431
749.21	70.576
749.39	68.190
749.57	69.763
749.75	68.968
749.93	69.064
750.11	67.683
750.29	67.867
750.47	70.215
750.65	70.662
750.83	71.556
751.01	68.008
751.18	68.210
751.36	70.134
751.54	72.740
751.72	71.954
751.90	68.882
752.08	70.690
752.26	73.402
752.44	73.281
752.62	72.552
752.80	69.208
752.98	70.303
753.16	71.787
753.34	70.321
753.52	68.709
753.69	73.810
753.87	68.810
754.05	69.508
754.23	70.733
754.41	72.177
754.59	68.968
754.77	72.516
754.95	67.931
755.13	70.682
755.31	74.139
755.49	69.116
755.66	70.155
755.84	70.498
756.02	68.888
756.20	73.213
756.38	69.931
756.56	68.125
756.74	67.987
756.92	64.590
757.10	73.220
757.28	69.851
757.45	74.514
757.63	71.917
757.81	68.254
757.99	74.901
758.17	70.690
758.35	72.996
758.53	69.515
758.71	69.567
758.88	68.220
759.06	70.217
759.24	66.934
759.42	66.345
759.60	61.841
759.78	59.302
759.96	59.064
760.13	59.856
760.31	58.117
760.49	53.875
760.67	53.280
760.85	54.872
761.03	51.618
761.21	50.990
761.38	53.730
761.56	55.292
761.74	54.211
761.92	55.124
762.10	50.450
762.28	54.053
762.46	52.574
762.63	55.917
762.81	53.305
762.99	55.395
763.17	53.874
763.35	53.099
763.53	52.167
763.70	53.049
763.88	53.540
764.06	52.002
764.24	52.427
764.42	53.598
764.60	53.551
764.77	54.374
764.95	52.599
765.13	53.901
765.31	54.004
765.49	51.645
765.66	55.364
765.84	56.353
766.02	59.386
766.20	61.296
766.38	60.933
766.56	61.188
766.73	61.184
766.91	64.688
767.09	65.200
767.27	65.066
767.45	66.249
767.62	64.472
767.80	66.508
767.98	67.285
768.16	65.473
768.33	69.099
768.51	67.035
768.69	68.006
768.87	68.151
769.05	72.318
769.22	71.534
769.40	71.765
769.58	76.331
769.76	76.365
769.94	72.910
770.11	75.000
770.29	76.235
770.47	72.688
770.65	71.385
770.82	75.982
771.00	76.521
771.18	75.888
771.36	74.638
771.53	75.245
771.71	71.752
771.89	76.421
772.07	73.677
772.25	78.611
772.42	72.155
772.60	76.517
772.78	78.075
772.96	75.566
773.13	79.664
773.31	78.631
773.49	71.429
773.67	74.090
773.84	75.793
774.02	79.314
774.20	73.327
774.37	82.248
774.55	73.663
774.73	78.870
774.91	78.083
775.08	79.944
775.26	85.532
775.44	80.360
775.62	76.940
775.79	75.323
775.97	76.484
776.15	78.291
776.32	74.691
776.50	79.356
776.68	75.853
776.86	80.549
777.03	78.263
777.21	79.274
777.39	76.279
777.56	79.912
777.74	75.323
777.92	76.223
778.10	75.998
778.27	79.253
778.45	78.448
778.63	80.282
778.80	80.895
778.98	78.535
779.16	82.280
779.34	77.497
779.51	79.644
779.69	75.438
779.87	78.481
780.04	78.434
780.22	75.425
780.40	78.877
780.57	83.020
780.75	80.955
780.93	77.010
781.10	76.275
781.28	82.402
781.46	76.659
781.63	81.534
781.81	81.212
781.99	79.326
782.16	79.369
782.34	84.746
782.52	75.471
782.69	84.158
782.87	78.652
783.05	78.062
783.22	83.194
783.40	80.851
783.58	82.812
783.75	80.680
783.93	79.779
784.11	75.536
784.28	89.487
784.46	75.046
784.64	80.013
784.81	77.177
784.99	83.970
785.17	83.031
785.34	77.669
785.52	76.574
785.69	81.899
785.87	75.236
786.05	76.904
786.22	76.034
786.40	86.458
786.58	85.067
786.75	78.377
786.93	84.157
787.11	75.973
787.28	79.656
787.46	83.409
787.63	75.079
787.81	75.618
787.99	72.641
788.16	70.326
788.34	75.752
788.51	74.443
788.69	72.495
788.87	69.034
789.04	74.559
789.22	76.349
789.39	74.314
789.57	66.983
789.75	68.971
789.92	75.065
790.10	74.693
790.27	71.622
790.45	68.237
790.63	71.926
790.80	68.117
790.98	72.897
791.15	75.795
791.33	71.016
791.51	76.193
791.68	74.282
791.86	74.603
792.03	77.192
792.21	65.000
792.39	73.698
792.56	72.814
792.74	76.356
792.91	77.405
793.09	68.662
793.26	68.577
793.44	79.568
793.62	75.168
793.79	77.933
793.97	73.443
794.14	79.593
794.32	77.282
794.49	79.541
794.67	71.151
794.84	74.425
795.02	70.604
795.20	78.522
795.37	73.670
795.55	70.091
795.72	80.842
795.90	76.739
796.07	72.508
796.25	73.479
796.42	72.686
796.60	68.503
796.77	71.237
796.95	69.571
797.13	65.848
797.30	75.893
797.48	69.965
797.65	77.554
797.83	70.838
798.00	70.774
798.18	68.159
798.35	80.155
798.53	72.495
798.70	72.274
798.88	70.942
799.05	71.054
799.23	72.241
799.40	70.754
799.58	65.539
799.75	73.691
799.93	74.856
800.10	75.517
800.28	69.186
800.45	78.552
800.63	68.681
800.80	73.562
800.98	73.916
801.15	69.986
801.33	76.003
801.50	76.863
801.68	73.237
801.85	72.500
802.03	66.620
802.20	78.629
802.38	70.888
802.55	70.813
802.73	64.502
802.90	72.922
803.08	70.580
803.25	75.417
803.43	69.638
803.60	74.104
803.78	73.508
803.95	79.365
804.13	73.312
804.30	67.205
804.48	79.257
804.65	73.811
804.83	78.560
805.00	70.516
805.17	76.556
805.35	76.475
805.52	76.652
805.70	74.232
805.87	76.122
806.05	71.469
806.22	67.800
806.40	73.950
806.57	65.827
806.75	73.642
806.92	78.448
807.09	67.685
807.27	72.460
807.44	74.679
807.62	71.449
807.79	75.758
807.97	70.378
808.14	71.217
808.31	69.355
808.49	72.852
808.66	68.802
808.84	70.637
809.01	71.394
809.19	71.566
809.36	74.214
809.53	67.889
809.71	69.801
809.88	73.093
810.06	83.475
810.23	70.612
810.41	72.328
810.58	88.737
810.75	73.552
810.93	75.745
811.10	75.270
811.28	73.759
811.45	68.380
811.62	65.532
811.80	72.937
811.97	78.714
812.15	73.311
812.32	66.214
812.49	75.887
812.67	73.156
812.84	72.167
813.02	76.516
813.19	75.844
813.36	66.393
813.54	63.304
813.71	64.856
813.89	77.758
814.06	69.402
814.23	64.695
814.41	59.517
814.58	68.303
814.75	72.149
814.93	73.961
815.10	69.859
815.28	66.862
815.45	72.424
815.62	55.888
815.80	68.206
815.97	65.367
816.14	74.236
816.32	68.893
816.49	66.075
816.66	56.691
816.84	65.869
817.01	69.442
817.18	67.515
817.36	62.397
817.53	70.387
817.71	63.644
817.88	62.763
818.05	67.321
818.23	64.968
818.40	55.323
818.57	63.158
818.75	62.725
818.92	61.372
819.09	62.097
819.27	63.336
819.44	65.987
819.61	63.799
819.79	56.960
819.96	68.116
820.13	55.231
820.31	60.316
820.48	58.172
820.65	61.739
820.82	54.644
821.00	58.721
821.17	50.666
821.34	51.811
821.52	57.149
821.69	50.561
821.86	52.171
822.04	50.298
822.21	51.619
822.38	49.835
822.56	48.719
822.73	48.911
822.90	47.886
823.07	48.086
823.25	47.712
823.42	46.819
823.59	45.999
823.77	47.614
823.94	47.745
824.11	46.633
824.29	46.766
824.46	46.621
824.63	48.015
824.80	50.858
824.98	48.657
825.15	49.347
825.32	48.869
825.49	48.976
825.67	49.604
825.84	49.522
826.01	47.415
826.19	52.138
826.36	50.915
826.53	52.405
826.70	50.712
826.88	52.293
827.05	49.752
827.22	51.134
827.39	49.014
827.57	48.984
827.74	47.664
827.91	52.330
828.08	46.296
828.26	49.716
828.43	46.500
828.60	48.944
828.77	47.079
828.95	50.398
829.12	46.230
829.29	48.848
829.46	48.088
829.64	50.687
829.81	46.189
829.98	54.202
830.15	50.771
830.32	54.111
830.50	47.970
830.67	59.158
830.84	45.789
831.01	48.657
831.19	50.809
831.36	58.129
831.53	54.553
831.70	60.812
831.87	56.018
832.05	67.192
832.22	60.881
832.39	58.239
832.56	54.021
832.74	56.892
832.91	51.937
833.08	63.437
833.25	52.230
833.42	58.635
833.60	49.583
833.77	46.395
833.94	45.836
834.11	50.789
834.28	49.241
834.45	49.934
834.63	49.979
834.80	49.540
834.97	46.389
835.14	49.960
835.31	47.762
835.49	47.879
835.66	49.370
835.83	48.479
836.00	49.782
836.17	50.462
836.34	54.169
836.52	50.736
836.69	53.029
836.86	51.774
837.03	51.432
837.20	56.522
837.37	54.058
837.55	48.316
837.72	53.088
837.89	60.223
838.06	68.057
838.23	61.896
838.40	67.665
838.58	59.939
838.75	65.317
838.92	62.825
839.09	80.552
839.26	64.468
839.43	66.508
839.60	73.155
839.78	87.287
839.95	71.564
840.12	70.215
840.29	79.087
840.46	60.453
840.63	62.770
840.80	70.957
840.98	73.001
841.15	66.771
841.32	55.500
841.49	62.563
841.66	71.878
841.83	60.259
842.00	61.573
842.17	72.883
842.34	69.968
842.52	80.375
842.69	65.879
842.86	67.513
843.03	93.647
843.20	76.423
843.37	72.913
843.54	72.962
843.71	76.377
843.88	74.637
844.06	89.408
844.23	94.464
844.40	71.560
844.57	84.667
844.74	79.889
844.91	111.017
845.08	91.358
845.25	102.335
845.42	87.380
845.59	97.500
845.76	91.296
845.94	114.734
846.11	104.681
846.28	113.315
846.45	103.823
846.62	109.311
846.79	97.233
846.96	98.785
847.13	102.682
847.30	96.581
847.47	87.066
847.64	90.295
847.81	110.458
847.98	105.882
848.15	99.217
848.32	132.037
848.50	104.009
848.67	87.636
848.84	118.005
849.01	99.758
849.18	98.864
849.35	117.676
849.52	103.870
849.69	116.790
849.86	130.508
850.03	104.330
850.20	117.401
850.37	144.138
850.54	105.610
850.71	126.554
850.88	115.339
851.05	110.287
851.22	113.861
851.39	103.672
851.56	97.277
851.73	137.216
851.90	116.502
852.07	89.378
852.24	107.534
852.41	103.632
852.58	136.387
852.75	107.289
852.92	103.722
853.09	110.290
853.26	122.381
853.43	104.380
853.60	113.663
853.77	91.892
853.94	93.582
854.11	134.435
854.28	139.898
854.45	93.777
854.62	105.040
854.79	122.652
854.96	91.475
855.13	110.552
855.30	118.493
855.47	117.073
855.64	99.377
855.81	93.792
855.98	97.222
856.15	128.906
856.32	129.293
856.49	114.615
856.66	100.321
856.83	108.273
857.00	96.448
857.17	118.817
857.34	102.926
857.51	116.935
857.68	121.672
857.85	122.350
858.02	126.267
858.19	139.423
858.36	111.264
858.53	96.407
858.70	112.176
858.87	151.852
859.04	90.833
859.21	101.441
859.38	105.276
859.55	124.742
859.72	134.254
859.89	117.877
860.05	105.897
860.22	122.436
860.39	127.439
860.56	118.237
860.73	101.647
860.90	117.241
861.07	115.493
861.24	107.399
861.41	123.861
861.58	113.971
861.75	121.384
861.92	118.357
862.09	118.394
862.26	110.526
862.43	109.217
862.59	133.692
862.76	98.447
862.93	128.108
863.10	100.580
863.27	97.966
863.44	93.128
863.61	127.301
863.78	94.369
863.95	113.613
864.12	114.713
864.29	112.121
864.45	110.000
864.62	121.485
864.79	110.540
864.96	103.632
865.13	83.791
865.30	126.420
865.47	82.618
865.64	102.105
865.81	106.702
865.97	90.852
866.14	93.158
866.31	87.500
866.48	113.086
866.65	94.226
866.82	111.241
866.99	105.672
867.16	110.249
867.33	110.972
867.49	168.163
867.66	91.429
867.83	105.660
868.00	108.395
868.17	88.636
868.34	112.821
868.51	77.612
868.67	109.677
868.84	120.370
869.01	136.774
869.18	88.372
869.35	108.871
869.52	100.836
869.69	116.046
869.85	100.000
870.02	106.711
870.19	113.099
870.36	136.308
870.53	96.244
870.70	105.785
870.86	116.061
871.03	100.815
871.20	107.377
871.37	118.987
871.54	102.874
871.71	93.612
871.87	107.588
872.04	113.859
872.21	102.299
872.38	123.214
872.55	113.239
872.72	81.471
872.88	107.196
873.05	84.716
873.22	166.383
873.39	100.535
873.56	133.913
873.72	106.283
873.89	125.000
874.06	104.985
874.23	91.445
874.40	106.442
874.56	128.743
874.73	94.207
874.90	91.049
875.07	122.222
875.24	96.456
875.40	73.059
875.57	113.483
875.74	98.310
875.91	95.377
876.08	103.284
876.24	123.848
876.41	124.079
876.58	105.952
876.75	101.972
876.92	115.033
877.08	103.258
877.25	100.254
877.42	110.315
877.59	91.395
877.75	131.792
877.92	85.638
878.09	89.034
878.26	107.572
878.42	110.882
878.59	114.324
878.76	92.020
878.93	100.484
879.09	97.143
879.26	66.304
879.43	90.541
879.60	92.405
879.76	85.487
879.93	78.652
880.10	75.610
880.27	72.275
880.43	74.254
880.60	60.231
880.77	61.427
880.94	56.561
881.10	37.014
881.27	52.591
881.44	36.679
881.61	48.912
881.77	48.417
881.94	42.637
882.11	38.573
882.28	38.370
882.44	38.883
882.61	38.749
882.78	35.366
882.94	42.175
883.11	38.780
883.28	41.211
883.45	40.822
883.61	38.288
883.78	41.838
883.95	41.507
884.11	40.362
884.28	46.355
>>>>>End Processed Spectral Data<<<<<
