SpectraSuite Data File
++++++++++++++++++++++++++++++++++++
Date: Thu Sep 26 04:14:01 EST 2019
User: sgrac
Dark Spectrum Present: Yes
Reference Spectrum Present: Yes
Number of Sampled Component Spectra: 1
Spectrometers: USB4E01596
Integration Time (usec): 100000 (USB4E01596)
Spectra Averaged: 3 (USB4E01596)
Boxcar Smoothing: 0 (USB4E01596)
Correct for Electrical Dark: No (USB4E01596)
Strobe/Lamp Enabled: Yes (USB4E01596)
Correct for Detector Non-linearity: No (USB4E01596)
Correct for Stray Light: No (USB4E01596)
Number of Pixels in Processed Spectrum: 3648
>>>>>Begin Processed Spectral Data<<<<<
178.44	-1725.000
178.66	-1725.000
178.87	-1725.000
179.09	-393.878
179.30	-165.476
179.52	-1118.182
179.74	-583.333
179.95	-1815.385
180.17	363.855
180.38	1878.571
180.60	442.857
180.82	436.145
181.03	466.667
181.25	330.769
181.46	-935.484
181.68	453.333
181.89	2013.333
182.11	-1355.556
182.33	334.951
182.54	401.149
182.76	617.857
182.97	1007.407
183.19	201.863
183.40	276.699
183.62	2687.500
183.84	368.478
184.05	2458.333
184.27	336.082
184.48	-863.889
184.70	1950.000
184.91	401.000
185.13	1600.000
185.34	762.162
185.56	2600.000
185.78	338.144
185.99	406.494
186.21	822.857
186.42	1540.000
186.64	1366.667
186.85	342.857
187.07	375.714
187.28	394.737
187.50	1352.174
187.72	1272.222
187.93	755.319
188.15	611.321
188.36	815.625
188.58	8333.333
188.79	902.500
189.01	3750.000
189.22	312.500
189.44	1120.833
189.65	3244.444
189.87	783.784
190.09	1112.903
190.30	519.048
190.52	-28400.000
190.73	-25600.000
190.95	1125.000
191.16	313.761
191.38	320.652
191.59	1114.706
191.81	501.724
192.02	926.667
192.24	389.041
192.45	249.474
192.67	687.234
192.88	712.821
193.10	381.395
193.31	360.674
193.53	1488.235
193.74	348.780
193.96	393.750
194.18	1236.842
194.39	269.565
194.61	2327.273
194.82	358.108
195.04	236.190
195.25	319.531
195.47	950.000
195.68	325.316
195.90	1085.000
196.11	336.000
196.33	1084.615
196.54	507.937
196.76	803.571
196.97	1213.636
197.19	716.667
197.40	-706.667
197.62	490.909
197.83	261.345
198.05	660.377
198.26	477.465
198.48	2433.333
198.69	0.000
198.91	3111.111
199.12	483.333
199.34	447.826
199.55	296.396
199.77	425.287
199.98	9866.667
200.20	392.424
200.41	285.047
200.63	1142.857
200.84	565.217
201.06	254.310
201.27	1328.571
201.49	1525.000
201.70	-1771.429
201.91	370.213
202.13	738.462
202.34	-529.167
202.56	651.515
202.77	2460.000
202.99	879.412
203.20	488.525
203.42	630.909
203.63	326.374
203.85	213.869
204.06	607.895
204.28	319.048
204.49	752.941
204.71	401.408
204.92	-12900.000
205.14	885.714
205.35	449.275
205.56	1037.500
205.78	537.288
205.99	479.245
206.21	286.111
206.42	330.682
206.64	946.875
206.85	336.905
207.07	202.400
207.28	223.077
207.50	459.091
207.71	1257.143
207.93	-719.444
208.14	-2290.909
208.35	984.000
208.57	313.333
208.78	558.000
209.00	707.895
209.21	7200.000
209.43	304.808
209.64	937.500
209.86	4920.000
210.07	600.000
210.28	-526.316
210.50	7400.000
210.71	933.333
210.93	193.966
211.14	519.231
211.36	1200.000
211.57	621.429
211.78	923.810
212.00	1070.833
212.21	550.000
212.43	583.333
212.64	251.456
212.86	482.051
213.07	259.649
213.29	1460.000
213.50	397.468
213.71	227.419
213.93	790.909
214.14	272.115
214.36	232.353
214.57	672.340
214.78	287.805
215.00	381.176
215.21	275.309
215.43	970.370
215.64	339.130
215.86	273.381
216.07	1160.000
216.28	381.013
216.50	332.075
216.71	347.561
216.93	678.571
217.14	2636.364
217.35	760.000
217.57	470.968
217.78	306.195
218.00	269.149
218.21	223.684
218.42	532.558
218.64	308.911
218.85	270.536
219.07	337.000
219.28	885.714
219.49	673.684
219.71	526.000
219.92	-2660.000
220.14	489.062
220.35	1283.333
220.56	-11400.000
220.78	233.333
220.99	622.500
221.21	346.988
221.42	408.974
221.63	474.468
221.85	0.000
222.06	258.491
222.28	714.286
222.49	410.606
222.70	1650.000
222.92	394.872
223.13	169.444
223.34	346.739
223.56	264.348
223.77	185.987
223.99	195.031
224.20	239.744
224.41	559.574
224.63	177.551
224.84	204.505
225.05	251.908
225.27	187.861
225.48	337.719
225.69	191.758
225.91	268.696
226.12	165.584
226.34	154.118
226.55	120.588
226.76	153.623
226.98	111.017
227.19	137.989
227.40	182.778
227.62	108.955
227.83	133.735
228.04	119.643
228.26	88.747
228.47	82.598
228.69	59.016
228.90	58.797
229.11	38.878
229.33	66.963
229.54	40.116
229.75	52.949
229.97	43.171
230.18	53.296
230.39	48.770
230.61	39.895
230.82	57.799
231.03	36.000
231.25	55.946
231.46	45.081
231.67	54.810
231.89	53.683
232.10	51.049
232.31	61.111
232.53	61.660
232.74	53.480
232.95	63.514
233.17	46.154
233.38	61.470
233.59	69.805
233.81	55.853
234.02	62.525
234.23	48.898
234.45	66.667
234.66	46.555
234.87	61.221
235.09	58.813
235.30	52.000
235.51	59.781
235.73	51.414
235.94	50.600
236.15	56.228
236.36	60.587
236.58	53.323
236.79	56.881
237.00	46.678
237.22	46.014
237.43	54.663
237.64	61.466
237.86	49.667
238.07	63.003
238.28	46.897
238.50	50.000
238.71	48.397
238.92	53.067
239.13	42.620
239.35	51.543
239.56	44.968
239.77	52.699
239.99	46.728
240.20	61.468
240.41	42.605
240.63	47.568
240.84	46.326
241.05	32.735
241.26	35.922
241.48	42.830
241.69	34.598
241.90	30.524
242.12	34.100
242.33	41.629
242.54	29.119
242.75	28.741
242.97	42.652
243.18	29.163
243.39	26.437
243.61	31.806
243.82	36.250
244.03	34.449
244.24	33.288
244.46	32.530
244.67	41.204
244.88	37.090
245.09	30.068
245.31	31.870
245.52	32.988
245.73	34.193
245.95	47.661
246.16	31.921
246.37	23.412
246.58	30.602
246.80	31.873
247.01	35.765
247.22	28.925
247.43	34.929
247.65	34.173
247.86	33.003
248.07	27.775
248.28	32.979
248.50	37.573
248.71	31.939
248.92	35.254
249.13	35.749
249.35	36.270
249.56	33.973
249.77	36.602
249.98	31.689
250.20	35.605
250.41	36.514
250.62	39.057
250.83	31.810
251.05	35.520
251.26	26.258
251.47	34.277
251.68	31.452
251.90	25.376
252.11	32.324
252.32	28.011
252.53	35.045
252.75	26.087
252.96	34.366
253.17	31.519
253.38	26.420
253.59	33.634
253.81	27.617
254.02	28.838
254.23	29.760
254.44	25.603
254.66	31.214
254.87	27.200
255.08	30.402
255.29	35.262
255.50	24.038
255.72	34.269
255.93	33.135
256.14	38.840
256.35	29.803
256.57	31.885
256.78	27.568
256.99	26.758
257.20	32.301
257.41	29.153
257.63	23.293
257.84	29.608
258.05	28.450
258.26	25.922
258.47	27.087
258.69	24.345
258.90	18.649
259.11	26.625
259.32	20.513
259.53	24.720
259.75	22.809
259.96	23.014
260.17	23.568
260.38	27.393
260.59	27.923
260.81	30.179
261.02	29.526
261.23	31.283
261.44	29.934
261.65	32.632
261.87	30.522
262.08	32.830
262.29	33.552
262.50	28.360
262.71	25.126
262.92	32.139
263.14	24.016
263.35	25.890
263.56	26.743
263.77	26.726
263.98	23.092
264.20	30.697
264.41	19.393
264.62	22.536
264.83	19.384
265.04	31.977
265.25	23.899
265.47	26.927
265.68	29.741
265.89	21.642
266.10	18.566
266.31	32.200
266.52	22.340
266.74	20.879
266.95	18.633
267.16	25.076
267.37	23.444
267.58	20.151
267.79	23.321
268.01	23.893
268.22	24.834
268.43	26.719
268.64	28.217
268.85	25.763
269.06	21.859
269.27	28.410
269.49	22.219
269.70	24.381
269.91	24.131
270.12	22.689
270.33	25.900
270.54	24.493
270.75	20.146
270.97	25.210
271.18	17.587
271.39	21.325
271.60	24.955
271.81	23.213
272.02	20.748
272.23	25.014
272.45	21.188
272.66	23.154
272.87	25.166
273.08	23.090
273.29	25.119
273.50	24.878
273.71	24.658
273.92	22.801
274.14	26.797
274.35	24.183
274.56	26.704
274.77	25.600
274.98	25.949
275.19	25.624
275.40	22.664
275.61	23.106
275.83	26.536
276.04	25.531
276.25	25.582
276.46	24.105
276.67	26.296
276.88	27.588
277.09	22.202
277.30	27.549
277.51	20.794
277.73	22.789
277.94	18.443
278.15	24.157
278.36	25.253
278.57	20.969
278.78	24.005
278.99	23.577
279.20	24.764
279.41	27.217
279.62	20.396
279.84	21.041
280.05	19.263
280.26	16.906
280.47	25.943
280.68	20.516
280.89	21.958
281.10	23.652
281.31	18.505
281.52	26.294
281.73	17.543
281.94	18.219
282.16	21.228
282.37	20.862
282.58	18.924
282.79	27.343
283.00	24.640
283.21	20.313
283.42	20.088
283.63	21.056
283.84	18.276
284.05	21.977
284.26	22.480
284.47	25.660
284.68	21.444
284.89	20.660
285.11	18.180
285.32	19.289
285.53	20.947
285.74	23.748
285.95	21.633
286.16	23.301
286.37	21.210
286.58	22.938
286.79	19.780
287.00	22.378
287.21	21.527
287.42	23.540
287.63	21.536
287.84	20.921
288.05	22.465
288.26	21.285
288.48	22.349
288.69	19.300
288.90	19.856
289.11	22.769
289.32	20.890
289.53	21.129
289.74	16.172
289.95	19.397
290.16	20.000
290.37	18.733
290.58	15.779
290.79	15.861
291.00	17.865
291.21	18.561
291.42	17.114
291.63	19.925
291.84	21.431
292.05	18.759
292.26	17.797
292.47	19.922
292.68	17.009
292.89	19.416
293.10	19.116
293.31	22.678
293.52	14.257
293.73	15.725
293.94	17.836
294.15	17.215
294.36	15.717
294.57	17.895
294.79	17.927
295.00	14.712
295.21	20.239
295.42	19.271
295.63	18.444
295.84	16.494
296.05	13.938
296.26	16.640
296.47	19.413
296.68	17.483
296.89	19.250
297.10	20.644
297.31	16.602
297.52	16.771
297.73	18.874
297.94	18.633
298.15	16.518
298.36	18.814
298.57	16.958
298.78	19.790
298.99	16.894
299.20	18.118
299.41	19.891
299.62	19.148
299.83	14.396
300.04	18.984
300.25	18.322
300.46	18.461
300.67	18.918
300.88	20.081
301.09	13.229
301.30	17.558
301.50	14.213
301.71	20.720
301.92	19.244
302.13	15.104
302.34	16.474
302.55	15.091
302.76	15.757
302.97	17.232
303.18	15.743
303.39	15.260
303.60	15.039
303.81	18.472
304.02	13.100
304.23	15.361
304.44	12.438
304.65	15.963
304.86	16.733
305.07	14.787
305.28	14.780
305.49	19.813
305.70	15.889
305.91	13.415
306.12	16.214
306.33	16.002
306.54	13.566
306.75	17.685
306.96	19.343
307.17	15.956
307.38	12.287
307.58	13.988
307.79	16.358
308.00	16.395
308.21	14.562
308.42	16.268
308.63	14.406
308.84	15.903
309.05	15.000
309.26	12.783
309.47	15.970
309.68	15.938
309.89	16.984
310.10	15.910
310.31	14.462
310.52	16.222
310.73	18.948
310.94	15.489
311.14	14.454
311.35	16.250
311.56	16.260
311.77	15.740
311.98	13.929
312.19	15.625
312.40	13.578
312.61	16.503
312.82	14.142
313.03	16.021
313.24	16.435
313.45	17.670
313.66	14.023
313.86	16.848
314.07	14.781
314.28	16.780
314.49	12.673
314.70	17.404
314.91	17.772
315.12	14.033
315.33	17.080
315.54	14.719
315.75	13.544
315.96	13.039
316.16	9.578
316.37	17.302
316.58	15.744
316.79	15.884
317.00	17.417
317.21	16.013
317.42	15.335
317.63	16.571
317.84	13.153
318.05	14.907
318.25	13.838
318.46	15.244
318.67	13.993
318.88	14.698
319.09	16.400
319.30	13.186
319.51	13.583
319.72	15.118
319.93	13.161
320.13	12.044
320.34	15.158
320.55	13.538
320.76	15.743
320.97	13.496
321.18	15.534
321.39	14.358
321.60	13.607
321.80	18.656
322.01	15.379
322.22	13.008
322.43	9.856
322.64	10.922
322.85	15.182
323.06	16.341
323.27	15.550
323.47	13.865
323.68	14.088
323.89	12.756
324.10	15.643
324.31	11.895
324.52	15.960
324.73	14.818
324.93	14.344
325.14	14.966
325.35	15.296
325.56	13.851
325.77	14.379
325.98	14.585
326.19	12.797
326.39	11.516
326.60	14.100
326.81	13.276
327.02	10.180
327.23	12.620
327.44	16.041
327.64	10.818
327.85	11.421
328.06	16.225
328.27	18.543
328.48	16.889
328.69	11.683
328.90	13.443
329.10	12.603
329.31	14.850
329.52	14.225
329.73	14.506
329.94	11.816
330.15	15.064
330.35	15.312
330.56	13.321
330.77	11.862
330.98	12.959
331.19	12.479
331.39	12.497
331.60	11.932
331.81	11.741
332.02	15.892
332.23	12.973
332.44	12.405
332.64	14.764
332.85	12.559
333.06	13.272
333.27	12.073
333.48	13.569
333.68	14.261
333.89	12.862
334.10	9.098
334.31	15.785
334.52	13.683
334.72	14.007
334.93	13.985
335.14	11.989
335.35	12.062
335.56	16.289
335.76	10.636
335.97	13.907
336.18	10.724
336.39	15.386
336.60	13.969
336.80	12.917
337.01	13.321
337.22	13.844
337.43	14.246
337.64	16.023
337.84	14.557
338.05	12.368
338.26	15.349
338.47	15.818
338.68	11.494
338.88	14.166
339.09	12.677
339.30	14.812
339.51	13.165
339.71	15.515
339.92	12.881
340.13	12.081
340.34	12.259
340.55	13.729
340.75	13.899
340.96	11.903
341.17	13.959
341.38	12.507
341.58	12.024
341.79	12.630
342.00	11.610
342.21	13.179
342.41	10.980
342.62	13.132
342.83	14.249
343.04	10.134
343.24	14.019
343.45	12.865
343.66	10.873
343.87	12.744
344.07	12.282
344.28	14.115
344.49	13.217
344.70	15.174
344.90	11.902
345.11	12.413
345.32	10.843
345.53	12.440
345.73	13.290
345.94	13.957
346.15	14.205
346.36	12.614
346.56	13.930
346.77	14.515
346.98	12.085
347.19	15.042
347.39	14.430
347.60	12.873
347.81	12.744
348.02	14.374
348.22	10.591
348.43	12.972
348.64	10.587
348.84	12.997
349.05	11.614
349.26	14.909
349.47	12.422
349.67	11.722
349.88	12.013
350.09	12.939
350.30	14.699
350.50	13.938
350.71	13.796
350.92	12.873
351.12	12.832
351.33	12.591
351.54	12.524
351.74	14.165
351.95	12.470
352.16	13.428
352.37	13.934
352.57	12.991
352.78	13.266
352.99	11.816
353.19	11.939
353.40	12.379
353.61	14.644
353.82	13.287
354.02	13.554
354.23	14.653
354.44	14.498
354.64	14.003
354.85	12.948
355.06	14.225
355.26	12.227
355.47	13.466
355.68	15.621
355.88	15.676
356.09	14.045
356.30	12.264
356.51	15.328
356.71	14.427
356.92	11.409
357.13	14.465
357.33	16.083
357.54	15.183
357.75	11.348
357.95	14.373
358.16	13.496
358.37	16.841
358.57	13.006
358.78	17.143
358.99	13.878
359.19	14.931
359.40	14.924
359.61	13.926
359.81	15.878
360.02	18.336
360.23	13.268
360.43	14.758
360.64	14.293
360.85	14.388
361.05	12.726
361.26	15.609
361.47	13.892
361.67	15.785
361.88	12.975
362.09	15.737
362.29	13.719
362.50	15.180
362.70	13.434
362.91	16.524
363.12	14.309
363.32	16.571
363.53	15.148
363.74	15.093
363.94	13.735
364.15	16.713
364.36	14.937
364.56	13.413
364.77	14.355
364.98	17.750
365.18	14.387
365.39	15.982
365.59	13.222
365.80	14.092
366.01	15.198
366.21	14.469
366.42	12.632
366.63	15.037
366.83	14.316
367.04	12.750
367.24	14.936
367.45	12.732
367.66	13.001
367.86	15.399
368.07	14.769
368.28	15.117
368.48	13.652
368.69	12.682
368.89	14.165
369.10	13.940
369.31	13.831
369.51	13.999
369.72	14.782
369.92	15.440
370.13	12.442
370.34	15.475
370.54	13.076
370.75	15.492
370.95	12.113
371.16	15.132
371.37	13.335
371.57	14.581
371.78	13.980
371.98	15.503
372.19	14.491
372.40	16.040
372.60	14.920
372.81	14.177
373.01	13.038
373.22	14.006
373.43	15.017
373.63	15.745
373.84	15.497
374.04	15.503
374.25	14.834
374.46	15.683
374.66	14.955
374.87	16.176
375.07	12.382
375.28	13.472
375.48	14.871
375.69	16.419
375.90	13.660
376.10	13.665
376.31	14.452
376.51	14.074
376.72	14.653
376.92	14.911
377.13	15.428
377.34	15.644
377.54	14.963
377.75	16.821
377.95	15.073
378.16	16.298
378.36	16.487
378.57	17.072
378.77	14.982
378.98	17.028
379.19	15.539
379.39	15.573
379.60	16.095
379.80	16.474
380.01	16.336
380.21	15.246
380.42	16.553
380.62	16.647
380.83	16.859
381.04	15.806
381.24	15.970
381.45	17.127
381.65	15.561
381.86	16.508
382.06	17.245
382.27	15.620
382.47	15.393
382.68	17.769
382.88	14.967
383.09	16.189
383.29	16.237
383.50	18.237
383.71	15.503
383.91	16.665
384.12	17.111
384.32	17.150
384.53	17.941
384.73	17.293
384.94	16.755
385.14	17.315
385.35	17.169
385.55	17.610
385.76	16.841
385.96	17.755
386.17	17.328
386.37	18.767
386.58	18.376
386.78	19.979
386.99	17.522
387.19	19.507
387.40	17.630
387.60	19.993
387.81	18.416
388.01	19.235
388.22	19.365
388.42	20.580
388.63	20.161
388.83	20.443
389.04	18.380
389.24	20.340
389.45	19.484
389.65	20.731
389.86	19.029
390.06	19.565
390.27	18.926
390.47	20.714
390.68	19.434
390.88	21.070
391.09	20.652
391.29	20.784
391.50	21.047
391.70	21.803
391.91	21.030
392.11	22.278
392.32	22.378
392.52	23.088
392.73	22.101
392.93	23.085
393.14	22.514
393.34	22.465
393.55	23.030
393.75	23.967
393.95	22.990
394.16	24.310
394.36	22.950
394.57	24.116
394.77	23.573
394.98	25.083
395.18	24.090
395.39	23.334
395.59	24.830
395.80	24.622
396.00	24.417
396.21	25.227
396.41	24.624
396.61	25.885
396.82	24.290
397.02	26.353
397.23	25.477
397.43	25.394
397.64	24.024
397.84	25.758
398.05	24.488
398.25	25.752
398.45	25.187
398.66	26.852
398.86	26.036
399.07	27.251
399.27	24.795
399.48	26.937
399.68	25.668
399.89	25.802
400.09	26.361
400.29	26.561
400.50	25.944
400.70	26.620
400.91	24.886
401.11	26.560
401.32	25.966
401.52	26.117
401.72	25.931
401.93	27.530
402.13	26.096
402.34	26.408
402.54	26.630
402.75	27.204
402.95	26.260
403.15	28.253
403.36	25.169
403.56	27.497
403.77	26.655
403.97	26.519
404.17	25.767
404.38	27.039
404.58	25.775
404.79	27.217
404.99	26.493
405.19	26.364
405.40	26.844
405.60	26.840
405.81	26.818
406.01	26.882
406.21	26.472
406.42	27.896
406.62	27.482
406.83	27.709
407.03	26.643
407.23	26.762
407.44	26.072
407.64	27.067
407.85	26.949
408.05	27.332
408.25	26.264
408.46	28.232
408.66	26.730
408.87	27.306
409.07	26.836
409.27	26.492
409.48	27.213
409.68	28.103
409.88	25.754
410.09	27.335
410.29	27.090
410.50	27.053
410.70	25.182
410.90	26.995
411.11	25.655
411.31	26.511
411.51	27.317
411.72	27.382
411.92	26.325
412.12	26.544
412.33	25.883
412.53	25.637
412.74	25.463
412.94	26.759
413.14	27.058
413.35	26.557
413.55	25.776
413.75	26.908
413.96	25.714
414.16	26.637
414.36	25.604
414.57	27.094
414.77	25.413
414.97	26.621
415.18	25.437
415.38	26.709
415.58	25.390
415.79	26.804
415.99	25.818
416.19	25.801
416.40	26.063
416.60	25.995
416.80	26.313
417.01	26.483
417.21	25.551
417.41	25.791
417.62	25.957
417.82	25.949
418.02	24.999
418.23	26.633
418.43	25.371
418.63	26.192
418.84	25.989
419.04	25.650
419.24	25.576
419.45	25.328
419.65	26.202
419.85	25.733
420.06	25.303
420.26	25.609
420.46	25.723
420.67	25.277
420.87	25.600
421.07	25.548
421.28	25.434
421.48	25.358
421.68	25.389
421.88	25.568
422.09	24.920
422.29	25.286
422.49	25.164
422.70	25.750
422.90	25.018
423.10	25.176
423.31	25.198
423.51	25.685
423.71	24.708
423.91	25.275
424.12	24.777
424.32	25.296
424.52	24.850
424.73	25.054
424.93	24.717
425.13	24.817
425.33	24.962
425.54	24.747
425.74	25.136
425.94	25.002
426.15	25.050
426.35	24.759
426.55	24.825
426.75	25.165
426.96	25.286
427.16	24.751
427.36	25.033
427.57	25.208
427.77	24.583
427.97	25.290
428.17	24.683
428.38	24.844
428.58	24.820
428.78	25.929
428.98	24.900
429.19	24.758
429.39	24.940
429.59	24.679
429.79	24.763
430.00	24.906
430.20	24.184
430.40	24.630
430.60	25.011
430.81	24.763
431.01	24.790
431.21	25.115
431.41	24.123
431.62	24.399
431.82	24.374
432.02	24.638
432.22	24.842
432.43	24.519
432.63	24.393
432.83	24.159
433.03	24.285
433.24	24.151
433.44	24.147
433.64	24.824
433.84	24.195
434.05	23.631
434.25	24.386
434.45	24.251
434.65	24.343
434.85	24.402
435.06	24.563
435.26	24.832
435.46	24.400
435.66	24.892
435.87	24.403
436.07	24.083
436.27	24.234
436.47	24.393
436.67	24.421
436.88	24.597
437.08	24.042
437.28	24.125
437.48	24.004
437.69	23.806
437.89	23.852
438.09	24.547
438.29	23.401
438.49	24.702
438.70	24.264
438.90	24.178
439.10	23.932
439.30	24.048
439.50	24.134
439.71	23.823
439.91	24.018
440.11	24.110
440.31	23.352
440.51	23.998
440.72	23.544
440.92	23.574
441.12	23.752
441.32	24.200
441.52	24.470
441.72	24.148
441.93	24.014
442.13	23.819
442.33	23.878
442.53	24.123
442.73	23.794
442.94	24.541
443.14	24.074
443.34	24.296
443.54	23.998
443.74	23.958
443.94	24.357
444.15	24.306
444.35	24.064
444.55	23.902
444.75	24.389
444.95	23.827
445.15	23.421
445.36	23.601
445.56	22.913
445.76	23.425
445.96	23.702
446.16	23.294
446.36	23.513
446.57	23.521
446.77	23.196
446.97	23.509
447.17	23.463
447.37	23.534
447.57	23.754
447.77	23.735
447.98	23.518
448.18	23.729
448.38	23.907
448.58	23.958
448.78	24.081
448.98	23.916
449.18	23.523
449.39	23.977
449.59	24.093
449.79	24.189
449.99	24.211
450.19	24.115
450.39	23.459
450.59	23.591
450.79	23.922
451.00	23.426
451.20	24.292
451.40	23.894
451.60	23.568
451.80	23.428
452.00	23.219
452.20	24.041
452.40	23.381
452.61	23.064
452.81	23.288
453.01	23.400
453.21	23.248
453.41	23.239
453.61	23.304
453.81	23.252
454.01	23.756
454.21	23.807
454.42	23.255
454.62	23.654
454.82	22.972
455.02	23.380
455.22	23.373
455.42	23.238
455.62	23.548
455.82	23.395
456.02	23.007
456.23	23.418
456.43	23.153
456.63	23.391
456.83	23.244
457.03	23.369
457.23	23.500
457.43	23.116
457.63	23.292
457.83	23.699
458.03	22.949
458.23	23.007
458.43	23.428
458.64	23.246
458.84	23.329
459.04	23.119
459.24	22.992
459.44	23.058
459.64	22.420
459.84	22.837
460.04	22.589
460.24	23.007
460.44	23.040
460.64	23.001
460.84	23.022
461.04	22.888
461.24	22.772
461.45	22.672
461.65	23.072
461.85	22.972
462.05	22.963
462.25	23.408
462.45	23.141
462.65	23.171
462.85	23.004
463.05	22.844
463.25	22.818
463.45	23.111
463.65	23.319
463.85	22.918
464.05	23.519
464.25	22.953
464.45	22.663
464.65	22.696
464.85	22.672
465.05	22.256
465.26	22.521
465.46	22.949
465.66	22.894
465.86	23.427
466.06	22.998
466.26	22.832
466.46	22.306
466.66	22.655
466.86	22.396
467.06	23.019
467.26	22.474
467.46	22.791
467.66	22.462
467.86	22.665
468.06	22.424
468.26	22.561
468.46	22.283
468.66	23.165
468.86	22.395
469.06	23.115
469.26	22.964
469.46	22.101
469.66	22.266
469.86	22.874
470.06	22.981
470.26	22.655
470.46	22.085
470.66	23.025
470.86	22.759
471.06	22.978
471.26	22.626
471.46	23.000
471.66	22.672
471.86	23.234
472.06	23.051
472.26	22.951
472.46	22.906
472.66	22.879
472.86	22.986
473.06	22.853
473.26	23.548
473.46	22.770
473.66	22.352
473.86	23.086
474.06	22.452
474.26	22.911
474.46	22.761
474.66	22.627
474.86	22.632
475.06	23.046
475.26	22.882
475.46	22.489
475.66	22.855
475.86	22.889
476.06	22.384
476.26	23.195
476.46	23.041
476.66	22.765
476.86	22.486
477.06	23.056
477.26	22.781
477.46	22.629
477.65	22.679
477.85	22.510
478.05	22.821
478.25	22.838
478.45	22.267
478.65	23.130
478.85	22.352
479.05	22.836
479.25	22.850
479.45	22.923
479.65	22.842
479.85	23.225
480.05	22.887
480.25	22.717
480.45	23.098
480.65	23.229
480.85	23.077
481.05	23.144
481.25	22.331
481.44	22.530
481.64	22.397
481.84	23.145
482.04	23.088
482.24	23.124
482.44	22.480
482.64	22.943
482.84	22.564
483.04	22.440
483.24	22.228
483.44	22.021
483.64	21.824
483.84	21.930
484.04	22.262
484.23	22.591
484.43	23.055
484.63	23.399
484.83	23.494
485.03	24.376
485.23	24.105
485.43	24.028
485.63	23.644
485.83	23.468
486.03	23.463
486.23	23.595
486.42	23.361
486.62	23.252
486.82	22.908
487.02	22.781
487.22	22.715
487.42	22.722
487.62	23.044
487.82	22.744
488.02	22.596
488.22	22.774
488.41	22.814
488.61	23.013
488.81	23.046
489.01	23.404
489.21	23.197
489.41	23.330
489.61	22.837
489.81	23.295
490.01	22.992
490.20	23.451
490.40	22.843
490.60	23.288
490.80	22.730
491.00	22.761
491.20	22.750
491.40	22.567
491.60	22.286
491.79	22.757
491.99	22.794
492.19	22.781
492.39	22.631
492.59	22.715
492.79	22.841
492.99	22.886
493.19	23.182
493.38	23.191
493.58	23.403
493.78	23.300
493.98	23.244
494.18	23.488
494.38	22.981
494.58	23.247
494.77	23.344
494.97	22.950
495.17	22.897
495.37	23.271
495.57	22.791
495.77	23.405
495.96	23.127
496.16	22.639
496.36	23.112
496.56	22.742
496.76	23.150
496.96	22.742
497.15	22.625
497.35	23.036
497.55	22.708
497.75	23.208
497.95	22.751
498.15	22.933
498.34	23.299
498.54	22.921
498.74	23.691
498.94	23.215
499.14	23.237
499.34	22.880
499.53	22.650
499.73	22.827
499.93	23.065
500.13	23.655
500.33	23.455
500.52	23.232
500.72	23.252
500.92	23.148
501.12	23.120
501.32	23.162
501.52	22.958
501.71	23.077
501.91	23.316
502.11	23.571
502.31	22.902
502.51	23.509
502.70	23.413
502.90	23.165
503.10	23.437
503.30	23.586
503.50	23.543
503.69	22.957
503.89	22.983
504.09	23.156
504.29	23.627
504.48	23.520
504.68	23.347
504.88	23.506
505.08	23.211
505.28	23.474
505.47	23.841
505.67	23.265
505.87	23.700
506.07	23.746
506.27	23.885
506.46	23.604
506.66	23.674
506.86	23.243
507.06	23.690
507.25	23.791
507.45	23.570
507.65	23.691
507.85	23.760
508.04	23.853
508.24	23.951
508.44	23.574
508.64	23.552
508.83	23.734
509.03	23.597
509.23	23.966
509.43	23.808
509.63	23.910
509.82	23.724
510.02	23.984
510.22	24.066
510.42	24.327
510.61	24.136
510.81	23.983
511.01	23.967
511.21	24.250
511.40	23.956
511.60	24.216
511.80	23.976
511.99	24.216
512.19	24.282
512.39	23.975
512.59	24.172
512.78	23.759
512.98	24.169
513.18	24.094
513.38	24.174
513.57	24.433
513.77	24.540
513.97	24.540
514.17	24.524
514.36	24.223
514.56	24.612
514.76	24.820
514.95	24.595
515.15	24.771
515.35	24.778
515.55	24.660
515.74	24.688
515.94	24.898
516.14	24.805
516.33	25.172
516.53	24.418
516.73	24.638
516.93	24.480
517.12	24.610
517.32	24.656
517.52	25.008
517.71	24.807
517.91	24.250
518.11	24.830
518.30	24.300
518.50	23.920
518.70	24.087
518.90	24.321
519.09	24.250
519.29	24.313
519.49	24.257
519.68	24.196
519.88	24.340
520.08	24.195
520.27	24.609
520.47	24.677
520.67	24.971
520.86	24.674
521.06	24.779
521.26	24.687
521.45	24.583
521.65	24.595
521.85	24.993
522.04	25.105
522.24	24.839
522.44	24.755
522.63	24.928
522.83	24.738
523.03	25.367
523.22	24.403
523.42	25.185
523.62	25.461
523.81	24.937
524.01	24.860
524.21	24.773
524.40	24.898
524.60	24.837
524.80	24.743
524.99	24.377
525.19	24.324
525.39	24.168
525.58	24.460
525.78	24.347
525.98	23.964
526.17	24.585
526.37	24.567
526.57	24.298
526.76	24.368
526.96	24.040
527.15	24.334
527.35	24.248
527.55	24.473
527.74	24.903
527.94	24.576
528.14	24.430
528.33	23.987
528.53	23.773
528.72	24.057
528.92	24.343
529.12	24.269
529.31	24.556
529.51	24.492
529.71	24.458
529.90	24.716
530.10	25.010
530.29	24.875
530.49	25.147
530.69	24.979
530.88	25.179
531.08	25.078
531.28	25.037
531.47	24.753
531.67	25.061
531.86	24.650
532.06	24.891
532.26	24.371
532.45	24.356
532.65	24.525
532.84	24.204
533.04	24.482
533.24	24.329
533.43	24.028
533.63	24.839
533.82	24.454
534.02	24.909
534.22	24.172
534.41	24.785
534.61	24.483
534.80	24.638
535.00	24.892
535.19	24.946
535.39	25.026
535.59	24.823
535.78	25.280
535.98	24.906
536.17	24.668
536.37	24.690
536.57	24.850
536.76	24.671
536.96	24.996
537.15	24.890
537.35	24.529
537.54	24.694
537.74	24.446
537.93	24.859
538.13	25.073
538.33	24.928
538.52	25.058
538.72	25.094
538.91	25.498
539.11	24.761
539.30	24.981
539.50	24.851
539.70	25.085
539.89	24.797
540.09	25.004
540.28	24.934
540.48	24.820
540.67	25.032
540.87	24.411
541.06	24.669
541.26	24.184
541.45	24.622
541.65	24.524
541.85	24.780
542.04	24.586
542.24	25.043
542.43	24.927
542.63	25.098
542.82	24.897
543.02	24.996
543.21	25.280
543.41	25.334
543.60	25.425
543.80	25.463
543.99	25.024
544.19	25.285
544.38	25.384
544.58	25.375
544.77	24.910
544.97	25.123
545.16	25.419
545.36	25.433
545.56	25.695
545.75	25.179
545.95	25.504
546.14	25.301
546.34	25.416
546.53	25.257
546.73	24.815
546.92	25.410
547.12	24.981
547.31	25.654
547.51	25.744
547.70	25.241
547.90	25.327
548.09	25.800
548.29	25.912
548.48	25.563
548.68	26.042
548.87	25.865
549.07	25.853
549.26	26.009
549.46	25.786
549.65	26.295
549.84	25.999
550.04	26.206
550.23	26.106
550.43	26.247
550.62	26.575
550.82	25.996
551.01	25.595
551.21	25.902
551.40	25.685
551.60	25.904
551.79	26.045
551.99	26.266
552.18	25.469
552.38	26.717
552.57	26.283
552.77	26.088
552.96	26.163
553.16	26.141
553.35	26.492
553.54	25.810
553.74	26.102
553.93	26.290
554.13	26.112
554.32	26.663
554.52	26.879
554.71	26.993
554.91	26.906
555.10	27.321
555.29	26.359
555.49	27.082
555.68	27.296
555.88	26.972
556.07	27.081
556.27	26.955
556.46	26.819
556.66	26.974
556.85	27.496
557.04	26.501
557.24	27.359
557.43	26.855
557.63	27.460
557.82	27.459
558.02	27.087
558.21	27.857
558.40	27.503
558.60	27.564
558.79	27.164
558.99	27.229
559.18	27.478
559.38	27.480
559.57	27.365
559.76	27.564
559.96	27.688
560.15	27.785
560.35	27.666
560.54	27.534
560.73	27.325
560.93	27.504
561.12	28.005
561.32	27.366
561.51	27.807
561.70	27.828
561.90	27.858
562.09	28.438
562.29	27.719
562.48	27.652
562.67	27.862
562.87	28.387
563.06	28.118
563.26	27.736
563.45	28.246
563.64	27.957
563.84	27.949
564.03	28.395
564.23	28.472
564.42	28.248
564.61	27.947
564.81	27.958
565.00	28.047
565.20	28.628
565.39	27.954
565.58	28.183
565.78	27.959
565.97	28.383
566.16	28.619
566.36	28.484
566.55	28.346
566.74	27.989
566.94	28.354
567.13	28.604
567.33	28.803
567.52	28.693
567.71	28.684
567.91	28.706
568.10	28.626
568.29	28.868
568.49	29.138
568.68	29.126
568.87	28.517
569.07	28.746
569.26	29.455
569.45	29.119
569.65	29.155
569.84	28.935
570.04	29.001
570.23	29.231
570.42	28.841
570.62	29.236
570.81	28.816
571.00	28.599
571.20	29.215
571.39	29.004
571.58	29.151
571.78	29.009
571.97	28.974
572.16	29.049
572.36	29.521
572.55	29.520
572.74	29.158
572.94	28.933
573.13	29.303
573.32	29.032
573.51	29.022
573.71	29.462
573.90	29.247
574.09	29.450
574.29	29.328
574.48	29.428
574.67	29.098
574.87	29.968
575.06	29.484
575.25	29.285
575.45	29.662
575.64	29.081
575.83	29.596
576.03	29.860
576.22	29.876
576.41	29.184
576.60	29.830
576.80	29.446
576.99	29.723
577.18	29.589
577.38	29.954
577.57	29.554
577.76	29.990
577.95	29.850
578.15	29.693
578.34	30.129
578.53	29.843
578.73	29.349
578.92	30.527
579.11	29.462
579.30	29.808
579.50	29.612
579.69	30.459
579.88	29.559
580.08	29.991
580.27	30.171
580.46	30.565
580.65	30.463
580.85	29.019
581.04	30.318
581.23	29.999
581.42	30.251
581.62	29.703
581.81	29.893
582.00	29.713
582.19	29.861
582.39	30.271
582.58	29.863
582.77	29.677
582.96	29.793
583.16	30.182
583.35	30.120
583.54	30.281
583.73	29.915
583.93	29.979
584.12	29.672
584.31	29.940
584.50	29.408
584.70	30.398
584.89	29.891
585.08	29.659
585.27	30.393
585.47	28.975
585.66	30.415
585.85	30.127
586.04	30.224
586.24	30.025
586.43	29.660
586.62	29.745
586.81	29.386
587.00	29.892
587.20	29.956
587.39	30.113
587.58	29.324
587.77	30.187
587.97	29.889
588.16	29.639
588.35	29.628
588.54	29.289
588.73	29.289
588.93	29.818
589.12	29.485
589.31	30.165
589.50	29.499
589.69	29.351
589.89	29.608
590.08	28.962
590.27	29.922
590.46	30.048
590.65	30.307
590.85	29.643
591.04	30.148
591.23	29.536
591.42	29.698
591.61	29.709
591.81	29.351
592.00	30.062
592.19	29.745
592.38	29.037
592.57	29.746
592.77	29.758
592.96	30.301
593.15	30.645
593.34	30.413
593.53	30.846
593.72	29.332
593.92	30.254
594.11	30.411
594.30	30.188
594.49	29.696
594.68	29.347
594.87	29.483
595.07	29.687
595.26	29.686
595.45	29.685
595.64	29.754
595.83	29.970
596.02	29.873
596.22	29.800
596.41	29.904
596.60	28.957
596.79	30.248
596.98	29.645
597.17	29.770
597.37	29.810
597.56	29.421
597.75	29.627
597.94	29.934
598.13	29.391
598.32	29.904
598.51	30.196
598.71	30.504
598.90	29.786
599.09	30.249
599.28	30.479
599.47	30.562
599.66	30.389
599.85	30.384
600.05	30.285
600.24	31.031
600.43	30.377
600.62	30.609
600.81	30.514
601.00	31.222
601.19	30.859
601.38	30.655
601.58	30.535
601.77	30.076
601.96	30.469
602.15	31.224
602.34	30.168
602.53	30.547
602.72	30.447
602.91	31.020
603.10	29.880
603.30	30.753
603.49	29.915
603.68	30.452
603.87	30.217
604.06	30.400
604.25	30.614
604.44	30.050
604.63	30.496
604.82	30.130
605.01	30.035
605.21	30.570
605.40	29.812
605.59	30.616
605.78	30.381
605.97	30.138
606.16	31.034
606.35	30.445
606.54	30.192
606.73	29.939
606.92	31.199
607.11	30.234
607.30	30.538
607.50	31.529
607.69	30.817
607.88	30.095
608.07	30.142
608.26	31.450
608.45	30.657
608.64	30.605
608.83	30.706
609.02	30.870
609.21	30.809
609.40	30.164
609.59	30.608
609.78	30.571
609.97	30.161
610.16	30.399
610.35	30.628
610.55	30.398
610.74	30.408
610.93	29.779
611.12	29.767
611.31	30.610
611.50	30.078
611.69	30.015
611.88	31.010
612.07	30.478
612.26	30.251
612.45	30.653
612.64	31.284
612.83	30.585
613.02	30.615
613.21	30.012
613.40	30.944
613.59	31.025
613.78	29.747
613.97	30.478
614.16	30.049
614.35	30.553
614.54	30.173
614.73	30.811
614.92	30.728
615.11	29.642
615.30	29.719
615.49	30.509
615.68	29.636
615.87	30.152
616.07	30.040
616.26	31.023
616.45	30.216
616.64	29.612
616.83	30.719
617.02	30.101
617.21	29.711
617.40	29.942
617.59	30.110
617.78	29.707
617.97	30.241
618.16	30.087
618.35	29.928
618.54	29.575
618.73	29.138
618.92	30.193
619.11	29.206
619.30	30.263
619.49	30.076
619.68	28.809
619.86	29.368
620.05	29.581
620.24	29.590
620.43	29.371
620.62	30.191
620.81	29.516
621.00	29.022
621.19	29.179
621.38	29.801
621.57	29.886
621.76	28.978
621.95	29.667
622.14	29.323
622.33	29.467
622.52	29.161
622.71	29.423
622.90	29.160
623.09	29.241
623.28	28.989
623.47	29.065
623.66	29.176
623.85	29.000
624.04	29.156
624.23	28.986
624.42	29.703
624.61	29.607
624.80	29.357
624.99	28.590
625.18	28.120
625.36	29.313
625.55	29.083
625.74	28.682
625.93	28.961
626.12	29.062
626.31	28.727
626.50	29.442
626.69	29.473
626.88	29.207
627.07	28.937
627.26	28.866
627.45	28.864
627.64	28.528
627.83	28.950
628.02	28.508
628.20	29.098
628.39	28.048
628.58	29.744
628.77	29.191
628.96	28.367
629.15	29.316
629.34	29.733
629.53	28.747
629.72	29.414
629.91	28.838
630.10	28.755
630.29	28.606
630.47	28.813
630.66	29.072
630.85	28.988
631.04	29.109
631.23	29.404
631.42	29.256
631.61	28.943
631.80	29.918
631.99	29.990
632.18	28.733
632.36	29.820
632.55	28.957
632.74	29.302
632.93	29.120
633.12	28.748
633.31	28.259
633.50	29.216
633.69	28.863
633.88	28.620
634.06	29.006
634.25	28.980
634.44	29.485
634.63	28.641
634.82	28.962
635.01	29.609
635.20	28.388
635.39	29.447
635.57	28.441
635.76	28.979
635.95	28.455
636.14	28.728
636.33	29.118
636.52	28.404
636.71	28.869
636.89	29.084
637.08	28.141
637.27	28.933
637.46	29.357
637.65	28.423
637.84	29.082
638.03	28.523
638.21	29.664
638.40	28.285
638.59	28.089
638.78	28.831
638.97	28.611
639.16	29.244
639.34	29.639
639.53	27.953
639.72	28.986
639.91	29.093
640.10	28.438
640.29	29.150
640.47	28.748
640.66	28.936
640.85	29.008
641.04	28.230
641.23	28.501
641.42	29.021
641.60	28.351
641.79	27.824
641.98	28.865
642.17	28.149
642.36	28.843
642.54	28.585
642.73	28.251
642.92	27.768
643.11	28.046
643.30	27.104
643.49	29.678
643.67	27.961
643.86	29.291
644.05	27.589
644.24	28.090
644.43	28.514
644.61	29.083
644.80	27.885
644.99	27.737
645.18	29.319
645.37	29.054
645.55	28.719
645.74	27.308
645.93	29.044
646.12	28.079
646.31	28.020
646.49	27.771
646.68	28.002
646.87	29.323
647.06	28.605
647.24	29.292
647.43	28.159
647.62	29.403
647.81	27.434
648.00	28.210
648.18	27.740
648.37	28.140
648.56	28.538
648.75	27.886
648.93	28.050
649.12	27.458
649.31	27.739
649.50	28.429
649.68	27.340
649.87	28.855
650.06	27.633
650.25	27.964
650.43	28.678
650.62	28.323
650.81	27.780
651.00	28.517
651.18	27.682
651.37	27.720
651.56	26.142
651.75	28.719
651.93	27.944
652.12	28.465
652.31	27.604
652.50	27.868
652.68	27.632
652.87	29.205
653.06	27.260
653.25	28.997
653.43	28.166
653.62	26.680
653.81	27.602
654.00	28.160
654.18	27.040
654.37	27.688
654.56	27.121
654.74	28.526
654.93	27.530
655.12	27.787
655.31	27.356
655.49	29.446
655.68	27.385
655.87	27.046
656.05	27.224
656.24	27.099
656.43	25.977
656.62	27.932
656.80	26.256
656.99	27.037
657.18	26.871
657.36	27.267
657.55	26.406
657.74	27.721
657.93	26.367
658.11	27.668
658.30	26.978
658.49	26.408
658.67	26.811
658.86	26.285
659.05	26.210
659.23	26.732
659.42	26.255
659.61	25.932
659.79	26.366
659.98	26.227
660.17	25.613
660.35	26.822
660.54	25.398
660.73	27.258
660.91	25.519
661.10	26.111
661.29	25.642
661.47	26.520
661.66	25.863
661.85	26.710
662.03	26.915
662.22	25.634
662.41	24.706
662.59	24.837
662.78	25.208
662.97	24.591
663.15	24.936
663.34	24.815
663.53	24.078
663.71	24.976
663.90	24.971
664.09	25.446
664.27	24.448
664.46	23.899
664.65	24.421
664.83	23.648
665.02	24.176
665.21	24.047
665.39	22.908
665.58	24.882
665.77	23.500
665.95	23.698
666.14	22.996
666.32	23.963
666.51	22.765
666.70	24.152
666.88	23.372
667.07	23.536
667.26	22.249
667.44	23.073
667.63	23.785
667.81	23.092
668.00	22.737
668.19	23.638
668.37	21.646
668.56	24.078
668.75	23.136
668.93	24.650
669.12	21.962
669.30	24.249
669.49	23.303
669.68	23.764
669.86	22.764
670.05	22.459
670.23	22.884
670.42	23.760
670.61	23.659
670.79	23.918
670.98	23.285
671.16	24.586
671.35	22.999
671.54	22.720
671.72	22.566
671.91	22.777
672.09	22.218
672.28	24.495
672.46	24.096
672.65	24.561
672.84	22.781
673.02	23.770
673.21	21.461
673.39	23.266
673.58	23.157
673.77	23.229
673.95	24.561
674.14	24.299
674.32	22.964
674.51	24.444
674.69	23.076
674.88	23.160
675.07	22.928
675.25	25.188
675.44	23.346
675.62	23.883
675.81	22.428
675.99	25.813
676.18	24.918
676.36	23.923
676.55	22.792
676.74	25.396
676.92	25.343
677.11	24.874
677.29	23.709
677.48	25.440
677.66	24.399
677.85	24.209
678.03	24.335
678.22	26.128
678.40	24.311
678.59	24.985
678.78	25.507
678.96	26.816
679.15	23.811
679.33	26.146
679.52	25.104
679.70	25.028
679.89	25.052
680.07	25.397
680.26	25.310
680.44	26.555
680.63	24.535
680.81	25.716
681.00	24.177
681.18	25.389
681.37	25.467
681.55	26.369
681.74	26.894
681.92	27.513
682.11	27.275
682.29	25.637
682.48	25.760
682.66	26.856
682.85	27.023
683.03	27.060
683.22	27.976
683.40	26.624
683.59	28.214
683.77	27.733
683.96	26.742
684.14	27.222
684.33	26.406
684.51	28.952
684.70	27.739
684.88	29.354
685.07	28.137
685.25	29.227
685.44	28.859
685.62	29.270
685.81	27.031
685.99	30.009
686.18	27.296
686.36	28.814
686.55	27.467
686.73	30.835
686.92	29.037
687.10	28.990
687.29	30.426
687.47	30.273
687.65	29.500
687.84	29.952
688.02	30.233
688.21	30.691
688.39	29.382
688.58	31.306
688.76	29.235
688.95	31.038
689.13	29.302
689.32	31.518
689.50	31.132
689.68	32.067
689.87	30.227
690.05	33.035
690.24	31.067
690.42	32.007
690.61	31.017
690.79	32.803
690.98	33.806
691.16	34.463
691.34	31.132
691.53	33.217
691.71	32.256
691.90	35.049
692.08	31.574
692.27	34.344
692.45	34.436
692.63	34.303
692.82	34.437
693.00	34.519
693.19	33.688
693.37	33.612
693.56	32.747
693.74	36.071
693.92	34.660
694.11	36.300
694.29	35.289
694.48	36.703
694.66	35.176
694.84	37.458
695.03	34.797
695.21	37.178
695.40	38.888
695.58	36.751
695.76	35.893
695.95	37.726
696.13	36.849
696.32	38.644
696.50	37.706
696.68	38.261
696.87	36.032
697.05	38.463
697.24	38.254
697.42	37.001
697.60	37.437
697.79	38.448
697.97	38.656
698.16	37.140
698.34	36.578
698.52	37.395
698.71	37.952
698.89	37.946
699.07	37.063
699.26	38.297
699.44	37.212
699.63	37.502
699.81	37.693
699.99	38.317
700.18	38.129
700.36	38.009
700.54	38.845
700.73	38.649
700.91	36.810
701.09	39.552
701.28	39.233
701.46	38.854
701.64	38.989
701.83	41.318
702.01	39.036
702.20	39.392
702.38	40.594
702.56	41.673
702.75	39.860
702.93	40.570
703.11	39.264
703.30	42.152
703.48	41.711
703.66	41.510
703.85	39.687
704.03	43.648
704.21	40.235
704.40	42.726
704.58	41.860
704.76	42.289
704.95	42.151
705.13	42.228
705.31	43.432
705.50	43.486
705.68	40.434
705.86	41.108
706.04	40.132
706.23	43.587
706.41	41.389
706.59	42.278
706.78	41.849
706.96	43.330
707.14	42.791
707.33	43.899
707.51	41.569
707.69	43.242
707.88	42.335
708.06	43.713
708.24	42.750
708.42	43.941
708.61	41.542
708.79	43.725
708.97	42.386
709.16	44.429
709.34	45.206
709.52	42.747
709.71	43.068
709.89	43.879
710.07	41.085
710.25	44.507
710.44	42.168
710.62	44.084
710.80	44.058
710.98	44.594
711.17	42.220
711.35	43.563
711.53	42.786
711.72	46.645
711.90	43.124
712.08	44.448
712.26	41.098
712.45	43.144
712.63	42.698
712.81	42.587
712.99	42.410
713.18	43.468
713.36	43.677
713.54	43.148
713.72	42.325
713.91	44.170
714.09	41.075
714.27	44.359
714.45	43.700
714.64	45.191
714.82	42.829
715.00	44.211
715.18	42.657
715.37	44.584
715.55	44.325
715.73	43.560
715.91	44.328
716.10	44.813
716.28	42.648
716.46	42.844
716.64	41.019
716.83	43.038
717.01	40.525
717.19	44.702
717.37	41.961
717.55	43.291
717.74	43.294
717.92	43.715
718.10	41.418
718.28	43.523
718.47	41.455
718.65	42.823
718.83	44.105
719.01	41.755
719.19	42.422
719.38	42.299
719.56	43.738
719.74	43.059
719.92	42.261
720.10	43.881
720.29	42.332
720.47	43.123
720.65	44.484
720.83	44.621
721.01	43.798
721.20	45.582
721.38	43.011
721.56	44.772
721.74	44.020
721.92	45.356
722.11	42.012
722.29	44.170
722.47	45.660
722.65	46.627
722.83	43.494
723.01	46.439
723.20	45.126
723.38	45.204
723.56	42.636
723.74	42.665
723.92	45.169
724.10	45.715
724.29	43.772
724.47	47.257
724.65	44.985
724.83	43.113
725.01	44.490
725.19	46.614
725.38	41.510
725.56	45.430
725.74	44.555
725.92	45.950
726.10	44.068
726.28	46.531
726.46	43.672
726.65	47.455
726.83	44.723
727.01	46.308
727.19	44.592
727.37	45.862
727.55	44.698
727.73	45.575
727.92	44.766
728.10	44.772
728.28	43.915
728.46	45.041
728.64	44.116
728.82	46.225
729.00	43.819
729.19	45.672
729.37	45.948
729.55	45.419
729.73	44.272
729.91	46.537
730.09	44.915
730.27	45.271
730.45	43.988
730.63	44.652
730.82	45.939
731.00	44.768
731.18	42.608
731.36	46.835
731.54	44.454
731.72	45.114
731.90	44.380
732.08	46.357
732.26	44.906
732.45	44.897
732.63	45.135
732.81	47.094
732.99	45.601
733.17	46.659
733.35	44.333
733.53	45.818
733.71	45.043
733.89	47.479
734.07	45.755
734.25	47.507
734.44	44.857
734.62	46.625
734.80	46.151
734.98	47.197
735.16	47.662
735.34	47.018
735.52	47.048
735.70	47.632
735.88	46.850
736.06	47.943
736.24	49.745
736.42	47.555
736.60	49.672
736.78	49.608
736.97	47.274
737.15	50.101
737.33	48.276
737.51	47.797
737.69	49.559
737.87	47.846
738.05	50.154
738.23	49.859
738.41	50.388
738.59	51.349
738.77	48.838
738.95	48.958
739.13	49.033
739.31	48.825
739.49	49.436
739.67	50.283
739.85	48.599
740.03	49.095
740.21	49.208
740.39	49.785
740.57	49.937
740.75	51.741
740.93	49.018
741.11	48.514
741.30	49.974
741.48	48.594
741.66	51.957
741.84	52.008
742.02	48.664
742.20	54.374
742.38	49.132
742.56	51.400
742.74	47.437
742.92	53.239
743.10	50.595
743.28	51.546
743.46	49.677
743.64	51.986
743.82	51.689
744.00	52.024
744.18	49.441
744.36	53.754
744.54	50.975
744.72	55.844
744.90	54.957
745.08	52.900
745.26	50.143
745.44	54.733
745.62	52.221
745.80	52.022
745.98	50.033
746.16	54.000
746.34	47.378
746.52	53.531
746.70	52.044
746.87	54.899
747.05	53.347
747.23	53.027
747.41	51.973
747.59	54.071
747.77	52.569
747.95	52.722
748.13	51.904
748.31	53.346
748.49	50.438
748.67	53.605
748.85	51.310
749.03	55.711
749.21	49.780
749.39	55.523
749.57	49.717
749.75	53.573
749.93	49.969
750.11	54.071
750.29	52.890
750.47	51.532
750.65	48.663
750.83	49.426
751.01	48.588
751.18	50.904
751.36	50.719
751.54	51.128
751.72	49.206
751.90	52.315
752.08	47.023
752.26	50.859
752.44	51.707
752.62	50.031
752.80	52.015
752.98	52.571
753.16	50.092
753.34	52.403
753.52	53.672
753.69	53.437
753.87	52.382
754.05	54.426
754.23	51.141
754.41	52.945
754.59	53.348
754.77	54.094
754.95	51.339
755.13	50.986
755.31	52.009
755.49	52.866
755.66	51.235
755.84	53.206
756.02	49.853
756.20	51.520
756.38	51.055
756.56	50.572
756.74	48.773
756.92	52.050
757.10	52.503
757.28	52.686
757.45	54.072
757.63	51.141
757.81	49.616
757.99	51.758
758.17	53.121
758.35	52.495
758.53	49.397
758.71	50.561
758.88	48.353
759.06	50.832
759.24	48.593
759.42	50.077
759.60	47.545
759.78	46.728
759.96	43.713
760.13	44.865
760.31	40.204
760.49	41.953
760.67	38.199
760.85	42.132
761.03	40.006
761.21	43.575
761.38	40.684
761.56	43.189
761.74	39.895
761.92	44.846
762.10	40.396
762.28	41.097
762.46	38.826
762.63	40.238
762.81	42.071
762.99	42.181
763.17	41.752
763.35	43.610
763.53	41.262
763.70	42.573
763.88	43.065
764.06	42.543
764.24	40.860
764.42	42.860
764.60	41.153
764.77	42.308
764.95	41.613
765.13	43.400
765.31	43.359
765.49	42.051
765.66	41.929
765.84	43.600
766.02	45.398
766.20	44.866
766.38	44.143
766.56	46.510
766.73	46.358
766.91	46.641
767.09	45.854
767.27	48.573
767.45	47.653
767.62	46.830
767.80	44.607
767.98	51.684
768.16	47.238
768.33	51.300
768.51	46.691
768.69	52.892
768.87	51.179
769.05	52.027
769.22	48.783
769.40	54.609
769.58	48.973
769.76	54.115
769.94	51.106
770.11	53.431
770.29	53.390
770.47	53.515
770.65	54.564
770.82	56.396
771.00	52.707
771.18	54.990
771.36	54.002
771.53	54.597
771.71	50.103
771.89	59.007
772.07	52.982
772.25	57.708
772.42	51.574
772.60	53.185
772.78	59.006
772.96	51.647
773.13	58.352
773.31	51.977
773.49	54.650
773.67	57.515
773.84	55.225
774.02	59.242
774.20	56.034
774.37	57.694
774.55	52.007
774.73	53.149
774.91	57.252
775.08	53.038
775.26	55.921
775.44	57.990
775.62	49.787
775.79	58.125
775.97	55.088
776.15	51.154
776.32	58.656
776.50	60.922
776.68	58.540
776.86	55.951
777.03	55.190
777.21	56.374
777.39	56.089
777.56	55.528
777.74	55.835
777.92	54.191
778.10	51.980
778.27	58.150
778.45	56.963
778.63	56.277
778.80	51.802
778.98	55.314
779.16	57.454
779.34	57.058
779.51	55.567
779.69	55.667
779.87	53.132
780.04	58.113
780.22	51.371
780.40	54.650
780.57	53.475
780.75	58.505
780.93	61.868
781.10	55.242
781.28	59.164
781.46	58.053
781.63	51.212
781.81	60.191
781.99	54.464
782.16	60.471
782.34	54.388
782.52	52.738
782.69	55.929
782.87	54.084
783.05	52.435
783.22	56.853
783.40	57.119
783.58	60.420
783.75	51.717
783.93	64.115
784.11	58.869
784.28	55.887
784.46	56.674
784.64	58.209
784.81	50.655
784.99	59.584
785.17	56.607
785.34	51.571
785.52	50.116
785.69	60.325
785.87	56.040
786.05	57.869
786.22	54.214
786.40	61.977
786.58	60.024
786.75	60.759
786.93	53.937
787.11	58.324
787.28	61.587
787.46	53.153
787.63	49.203
787.81	55.877
787.99	56.240
788.16	51.475
788.34	52.551
788.51	60.102
788.69	54.496
788.87	53.014
789.04	45.896
789.22	54.800
789.39	47.179
789.57	52.541
789.75	47.153
789.92	55.610
790.10	50.511
790.27	54.497
790.45	46.033
790.63	51.141
790.80	49.195
790.98	49.476
791.15	47.596
791.33	57.310
791.51	47.439
791.68	51.218
791.86	53.299
792.03	50.449
792.21	50.986
792.39	54.782
792.56	52.328
792.74	54.225
792.91	54.264
793.09	53.221
793.26	50.700
793.44	54.413
793.62	56.706
793.79	54.772
793.97	52.033
794.14	55.388
794.32	52.562
794.49	55.837
794.67	54.639
794.84	52.197
795.02	51.800
795.20	52.086
795.37	53.878
795.55	54.807
795.72	50.895
795.90	52.491
796.07	56.299
796.25	49.567
796.42	46.722
796.60	51.348
796.77	49.858
796.95	50.112
797.13	47.363
797.30	54.413
797.48	52.865
797.65	53.561
797.83	51.501
798.00	55.068
798.18	43.541
798.35	53.260
798.53	51.984
798.70	51.503
798.88	48.506
799.05	46.521
799.23	47.497
799.40	48.799
799.58	52.169
799.75	48.929
799.93	48.935
800.10	52.659
800.28	54.405
800.45	50.146
800.63	46.779
800.80	54.093
800.98	50.918
801.15	48.472
801.33	49.219
801.50	57.882
801.68	47.040
801.85	46.818
802.03	51.221
802.20	48.688
802.38	48.659
802.55	57.007
802.73	47.868
802.90	56.344
803.08	57.358
803.25	52.810
803.43	57.498
803.60	54.435
803.78	56.999
803.95	55.243
804.13	52.044
804.30	51.313
804.48	42.208
804.65	51.394
804.83	55.897
805.00	56.079
805.17	50.950
805.35	50.970
805.52	44.461
805.70	49.393
805.87	52.020
806.05	54.620
806.22	54.960
806.40	45.888
806.57	51.250
806.75	53.979
806.92	53.227
807.09	54.930
807.27	52.308
807.44	56.005
807.62	48.876
807.79	51.385
807.97	51.244
808.14	52.490
808.31	47.783
808.49	48.474
808.66	49.030
808.84	47.532
809.01	51.418
809.19	48.668
809.36	55.950
809.53	54.083
809.71	49.862
809.88	53.368
810.06	60.698
810.23	59.788
810.41	53.521
810.58	55.299
810.75	48.722
810.93	54.290
811.10	45.705
811.28	52.560
811.45	51.338
811.62	46.456
811.80	49.766
811.97	50.074
812.15	56.911
812.32	51.786
812.49	55.903
812.67	49.558
812.84	49.758
813.02	59.900
813.19	48.184
813.36	55.806
813.54	50.486
813.71	55.094
813.89	55.660
814.06	59.055
814.23	45.861
814.41	51.168
814.58	53.764
814.75	56.090
814.93	50.225
815.10	49.485
815.28	45.135
815.45	47.135
815.62	49.456
815.80	43.660
815.97	45.951
816.14	46.895
816.32	54.569
816.49	43.555
816.66	51.002
816.84	45.548
817.01	52.279
817.18	46.481
817.36	49.020
817.53	50.039
817.71	39.352
817.88	47.397
818.05	46.086
818.23	50.195
818.40	35.323
818.57	46.248
818.75	42.250
818.92	47.682
819.09	44.120
819.27	45.461
819.44	45.188
819.61	45.131
819.79	46.350
819.96	44.990
820.13	46.346
820.31	47.274
820.48	46.126
820.65	41.507
820.82	40.985
821.00	43.067
821.17	38.967
821.34	41.798
821.52	40.233
821.69	38.655
821.86	40.731
822.04	38.324
822.21	39.094
822.38	41.813
822.56	37.317
822.73	39.436
822.90	39.813
823.07	39.851
823.25	38.961
823.42	39.726
823.59	37.986
823.77	41.010
823.94	38.878
824.11	40.248
824.29	39.641
824.46	39.636
824.63	39.656
824.80	40.551
824.98	38.963
825.15	38.367
825.32	35.589
825.49	40.205
825.67	35.542
825.84	39.602
826.01	36.963
826.19	39.733
826.36	35.863
826.53	37.666
826.70	37.102
826.88	41.883
827.05	36.570
827.22	38.453
827.39	39.709
827.57	36.316
827.74	35.547
827.91	43.080
828.08	34.689
828.26	39.053
828.43	37.688
828.60	39.671
828.77	37.544
828.95	40.350
829.12	36.821
829.29	35.989
829.46	37.383
829.64	35.652
829.81	34.554
829.98	41.601
830.15	35.332
830.32	36.486
830.50	33.959
830.67	39.344
830.84	38.752
831.01	37.166
831.19	35.752
831.36	41.122
831.53	47.184
831.70	42.169
831.87	44.857
832.05	45.441
832.22	40.360
832.39	37.077
832.56	34.750
832.74	44.650
832.91	39.256
833.08	48.873
833.25	36.904
833.42	34.987
833.60	36.541
833.77	35.706
833.94	38.318
834.11	38.696
834.28	34.836
834.45	35.423
834.63	35.736
834.80	38.855
834.97	36.655
835.14	36.747
835.31	34.445
835.49	40.007
835.66	36.906
835.83	34.702
836.00	31.811
836.17	37.898
836.34	35.708
836.52	41.230
836.69	41.571
836.86	42.669
837.03	37.025
837.20	38.804
837.37	39.128
837.55	32.297
837.72	39.256
837.89	44.965
838.06	41.885
838.23	46.917
838.40	48.871
838.58	44.694
838.75	46.673
838.92	57.316
839.09	61.074
839.26	55.380
839.43	54.352
839.60	56.223
839.78	54.839
839.95	62.995
840.12	49.510
840.29	63.718
840.46	45.059
840.63	57.749
840.80	47.520
840.98	53.030
841.15	50.551
841.32	47.000
841.49	46.754
841.66	44.807
841.83	49.720
842.00	40.967
842.17	41.878
842.34	50.348
842.52	55.074
842.69	55.341
842.86	61.804
843.03	64.031
843.20	54.161
843.37	61.364
843.54	56.020
843.71	57.746
843.88	63.889
844.06	62.500
844.23	65.957
844.40	64.536
844.57	69.461
844.74	60.239
844.91	73.071
845.08	73.884
845.25	81.000
845.42	79.612
845.59	61.945
845.76	65.461
845.94	72.943
846.11	57.377
846.28	82.645
846.45	77.183
846.62	80.713
846.79	72.329
846.96	83.757
847.13	78.238
847.30	74.327
847.47	59.646
847.64	64.952
847.81	79.965
847.98	72.621
848.15	94.521
848.32	93.956
848.50	83.366
848.67	79.657
848.84	79.928
849.01	74.292
849.18	79.295
849.35	104.060
849.52	98.829
849.69	68.113
849.86	94.862
850.03	80.726
850.20	75.610
850.37	73.465
850.54	74.008
850.71	84.032
850.88	74.653
851.05	86.681
851.22	97.187
851.39	89.095
851.56	59.223
851.73	88.090
851.90	91.800
852.07	86.796
852.24	70.105
852.41	67.285
852.58	81.573
852.75	71.190
852.92	85.973
853.09	98.618
853.26	121.739
853.43	96.180
853.60	90.000
853.77	92.566
853.94	92.958
854.11	90.486
854.28	92.637
854.45	81.797
854.62	91.572
854.79	101.770
854.96	89.822
855.13	77.193
855.30	81.579
855.47	94.413
855.64	92.325
855.81	87.500
855.98	108.684
856.15	85.572
856.32	96.094
856.49	87.187
856.66	93.333
856.83	97.158
857.00	93.864
857.17	88.164
857.34	72.829
857.51	85.432
857.68	98.762
857.85	73.956
858.02	100.269
858.19	82.766
858.36	84.416
858.53	88.592
858.70	87.923
858.87	115.805
859.04	69.280
859.21	76.617
859.38	89.310
859.55	100.899
859.72	97.011
859.89	103.553
860.05	95.824
860.22	88.835
860.39	95.989
860.56	77.849
860.73	92.754
860.90	95.885
861.07	92.906
861.24	98.966
861.41	92.204
861.58	83.960
861.75	98.939
861.92	94.565
862.09	72.848
862.26	93.868
862.43	119.251
862.59	85.302
862.76	90.274
862.93	125.333
863.10	87.192
863.27	106.332
863.44	89.744
863.61	86.472
863.78	83.453
863.95	85.135
864.12	77.155
864.29	102.804
864.45	77.660
864.62	101.996
864.79	79.839
864.96	92.627
865.13	94.130
865.30	77.732
865.47	93.723
865.64	127.964
865.81	81.006
865.97	84.773
866.14	79.508
866.31	83.562
866.48	87.356
866.65	80.535
866.82	106.388
866.99	104.831
867.16	80.714
867.33	102.192
867.49	75.297
867.66	92.608
867.83	92.494
868.00	103.753
868.17	87.638
868.34	102.660
868.51	75.309
868.67	95.178
868.84	90.345
869.01	102.391
869.18	77.904
869.35	86.310
869.52	86.775
869.69	103.354
869.85	98.230
870.02	77.922
870.19	105.366
870.36	90.758
870.53	79.268
870.70	71.571
870.86	78.182
871.03	85.608
871.20	110.000
871.37	91.155
871.54	89.474
871.71	75.550
871.87	89.685
872.04	93.008
872.21	80.833
872.38	107.447
872.55	104.854
872.72	87.500
872.88	106.637
873.05	76.957
873.22	71.084
873.39	84.720
873.56	81.343
873.72	79.452
873.89	75.315
874.06	73.822
874.23	97.721
874.40	81.472
874.56	75.966
874.73	85.906
874.90	95.047
875.07	101.299
875.24	96.804
875.40	86.147
875.57	92.601
875.74	79.080
875.91	79.605
876.08	77.060
876.24	94.737
876.41	90.196
876.58	95.200
876.75	78.947
876.92	85.039
877.08	96.944
877.25	84.562
877.42	87.931
877.59	79.458
877.75	84.298
877.92	71.795
878.09	92.822
878.26	77.411
878.42	84.536
878.59	97.037
878.76	86.341
878.93	79.873
879.09	65.306
879.26	81.382
879.43	82.151
879.60	76.382
879.76	84.152
879.93	73.490
880.10	57.418
880.27	57.769
880.43	49.511
880.60	54.059
880.77	59.907
880.94	55.827
881.10	44.381
881.27	50.054
881.44	35.708
881.61	37.357
881.77	39.897
881.94	34.487
882.11	27.691
882.28	28.344
882.44	29.726
882.61	28.392
882.78	30.639
882.94	39.085
883.11	30.488
883.28	32.392
883.45	31.982
883.61	31.884
883.78	28.486
883.95	35.663
884.11	31.185
884.28	32.132
>>>>>End Processed Spectral Data<<<<<
