SpectraSuite Data File
++++++++++++++++++++++++++++++++++++
Date: Thu Sep 19 02:50:44 EST 2019
User: sgrac
Dark Spectrum Present: Yes
Reference Spectrum Present: Yes
Number of Sampled Component Spectra: 1
Spectrometers: USB4E01596
Integration Time (usec): 100000 (USB4E01596)
Spectra Averaged: 1 (USB4E01596)
Boxcar Smoothing: 0 (USB4E01596)
Correct for Electrical Dark: No (USB4E01596)
Strobe/Lamp Enabled: Yes (USB4E01596)
Correct for Detector Non-linearity: No (USB4E01596)
Correct for Stray Light: No (USB4E01596)
Number of Pixels in Processed Spectrum: 3648
>>>>>Begin Processed Spectral Data<<<<<
178.44	450.000
178.66	450.000
178.87	450.000
179.09	45.455
179.30	60.714
179.52	842.857
179.74	-216.667
179.95	338.095
180.17	745.455
180.38	97.015
180.60	0.000
180.82	325.806
181.03	166.667
181.25	775.000
181.46	423.077
181.68	-88.372
181.89	614.286
182.11	341.667
182.33	214.815
182.54	641.667
182.76	544.444
182.97	-214.286
183.19	126.190
183.40	185.455
183.62	119.048
183.84	837.500
184.05	573.333
184.27	-4150.000
184.48	95.238
184.70	950.000
184.91	388.462
185.13	159.155
185.34	-21.154
185.56	218.519
185.78	157.692
185.99	-2425.000
186.21	-545.455
186.42	-127.500
186.64	333.333
186.85	-1750.000
187.07	418.182
187.28	478.571
187.50	204.545
187.72	169.444
187.93	344.444
188.15	342.105
188.36	529.412
188.58	297.436
188.79	750.000
189.01	383.333
189.22	1720.000
189.44	230.000
189.65	-3433.333
189.87	2050.000
190.09	617.647
190.30	871.429
190.52	783.333
190.73	-84.615
190.95	129.545
191.16	345.833
191.38	188.889
191.59	-581.818
191.81	368.182
192.02	213.333
192.24	269.231
192.45	737.500
192.67	950.000
192.88	-200.000
193.10	-8800.000
193.31	274.286
193.53	-271.429
193.74	-1000.000
193.96	888.889
194.18	262.500
194.39	221.951
194.61	521.053
194.82	854.545
195.04	248.000
195.25	1400.000
195.47	113.158
195.68	335.294
195.90	88.372
196.11	169.231
196.33	-1033.333
196.54	-421.053
196.76	209.091
196.97	522.222
197.19	-4800.000
197.40	700.000
197.62	1000.000
197.83	284.615
198.05	246.429
198.26	167.500
198.48	147.059
198.69	-922.222
198.91	233.333
199.12	274.286
199.34	-728.571
199.55	154.386
199.77	160.870
199.98	-600.000
200.20	380.000
200.41	2100.000
200.63	246.429
200.84	295.238
201.06	-307.692
201.27	-1360.000
201.49	583.333
201.70	156.250
201.91	-2950.000
202.13	489.474
202.34	234.783
202.56	3450.000
202.77	281.250
202.99	192.000
203.20	248.485
203.42	-985.714
203.63	1416.667
203.85	227.778
204.06	247.826
204.28	412.500
204.49	-390.000
204.71	236.585
204.92	155.556
205.14	224.444
205.35	148.571
205.56	983.333
205.78	481.818
205.99	-400.000
206.21	373.913
206.42	169.492
206.64	-1333.333
206.85	238.095
207.07	536.842
207.28	-1140.000
207.50	120.370
207.71	412.500
207.93	193.750
208.14	322.222
208.35	447.059
208.57	-32.000
208.78	-192.683
209.00	165.116
209.21	238.095
209.43	232.000
209.64	5100.000
209.86	271.429
210.07	193.103
210.28	-561.538
210.50	217.647
210.71	335.000
210.93	225.000
211.14	142.857
211.36	178.261
211.57	365.000
211.78	197.436
212.00	526.667
212.21	435.294
212.43	100.000
212.64	253.333
212.86	119.231
213.07	406.897
213.29	163.333
213.50	287.097
213.71	183.333
213.93	1271.429
214.14	335.294
214.36	637.500
214.57	173.239
214.78	473.333
215.00	568.421
215.21	155.556
215.43	154.430
215.64	274.074
215.86	546.667
216.07	484.211
216.28	135.556
216.50	2000.000
216.71	-3500.000
216.93	262.963
217.14	160.606
217.35	191.429
217.57	500.000
217.78	177.143
218.00	1466.667
218.21	291.667
218.42	107.812
218.64	-1800.000
218.85	229.412
219.07	871.429
219.28	165.574
219.49	-375.000
219.71	575.000
219.92	128.378
220.14	662.500
220.35	215.909
220.56	392.308
220.78	110.526
220.99	234.286
221.21	94.845
221.42	386.957
221.63	3450.000
221.85	275.000
222.06	170.000
222.28	141.333
222.49	-677.778
222.70	112.963
222.92	-2600.000
223.13	178.947
223.34	109.783
223.56	641.667
223.77	147.059
223.99	200.000
224.20	111.667
224.41	110.667
224.63	2600.000
224.84	2700.000
225.05	392.308
225.27	202.564
225.48	218.333
225.69	42.353
225.91	140.625
226.12	110.145
226.34	203.125
226.55	89.706
226.76	82.353
226.98	101.136
227.19	50.000
227.40	112.000
227.62	130.137
227.83	60.714
228.04	42.857
228.26	56.250
228.47	79.167
228.69	42.647
228.90	35.714
229.11	38.428
229.33	46.411
229.54	38.589
229.75	28.975
229.97	31.098
230.18	17.940
230.39	18.687
230.61	24.915
230.82	27.243
231.03	17.516
231.25	24.497
231.46	31.845
231.67	22.264
231.89	17.063
232.10	31.321
232.31	42.857
232.53	30.734
232.74	47.248
232.95	34.804
233.17	22.051
233.38	15.263
233.59	42.697
233.81	46.914
234.02	54.286
234.23	48.454
234.45	44.091
234.66	31.609
234.87	10.465
235.09	22.872
235.30	37.864
235.51	35.874
235.73	44.949
235.94	35.714
236.15	45.522
236.36	35.111
236.58	38.756
236.79	35.345
237.00	29.317
237.22	40.212
237.43	16.732
237.64	39.130
237.86	47.170
238.07	51.261
238.28	38.976
238.50	40.670
238.71	30.052
238.92	25.472
239.13	23.656
239.35	41.494
239.56	37.222
239.77	50.273
239.99	27.823
240.20	35.019
240.41	38.976
240.63	24.179
240.84	6.195
241.05	21.959
241.26	14.006
241.48	23.242
241.69	19.783
241.90	11.494
242.12	13.701
242.33	16.288
242.54	18.655
242.75	12.626
242.97	12.606
243.18	4.685
243.39	7.180
243.61	9.330
243.82	15.078
244.03	12.295
244.24	10.412
244.46	9.537
244.67	12.831
244.88	18.632
245.09	6.106
245.31	14.098
245.52	8.217
245.73	16.464
245.95	18.849
246.16	17.321
246.37	17.340
246.58	11.077
246.80	4.747
247.01	14.565
247.22	5.889
247.43	12.429
247.65	6.601
247.86	8.514
248.07	7.001
248.28	6.667
248.50	7.380
248.71	6.047
248.92	5.509
249.13	6.623
249.35	9.110
249.56	6.207
249.77	8.450
249.98	6.218
250.20	6.346
250.41	14.523
250.62	14.188
250.83	3.932
251.05	11.416
251.26	13.066
251.47	15.969
251.68	10.274
251.90	14.122
252.11	5.990
252.32	3.806
252.53	8.798
252.75	16.255
252.96	12.363
253.17	9.211
253.38	15.225
253.59	9.506
253.81	14.249
254.02	11.648
254.23	8.367
254.44	12.286
254.66	5.556
254.87	23.051
255.08	14.742
255.29	19.656
255.50	8.554
255.72	12.941
255.93	17.713
256.14	23.060
256.35	10.441
256.57	11.057
256.78	9.868
256.99	16.231
257.20	24.217
257.41	16.701
257.63	15.414
257.84	10.626
258.05	13.985
258.26	13.023
258.47	9.524
258.69	14.518
258.90	7.670
259.11	6.202
259.32	7.355
259.53	8.811
259.75	9.237
259.96	4.823
260.17	7.132
260.38	5.080
260.59	10.188
260.81	4.967
261.02	5.168
261.23	6.269
261.44	6.886
261.65	4.815
261.87	6.076
262.08	6.446
262.29	9.019
262.50	6.355
262.71	5.460
262.92	6.803
263.14	8.839
263.35	3.682
263.56	7.263
263.77	9.509
263.98	8.287
264.20	12.341
264.41	6.423
264.62	8.696
264.83	2.756
265.04	14.191
265.25	14.543
265.47	9.421
265.68	14.226
265.89	11.946
266.10	3.022
266.31	10.635
266.52	12.827
266.74	8.213
266.95	4.320
267.16	6.138
267.37	9.783
267.58	5.471
267.79	10.766
268.01	13.133
268.22	6.285
268.43	5.566
268.64	10.180
268.85	3.911
269.06	7.137
269.27	12.465
269.49	8.378
269.70	5.243
269.91	6.545
270.12	8.664
270.33	10.704
270.54	13.081
270.75	10.075
270.97	10.818
271.18	4.575
271.39	7.096
271.60	7.052
271.81	7.751
272.02	7.508
272.23	4.025
272.45	4.286
272.66	5.382
272.87	8.618
273.08	6.467
273.29	7.217
273.50	7.075
273.71	5.932
273.92	4.116
274.14	3.840
274.35	7.152
274.56	10.056
274.77	4.982
274.98	7.761
275.19	5.043
275.40	8.523
275.61	5.906
275.83	6.224
276.04	7.082
276.25	5.376
276.46	10.090
276.67	4.671
276.88	7.733
277.09	6.446
277.30	8.891
277.51	7.986
277.73	4.398
277.94	6.417
278.15	5.749
278.36	8.305
278.57	7.918
278.78	10.315
278.99	9.059
279.20	8.700
279.41	3.793
279.62	5.767
279.84	7.278
280.05	11.080
280.26	3.676
280.47	9.982
280.68	8.187
280.89	7.879
281.10	6.089
281.31	5.858
281.52	6.138
281.73	2.486
281.94	6.129
282.16	7.179
282.37	4.669
282.58	7.246
282.79	7.264
283.00	3.584
283.21	5.586
283.42	2.811
283.63	6.618
283.84	6.350
284.05	6.098
284.26	4.685
284.47	7.601
284.68	7.923
284.89	7.364
285.11	7.351
285.32	3.257
285.53	5.920
285.74	8.239
285.95	6.354
286.16	7.968
286.37	4.063
286.58	6.557
286.79	7.222
287.00	4.844
287.21	3.735
287.42	6.041
287.63	3.780
287.84	7.610
288.05	7.454
288.26	6.652
288.48	7.701
288.69	5.409
288.90	4.574
289.11	6.678
289.32	6.658
289.53	6.395
289.74	6.216
289.95	7.456
290.16	6.039
290.37	5.096
290.58	6.407
290.79	5.488
291.00	5.865
291.21	4.975
291.42	3.710
291.63	4.806
291.84	5.443
292.05	5.611
292.26	4.345
292.47	3.644
292.68	4.663
292.89	5.385
293.10	5.545
293.31	4.661
293.52	7.264
293.73	5.020
293.94	5.466
294.15	6.701
294.36	2.875
294.57	8.120
294.79	5.377
295.00	4.759
295.21	3.097
295.42	5.897
295.63	6.695
295.84	4.675
296.05	5.285
296.26	5.769
296.47	4.006
296.68	3.973
296.89	5.591
297.10	4.145
297.31	6.223
297.52	5.677
297.73	4.545
297.94	4.233
298.15	4.133
298.36	5.301
298.57	3.869
298.78	3.901
298.99	3.253
299.20	3.819
299.41	6.672
299.62	3.471
299.83	4.153
300.04	3.498
300.25	7.940
300.46	6.025
300.67	6.278
300.88	5.556
301.09	4.935
301.30	6.389
301.50	7.627
301.71	8.163
301.92	3.523
302.13	7.569
302.34	7.177
302.55	5.316
302.76	7.085
302.97	4.709
303.18	4.450
303.39	5.110
303.60	2.919
303.81	5.952
304.02	6.805
304.23	5.981
304.44	7.758
304.65	7.020
304.86	4.518
305.07	6.025
305.28	5.174
305.49	7.200
305.70	5.622
305.91	4.759
306.12	6.010
306.33	7.505
306.54	3.234
306.75	7.767
306.96	7.516
307.17	6.627
307.38	5.117
307.58	3.463
307.79	6.298
308.00	6.354
308.21	4.396
308.42	4.289
308.63	6.174
308.84	2.290
309.05	4.906
309.26	6.821
309.47	7.279
309.68	3.079
309.89	4.879
310.10	3.420
310.31	3.227
310.52	3.647
310.73	5.035
310.94	2.813
311.14	4.629
311.35	2.332
311.56	3.797
311.77	3.788
311.98	4.083
312.19	3.114
312.40	6.363
312.61	4.153
312.82	3.590
313.03	3.671
313.24	4.548
313.45	5.543
313.66	5.588
313.86	5.144
314.07	2.729
314.28	8.825
314.49	4.205
314.70	5.872
314.91	8.328
315.12	5.473
315.33	6.345
315.54	5.449
315.75	2.735
315.96	4.561
316.16	3.918
316.37	4.521
316.58	2.286
316.79	4.430
317.00	5.933
317.21	4.874
317.42	8.154
317.63	3.300
317.84	4.716
318.05	6.770
318.25	5.734
318.46	5.226
318.67	2.111
318.88	4.442
319.09	4.759
319.30	4.742
319.51	3.598
319.72	2.259
319.93	4.523
320.13	8.690
320.34	5.421
320.55	5.016
320.76	1.354
320.97	1.820
321.18	2.848
321.39	6.490
321.60	3.212
321.80	7.430
322.01	2.842
322.22	4.525
322.43	4.423
322.64	3.369
322.85	5.503
323.06	5.028
323.27	6.092
323.47	5.732
323.68	6.283
323.89	4.133
324.10	6.120
324.31	3.411
324.52	0.112
324.73	4.426
324.93	4.346
325.14	3.756
325.35	2.426
325.56	2.580
325.77	5.293
325.98	6.884
326.19	4.744
326.39	3.268
326.60	5.087
326.81	6.139
327.02	5.918
327.23	2.253
327.44	6.345
327.64	2.514
327.85	4.571
328.06	4.350
328.27	7.245
328.48	3.808
328.69	5.196
328.90	5.935
329.10	6.550
329.31	6.165
329.52	2.829
329.73	3.537
329.94	5.486
330.15	6.791
330.35	4.131
330.56	6.488
330.77	3.392
330.98	6.167
331.19	2.315
331.39	5.502
331.60	5.908
331.81	3.261
332.02	5.272
332.23	2.674
332.44	3.779
332.64	3.294
332.85	0.993
333.06	5.582
333.27	4.088
333.48	4.511
333.68	5.285
333.89	3.696
334.10	3.867
334.31	5.016
334.52	2.453
334.72	2.744
334.93	3.579
335.14	4.583
335.35	2.286
335.56	4.657
335.76	4.724
335.97	4.987
336.18	2.192
336.39	4.576
336.60	6.417
336.80	5.454
337.01	4.514
337.22	3.125
337.43	6.788
337.64	3.221
337.84	6.329
338.05	4.337
338.26	6.941
338.47	2.685
338.68	4.060
338.88	4.966
339.09	6.588
339.30	2.644
339.51	4.647
339.71	4.541
339.92	4.301
340.13	3.758
340.34	5.122
340.55	3.976
340.75	5.422
340.96	2.772
341.17	5.165
341.38	3.500
341.58	4.988
341.79	2.571
342.00	5.139
342.21	3.254
342.41	2.760
342.62	5.055
342.83	5.860
343.04	3.850
343.24	3.926
343.45	5.071
343.66	3.055
343.87	3.440
344.07	3.656
344.28	3.592
344.49	3.570
344.70	3.182
344.90	3.615
345.11	4.274
345.32	3.071
345.53	3.983
345.73	4.293
345.94	3.526
346.15	5.317
346.36	1.015
346.56	4.270
346.77	3.580
346.98	4.976
347.19	4.470
347.39	1.864
347.60	2.653
347.81	4.514
348.02	4.468
348.22	2.614
348.43	4.268
348.64	7.512
348.84	3.905
349.05	4.428
349.26	3.236
349.47	3.615
349.67	3.406
349.88	3.595
350.09	4.346
350.30	6.096
350.50	3.875
350.71	4.309
350.92	5.885
351.12	2.794
351.33	5.677
351.54	3.598
351.74	2.143
351.95	4.505
352.16	5.204
352.37	5.936
352.57	4.982
352.78	4.612
352.99	6.424
353.19	4.687
353.40	4.512
353.61	6.599
353.82	3.646
354.02	5.505
354.23	4.340
354.44	3.932
354.64	2.613
354.85	5.650
355.06	2.888
355.26	4.177
355.47	3.735
355.68	5.582
355.88	5.571
356.09	4.401
356.30	4.024
356.51	5.578
356.71	4.139
356.92	3.870
357.13	6.766
357.33	6.259
357.54	6.221
357.75	3.748
357.95	6.999
358.16	4.582
358.37	5.939
358.57	5.174
358.78	5.743
358.99	5.554
359.19	4.869
359.40	6.210
359.61	4.853
359.81	7.357
360.02	8.989
360.23	6.265
360.43	5.398
360.64	4.384
360.85	5.279
361.05	4.190
361.26	8.979
361.47	6.004
361.67	6.176
361.88	3.569
362.09	6.212
362.29	4.646
362.50	5.943
362.70	4.748
362.91	7.301
363.12	4.670
363.32	6.382
363.53	5.896
363.74	7.907
363.94	5.177
364.15	7.418
364.36	5.491
364.56	7.028
364.77	7.646
364.98	8.675
365.18	6.752
365.39	7.751
365.59	5.908
365.80	5.439
366.01	7.043
366.21	5.214
366.42	4.906
366.63	6.353
366.83	5.230
367.04	4.197
367.24	8.116
367.45	4.639
367.66	6.642
367.86	5.950
368.07	6.517
368.28	5.290
368.48	4.702
368.69	3.897
368.89	4.913
369.10	5.824
369.31	7.113
369.51	5.907
369.72	6.379
369.92	7.484
370.13	4.056
370.34	7.545
370.54	4.687
370.75	6.836
370.95	3.072
371.16	6.518
371.37	4.692
371.57	4.365
371.78	4.927
371.98	7.109
372.19	6.217
372.40	6.856
372.60	6.659
372.81	5.695
373.01	5.031
373.22	4.509
373.43	4.457
373.63	6.380
373.84	6.880
374.04	5.844
374.25	5.625
374.46	5.921
374.66	6.128
374.87	6.072
375.07	4.032
375.28	5.055
375.48	6.200
375.69	6.042
375.90	3.540
376.10	5.740
376.31	5.029
376.51	4.260
376.72	4.614
376.92	4.298
377.13	5.981
377.34	6.831
377.54	5.005
377.75	7.179
377.95	4.613
378.16	5.860
378.36	6.946
378.57	5.863
378.77	6.847
378.98	6.770
379.19	5.036
379.39	5.446
379.60	6.175
379.80	4.460
380.01	6.480
380.21	6.296
380.42	5.898
380.62	4.315
380.83	6.103
381.04	5.074
381.24	5.148
381.45	6.061
381.65	3.801
381.86	5.099
382.06	5.829
382.27	5.395
382.47	4.193
382.68	6.243
382.88	4.215
383.09	4.952
383.29	4.631
383.50	7.874
383.71	5.536
383.91	4.491
384.12	4.631
384.32	6.941
384.53	4.081
384.73	4.459
384.94	4.687
385.14	4.656
385.35	4.973
385.55	6.210
385.76	3.761
385.96	5.150
386.17	5.890
386.37	6.144
386.58	5.389
386.78	7.178
386.99	4.948
387.19	7.511
387.40	5.094
387.60	8.302
387.81	4.094
388.01	5.882
388.22	5.674
388.42	6.225
388.63	6.240
388.83	8.249
389.04	5.695
389.24	6.396
389.45	4.533
389.65	5.430
389.86	5.501
390.06	4.999
390.27	5.409
390.47	5.458
390.68	5.991
390.88	7.922
391.09	7.039
391.29	6.192
391.50	5.628
391.70	6.777
391.91	5.762
392.11	7.181
392.32	6.343
392.52	7.663
392.73	7.119
392.93	5.534
393.14	6.675
393.34	7.860
393.55	6.862
393.75	6.899
393.95	6.631
394.16	7.417
394.36	7.528
394.57	7.976
394.77	6.765
394.98	6.303
395.18	6.988
395.39	7.527
395.59	6.049
395.80	7.523
396.00	5.777
396.21	8.863
396.41	6.167
396.61	7.675
396.82	6.307
397.02	8.609
397.23	6.881
397.43	6.564
397.64	5.995
397.84	7.346
398.05	5.275
398.25	7.706
398.45	7.059
398.66	7.707
398.86	7.103
399.07	9.473
399.27	6.186
399.48	8.620
399.68	6.723
399.89	6.889
400.09	7.154
400.29	6.709
400.50	7.270
400.70	9.045
400.91	5.878
401.11	6.722
401.32	6.494
401.52	5.654
401.72	7.824
401.93	7.931
402.13	7.943
402.34	7.411
402.54	5.866
402.75	9.389
402.95	5.897
403.15	8.183
403.36	7.706
403.56	6.809
403.77	7.067
403.97	6.717
404.17	6.003
404.38	8.028
404.58	6.127
404.79	7.827
404.99	7.700
405.19	6.990
405.40	6.212
405.60	8.482
405.81	8.137
406.01	7.286
406.21	6.673
406.42	7.488
406.62	7.776
406.83	8.850
407.03	8.472
407.23	6.430
407.44	6.521
407.64	7.769
407.85	7.530
408.05	7.389
408.25	6.636
408.46	8.281
408.66	7.025
408.87	6.336
409.07	6.378
409.27	6.029
409.48	6.756
409.68	7.375
409.88	4.764
410.09	6.245
410.29	7.976
410.50	7.612
410.70	5.833
410.90	8.096
411.11	5.774
411.31	6.598
411.51	6.977
411.72	8.820
411.92	6.469
412.12	7.740
412.33	6.217
412.53	6.418
412.74	4.992
412.94	7.341
413.14	6.299
413.35	7.463
413.55	6.374
413.75	6.936
413.96	4.690
414.16	6.533
414.36	7.732
414.57	7.048
414.77	5.266
414.97	7.608
415.18	4.842
415.38	7.110
415.58	6.336
415.79	6.770
415.99	5.995
416.19	7.285
416.40	7.374
416.60	6.975
416.80	6.482
417.01	7.243
417.21	5.866
417.41	9.304
417.62	6.574
417.82	7.627
418.02	6.401
418.23	8.708
418.43	7.584
418.63	8.629
418.84	8.641
419.04	7.677
419.24	8.848
419.45	9.405
419.65	9.406
419.85	9.682
420.06	8.389
420.26	8.673
420.46	8.938
420.67	9.502
420.87	9.092
421.07	10.053
421.28	8.676
421.48	10.223
421.68	9.714
421.88	10.363
422.09	9.663
422.29	10.272
422.49	9.321
422.70	9.710
422.90	8.624
423.10	10.096
423.31	9.617
423.51	10.418
423.71	8.840
423.91	10.129
424.12	10.290
424.32	10.268
424.52	9.941
424.73	9.960
424.93	9.627
425.13	9.613
425.33	9.236
425.54	10.198
425.74	9.511
425.94	10.515
426.15	10.038
426.35	9.716
426.55	9.738
426.75	10.131
426.96	9.208
427.16	9.455
427.36	9.020
427.57	9.859
427.77	7.818
427.97	8.885
428.17	8.702
428.38	9.443
428.58	6.986
428.78	8.815
428.98	7.232
429.19	7.770
429.39	6.521
429.59	8.893
429.79	6.618
430.00	8.097
430.20	6.847
430.40	7.850
430.60	7.192
430.81	8.905
431.01	7.361
431.21	8.588
431.41	6.683
431.62	8.972
431.82	7.965
432.02	10.156
432.22	7.569
432.43	8.282
432.63	6.905
432.83	9.589
433.03	8.610
433.24	9.223
433.44	8.614
433.64	9.909
433.84	9.425
434.05	10.812
434.25	9.928
434.45	11.627
434.65	10.736
434.85	11.750
435.06	10.789
435.26	11.366
435.46	10.196
435.66	11.354
435.87	9.987
436.07	10.878
436.27	9.929
436.47	9.671
436.67	9.795
436.88	10.932
437.08	10.258
437.28	10.893
437.48	10.661
437.69	11.764
437.89	10.533
438.09	11.807
438.29	9.828
438.49	11.464
438.70	11.513
438.90	11.463
439.10	10.376
439.30	11.515
439.50	10.650
439.71	12.215
439.91	11.209
440.11	13.039
440.31	12.140
440.51	12.031
440.72	11.779
440.92	12.804
441.12	12.990
441.32	13.113
441.52	12.797
441.72	13.333
441.93	12.638
442.13	14.014
442.33	12.460
442.53	13.898
442.73	11.990
442.94	12.861
443.14	12.089
443.34	13.860
443.54	13.141
443.74	13.901
443.94	12.508
444.15	12.339
444.35	11.798
444.55	13.221
444.75	11.388
444.95	12.867
445.15	12.636
445.36	13.435
445.56	13.135
445.76	13.487
445.96	12.660
446.16	13.449
446.36	12.918
446.57	13.806
446.77	12.947
446.97	13.348
447.17	13.242
447.37	13.639
447.57	13.101
447.77	13.706
447.98	13.385
448.18	14.154
448.38	13.529
448.58	13.462
448.78	13.511
448.98	14.065
449.18	13.130
449.39	13.290
449.59	12.774
449.79	13.610
449.99	12.682
450.19	13.445
450.39	13.154
450.59	13.507
450.79	12.219
451.00	13.436
451.20	12.593
451.40	13.506
451.60	12.010
451.80	13.652
452.00	12.047
452.20	12.637
452.40	12.199
452.61	12.230
452.81	11.348
453.01	14.206
453.21	12.815
453.41	13.113
453.61	11.833
453.81	13.009
454.01	12.117
454.21	13.422
454.42	13.616
454.62	13.310
454.82	12.325
455.02	12.849
455.22	11.841
455.42	12.987
455.62	11.044
455.82	12.701
456.02	10.878
456.23	12.929
456.43	13.104
456.63	12.064
456.83	11.187
457.03	12.060
457.23	12.530
457.43	12.817
457.63	11.633
457.83	12.954
458.03	12.458
458.23	11.731
458.43	11.143
458.64	13.354
458.84	11.562
459.04	12.983
459.24	12.500
459.44	13.699
459.64	13.006
459.84	13.425
460.04	12.941
460.24	13.805
460.44	13.478
460.64	14.064
460.84	13.443
461.04	13.797
461.24	13.549
461.45	13.556
461.65	13.681
461.85	14.311
462.05	13.749
462.25	14.299
462.45	13.909
462.65	13.871
462.85	12.713
463.05	13.703
463.25	12.553
463.45	14.005
463.65	13.127
463.85	14.170
464.05	13.126
464.25	13.248
464.45	13.522
464.65	13.621
464.85	11.662
465.05	14.009
465.26	13.321
465.46	14.181
465.66	13.215
465.86	13.185
466.06	13.167
466.26	13.925
466.46	11.959
466.66	13.292
466.86	13.842
467.06	14.192
467.26	14.801
467.46	14.572
467.66	13.116
467.86	14.376
468.06	13.600
468.26	14.074
468.46	13.525
468.66	14.544
468.86	13.307
469.06	14.872
469.26	13.098
469.46	14.735
469.66	13.179
469.86	15.092
470.06	14.369
470.26	14.691
470.46	13.883
470.66	15.354
470.86	14.745
471.06	15.250
471.26	14.132
471.46	14.569
471.66	14.567
471.86	15.010
472.06	14.236
472.26	16.281
472.46	15.443
472.66	15.594
472.86	15.177
473.06	15.414
473.26	15.157
473.46	16.416
473.66	15.501
473.86	15.850
474.06	15.280
474.26	16.443
474.46	14.815
474.66	17.511
474.86	16.121
475.06	17.068
475.26	15.474
475.46	17.486
475.66	16.814
475.86	17.196
476.06	16.611
476.26	17.218
476.46	16.827
476.66	18.189
476.86	17.309
477.06	17.548
477.26	17.564
477.46	18.238
477.65	18.261
477.85	18.538
478.05	17.294
478.25	18.953
478.45	18.495
478.65	18.819
478.85	18.497
479.05	19.346
479.25	18.619
479.45	18.911
479.65	18.741
479.85	19.340
480.05	19.234
480.25	19.691
480.45	18.774
480.65	19.679
480.85	19.538
481.05	20.111
481.25	20.488
481.44	20.433
481.64	19.712
481.84	20.487
482.04	20.131
482.24	19.869
482.44	19.939
482.64	19.926
482.84	20.338
483.04	20.213
483.24	20.286
483.44	19.517
483.64	19.897
483.84	20.624
484.04	20.816
484.23	21.535
484.43	21.938
484.63	23.105
484.83	23.756
485.03	25.549
485.23	24.563
485.43	24.563
485.63	24.340
485.83	23.066
486.03	21.916
486.23	22.564
486.42	22.090
486.62	22.048
486.82	21.298
487.02	22.246
487.22	21.897
487.42	22.058
487.62	22.239
487.82	22.123
488.02	22.114
488.22	22.473
488.41	22.484
488.61	22.761
488.81	22.919
489.01	22.675
489.21	22.709
489.41	23.329
489.61	23.002
489.81	23.574
490.01	23.373
490.20	23.009
490.40	23.455
490.60	23.473
490.80	23.105
491.00	22.812
491.20	23.069
491.40	23.153
491.60	23.241
491.79	22.529
491.99	23.402
492.19	23.137
492.39	24.189
492.59	23.275
492.79	23.365
492.99	23.587
493.19	23.899
493.38	23.912
493.58	24.489
493.78	23.950
493.98	24.195
494.18	24.084
494.38	24.350
494.58	24.201
494.77	23.340
494.97	24.112
495.17	23.705
495.37	23.678
495.57	24.304
495.77	24.060
495.96	24.899
496.16	24.115
496.36	23.380
496.56	23.988
496.76	23.647
496.96	24.281
497.15	23.604
497.35	23.973
497.55	23.913
497.75	24.545
497.95	24.687
498.15	24.221
498.34	24.452
498.54	24.693
498.74	24.683
498.94	24.150
499.14	24.350
499.34	24.298
499.53	24.670
499.73	24.378
499.93	24.520
500.13	24.709
500.33	23.787
500.52	24.572
500.72	24.185
500.92	24.818
501.12	24.407
501.32	24.813
501.52	24.665
501.71	23.906
501.91	25.772
502.11	25.288
502.31	24.894
502.51	24.920
502.70	24.903
502.90	24.833
503.10	24.399
503.30	25.333
503.50	24.922
503.69	24.701
503.89	23.762
504.09	24.782
504.29	24.876
504.48	25.504
504.68	24.650
504.88	25.380
505.08	24.624
505.28	24.846
505.47	25.152
505.67	25.111
505.87	25.031
506.07	24.993
506.27	25.422
506.46	25.060
506.66	24.774
506.86	25.624
507.06	24.973
507.25	25.434
507.45	25.293
507.65	24.518
507.85	25.453
508.04	24.903
508.24	24.967
508.44	25.009
508.64	24.452
508.83	25.137
509.03	24.628
509.23	25.138
509.43	24.479
509.63	25.202
509.82	25.108
510.02	25.027
510.22	24.916
510.42	25.139
510.61	25.262
510.81	25.250
511.01	25.063
511.21	25.715
511.40	25.381
511.60	25.290
511.80	25.447
511.99	25.597
512.19	24.022
512.39	25.204
512.59	25.335
512.78	25.289
512.98	24.985
513.18	24.880
513.38	25.188
513.57	25.110
513.77	25.747
513.97	25.778
514.17	25.273
514.36	25.764
514.56	24.723
514.76	25.220
514.95	24.645
515.15	25.610
515.35	25.346
515.55	24.931
515.74	25.412
515.94	25.521
516.14	25.206
516.33	25.249
516.53	25.481
516.73	25.087
516.93	25.983
517.12	24.858
517.32	24.795
517.52	25.311
517.71	25.847
517.91	25.194
518.11	24.791
518.30	25.017
518.50	24.792
518.70	24.526
518.90	24.203
519.09	25.312
519.29	24.889
519.49	25.145
519.68	24.702
519.88	25.188
520.08	25.478
520.27	25.523
520.47	25.070
520.67	25.229
520.86	25.271
521.06	25.563
521.26	24.731
521.45	25.042
521.65	25.343
521.85	25.572
522.04	24.450
522.24	25.010
522.44	25.261
522.63	24.910
522.83	25.445
523.03	25.081
523.22	24.373
523.42	24.780
523.62	25.251
523.81	24.860
524.01	24.666
524.21	24.710
524.40	24.521
524.60	24.358
524.80	24.634
524.99	24.923
525.19	25.165
525.39	24.352
525.58	24.502
525.78	24.133
525.98	24.675
526.17	24.755
526.37	24.615
526.57	24.799
526.76	24.723
526.96	25.287
527.15	24.770
527.35	24.744
527.55	24.753
527.74	25.032
527.94	24.846
528.14	24.608
528.33	24.517
528.53	24.374
528.72	24.889
528.92	25.095
529.12	24.981
529.31	25.239
529.51	25.299
529.71	25.685
529.90	25.192
530.10	25.724
530.29	25.590
530.49	25.520
530.69	25.519
530.88	25.512
531.08	25.274
531.28	25.571
531.47	25.148
531.67	25.062
531.86	25.067
532.06	24.796
532.26	24.498
532.45	24.746
532.65	24.088
532.84	23.926
533.04	24.741
533.24	24.142
533.43	24.451
533.63	24.373
533.82	24.687
534.02	24.343
534.22	24.505
534.41	25.108
534.61	24.472
534.80	25.020
535.00	24.943
535.19	25.333
535.39	24.466
535.59	25.001
535.78	24.905
535.98	24.289
536.17	24.972
536.37	23.470
536.57	23.971
536.76	24.252
536.96	24.650
537.15	24.567
537.35	24.641
537.54	24.126
537.74	24.312
537.93	24.421
538.13	24.810
538.33	24.335
538.52	25.064
538.72	24.361
538.91	24.654
539.11	24.732
539.30	24.334
539.50	24.101
539.70	24.505
539.89	23.930
540.09	24.275
540.28	24.441
540.48	24.738
540.67	23.340
540.87	23.770
541.06	24.224
541.26	23.938
541.45	23.848
541.65	24.086
541.85	23.829
542.04	24.397
542.24	24.456
542.43	24.425
542.63	24.327
542.82	24.404
543.02	24.403
543.21	24.305
543.41	24.351
543.60	24.531
543.80	24.668
543.99	24.554
544.19	24.621
544.38	24.112
544.58	24.629
544.77	23.997
544.97	24.631
545.16	24.605
545.36	24.657
545.56	24.341
545.75	24.033
545.95	24.630
546.14	24.739
546.34	23.781
546.53	24.260
546.73	24.280
546.92	24.677
547.12	24.124
547.31	24.373
547.51	24.512
547.70	24.811
547.90	24.014
548.09	23.552
548.29	23.510
548.48	24.511
548.68	24.111
548.87	24.488
549.07	24.226
549.26	24.655
549.46	23.832
549.65	24.634
549.84	24.069
550.04	24.132
550.23	24.950
550.43	24.313
550.62	24.717
550.82	23.718
551.01	23.741
551.21	24.242
551.40	24.599
551.60	24.523
551.79	24.366
551.99	24.036
552.18	24.780
552.38	24.706
552.57	24.547
552.77	24.594
552.96	25.117
553.16	24.453
553.35	25.008
553.54	24.648
553.74	24.886
553.93	24.262
554.13	25.005
554.32	24.847
554.52	25.471
554.71	25.683
554.91	24.986
555.10	26.022
555.29	24.845
555.49	25.331
555.68	25.069
555.88	24.675
556.07	24.243
556.27	25.603
556.46	24.862
556.66	24.523
556.85	25.616
557.04	25.405
557.24	25.638
557.43	25.013
557.63	25.355
557.82	24.937
558.02	24.301
558.21	25.311
558.40	24.691
558.60	25.644
558.79	25.363
558.99	25.269
559.18	25.905
559.38	25.412
559.57	25.563
559.76	25.069
559.96	26.662
560.15	26.547
560.35	25.887
560.54	26.565
560.73	24.890
560.93	26.177
561.12	25.798
561.32	25.550
561.51	26.160
561.70	25.000
561.90	26.216
562.09	26.599
562.29	26.512
562.48	26.427
562.67	26.900
562.87	25.670
563.06	27.115
563.26	25.991
563.45	26.857
563.64	26.585
563.84	26.698
564.03	26.187
564.23	27.492
564.42	26.967
564.61	27.051
564.81	26.352
565.00	26.950
565.20	27.347
565.39	26.840
565.58	27.164
565.78	26.413
565.97	26.592
566.16	26.948
566.36	26.970
566.55	27.218
566.74	27.786
566.94	26.940
567.13	27.217
567.33	27.370
567.52	27.809
567.71	27.913
567.91	27.779
568.10	27.565
568.29	27.928
568.49	27.372
568.68	28.101
568.87	28.080
569.07	27.473
569.26	27.047
569.45	27.766
569.65	28.630
569.84	27.325
570.04	27.493
570.23	27.410
570.42	29.004
570.62	27.941
570.81	27.399
571.00	27.969
571.20	27.661
571.39	28.147
571.58	28.459
571.78	28.537
571.97	27.909
572.16	29.040
572.36	28.006
572.55	28.109
572.74	28.375
572.94	28.171
573.13	28.566
573.32	28.407
573.51	28.339
573.71	27.923
573.90	28.824
574.09	29.204
574.29	28.974
574.48	28.561
574.67	27.615
574.87	27.940
575.06	28.762
575.25	27.895
575.45	28.698
575.64	28.635
575.83	28.834
576.03	29.580
576.22	28.623
576.41	29.441
576.60	27.731
576.80	28.513
576.99	29.597
577.18	29.191
577.38	29.534
577.57	28.807
577.76	29.584
577.95	29.136
578.15	28.689
578.34	28.685
578.53	28.667
578.73	29.128
578.92	28.498
579.11	29.394
579.30	27.943
579.50	29.630
579.69	29.316
579.88	29.850
580.08	29.437
580.27	29.631
580.46	28.955
580.65	28.969
580.85	29.871
581.04	29.611
581.23	28.992
581.42	28.514
581.62	29.298
581.81	30.271
582.00	29.799
582.19	30.104
582.39	28.904
582.58	28.870
582.77	28.850
582.96	29.918
583.16	28.804
583.35	29.958
583.54	30.522
583.73	29.807
583.93	28.958
584.12	30.351
584.31	28.971
584.50	29.967
584.70	28.679
584.89	29.460
585.08	30.343
585.27	30.822
585.47	29.605
585.66	29.936
585.85	29.272
586.04	29.713
586.24	29.874
586.43	29.543
586.62	29.585
586.81	29.765
587.00	30.720
587.20	29.595
587.39	29.013
587.58	30.224
587.77	29.165
587.97	30.249
588.16	30.055
588.35	30.809
588.54	29.775
588.73	30.928
588.93	30.362
589.12	31.212
589.31	29.731
589.50	29.531
589.69	30.189
589.89	31.381
590.08	30.027
590.27	31.122
590.46	31.134
590.65	30.881
590.85	30.786
591.04	31.096
591.23	30.248
591.42	30.632
591.61	30.517
591.81	31.025
592.00	29.921
592.19	30.438
592.38	30.198
592.57	31.092
592.77	31.150
592.96	31.194
593.15	30.458
593.34	31.867
593.53	29.873
593.72	31.344
593.92	31.025
594.11	32.475
594.30	31.412
594.49	31.097
594.68	31.049
594.87	31.594
595.07	30.726
595.26	31.332
595.45	30.503
595.64	31.992
595.83	33.222
596.02	31.546
596.22	31.225
596.41	32.006
596.60	32.402
596.79	30.517
596.98	31.705
597.17	32.399
597.37	31.692
597.56	32.760
597.75	31.212
597.94	32.476
598.13	31.350
598.32	31.850
598.51	32.742
598.71	32.779
598.90	32.448
599.09	32.541
599.28	32.011
599.47	32.590
599.66	32.014
599.85	33.499
600.05	31.603
600.24	32.694
600.43	33.589
600.62	33.300
600.81	32.347
601.00	32.707
601.19	33.585
601.38	33.449
601.58	34.128
601.77	32.305
601.96	33.170
602.15	33.561
602.34	32.588
602.53	33.272
602.72	33.427
602.91	33.143
603.10	34.405
603.30	34.254
603.49	33.453
603.68	34.540
603.87	33.238
604.06	33.387
604.25	34.108
604.44	33.734
604.63	33.976
604.82	34.579
605.01	33.956
605.21	33.678
605.40	33.928
605.59	34.565
605.78	34.206
605.97	34.618
606.16	34.244
606.35	33.743
606.54	34.329
606.73	34.469
606.92	35.317
607.11	34.906
607.30	33.653
607.50	35.125
607.69	34.668
607.88	34.088
608.07	33.888
608.26	34.529
608.45	34.314
608.64	33.899
608.83	34.301
609.02	34.748
609.21	34.405
609.40	34.860
609.59	34.878
609.78	34.324
609.97	34.724
610.16	34.900
610.35	34.810
610.55	34.879
610.74	34.276
610.93	35.843
611.12	35.403
611.31	34.989
611.50	34.400
611.69	34.437
611.88	35.101
612.07	34.790
612.26	34.233
612.45	34.541
612.64	33.672
612.83	35.142
613.02	34.777
613.21	34.043
613.40	34.823
613.59	35.002
613.78	34.799
613.97	34.927
614.16	33.740
614.35	35.218
614.54	34.119
614.73	35.410
614.92	35.454
615.11	34.529
615.30	34.996
615.49	35.566
615.68	35.817
615.87	34.676
616.07	33.044
616.26	34.669
616.45	35.918
616.64	33.880
616.83	34.385
617.02	35.536
617.21	35.256
617.40	35.305
617.59	36.454
617.78	34.319
617.97	35.153
618.16	34.807
618.35	35.030
618.54	35.197
618.73	35.740
618.92	35.035
619.11	35.719
619.30	36.138
619.49	34.858
619.68	34.173
619.86	35.221
620.05	36.101
620.24	34.498
620.43	35.527
620.62	34.512
620.81	35.371
621.00	35.280
621.19	36.019
621.38	35.098
621.57	35.659
621.76	35.908
621.95	34.136
622.14	34.614
622.33	34.683
622.52	34.522
622.71	35.352
622.90	34.016
623.09	34.561
623.28	34.645
623.47	35.605
623.66	34.970
623.85	35.281
624.04	33.856
624.23	35.748
624.42	35.182
624.61	34.372
624.80	35.719
624.99	35.509
625.18	34.221
625.36	36.532
625.55	34.702
625.74	35.331
625.93	34.777
626.12	36.857
626.31	35.517
626.50	35.597
626.69	36.859
626.88	37.042
627.07	34.651
627.26	35.679
627.45	35.176
627.64	35.469
627.83	35.347
628.02	35.557
628.20	35.871
628.39	36.098
628.58	34.833
628.77	35.638
628.96	35.345
629.15	34.951
629.34	34.662
629.53	36.703
629.72	34.289
629.91	35.775
630.10	34.942
630.29	34.891
630.47	34.884
630.66	35.310
630.85	34.591
631.04	35.110
631.23	33.957
631.42	34.743
631.61	33.869
631.80	36.177
631.99	33.354
632.18	33.313
632.36	32.318
632.55	36.096
632.74	34.372
632.93	35.886
633.12	35.152
633.31	34.986
633.50	34.965
633.69	35.649
633.88	33.347
634.06	36.331
634.25	35.163
634.44	35.234
634.63	36.102
634.82	35.294
635.01	34.086
635.20	35.562
635.39	35.129
635.57	34.876
635.76	36.338
635.95	35.105
636.14	34.868
636.33	36.250
636.52	36.292
636.71	35.100
636.89	35.042
637.08	33.058
637.27	34.360
637.46	35.202
637.65	35.094
637.84	35.601
638.03	35.583
638.21	36.372
638.40	33.743
638.59	34.602
638.78	33.439
638.97	34.135
639.16	35.394
639.34	35.783
639.53	35.998
639.72	35.298
639.91	35.303
640.10	33.854
640.29	35.228
640.47	36.392
640.66	33.535
640.85	35.425
641.04	33.814
641.23	35.007
641.42	35.197
641.60	34.678
641.79	34.303
641.98	36.517
642.17	34.385
642.36	34.909
642.54	33.299
642.73	32.874
642.92	33.205
643.11	35.636
643.30	34.609
643.49	35.709
643.67	33.351
643.86	36.957
644.05	33.116
644.24	33.671
644.43	35.277
644.61	35.889
644.80	34.335
644.99	35.090
645.18	36.366
645.37	33.851
645.55	34.142
645.74	34.090
645.93	33.847
646.12	34.952
646.31	33.501
646.49	34.442
646.68	35.104
646.87	34.386
647.06	34.088
647.24	33.917
647.43	32.706
647.62	34.936
647.81	33.146
648.00	35.645
648.18	31.782
648.37	34.879
648.56	33.429
648.75	34.947
648.93	33.015
649.12	34.425
649.31	33.176
649.50	33.589
649.68	35.396
649.87	35.139
650.06	33.369
650.25	32.700
650.43	34.587
650.62	33.255
650.81	33.750
651.00	32.722
651.18	34.166
651.37	34.992
651.56	32.537
651.75	36.288
651.93	33.563
652.12	36.455
652.31	34.014
652.50	34.520
652.68	34.925
652.87	34.326
653.06	32.921
653.25	33.198
653.43	32.813
653.62	34.821
653.81	33.298
654.00	34.687
654.18	32.356
654.37	35.196
654.56	32.992
654.74	34.478
654.93	31.247
655.12	33.177
655.31	33.659
655.49	34.864
655.68	30.769
655.87	34.845
656.05	30.818
656.24	34.117
656.43	31.841
656.62	33.324
656.80	32.151
656.99	34.945
657.18	34.050
657.36	32.354
657.55	31.554
657.74	33.870
657.93	33.463
658.11	34.548
658.30	33.752
658.49	34.521
658.67	34.077
658.86	33.342
659.05	34.648
659.23	35.809
659.42	33.242
659.61	35.309
659.79	33.979
659.98	35.216
660.17	34.049
660.35	33.779
660.54	36.057
660.73	35.743
660.91	34.281
661.10	35.491
661.29	33.394
661.47	34.941
661.66	32.953
661.85	34.671
662.03	32.622
662.22	33.023
662.41	31.069
662.59	33.922
662.78	31.073
662.97	33.278
663.15	29.825
663.34	33.324
663.53	28.838
663.71	32.583
663.90	31.132
664.09	32.132
664.27	32.146
664.46	31.625
664.65	29.033
664.83	30.154
665.02	28.776
665.21	30.498
665.39	24.731
665.58	30.397
665.77	28.539
665.95	32.269
666.14	26.439
666.32	31.144
666.51	28.222
666.70	30.540
666.88	26.094
667.07	30.952
667.26	26.531
667.44	29.714
667.63	27.026
667.81	27.358
668.00	28.281
668.19	30.852
668.37	28.206
668.56	31.706
668.75	27.455
668.93	32.618
669.12	26.822
669.30	31.379
669.49	27.475
669.68	30.214
669.86	29.614
670.05	29.227
670.23	28.514
670.42	31.430
670.61	29.626
670.79	28.468
670.98	25.084
671.16	30.655
671.35	25.997
671.54	30.717
671.72	29.563
671.91	29.320
672.09	24.984
672.28	32.261
672.46	29.888
672.65	30.208
672.84	28.049
673.02	29.834
673.21	24.137
673.39	29.080
673.58	28.596
673.77	28.576
673.95	26.603
674.14	30.259
674.32	26.498
674.51	31.277
674.69	25.460
674.88	30.071
675.07	26.907
675.25	31.898
675.44	26.984
675.62	29.190
675.81	25.645
675.99	35.452
676.18	30.249
676.36	28.136
676.55	24.265
676.74	30.276
676.92	30.025
677.11	29.032
677.29	28.316
677.48	34.339
677.66	28.259
677.85	29.948
678.03	28.241
678.22	31.529
678.40	28.873
678.59	31.793
678.78	27.535
678.96	31.393
679.15	29.319
679.33	31.191
679.52	34.341
679.70	33.822
679.89	33.617
680.07	33.918
680.26	31.421
680.44	33.277
680.63	34.234
680.81	34.333
681.00	31.360
681.18	34.298
681.37	32.789
681.55	33.895
681.74	36.277
681.92	35.895
682.11	34.583
682.29	35.032
682.48	34.788
682.66	36.411
682.85	33.988
683.03	36.540
683.22	35.531
683.40	37.369
683.59	33.172
683.77	36.989
683.96	31.154
684.14	37.302
684.33	30.591
684.51	37.366
684.70	32.810
684.88	37.083
685.07	34.141
685.25	35.256
685.44	33.847
685.62	36.360
685.81	33.843
685.99	38.311
686.18	36.479
686.36	37.037
686.55	30.778
686.73	36.312
686.92	38.093
687.10	39.311
687.29	38.598
687.47	40.684
687.65	37.526
687.84	38.263
688.02	38.260
688.21	41.109
688.39	36.917
688.58	40.526
688.76	36.690
688.95	42.758
689.13	36.823
689.32	42.708
689.50	40.085
689.68	43.875
689.87	38.376
690.05	39.617
690.24	41.162
690.42	40.684
690.61	40.051
690.79	44.039
690.98	39.572
691.16	40.030
691.34	39.502
691.53	43.171
691.71	40.610
691.90	40.777
692.08	42.277
692.27	44.244
692.45	42.402
692.63	44.055
692.82	42.766
693.00	43.104
693.19	38.204
693.37	45.414
693.56	40.838
693.74	47.381
693.92	43.241
694.11	44.197
694.29	45.187
694.48	48.534
694.66	39.598
694.84	48.060
695.03	42.132
695.21	47.654
695.40	45.489
695.58	50.506
695.76	45.204
695.95	46.669
696.13	46.199
696.32	49.078
696.50	51.545
696.68	48.287
696.87	46.591
697.05	48.723
697.24	47.636
697.42	51.055
697.60	47.443
697.79	51.035
697.97	50.671
698.16	53.448
698.34	49.449
698.52	53.339
698.71	49.849
698.89	52.362
699.07	51.056
699.26	52.601
699.44	52.958
699.63	52.143
699.81	51.499
699.99	52.994
700.18	53.473
700.36	54.038
700.54	53.322
700.73	51.829
700.91	51.093
701.09	53.855
701.28	54.495
701.46	53.642
701.64	51.451
701.83	56.628
702.01	49.815
702.20	56.098
702.38	54.634
702.56	54.167
702.75	52.709
702.93	54.476
703.11	50.297
703.30	51.947
703.48	50.791
703.66	55.397
703.85	48.687
704.03	53.224
704.21	52.396
704.40	55.263
704.58	47.468
704.76	53.715
704.95	50.408
705.13	54.881
705.31	51.627
705.50	56.919
705.68	51.015
705.86	54.916
706.04	52.595
706.23	53.724
706.41	56.154
706.59	52.066
706.78	50.370
706.96	54.869
707.14	52.603
707.33	56.071
707.51	54.185
707.69	57.244
707.88	53.115
708.06	56.229
708.24	52.093
708.42	60.319
708.61	54.765
708.79	56.757
708.97	59.516
709.16	56.955
709.34	55.518
709.52	56.686
709.71	54.171
709.89	57.594
710.07	54.202
710.25	54.292
710.44	59.737
710.62	59.936
710.80	59.015
710.98	57.001
711.17	56.122
711.35	55.970
711.53	51.700
711.72	59.528
711.90	61.043
712.08	60.381
712.26	53.705
712.45	59.220
712.63	56.765
712.81	57.218
712.99	57.775
713.18	59.329
713.36	58.462
713.54	57.364
713.72	58.326
713.91	59.405
714.09	55.014
714.27	55.736
714.45	61.549
714.64	59.063
714.82	55.848
715.00	59.510
715.18	54.203
715.37	58.300
715.55	54.485
715.73	60.227
715.91	59.646
716.10	58.202
716.28	54.621
716.46	58.112
716.64	58.199
716.83	62.420
717.01	57.367
717.19	56.773
717.37	59.603
717.55	59.416
717.74	58.459
717.92	59.567
718.10	52.612
718.28	57.255
718.47	55.445
718.65	60.374
718.83	56.878
719.01	62.965
719.19	57.677
719.38	52.737
719.56	52.979
719.74	57.479
719.92	51.353
720.10	56.564
720.29	53.129
720.47	56.555
720.65	55.296
720.83	59.806
721.01	54.789
721.20	55.256
721.38	50.815
721.56	54.646
721.74	52.813
721.92	57.666
722.11	50.610
722.29	60.115
722.47	54.517
722.65	58.380
722.83	52.524
723.01	56.365
723.20	51.965
723.38	56.503
723.56	53.767
723.74	57.316
723.92	54.490
724.10	58.514
724.29	52.185
724.47	57.852
724.65	54.856
724.83	56.222
725.01	51.031
725.19	58.502
725.38	52.879
725.56	55.959
725.74	56.056
725.92	53.176
726.10	54.124
726.28	54.267
726.46	56.270
726.65	60.100
726.83	53.413
727.01	59.784
727.19	52.014
727.37	57.680
727.55	54.241
727.73	56.796
727.92	58.030
728.10	59.976
728.28	51.321
728.46	57.452
728.64	54.106
728.82	61.004
729.00	56.922
729.19	59.886
729.37	57.965
729.55	62.349
729.73	57.485
729.91	60.432
730.09	57.551
730.27	59.763
730.45	51.698
730.63	57.080
730.82	56.412
731.00	58.063
731.18	51.837
731.36	57.886
731.54	54.383
731.72	58.203
731.90	55.505
732.08	62.647
732.26	60.023
732.45	59.604
732.63	60.418
732.81	59.943
732.99	59.910
733.17	62.280
733.35	53.037
733.53	61.543
733.71	57.336
733.89	58.265
734.07	59.346
734.25	62.823
734.44	59.146
734.62	58.394
734.80	56.927
734.98	58.442
735.16	60.526
735.34	58.954
735.52	56.583
735.70	63.073
735.88	57.031
736.06	59.250
736.24	60.014
736.42	58.223
736.60	58.520
736.78	60.300
736.97	58.144
737.15	59.241
737.33	54.208
737.51	57.586
737.69	58.920
737.87	60.749
738.05	56.497
738.23	61.131
738.41	54.814
738.59	62.794
738.77	56.741
738.95	63.920
739.13	55.126
739.31	61.925
739.49	60.289
739.67	59.039
739.85	58.293
740.03	59.415
740.21	57.222
740.39	58.173
740.57	58.113
740.75	62.309
740.93	55.921
741.11	61.056
741.30	56.090
741.48	61.847
741.66	54.759
741.84	60.412
742.02	50.281
742.20	53.740
742.38	57.508
742.56	61.470
742.74	52.238
742.92	54.386
743.10	54.575
743.28	57.165
743.46	53.360
743.64	53.186
743.82	49.164
744.00	57.544
744.18	56.748
744.36	57.654
744.54	50.597
744.72	66.318
744.90	60.156
745.08	62.919
745.26	49.839
745.44	59.485
745.62	53.351
745.80	55.835
745.98	47.005
746.16	59.632
746.34	51.209
746.52	53.394
746.70	51.064
746.87	53.453
747.05	50.265
747.23	53.954
747.41	54.085
747.59	53.972
747.77	47.265
747.95	56.463
748.13	50.843
748.31	59.943
748.49	52.526
748.67	55.799
748.85	54.937
749.03	57.538
749.21	52.898
749.39	57.804
749.57	49.489
749.75	58.228
749.93	56.569
750.11	58.618
750.29	53.736
750.47	60.705
750.65	53.191
750.83	56.190
751.01	50.582
751.18	60.295
751.36	50.831
751.54	53.014
751.72	52.609
751.90	53.873
752.08	47.215
752.26	57.862
752.44	51.766
752.62	55.332
752.80	50.312
752.98	59.688
753.16	54.900
753.34	61.041
753.52	55.385
753.69	60.588
753.87	56.357
754.05	60.545
754.23	51.204
754.41	57.057
754.59	54.305
754.77	59.775
754.95	53.704
755.13	57.895
755.31	55.155
755.49	56.393
755.66	55.175
755.84	52.255
756.02	52.542
756.20	61.242
756.38	48.750
756.56	58.398
756.74	48.501
756.92	58.106
757.10	49.266
757.28	63.584
757.45	55.536
757.63	54.626
757.81	52.425
757.99	55.275
758.17	52.595
758.35	57.325
758.53	54.743
758.71	59.383
758.88	55.026
759.06	62.534
759.24	50.177
759.42	57.216
759.60	53.960
759.78	57.205
759.96	51.002
760.13	53.273
760.31	43.961
760.49	49.785
760.67	40.905
760.85	46.432
761.03	41.673
761.21	47.064
761.38	33.420
761.56	47.648
761.74	38.839
761.92	47.896
762.10	35.967
762.28	48.234
762.46	35.744
762.63	43.864
762.81	37.851
762.99	47.483
763.17	43.823
763.35	52.183
763.53	50.741
763.70	58.141
763.88	52.998
764.06	59.057
764.24	54.394
764.42	61.269
764.60	56.506
764.77	56.657
764.95	57.474
765.13	63.201
765.31	55.399
765.49	59.297
765.66	53.809
765.84	62.709
766.02	52.138
766.20	57.963
766.38	53.492
766.56	58.989
766.73	48.782
766.91	58.511
767.09	49.439
767.27	60.335
767.45	47.083
767.62	54.339
767.80	51.372
767.98	55.115
768.16	44.241
768.33	59.852
768.51	46.679
768.69	60.761
768.87	52.249
769.05	51.619
769.22	51.414
769.40	55.612
769.58	50.620
769.76	49.420
769.94	46.289
770.11	50.536
770.29	49.433
770.47	52.257
770.65	49.508
770.82	55.258
771.00	50.392
771.18	57.982
771.36	48.068
771.53	54.886
771.71	50.238
771.89	52.506
772.07	50.590
772.25	52.399
772.42	48.548
772.60	59.569
772.78	51.995
772.96	55.594
773.13	53.162
773.31	58.262
773.49	44.021
773.67	55.056
773.84	44.359
774.02	52.723
774.20	47.045
774.37	50.332
774.55	49.183
774.73	54.365
774.91	49.935
775.08	52.828
775.26	47.368
775.44	51.788
775.62	51.463
775.79	51.302
775.97	40.417
776.15	45.251
776.32	47.361
776.50	50.694
776.68	47.036
776.86	50.571
777.03	43.793
777.21	50.067
777.39	38.256
777.56	44.709
777.74	47.051
777.92	50.229
778.10	43.224
778.27	55.541
778.45	44.244
778.63	49.582
778.80	50.748
778.98	49.125
779.16	51.286
779.34	53.189
779.51	41.702
779.69	45.694
779.87	39.262
780.04	45.799
780.22	40.343
780.40	49.610
780.57	49.934
780.75	44.122
780.93	46.461
781.10	46.080
781.28	60.699
781.46	43.664
781.63	49.525
781.81	52.266
781.99	46.241
782.16	45.918
782.34	42.163
782.52	47.179
782.69	39.735
782.87	49.211
783.05	41.605
783.22	50.867
783.40	30.981
783.58	50.077
783.75	44.745
783.93	49.721
784.11	41.920
784.28	49.396
784.46	33.333
784.64	47.967
784.81	42.546
784.99	53.429
785.17	42.373
785.34	45.510
785.52	36.950
785.69	47.496
785.87	46.042
786.05	44.601
786.22	51.597
786.40	56.954
786.58	41.997
786.75	43.528
786.93	40.549
787.11	43.284
787.28	40.728
787.46	56.154
787.63	48.413
787.81	44.088
787.99	39.227
788.16	42.468
788.34	41.295
788.51	45.918
788.69	38.844
788.87	48.396
789.04	38.336
789.22	50.697
789.39	45.184
789.57	51.504
789.75	49.588
789.92	48.693
790.10	37.263
790.27	47.368
790.45	42.324
790.63	47.420
790.80	38.223
790.98	44.118
791.15	47.866
791.33	36.842
791.51	34.405
791.68	49.655
791.86	39.417
792.03	42.730
792.21	34.319
792.39	47.778
792.56	43.987
792.74	46.457
792.91	35.165
793.09	53.343
793.26	36.068
793.44	47.360
793.62	34.913
793.79	43.523
793.97	41.105
794.14	41.802
794.32	45.870
794.49	47.959
794.67	35.392
794.84	43.790
795.02	38.230
795.20	36.430
795.37	37.966
795.55	41.063
795.72	42.155
795.90	42.159
796.07	42.193
796.25	41.512
796.42	37.500
796.60	36.772
796.77	42.314
796.95	48.858
797.13	35.160
797.30	46.319
797.48	38.563
797.65	40.232
797.83	27.778
798.00	47.040
798.18	37.799
798.35	40.289
798.53	45.195
798.70	45.671
798.88	39.219
799.05	42.398
799.23	32.357
799.40	45.000
799.58	37.629
799.75	38.898
799.93	39.021
800.10	43.805
800.28	39.410
800.45	37.757
800.63	27.103
800.80	47.048
800.98	35.236
801.15	36.960
801.33	36.602
801.50	41.626
801.68	32.724
801.85	36.219
802.03	40.594
802.20	39.688
802.38	34.300
802.55	39.292
802.73	47.552
802.90	44.444
803.08	39.098
803.25	49.620
803.43	36.194
803.60	46.289
803.78	33.868
803.95	38.628
804.13	40.117
804.30	44.487
804.48	40.891
804.65	41.879
804.83	39.685
805.00	35.231
805.17	35.359
805.35	40.392
805.52	27.677
805.70	44.271
805.87	32.994
806.05	41.068
806.22	31.365
806.40	37.544
806.57	38.490
806.75	44.077
806.92	39.755
807.09	48.544
807.27	32.171
807.44	52.083
807.62	33.457
807.79	40.871
807.97	41.276
808.14	44.545
808.31	45.505
808.49	37.852
808.66	37.085
808.84	41.463
809.01	37.828
809.19	35.352
809.36	40.145
809.53	44.031
809.71	35.785
809.88	45.378
810.06	42.742
810.23	40.435
810.41	29.508
810.58	41.353
810.75	42.086
810.93	30.208
811.10	35.433
811.28	39.044
811.45	35.080
811.62	34.581
811.80	32.379
811.97	42.273
812.15	31.590
812.32	35.778
812.49	41.646
812.67	33.405
812.84	35.955
813.02	43.210
813.19	30.400
813.36	36.226
813.54	40.523
813.71	46.652
813.89	31.235
814.06	41.910
814.23	38.784
814.41	30.479
814.58	38.511
814.75	42.717
814.93	20.628
815.10	39.359
815.28	26.392
815.45	31.971
815.62	41.419
815.80	21.205
815.97	36.128
816.14	36.802
816.32	29.095
816.49	30.992
816.66	39.659
816.84	36.605
817.01	40.476
817.18	36.632
817.36	33.835
817.53	36.795
817.71	22.824
817.88	40.945
818.05	27.660
818.23	39.370
818.40	36.403
818.57	37.079
818.75	34.977
818.92	32.522
819.09	28.352
819.27	32.780
819.44	26.477
819.61	25.506
819.79	29.495
819.96	37.548
820.13	25.763
820.31	38.756
820.48	38.241
820.65	47.419
820.82	35.366
821.00	40.363
821.17	33.460
821.34	42.780
821.52	40.141
821.69	39.506
821.86	42.655
822.04	53.810
822.21	54.980
822.38	60.965
822.56	55.512
822.73	63.429
822.90	61.747
823.07	64.390
823.25	63.377
823.42	64.589
823.59	63.685
823.77	62.547
823.94	61.833
824.11	62.830
824.29	61.136
824.46	60.065
824.63	62.333
824.80	62.828
824.98	64.922
825.15	57.854
825.32	57.174
825.49	59.093
825.67	53.074
825.84	55.591
826.01	48.904
826.19	52.120
826.36	40.308
826.53	53.266
826.70	43.956
826.88	55.148
827.05	44.877
827.22	49.248
827.39	52.514
827.57	55.705
827.74	48.414
827.91	58.649
828.08	46.507
828.26	62.122
828.43	49.137
828.60	57.069
828.77	52.134
828.95	57.515
829.12	39.756
829.29	43.889
829.46	46.472
829.64	39.831
829.81	32.670
829.98	47.317
830.15	35.543
830.32	30.991
830.50	31.158
830.67	36.536
830.84	24.271
831.01	29.096
831.19	25.556
831.36	29.268
831.53	36.295
831.70	29.580
831.87	36.853
832.05	40.959
832.22	48.298
832.39	32.166
832.56	31.887
832.74	24.948
832.91	30.250
833.08	41.155
833.25	22.099
833.42	34.926
833.60	33.126
833.77	27.770
833.94	31.660
834.11	34.025
834.28	27.961
834.45	39.537
834.63	32.682
834.80	45.474
834.97	34.914
835.14	49.185
835.31	40.340
835.49	42.445
835.66	35.168
835.83	35.275
836.00	32.394
836.17	36.293
836.34	31.064
836.52	40.769
836.69	39.458
836.86	35.619
837.03	24.733
837.20	20.265
837.37	36.622
837.55	26.843
837.72	38.361
837.89	33.482
838.06	35.990
838.23	34.737
838.40	29.880
838.58	22.350
838.75	36.810
838.92	32.754
839.09	54.747
839.26	33.239
839.43	45.139
839.60	29.582
839.78	42.857
839.95	27.083
840.12	26.316
840.29	35.180
840.46	33.022
840.63	29.917
840.80	34.828
840.98	49.311
841.15	31.726
841.32	35.754
841.49	36.915
841.66	27.297
841.83	31.206
842.00	35.127
842.17	48.883
842.34	32.869
842.52	29.697
842.69	42.722
842.86	26.007
843.03	45.016
843.20	43.228
843.37	35.317
843.54	38.567
843.71	47.083
843.88	39.416
844.06	45.339
844.23	58.898
844.40	51.695
844.57	46.694
844.74	38.362
844.91	47.264
845.08	38.418
845.25	67.021
845.42	50.838
845.59	39.344
845.76	35.484
845.94	48.889
846.11	46.040
846.28	48.606
846.45	41.398
846.62	46.500
846.79	33.755
846.96	29.121
847.13	58.152
847.30	69.492
847.47	34.021
847.64	37.143
847.81	38.235
847.98	52.973
848.15	47.486
848.32	58.549
848.50	52.000
848.67	47.337
848.84	34.320
849.01	63.309
849.18	38.235
849.35	58.571
849.52	55.026
849.69	48.901
849.86	50.000
850.03	83.471
850.20	80.667
850.37	41.176
850.54	59.574
850.71	51.562
850.88	58.065
851.05	50.000
851.22	56.627
851.39	55.615
851.56	102.586
851.73	58.929
851.90	46.405
852.07	40.351
852.24	64.052
852.41	41.117
852.58	56.284
852.75	41.279
852.92	64.641
853.09	71.242
853.26	52.941
853.43	30.588
853.60	63.946
853.77	54.749
853.94	31.858
854.11	58.889
854.28	68.750
854.45	29.870
854.62	75.581
854.79	31.515
854.96	72.222
855.13	49.057
855.30	74.453
855.47	95.161
855.64	48.447
855.81	52.518
855.98	31.298
856.15	66.154
856.32	35.545
856.49	59.322
856.66	50.641
856.83	61.006
857.00	52.459
857.17	59.677
857.34	65.761
857.51	33.099
857.68	65.306
857.85	47.059
858.02	65.986
858.19	47.514
858.36	83.333
858.53	33.728
858.70	54.396
858.87	55.862
859.04	64.118
859.21	55.303
859.38	53.917
859.55	55.682
859.72	56.250
859.89	71.329
860.05	74.820
860.22	75.758
860.39	74.138
860.56	88.690
860.73	67.857
860.90	70.659
861.07	64.000
861.24	23.529
861.41	53.757
861.58	55.195
861.75	54.331
861.92	58.125
862.09	62.312
862.26	52.903
862.43	70.667
862.59	51.974
862.76	64.249
862.93	64.615
863.10	55.882
863.27	18.462
863.44	39.837
863.61	42.754
863.78	68.449
863.95	48.780
864.12	28.205
864.29	65.254
864.45	15.094
864.62	45.528
864.79	58.824
864.96	47.115
865.13	85.401
865.30	76.531
865.47	59.310
865.64	58.741
865.81	65.789
865.97	11.321
866.14	43.850
866.31	75.410
866.48	33.099
866.65	52.147
866.82	38.255
866.99	50.000
867.16	37.984
867.33	58.865
867.49	78.313
867.66	86.567
867.83	64.732
868.00	55.376
868.17	80.916
868.34	72.441
868.51	20.423
868.67	74.405
868.84	51.852
869.01	66.207
869.18	23.200
869.35	61.702
869.52	44.526
869.69	84.328
869.85	61.486
870.02	74.457
870.19	53.077
870.36	43.165
870.53	53.571
870.70	55.357
870.86	48.701
871.03	67.883
871.20	42.857
871.37	40.828
871.54	35.849
871.71	26.515
871.87	114.433
872.04	12.500
872.21	56.061
872.38	86.747
872.55	33.571
872.72	35.507
872.88	49.167
873.05	52.406
873.22	52.500
873.39	32.317
873.56	44.604
873.72	68.508
873.89	68.790
874.06	52.459
874.23	43.478
874.40	44.800
874.56	56.061
874.73	59.167
874.90	58.219
875.07	53.435
875.24	48.780
875.40	71.429
875.57	43.651
875.74	45.625
875.91	65.079
876.08	67.143
876.24	62.179
876.41	66.165
876.58	51.825
876.75	61.290
876.92	50.000
877.08	68.613
877.25	67.532
877.42	53.077
877.59	64.458
877.75	52.358
877.92	40.698
878.09	55.263
878.26	36.986
878.42	50.370
878.59	60.227
878.76	55.556
878.93	58.940
879.09	51.020
879.26	43.590
879.43	58.854
879.60	56.364
879.76	36.410
879.93	41.624
880.10	34.884
880.27	36.000
880.43	45.918
880.60	42.723
880.77	44.314
880.94	42.143
881.10	33.448
881.27	39.779
881.44	24.512
881.61	40.845
881.77	35.609
881.94	24.763
882.11	28.698
882.28	27.989
882.44	24.905
882.61	27.797
882.78	34.899
882.94	48.877
883.11	41.753
883.28	39.412
883.45	36.306
883.61	40.345
883.78	37.500
883.95	38.060
884.11	37.553
884.28	36.977
>>>>>End Processed Spectral Data<<<<<
