SpectraSuite Data File
++++++++++++++++++++++++++++++++++++
Date: Thu Sep 19 02:59:20 EST 2019
User: sgrac
Dark Spectrum Present: Yes
Reference Spectrum Present: Yes
Number of Sampled Component Spectra: 1
Spectrometers: USB4E01596
Integration Time (usec): 100000 (USB4E01596)
Spectra Averaged: 1 (USB4E01596)
Boxcar Smoothing: 0 (USB4E01596)
Correct for Electrical Dark: No (USB4E01596)
Strobe/Lamp Enabled: Yes (USB4E01596)
Correct for Detector Non-linearity: No (USB4E01596)
Correct for Stray Light: No (USB4E01596)
Number of Pixels in Processed Spectrum: 3648
>>>>>Begin Processed Spectral Data<<<<<
178.44	492.857
178.66	492.857
178.87	492.857
179.09	-590.909
179.30	169.643
179.52	1357.143
179.74	-411.111
179.95	576.190
180.17	972.727
180.38	191.045
180.60	0.000
180.82	548.387
181.03	192.593
181.25	2350.000
181.46	723.077
181.68	-127.907
181.89	907.143
182.11	479.167
182.33	474.074
182.54	891.667
182.76	550.000
182.97	-342.857
183.19	200.000
183.40	254.545
183.62	333.333
183.84	1775.000
184.05	926.667
184.27	-3950.000
184.48	149.206
184.70	4150.000
184.91	526.923
185.13	191.549
185.34	-159.615
185.56	562.963
185.78	311.538
185.99	-2925.000
186.21	-781.818
186.42	-175.000
186.64	840.000
186.85	-4250.000
187.07	368.182
187.28	442.857
187.50	359.091
187.72	327.778
187.93	605.556
188.15	647.368
188.36	623.529
188.58	353.846
188.79	1283.333
189.01	487.500
189.22	2680.000
189.44	470.000
189.65	-4700.000
189.87	2900.000
190.09	700.000
190.30	1900.000
190.52	716.667
190.73	-276.923
190.95	279.545
191.16	279.167
191.38	302.778
191.59	-1009.091
191.81	609.091
192.02	700.000
192.24	411.538
192.45	1275.000
192.67	1650.000
192.88	-337.037
193.10	-12100.000
193.31	400.000
193.53	-400.000
193.74	-2225.000
193.96	1700.000
194.18	718.750
194.39	302.439
194.61	589.474
194.82	1018.182
195.04	588.000
195.25	2966.667
195.47	250.000
195.68	676.471
195.90	244.186
196.11	407.692
196.33	-1500.000
196.54	-642.105
196.76	531.818
196.97	1211.111
197.19	-11200.000
197.40	833.333
197.62	1766.667
197.83	700.000
198.05	453.571
198.26	255.000
198.48	373.529
198.69	-1455.556
198.91	472.222
199.12	371.429
199.34	-1214.286
199.55	191.228
199.77	221.739
199.98	-909.091
200.20	605.000
200.41	5000.000
200.63	421.429
200.84	295.238
201.06	-884.615
201.27	-1840.000
201.49	625.000
201.70	481.250
201.91	-6100.000
202.13	410.526
202.34	254.348
202.56	5750.000
202.77	625.000
202.99	250.000
203.20	421.212
203.42	-1628.571
203.63	1783.333
203.85	372.222
204.06	530.435
204.28	1225.000
204.49	-990.000
204.71	319.512
204.92	280.000
205.14	262.222
205.35	127.143
205.56	1466.667
205.78	518.182
205.99	-860.000
206.21	491.304
206.42	157.627
206.64	-1816.667
206.85	509.524
207.07	615.789
207.28	-2280.000
207.50	227.778
207.71	525.000
207.93	247.917
208.14	418.519
208.35	488.235
208.57	-328.000
208.78	-258.537
209.00	216.279
209.21	304.762
209.43	512.000
209.64	8900.000
209.86	304.762
210.07	479.310
210.28	-784.615
210.50	552.941
210.71	395.000
210.93	353.125
211.14	218.571
211.36	217.391
211.57	495.000
211.78	343.590
212.00	746.667
212.21	623.529
212.43	566.667
212.64	410.000
212.86	96.154
213.07	406.897
213.29	510.000
213.50	383.871
213.71	353.333
213.93	1985.714
214.14	564.706
214.36	1037.500
214.57	197.183
214.78	926.667
215.00	663.158
215.21	372.222
215.43	174.684
215.64	322.222
215.86	640.000
216.07	389.474
216.28	215.556
216.50	3100.000
216.71	-7500.000
216.93	400.000
217.14	168.182
217.35	325.714
217.57	1400.000
217.78	280.000
218.00	3133.333
218.21	395.833
218.42	190.625
218.64	-6000.000
218.85	311.765
219.07	1528.571
219.28	211.475
219.49	-916.667
219.71	900.000
219.92	156.757
220.14	1225.000
220.35	197.727
220.56	700.000
220.78	236.842
220.99	242.857
221.21	112.371
221.42	460.870
221.63	3650.000
221.85	462.500
222.06	250.000
222.28	182.667
222.49	-700.000
222.70	164.815
222.92	-6600.000
223.13	292.105
223.34	155.435
223.56	1075.000
223.77	132.353
223.99	262.222
224.20	223.333
224.41	158.667
224.63	3500.000
224.84	3533.333
225.05	669.231
225.27	282.051
225.48	233.333
225.69	112.941
225.91	185.938
226.12	160.870
226.34	321.875
226.55	95.588
226.76	133.333
226.98	139.773
227.19	106.410
227.40	192.000
227.62	167.123
227.83	96.429
228.04	40.260
228.26	75.000
228.47	80.833
228.69	75.000
228.90	53.571
229.11	41.048
229.33	50.239
229.54	34.855
229.75	25.442
229.97	28.354
230.18	39.203
230.39	25.253
230.61	44.369
230.82	28.904
231.03	32.166
231.25	39.262
231.46	37.798
231.67	45.660
231.89	25.794
232.10	41.887
232.31	61.161
232.53	48.624
232.74	54.587
232.95	47.059
233.17	40.513
233.38	45.789
233.59	58.989
233.81	94.444
234.02	78.286
234.23	50.515
234.45	47.727
234.66	66.667
234.87	55.233
235.09	65.957
235.30	49.515
235.51	43.946
235.73	52.020
235.94	42.857
236.15	57.836
236.36	52.444
236.58	48.325
236.79	53.879
237.00	48.594
237.22	71.958
237.43	47.082
237.64	46.584
237.86	50.943
238.07	59.244
238.28	38.189
238.50	35.885
238.71	66.839
238.92	56.604
239.13	44.624
239.35	57.676
239.56	50.000
239.77	62.842
239.99	36.290
240.20	61.868
240.41	45.669
240.63	39.403
240.84	41.150
241.05	23.311
241.26	28.291
241.48	24.771
241.69	17.344
241.90	24.368
242.12	23.722
242.33	16.667
242.54	18.151
242.75	20.707
242.97	14.589
243.18	7.174
243.39	12.533
243.61	14.455
243.82	14.355
244.03	10.519
244.24	13.559
244.46	20.027
244.67	17.155
244.88	15.284
245.09	17.492
245.31	16.230
245.52	18.531
245.73	26.516
245.95	35.913
246.16	27.321
246.37	21.380
246.58	23.077
246.80	13.323
247.01	16.157
247.22	7.968
247.43	12.619
247.65	8.475
247.86	11.765
248.07	6.383
248.28	6.028
248.50	7.713
248.71	4.616
248.92	5.766
249.13	8.874
249.35	3.390
249.56	6.132
249.77	8.285
249.98	9.585
250.20	12.019
250.41	15.521
250.62	14.188
250.83	11.140
251.05	15.318
251.26	18.641
251.47	20.465
251.68	24.658
251.90	19.048
252.11	22.296
252.32	7.266
252.53	12.757
252.75	18.287
252.96	18.407
253.17	13.947
253.38	14.982
253.59	10.494
253.81	18.742
254.02	12.887
254.23	14.845
254.44	20.571
254.66	10.784
254.87	22.712
255.08	19.005
255.29	17.939
255.50	16.701
255.72	18.627
255.93	24.888
256.14	29.310
256.35	14.849
256.57	20.885
256.78	26.535
256.99	27.799
257.20	28.184
257.41	20.206
257.63	20.865
257.84	25.427
258.05	10.920
258.26	18.328
258.47	27.915
258.69	11.669
258.90	10.420
259.11	13.566
259.32	12.100
259.53	11.475
259.75	13.101
259.96	8.441
260.17	8.784
260.38	7.420
260.59	6.367
260.81	6.291
261.02	6.020
261.23	6.012
261.44	5.975
261.65	6.741
261.87	7.581
262.08	5.981
262.29	9.746
262.50	7.977
262.71	7.399
262.92	7.295
263.14	9.286
263.35	5.871
263.56	10.316
263.77	7.799
263.98	13.702
264.20	18.454
264.41	13.098
264.62	15.280
264.83	3.543
265.04	17.905
265.25	15.830
265.47	12.382
265.68	14.644
265.89	16.510
266.10	10.907
266.31	11.602
266.52	16.033
266.74	13.647
266.95	8.132
267.16	10.826
267.37	8.152
267.58	8.105
267.79	12.124
268.01	12.195
268.22	8.688
268.43	7.328
268.64	11.776
268.85	8.287
269.06	11.749
269.27	10.711
269.49	14.439
269.70	12.427
269.91	10.273
270.12	7.465
270.33	11.992
270.54	11.628
270.75	11.299
270.97	10.254
271.18	7.563
271.39	12.015
271.60	11.302
271.81	9.966
272.02	8.706
272.23	6.946
272.45	6.842
272.66	7.709
272.87	8.689
273.08	6.535
273.29	6.037
273.50	5.189
273.71	8.095
273.92	6.140
274.14	5.613
274.35	7.218
274.56	10.056
274.77	7.004
274.98	10.224
275.19	5.663
275.40	8.036
275.61	8.333
275.83	10.177
276.04	9.215
276.25	9.588
276.46	8.739
276.67	12.024
276.88	8.524
277.09	13.720
277.30	11.600
277.51	13.108
277.73	7.476
277.94	7.665
278.15	12.369
278.36	12.288
278.57	11.833
278.78	9.463
278.99	8.795
279.20	11.172
279.41	6.290
279.62	9.767
279.84	12.579
280.05	8.194
280.26	9.283
280.47	12.680
280.68	4.665
280.89	11.148
281.10	11.070
281.31	7.079
281.52	7.843
281.73	9.246
281.94	6.594
282.16	9.349
282.37	7.982
282.58	10.580
282.79	10.860
283.00	8.193
283.21	5.793
283.42	5.341
283.63	6.885
283.84	6.204
284.05	6.098
284.26	6.627
284.47	7.601
284.68	8.056
284.89	7.692
285.11	7.881
285.32	2.736
285.53	7.320
285.74	9.373
285.95	7.601
286.16	6.318
286.37	6.377
286.58	8.778
286.79	6.484
287.00	5.045
287.21	5.250
287.42	5.392
287.63	5.407
287.84	7.661
288.05	6.910
288.26	9.140
288.48	8.412
288.69	3.606
288.90	6.984
289.11	8.629
289.32	7.530
289.53	6.270
289.74	6.699
289.95	9.273
290.16	10.568
290.37	5.036
290.58	5.125
290.79	6.297
291.00	6.901
291.21	6.316
291.42	7.973
291.63	6.911
291.84	6.566
292.05	6.656
292.26	6.518
292.47	8.117
292.68	7.117
292.89	5.621
293.10	1.826
293.31	8.825
293.52	5.197
293.73	5.671
293.94	10.121
294.15	8.743
294.36	5.133
294.57	11.002
294.79	4.918
295.00	5.659
295.21	7.711
295.42	7.842
295.63	6.635
295.84	6.154
296.05	5.931
296.26	5.220
296.47	5.271
296.68	5.280
296.89	5.753
297.10	5.981
297.31	6.601
297.52	4.934
297.73	4.410
297.94	3.848
298.15	4.856
298.36	6.257
298.57	5.465
298.78	4.618
298.99	4.003
299.20	5.687
299.41	4.952
299.62	4.495
299.83	4.929
300.04	5.750
300.25	8.139
300.46	5.603
300.67	6.334
300.88	5.281
301.09	6.920
301.30	6.778
301.50	6.328
301.71	9.354
301.92	7.692
302.13	4.790
302.34	5.101
302.55	7.324
302.76	4.147
302.97	5.886
303.18	4.570
303.39	7.433
303.60	5.404
303.81	7.778
304.02	8.343
304.23	6.852
304.44	8.858
304.65	8.209
304.86	6.627
305.07	7.764
305.28	7.674
305.49	5.829
305.70	5.861
305.91	6.955
306.12	6.430
306.33	7.067
306.54	3.539
306.75	6.250
306.96	10.373
307.17	6.084
307.38	5.370
307.58	6.045
307.79	5.662
308.00	6.539
308.21	6.563
308.42	5.122
308.63	9.646
308.84	4.962
309.05	5.148
309.26	7.892
309.47	9.315
309.68	4.673
309.89	7.684
310.10	5.130
310.31	4.841
310.52	4.674
310.73	5.337
310.94	2.813
311.14	4.050
311.35	4.325
311.56	3.657
311.77	5.540
311.98	7.844
312.19	3.915
312.40	7.203
312.61	5.261
312.82	5.246
313.03	4.222
313.24	5.827
313.45	5.589
313.66	6.025
313.86	4.740
314.07	7.003
314.28	8.933
314.49	6.739
314.70	5.640
314.91	10.323
315.12	5.804
315.33	7.451
315.54	7.826
315.75	7.464
315.96	6.499
316.16	6.257
316.37	5.184
316.58	8.171
316.79	7.307
317.00	5.382
317.21	6.980
317.42	8.154
317.63	3.241
317.84	5.433
318.05	6.235
318.25	6.788
318.46	4.874
318.67	5.044
318.88	7.503
319.09	6.894
319.30	6.483
319.51	5.671
319.72	5.800
319.93	6.540
320.13	10.476
320.34	7.290
320.55	6.082
320.76	4.800
320.97	4.645
321.18	6.519
321.39	6.049
321.60	6.424
321.80	6.378
322.01	4.627
322.22	6.182
322.43	6.987
322.64	5.149
322.85	6.004
323.06	6.914
323.27	7.064
323.47	9.969
323.68	9.513
323.89	4.750
324.10	9.873
324.31	3.354
324.52	4.319
324.73	6.503
324.93	8.226
325.14	5.553
325.35	4.430
325.56	7.688
325.77	7.939
325.98	6.935
326.19	7.525
326.39	3.620
326.60	6.933
326.81	5.943
327.02	5.817
327.23	3.605
327.44	7.310
327.64	3.562
327.85	6.580
328.06	4.700
328.27	8.576
328.48	4.865
328.69	3.964
328.90	6.197
329.10	7.314
329.31	6.165
329.52	5.254
329.73	8.198
329.94	6.391
330.15	6.955
330.35	5.737
330.56	6.716
330.77	5.439
330.98	7.764
331.19	6.469
331.39	8.225
331.60	5.203
331.81	3.089
332.02	7.067
332.23	3.684
332.44	5.358
332.64	5.588
332.85	7.285
333.06	7.193
333.27	5.525
333.48	5.800
333.68	5.127
333.89	6.160
334.10	5.961
334.31	6.897
334.52	3.680
334.72	4.980
334.93	5.315
335.14	6.282
335.35	5.263
335.56	5.128
335.76	5.092
335.97	5.195
336.18	4.740
336.39	7.072
336.60	6.468
336.80	5.900
337.01	4.216
337.22	4.514
337.43	5.903
337.64	5.466
337.84	7.295
338.05	6.747
338.26	7.180
338.47	4.357
338.68	5.897
338.88	6.037
339.09	5.605
339.30	4.358
339.51	4.694
339.71	5.593
339.92	6.843
340.13	4.880
340.34	6.339
340.55	3.160
340.75	7.229
340.96	3.175
341.17	5.165
341.38	5.629
341.58	2.782
341.79	4.381
342.00	5.880
342.21	5.294
342.41	2.514
342.62	5.146
342.83	6.241
343.04	6.187
343.24	5.393
343.45	6.019
343.66	6.739
343.87	4.572
344.07	4.211
344.28	4.850
344.49	3.476
344.70	5.513
344.90	4.791
345.11	3.314
345.32	3.738
345.53	4.805
345.73	6.145
345.94	3.940
346.15	4.008
346.36	1.777
346.56	4.056
346.77	4.444
346.98	4.976
347.19	4.139
347.39	4.659
347.60	2.985
347.81	4.948
348.02	5.617
348.22	3.876
348.43	4.403
348.64	5.303
348.84	4.533
349.05	4.899
349.26	5.561
349.47	5.352
349.67	2.407
349.88	5.929
350.09	5.735
350.30	6.142
350.50	3.962
350.71	5.731
350.92	6.534
351.12	3.481
351.33	5.257
351.54	3.771
351.74	2.315
351.95	5.963
352.16	6.043
352.37	7.397
352.57	4.718
352.78	3.769
352.99	4.386
353.19	5.759
353.40	5.553
353.61	6.067
353.82	5.024
354.02	6.068
354.23	4.297
354.44	4.424
354.64	3.307
354.85	5.650
355.06	5.043
355.26	3.634
355.47	4.211
355.68	7.068
355.88	5.452
356.09	5.115
356.30	3.984
356.51	5.697
356.71	3.056
356.92	3.831
357.13	5.196
357.33	4.864
357.54	6.793
357.75	3.608
357.95	5.267
358.16	3.378
358.37	5.110
358.57	3.932
358.78	4.989
358.99	3.986
359.19	4.533
359.40	5.237
359.61	3.844
359.81	5.306
360.02	7.048
360.23	5.113
360.43	4.099
360.64	4.150
360.85	3.574
361.05	3.208
361.26	6.221
361.47	5.104
361.67	5.176
361.88	3.198
362.09	2.453
362.29	4.055
362.50	4.107
362.70	3.828
362.91	5.066
363.12	4.472
363.32	4.460
363.53	5.035
363.74	3.979
363.94	2.682
364.15	5.095
364.36	4.041
364.56	3.839
364.77	4.738
364.98	6.125
365.18	5.408
365.39	5.393
365.59	4.408
365.80	2.796
366.01	6.373
366.21	3.395
366.42	4.434
366.63	5.640
366.83	5.135
367.04	2.390
367.24	6.843
367.45	4.209
367.66	4.819
367.86	2.541
368.07	5.663
368.28	4.723
368.48	4.165
368.69	3.740
368.89	4.216
369.10	4.665
369.31	5.327
369.51	3.408
369.72	6.313
369.92	6.133
370.13	4.575
370.34	5.792
370.54	4.433
370.75	5.602
370.95	4.040
371.16	4.562
371.37	3.149
371.57	3.816
371.78	4.414
371.98	4.630
372.19	4.420
372.40	4.366
372.60	5.179
372.81	5.175
373.01	4.748
373.22	4.308
373.43	3.749
373.63	4.529
373.84	4.953
374.04	4.135
374.25	4.834
374.46	4.174
374.66	4.665
374.87	5.039
375.07	3.698
375.28	4.202
375.48	4.349
375.69	3.440
375.90	2.507
376.10	4.055
376.31	4.511
376.51	3.230
376.72	4.447
376.92	3.482
377.13	4.993
377.34	5.522
377.54	4.594
377.75	4.196
377.95	3.485
378.16	3.898
378.36	3.713
378.57	3.767
378.77	4.826
378.98	3.176
379.19	3.834
379.39	3.530
379.60	4.048
379.80	2.735
380.01	4.743
380.21	4.251
380.42	4.676
380.62	2.895
380.83	3.941
381.04	4.758
381.24	5.332
381.45	3.712
381.65	3.565
381.86	3.863
382.06	5.426
382.27	3.805
382.47	3.185
382.68	4.596
382.88	3.579
383.09	4.323
383.29	3.850
383.50	5.773
383.71	5.086
383.91	2.872
384.12	2.567
384.32	6.083
384.53	4.436
384.73	3.582
384.94	3.211
385.14	4.174
385.35	3.087
385.55	3.650
385.76	3.014
385.96	3.874
386.17	4.221
386.37	3.992
386.58	3.656
386.78	5.110
386.99	4.376
387.19	4.840
387.40	4.222
387.60	5.572
387.81	2.737
388.01	4.208
388.22	4.279
388.42	4.281
388.63	4.703
388.83	5.772
389.04	4.105
389.24	3.416
389.45	4.485
389.65	3.412
389.86	4.396
390.06	3.072
390.27	3.043
390.47	3.654
390.68	3.543
390.88	4.987
391.09	3.923
391.29	4.226
391.50	4.360
391.70	4.108
391.91	4.333
392.11	4.160
392.32	4.531
392.52	3.773
392.73	4.501
392.93	4.555
393.14	3.961
393.34	4.435
393.55	4.925
393.75	3.739
393.95	4.474
394.16	4.302
394.36	4.216
394.57	4.790
394.77	4.503
394.98	4.228
395.18	4.536
395.39	4.444
395.59	3.614
395.80	3.645
396.00	4.598
396.21	5.183
396.41	3.503
396.61	5.395
396.82	4.598
397.02	5.840
397.23	5.139
397.43	4.295
397.64	3.863
397.84	4.927
398.05	3.494
398.25	4.562
398.45	4.103
398.66	4.964
398.86	4.705
399.07	5.297
399.27	4.533
399.48	5.820
399.68	4.170
399.89	3.595
400.09	5.139
400.29	4.149
400.50	4.274
400.70	6.842
400.91	2.730
401.11	3.884
401.32	5.790
401.52	3.776
401.72	4.953
401.93	4.874
402.13	4.883
402.34	5.249
402.54	3.677
402.75	6.564
402.95	4.767
403.15	5.337
403.36	4.615
403.56	4.450
403.77	4.232
403.97	4.109
404.17	4.669
404.38	4.285
404.58	4.255
404.79	4.821
404.99	4.620
405.19	4.160
405.40	3.542
405.60	4.497
405.81	4.523
406.01	3.948
406.21	3.504
406.42	4.202
406.62	4.498
406.83	4.631
407.03	5.444
407.23	3.215
407.44	3.909
407.64	3.659
407.85	4.872
408.05	4.307
408.25	3.539
408.46	5.709
408.66	3.629
408.87	4.109
409.07	4.401
409.27	2.746
409.48	4.220
409.68	4.417
409.88	2.758
410.09	4.223
410.29	4.390
410.50	5.259
410.70	3.347
410.90	4.001
411.11	4.385
411.31	4.126
411.51	4.781
411.72	5.322
411.92	3.216
412.12	3.756
412.33	3.450
412.53	4.123
412.74	3.552
412.94	5.060
413.14	3.788
413.35	3.442
413.55	4.056
413.75	4.193
413.96	2.674
414.16	3.874
414.36	4.996
414.57	4.309
414.77	3.945
414.97	4.593
415.18	3.046
415.38	4.156
415.58	4.441
415.79	3.889
415.99	3.494
416.19	4.107
416.40	3.984
416.60	3.717
416.80	3.848
417.01	4.450
417.21	2.925
417.41	5.401
417.62	3.620
417.82	4.019
418.02	3.306
418.23	2.962
418.43	3.420
418.63	3.664
418.84	3.991
419.04	3.492
419.24	5.282
419.45	4.813
419.65	4.578
419.85	3.846
420.06	3.506
420.26	3.427
420.46	3.937
420.67	4.813
420.87	4.677
421.07	4.742
421.28	3.444
421.48	4.835
421.68	4.825
421.88	5.208
422.09	4.661
422.29	4.346
422.49	3.783
422.70	3.590
422.90	4.139
423.10	5.105
423.31	4.452
423.51	5.076
423.71	3.858
423.91	5.319
424.12	4.852
424.32	4.781
424.52	4.273
424.73	4.170
424.93	5.042
425.13	4.054
425.33	3.848
425.54	5.144
425.74	4.439
425.94	5.312
426.15	4.386
426.35	3.926
426.55	4.664
426.75	4.497
426.96	4.807
427.16	4.165
427.36	4.115
427.57	4.935
427.77	3.508
427.97	4.437
428.17	4.832
428.38	5.618
428.58	2.763
428.78	4.415
428.98	3.343
429.19	3.678
429.39	2.789
429.59	5.116
429.79	3.633
430.00	3.683
430.20	3.159
430.40	3.572
430.60	3.742
430.81	4.898
431.01	3.667
431.21	4.184
431.41	2.938
431.62	3.930
431.82	3.499
432.02	5.232
432.22	3.676
432.43	2.910
432.63	2.808
432.83	4.742
433.03	4.229
433.24	3.910
433.44	4.252
433.64	5.252
433.84	4.783
434.05	4.808
434.25	4.525
434.45	5.386
434.65	5.485
434.85	6.512
435.06	5.545
435.26	5.644
435.46	4.751
435.66	5.683
435.87	4.919
436.07	5.149
436.27	5.426
436.47	4.643
436.67	4.021
436.88	5.725
437.08	5.343
437.28	5.313
437.48	5.077
437.69	5.876
437.89	5.617
438.09	6.912
438.29	4.578
438.49	6.752
438.70	5.462
438.90	4.875
439.10	5.188
439.30	6.238
439.50	4.950
439.71	6.942
439.91	5.869
440.11	7.471
440.31	6.937
440.51	6.626
440.72	6.382
440.92	7.138
441.12	7.514
441.32	8.803
441.52	7.325
441.72	7.299
441.93	6.725
442.13	8.216
442.33	7.130
442.53	8.525
442.73	5.906
442.94	7.649
443.14	6.652
443.34	8.536
443.54	7.286
443.74	8.256
443.94	6.308
444.15	6.865
444.35	6.331
444.55	7.686
444.75	6.915
444.95	7.764
445.15	7.249
445.36	6.697
445.56	6.385
445.76	8.247
445.96	6.866
446.16	7.266
446.36	6.774
446.57	8.695
446.77	6.031
446.97	7.952
447.17	8.286
447.37	7.956
447.57	8.456
447.77	8.787
447.98	7.672
448.18	8.900
448.38	7.435
448.58	8.190
448.78	8.133
448.98	8.098
449.18	7.352
449.39	8.280
449.59	7.213
449.79	7.899
449.99	6.673
450.19	7.912
450.39	7.341
450.59	7.932
450.79	6.618
451.00	7.732
451.20	7.044
451.40	6.861
451.60	5.963
451.80	7.817
452.00	6.156
452.20	6.691
452.40	6.553
452.61	7.073
452.81	6.293
453.01	7.474
453.21	6.514
453.41	7.833
453.61	6.806
453.81	6.744
454.01	6.623
454.21	6.882
454.42	7.217
454.62	7.292
454.82	6.551
455.02	6.365
455.22	5.704
455.42	6.463
455.62	5.904
455.82	6.721
456.02	5.807
456.23	6.807
456.43	6.375
456.63	6.605
456.83	4.543
457.03	7.197
457.23	6.949
457.43	6.658
457.63	6.252
457.83	7.450
458.03	6.186
458.23	7.349
458.43	5.690
458.64	7.176
458.84	6.356
459.04	6.938
459.24	7.831
459.44	7.935
459.64	7.785
459.84	7.984
460.04	7.861
460.24	8.142
460.44	7.346
460.64	8.617
460.84	7.790
461.04	9.089
461.24	8.723
461.45	9.077
461.65	8.771
461.85	9.510
462.05	8.761
462.25	8.812
462.45	8.793
462.65	8.785
462.85	6.715
463.05	8.330
463.25	6.245
463.45	8.599
463.65	6.738
463.85	8.743
464.05	7.456
464.25	6.338
464.45	7.986
464.65	7.272
464.85	6.728
465.05	8.282
465.26	7.316
465.46	8.722
465.66	8.592
465.86	7.773
466.06	7.654
466.26	8.087
466.46	6.261
466.66	8.052
466.86	7.395
467.06	8.892
467.26	8.297
467.46	9.050
467.66	8.603
467.86	9.010
468.06	7.907
468.26	7.467
468.46	8.451
468.66	9.019
468.86	7.589
469.06	9.559
469.26	7.787
469.46	9.355
469.66	7.757
469.86	9.750
470.06	8.968
470.26	10.503
470.46	8.392
470.66	10.748
470.86	8.576
471.06	9.635
471.26	8.186
471.46	9.690
471.66	9.114
471.86	10.111
472.06	9.051
472.26	10.930
472.46	10.825
472.66	10.518
472.86	9.887
473.06	10.596
473.26	10.149
473.46	11.122
473.66	9.679
473.86	11.525
474.06	9.980
474.26	11.420
474.46	10.100
474.66	12.025
474.86	10.948
475.06	12.106
475.26	9.931
475.46	13.094
475.66	10.657
475.86	12.574
476.06	12.513
476.26	12.852
476.46	11.631
476.66	13.320
476.86	10.944
477.06	12.796
477.26	12.265
477.46	12.994
477.65	13.352
477.85	13.960
478.05	12.577
478.25	14.461
478.45	13.316
478.65	13.567
478.85	13.757
479.05	15.062
479.25	14.227
479.45	14.348
479.65	13.654
479.85	14.559
480.05	14.389
480.25	14.795
480.45	15.564
480.65	15.354
480.85	15.332
481.05	15.590
481.25	16.063
481.44	16.090
481.64	15.517
481.84	15.768
482.04	15.643
482.24	15.398
482.44	15.736
482.64	15.678
482.84	15.983
483.04	15.998
483.24	15.615
483.44	15.253
483.64	15.395
483.84	15.379
484.04	16.029
484.23	16.022
484.43	17.421
484.63	17.448
484.83	18.880
485.03	19.552
485.23	19.938
485.43	19.374
485.63	19.512
485.83	18.286
486.03	17.694
486.23	18.108
486.42	18.472
486.62	17.799
486.82	18.132
487.02	17.642
487.22	18.158
487.42	17.517
487.62	17.980
487.82	17.291
488.02	18.090
488.22	17.681
488.41	18.742
488.61	17.858
488.81	18.689
489.01	18.466
489.21	18.901
489.41	18.733
489.61	19.354
489.81	18.956
490.01	19.668
490.20	19.277
490.40	19.540
490.60	19.432
490.80	19.636
491.00	18.852
491.20	18.870
491.40	18.834
491.60	18.872
491.79	18.222
491.99	19.285
492.19	18.770
492.39	19.902
492.59	18.842
492.79	19.649
492.99	19.703
493.19	19.937
493.38	19.973
493.58	20.581
493.78	20.241
493.98	20.547
494.18	20.778
494.38	20.581
494.58	20.072
494.77	20.941
494.97	20.395
495.17	20.007
495.37	20.094
495.57	21.099
495.77	20.060
495.96	20.134
496.16	19.918
496.36	20.065
496.56	19.757
496.76	20.485
496.96	20.663
497.15	19.824
497.35	19.891
497.55	20.672
497.75	19.778
497.95	20.644
498.15	20.397
498.34	21.122
498.54	20.692
498.74	21.007
498.94	21.053
499.14	20.566
499.34	20.861
499.53	21.076
499.73	20.965
499.93	21.329
500.13	21.152
500.33	21.193
500.52	21.007
500.72	21.699
500.92	21.847
501.12	21.382
501.32	21.178
501.52	21.092
501.71	21.171
501.91	21.775
502.11	20.968
502.31	21.814
502.51	21.698
502.70	21.424
502.90	22.041
503.10	20.435
503.30	21.662
503.50	21.376
503.69	21.617
503.89	21.558
504.09	22.111
504.29	21.643
504.48	21.991
504.68	22.485
504.88	22.324
505.08	21.991
505.28	22.049
505.47	22.037
505.67	22.301
505.87	22.275
506.07	22.103
506.27	22.703
506.46	22.941
506.66	22.058
506.86	21.809
507.06	22.429
507.25	22.509
507.45	22.519
507.65	22.072
507.85	22.041
508.04	22.087
508.24	22.473
508.44	22.364
508.64	22.563
508.83	22.635
509.03	22.107
509.23	22.472
509.43	22.686
509.63	22.148
509.82	22.490
510.02	22.468
510.22	22.415
510.42	21.637
510.61	22.755
510.81	22.194
511.01	22.700
511.21	22.229
511.40	22.905
511.60	23.031
511.80	23.133
511.99	23.167
512.19	22.674
512.39	22.560
512.59	22.675
512.78	22.170
512.98	23.018
513.18	22.780
513.38	22.616
513.57	22.634
513.77	23.061
513.97	22.973
514.17	22.351
514.36	23.454
514.56	22.904
514.76	22.745
514.95	22.969
515.15	22.875
515.35	23.689
515.55	22.596
515.74	23.499
515.94	23.115
516.14	23.251
516.33	23.198
516.53	22.753
516.73	23.229
516.93	22.990
517.12	22.002
517.32	21.883
517.52	22.528
517.71	22.933
517.91	22.321
518.11	22.372
518.30	21.676
518.50	21.888
518.70	21.102
518.90	22.749
519.09	21.675
519.29	22.149
519.49	22.150
519.68	22.076
519.88	22.097
520.08	22.525
520.27	22.406
520.47	23.205
520.67	22.552
520.86	22.696
521.06	22.824
521.26	22.728
521.45	22.942
521.65	22.485
521.85	22.436
522.04	22.302
522.24	21.984
522.44	22.597
522.63	22.732
522.83	22.280
523.03	22.033
523.22	22.541
523.42	21.962
523.62	22.496
523.81	22.625
524.01	22.343
524.21	22.349
524.40	22.612
524.60	21.440
524.80	21.659
524.99	21.854
525.19	22.229
525.39	22.032
525.58	21.549
525.78	21.380
525.98	21.649
526.17	21.095
526.37	21.742
526.57	21.461
526.76	21.508
526.96	21.176
527.15	22.396
527.35	20.824
527.55	21.720
527.74	21.181
527.94	21.308
528.14	20.647
528.33	21.284
528.53	19.785
528.72	20.847
528.92	20.644
529.12	20.986
529.31	20.644
529.51	21.629
529.71	21.406
529.90	21.895
530.10	21.597
530.29	22.015
530.49	22.000
530.69	22.809
530.88	22.317
531.08	22.496
531.28	21.996
531.47	22.288
531.67	20.865
531.86	21.426
532.06	21.412
532.26	21.317
532.45	20.895
532.65	20.933
532.84	20.352
533.04	20.993
533.24	19.825
533.43	20.550
533.63	20.332
533.82	20.895
534.02	20.684
534.22	21.164
534.41	20.953
534.61	21.402
534.80	21.510
535.00	21.452
535.19	21.236
535.39	22.593
535.59	21.407
535.78	22.023
535.98	21.365
536.17	21.396
536.37	19.966
536.57	21.205
536.76	20.397
536.96	20.870
537.15	20.188
537.35	21.382
537.54	20.744
537.74	20.912
537.93	20.979
538.13	21.525
538.33	20.514
538.52	21.282
538.72	20.740
538.91	21.615
539.11	20.723
539.30	21.327
539.50	20.876
539.70	21.129
539.89	20.259
540.09	20.895
540.28	20.553
540.48	20.538
540.67	19.871
540.87	20.046
541.06	19.770
541.26	19.999
541.45	19.252
541.65	19.639
541.85	19.627
542.04	20.642
542.24	19.900
542.43	20.879
542.63	19.975
542.82	21.110
543.02	20.386
543.21	20.849
543.41	20.764
543.60	21.283
543.80	20.100
543.99	21.208
544.19	20.293
544.38	20.791
544.58	20.304
544.77	20.321
544.97	20.489
545.16	21.123
545.36	19.999
545.56	21.296
545.75	20.136
545.95	20.542
546.14	20.303
546.34	20.688
546.53	20.688
546.73	20.975
546.92	20.102
547.12	20.863
547.31	19.907
547.51	20.404
547.70	20.438
547.90	20.274
548.09	20.058
548.29	20.402
548.48	20.164
548.68	20.356
548.87	20.734
549.07	20.867
549.26	21.021
549.46	20.825
549.65	20.409
549.84	20.612
550.04	20.522
550.23	21.205
550.43	20.491
550.62	21.112
550.82	21.118
551.01	21.211
551.21	20.498
551.40	20.701
551.60	20.816
551.79	20.908
551.99	20.939
552.18	20.217
552.38	21.092
552.57	20.383
552.77	20.625
552.96	21.608
553.16	21.089
553.35	21.348
553.54	20.945
553.74	20.446
553.93	20.668
554.13	20.665
554.32	20.962
554.52	21.780
554.71	21.921
554.91	21.690
555.10	21.074
555.29	21.528
555.49	20.478
555.68	21.257
555.88	21.016
556.07	20.140
556.27	21.273
556.46	21.121
556.66	21.299
556.85	21.178
557.04	22.061
557.24	21.719
557.43	21.095
557.63	20.745
557.82	20.821
558.02	20.490
558.21	21.681
558.40	20.260
558.60	21.469
558.79	21.105
558.99	21.025
559.18	21.328
559.38	21.076
559.57	21.532
559.76	21.693
559.96	21.769
560.15	21.943
560.35	20.750
560.54	22.272
560.73	21.587
560.93	21.759
561.12	21.289
561.32	22.229
561.51	20.726
561.70	21.412
561.90	21.366
562.09	22.103
562.29	20.905
562.48	22.229
562.67	22.791
562.87	22.249
563.06	23.227
563.26	21.827
563.45	22.163
563.64	22.823
563.84	21.906
564.03	22.351
564.23	21.819
564.42	22.603
564.61	22.776
564.81	22.750
565.00	22.324
565.20	22.980
565.39	22.445
565.58	22.081
565.78	22.069
565.97	23.206
566.16	23.052
566.36	21.861
566.55	21.878
566.74	22.446
566.94	22.265
567.13	23.254
567.33	22.814
567.52	22.923
567.71	22.971
567.91	24.056
568.10	22.478
568.29	23.555
568.49	24.013
568.68	23.862
568.87	23.732
569.07	22.963
569.26	23.890
569.45	22.850
569.65	22.580
569.84	23.236
570.04	23.194
570.23	22.746
570.42	23.142
570.62	23.663
570.81	23.163
571.00	23.799
571.20	24.140
571.39	23.114
571.58	23.475
571.78	23.927
571.97	23.642
572.16	23.145
572.36	23.354
572.55	23.531
572.74	23.940
572.94	22.892
573.13	24.335
573.32	23.891
573.51	23.890
573.71	23.640
573.90	24.175
574.09	24.043
574.29	24.417
574.48	23.625
574.67	24.030
574.87	24.412
575.06	23.742
575.25	23.824
575.45	24.150
575.64	23.205
575.83	25.397
576.03	24.442
576.22	23.767
576.41	24.319
576.60	23.348
576.80	24.503
576.99	24.931
577.18	24.489
577.38	24.458
577.57	24.169
577.76	24.787
577.95	24.779
578.15	24.477
578.34	24.709
578.53	25.589
578.73	25.497
578.92	24.909
579.11	25.221
579.30	24.120
579.50	24.490
579.69	25.988
579.88	25.345
580.08	24.370
580.27	24.241
580.46	25.654
580.65	24.864
580.85	24.429
581.04	23.850
581.23	25.054
581.42	24.496
581.62	24.364
581.81	24.927
582.00	24.915
582.19	25.253
582.39	25.177
582.58	25.011
582.77	25.320
582.96	25.938
583.16	25.457
583.35	25.881
583.54	24.831
583.73	26.250
583.93	23.707
584.12	24.798
584.31	24.886
584.50	25.668
584.70	24.753
584.89	25.873
585.08	25.348
585.27	25.609
585.47	24.844
585.66	25.824
585.85	25.077
586.04	25.694
586.24	26.217
586.43	25.120
586.62	25.560
586.81	25.985
587.00	24.955
587.20	25.815
587.39	24.564
587.58	26.342
587.77	25.107
587.97	24.745
588.16	26.147
588.35	25.241
588.54	25.236
588.73	26.154
588.93	27.358
589.12	26.249
589.31	25.363
589.50	24.340
589.69	26.591
589.89	26.878
590.08	26.726
590.27	26.606
590.46	26.371
590.65	25.487
590.85	25.476
591.04	27.156
591.23	27.392
591.42	27.215
591.61	26.939
591.81	27.042
592.00	27.076
592.19	26.738
592.38	27.084
592.57	25.721
592.77	27.701
592.96	27.449
593.15	27.507
593.34	27.564
593.53	25.958
593.72	26.259
593.92	25.989
594.11	27.948
594.30	26.201
594.49	27.249
594.68	27.952
594.87	28.207
595.07	26.967
595.26	27.458
595.45	27.942
595.64	27.570
595.83	28.556
596.02	28.495
596.22	27.832
596.41	27.324
596.60	27.524
596.79	27.286
596.98	28.056
597.17	27.832
597.37	28.409
597.56	27.745
597.75	29.218
597.94	28.792
598.13	28.845
598.32	28.410
598.51	29.702
598.71	29.053
598.90	28.579
599.09	29.084
599.28	29.502
599.47	28.699
599.66	28.660
599.85	29.110
600.05	28.079
600.24	30.425
600.43	29.013
600.62	29.663
600.81	28.954
601.00	29.082
601.19	29.352
601.38	29.804
601.58	29.463
601.77	29.392
601.96	30.785
602.15	30.300
602.34	29.741
602.53	30.699
602.72	29.234
602.91	29.577
603.10	30.244
603.30	30.025
603.49	29.541
603.68	29.693
603.87	30.057
604.06	30.317
604.25	29.618
604.44	29.631
604.63	30.366
604.82	30.639
605.01	31.238
605.21	29.928
605.40	30.785
605.59	29.566
605.78	29.814
605.97	30.633
606.16	30.319
606.35	30.317
606.54	30.747
606.73	30.060
606.92	30.932
607.11	31.125
607.30	32.207
607.50	31.783
607.69	31.860
607.88	30.629
608.07	30.951
608.26	31.076
608.45	31.108
608.64	31.748
608.83	31.090
609.02	30.750
609.21	32.190
609.40	31.653
609.59	31.551
609.78	32.042
609.97	31.163
610.16	31.277
610.35	31.541
610.55	32.156
610.74	31.368
610.93	31.550
611.12	31.105
611.31	30.592
611.50	31.155
611.69	30.460
611.88	33.134
612.07	31.792
612.26	33.072
612.45	31.724
612.64	30.419
612.83	33.934
613.02	32.225
613.21	32.460
613.40	31.597
613.59	32.112
613.78	30.671
613.97	33.655
614.16	30.331
614.35	33.027
614.54	31.782
614.73	32.058
614.92	33.245
615.11	32.736
615.30	32.686
615.49	31.779
615.68	32.882
615.87	32.530
616.07	31.368
616.26	32.005
616.45	32.246
616.64	33.060
616.83	32.061
617.02	33.766
617.21	31.314
617.40	32.469
617.59	32.442
617.78	32.091
617.97	33.965
618.16	31.704
618.35	31.997
618.54	33.750
618.73	33.738
618.92	32.755
619.11	33.427
619.30	32.913
619.49	32.714
619.68	32.283
619.86	33.149
620.05	33.960
620.24	31.807
620.43	33.959
620.62	31.260
620.81	33.476
621.00	32.838
621.19	33.538
621.38	31.784
621.57	32.111
621.76	33.475
621.95	34.177
622.14	32.950
622.33	32.464
622.52	32.069
622.71	32.889
622.90	32.344
623.09	32.965
623.28	33.908
623.47	33.974
623.66	32.432
623.85	31.954
624.04	31.204
624.23	33.292
624.42	34.363
624.61	32.382
624.80	32.090
624.99	34.063
625.18	32.168
625.36	33.710
625.55	32.917
625.74	34.073
625.93	32.601
626.12	34.228
626.31	33.619
626.50	32.644
626.69	35.042
626.88	33.311
627.07	32.323
627.26	32.128
627.45	33.443
627.64	32.534
627.83	32.439
628.02	33.079
628.20	32.973
628.39	34.484
628.58	33.432
628.77	33.151
628.96	33.322
629.15	33.078
629.34	34.007
629.53	33.363
629.72	32.377
629.91	34.061
630.10	33.358
630.29	33.241
630.47	32.634
630.66	33.643
630.85	33.879
631.04	32.864
631.23	31.648
631.42	32.127
631.61	33.427
631.80	33.597
631.99	33.313
632.18	32.700
632.36	32.551
632.55	33.779
632.74	31.776
632.93	32.736
633.12	33.993
633.31	31.512
633.50	35.419
633.69	34.508
633.88	31.924
634.06	32.861
634.25	33.095
634.44	33.565
634.63	34.181
634.82	32.945
635.01	33.256
635.20	34.376
635.39	32.870
635.57	34.659
635.76	34.040
635.95	33.207
636.14	33.380
636.33	33.709
636.52	33.042
636.71	33.527
636.89	32.869
637.08	31.860
637.27	33.255
637.46	33.148
637.65	33.629
637.84	35.000
638.03	33.113
638.21	34.667
638.40	33.229
638.59	32.564
638.78	33.076
638.97	34.181
639.16	32.161
639.34	33.952
639.53	33.506
639.72	34.203
639.91	32.409
640.10	33.948
640.29	33.325
640.47	35.294
640.66	34.311
640.85	33.663
641.04	30.931
641.23	33.733
641.42	35.046
641.60	31.559
641.79	32.314
641.98	33.706
642.17	32.629
642.36	33.841
642.54	32.274
642.73	32.898
642.92	31.565
643.11	32.588
643.30	33.549
643.49	31.953
643.67	30.817
643.86	34.006
644.05	30.639
644.24	34.216
644.43	33.185
644.61	34.718
644.80	32.495
644.99	34.673
645.18	34.038
645.37	33.230
645.55	30.777
645.74	31.793
645.93	31.614
646.12	32.381
646.31	31.596
646.49	33.578
646.68	32.474
646.87	34.125
647.06	33.047
647.24	33.814
647.43	32.036
647.62	33.238
647.81	32.184
648.00	33.641
648.18	32.428
648.37	31.066
648.56	31.970
648.75	32.789
648.93	30.443
649.12	33.048
649.31	31.709
649.50	33.219
649.68	32.407
649.87	32.300
650.06	32.760
650.25	33.455
650.43	31.303
650.62	31.017
650.81	31.875
651.00	31.422
651.18	31.876
651.37	33.818
651.56	31.224
651.75	35.823
651.93	32.748
652.12	32.754
652.31	32.732
652.50	34.087
652.68	34.177
652.87	33.650
653.06	32.820
653.25	33.477
653.43	31.381
653.62	34.299
653.81	33.431
654.00	32.867
654.18	33.048
654.37	32.912
654.56	32.750
654.74	32.650
654.93	28.798
655.12	33.012
655.31	29.030
655.49	33.156
655.68	30.372
655.87	32.158
656.05	29.141
656.24	32.139
656.43	30.191
656.62	33.490
656.80	33.456
656.99	32.696
657.18	31.757
657.36	31.522
657.55	32.144
657.74	32.510
657.93	33.185
658.11	32.955
658.30	34.073
658.49	33.965
658.67	30.479
658.86	35.587
659.05	32.106
659.23	33.461
659.42	34.402
659.61	34.007
659.79	33.631
659.98	33.851
660.17	33.620
660.35	34.002
660.54	36.627
660.73	33.851
660.91	32.675
661.10	34.777
661.29	31.815
661.47	34.027
661.66	33.928
661.85	34.381
662.03	34.259
662.22	32.739
662.41	32.166
662.59	34.317
662.78	31.017
662.97	33.166
663.15	29.120
663.34	32.072
663.53	31.478
663.71	33.489
663.90	29.852
664.09	33.284
664.27	31.842
664.46	33.156
664.65	30.697
664.83	31.323
665.02	29.925
665.21	30.625
665.39	29.450
665.58	33.895
665.77	30.737
665.95	34.057
666.14	28.325
666.32	31.051
666.51	30.260
666.70	31.996
666.88	30.888
667.07	31.963
667.26	27.383
667.44	30.000
667.63	30.026
667.81	29.615
668.00	29.864
668.19	33.174
668.37	29.453
668.56	32.551
668.75	27.614
668.93	33.831
669.12	30.543
669.30	32.473
669.49	28.091
669.68	32.997
669.86	31.833
670.05	31.336
670.23	31.584
670.42	33.353
670.61	31.622
670.79	32.435
670.98	30.882
671.16	34.533
671.35	29.633
671.54	33.152
671.72	29.628
671.91	30.629
672.09	26.365
672.28	33.049
672.46	32.488
672.65	32.485
672.84	31.073
673.02	34.421
673.21	24.170
673.39	32.056
673.58	31.807
673.77	31.934
673.95	27.871
674.14	31.370
674.32	28.195
674.51	32.963
674.69	28.998
674.88	31.382
675.07	27.982
675.25	32.587
675.44	30.269
675.62	31.983
675.81	27.282
675.99	37.853
676.18	31.205
676.36	30.624
676.55	27.346
676.74	32.020
676.92	31.226
677.11	31.877
677.29	30.277
677.48	34.860
677.66	31.304
677.85	30.960
678.03	30.449
678.22	32.584
678.40	32.780
678.59	32.846
678.78	28.628
678.96	32.947
679.15	29.876
679.33	33.658
679.52	34.887
679.70	33.547
679.89	36.259
680.07	36.277
680.26	33.442
680.44	35.069
680.63	35.079
680.81	35.304
681.00	33.893
681.18	36.050
681.37	35.020
681.55	36.858
681.74	35.156
681.92	36.422
682.11	36.105
682.29	34.668
682.48	37.511
682.66	36.558
682.85	34.664
683.03	34.807
683.22	38.781
683.40	36.260
683.59	34.718
683.77	37.555
683.96	32.239
684.14	37.830
684.33	34.688
684.51	40.181
684.70	34.080
684.88	39.618
685.07	35.195
685.25	37.167
685.44	36.963
685.62	38.516
685.81	35.665
685.99	39.166
686.18	35.352
686.36	38.568
686.55	34.305
686.73	38.085
686.92	39.591
687.10	39.808
687.29	37.658
687.47	40.056
687.65	40.654
687.84	38.504
688.02	41.337
688.21	44.021
688.39	38.649
688.58	42.351
688.76	38.790
688.95	41.160
689.13	38.274
689.32	42.219
689.50	39.517
689.68	44.226
689.87	41.152
690.05	40.928
690.24	40.617
690.42	43.256
690.61	40.812
690.79	45.055
690.98	41.176
691.16	41.146
691.34	36.562
691.53	44.006
691.71	40.610
691.90	40.475
692.08	41.640
692.27	43.303
692.45	43.289
692.63	45.419
692.82	44.320
693.00	43.969
693.19	41.586
693.37	44.333
693.56	41.079
693.74	46.239
693.92	41.409
694.11	47.068
694.29	43.926
694.48	47.460
694.66	41.567
694.84	46.482
695.03	42.004
695.21	46.502
695.40	43.517
695.58	50.042
695.76	43.722
695.95	47.549
696.13	47.029
696.32	49.413
696.50	48.625
696.68	48.972
696.87	46.340
697.05	48.324
697.24	46.822
697.42	48.600
697.60	47.035
697.79	48.384
697.97	49.619
698.16	49.613
698.34	48.834
698.52	50.939
698.71	50.090
698.89	51.640
699.07	49.877
699.26	50.573
699.44	50.800
699.63	52.399
699.81	50.483
699.99	51.898
700.18	51.723
700.36	50.714
700.54	54.006
700.73	49.509
700.91	52.098
701.09	52.062
701.28	53.040
701.46	54.140
701.64	52.972
701.83	51.765
702.01	51.073
702.20	55.014
702.38	51.315
702.56	52.696
702.75	53.969
702.93	51.858
703.11	52.801
703.30	53.894
703.48	50.659
703.66	55.074
703.85	46.576
704.03	55.047
704.21	49.093
704.40	52.955
704.58	49.219
704.76	54.851
704.95	47.672
705.13	50.898
705.31	48.866
705.50	55.501
705.68	51.980
705.86	51.787
706.04	53.428
706.23	49.880
706.41	51.282
706.59	51.872
706.78	49.630
706.96	56.777
707.14	52.308
707.33	51.960
707.51	48.350
707.69	54.271
707.88	52.687
708.06	53.738
708.24	52.921
708.42	57.371
708.61	52.347
708.79	56.351
708.97	56.303
709.16	56.761
709.34	56.482
709.52	52.168
709.71	54.265
709.89	52.949
710.07	55.874
710.25	55.910
710.44	55.503
710.62	57.521
710.80	58.597
710.98	56.191
711.17	52.770
711.35	55.165
711.53	51.391
711.72	56.456
711.90	58.528
712.08	57.737
712.26	52.321
712.45	56.690
712.63	55.443
712.81	56.649
712.99	57.507
713.18	57.934
713.36	55.278
713.54	53.591
713.72	51.771
713.91	57.194
714.09	55.106
714.27	53.934
714.45	57.560
714.64	56.567
714.82	52.381
715.00	56.287
715.18	54.248
715.37	58.390
715.55	53.503
715.73	59.045
715.91	53.053
716.10	57.068
716.28	51.656
716.46	56.851
716.64	56.004
716.83	57.544
717.01	54.762
717.19	55.669
717.37	53.693
717.55	59.462
717.74	54.182
717.92	56.995
718.10	53.229
718.28	57.550
718.47	52.760
718.65	57.945
718.83	56.878
719.01	58.491
719.19	52.999
719.38	51.368
719.56	53.677
719.74	52.000
719.92	47.858
720.10	52.911
720.29	49.652
720.47	52.784
720.65	52.783
720.83	56.891
721.01	48.959
721.20	52.441
721.38	52.444
721.56	58.400
721.74	53.781
721.92	55.307
722.11	53.841
722.29	58.328
722.47	54.078
722.65	53.556
722.83	53.726
723.01	56.487
723.20	50.967
723.38	51.525
723.56	50.000
723.74	59.415
723.92	50.861
724.10	57.857
724.29	52.250
724.47	58.417
724.65	52.822
724.83	56.094
725.01	49.034
725.19	60.326
725.38	52.260
725.56	55.505
725.74	57.641
725.92	55.475
726.10	50.317
726.28	53.065
726.46	53.698
726.65	58.167
726.83	52.402
727.01	57.942
727.19	54.680
727.37	58.558
727.55	53.465
727.73	55.886
727.92	53.970
728.10	57.766
728.28	44.478
728.46	55.874
728.64	53.563
728.82	55.692
729.00	53.032
729.19	56.923
729.37	56.512
729.55	59.873
729.73	55.146
729.91	63.309
730.09	56.152
730.27	55.530
730.45	55.037
730.63	54.435
730.82	56.412
731.00	57.425
731.18	52.755
731.36	55.907
731.54	51.615
731.72	55.768
731.90	53.039
732.08	57.207
732.26	52.823
732.45	59.497
732.63	56.119
732.81	57.557
732.99	55.375
733.17	60.862
733.35	55.512
733.53	58.017
733.71	55.712
733.89	57.119
734.07	53.388
734.25	62.092
734.44	54.299
734.62	55.362
734.80	58.440
734.98	61.098
735.16	55.753
735.34	57.723
735.52	55.556
735.70	61.394
735.88	55.265
736.06	56.643
736.24	60.984
736.42	54.178
736.60	54.515
736.78	58.868
736.97	51.983
737.15	61.138
737.33	53.566
737.51	60.069
737.69	59.417
737.87	58.322
738.05	57.789
738.23	58.196
738.41	53.970
738.59	57.400
738.77	53.857
738.95	59.659
739.13	53.933
739.31	55.300
739.49	60.000
739.67	60.528
739.85	57.054
740.03	61.115
740.21	59.722
740.39	57.349
740.57	59.257
740.75	60.848
740.93	56.263
741.11	60.563
741.30	60.376
741.48	60.712
741.66	58.736
741.84	55.225
742.02	51.969
742.20	56.031
742.38	53.406
742.56	63.029
742.74	50.926
742.92	54.386
743.10	52.065
743.28	57.635
743.46	51.920
743.64	58.415
743.82	51.979
744.00	56.742
744.18	50.650
744.36	53.744
744.54	53.669
744.72	59.860
744.90	56.163
745.08	60.381
745.26	52.492
745.44	63.433
745.62	52.469
745.80	48.541
745.98	54.356
746.16	60.683
746.34	51.835
746.52	53.394
746.70	52.544
746.87	55.157
747.05	49.912
747.23	55.800
747.41	54.263
747.59	55.527
747.77	46.726
747.95	60.155
748.13	52.795
748.31	59.375
748.49	51.045
748.67	54.429
748.85	57.002
749.03	57.716
749.21	47.930
749.39	59.949
749.57	48.722
749.75	56.540
749.93	53.011
750.11	56.997
750.29	57.095
750.47	59.243
750.65	52.926
750.83	57.946
751.01	48.165
751.18	58.645
751.36	48.556
751.54	53.344
751.72	54.609
751.90	56.426
752.08	48.219
752.26	60.288
752.44	57.106
752.62	59.362
752.80	49.599
752.98	59.780
753.16	53.267
753.34	61.759
753.52	56.471
753.69	59.464
753.87	54.734
754.05	55.888
754.23	55.843
754.41	56.287
754.59	50.083
754.77	59.602
754.95	55.219
755.13	58.067
755.31	54.065
755.49	54.953
755.66	56.801
755.84	55.915
756.02	51.293
756.20	59.143
756.38	48.750
756.56	59.948
756.74	50.136
756.92	55.546
757.10	49.450
757.28	64.258
757.45	57.958
757.63	54.802
757.81	49.627
757.99	59.384
758.17	52.941
758.35	59.881
758.53	56.640
758.71	54.714
758.88	52.205
759.06	57.951
759.24	51.770
759.42	55.069
759.60	55.004
759.78	56.163
759.96	46.327
760.13	56.007
760.31	42.362
760.49	49.183
760.67	42.037
760.85	42.485
761.03	44.029
761.21	44.732
761.38	41.192
761.56	54.662
761.74	41.210
761.92	51.599
762.10	36.379
762.28	51.364
762.46	40.538
762.63	41.172
762.81	43.785
762.99	53.215
763.17	47.166
763.35	52.797
763.53	49.394
763.70	57.954
763.88	58.333
764.06	59.862
764.24	53.108
764.42	57.719
764.60	55.975
764.77	56.606
764.95	53.557
765.13	58.683
765.31	55.941
765.49	59.240
765.66	56.002
765.84	58.442
766.02	55.010
766.20	57.115
766.38	54.860
766.56	56.320
766.73	48.635
766.91	58.663
767.09	51.608
767.27	59.777
767.45	51.849
767.62	53.328
767.80	46.717
767.98	58.025
768.16	47.382
768.33	57.909
768.51	46.125
768.69	55.937
768.87	49.378
769.05	53.469
769.22	50.471
769.40	58.038
769.58	47.831
769.76	54.545
769.94	50.515
770.11	51.609
770.29	53.401
770.47	55.869
770.65	48.415
770.82	51.931
771.00	51.512
771.18	58.426
771.36	48.551
771.53	54.318
771.71	47.857
771.89	56.150
772.07	52.241
772.25	52.276
772.42	50.987
772.60	60.885
772.78	52.618
772.96	56.876
773.13	50.937
773.31	60.098
773.49	51.643
773.67	51.436
773.84	46.410
774.02	46.040
774.20	43.908
774.37	50.598
774.55	54.360
774.73	57.540
774.91	44.747
775.08	51.928
775.26	51.417
775.44	56.026
775.62	58.112
775.79	50.521
775.97	44.583
776.15	53.430
776.32	47.361
776.50	49.306
776.68	55.336
776.86	54.857
777.03	43.383
777.21	48.993
777.39	43.882
777.56	52.910
777.74	44.993
777.92	49.008
778.10	46.220
778.27	54.473
778.45	42.857
778.63	55.571
778.80	48.435
778.98	55.989
779.16	53.721
779.34	56.038
779.51	41.702
779.69	58.472
779.87	45.586
780.04	49.729
780.22	44.063
780.40	56.104
780.57	44.664
780.75	46.611
780.93	53.411
781.10	53.232
781.28	66.812
781.46	43.251
781.63	54.430
781.81	60.198
781.99	53.475
782.16	50.292
782.34	45.611
782.52	54.702
782.69	47.020
782.87	55.093
783.05	46.211
783.22	52.023
783.40	40.275
783.58	58.398
783.75	43.393
783.93	50.140
784.11	44.480
784.28	51.057
784.46	39.216
784.64	56.585
784.81	42.881
784.99	61.722
785.17	51.017
785.34	49.315
785.52	44.497
785.69	49.621
785.87	42.973
786.05	44.914
786.22	47.284
786.40	57.119
786.58	51.542
786.75	52.589
786.93	39.257
787.11	46.600
787.28	51.993
787.46	58.308
787.63	52.222
787.81	48.905
787.99	41.308
788.16	47.776
788.34	46.475
788.51	43.440
788.69	38.575
788.87	46.025
789.04	35.607
789.22	49.176
789.39	51.558
789.57	54.010
789.75	52.473
789.92	49.106
790.10	35.772
790.27	52.078
790.45	38.307
790.63	48.536
790.80	39.492
790.98	51.144
791.15	43.598
791.33	42.674
791.51	44.855
791.68	52.586
791.86	43.712
792.03	48.961
792.21	43.842
792.39	46.984
792.56	47.117
792.74	46.929
792.91	47.096
793.09	57.355
793.26	33.846
793.44	60.726
793.62	42.022
793.79	49.050
793.97	47.668
794.14	44.865
794.32	41.476
794.49	55.102
794.67	37.062
794.84	45.064
795.02	41.947
795.20	45.902
795.37	41.525
795.55	41.385
795.72	47.227
795.90	43.170
796.07	45.681
796.25	47.994
796.42	47.890
796.60	45.591
796.77	42.155
796.95	50.837
797.13	31.811
797.30	52.914
797.48	41.496
797.65	47.902
797.83	41.141
798.00	47.200
798.18	46.411
798.35	45.907
798.53	44.895
798.70	48.727
798.88	46.719
799.05	51.608
799.23	39.137
799.40	54.655
799.58	41.581
799.75	43.598
799.93	42.180
800.10	55.015
800.28	43.750
800.45	42.812
800.63	37.944
800.80	52.236
800.98	44.685
801.15	49.568
801.33	46.235
801.50	54.309
801.68	34.186
801.85	46.996
802.03	43.762
802.20	44.021
802.38	38.737
802.55	45.487
802.73	50.350
802.90	48.529
803.08	44.925
803.25	51.141
803.43	45.336
803.60	50.977
803.78	44.742
803.95	49.278
804.13	45.010
804.30	47.776
804.48	39.341
804.65	52.642
804.83	45.629
805.00	40.214
805.17	42.357
805.35	48.039
805.52	42.424
805.70	50.000
805.87	42.363
806.05	52.156
806.22	38.697
806.40	37.719
806.57	34.438
806.75	44.425
806.92	48.161
807.09	46.602
807.27	45.349
807.44	55.303
807.62	43.623
807.79	44.556
807.97	36.023
808.14	49.636
808.31	40.734
808.49	41.549
808.66	35.240
808.84	40.854
809.01	46.067
809.19	43.945
809.36	57.866
809.53	47.162
809.71	41.948
809.88	51.891
810.06	45.363
810.23	53.478
810.41	44.262
810.58	58.647
810.75	44.879
810.93	45.000
811.10	38.976
811.28	45.418
811.45	31.435
811.62	43.833
811.80	38.546
811.97	47.955
812.15	47.284
812.32	40.667
812.49	48.426
812.67	37.500
812.84	34.382
813.02	49.177
813.19	39.400
813.36	41.432
813.54	38.780
813.71	55.724
813.89	38.015
814.06	48.733
814.23	43.606
814.41	43.073
814.58	48.723
814.75	47.047
814.93	41.256
815.10	48.513
815.28	47.458
815.45	37.740
815.62	44.622
815.80	32.813
815.97	43.513
816.14	42.132
816.32	38.362
816.49	40.083
816.66	46.055
816.84	36.196
817.01	43.095
817.18	37.895
817.36	42.356
817.53	50.339
817.71	29.412
817.88	40.420
818.05	33.333
818.23	36.614
818.40	41.328
818.57	43.820
818.75	30.282
818.92	46.018
819.09	41.762
819.27	42.739
819.44	32.823
819.61	38.866
819.79	38.788
819.96	47.701
820.13	37.797
820.31	35.885
820.48	51.167
820.65	45.968
820.82	40.549
821.00	39.106
821.17	36.490
821.34	46.019
821.52	43.075
821.69	43.621
821.86	44.727
822.04	56.349
822.21	55.518
822.38	60.404
822.56	56.154
822.73	63.558
822.90	64.537
823.07	63.302
823.25	61.050
823.42	63.425
823.59	62.989
823.77	60.607
823.94	62.440
824.11	61.447
824.29	60.629
824.46	61.803
824.63	64.804
824.80	61.821
824.98	62.989
825.15	58.860
825.32	55.476
825.49	62.493
825.67	55.834
825.84	59.319
826.01	55.205
826.19	58.918
826.36	50.615
826.53	52.644
826.70	43.280
826.88	61.693
827.05	47.756
827.22	53.444
827.39	51.895
827.57	57.345
827.74	49.119
827.91	57.703
828.08	50.342
828.26	57.063
828.43	50.173
828.60	57.519
828.77	54.794
828.95	56.417
829.12	43.553
829.29	45.873
829.46	45.267
829.64	47.552
829.81	35.497
829.98	47.097
830.15	41.143
830.32	38.896
830.50	32.389
830.67	40.054
830.84	36.605
831.01	32.925
831.19	28.889
831.36	41.289
831.53	48.771
831.70	43.130
831.87	48.207
832.05	42.251
832.22	59.362
832.39	34.136
832.56	36.443
832.74	29.314
832.91	34.875
833.08	42.960
833.25	29.098
833.42	37.232
833.60	34.059
833.77	26.619
833.94	34.234
834.11	41.176
834.28	33.333
834.45	43.502
834.63	37.676
834.80	45.158
834.97	39.547
835.14	51.426
835.31	45.245
835.49	44.831
835.66	42.712
835.83	37.802
836.00	42.723
836.17	38.610
836.34	34.282
836.52	41.667
836.69	40.813
836.86	40.803
837.03	33.452
837.20	30.492
837.37	35.284
837.55	23.629
837.72	41.527
837.89	37.723
838.06	42.995
838.23	40.421
838.40	30.361
838.58	32.258
838.75	39.877
838.92	44.058
839.09	55.063
839.26	51.268
839.43	55.208
839.60	45.659
839.78	56.832
839.95	46.429
840.12	39.474
840.29	50.693
840.46	52.025
840.63	37.673
840.80	48.813
840.98	61.708
841.15	40.863
841.32	56.704
841.49	39.394
841.66	34.595
841.83	42.080
842.00	39.093
842.17	50.838
842.34	47.632
842.52	52.424
842.69	46.835
842.86	38.828
843.03	46.302
843.20	38.905
843.37	41.270
843.54	47.782
843.71	37.917
843.88	55.474
844.06	84.746
844.23	63.136
844.40	55.508
844.57	52.893
844.74	56.897
844.91	71.144
845.08	75.141
845.25	84.574
845.42	63.687
845.59	59.426
845.76	74.194
845.94	82.778
846.11	66.337
846.28	53.386
846.45	53.763
846.62	65.000
846.79	38.819
846.96	71.429
847.13	89.130
847.30	62.147
847.47	55.155
847.64	55.918
847.81	75.735
847.98	56.757
848.15	78.771
848.32	72.539
848.50	67.000
848.67	69.231
848.84	66.272
849.01	72.662
849.18	82.353
849.35	87.143
849.52	60.847
849.69	75.275
849.86	62.162
850.03	95.868
850.20	116.000
850.37	60.000
850.54	73.404
850.71	90.104
850.88	65.161
851.05	65.761
851.22	80.120
851.39	73.797
851.56	112.069
851.73	86.905
851.90	95.425
852.07	57.895
852.24	86.928
852.41	72.081
852.58	67.213
852.75	71.512
852.92	69.061
853.09	86.275
853.26	83.007
853.43	70.000
853.60	71.429
853.77	89.385
853.94	23.894
854.11	60.000
854.28	93.750
854.45	75.325
854.62	75.581
854.79	72.727
854.96	100.694
855.13	69.182
855.30	102.920
855.47	123.387
855.64	47.826
855.81	111.511
855.98	95.420
856.15	86.923
856.32	58.768
856.49	64.972
856.66	79.487
856.83	59.748
857.00	51.639
857.17	79.839
857.34	67.935
857.51	73.239
857.68	79.592
857.85	91.765
858.02	77.551
858.19	67.403
858.36	75.287
858.53	55.030
858.70	89.560
858.87	77.241
859.04	97.647
859.21	79.545
859.38	64.516
859.55	80.114
859.72	77.083
859.89	90.909
860.05	123.022
860.22	89.091
860.39	104.310
860.56	92.262
860.73	78.571
860.90	79.042
861.07	96.000
861.24	58.088
861.41	83.815
861.58	96.753
861.75	61.417
861.92	66.875
862.09	74.874
862.26	89.677
862.43	90.667
862.59	57.237
862.76	92.228
862.93	110.769
863.10	67.647
863.27	106.923
863.44	98.374
863.61	70.290
863.78	73.262
863.95	65.244
864.12	76.923
864.29	90.678
864.45	66.038
864.62	71.545
864.79	80.000
864.96	140.385
865.13	83.942
865.30	112.245
865.47	64.828
865.64	89.510
865.81	76.316
865.97	28.931
866.14	62.032
866.31	84.426
866.48	55.634
866.65	55.215
866.82	91.275
866.99	92.143
867.16	82.171
867.33	89.362
867.49	81.928
867.66	129.104
867.83	62.946
868.00	82.796
868.17	104.580
868.34	114.961
868.51	69.014
868.67	96.429
868.84	70.370
869.01	73.103
869.18	95.200
869.35	73.759
869.52	78.102
869.69	85.821
869.85	105.405
870.02	83.696
870.19	86.154
870.36	77.698
870.53	111.905
870.70	119.643
870.86	55.844
871.03	84.672
871.20	89.916
871.37	96.450
871.54	68.868
871.71	106.818
871.87	105.155
872.04	37.500
872.21	93.182
872.38	115.663
872.55	93.571
872.72	70.290
872.88	96.667
873.05	51.337
873.22	90.833
873.39	70.732
873.56	68.345
873.72	93.370
873.89	84.076
874.06	95.082
874.23	86.232
874.40	79.200
874.56	88.636
874.73	105.833
874.90	102.055
875.07	58.015
875.24	73.171
875.40	57.143
875.57	69.841
875.74	68.125
875.91	89.683
876.08	105.000
876.24	106.410
876.41	93.985
876.58	72.993
876.75	63.226
876.92	58.974
877.08	66.423
877.25	94.156
877.42	96.923
877.59	95.181
877.75	66.038
877.92	73.837
878.09	65.789
878.26	76.027
878.42	63.704
878.59	105.682
878.76	66.667
878.93	86.093
879.09	84.354
879.26	76.282
879.43	91.146
879.60	73.333
879.76	68.718
879.93	71.574
880.10	46.977
880.27	35.111
880.43	57.653
880.60	49.765
880.77	56.471
880.94	63.929
881.10	39.310
881.27	27.072
881.44	27.332
881.61	42.052
881.77	37.085
881.94	37.224
882.11	35.651
882.28	30.299
882.44	31.353
882.61	30.153
882.78	40.021
882.94	51.444
883.11	45.258
883.28	45.588
883.45	45.750
883.61	38.943
883.78	40.752
883.95	47.341
884.11	41.383
884.28	42.791
>>>>>End Processed Spectral Data<<<<<
