SpectraSuite Data File
++++++++++++++++++++++++++++++++++++
Date: Thu Sep 19 03:07:22 EST 2019
User: sgrac
Dark Spectrum Present: Yes
Reference Spectrum Present: Yes
Number of Sampled Component Spectra: 1
Spectrometers: USB4E01596
Integration Time (usec): 100000 (USB4E01596)
Spectra Averaged: 1 (USB4E01596)
Boxcar Smoothing: 0 (USB4E01596)
Correct for Electrical Dark: No (USB4E01596)
Strobe/Lamp Enabled: Yes (USB4E01596)
Correct for Detector Non-linearity: No (USB4E01596)
Correct for Stray Light: No (USB4E01596)
Number of Pixels in Processed Spectrum: 3648
>>>>>Begin Processed Spectral Data<<<<<
178.44	707.143
178.66	707.143
178.87	707.143
179.09	-500.000
179.30	150.000
179.52	1214.286
179.74	-700.000
179.95	595.238
180.17	1400.000
180.38	216.418
180.60	0.000
180.82	603.226
181.03	212.963
181.25	1900.000
181.46	946.154
181.68	-230.233
181.89	1271.429
182.11	716.667
182.33	407.407
182.54	816.667
182.76	827.778
182.97	-464.286
183.19	297.619
183.40	234.545
183.62	533.333
183.84	1500.000
184.05	960.000
184.27	-6500.000
184.48	223.810
184.70	7000.000
184.91	603.846
185.13	274.648
185.34	-192.308
185.56	603.704
185.78	311.538
185.99	-3650.000
186.21	-881.818
186.42	-265.000
186.64	846.667
186.85	-5950.000
187.07	436.364
187.28	1028.571
187.50	368.182
187.72	280.556
187.93	900.000
188.15	815.789
188.36	670.588
188.58	412.821
188.79	1883.333
189.01	687.500
189.22	2680.000
189.44	645.000
189.65	-5400.000
189.87	3075.000
190.09	911.765
190.30	1528.571
190.52	1041.667
190.73	-392.308
190.95	311.364
191.16	429.167
191.38	341.667
191.59	-1290.909
191.81	522.727
192.02	473.333
192.24	503.846
192.45	1125.000
192.67	2183.333
192.88	-392.593
193.10	-12900.000
193.31	442.857
193.53	-519.048
193.74	-1925.000
193.96	2288.889
194.18	937.500
194.39	395.122
194.61	742.105
194.82	854.545
195.04	548.000
195.25	4200.000
195.47	402.632
195.68	770.588
195.90	274.419
196.11	523.077
196.33	-1344.444
196.54	-684.211
196.76	686.364
196.97	1388.889
197.19	-15100.000
197.40	1100.000
197.62	2166.667
197.83	869.231
198.05	475.000
198.26	340.000
198.48	326.471
198.69	-1144.444
198.91	550.000
199.12	480.000
199.34	-1785.714
199.55	178.947
199.77	332.609
199.98	-1154.545
200.20	610.000
200.41	7050.000
200.63	460.714
200.84	466.667
201.06	-915.385
201.27	-2500.000
201.49	1075.000
201.70	393.750
201.91	-8400.000
202.13	457.895
202.34	293.478
202.56	4550.000
202.77	656.250
202.99	368.000
203.20	436.364
203.42	-1628.571
203.63	2316.667
203.85	394.444
204.06	517.391
204.28	912.500
204.49	-1100.000
204.71	387.805
204.92	342.222
205.14	331.111
205.35	282.857
205.56	1600.000
205.78	740.909
205.99	-1030.000
206.21	552.174
206.42	157.627
206.64	-2433.333
206.85	700.000
207.07	700.000
207.28	-3060.000
207.50	227.778
207.71	862.500
207.93	289.583
208.14	614.815
208.35	600.000
208.57	-416.000
208.78	-270.732
209.00	274.419
209.21	409.524
209.43	492.000
209.64	10300.000
209.86	404.762
210.07	351.724
210.28	-853.846
210.50	747.059
210.71	615.000
210.93	371.875
211.14	240.000
211.36	332.609
211.57	680.000
211.78	325.641
212.00	680.000
212.21	705.882
212.43	573.333
212.64	513.333
212.86	232.051
213.07	503.448
213.29	470.000
213.50	422.581
213.71	493.333
213.93	2100.000
214.14	788.235
214.36	1437.500
214.57	260.563
214.78	793.333
215.00	821.053
215.21	566.667
215.43	187.342
215.64	377.778
215.86	960.000
216.07	452.632
216.28	226.667
216.50	4600.000
216.71	-6900.000
216.93	655.556
217.14	256.061
217.35	368.571
217.57	2150.000
217.78	251.429
218.00	3400.000
218.21	545.833
218.42	246.875
218.64	-6450.000
218.85	341.176
219.07	1457.143
219.28	232.787
219.49	-908.333
219.71	1037.500
219.92	210.811
220.14	1500.000
220.35	263.636
220.56	515.385
220.78	264.912
220.99	380.000
221.21	118.557
221.42	356.522
221.63	6750.000
221.85	470.833
222.06	530.000
222.28	198.667
222.49	-1188.889
222.70	290.741
222.92	-5700.000
223.13	297.368
223.34	146.739
223.56	1183.333
223.77	167.647
223.99	324.444
224.20	190.000
224.41	194.667
224.63	5300.000
224.84	3733.333
225.05	730.769
225.27	320.513
225.48	276.667
225.69	167.059
225.91	220.313
226.12	189.855
226.34	418.750
226.55	176.471
226.76	233.333
226.98	175.000
227.19	137.179
227.40	222.000
227.62	182.192
227.83	99.107
228.04	75.325
228.26	109.821
228.47	126.667
228.69	73.529
228.90	54.762
229.11	72.489
229.33	66.029
229.54	56.432
229.75	60.071
229.97	46.037
230.18	39.203
230.39	40.909
230.61	51.536
230.82	35.548
231.03	33.439
231.25	48.658
231.46	45.536
231.67	64.906
231.89	43.254
232.10	64.151
232.31	62.946
232.53	71.560
232.74	47.706
232.95	71.569
233.17	65.641
233.38	36.316
233.59	73.596
233.81	68.519
234.02	75.429
234.23	46.392
234.45	62.727
234.66	51.149
234.87	42.442
235.09	80.319
235.30	67.961
235.51	65.022
235.73	59.596
235.94	53.125
236.15	57.090
236.36	64.444
236.58	50.239
236.79	64.224
237.00	49.398
237.22	51.323
237.43	51.751
237.64	73.913
237.86	54.245
238.07	80.252
238.28	59.055
238.50	47.368
238.71	68.912
238.92	45.755
239.13	65.054
239.35	63.900
239.56	65.556
239.77	83.607
239.99	39.113
240.20	60.700
240.41	46.850
240.63	37.910
240.84	35.841
241.05	45.270
241.26	35.014
241.48	31.804
241.69	30.081
241.90	27.816
242.12	33.333
242.33	27.273
242.54	14.622
242.75	19.529
242.97	19.122
243.18	7.760
243.39	14.491
243.61	18.660
243.82	18.215
244.03	20.628
244.24	12.591
244.46	17.030
244.67	15.481
244.88	22.999
245.09	17.822
245.31	26.557
245.52	22.378
245.73	29.636
245.95	38.690
246.16	33.036
246.37	22.727
246.58	23.538
246.80	24.809
247.01	19.829
247.22	12.356
247.43	13.662
247.65	10.080
247.86	10.449
248.07	7.824
248.28	9.645
248.50	10.173
248.71	6.632
248.92	6.470
249.13	7.219
249.35	5.932
249.56	8.554
249.77	10.500
249.98	12.263
250.20	14.904
250.41	17.627
250.62	19.750
250.83	17.693
251.05	17.630
251.26	24.216
251.47	22.326
251.68	22.260
251.90	22.167
252.11	17.637
252.32	18.339
252.53	18.768
252.75	19.739
252.96	17.308
253.17	12.105
253.38	16.443
253.59	9.877
253.81	18.742
254.02	20.818
254.23	18.758
254.44	17.143
254.66	19.281
254.87	22.373
255.08	18.295
255.29	24.427
255.50	19.348
255.72	26.667
255.93	35.202
256.14	28.017
256.35	22.274
256.57	26.290
256.78	28.289
256.99	30.224
257.20	36.117
257.41	24.948
257.63	25.000
257.84	22.770
258.05	22.605
258.26	21.383
258.47	32.512
258.69	16.689
258.90	18.813
259.11	16.925
259.32	11.862
259.53	15.881
259.75	11.216
259.96	10.852
260.17	6.907
260.38	8.690
260.59	6.489
260.81	7.561
261.02	7.832
261.23	7.657
261.44	8.911
261.65	6.488
261.87	8.361
262.08	8.537
262.29	10.048
262.50	8.625
262.71	10.489
262.92	9.918
263.14	10.714
263.35	8.259
263.56	13.053
263.77	16.667
263.98	18.232
264.20	21.223
264.41	13.224
264.62	17.391
264.83	11.024
265.04	22.944
265.25	14.286
265.47	12.786
265.68	20.642
265.89	22.685
266.10	14.455
266.31	15.884
266.52	16.271
266.74	16.546
266.95	12.834
267.16	11.161
267.37	16.196
267.58	12.158
267.79	10.960
268.01	14.259
268.22	12.754
268.43	11.596
268.64	14.671
268.85	10.335
269.06	11.227
269.27	16.159
269.49	17.647
269.70	11.262
269.91	8.909
270.12	10.968
270.33	13.776
270.54	14.438
270.75	10.546
270.97	10.536
271.18	10.177
271.39	14.096
271.60	11.483
271.81	7.325
272.02	7.268
272.23	9.077
272.45	8.045
272.66	10.327
272.87	9.900
273.08	9.258
273.29	10.062
273.50	7.075
273.71	7.606
273.92	7.625
274.14	7.459
274.35	9.186
274.56	9.148
274.77	5.848
274.98	10.373
275.19	7.292
275.40	10.552
275.61	8.495
275.83	11.775
276.04	11.007
276.25	11.559
276.46	12.162
276.67	9.429
276.88	10.193
277.09	14.457
277.30	13.124
277.51	16.059
277.73	8.883
277.94	9.715
278.15	12.021
278.36	15.339
278.57	11.566
278.78	12.873
278.99	8.795
279.20	12.912
279.41	6.753
279.62	14.419
279.84	10.512
280.05	10.615
280.26	9.375
280.47	12.680
280.68	11.004
280.89	8.382
281.10	9.871
281.31	11.066
281.52	6.564
281.73	8.392
281.94	7.525
282.16	11.352
282.37	9.187
282.58	12.536
282.79	10.367
283.00	8.120
283.21	10.276
283.42	8.784
283.63	10.495
283.84	6.423
284.05	10.976
284.26	10.776
284.47	10.311
284.68	7.989
284.89	8.679
285.11	9.801
285.32	8.143
285.53	9.230
285.74	10.209
285.95	5.760
286.16	7.171
286.37	6.603
286.58	5.923
286.79	5.113
287.00	8.829
287.21	6.058
287.42	7.289
287.63	5.669
287.84	8.223
288.05	8.324
288.26	9.843
288.48	8.649
288.69	6.370
288.90	9.085
289.11	10.284
289.32	9.459
289.53	5.392
289.74	7.725
289.95	8.897
290.16	8.394
290.37	4.556
290.58	5.999
290.79	7.106
291.00	7.936
291.21	7.267
291.42	7.973
291.63	8.693
291.84	7.015
292.05	7.921
292.26	4.917
292.47	6.295
292.68	5.828
292.89	6.686
293.10	10.633
293.31	9.198
293.52	7.264
293.73	6.323
293.94	12.686
294.15	12.891
294.36	6.913
294.57	11.657
294.79	6.820
295.00	10.675
295.21	7.893
295.42	8.595
295.63	8.787
295.84	6.331
296.05	6.518
296.26	8.132
296.47	6.853
296.68	7.162
296.89	7.097
297.10	6.034
297.31	8.581
297.52	9.345
297.73	6.166
297.94	4.831
298.15	5.177
298.36	6.975
298.57	5.864
298.78	5.016
298.99	3.670
299.20	5.895
299.41	5.455
299.62	7.210
299.83	7.029
300.04	5.989
300.25	7.395
300.46	6.025
300.67	7.175
300.88	7.426
301.09	8.281
301.30	11.000
301.50	8.757
301.71	7.596
301.92	8.280
302.13	7.569
302.34	7.117
302.55	6.143
302.76	8.756
302.97	4.826
303.18	7.396
303.39	7.956
303.60	6.584
303.81	7.720
304.02	7.633
304.23	7.607
304.44	9.163
304.65	9.340
304.86	7.108
305.07	8.285
305.28	7.733
305.49	8.686
305.70	9.809
305.91	8.176
306.12	8.714
306.33	7.004
306.54	9.213
306.75	9.102
306.96	10.497
307.17	7.289
307.38	7.391
307.58	7.305
307.79	9.606
308.00	9.192
308.21	8.978
308.42	6.850
308.63	9.775
308.84	5.852
309.05	5.754
309.26	5.862
309.47	9.377
309.68	5.168
309.89	5.328
310.10	8.083
310.31	6.351
310.52	5.290
310.73	8.409
310.94	5.331
311.14	6.702
311.35	7.483
311.56	3.563
311.77	4.735
311.98	7.110
312.19	3.470
312.40	9.456
312.61	5.999
312.82	6.673
313.03	5.186
313.24	7.958
313.45	7.965
313.66	7.386
313.86	6.657
314.07	6.746
314.28	12.507
314.49	6.199
314.70	6.337
314.91	9.795
315.12	7.463
315.33	8.673
315.54	6.609
315.75	7.977
315.96	10.034
316.16	6.140
316.37	7.414
316.58	6.800
316.79	7.422
317.00	8.135
317.21	5.114
317.42	8.853
317.63	5.127
317.84	6.507
318.05	8.729
318.25	8.309
318.46	6.283
318.67	5.748
318.88	7.383
319.09	7.505
319.30	7.983
319.51	6.280
319.72	6.716
319.93	8.924
320.13	7.976
320.34	7.477
320.55	7.461
320.76	5.169
320.97	5.148
321.18	6.709
321.39	7.561
321.60	7.818
321.80	9.288
322.01	9.451
322.22	8.859
322.43	7.756
322.64	7.565
322.85	6.817
323.06	7.920
323.27	7.194
323.47	10.592
323.68	10.863
323.89	7.094
324.10	9.007
324.31	5.173
324.52	5.609
324.73	7.486
324.93	6.725
325.14	7.676
325.35	7.384
325.56	7.031
325.77	8.855
325.98	7.085
326.19	9.324
326.39	6.335
326.60	6.833
326.81	6.925
327.02	7.132
327.23	5.208
327.44	9.086
327.64	6.705
327.85	6.228
328.06	5.250
328.27	8.280
328.48	6.875
328.69	5.838
328.90	7.826
329.10	7.860
329.31	9.056
329.52	8.314
329.73	7.805
329.94	7.296
330.15	8.050
330.35	7.057
330.56	8.480
330.77	6.550
330.98	9.692
331.19	5.460
331.39	7.998
331.60	7.534
331.81	5.549
332.02	9.086
332.23	5.823
332.44	7.953
332.64	6.882
332.85	6.236
333.06	9.232
333.27	5.414
333.48	5.908
333.68	7.558
333.89	6.909
334.10	7.680
334.31	7.210
334.52	5.760
334.72	4.929
334.93	5.694
335.14	8.290
335.35	5.476
335.56	7.012
335.76	5.144
335.97	5.870
336.18	6.983
336.39	9.152
336.60	7.580
336.80	5.602
337.01	6.300
337.22	4.415
337.43	8.460
337.64	6.052
337.84	6.812
338.05	6.265
338.26	9.574
338.47	6.484
338.68	5.510
338.88	5.453
339.09	7.866
339.30	5.730
339.51	7.018
339.71	5.449
339.92	7.331
340.13	5.954
340.34	7.404
340.55	4.332
340.75	6.727
340.96	4.587
341.17	6.147
341.38	6.291
341.58	7.002
341.79	6.238
342.00	7.778
342.21	8.159
342.41	3.549
342.62	6.967
342.83	6.860
343.04	5.454
343.24	5.960
343.45	5.640
343.66	5.301
343.87	5.297
344.07	5.229
344.28	5.164
344.49	7.609
344.70	8.427
344.90	5.793
345.11	3.663
345.32	6.275
345.53	4.156
345.73	5.135
345.94	5.516
346.15	5.112
346.36	3.130
346.56	5.807
346.77	6.996
346.98	6.525
347.19	4.056
347.39	4.532
347.60	5.390
347.81	3.646
348.02	7.362
348.22	5.768
348.43	6.424
348.64	5.966
348.84	5.610
349.05	6.971
349.26	6.609
349.47	5.587
349.67	5.631
349.88	7.656
350.09	5.869
350.30	7.027
350.50	7.488
350.71	6.886
350.92	5.279
351.12	5.039
351.33	7.696
351.54	4.941
351.74	5.186
351.95	7.509
352.16	5.875
352.37	7.991
352.57	6.305
352.78	6.785
352.99	5.981
353.19	7.098
353.40	6.334
353.61	9.123
353.82	6.047
354.02	7.889
354.23	5.801
354.44	5.273
354.64	3.634
354.85	7.270
355.06	5.216
355.26	5.597
355.47	5.920
355.68	9.197
355.88	6.765
356.09	5.829
356.30	5.759
356.51	7.649
356.71	4.681
356.92	6.322
357.13	5.607
357.33	6.712
357.54	6.900
357.75	4.413
357.95	7.140
358.16	5.518
358.37	6.423
358.57	5.381
358.78	7.516
358.99	6.099
359.19	5.675
359.40	5.404
359.61	6.221
359.81	7.389
360.02	7.457
360.23	6.468
360.43	6.631
360.64	6.727
360.85	5.148
361.05	4.877
361.26	7.815
361.47	6.124
361.67	5.912
361.88	4.369
362.09	5.012
362.29	5.570
362.50	5.364
362.70	4.822
362.91	6.879
363.12	4.843
363.32	4.756
363.53	4.580
363.74	6.331
363.94	3.782
364.15	6.098
364.36	5.295
364.56	5.984
364.77	7.436
364.98	8.470
365.18	6.691
365.39	6.661
365.59	4.564
365.80	5.530
366.01	6.055
366.21	3.486
366.42	5.912
366.63	7.592
366.83	5.482
367.04	4.228
367.24	8.880
367.45	6.636
367.66	6.364
367.86	5.020
368.07	6.612
368.28	5.542
368.48	5.680
368.69	4.117
368.89	5.103
369.10	4.891
369.31	6.443
369.51	4.706
369.72	7.181
369.92	8.177
370.13	4.413
370.34	7.952
370.54	5.351
370.75	5.902
370.95	4.240
371.16	4.376
371.37	5.302
371.57	4.304
371.78	6.620
371.98	5.406
372.19	5.804
372.40	6.768
372.60	5.208
372.81	5.666
373.01	5.342
373.22	4.739
373.43	5.579
373.63	5.782
373.84	7.236
374.04	5.454
374.25	6.841
374.46	6.513
374.66	5.091
374.87	6.952
375.07	4.274
375.28	4.750
375.48	5.760
375.69	5.953
375.90	4.690
376.10	4.940
376.31	4.799
376.51	5.117
376.72	4.725
376.92	4.407
377.13	5.322
377.34	6.255
377.54	4.543
377.75	5.516
377.95	5.049
378.16	6.089
378.36	4.749
378.57	5.614
378.77	4.598
378.98	4.801
379.19	4.780
379.39	4.135
379.60	4.714
379.80	3.080
380.01	5.677
380.21	5.128
380.42	6.243
380.62	4.205
380.83	5.556
381.04	5.757
381.24	5.700
381.45	5.126
381.65	4.849
381.86	5.335
382.06	5.855
382.27	5.291
382.47	4.804
382.68	6.164
382.88	3.712
383.09	3.904
383.29	3.796
383.50	6.651
383.71	4.424
383.91	3.473
384.12	4.430
384.32	5.957
384.53	5.729
384.73	5.232
384.94	4.664
385.14	4.270
385.35	3.969
385.55	5.072
385.76	4.098
385.96	5.128
386.17	4.270
386.37	5.738
386.58	4.796
386.78	6.272
386.99	4.261
387.19	6.484
387.40	4.176
387.60	6.512
387.81	4.261
388.01	4.253
388.22	4.515
388.42	5.184
388.63	5.588
388.83	6.568
389.04	4.343
389.24	4.654
389.45	4.941
389.65	4.565
389.86	6.311
390.06	2.804
390.27	4.830
390.47	5.316
390.68	3.780
390.88	6.108
391.09	6.208
391.29	4.090
391.50	4.761
391.70	5.421
391.91	4.508
392.11	4.387
392.32	5.336
392.52	5.476
392.73	5.057
392.93	5.694
393.14	4.081
393.34	4.989
393.55	5.625
393.75	4.664
393.95	4.014
394.16	6.023
394.36	5.204
394.57	4.970
394.77	5.553
394.98	4.031
395.18	5.313
395.39	5.344
395.59	4.851
395.80	5.009
396.00	3.753
396.21	6.311
396.41	4.671
396.61	5.985
396.82	5.310
397.02	6.381
397.23	5.161
397.43	4.912
397.64	4.618
397.84	5.957
398.05	4.028
398.25	4.693
398.45	4.875
398.66	5.356
398.86	5.064
399.07	6.022
399.27	5.605
399.48	6.195
399.68	4.638
399.89	4.069
400.09	5.388
400.29	4.745
400.50	5.354
400.70	6.016
400.91	4.161
401.11	4.396
401.32	5.404
401.52	3.496
401.72	5.676
401.93	6.026
402.13	5.738
402.34	5.312
402.54	3.677
402.75	6.477
402.95	5.061
403.15	6.782
403.36	5.160
403.56	4.851
403.77	5.232
403.97	4.735
404.17	5.099
404.38	4.906
404.58	4.314
404.79	5.524
404.99	5.304
405.19	4.760
405.40	5.099
405.60	4.920
405.81	5.579
406.01	4.038
406.21	4.604
406.42	4.310
406.62	5.245
406.83	5.149
407.03	6.575
407.23	3.443
407.44	4.122
407.64	4.583
407.85	6.362
408.05	5.302
408.25	4.303
408.46	5.226
408.66	4.557
408.87	4.453
409.07	5.038
409.27	3.047
409.48	5.243
409.68	5.403
409.88	3.719
410.09	5.214
410.29	4.802
410.50	5.437
410.70	3.668
410.90	4.319
411.11	3.948
411.31	4.659
411.51	4.223
411.72	5.550
411.92	4.007
412.12	4.762
412.33	4.463
412.53	4.434
412.74	3.611
412.94	5.516
413.14	4.557
413.35	4.505
413.55	4.575
413.75	4.074
413.96	3.250
414.16	4.481
414.36	4.726
414.57	4.772
414.77	3.664
414.97	4.593
415.18	4.257
415.38	4.077
415.58	4.747
415.79	4.303
415.99	4.266
416.19	4.529
416.40	4.438
416.60	4.001
416.80	3.814
417.01	3.981
417.21	3.516
417.41	5.369
417.62	4.514
417.82	4.800
418.02	2.911
418.23	4.120
418.43	3.751
418.63	4.859
418.84	5.177
419.04	3.675
419.24	5.124
419.45	4.427
419.65	5.369
419.85	4.919
420.06	4.581
420.26	5.090
420.46	4.419
420.67	5.037
420.87	4.736
421.07	5.765
421.28	4.343
421.48	5.507
421.68	4.852
421.88	5.597
422.09	5.803
422.29	5.114
422.49	4.595
422.70	4.422
422.90	5.260
423.10	5.518
423.31	5.164
423.51	5.809
423.71	4.178
423.91	5.230
424.12	5.402
424.32	5.709
424.52	5.223
424.73	4.807
424.93	4.870
425.13	4.886
425.33	4.471
425.54	5.506
425.74	4.920
425.94	5.840
426.15	5.344
426.35	4.455
426.55	4.590
426.75	5.018
426.96	4.807
427.16	5.022
427.36	5.301
427.57	5.693
427.77	4.658
427.97	5.186
428.17	5.072
428.38	5.363
428.58	2.881
428.78	5.314
428.98	3.749
429.19	4.234
429.39	3.210
429.59	5.145
429.79	3.950
430.00	4.209
430.20	3.996
430.40	4.052
430.60	4.532
430.81	4.694
431.01	3.244
431.21	4.507
431.41	3.630
431.62	4.535
431.82	4.689
432.02	5.525
432.22	3.849
432.43	3.373
432.63	3.332
432.83	5.297
433.03	3.724
433.24	4.336
433.44	3.756
433.64	4.867
433.84	4.393
434.05	5.184
434.25	4.438
434.45	5.901
434.65	6.245
434.85	6.175
435.06	4.954
435.26	5.228
435.46	5.181
435.66	5.660
435.87	4.004
436.07	5.067
436.27	5.415
436.47	3.839
436.67	3.945
436.88	4.861
437.08	5.539
437.28	4.514
437.48	5.179
437.69	5.629
437.89	5.461
438.09	6.531
438.29	4.297
438.49	6.099
438.70	6.026
438.90	4.830
439.10	5.271
439.30	5.757
439.50	5.061
439.71	5.918
439.91	5.200
440.11	7.064
440.31	6.299
440.51	5.346
440.72	5.464
440.92	6.177
441.12	6.579
441.32	7.474
441.52	6.316
441.72	7.186
441.93	5.922
442.13	7.351
442.33	6.637
442.53	7.632
442.73	5.739
442.94	6.708
443.14	6.182
443.34	7.794
443.54	6.760
443.74	7.199
443.94	5.873
444.15	5.863
444.35	4.899
444.55	6.600
444.75	5.287
444.95	6.842
445.15	6.233
445.36	6.362
445.56	5.834
445.76	7.686
445.96	6.226
446.16	6.835
446.36	6.050
446.57	7.392
446.77	4.923
446.97	7.046
447.17	7.433
447.37	7.310
447.57	7.375
447.77	7.722
447.98	6.589
448.18	7.821
448.38	6.872
448.58	7.681
448.78	7.278
448.98	7.202
449.18	6.385
449.39	7.043
449.59	6.226
449.79	6.325
449.99	5.721
450.19	6.639
450.39	5.771
450.59	7.017
450.79	6.132
451.00	6.959
451.20	6.741
451.40	6.396
451.60	5.771
451.80	7.357
452.00	5.529
452.20	5.641
452.40	5.777
452.61	5.273
452.81	5.182
453.01	6.639
453.21	5.865
453.41	6.645
453.61	5.813
453.81	6.242
454.01	5.726
454.21	6.109
454.42	6.825
454.62	6.442
454.82	5.786
455.02	6.150
455.22	5.411
455.42	6.063
455.62	4.655
455.82	6.429
456.02	5.337
456.23	5.592
456.43	6.451
456.63	5.941
456.83	4.360
457.03	6.505
457.23	6.106
457.43	5.954
457.63	5.570
457.83	5.763
458.03	5.219
458.23	5.726
458.43	5.311
458.64	6.683
458.84	6.251
459.04	6.143
459.24	6.137
459.44	6.771
459.64	6.384
459.84	6.757
460.04	6.603
460.24	6.942
460.44	6.778
460.64	7.575
460.84	6.732
461.04	8.156
461.24	7.483
461.45	7.896
461.65	7.815
461.85	8.718
462.05	7.404
462.25	7.675
462.45	7.372
462.65	7.487
462.85	5.530
463.05	7.312
463.25	5.583
463.45	7.401
463.65	6.524
463.85	7.192
464.05	6.485
464.25	6.017
464.45	6.608
464.65	6.103
464.85	5.596
465.05	6.042
465.26	5.764
465.46	7.279
465.66	7.138
465.86	6.299
466.06	5.957
466.26	7.057
466.46	5.264
466.66	6.351
466.86	5.894
467.06	7.379
467.26	6.418
467.46	7.740
467.66	6.308
467.86	6.905
468.06	6.566
468.26	6.585
468.46	6.988
468.66	7.331
468.86	5.595
469.06	7.662
469.26	5.815
469.46	7.256
469.66	6.322
469.86	7.977
470.06	6.388
470.26	8.162
470.46	6.276
470.66	8.335
470.86	5.959
471.06	6.857
471.26	5.911
471.46	6.952
471.66	6.630
471.86	7.146
472.06	6.388
472.26	8.146
472.46	8.005
472.66	8.181
472.86	6.990
473.06	7.417
473.26	7.372
473.46	7.712
473.66	7.408
473.86	8.318
474.06	6.915
474.26	7.807
474.46	6.623
474.66	8.501
474.86	8.736
475.06	8.056
475.26	6.453
475.46	8.772
475.66	7.180
475.86	8.205
476.06	8.844
476.26	8.924
476.46	7.307
476.66	8.655
476.86	7.069
477.06	8.632
477.26	7.482
477.46	9.051
477.65	8.579
477.85	9.548
478.05	6.713
478.25	9.677
478.45	8.006
478.65	9.266
478.85	8.621
479.05	10.322
479.25	8.775
479.45	10.221
479.65	8.417
479.85	9.758
480.05	9.245
480.25	10.144
480.45	9.319
480.65	10.227
480.85	9.673
481.05	10.731
481.25	10.276
481.44	10.590
481.64	9.536
481.84	10.273
482.04	10.417
482.24	10.782
482.44	10.046
482.64	10.513
482.84	10.445
483.04	10.862
483.24	10.384
483.44	10.237
483.64	10.285
483.84	10.355
484.04	10.905
484.23	10.996
484.43	11.351
484.63	11.930
484.83	12.548
485.03	12.939
485.23	13.269
485.43	13.260
485.63	13.231
485.83	12.633
486.03	11.917
486.23	12.289
486.42	12.368
486.62	12.337
486.82	12.104
487.02	12.027
487.22	11.463
487.42	11.446
487.62	11.783
487.82	11.270
488.02	11.660
488.22	11.616
488.41	12.127
488.61	12.196
488.81	11.825
489.01	12.223
489.21	12.275
489.41	12.419
489.61	12.108
489.81	12.562
490.01	12.601
490.20	12.143
490.40	12.600
490.60	13.013
490.80	11.828
491.00	12.199
491.20	11.867
491.40	11.858
491.60	11.631
491.79	11.768
491.99	11.909
492.19	12.364
492.39	12.476
492.59	12.164
492.79	12.484
492.99	12.177
493.19	12.524
493.38	12.786
493.58	12.674
493.78	12.851
493.98	12.982
494.18	13.488
494.38	12.857
494.58	13.138
494.77	12.529
494.97	12.174
495.17	11.310
495.37	12.669
495.57	11.810
495.77	12.972
495.96	12.275
496.16	12.874
496.36	11.426
496.56	11.942
496.76	11.995
496.96	12.768
497.15	12.185
497.35	12.304
497.55	12.046
497.75	12.666
497.95	12.374
498.15	12.680
498.34	12.302
498.54	12.659
498.74	13.181
498.94	12.896
499.14	12.365
499.34	12.837
499.53	12.847
499.73	13.106
499.93	12.442
500.13	12.806
500.33	12.371
500.52	12.338
500.72	12.252
500.92	13.163
501.12	12.390
501.32	13.150
501.52	12.232
501.71	12.449
501.91	12.040
502.11	12.959
502.31	12.462
502.51	13.673
502.70	11.896
502.90	12.806
503.10	11.994
503.30	12.791
503.50	12.195
503.69	12.850
503.89	12.247
504.09	13.078
504.29	11.937
504.48	12.820
504.68	12.649
504.88	13.031
505.08	12.073
505.28	13.014
505.47	12.853
505.67	13.805
505.87	12.334
506.07	13.054
506.27	12.604
506.46	12.925
506.66	12.466
506.86	13.443
507.06	13.149
507.25	13.336
507.45	12.798
507.65	13.055
507.85	12.707
508.04	13.252
508.24	12.940
508.44	12.673
508.64	12.983
508.83	13.775
509.03	12.405
509.23	13.298
509.43	12.466
509.63	12.963
509.82	12.395
510.02	13.372
510.22	13.418
510.42	13.386
510.61	12.470
510.81	13.100
511.01	12.879
511.21	13.677
511.40	13.331
511.60	13.578
511.80	13.122
511.99	13.477
512.19	12.416
512.39	13.849
512.59	13.019
512.78	13.277
512.98	13.129
513.18	13.585
513.38	13.028
513.57	13.847
513.77	13.198
513.97	13.437
514.17	12.953
514.36	14.064
514.56	12.703
514.76	13.251
514.95	12.807
515.15	12.860
515.35	13.158
515.55	13.313
515.74	12.962
515.94	13.261
516.14	12.964
516.33	13.382
516.53	13.104
516.73	13.232
516.93	12.841
517.12	13.489
517.32	12.488
517.52	13.190
517.71	13.430
517.91	13.368
518.11	12.957
518.30	13.021
518.50	12.705
518.70	13.196
518.90	13.157
519.09	13.867
519.29	13.440
519.49	13.605
519.68	12.972
519.88	13.627
520.08	14.336
520.27	14.148
520.47	13.564
520.67	14.208
520.86	13.672
521.06	13.940
521.26	13.438
521.45	13.625
521.65	13.450
521.85	13.650
522.04	12.935
522.24	13.545
522.44	13.493
522.63	13.600
522.83	13.293
523.03	13.346
523.22	13.037
523.42	13.235
523.62	13.202
523.81	13.334
524.01	13.656
524.21	13.691
524.40	12.953
524.60	13.883
524.80	13.544
524.99	12.876
525.19	13.486
525.39	13.547
525.58	12.912
525.78	13.283
525.98	13.545
526.17	13.366
526.37	13.292
526.57	13.345
526.76	13.502
526.96	13.612
527.15	13.264
527.35	13.496
527.55	13.087
527.74	13.884
527.94	13.706
528.14	12.988
528.33	12.973
528.53	12.663
528.72	12.854
528.92	13.198
529.12	13.675
529.31	13.365
529.51	13.619
529.71	13.763
529.90	13.764
530.10	13.952
530.29	13.792
530.49	14.149
530.69	14.254
530.88	14.161
531.08	14.573
531.28	14.228
531.47	13.776
531.67	13.943
531.86	13.393
532.06	13.598
532.26	13.464
532.45	13.533
532.65	13.195
532.84	13.422
533.04	13.410
533.24	13.165
533.43	12.743
533.63	13.291
533.82	13.629
534.02	13.854
534.22	13.551
534.41	13.419
534.61	14.075
534.80	13.873
535.00	13.893
535.19	14.524
535.39	13.989
535.59	13.905
535.78	13.690
535.98	14.013
536.17	13.553
536.37	13.151
536.57	13.551
536.76	13.798
536.96	13.677
537.15	13.192
537.35	13.649
537.54	13.757
537.74	13.505
537.93	13.558
538.13	13.690
538.33	13.709
538.52	13.895
538.72	13.792
538.91	14.075
539.11	13.816
539.30	13.713
539.50	13.585
539.70	13.641
539.89	13.242
540.09	14.126
540.28	13.479
540.48	13.250
540.67	13.346
540.87	12.995
541.06	13.570
541.26	13.002
541.45	13.297
541.65	13.157
541.85	13.273
542.04	13.198
542.24	13.526
542.43	13.645
542.63	13.791
542.82	13.733
543.02	13.921
543.21	13.636
543.41	14.379
543.60	14.116
543.80	14.286
543.99	14.480
544.19	14.034
544.38	14.445
544.58	14.282
544.77	13.960
544.97	14.451
545.16	13.845
545.36	13.759
545.56	14.513
545.75	14.353
545.95	13.389
546.14	13.916
546.34	13.615
546.53	13.917
546.73	13.478
546.92	14.600
547.12	14.253
547.31	14.256
547.51	14.159
547.70	14.404
547.90	13.499
548.09	14.140
548.29	13.235
548.48	14.262
548.68	13.656
548.87	14.138
549.07	14.059
549.26	14.685
549.46	14.272
549.65	13.333
549.84	13.918
550.04	14.292
550.23	14.314
550.43	13.383
550.62	13.381
550.82	13.826
551.01	13.364
551.21	14.123
551.40	12.832
551.60	14.232
551.79	12.573
551.99	14.429
552.18	13.193
552.38	13.522
552.57	13.712
552.77	13.444
552.96	14.667
553.16	13.681
553.35	13.862
553.54	14.385
553.74	13.955
553.93	14.121
554.13	14.309
554.32	14.418
554.52	14.688
554.71	14.825
554.91	13.740
555.10	14.876
555.29	13.398
555.49	14.619
555.68	14.255
555.88	13.626
556.07	13.588
556.27	15.331
556.46	14.064
556.66	14.802
556.85	13.994
557.04	14.988
557.24	14.007
557.43	15.276
557.63	14.573
557.82	14.116
558.02	13.690
558.21	14.663
558.40	12.970
558.60	14.603
558.79	14.118
558.99	14.520
559.18	14.556
559.38	14.933
559.57	13.847
559.76	14.651
559.96	15.093
560.15	15.023
560.35	13.237
560.54	14.967
560.73	13.437
560.93	15.369
561.12	14.817
561.32	14.429
561.51	14.435
561.70	15.178
561.90	14.780
562.09	14.921
562.29	14.444
562.48	15.179
562.67	15.228
562.87	15.816
563.06	15.114
563.26	15.688
563.45	15.278
563.64	16.131
563.84	15.310
564.03	15.044
564.23	14.290
564.42	15.871
564.61	16.090
564.81	16.372
565.00	16.092
565.20	16.596
565.39	16.099
565.58	15.931
565.78	15.733
565.97	16.780
566.16	16.210
566.36	17.270
566.55	16.029
566.74	16.452
566.94	15.418
567.13	17.192
567.33	16.283
567.52	17.467
567.71	16.469
567.91	16.951
568.10	17.100
568.29	17.317
568.49	17.113
568.68	17.537
568.87	16.472
569.07	16.930
569.26	16.663
569.45	17.478
569.65	16.699
569.84	18.073
570.04	17.233
570.23	17.795
570.42	16.213
570.62	16.861
570.81	15.650
571.00	17.194
571.20	16.486
571.39	16.900
571.58	16.518
571.78	17.737
571.97	17.069
572.16	17.674
572.36	17.296
572.55	17.777
572.74	17.968
572.94	17.433
573.13	18.187
573.32	17.535
573.51	17.417
573.71	17.560
573.90	16.953
574.09	18.225
574.29	17.819
574.48	17.330
574.67	17.295
574.87	17.748
575.06	18.074
575.25	17.786
575.45	17.501
575.64	17.499
575.83	17.438
576.03	18.072
576.22	17.369
576.41	18.080
576.60	17.476
576.80	18.062
576.99	18.042
577.18	18.692
577.38	17.723
577.57	17.989
577.76	19.376
577.95	18.508
578.15	17.434
578.34	17.882
578.53	16.985
578.73	18.721
578.92	17.758
579.11	17.507
579.30	17.822
579.50	17.364
579.69	18.269
579.88	18.207
580.08	16.713
580.27	17.853
580.46	17.560
580.65	18.546
580.85	18.085
581.04	17.523
581.23	17.300
581.42	17.819
581.62	17.299
581.81	18.221
582.00	17.110
582.19	18.335
582.39	18.309
582.58	17.446
582.77	18.244
582.96	17.554
583.16	17.601
583.35	17.649
583.54	17.887
583.73	18.508
583.93	17.695
584.12	18.071
584.31	16.984
584.50	18.634
584.70	17.395
584.89	18.841
585.08	17.055
585.27	17.814
585.47	17.031
585.66	17.808
585.85	16.298
586.04	18.230
586.24	18.282
586.43	18.173
586.62	16.553
586.81	18.139
587.00	17.295
587.20	17.751
587.39	15.779
587.58	18.099
587.77	17.696
587.97	16.863
588.16	16.974
588.35	18.758
588.54	16.905
588.73	18.654
588.93	18.120
589.12	18.251
589.31	17.836
589.50	17.595
589.69	18.488
589.89	18.853
590.08	18.232
590.27	18.967
590.46	17.626
590.65	18.726
590.85	17.628
591.04	19.116
591.23	17.602
591.42	18.784
591.61	17.934
591.81	17.742
592.00	17.860
592.19	19.740
592.38	17.411
592.57	18.518
592.77	18.146
592.96	18.358
593.15	18.865
593.34	18.419
593.53	17.519
593.72	18.143
593.92	16.981
594.11	20.157
594.30	17.855
594.49	19.224
594.68	18.936
594.87	19.237
595.07	17.614
595.26	19.279
595.45	17.977
595.64	18.459
595.83	18.906
596.02	19.239
596.22	17.151
596.41	18.477
596.60	19.482
596.79	19.699
596.98	19.419
597.17	19.705
597.37	18.801
597.56	19.747
597.75	18.830
597.94	20.909
598.13	19.908
598.32	19.942
598.51	20.138
598.71	20.003
598.90	20.854
599.09	20.008
599.28	20.196
599.47	20.236
599.66	19.994
599.85	20.658
600.05	18.767
600.24	20.470
600.43	20.840
600.62	20.354
600.81	19.759
601.00	19.834
601.19	18.968
601.38	20.135
601.58	20.580
601.77	20.549
601.96	18.478
602.15	21.048
602.34	19.437
602.53	20.612
602.72	18.990
602.91	20.273
603.10	19.480
603.30	20.979
603.49	19.394
603.68	20.467
603.87	19.786
604.06	20.076
604.25	20.807
604.44	20.516
604.63	20.821
604.82	21.372
605.01	21.552
605.21	20.842
605.40	21.065
605.59	21.204
605.78	21.102
605.97	21.582
606.16	21.240
606.35	21.142
606.54	21.580
606.73	21.991
606.92	20.668
607.11	22.860
607.30	20.797
607.50	21.805
607.69	21.155
607.88	20.287
608.07	20.036
608.26	20.867
608.45	20.684
608.64	21.527
608.83	20.354
609.02	20.311
609.21	21.117
609.40	21.390
609.59	20.598
609.78	20.803
609.97	20.535
610.16	21.808
610.35	21.194
610.55	20.750
610.74	21.046
610.93	21.544
611.12	20.807
611.31	22.097
611.50	20.320
611.69	20.775
611.88	21.224
612.07	21.063
612.26	20.144
612.45	21.680
612.64	19.573
612.83	20.966
613.02	18.134
613.21	19.178
613.40	19.358
613.59	20.759
613.78	19.560
613.97	19.931
614.16	18.729
614.35	20.368
614.54	18.376
614.73	20.071
614.92	19.579
615.11	19.319
615.30	18.908
615.49	19.422
615.68	20.587
615.87	19.555
616.07	18.208
616.26	20.132
616.45	19.815
616.64	19.758
616.83	19.050
617.02	20.877
617.21	18.220
617.40	19.242
617.59	18.917
617.78	19.307
617.97	19.879
618.16	20.061
618.35	18.298
618.54	19.076
618.73	19.235
618.92	18.022
619.11	18.573
619.30	20.212
619.49	17.664
619.68	19.783
619.86	18.851
620.05	19.232
620.24	18.092
620.43	19.703
620.62	17.459
620.81	19.621
621.00	18.128
621.19	20.295
621.38	18.913
621.57	21.210
621.76	17.478
621.95	19.280
622.14	18.899
622.33	20.731
622.52	17.642
622.71	19.421
622.90	16.966
623.09	19.746
623.28	19.794
623.47	18.587
623.66	18.702
623.85	19.619
624.04	17.601
624.23	19.217
624.42	19.177
624.61	18.894
624.80	17.436
624.99	19.479
625.18	16.938
625.36	20.141
625.55	18.512
625.74	19.061
625.93	18.016
626.12	19.705
626.31	19.310
626.50	21.079
626.69	19.860
626.88	20.199
627.07	19.930
627.26	20.036
627.45	20.211
627.64	20.085
627.83	18.934
628.02	20.391
628.20	20.580
628.39	20.090
628.58	19.839
628.77	20.547
628.96	19.386
629.15	20.123
629.34	19.582
629.53	19.611
629.72	16.865
629.91	19.412
630.10	19.216
630.29	19.225
630.47	18.283
630.66	19.890
630.85	18.383
631.04	19.059
631.23	18.591
631.42	19.418
631.61	18.249
631.80	19.135
631.99	18.297
632.18	17.781
632.36	15.630
632.55	19.269
632.74	17.799
632.93	18.201
633.12	17.544
633.31	17.859
633.50	18.773
633.69	18.863
633.88	15.952
634.06	19.382
634.25	18.934
634.44	18.680
634.63	19.002
634.82	20.171
635.01	16.570
635.20	20.113
635.39	16.705
635.57	20.376
635.76	17.872
635.95	19.540
636.14	17.454
636.33	18.914
636.52	19.151
636.71	17.664
636.89	17.975
637.08	18.946
637.27	16.957
637.46	18.789
637.65	18.224
637.84	19.442
638.03	17.075
638.21	18.754
638.40	17.497
638.59	19.059
638.78	16.731
638.97	18.520
639.16	19.420
639.34	18.854
639.53	16.200
639.72	19.618
639.91	15.901
640.10	16.158
640.29	17.722
640.47	20.161
640.66	16.659
640.85	19.208
641.04	15.001
641.23	18.471
641.42	18.050
641.60	18.077
641.79	16.157
641.98	17.488
642.17	16.595
642.36	18.852
642.54	15.842
642.73	16.646
642.92	15.398
643.11	17.094
643.30	14.796
643.49	18.215
643.67	13.961
643.86	18.478
644.05	14.681
644.24	16.693
644.43	16.632
644.61	18.504
644.80	16.740
644.99	16.462
645.18	18.303
645.37	16.731
645.55	16.067
645.74	17.880
645.93	16.565
646.12	18.696
646.31	18.682
646.49	18.491
646.68	16.592
646.87	18.094
647.06	16.107
647.24	19.238
647.43	13.737
647.62	18.396
647.81	14.809
648.00	18.233
648.18	14.766
648.37	16.795
648.56	16.258
648.75	17.579
648.93	15.672
649.12	16.654
649.31	14.754
649.50	15.949
649.68	15.836
649.87	16.306
650.06	13.088
650.25	17.690
650.43	15.387
650.62	17.174
650.81	16.042
651.00	15.673
651.18	15.639
651.37	18.453
651.56	14.680
651.75	17.110
651.93	15.661
652.12	17.346
652.31	15.803
652.50	16.065
652.68	17.475
652.87	18.027
653.06	17.054
653.25	18.149
653.43	16.701
653.62	17.854
653.81	16.356
654.00	18.438
654.18	14.906
654.37	18.270
654.56	15.944
654.74	16.090
654.93	13.940
655.12	16.492
655.31	13.748
655.49	17.054
655.68	13.369
655.87	14.996
656.05	13.819
656.24	15.654
656.43	12.312
656.62	15.971
656.80	15.295
656.99	14.985
657.18	13.758
657.36	14.832
657.55	15.257
657.74	14.742
657.93	15.869
658.11	17.193
658.30	16.595
658.49	15.871
658.67	16.544
658.86	14.906
659.05	14.092
659.23	17.882
659.42	14.984
659.61	17.351
659.79	14.845
659.98	17.787
660.17	16.391
660.35	16.849
660.54	16.466
660.73	18.435
660.91	16.479
661.10	16.607
661.29	13.710
661.47	16.248
661.66	15.655
661.85	17.795
662.03	13.421
662.22	12.025
662.41	12.647
662.59	14.748
662.78	11.908
662.97	13.088
663.15	10.327
663.34	12.208
663.53	11.420
663.71	13.425
663.90	13.209
664.09	15.210
664.27	12.024
664.46	13.344
664.65	11.582
664.83	11.815
665.02	11.653
665.21	11.520
665.39	9.558
665.58	11.224
665.77	12.864
665.95	12.927
666.14	9.919
666.32	12.539
666.51	11.947
666.70	10.611
666.88	11.229
667.07	11.856
667.26	9.008
667.44	11.175
667.63	11.423
667.81	9.245
668.00	9.599
668.19	13.041
668.37	9.434
668.56	13.020
668.75	9.819
668.93	13.619
669.12	8.930
669.30	12.029
669.49	9.004
669.68	12.691
669.86	12.709
670.05	10.333
670.23	11.203
670.42	9.165
670.61	9.664
670.79	12.084
670.98	10.436
671.16	13.838
671.35	9.781
671.54	11.883
671.72	8.898
671.91	11.115
672.09	9.538
672.28	11.716
672.46	13.068
672.65	11.286
672.84	11.864
673.02	10.364
673.21	8.783
673.39	9.442
673.58	10.933
673.77	11.048
673.95	10.353
674.14	11.478
674.32	9.837
674.51	12.100
674.69	7.874
674.88	11.470
675.07	8.287
675.25	13.744
675.44	11.115
675.62	10.300
675.81	7.770
675.99	16.384
676.18	11.949
676.36	8.479
676.55	8.718
676.74	12.068
676.92	13.635
677.11	10.683
677.29	10.466
677.48	13.007
677.66	9.814
677.85	10.401
678.03	10.684
678.22	12.496
678.40	11.134
678.59	10.190
678.78	9.742
678.96	10.288
679.15	11.649
679.33	13.892
679.52	13.730
679.70	12.668
679.89	12.633
680.07	13.377
680.26	10.791
680.44	11.979
680.63	13.570
680.81	12.129
681.00	10.132
681.18	14.096
681.37	13.116
681.55	14.977
681.74	13.942
681.92	14.757
682.11	13.670
682.29	12.489
682.48	13.265
682.66	14.231
682.85	13.694
683.03	14.909
683.22	15.687
683.40	16.420
683.59	11.852
683.77	15.179
683.96	11.575
684.14	15.435
684.33	10.510
684.51	17.326
684.70	12.730
684.88	17.257
685.07	14.542
685.25	17.167
685.44	12.787
685.62	15.194
685.81	12.313
685.99	16.643
686.18	13.345
686.36	15.064
686.55	10.691
686.73	13.404
686.92	16.034
687.10	17.720
687.29	16.877
687.47	15.492
687.65	18.306
687.84	16.132
688.02	21.322
688.21	19.029
688.39	16.231
688.58	18.982
688.76	17.687
688.95	18.444
689.13	14.362
689.32	21.493
689.50	17.982
689.68	18.849
689.87	17.904
690.05	19.667
690.24	19.891
690.42	19.772
690.61	21.711
690.79	21.963
690.98	18.824
691.16	18.638
691.34	14.851
691.53	20.865
691.71	17.600
691.90	19.540
692.08	18.113
692.27	22.009
692.45	20.435
692.63	20.273
692.82	23.954
693.00	20.668
693.19	19.588
693.37	23.668
693.56	19.613
693.74	24.301
693.92	19.707
694.11	24.747
694.29	22.867
694.48	27.261
694.66	23.288
694.84	26.738
695.03	21.620
695.21	27.202
695.40	26.689
695.58	30.042
695.76	24.990
695.95	28.152
696.13	25.550
696.32	29.296
696.50	32.120
696.68	28.335
696.87	26.432
697.05	29.330
697.24	26.395
697.42	31.032
697.60	29.429
697.79	30.875
697.97	30.359
698.16	33.535
698.34	29.631
698.52	34.441
698.71	33.514
698.89	34.686
699.07	35.199
699.26	34.463
699.44	33.609
699.63	36.515
699.81	33.432
699.99	35.592
700.18	36.426
700.36	36.120
700.54	36.505
700.73	34.853
700.91	35.550
701.09	35.655
701.28	36.223
701.46	37.180
701.64	33.263
701.83	36.059
702.01	32.494
702.20	40.341
702.38	35.370
702.56	34.926
702.75	34.439
702.93	33.615
703.11	35.526
703.30	36.593
703.48	36.907
703.66	38.515
703.85	36.163
704.03	40.841
704.21	35.319
704.40	39.566
704.58	33.696
704.76	37.530
704.95	37.494
705.13	37.445
705.31	35.059
705.50	39.511
705.68	35.431
705.86	40.020
706.04	35.602
706.23	39.500
706.41	37.282
706.59	37.968
706.78	37.531
706.96	41.918
707.14	38.752
707.33	39.340
707.51	37.159
707.69	40.444
707.88	37.090
708.06	41.937
708.24	38.121
708.42	44.321
708.61	38.312
708.79	40.586
708.97	40.237
709.16	43.239
709.34	38.795
709.52	39.982
709.71	38.152
709.89	43.939
710.07	37.966
710.25	40.989
710.44	42.662
710.62	42.753
710.80	42.519
710.98	43.224
711.17	40.661
711.35	41.194
711.53	37.616
711.72	43.277
711.90	43.713
712.08	44.257
712.26	40.982
712.45	43.096
712.63	42.442
712.81	44.969
712.99	41.063
713.18	47.210
713.36	40.855
713.54	40.864
713.72	40.788
713.91	44.249
714.09	40.524
714.27	43.648
714.45	43.321
714.64	43.958
714.82	40.129
715.00	45.620
715.18	42.980
715.37	41.341
715.55	41.008
715.73	45.727
715.91	41.327
716.10	43.368
716.28	39.494
716.46	44.324
716.64	41.353
716.83	45.262
717.01	43.261
717.19	44.671
717.37	42.798
717.55	45.508
717.74	41.541
717.92	42.780
718.10	40.503
718.28	43.581
718.47	42.367
718.65	45.698
718.83	44.497
719.01	48.086
719.19	42.983
719.38	38.526
719.56	39.721
719.74	41.041
719.92	35.287
720.10	42.694
720.29	40.035
720.47	43.619
720.65	45.123
720.83	42.441
721.01	38.132
721.20	41.987
721.38	41.340
721.56	44.246
721.74	38.778
721.92	43.513
722.11	44.695
722.29	45.565
722.47	41.531
722.65	46.320
722.83	40.264
723.01	43.023
723.20	40.237
723.38	45.240
723.56	42.345
723.74	44.720
723.92	42.005
724.10	42.538
724.29	39.856
724.47	46.168
724.65	41.273
724.83	45.629
725.01	39.240
725.19	46.710
725.38	37.399
725.56	44.365
725.74	44.325
725.92	46.945
726.10	40.673
726.28	40.204
726.46	43.280
726.65	44.015
726.83	40.518
727.01	46.252
727.19	42.121
727.37	46.270
727.55	41.577
727.73	42.961
727.92	41.910
728.10	45.699
728.28	39.016
728.46	48.860
728.64	43.659
728.82	49.329
729.00	44.565
729.19	46.781
729.37	46.337
729.55	49.050
729.73	43.450
729.91	49.161
730.09	43.907
730.27	47.460
730.45	38.630
730.63	44.904
730.82	42.000
731.00	46.694
731.18	43.226
731.36	44.545
731.54	45.502
731.72	45.159
731.90	43.291
732.08	47.056
732.26	46.313
732.45	49.171
732.63	44.716
732.81	43.125
732.99	47.144
733.17	49.972
733.35	42.857
733.53	48.815
733.71	43.530
733.89	44.681
734.07	47.897
734.25	51.575
734.44	45.586
734.62	43.739
734.80	44.296
734.98	51.122
735.16	44.370
735.34	46.154
735.52	45.215
735.70	49.839
735.88	47.155
736.06	50.540
736.24	52.876
736.42	48.210
736.60	47.386
736.78	51.160
736.97	45.822
737.15	49.332
737.33	48.716
737.51	47.655
737.69	45.984
737.87	51.387
738.05	48.816
738.23	48.031
738.41	43.710
738.59	47.787
738.77	48.738
738.95	53.480
739.13	42.978
739.31	49.791
739.49	45.776
739.67	52.607
739.85	49.140
740.03	49.694
740.21	46.250
740.39	50.206
740.57	49.821
740.75	49.791
740.93	45.927
741.11	50.352
741.30	46.391
741.48	51.628
741.66	44.105
741.84	49.580
742.02	44.796
742.20	49.084
742.38	51.393
742.56	50.928
742.74	40.201
742.92	47.448
743.10	45.749
743.28	50.352
743.46	46.800
743.64	48.938
743.82	46.878
744.00	50.963
744.18	46.667
744.36	47.338
744.54	43.601
744.72	54.188
744.90	46.007
745.08	52.765
745.26	46.945
745.44	55.107
745.62	47.619
745.80	43.274
745.98	45.735
746.16	56.305
746.34	47.717
746.52	48.349
746.70	48.011
746.87	45.471
747.05	45.760
747.23	46.837
747.41	48.579
747.59	49.309
747.77	47.175
747.95	54.422
748.13	47.826
748.31	51.042
748.49	43.902
748.67	47.306
748.85	50.359
749.03	50.580
749.21	49.770
749.39	48.027
749.57	43.441
749.75	52.321
749.93	48.266
750.11	48.805
750.29	48.027
750.47	51.161
750.65	48.138
750.83	51.449
751.01	40.466
751.18	47.089
751.36	41.732
751.54	46.325
751.72	48.609
751.90	51.673
752.08	45.388
752.26	49.416
752.44	47.201
752.62	49.538
752.80	49.065
752.98	49.587
753.16	48.185
753.34	53.142
753.52	48.688
753.69	54.105
753.87	54.734
754.05	51.582
754.23	47.636
754.41	48.246
754.59	48.344
754.77	52.336
754.95	45.455
755.13	48.749
755.31	46.102
755.49	51.990
755.66	46.279
755.84	51.915
756.02	45.763
756.20	56.080
756.38	47.500
756.56	49.009
756.74	44.687
756.92	52.304
757.10	43.211
757.28	58.189
757.45	51.817
757.63	48.634
757.81	48.134
757.99	52.288
758.17	48.789
758.35	50.937
758.53	50.226
758.71	54.185
758.88	49.559
759.06	53.729
759.24	45.929
759.42	44.588
759.60	49.521
759.78	49.392
759.96	39.900
760.13	48.964
760.31	37.034
760.49	41.273
760.67	31.332
760.85	36.356
761.03	36.718
761.21	38.687
761.38	29.447
761.56	41.403
761.74	34.751
761.92	48.990
762.10	32.757
762.28	39.165
762.46	32.632
762.63	37.292
762.81	38.893
762.99	35.399
763.17	37.427
763.35	41.542
763.53	40.431
763.70	42.358
763.88	42.506
764.06	44.106
764.24	42.819
764.42	46.638
764.60	40.574
764.77	42.988
764.95	43.247
765.13	51.007
765.31	42.377
765.49	48.526
765.66	41.621
765.84	48.052
766.02	44.161
766.20	43.538
766.38	44.636
766.56	45.927
766.73	43.616
766.91	48.556
767.09	46.073
767.27	49.481
767.45	43.303
767.62	47.852
767.80	38.071
767.98	50.176
768.16	43.019
768.33	48.566
768.51	46.679
768.69	50.464
768.87	43.254
769.05	45.513
769.22	46.702
769.40	48.332
769.58	46.178
769.76	49.613
769.94	45.155
770.11	48.283
770.29	47.279
770.47	53.047
770.65	48.743
770.82	49.893
771.00	48.040
771.18	55.211
771.36	48.671
771.53	50.909
771.71	50.952
771.89	54.556
772.07	47.406
772.25	49.938
772.42	47.851
772.60	57.177
772.78	47.880
772.96	52.098
773.13	47.541
773.31	57.160
773.49	49.934
773.67	56.180
773.84	47.179
774.02	48.886
774.20	45.718
774.37	44.754
774.55	52.452
774.73	48.545
774.91	50.584
775.08	57.455
775.26	48.448
775.44	57.881
775.62	49.734
775.79	45.964
775.97	46.667
776.15	50.923
776.32	44.508
776.50	54.224
776.68	50.856
776.86	49.000
777.03	48.568
777.21	54.765
777.39	46.695
777.56	55.688
777.74	47.325
777.92	56.336
778.10	51.213
778.27	58.211
778.45	46.325
778.63	55.710
778.80	52.925
778.98	51.144
779.16	54.939
779.34	53.596
779.51	43.830
779.69	52.222
779.87	51.910
780.04	44.038
780.22	49.785
780.40	44.675
780.57	56.785
780.75	43.845
780.93	48.520
781.10	49.656
781.28	60.116
781.46	43.939
781.63	52.848
781.81	60.198
781.99	48.511
782.16	50.729
782.34	41.850
782.52	48.903
782.69	48.477
782.87	46.341
783.05	51.857
783.22	55.780
783.40	47.332
783.58	50.385
783.75	48.498
783.93	52.654
784.11	47.520
784.28	53.172
784.46	41.026
784.64	58.537
784.81	42.211
784.99	62.360
785.17	52.881
785.34	54.642
785.52	40.409
785.69	49.317
785.87	48.950
786.05	51.643
786.22	43.610
786.40	58.278
786.58	45.668
786.75	51.780
786.93	47.981
787.11	48.425
787.28	55.459
787.46	58.615
787.63	54.921
787.81	54.161
787.99	50.817
788.16	44.046
788.34	43.022
788.51	48.980
788.69	46.371
788.87	50.070
789.04	44.611
789.22	48.796
789.39	44.334
789.57	50.627
789.75	53.434
789.92	48.968
790.10	46.070
790.27	47.645
790.45	39.742
790.63	47.420
790.80	37.800
790.98	43.464
791.15	50.152
791.33	44.666
791.51	46.141
791.68	54.828
791.86	42.791
792.03	45.994
792.21	44.499
792.39	50.635
792.56	47.776
792.74	52.598
792.91	43.799
793.09	40.565
793.26	34.872
793.44	52.640
793.62	42.338
793.79	49.223
793.97	38.169
794.14	52.613
794.32	49.033
794.49	56.293
794.67	43.573
794.84	45.382
795.02	44.425
795.20	54.463
795.37	45.254
795.55	49.114
795.72	49.287
795.90	45.363
796.07	43.522
796.25	52.006
796.42	45.292
796.60	42.928
796.77	40.887
796.95	48.250
797.13	35.008
797.30	46.472
797.48	41.349
797.65	44.573
797.83	35.736
798.00	52.320
798.18	46.571
798.35	46.709
798.53	40.691
798.70	48.048
798.88	43.750
799.05	46.053
799.23	36.055
799.40	55.345
799.58	40.034
799.75	46.191
799.93	42.654
800.10	47.050
800.28	46.181
800.45	43.760
800.63	46.168
800.80	55.098
800.98	36.220
801.15	45.941
801.33	50.438
801.50	55.285
801.68	43.144
801.85	47.703
802.03	50.099
802.20	45.407
802.38	49.659
802.55	46.549
802.73	53.322
802.90	53.758
803.08	47.932
803.25	49.240
803.43	49.067
803.60	57.617
803.78	52.406
803.95	47.473
804.13	55.382
804.30	47.389
804.48	42.054
804.65	49.119
804.83	50.000
805.00	43.772
805.17	47.882
805.35	51.373
805.52	42.222
805.70	48.785
805.87	40.326
806.05	49.281
806.22	38.086
806.40	42.632
806.57	46.409
806.75	50.000
806.92	43.433
807.09	48.738
807.27	42.636
807.44	50.000
807.62	54.159
807.79	37.186
807.97	51.407
808.14	46.727
808.31	43.303
808.49	39.437
808.66	47.970
808.84	45.122
809.01	50.936
809.19	47.266
809.36	50.271
809.53	51.859
809.71	44.732
809.88	54.412
810.06	55.040
810.23	50.000
810.41	43.443
810.58	52.820
810.75	45.810
810.93	43.542
811.10	51.181
811.28	59.761
811.45	45.558
811.62	45.595
811.80	50.661
811.97	50.682
812.15	48.692
812.32	51.778
812.49	49.395
812.67	46.121
812.84	51.011
813.02	51.440
813.19	44.400
813.36	43.167
813.54	45.098
813.71	51.620
813.89	49.637
814.06	53.021
814.23	51.782
814.41	52.645
814.58	50.851
814.75	47.244
814.93	45.067
815.10	48.970
815.28	42.131
815.45	38.702
815.62	52.174
815.80	37.500
815.97	40.120
816.14	50.508
816.32	39.009
816.49	38.636
816.66	44.563
816.84	49.284
817.01	55.952
817.18	47.789
817.36	46.366
817.53	51.693
817.71	38.824
817.88	49.869
818.05	34.043
818.23	40.945
818.40	46.681
818.57	49.663
818.75	41.080
818.92	46.681
819.09	42.337
819.27	46.680
819.44	41.794
819.61	41.498
819.79	34.343
819.96	44.636
820.13	35.763
820.31	43.541
820.48	49.013
820.65	45.806
820.82	42.530
821.00	36.872
821.17	30.808
821.34	35.223
821.52	36.268
821.69	39.918
821.86	40.301
822.04	45.794
822.21	41.790
822.38	50.589
822.56	41.325
822.73	47.873
822.90	48.322
823.07	49.081
823.25	47.092
823.42	49.658
823.59	46.455
823.77	49.093
823.94	48.547
824.11	47.878
824.29	46.975
824.46	46.669
824.63	46.983
824.80	49.168
824.98	46.629
825.15	47.079
825.32	40.581
825.49	45.949
825.67	40.841
825.84	45.823
826.01	36.986
826.19	44.664
826.36	31.923
826.53	41.913
826.70	36.686
826.88	47.469
827.05	40.390
827.22	40.618
827.39	39.598
827.57	42.133
827.74	33.897
827.91	45.811
828.08	41.027
828.26	43.921
828.43	35.887
828.60	45.951
828.77	39.958
828.95	46.397
829.12	31.805
829.29	34.444
829.46	35.714
829.64	33.616
829.81	29.424
829.98	39.759
830.15	34.971
830.32	33.626
830.50	33.128
830.67	42.490
830.84	33.024
831.01	29.250
831.19	40.000
831.36	35.192
831.53	44.802
831.70	38.550
831.87	36.056
832.05	52.952
832.22	41.915
832.39	34.354
832.56	34.707
832.74	41.788
832.91	43.738
833.08	48.917
833.25	38.306
833.42	43.163
833.60	40.747
833.77	27.482
833.94	36.808
834.11	37.716
834.28	31.380
834.45	36.564
834.63	29.316
834.80	36.105
834.97	34.159
835.14	38.798
835.31	39.039
835.49	37.376
835.66	32.620
835.83	31.758
836.00	38.615
836.17	34.106
836.34	36.386
836.52	38.846
836.69	39.307
836.86	44.816
837.03	44.128
837.20	35.985
837.37	36.789
837.55	30.813
837.72	43.762
837.89	44.196
838.06	43.961
838.23	54.737
838.40	33.976
838.58	38.940
838.75	48.466
838.92	40.000
839.09	67.405
839.26	55.493
839.43	70.139
839.60	45.981
839.78	58.075
839.95	45.536
840.12	62.573
840.29	52.355
840.46	59.502
840.63	47.922
840.80	49.340
840.98	66.391
841.15	51.015
841.32	53.911
841.49	41.598
841.66	52.432
841.83	38.298
842.00	51.275
842.17	56.425
842.34	51.253
842.52	54.848
842.69	44.620
842.86	49.451
843.03	60.129
843.20	55.331
843.37	61.508
843.54	61.433
843.71	50.417
843.88	56.934
844.06	78.814
844.23	75.424
844.40	64.831
844.57	71.488
844.74	57.759
844.91	101.990
845.08	93.785
845.25	75.532
845.42	92.179
845.59	77.869
845.76	76.882
845.94	76.667
846.11	77.228
846.28	70.518
846.45	86.022
846.62	90.500
846.79	74.684
846.96	65.934
847.13	91.848
847.30	45.763
847.47	84.021
847.64	60.816
847.81	103.676
847.98	77.838
848.15	78.771
848.32	91.710
848.50	64.000
848.67	68.047
848.84	71.006
849.01	84.892
849.18	99.412
849.35	80.952
849.52	75.132
849.69	83.516
849.86	103.378
850.03	95.868
850.20	122.000
850.37	77.647
850.54	111.170
850.71	95.312
850.88	93.548
851.05	101.087
851.22	90.361
851.39	110.160
851.56	117.241
851.73	109.524
851.90	93.464
852.07	74.854
852.24	105.229
852.41	79.188
852.58	91.803
852.75	95.349
852.92	64.088
853.09	94.118
853.26	85.621
853.43	81.765
853.60	114.286
853.77	92.737
853.94	100.000
854.11	71.111
854.28	109.722
854.45	98.701
854.62	90.116
854.79	89.091
854.96	126.389
855.13	89.308
855.30	108.759
855.47	108.871
855.64	61.491
855.81	125.180
855.98	103.053
856.15	122.308
856.32	89.573
856.49	77.966
856.66	95.513
856.83	57.233
857.00	76.230
857.17	89.516
857.34	91.304
857.51	88.732
857.68	93.367
857.85	107.647
858.02	84.354
858.19	82.320
858.36	106.897
858.53	55.030
858.70	85.714
858.87	106.897
859.04	74.118
859.21	94.697
859.38	84.793
859.55	94.886
859.72	102.083
859.89	134.266
860.05	116.547
860.22	98.788
860.39	113.793
860.56	93.452
860.73	107.738
860.90	85.030
861.07	101.000
861.24	88.971
861.41	89.595
861.58	104.545
861.75	102.362
861.92	78.750
862.09	102.010
862.26	106.452
862.43	103.333
862.59	82.895
862.76	108.808
862.93	146.154
863.10	127.941
863.27	85.385
863.44	109.756
863.61	91.304
863.78	92.513
863.95	94.512
864.12	144.872
864.29	111.017
864.45	48.428
864.62	84.553
864.79	74.706
864.96	127.885
865.13	79.562
865.30	120.408
865.47	86.897
865.64	119.580
865.81	119.298
865.97	59.119
866.14	69.519
866.31	92.623
866.48	86.620
866.65	88.344
866.82	92.617
866.99	117.143
867.16	113.178
867.33	94.326
867.49	109.639
867.66	99.254
867.83	73.214
868.00	102.151
868.17	105.344
868.34	129.921
868.51	103.521
868.67	90.476
868.84	95.556
869.01	83.448
869.18	109.600
869.35	92.908
869.52	91.241
869.69	117.164
869.85	104.730
870.02	85.870
870.19	101.538
870.36	118.705
870.53	129.762
870.70	128.571
870.86	99.351
871.03	105.839
871.20	102.521
871.37	113.609
871.54	93.396
871.71	108.333
871.87	106.186
872.04	61.875
872.21	107.576
872.38	134.940
872.55	96.429
872.72	68.841
872.88	90.000
873.05	92.513
873.22	160.000
873.39	89.024
873.56	62.590
873.72	106.630
873.89	82.166
874.06	139.344
874.23	113.768
874.40	87.200
874.56	103.788
874.73	141.667
874.90	85.616
875.07	78.626
875.24	103.659
875.40	115.179
875.57	109.524
875.74	93.125
875.91	119.048
876.08	93.571
876.24	123.718
876.41	107.519
876.58	97.080
876.75	98.065
876.92	123.077
877.08	102.190
877.25	109.740
877.42	97.692
877.59	116.867
877.75	87.264
877.92	93.605
878.09	86.842
878.26	86.986
878.42	94.815
878.59	96.023
878.76	71.429
878.93	97.351
879.09	97.279
879.26	98.077
879.43	94.792
879.60	89.697
879.76	62.564
879.93	53.807
880.10	53.023
880.27	72.444
880.43	68.367
880.60	70.423
880.77	62.745
880.94	55.000
881.10	52.414
881.27	50.000
881.44	41.649
881.61	44.266
881.77	42.620
881.94	31.546
882.11	32.396
882.28	31.250
882.44	25.917
882.61	33.804
882.78	27.215
882.94	43.636
883.11	33.299
883.28	30.588
883.45	35.257
883.61	32.686
883.78	33.841
883.95	33.681
884.11	34.362
884.28	30.116
>>>>>End Processed Spectral Data<<<<<
