SpectraSuite Data File
++++++++++++++++++++++++++++++++++++
Date: Thu Sep 19 03:15:37 EST 2019
User: sgrac
Dark Spectrum Present: Yes
Reference Spectrum Present: Yes
Number of Sampled Component Spectra: 1
Spectrometers: USB4E01596
Integration Time (usec): 100000 (USB4E01596)
Spectra Averaged: 1 (USB4E01596)
Boxcar Smoothing: 0 (USB4E01596)
Correct for Electrical Dark: No (USB4E01596)
Strobe/Lamp Enabled: Yes (USB4E01596)
Correct for Detector Non-linearity: No (USB4E01596)
Correct for Stray Light: No (USB4E01596)
Number of Pixels in Processed Spectrum: 3648
>>>>>Begin Processed Spectral Data<<<<<
178.44	1085.714
178.66	1085.714
178.87	1085.714
179.09	-718.182
179.30	185.714
179.52	1814.286
179.74	-666.667
179.95	595.238
180.17	1418.182
180.38	268.657
180.60	0.000
180.82	696.774
181.03	257.407
181.25	3650.000
181.46	946.154
181.68	-279.070
181.89	1392.857
182.11	579.167
182.33	611.111
182.54	1441.667
182.76	711.111
182.97	-546.429
183.19	350.000
183.40	314.545
183.62	419.048
183.84	1512.500
184.05	1173.333
184.27	-4650.000
184.48	206.349
184.70	6200.000
184.91	530.769
185.13	311.268
185.34	-184.615
185.56	588.889
185.78	396.154
185.99	-3725.000
186.21	-1272.727
186.42	-275.000
186.64	800.000
186.85	-6300.000
187.07	618.182
187.28	992.857
187.50	495.455
187.72	477.778
187.93	861.111
188.15	768.421
188.36	876.471
188.58	415.385
188.79	2416.667
189.01	620.833
189.22	2740.000
189.44	785.000
189.65	-5700.000
189.87	4150.000
190.09	776.471
190.30	1628.571
190.52	1091.667
190.73	-526.923
190.95	388.636
191.16	575.000
191.38	408.333
191.59	-1281.818
191.81	759.091
192.02	1133.333
192.24	665.385
192.45	1637.500
192.67	2566.667
192.88	-381.481
193.10	-16000.000
193.31	477.143
193.53	-709.524
193.74	-3100.000
193.96	1700.000
194.18	937.500
194.39	434.146
194.61	826.316
194.82	1300.000
195.04	604.000
195.25	4400.000
195.47	373.684
195.68	676.471
195.90	365.116
196.11	376.923
196.33	-1988.889
196.54	-552.632
196.76	536.364
196.97	1744.444
197.19	-13300.000
197.40	1300.000
197.62	2066.667
197.83	1200.000
198.05	528.571
198.26	402.500
198.48	382.353
198.69	-1366.667
198.91	483.333
199.12	520.000
199.34	-1971.429
199.55	235.088
199.77	360.870
199.98	-1154.545
200.20	695.000
200.41	8200.000
200.63	517.857
200.84	742.857
201.06	-1284.615
201.27	-2060.000
201.49	1266.667
201.70	656.250
201.91	-8250.000
202.13	768.421
202.34	393.478
202.56	6500.000
202.77	931.250
202.99	360.000
203.20	533.333
203.42	-2342.857
203.63	2816.667
203.85	611.111
204.06	682.609
204.28	1225.000
204.49	-1180.000
204.71	434.146
204.92	466.667
205.14	360.000
205.35	261.429
205.56	2233.333
205.78	709.091
205.99	-1240.000
206.21	595.652
206.42	264.407
206.64	-2283.333
206.85	647.619
207.07	805.263
207.28	-3240.000
207.50	331.481
207.71	787.500
207.93	339.583
208.14	618.519
208.35	788.235
208.57	-524.000
208.78	-348.780
209.00	369.767
209.21	447.619
209.43	644.000
209.64	10200.000
209.86	514.286
210.07	458.621
210.28	-976.923
210.50	700.000
210.71	840.000
210.93	393.750
211.14	275.714
211.36	373.913
211.57	760.000
211.78	435.897
212.00	946.667
212.21	952.941
212.43	826.667
212.64	550.000
212.86	232.051
213.07	541.379
213.29	606.667
213.50	487.097
213.71	443.333
213.93	2071.429
214.14	805.882
214.36	1862.500
214.57	256.338
214.78	1073.333
215.00	936.842
215.21	738.889
215.43	205.063
215.64	607.407
215.86	886.667
216.07	900.000
216.28	337.778
216.50	7250.000
216.71	-12700.000
216.93	685.185
217.14	298.485
217.35	462.857
217.57	2525.000
217.78	354.286
218.00	3666.667
218.21	545.833
218.42	300.000
218.64	-7450.000
218.85	376.471
219.07	1785.714
219.28	221.311
219.49	-916.667
219.71	1087.500
219.92	232.432
220.14	1500.000
220.35	363.636
220.56	823.077
220.78	268.421
220.99	511.429
221.21	150.515
221.42	652.174
221.63	5500.000
221.85	625.000
222.06	505.000
222.28	212.000
222.49	-1366.667
222.70	250.000
222.92	-8100.000
223.13	376.316
223.34	222.826
223.56	1225.000
223.77	222.059
223.99	377.778
224.20	191.667
224.41	245.333
224.63	7600.000
224.84	5133.333
225.05	930.769
225.27	364.103
225.48	313.333
225.69	188.235
225.91	276.563
226.12	213.043
226.34	428.125
226.55	235.294
226.76	280.392
226.98	201.136
227.19	167.949
227.40	332.000
227.62	216.438
227.83	124.107
228.04	137.662
228.26	118.750
228.47	107.500
228.69	101.471
228.90	81.548
229.11	52.402
229.33	69.378
229.54	72.614
229.75	65.018
229.97	51.524
230.18	55.482
230.39	37.626
230.61	44.027
230.82	49.834
231.03	50.955
231.25	65.436
231.46	42.857
231.67	55.472
231.89	46.825
232.10	52.830
232.31	72.321
232.53	71.560
232.74	39.908
232.95	66.176
233.17	74.359
233.38	53.684
233.59	79.213
233.81	80.864
234.02	89.143
234.23	68.041
234.45	80.455
234.66	76.437
234.87	80.814
235.09	74.468
235.30	78.641
235.51	62.332
235.73	60.606
235.94	61.161
236.15	58.209
236.36	66.222
236.58	55.502
236.79	52.586
237.00	55.020
237.22	89.947
237.43	69.650
237.64	71.429
237.86	68.396
238.07	69.328
238.28	68.898
238.50	55.981
238.71	73.575
238.92	61.321
239.13	72.581
239.35	62.656
239.56	62.222
239.77	78.689
239.99	43.952
240.20	70.817
240.41	64.173
240.63	43.284
240.84	39.823
241.05	42.905
241.26	42.297
241.48	35.780
241.69	36.585
241.90	26.897
242.12	24.131
242.33	28.598
242.54	25.378
242.75	24.747
242.97	27.054
243.18	16.545
243.39	15.144
243.61	22.339
243.82	22.316
244.03	18.989
244.24	15.254
244.46	22.752
244.67	24.686
244.88	17.322
245.09	29.208
245.31	28.852
245.52	18.881
245.73	35.702
245.95	43.056
246.16	32.679
246.37	28.956
246.58	25.538
246.80	20.061
247.01	22.277
247.22	15.589
247.43	16.603
247.65	13.649
247.86	12.461
248.07	10.844
248.28	10.496
248.50	12.101
248.71	7.867
248.92	7.303
249.13	9.868
249.35	7.274
249.56	8.857
249.77	10.747
249.98	12.263
250.20	13.846
250.41	19.845
250.62	20.885
250.83	13.630
251.05	20.954
251.26	26.307
251.47	25.116
251.68	22.945
251.90	25.123
252.11	23.960
252.32	23.702
252.53	21.114
252.75	25.980
252.96	25.000
253.17	14.474
253.38	21.315
253.59	18.148
253.81	22.080
254.02	17.720
254.23	14.440
254.44	22.429
254.66	19.771
254.87	27.458
255.08	22.202
255.29	31.679
255.50	27.495
255.72	21.765
255.93	31.839
256.14	36.638
256.35	23.666
256.57	32.187
256.78	30.702
256.99	31.530
257.20	34.864
257.41	32.577
257.63	29.135
257.84	21.822
258.05	22.797
258.26	26.527
258.47	27.258
258.69	20.760
258.90	21.274
259.11	20.026
259.32	17.675
259.53	16.393
259.75	14.043
259.96	11.817
260.17	11.486
260.38	9.559
260.59	9.763
260.81	7.340
261.02	9.217
261.23	7.914
261.44	7.241
261.65	7.755
261.87	9.030
262.08	10.163
262.29	11.925
262.50	7.977
262.71	8.549
262.92	11.311
263.14	12.143
263.35	8.756
263.56	15.158
263.77	16.132
263.98	18.011
264.20	22.722
264.41	14.232
264.62	17.640
264.83	13.780
265.04	24.536
265.25	20.463
265.47	14.939
265.68	18.828
265.89	22.685
266.10	13.141
266.31	19.199
266.52	18.765
266.74	24.758
266.95	11.182
267.16	13.728
267.37	22.283
267.58	13.576
267.79	15.325
268.01	18.762
268.22	13.124
268.43	14.286
268.64	13.174
268.85	9.590
269.06	14.970
269.27	13.850
269.49	19.162
269.70	12.524
269.91	10.909
270.12	14.562
270.33	15.164
270.54	16.667
270.75	18.267
270.97	12.324
271.18	11.018
271.39	15.326
271.60	12.568
271.81	12.266
272.02	10.543
272.23	11.602
272.45	9.624
272.66	8.945
272.87	14.031
273.08	8.373
273.29	12.006
273.50	8.693
273.71	11.654
273.92	9.447
274.14	5.318
274.35	11.220
274.56	13.757
274.77	11.047
274.98	11.716
275.19	8.922
275.40	10.633
275.61	11.893
275.83	16.148
276.04	9.556
276.25	10.394
276.46	10.360
276.67	13.754
276.88	13.884
277.09	15.746
277.30	14.395
277.51	15.538
277.73	14.336
277.94	12.478
278.15	12.195
278.36	15.169
278.57	12.900
278.78	12.788
278.99	11.961
279.20	12.637
279.41	10.731
279.62	11.814
279.84	12.579
280.05	10.708
280.26	13.143
280.47	15.917
280.68	13.116
280.89	12.154
281.10	12.269
281.31	10.659
281.52	12.020
281.73	9.557
281.94	10.085
282.16	11.185
282.37	10.316
282.58	9.275
282.79	11.495
283.00	10.973
283.21	10.414
283.42	8.714
283.63	10.896
283.84	9.562
284.05	11.111
284.26	10.576
284.47	10.575
284.68	9.387
284.89	9.139
285.11	10.132
285.32	4.625
285.53	12.349
285.74	12.119
285.95	7.482
286.16	10.529
286.37	8.239
286.58	10.153
286.79	8.856
287.00	8.577
287.21	6.562
287.42	9.685
287.63	8.714
287.84	9.959
288.05	9.086
288.26	10.114
288.48	8.886
288.69	6.611
288.90	10.074
289.11	10.343
289.32	10.081
289.53	6.332
289.74	9.837
289.95	10.276
290.16	13.527
290.37	8.213
290.58	9.319
290.79	7.972
291.00	8.396
291.21	10.565
291.42	8.804
291.63	8.801
291.84	9.147
292.05	8.966
292.26	6.861
292.47	9.774
292.68	9.816
292.89	8.402
293.10	8.545
293.31	10.317
293.52	10.770
293.73	9.974
293.94	9.784
294.15	10.147
294.36	4.449
294.57	13.949
294.79	7.607
295.00	7.717
295.21	8.743
295.42	9.975
295.63	10.699
295.84	5.858
296.05	8.045
296.26	9.890
296.47	6.800
296.68	7.423
296.89	11.882
297.10	8.604
297.31	8.958
297.52	6.943
297.73	5.266
297.94	6.499
298.15	5.979
298.36	5.420
298.57	6.821
298.78	8.041
298.99	3.586
299.20	5.978
299.41	7.218
299.62	6.142
299.83	7.987
300.04	7.954
300.25	8.933
300.46	8.140
300.67	10.202
300.88	9.076
301.09	7.941
301.30	9.611
301.50	9.944
301.71	13.492
301.92	8.691
302.13	9.935
302.34	9.609
302.55	9.805
302.76	8.410
302.97	6.416
303.18	10.042
303.39	11.324
303.60	8.758
303.81	8.662
304.02	11.361
304.23	6.794
304.44	13.561
304.65	7.971
304.86	8.434
305.07	8.749
305.28	7.849
305.49	10.171
305.70	11.364
305.91	8.786
306.12	9.375
306.33	9.443
306.54	9.396
306.75	9.102
306.96	12.609
307.17	8.072
307.38	9.413
307.58	6.549
307.79	9.033
308.00	10.857
308.21	11.269
308.42	11.140
308.63	10.547
308.84	7.506
309.05	7.813
309.26	9.188
309.47	10.056
309.68	5.003
309.89	8.413
310.10	8.342
310.31	6.559
310.52	5.239
310.73	9.919
310.94	7.009
311.14	6.895
311.35	7.434
311.56	5.204
311.77	7.150
311.98	7.936
312.19	6.539
312.40	10.473
312.61	5.722
312.82	6.719
313.03	5.553
313.24	8.195
313.45	8.943
313.66	7.337
313.86	8.422
314.07	6.797
314.28	10.883
314.49	8.679
314.70	9.070
314.91	12.317
315.12	9.397
315.33	11.816
315.54	8.696
315.75	7.179
315.96	7.526
316.16	9.532
316.37	8.258
316.58	9.714
316.79	8.803
317.00	9.358
317.21	8.664
317.42	8.270
317.63	7.189
317.84	9.194
318.05	8.670
318.25	10.942
318.46	6.988
318.67	9.150
318.88	8.944
319.09	9.274
319.30	7.383
319.51	7.561
319.72	8.547
319.93	9.597
320.13	10.417
320.34	9.595
320.55	7.586
320.76	7.754
320.97	6.968
321.18	9.810
321.39	10.334
321.60	9.697
321.80	11.517
322.01	8.592
322.22	10.325
322.43	10.833
322.64	6.802
322.85	9.944
323.06	9.051
323.27	10.629
323.47	9.346
323.68	8.984
323.89	7.896
324.10	10.335
324.31	7.447
324.52	6.282
324.73	8.852
324.93	8.381
325.14	7.458
325.35	7.278
325.56	7.537
325.77	8.753
325.98	10.201
326.19	8.233
326.39	7.089
326.60	8.878
326.81	7.220
327.02	8.548
327.23	6.510
327.44	9.695
327.64	6.548
327.85	6.881
328.06	8.800
328.27	9.611
328.48	9.254
328.69	7.124
328.90	8.508
329.10	9.607
329.31	8.456
329.52	7.448
329.73	10.051
329.94	10.011
330.15	9.584
330.35	8.090
330.56	9.334
330.77	7.135
330.98	8.535
331.19	7.300
331.39	9.813
331.60	8.076
331.81	5.034
332.02	9.983
332.23	8.913
332.44	7.276
332.64	9.235
332.85	7.009
333.06	9.769
333.27	8.287
333.48	9.398
333.68	7.981
333.89	9.373
334.10	9.076
334.31	8.568
334.52	7.893
334.72	6.047
334.93	8.243
335.14	8.651
335.35	8.666
335.56	9.681
335.76	6.142
335.97	7.429
336.18	6.524
336.39	10.504
336.60	10.106
336.80	9.420
337.01	8.185
337.22	6.548
337.43	10.330
337.64	7.711
337.84	9.324
338.05	8.530
338.26	11.872
338.47	8.359
338.68	8.458
338.88	6.280
339.09	7.719
339.30	6.317
339.51	8.156
339.71	9.895
339.92	7.429
340.13	9.029
340.34	7.708
340.55	5.963
340.75	11.094
340.96	8.216
341.17	8.988
341.38	9.319
341.58	7.866
341.79	6.000
342.00	7.917
342.21	9.568
342.41	6.309
342.62	7.969
342.83	8.909
343.04	7.562
343.24	8.846
343.45	8.673
343.66	9.119
343.87	6.790
344.07	6.895
344.28	8.442
344.49	7.797
344.70	7.934
344.90	6.664
345.11	7.501
345.32	6.364
345.53	8.658
345.73	7.492
345.94	7.341
346.15	8.548
346.36	5.668
346.56	6.576
346.77	8.395
346.98	9.054
347.19	8.113
347.39	6.565
347.60	7.587
347.81	8.290
348.02	8.213
348.22	7.481
348.43	8.580
348.64	8.661
348.84	6.822
349.05	8.997
349.26	9.708
349.47	8.404
349.67	9.491
349.88	8.497
350.09	8.871
350.30	10.703
350.50	10.057
350.71	8.841
350.92	10.645
351.12	7.421
351.33	9.504
351.54	7.932
351.74	7.801
351.95	8.746
352.16	7.218
352.37	11.005
352.57	8.510
352.78	9.047
352.99	9.836
353.19	10.312
353.40	9.284
353.61	13.242
353.82	9.160
354.02	10.490
354.23	8.466
354.44	9.517
354.64	7.595
354.85	10.137
355.06	9.957
355.26	10.359
355.47	9.178
355.68	11.767
355.88	10.346
356.09	10.032
356.30	9.625
356.51	11.992
356.71	8.704
356.92	9.962
357.13	10.579
357.33	12.670
357.54	11.941
357.75	8.687
357.95	11.099
358.16	9.130
358.37	12.224
358.57	8.693
358.78	11.651
358.99	11.550
359.19	9.066
359.40	11.816
359.61	10.065
359.81	11.849
360.02	15.186
360.23	9.448
360.43	11.396
360.64	9.404
360.85	9.934
361.05	8.380
361.26	12.718
361.47	12.008
361.67	13.765
361.88	7.967
362.09	10.291
362.29	8.958
362.50	9.060
362.70	7.731
362.91	11.895
363.12	9.834
363.32	10.572
363.53	10.830
363.74	12.868
363.94	8.289
364.15	13.754
364.36	11.455
364.56	10.923
364.77	10.855
364.98	15.152
365.18	11.885
365.39	14.176
365.59	9.284
365.80	8.569
366.01	12.715
366.21	7.911
366.42	9.151
366.63	12.240
366.83	8.538
367.04	8.272
367.24	13.654
367.45	9.739
367.66	8.619
367.86	10.443
368.07	11.136
368.28	9.194
368.48	8.615
368.69	7.888
368.89	10.238
369.10	10.907
369.31	10.463
369.51	9.899
369.72	13.594
369.92	13.749
370.13	9.669
370.34	11.490
370.54	7.600
370.75	12.171
370.95	8.447
371.16	11.235
371.37	9.544
371.57	8.730
371.78	9.069
371.98	12.575
372.19	11.108
372.40	11.339
372.60	10.785
372.81	8.673
373.01	8.479
373.22	9.276
373.43	11.600
373.63	13.244
373.84	10.498
374.04	11.208
374.25	10.368
374.46	11.664
374.66	10.640
374.87	11.658
375.07	8.002
375.28	9.135
375.48	9.785
375.69	12.025
375.90	7.463
376.10	7.853
376.31	8.966
376.51	7.118
376.72	8.477
376.92	6.393
377.13	10.370
377.34	11.856
377.54	9.779
377.75	12.352
377.95	9.815
378.16	10.064
378.36	10.255
378.57	10.704
378.77	9.727
378.98	9.207
379.19	9.228
379.39	9.405
379.60	10.428
379.80	8.699
380.01	11.016
380.21	9.485
380.42	10.680
380.62	8.902
380.83	10.892
381.04	9.543
381.24	10.796
381.45	10.000
381.65	8.178
381.86	9.382
382.06	11.281
382.27	7.428
382.47	8.174
382.68	11.530
382.88	6.787
383.09	8.357
383.29	8.966
383.50	11.466
383.71	10.464
383.91	7.702
384.12	7.752
384.32	10.172
384.53	9.582
384.73	7.680
384.94	7.382
385.14	9.216
385.35	7.619
385.55	9.813
385.76	9.209
385.96	9.936
386.17	10.773
386.37	9.300
386.58	7.645
386.78	11.707
386.99	7.927
387.19	11.507
387.40	7.939
387.60	11.211
387.81	7.927
388.01	8.575
388.22	10.284
388.42	9.836
388.63	10.827
388.83	11.654
389.04	8.116
389.24	9.514
389.45	8.203
389.65	8.698
389.86	9.185
390.06	7.315
390.27	8.090
390.47	9.635
390.68	8.583
390.88	10.761
391.09	10.616
391.29	9.401
391.50	9.344
391.70	9.869
391.91	8.775
392.11	10.244
392.32	10.290
392.52	11.165
392.73	9.935
392.93	10.350
393.14	8.846
393.34	10.335
393.55	9.685
393.75	9.713
393.95	9.766
394.16	11.125
394.36	10.407
394.57	10.581
394.77	10.683
394.98	8.516
395.18	10.319
395.39	10.458
395.59	9.682
395.80	9.277
396.00	9.354
396.21	11.118
396.41	7.847
396.61	12.643
396.82	9.481
397.02	11.767
397.23	10.143
397.43	9.802
397.64	9.569
397.84	10.840
398.05	8.146
398.25	9.867
398.45	8.868
398.66	9.906
398.86	9.299
399.07	11.604
399.27	8.240
399.48	10.560
399.68	9.106
399.89	9.429
400.09	9.282
400.29	9.601
400.50	9.187
400.70	11.036
400.91	7.684
401.11	9.091
401.32	10.627
401.52	7.359
401.72	9.051
401.93	12.051
402.13	9.608
402.34	9.805
402.54	7.660
402.75	12.671
402.95	8.653
403.15	11.519
403.36	8.729
403.56	11.015
403.77	9.277
403.97	9.825
404.17	9.036
404.38	10.316
404.58	8.609
404.79	9.936
404.99	10.038
405.19	8.508
405.40	9.531
405.60	9.787
405.81	9.101
406.01	9.709
406.21	9.021
406.42	10.020
406.62	9.488
406.83	10.906
407.03	11.673
407.23	8.940
407.44	8.553
407.64	9.677
407.85	9.603
408.05	10.701
408.25	8.486
408.46	11.236
408.66	9.030
408.87	9.494
409.07	7.993
409.27	8.410
409.48	9.591
409.68	10.312
409.88	6.958
410.09	10.071
410.29	9.295
410.50	10.637
410.70	7.837
410.90	8.994
411.11	7.996
411.31	8.785
411.51	8.837
411.72	10.834
411.92	8.785
412.12	9.144
412.33	8.478
412.53	8.460
412.74	7.439
412.94	10.397
413.14	7.555
413.35	8.430
413.55	8.691
413.75	9.559
413.96	6.439
414.16	9.087
414.36	9.681
414.57	10.169
414.77	7.709
414.97	8.944
415.18	7.323
415.38	8.864
415.58	9.648
415.79	8.408
415.99	8.477
416.19	10.374
416.40	9.121
416.60	9.241
416.80	9.424
417.01	10.037
417.21	7.151
417.41	11.566
417.62	9.300
417.82	10.292
418.02	7.842
418.23	9.879
418.43	8.673
418.63	9.452
418.84	10.155
419.04	8.880
419.24	10.734
419.45	10.586
419.65	10.759
419.85	10.801
420.06	9.565
420.26	10.336
420.46	9.962
420.67	11.107
420.87	10.862
421.07	10.864
421.28	10.009
421.48	11.678
421.68	10.151
421.88	11.574
422.09	11.301
422.29	11.332
422.49	10.238
422.70	10.912
422.90	10.694
423.10	10.887
423.31	10.807
423.51	11.945
423.71	9.919
423.91	11.362
424.12	11.003
424.32	11.267
424.52	10.804
424.73	10.339
424.93	11.047
425.13	10.849
425.33	10.112
425.54	11.152
425.74	10.395
425.94	11.219
426.15	10.583
426.35	11.078
426.55	10.716
426.75	11.513
426.96	10.593
427.16	10.685
427.36	11.189
427.57	11.375
427.77	10.943
427.97	10.630
428.17	11.070
428.38	11.439
428.58	7.552
428.78	10.518
428.98	8.966
429.19	9.994
429.39	8.177
429.59	10.403
429.79	7.757
430.00	8.755
430.20	8.125
430.40	9.092
430.60	8.727
430.81	10.235
431.01	8.631
431.21	9.938
431.41	7.590
431.62	9.606
431.82	9.085
432.02	11.203
432.22	8.578
432.43	9.547
432.63	8.477
432.83	9.801
433.03	9.746
433.24	9.712
433.44	8.965
433.64	11.423
433.84	9.223
434.05	10.945
434.25	9.321
434.45	10.574
434.65	11.409
434.85	11.908
435.06	10.810
435.26	11.343
435.46	10.516
435.66	11.274
435.87	10.251
436.07	10.547
436.27	10.209
436.47	10.401
436.67	10.258
436.88	10.722
437.08	11.065
437.28	11.058
437.48	9.635
437.69	11.259
437.89	9.742
438.09	12.568
438.29	9.425
438.49	11.685
438.70	11.092
438.90	10.850
439.10	10.800
439.30	11.157
439.50	9.592
439.71	11.099
439.91	10.195
440.11	11.798
440.31	11.572
440.51	11.132
440.72	11.080
440.92	11.130
441.12	11.717
441.32	11.880
441.52	11.631
441.72	11.910
441.93	11.211
442.13	12.391
442.33	11.528
442.53	12.732
442.73	10.939
442.94	11.553
443.14	11.946
443.34	12.732
443.54	11.911
443.74	12.125
443.94	10.888
444.15	12.105
444.35	10.696
444.55	12.561
444.75	11.055
444.95	12.154
445.15	11.694
445.36	11.855
445.56	10.301
445.76	11.911
445.96	11.117
446.16	11.749
446.36	11.479
446.57	11.931
446.77	10.970
446.97	11.736
447.17	12.014
447.37	12.354
447.57	12.251
447.77	12.319
447.98	11.381
448.18	12.169
448.38	12.056
448.58	12.387
448.78	12.743
448.98	12.273
449.18	12.066
449.39	13.015
449.59	12.041
449.79	12.631
449.99	11.542
450.19	12.735
450.39	12.157
450.59	12.466
450.79	11.971
451.00	11.788
451.20	12.839
451.40	12.329
451.60	11.386
451.80	12.544
452.00	11.395
452.20	11.538
452.40	11.447
452.61	12.172
452.81	10.885
453.01	12.036
453.21	10.977
453.41	11.991
453.61	10.928
453.81	11.448
454.01	11.120
454.21	12.472
454.42	12.249
454.62	12.575
454.82	11.408
455.02	11.681
455.22	10.869
455.42	12.113
455.62	10.086
455.82	12.190
456.02	10.878
456.23	12.151
456.43	11.274
456.63	11.231
456.83	9.941
457.03	12.011
457.23	11.253
457.43	12.074
457.63	10.787
457.83	11.575
458.03	10.896
458.23	12.046
458.43	11.238
458.64	12.229
458.84	11.280
459.04	11.687
459.24	11.200
459.44	11.705
459.64	11.844
459.84	11.104
460.04	11.202
460.24	11.677
460.44	11.675
460.64	12.002
460.84	12.136
461.04	12.045
461.24	12.294
461.45	11.977
461.65	12.601
461.85	12.944
462.05	12.351
462.25	12.771
462.45	12.451
462.65	12.989
462.85	11.403
463.05	13.025
463.25	11.721
463.45	12.654
463.65	11.673
463.85	12.204
464.05	11.844
464.25	12.023
464.45	11.943
464.65	12.288
464.85	11.253
465.05	11.700
465.26	11.600
465.46	12.144
465.66	12.512
465.86	12.322
466.06	11.774
466.26	12.429
466.46	11.068
466.66	11.407
466.86	11.087
467.06	12.778
467.26	11.291
467.46	13.138
467.66	11.365
467.86	11.853
468.06	11.266
468.26	11.808
468.46	11.902
468.66	12.738
468.86	10.911
469.06	12.943
469.26	11.003
469.46	12.213
469.66	11.288
469.86	12.743
470.06	11.227
470.26	12.721
470.46	11.708
470.66	12.041
470.86	11.847
471.06	11.921
471.26	11.387
471.46	11.362
471.66	11.965
471.86	12.208
472.06	11.631
472.26	13.245
472.46	12.660
472.66	13.186
472.86	11.729
473.06	12.436
473.26	11.689
473.46	11.947
473.66	11.691
473.86	12.808
474.06	10.965
474.26	12.864
474.46	11.884
474.66	12.694
474.86	11.798
475.06	12.928
475.26	11.927
475.46	14.198
475.66	11.848
475.86	13.128
476.06	13.092
476.26	13.111
476.46	11.971
476.66	13.388
476.86	11.234
477.06	12.523
477.26	12.397
477.46	13.193
477.65	13.331
477.85	13.577
478.05	12.034
478.25	13.878
478.45	12.652
478.65	13.586
478.85	13.362
479.05	13.981
479.25	12.699
479.45	14.145
479.65	12.847
479.85	13.242
480.05	13.849
480.25	13.747
480.45	14.197
480.65	13.910
480.85	13.532
481.05	13.817
481.25	13.974
481.44	14.679
481.64	13.580
481.84	13.792
482.04	13.531
482.24	13.438
482.44	13.384
482.64	13.927
482.84	13.452
483.04	13.553
483.24	13.238
483.44	12.602
483.64	12.730
483.84	12.504
484.04	13.043
484.23	13.463
484.43	13.594
484.63	14.300
484.83	15.106
485.03	16.060
485.23	15.645
485.43	15.801
485.63	15.870
485.83	15.063
486.03	14.435
486.23	14.845
486.42	14.637
486.62	14.845
486.82	13.942
487.02	14.346
487.22	13.699
487.42	13.793
487.62	13.812
487.82	13.500
488.02	13.713
488.22	13.851
488.41	14.317
488.61	13.858
488.81	14.145
489.01	14.235
489.21	14.869
489.41	14.483
489.61	14.403
489.81	14.715
490.01	14.981
490.20	14.928
490.40	14.594
490.60	15.045
490.80	14.524
491.00	14.246
491.20	14.068
491.40	14.326
491.60	13.805
491.79	13.984
491.99	13.902
492.19	14.072
492.39	14.222
492.59	14.206
492.79	14.118
492.99	14.223
493.19	14.485
493.38	14.419
493.58	15.284
493.78	15.096
493.98	14.844
494.18	15.465
494.38	14.855
494.58	14.774
494.77	15.420
494.97	15.255
495.17	14.105
495.37	14.951
495.57	14.330
495.77	14.928
495.96	15.038
496.16	14.764
496.36	14.544
496.56	14.363
496.76	14.529
496.96	14.601
497.15	14.433
497.35	14.420
497.55	15.062
497.75	14.625
497.95	14.659
498.15	14.460
498.34	14.832
498.54	14.566
498.74	15.202
498.94	15.336
499.14	14.998
499.34	15.099
499.53	14.820
499.73	15.172
499.93	14.685
500.13	14.938
500.33	14.798
500.52	14.628
500.72	15.174
500.92	15.583
501.12	15.098
501.32	15.645
501.52	15.102
501.71	15.080
501.91	14.968
502.11	15.281
502.31	15.009
502.51	15.284
502.70	15.115
502.90	14.900
503.10	14.427
503.30	15.022
503.50	14.335
503.69	14.876
503.89	14.856
504.09	15.071
504.29	15.558
504.48	15.281
504.68	14.639
504.88	15.491
505.08	14.935
505.28	15.925
505.47	14.977
505.67	15.719
505.87	15.109
506.07	15.358
506.27	15.333
506.46	15.824
506.66	15.075
506.86	16.112
507.06	15.801
507.25	15.451
507.45	15.524
507.65	15.338
507.85	15.592
508.04	15.920
508.24	16.140
508.44	15.945
508.64	15.594
508.83	15.889
509.03	14.909
509.23	15.700
509.43	14.942
509.63	15.708
509.82	15.422
510.02	15.683
510.22	15.681
510.42	15.412
510.61	15.588
510.81	15.892
511.01	15.703
511.21	16.444
511.40	15.949
511.60	15.658
511.80	15.979
511.99	15.950
512.19	15.020
512.39	16.201
512.59	15.856
512.78	15.930
512.98	15.373
513.18	16.199
513.38	15.776
513.57	15.898
513.77	16.045
513.97	15.494
514.17	15.641
514.36	16.629
514.56	15.107
514.76	16.048
514.95	15.578
515.15	16.348
515.35	16.009
515.55	16.111
515.74	16.247
515.94	15.734
516.14	16.210
516.33	16.356
516.53	16.106
516.73	15.382
516.93	16.762
517.12	15.675
517.32	15.346
517.52	16.225
517.71	15.591
517.91	15.608
518.11	15.408
518.30	15.839
518.50	15.572
518.70	15.328
518.90	15.228
519.09	16.049
519.29	16.127
519.49	15.816
519.68	16.127
519.88	16.043
520.08	16.138
520.27	16.509
520.47	16.514
520.67	16.525
520.86	16.538
521.06	16.968
521.26	15.994
521.45	16.364
521.65	15.927
521.85	16.331
522.04	16.396
522.24	16.313
522.44	16.208
522.63	16.767
522.83	15.882
523.03	16.271
523.22	17.026
523.42	16.141
523.62	16.124
523.81	16.635
524.01	16.197
524.21	16.969
524.40	16.083
524.60	16.004
524.80	16.156
524.99	16.393
525.19	16.222
525.39	16.304
525.58	15.952
525.78	15.296
525.98	15.973
526.17	15.696
526.37	15.730
526.57	15.794
526.76	15.957
526.96	16.287
527.15	16.423
527.35	16.005
527.55	16.013
527.74	16.460
527.94	15.982
528.14	15.742
528.33	15.372
528.53	15.284
528.72	15.490
528.92	15.989
529.12	16.005
529.31	16.027
529.51	16.243
529.71	16.479
529.90	16.312
530.10	16.694
530.29	16.931
530.49	17.053
530.69	17.180
530.88	17.201
531.08	17.446
531.28	16.873
531.47	16.784
531.67	16.425
531.86	16.625
532.06	16.705
532.26	16.326
532.45	16.443
532.65	16.327
532.84	16.204
533.04	15.679
533.24	16.172
533.43	16.159
533.63	16.005
533.82	16.331
534.02	16.595
534.22	16.165
534.41	16.625
534.61	16.572
534.80	16.395
535.00	16.740
535.19	17.295
535.39	16.962
535.59	17.253
535.78	17.257
535.98	16.955
536.17	16.593
536.37	16.232
536.57	16.330
536.76	16.819
536.96	16.417
537.15	16.711
537.35	16.595
537.54	17.205
537.74	17.129
537.93	17.024
538.13	16.652
538.33	17.249
538.52	17.942
538.72	17.662
538.91	17.208
539.11	17.587
539.30	16.867
539.50	17.525
539.70	16.842
539.89	16.842
540.09	16.575
540.28	16.720
540.48	16.870
540.67	16.612
540.87	16.794
541.06	16.316
541.26	15.998
541.45	16.220
541.65	16.189
541.85	16.616
542.04	16.723
542.24	17.109
542.43	17.355
542.63	17.464
542.82	17.169
543.02	17.507
543.21	17.599
543.41	17.529
543.60	17.845
543.80	17.566
543.99	17.951
544.19	17.768
544.38	17.878
544.58	17.973
544.77	18.163
544.97	17.985
545.16	17.621
545.36	17.464
545.56	17.984
545.75	17.666
545.95	17.792
546.14	17.609
546.34	17.528
546.53	17.422
546.73	17.421
546.92	18.120
547.12	18.288
547.31	18.001
547.51	18.489
547.70	18.314
547.90	17.823
548.09	18.519
548.29	17.712
548.48	18.577
548.68	18.178
548.87	18.772
549.07	18.790
549.26	19.344
549.46	18.676
549.65	18.954
549.84	18.256
550.04	18.392
550.23	18.990
550.43	18.618
550.62	18.881
550.82	19.370
551.01	18.728
551.21	19.491
551.40	19.050
551.60	19.764
551.79	19.092
551.99	18.807
552.18	18.438
552.38	18.869
552.57	18.625
552.77	18.787
552.96	19.680
553.16	19.709
553.35	19.587
553.54	18.955
553.74	19.304
553.93	19.629
554.13	19.958
554.32	19.840
554.52	20.553
554.71	20.152
554.91	19.953
555.10	20.293
555.29	19.928
555.49	20.561
555.68	20.397
555.88	19.606
556.07	19.392
556.27	19.733
556.46	20.370
556.66	21.173
556.85	20.549
557.04	20.503
557.24	21.106
557.43	20.278
557.63	20.451
557.82	20.278
558.02	20.580
558.21	21.437
558.40	20.080
558.60	21.300
558.79	20.511
558.99	21.472
559.18	21.275
559.38	20.443
559.57	21.248
559.76	21.139
559.96	21.862
560.15	21.051
560.35	20.390
560.54	21.889
560.73	20.242
560.93	22.154
561.12	21.882
561.32	22.616
561.51	22.235
561.70	21.641
561.90	22.540
562.09	21.279
562.29	21.383
562.48	21.823
562.67	22.123
562.87	22.504
563.06	21.406
563.26	22.380
563.45	22.421
563.64	23.161
563.84	22.581
564.03	22.430
564.23	23.330
564.42	22.854
564.61	22.789
564.81	23.434
565.00	23.568
565.20	23.417
565.39	23.623
565.58	22.992
565.78	22.585
565.97	22.952
566.16	22.168
566.36	23.450
566.55	23.814
566.74	23.438
566.94	22.525
567.13	23.531
567.33	24.031
567.52	23.585
567.71	24.249
567.91	23.992
568.10	24.426
568.29	23.969
568.49	24.307
568.68	23.839
568.87	24.398
569.07	24.664
569.26	24.214
569.45	24.405
569.65	25.048
569.84	25.179
570.04	24.241
570.23	24.121
570.42	24.908
570.62	24.312
570.81	24.025
571.00	25.392
571.20	24.763
571.39	25.315
571.58	24.129
571.78	24.805
571.97	24.946
572.16	25.537
572.36	24.925
572.55	24.457
572.74	25.015
572.94	24.980
573.13	24.794
573.32	24.816
573.51	25.619
573.71	25.203
573.90	25.556
574.09	25.493
574.29	25.270
574.48	25.386
574.67	25.128
574.87	25.174
575.06	25.074
575.25	25.082
575.45	25.384
575.64	25.475
575.83	26.262
576.03	26.544
576.22	25.440
576.41	25.917
576.60	25.408
576.80	26.116
576.99	26.295
577.18	26.623
577.38	25.860
577.57	25.365
577.76	26.265
577.95	27.000
578.15	26.431
578.34	25.722
578.53	25.956
578.73	26.378
578.92	26.079
579.11	26.523
579.30	25.674
579.50	26.931
579.69	26.243
579.88	26.439
580.08	26.350
580.27	25.823
580.46	25.990
580.65	26.550
580.85	26.022
581.04	27.036
581.23	25.789
581.42	26.378
581.62	25.567
581.81	26.719
582.00	26.213
582.19	25.819
582.39	26.009
582.58	26.449
582.77	26.567
582.96	26.680
583.16	26.061
583.35	26.127
583.54	26.634
583.73	26.892
583.93	26.363
584.12	25.258
584.31	25.342
584.50	26.215
584.70	26.556
584.89	26.500
585.08	26.204
585.27	27.411
585.47	25.803
585.66	26.352
585.85	25.754
586.04	25.614
586.24	26.393
586.43	26.317
586.62	24.667
586.81	25.921
587.00	26.066
587.20	26.855
587.39	26.052
587.58	25.447
587.77	26.011
587.97	25.319
588.16	25.565
588.35	26.203
588.54	25.968
588.73	26.312
588.93	26.340
589.12	26.544
589.31	25.423
589.50	25.924
589.69	26.198
589.89	27.496
590.08	25.975
590.27	26.755
590.46	25.530
590.65	26.010
590.85	25.918
591.04	27.039
591.23	25.651
591.42	26.475
591.61	26.729
591.81	27.133
592.00	26.782
592.19	27.636
592.38	27.241
592.57	26.040
592.77	26.467
592.96	26.536
593.15	27.067
593.34	26.929
593.53	25.942
593.72	26.986
593.92	25.182
594.11	26.716
594.30	26.248
594.49	26.779
594.68	25.943
594.87	26.468
595.07	26.921
595.26	26.475
595.45	26.050
595.64	27.629
595.83	27.072
596.02	26.822
596.22	26.438
596.41	26.094
596.60	27.100
596.79	26.069
596.98	26.590
597.17	26.778
597.37	26.679
597.56	27.523
597.75	26.615
597.94	27.500
598.13	26.364
598.32	27.376
598.51	27.129
598.71	27.996
598.90	28.115
599.09	27.309
599.28	27.877
599.47	27.861
599.66	27.215
599.85	27.807
600.05	26.899
600.24	28.651
600.43	28.620
600.62	27.444
600.81	27.850
601.00	27.693
601.19	28.427
601.38	27.790
601.58	27.628
601.77	28.369
601.96	27.665
602.15	29.566
602.34	27.402
602.53	29.640
602.72	27.886
602.91	27.358
603.10	28.842
603.30	27.786
603.49	27.233
603.68	28.993
603.87	28.688
604.06	28.504
604.25	27.020
604.44	28.557
604.63	27.893
604.82	29.262
605.01	28.400
605.21	27.695
605.40	27.982
605.59	29.270
605.78	28.267
605.97	28.304
606.16	28.657
606.35	28.454
606.54	28.304
606.73	29.085
606.92	29.268
607.11	30.334
607.30	28.487
607.50	29.828
607.69	28.909
607.88	27.586
608.07	28.749
608.26	27.822
608.45	28.149
608.64	28.497
608.83	27.879
609.02	28.198
609.21	28.560
609.40	28.132
609.59	27.150
609.78	28.606
609.97	28.017
610.16	27.883
610.35	28.813
610.55	28.057
610.74	27.581
610.93	28.152
611.12	27.658
611.31	28.244
611.50	27.661
611.69	27.887
611.88	29.327
612.07	28.116
612.26	29.635
612.45	28.856
612.64	28.775
612.83	28.771
613.02	27.516
613.21	27.183
613.40	28.908
613.59	29.618
613.78	27.932
613.97	27.544
614.16	26.244
614.35	27.235
614.54	26.198
614.73	28.332
614.92	27.598
615.11	26.189
615.30	26.758
615.49	27.626
615.68	27.915
615.87	27.105
616.07	25.781
616.26	26.203
616.45	26.359
616.64	26.809
616.83	26.790
617.02	28.351
617.21	27.018
617.40	26.717
617.59	26.943
617.78	26.135
617.97	27.943
618.16	27.525
618.35	26.155
618.54	25.084
618.73	25.971
618.92	26.155
619.11	26.452
619.30	26.422
619.49	25.608
619.68	25.709
619.86	26.010
620.05	27.293
620.24	26.084
620.43	26.140
620.62	25.061
620.81	26.732
621.00	25.839
621.19	27.142
621.38	26.106
621.57	28.110
621.76	25.689
621.95	25.782
622.14	25.288
622.33	26.217
622.52	25.392
622.71	26.894
622.90	24.530
623.09	26.990
623.28	26.567
623.47	26.869
623.66	25.671
623.85	26.090
624.04	25.176
624.23	26.879
624.42	25.940
624.61	24.804
624.80	25.358
624.99	25.759
625.18	25.397
625.36	25.665
625.55	25.417
625.74	24.916
625.93	25.407
626.12	26.081
626.31	26.100
626.50	25.712
626.69	26.192
626.88	25.625
627.07	27.064
627.26	25.851
627.45	24.996
627.64	25.418
627.83	25.557
628.02	25.457
628.20	26.081
628.39	26.061
628.58	25.671
628.77	26.584
628.96	24.820
629.15	24.991
629.34	24.739
629.53	25.755
629.72	24.297
629.91	24.662
630.10	25.231
630.29	25.417
630.47	24.655
630.66	24.171
630.85	24.793
631.04	24.086
631.23	24.363
631.42	25.398
631.61	23.409
631.80	25.513
631.99	23.856
632.18	23.380
632.36	23.731
632.55	25.219
632.74	23.468
632.93	23.945
633.12	24.052
633.31	24.644
633.50	25.671
633.69	24.649
633.88	23.066
634.06	24.985
634.25	24.304
634.44	24.006
634.63	24.864
634.82	23.704
635.01	23.804
635.20	25.340
635.39	24.121
635.57	24.590
635.76	23.499
635.95	24.336
636.14	24.150
636.33	24.898
636.52	24.452
636.71	24.788
636.89	24.937
637.08	24.525
637.27	23.523
637.46	24.823
637.65	24.306
637.84	25.086
638.03	24.266
638.21	24.852
638.40	23.486
638.59	23.539
638.78	22.951
638.97	26.214
639.16	24.469
639.34	24.513
639.53	22.196
639.72	26.398
639.91	24.167
640.10	23.752
640.29	22.875
640.47	26.702
640.66	25.000
640.85	24.759
641.04	23.259
641.23	26.213
641.42	23.164
641.60	24.642
641.79	23.117
641.98	24.453
642.17	23.441
642.36	24.339
642.54	21.712
642.73	24.230
642.92	22.265
643.11	23.698
643.30	22.685
643.49	24.698
643.67	23.190
643.86	23.861
644.05	20.730
644.24	23.157
644.43	24.320
644.61	25.799
644.80	22.907
644.99	24.837
645.18	24.431
645.37	23.920
645.55	22.405
645.74	23.832
645.93	23.265
646.12	24.072
646.31	23.869
646.49	23.520
646.68	23.219
646.87	24.413
647.06	23.445
647.24	24.491
647.43	21.727
647.62	24.092
647.81	20.850
648.00	25.758
648.18	20.817
648.37	24.060
648.56	21.912
648.75	23.158
648.93	22.169
649.12	23.305
649.31	21.698
649.50	21.574
649.68	23.545
649.87	22.610
650.06	21.920
650.25	22.997
650.43	22.590
650.62	22.404
650.81	21.641
651.00	22.171
651.18	21.780
651.37	23.864
651.56	20.247
651.75	24.709
651.93	22.715
652.12	23.489
652.31	21.926
652.50	22.547
652.68	22.948
652.87	24.086
653.06	24.179
653.25	24.021
653.43	21.458
653.62	23.310
653.81	23.324
654.00	23.398
654.18	21.654
654.37	24.127
654.56	23.189
654.74	23.899
654.93	20.006
655.12	22.256
655.31	20.664
655.49	22.515
655.68	18.848
655.87	22.132
656.05	19.023
656.24	21.732
656.43	18.056
656.62	21.470
656.80	21.169
656.99	21.254
657.18	19.089
657.36	20.904
657.55	21.832
657.74	19.100
657.93	21.604
658.11	21.188
658.30	20.390
658.49	20.091
658.67	20.598
658.86	21.199
659.05	20.889
659.23	21.156
659.42	18.759
659.61	22.237
659.79	18.829
659.98	20.391
660.17	19.678
660.35	18.856
660.54	19.358
660.73	20.987
660.91	20.864
661.10	21.116
661.29	18.151
661.47	20.087
661.66	18.606
661.85	20.696
662.03	15.852
662.22	16.886
662.41	16.018
662.59	18.172
662.78	14.878
662.97	16.235
663.15	15.773
663.34	17.046
663.53	14.405
663.71	16.818
663.90	15.391
664.09	17.868
664.27	14.551
664.46	17.531
664.65	15.286
664.83	15.600
665.02	13.797
665.21	15.106
665.39	12.455
665.58	15.866
665.77	14.059
665.95	15.321
666.14	12.195
666.32	17.167
666.51	15.146
666.70	15.108
666.88	13.353
667.07	15.650
667.26	12.381
667.44	15.365
667.63	12.572
667.81	13.444
668.00	11.668
668.19	15.999
668.37	13.687
668.56	16.495
668.75	11.757
668.93	17.506
669.12	13.488
669.30	15.522
669.49	12.643
669.68	15.566
669.86	14.685
670.05	13.513
670.23	13.996
670.42	13.492
670.61	12.928
670.79	14.627
670.98	14.129
671.16	16.196
671.35	11.712
671.54	14.446
671.72	11.669
671.91	14.596
672.09	11.529
672.28	14.408
672.46	16.656
672.65	14.468
672.84	15.387
673.02	15.121
673.21	10.727
673.39	14.642
673.58	15.955
673.77	14.137
673.95	14.124
674.14	16.762
674.32	13.682
674.51	14.931
674.69	12.452
674.88	15.607
675.07	11.269
675.25	17.878
675.44	15.519
675.62	14.804
675.81	10.906
675.99	21.151
676.18	16.968
676.36	13.700
676.55	12.150
676.74	17.370
676.92	16.143
677.11	14.499
677.29	12.566
677.48	17.100
677.66	15.867
677.85	14.904
678.03	12.999
678.22	16.582
678.40	15.007
678.59	15.795
678.78	15.142
678.96	14.456
679.15	14.594
679.33	18.176
679.52	17.170
679.70	17.216
679.89	18.038
680.07	18.153
680.26	16.290
680.44	17.324
680.63	16.807
680.81	16.930
681.00	16.107
681.18	17.706
681.37	17.796
681.55	19.489
681.74	18.371
681.92	19.085
682.11	18.517
682.29	17.306
682.48	18.184
682.66	19.199
682.85	18.575
683.03	18.853
683.22	19.844
683.40	20.826
683.59	17.391
683.77	20.427
683.96	17.411
684.14	20.943
684.33	15.077
684.51	24.966
684.70	18.142
684.88	23.021
685.07	20.513
685.25	24.164
685.44	18.625
685.62	21.802
685.81	18.069
685.99	22.844
686.18	18.944
686.36	22.721
686.55	18.503
686.73	20.780
686.92	21.476
687.10	23.473
687.29	22.154
687.47	24.459
687.65	25.123
687.84	23.578
688.02	26.485
688.21	27.418
688.39	24.399
688.58	27.404
688.76	25.516
688.95	27.371
689.13	23.488
689.32	29.449
689.50	25.373
689.68	28.958
689.87	26.371
690.05	29.447
690.24	28.276
690.42	31.496
690.61	27.329
690.79	31.215
690.98	29.554
691.16	31.250
691.34	26.498
691.53	32.891
691.71	31.086
691.90	32.327
692.08	31.887
692.27	34.123
692.45	30.512
692.63	32.593
692.82	34.277
693.00	36.896
693.19	30.898
693.37	36.924
693.56	32.944
693.74	38.007
693.92	38.925
694.11	38.536
694.29	38.546
694.48	41.553
694.66	36.901
694.84	41.109
695.03	37.399
695.21	42.840
695.40	40.831
695.58	44.599
695.76	39.522
695.95	43.569
696.13	41.712
696.32	45.557
696.50	45.916
696.68	43.410
696.87	44.877
697.05	44.852
697.24	45.853
697.42	48.600
697.60	45.330
697.79	47.258
697.97	48.857
698.16	48.470
698.34	46.924
698.52	50.169
698.71	49.126
698.89	48.027
699.07	48.505
699.26	49.106
699.44	50.693
699.63	50.834
699.81	48.699
699.99	50.675
700.18	51.166
700.36	51.259
700.54	53.022
700.73	50.328
700.91	51.064
701.09	51.823
701.28	54.625
701.46	55.238
701.64	53.574
701.83	54.431
702.01	52.702
702.20	57.065
702.38	55.848
702.56	54.861
702.75	57.203
702.93	57.939
703.11	57.428
703.30	59.381
703.48	57.909
703.66	59.871
703.85	58.021
704.03	63.832
704.21	55.607
704.40	60.157
704.58	56.981
704.76	59.158
704.95	60.250
705.13	64.740
705.31	58.136
705.50	64.254
705.68	61.269
705.86	60.973
706.04	61.704
706.23	63.527
706.41	65.179
706.59	60.233
706.78	64.148
706.96	65.211
707.14	61.346
707.33	61.424
707.51	60.306
707.69	64.606
707.88	64.717
708.06	61.166
708.24	62.463
708.42	61.914
708.61	63.063
708.79	62.297
708.97	71.972
709.16	64.835
709.34	66.843
709.52	63.989
709.71	65.782
709.89	63.353
710.07	65.091
710.25	63.865
710.44	66.134
710.62	67.776
710.80	68.169
710.98	66.862
711.17	65.862
711.35	65.411
711.53	63.179
711.72	64.470
711.90	65.706
712.08	67.837
712.26	63.036
712.45	66.424
712.63	65.183
712.81	67.935
712.99	65.192
713.18	66.565
713.36	66.697
713.54	67.500
713.72	67.892
713.91	68.651
714.09	62.282
714.27	65.451
714.45	68.970
714.64	68.827
714.82	67.037
715.00	67.726
715.18	65.243
715.37	68.556
715.55	67.648
715.73	68.500
715.91	67.699
716.10	66.972
716.28	64.821
716.46	68.334
716.64	68.728
716.83	72.355
717.01	70.216
717.19	64.628
717.37	68.929
717.55	70.223
717.74	67.152
717.92	65.749
718.10	66.809
718.28	67.880
718.47	64.694
718.65	69.130
718.83	68.942
719.01	73.100
719.19	68.189
719.38	65.368
719.56	68.384
719.74	66.959
719.92	63.416
720.10	68.779
720.29	68.250
720.47	68.503
720.65	73.010
720.83	70.249
721.01	68.412
721.20	67.030
721.38	73.446
721.56	73.477
721.74	72.898
721.92	75.109
722.11	70.793
722.29	72.304
722.47	72.585
722.65	70.563
722.83	68.389
723.01	65.116
723.20	66.563
723.38	70.940
723.56	70.049
723.74	71.883
723.92	71.033
724.10	71.729
724.29	72.864
724.47	71.671
724.65	75.131
724.83	75.814
725.01	70.490
725.19	74.919
725.38	72.074
725.56	70.984
725.74	71.084
725.92	70.115
726.10	70.114
726.28	71.875
726.46	72.990
726.65	73.317
726.83	73.388
727.01	75.476
727.19	69.254
727.37	75.361
727.55	69.952
727.73	73.604
727.92	74.149
728.10	74.134
728.28	70.048
728.46	70.193
728.64	75.302
728.82	74.956
729.00	70.481
729.19	73.162
729.37	73.605
729.55	72.596
729.73	71.871
729.91	74.640
730.09	71.370
730.27	71.614
730.45	71.387
730.63	68.375
730.82	74.294
731.00	74.130
731.18	72.618
731.36	69.587
731.54	74.106
731.72	70.783
731.90	71.158
732.08	74.874
732.26	75.058
732.45	71.482
732.63	73.552
732.81	73.693
732.99	74.132
733.17	72.547
733.35	74.184
733.53	75.647
733.71	72.496
733.89	72.941
734.07	78.738
734.25	76.547
734.44	72.533
734.62	73.105
734.80	73.749
734.98	76.919
735.16	73.868
735.34	71.877
735.52	75.594
735.70	80.116
735.88	77.829
736.06	74.189
736.24	83.714
736.42	75.398
736.60	76.035
736.78	80.218
736.97	75.637
737.15	78.356
737.33	76.676
737.51	78.552
737.69	80.384
737.87	78.363
738.05	83.704
738.23	80.387
738.41	75.896
738.59	80.844
738.77	79.452
738.95	82.244
739.13	76.124
739.31	77.755
739.49	84.043
739.67	78.876
739.85	75.981
740.03	76.954
740.21	75.903
740.39	75.687
740.57	78.342
740.75	76.634
740.93	75.975
741.11	79.225
741.30	78.872
741.48	76.079
741.66	75.071
741.84	79.558
742.02	74.613
742.20	78.015
742.38	78.793
742.56	78.099
742.74	80.324
742.92	81.659
743.10	78.623
743.28	79.405
743.46	82.400
743.64	79.412
743.82	79.595
744.00	82.745
744.18	77.398
744.36	80.616
744.54	83.106
744.72	78.883
744.90	86.198
745.08	86.673
745.26	74.357
745.44	83.605
745.62	78.395
745.80	77.147
745.98	81.942
746.16	85.727
746.34	80.931
746.52	80.183
746.70	77.151
746.87	78.386
747.05	78.799
747.23	78.647
747.41	78.952
747.59	78.152
747.77	75.874
747.95	86.589
748.13	74.712
748.31	84.186
748.49	75.871
748.67	80.639
748.85	87.343
749.03	81.802
749.21	84.177
749.39	80.446
749.57	74.191
749.75	79.494
749.93	85.310
750.11	78.413
750.29	79.849
750.47	80.310
750.65	81.028
750.83	78.402
751.01	75.112
751.18	83.058
751.36	74.716
751.54	79.934
751.72	76.174
751.90	80.282
752.08	82.922
752.26	83.827
752.44	76.314
752.62	79.597
752.80	81.656
752.98	83.104
753.16	82.940
753.34	87.343
753.52	81.719
753.69	79.602
753.87	79.261
754.05	83.568
754.23	78.947
754.41	79.384
754.59	79.967
754.77	80.536
754.95	78.788
755.13	78.602
755.31	78.206
755.49	78.493
755.66	76.989
755.84	79.574
756.02	78.769
756.20	82.415
756.38	79.732
756.56	80.189
756.74	81.744
756.92	82.338
757.10	79.450
757.28	89.595
757.45	77.076
757.63	78.062
757.81	77.239
757.99	83.660
758.17	80.017
758.35	78.620
758.53	76.965
758.71	80.881
758.88	80.071
759.06	82.390
759.24	74.779
759.42	77.234
759.60	76.414
759.78	76.128
759.96	73.122
760.13	73.488
760.31	69.361
760.49	70.851
760.67	64.056
760.85	67.926
761.03	60.926
761.21	68.566
761.38	60.017
761.56	68.948
761.74	61.815
761.92	72.475
762.10	59.095
762.28	67.335
762.46	57.107
762.63	62.787
762.81	60.946
762.99	68.397
763.17	61.846
763.35	65.348
763.53	66.509
763.70	67.935
763.88	67.686
764.06	69.005
764.24	63.237
764.42	68.693
764.60	66.968
764.77	68.496
764.95	66.082
765.13	74.088
765.31	69.615
765.49	69.104
765.66	68.556
765.84	71.552
766.02	68.858
766.20	73.433
766.38	74.226
766.56	73.876
766.73	71.292
766.91	75.152
767.09	70.606
767.27	74.461
767.45	74.445
767.62	75.990
767.80	73.649
767.98	79.277
768.16	75.131
768.33	80.481
768.51	75.000
768.69	73.655
768.87	74.833
769.05	75.486
769.22	86.387
769.40	80.384
769.58	79.442
769.76	83.559
769.94	76.804
770.11	80.258
770.29	78.345
770.47	84.312
770.65	80.984
770.82	79.506
771.00	75.924
771.18	87.029
771.36	85.507
771.53	85.341
771.71	90.952
771.89	80.638
772.07	79.717
772.25	80.074
772.42	77.236
772.60	85.526
772.78	80.424
772.96	80.769
773.13	84.309
773.31	84.578
773.49	81.997
773.67	86.517
773.84	81.795
774.02	82.054
774.20	75.754
774.37	88.712
774.55	88.011
774.73	84.921
774.91	76.265
775.08	79.949
775.26	84.480
775.44	85.298
775.62	85.505
775.79	78.516
775.97	78.333
776.15	84.037
776.32	80.456
776.50	83.859
776.68	84.585
776.86	89.143
777.03	85.675
777.21	82.550
777.39	80.450
777.56	78.571
777.74	80.658
777.92	87.481
778.10	74.608
778.27	87.984
778.45	79.750
778.63	86.351
778.80	81.361
778.98	84.791
779.16	82.409
779.34	84.803
779.51	77.872
779.69	82.222
779.87	77.866
780.04	81.572
780.22	81.831
780.40	82.987
780.57	87.352
780.75	75.657
780.93	78.893
781.10	87.345
781.28	91.266
781.46	81.405
781.63	93.038
781.81	87.677
781.99	81.844
782.16	78.426
782.34	75.862
782.52	90.439
782.69	73.642
782.87	81.205
783.05	78.752
783.22	85.549
783.40	81.756
783.58	93.991
783.75	85.135
783.93	80.028
784.11	84.320
784.28	90.332
784.46	74.661
784.64	95.285
784.81	81.742
784.99	96.013
785.17	80.678
785.34	77.017
785.52	80.031
785.69	84.977
785.87	81.906
786.05	82.473
786.22	85.304
786.40	87.417
786.58	78.561
786.75	81.230
786.93	78.998
787.11	83.085
787.28	85.095
787.46	94.000
787.63	83.333
787.81	86.861
787.99	82.318
788.16	76.614
788.34	77.842
788.51	80.612
788.69	70.565
788.87	77.406
789.04	70.259
789.22	73.891
789.39	77.904
789.57	82.832
789.75	78.709
789.92	80.468
790.10	69.783
790.27	83.518
790.45	75.610
790.63	80.893
790.80	69.676
790.98	85.458
791.15	75.915
791.33	80.654
791.51	83.601
791.68	92.414
791.86	68.865
792.03	73.145
792.21	73.727
792.39	81.587
792.56	79.572
792.74	76.535
792.91	73.469
793.09	79.792
793.26	77.607
793.44	81.353
793.62	74.408
793.79	80.138
793.97	78.929
794.14	82.342
794.32	80.844
794.49	85.884
794.67	68.280
794.84	80.414
795.02	85.841
795.20	85.064
795.37	79.831
795.55	72.142
795.72	78.130
795.90	86.003
796.07	76.910
796.25	82.562
796.42	76.461
796.60	82.363
796.77	74.168
796.95	82.801
797.13	62.557
797.30	80.982
797.48	68.035
797.65	79.016
797.83	68.018
798.00	84.320
798.18	81.818
798.35	75.762
798.53	79.730
798.70	86.927
798.88	74.219
799.05	73.684
799.23	72.419
799.40	84.310
799.58	75.258
799.75	79.092
799.93	65.403
800.10	77.286
800.28	76.042
800.45	72.986
800.63	69.533
800.80	82.469
800.98	76.575
801.15	79.102
801.33	78.284
801.50	77.398
801.68	72.395
801.85	69.611
802.03	88.911
802.20	74.870
802.38	73.038
802.55	72.920
802.73	76.923
802.90	76.961
803.08	76.316
803.25	87.833
803.43	68.284
803.60	89.648
803.78	73.619
803.95	69.134
804.13	75.734
804.30	84.333
804.48	65.310
804.65	84.344
804.83	75.175
805.00	73.843
805.17	76.611
805.35	85.098
805.52	68.485
805.70	71.875
805.87	85.743
806.05	89.117
806.22	72.709
806.40	75.789
806.57	74.586
806.75	79.965
806.92	71.103
807.09	83.107
807.27	76.550
807.44	81.250
807.62	72.828
807.79	72.697
807.97	73.921
808.14	75.091
808.31	71.743
808.49	70.246
808.66	69.004
808.84	75.000
809.01	74.345
809.19	74.805
809.36	77.396
809.53	75.734
809.71	75.547
809.88	80.882
810.06	88.911
810.23	83.261
810.41	76.434
810.58	83.083
810.75	74.115
810.93	74.583
811.10	71.260
811.28	73.904
811.45	72.210
811.62	76.872
811.80	81.718
811.97	88.864
812.15	69.416
812.32	75.556
812.49	88.378
812.67	77.802
812.84	73.708
813.02	82.510
813.19	71.200
813.36	64.859
813.54	67.102
813.71	79.266
813.89	71.186
814.06	75.049
814.23	71.908
814.41	77.078
814.58	65.532
814.75	76.772
814.93	69.507
815.10	70.938
815.28	65.860
815.45	81.731
815.62	74.828
815.80	60.491
815.97	62.275
816.14	74.365
816.32	66.379
816.49	63.017
816.66	62.260
816.84	74.438
817.01	71.667
817.18	68.211
817.36	63.910
817.53	78.104
817.71	62.824
817.88	74.278
818.05	52.246
818.23	64.173
818.40	64.026
818.57	64.944
818.75	64.554
818.92	68.584
819.09	60.345
819.27	71.784
819.44	79.212
819.61	71.053
819.79	58.788
819.96	72.222
820.13	61.525
820.31	63.955
820.48	71.454
820.65	70.323
820.82	65.244
821.00	69.553
821.17	54.545
821.34	68.961
821.52	64.671
821.69	68.313
821.86	64.218
822.04	77.222
822.21	67.766
822.38	68.087
822.56	66.535
822.73	68.242
822.90	69.187
823.07	67.767
823.25	66.866
823.42	65.308
823.59	67.329
823.77	63.517
823.94	65.315
824.11	65.080
824.29	63.062
824.46	64.193
824.63	67.315
824.80	66.856
824.98	68.081
825.15	67.193
825.32	67.579
825.49	70.878
825.67	72.020
825.84	68.188
826.01	67.945
826.19	71.199
826.36	62.385
826.53	68.274
826.70	63.060
826.88	70.070
827.05	62.066
827.22	68.013
827.39	68.677
827.57	70.172
827.74	61.099
827.91	64.730
828.08	64.178
828.26	73.085
828.43	62.526
828.60	68.252
828.77	64.591
828.95	69.664
829.12	57.808
829.29	58.254
829.46	60.843
829.64	60.546
829.81	54.555
829.98	64.841
830.15	58.971
830.32	57.591
830.50	56.527
830.67	66.306
830.84	55.703
831.01	54.671
831.19	59.259
831.36	59.756
831.53	66.541
831.70	70.420
831.87	56.574
832.05	64.945
832.22	80.213
832.39	65.208
832.56	55.748
832.74	58.420
832.91	60.308
833.08	68.051
833.25	61.878
833.42	56.013
833.60	53.655
833.77	54.388
833.94	55.212
834.11	57.209
834.28	50.794
834.45	58.150
834.63	57.655
834.80	67.053
834.97	55.819
835.14	62.220
835.31	63.463
835.49	58.648
835.66	49.745
835.83	55.934
836.00	57.981
836.17	58.945
836.34	56.188
836.52	61.538
836.69	64.006
836.86	60.033
837.03	66.904
837.20	55.114
837.37	52.007
837.55	55.766
837.72	55.866
837.89	66.295
838.06	66.667
838.23	70.105
838.40	64.578
838.58	55.069
838.75	80.061
838.92	68.406
839.09	78.797
839.26	73.521
839.43	86.458
839.60	65.595
839.78	97.826
839.95	64.286
840.12	81.579
840.29	70.637
840.46	72.897
840.63	70.360
840.80	66.227
840.98	88.154
841.15	69.797
841.32	77.374
841.49	62.259
841.66	62.973
841.83	56.738
842.00	77.337
842.17	69.553
842.34	58.774
842.52	72.424
842.69	72.785
842.86	78.755
843.03	72.026
843.20	72.334
843.37	92.857
843.54	82.594
843.71	92.500
843.88	70.073
844.06	122.458
844.23	106.356
844.40	84.322
844.57	90.496
844.74	84.052
844.91	104.975
845.08	110.734
845.25	124.468
845.42	92.737
845.59	95.082
845.76	111.828
845.94	96.111
846.11	93.564
846.28	92.430
846.45	117.742
846.62	87.000
846.79	83.544
846.96	102.747
847.13	134.783
847.30	109.605
847.47	91.237
847.64	102.857
847.81	151.471
847.98	115.676
848.15	107.263
848.32	108.290
848.50	89.000
848.67	107.692
848.84	84.615
849.01	113.669
849.18	112.353
849.35	115.238
849.52	99.471
849.69	119.231
849.86	129.730
850.03	147.107
850.20	130.667
850.37	113.529
850.54	105.319
850.71	99.479
850.88	121.290
851.05	102.717
851.22	128.916
851.39	127.273
851.56	172.414
851.73	139.881
851.90	130.719
852.07	119.298
852.24	121.569
852.41	92.893
852.58	137.158
852.75	99.419
852.92	115.470
853.09	143.791
853.26	101.307
853.43	112.941
853.60	124.490
853.77	100.559
853.94	130.088
854.11	106.667
854.28	118.750
854.45	112.987
854.62	123.256
854.79	120.606
854.96	130.556
855.13	108.176
855.30	135.036
855.47	150.000
855.64	114.907
855.81	148.921
855.98	150.382
856.15	138.462
856.32	86.730
856.49	106.215
856.66	107.051
856.83	100.000
857.00	125.410
857.17	133.065
857.34	116.304
857.51	112.676
857.68	103.061
857.85	110.000
858.02	124.490
858.19	88.398
858.36	110.920
858.53	91.124
858.70	110.989
858.87	153.103
859.04	142.353
859.21	107.576
859.38	115.207
859.55	121.023
859.72	95.139
859.89	132.168
860.05	135.971
860.22	111.515
860.39	156.897
860.56	135.714
860.73	130.952
860.90	125.749
861.07	99.000
861.24	102.206
861.41	110.983
861.58	99.351
861.75	106.299
861.92	105.000
862.09	111.055
862.26	139.355
862.43	134.667
862.59	91.447
862.76	110.881
862.93	143.846
863.10	144.853
863.27	126.154
863.44	117.073
863.61	126.812
863.78	125.134
863.95	128.659
864.12	157.692
864.29	144.915
864.45	107.547
864.62	118.699
864.79	98.235
864.96	154.808
865.13	118.978
865.30	135.714
865.47	95.172
865.64	149.650
865.81	112.281
865.97	96.855
866.14	116.043
866.31	147.541
866.48	92.254
866.65	103.067
866.82	158.389
866.99	119.286
867.16	112.403
867.33	150.355
867.49	89.759
867.66	133.582
867.83	86.161
868.00	112.903
868.17	137.405
868.34	155.906
868.51	109.155
868.67	108.929
868.84	124.444
869.01	97.931
869.18	121.600
869.35	101.418
869.52	109.489
869.69	108.209
869.85	129.730
870.02	111.957
870.19	116.923
870.36	157.554
870.53	196.429
870.70	153.571
870.86	122.078
871.03	108.759
871.20	120.168
871.37	118.935
871.54	146.226
871.71	121.970
871.87	144.330
872.04	80.000
872.21	134.091
872.38	195.181
872.55	159.286
872.72	107.971
872.88	150.000
873.05	86.096
873.22	127.500
873.39	97.561
873.56	103.597
873.72	119.890
873.89	94.268
874.06	127.869
874.23	144.203
874.40	103.200
874.56	120.455
874.73	150.833
874.90	108.219
875.07	121.374
875.24	139.024
875.40	136.607
875.57	129.365
875.74	105.625
875.91	142.857
876.08	131.429
876.24	128.846
876.41	134.586
876.58	129.927
876.75	127.742
876.92	132.051
877.08	132.117
877.25	120.130
877.42	120.769
877.59	98.193
877.75	99.528
877.92	117.442
878.09	115.132
878.26	103.425
878.42	120.000
878.59	105.682
878.76	116.931
878.93	139.073
879.09	88.435
879.26	105.128
879.43	100.521
879.60	97.576
879.76	95.897
879.93	70.558
880.10	78.605
880.27	64.444
880.43	84.694
880.60	84.507
880.77	68.235
880.94	80.357
881.10	65.172
881.27	55.525
881.44	47.722
881.61	63.783
881.77	59.963
881.94	46.845
882.11	42.308
882.28	47.147
882.44	42.857
882.61	48.174
882.78	51.121
882.94	62.032
883.11	53.711
883.28	51.667
883.45	55.089
883.61	53.398
883.78	49.695
883.95	55.057
884.11	46.915
884.28	48.837
>>>>>End Processed Spectral Data<<<<<
