SpectraSuite Data File
++++++++++++++++++++++++++++++++++++
Date: Thu Sep 19 03:23:39 EST 2019
User: sgrac
Dark Spectrum Present: Yes
Reference Spectrum Present: Yes
Number of Sampled Component Spectra: 1
Spectrometers: USB4E01596
Integration Time (usec): 100000 (USB4E01596)
Spectra Averaged: 1 (USB4E01596)
Boxcar Smoothing: 0 (USB4E01596)
Correct for Electrical Dark: No (USB4E01596)
Strobe/Lamp Enabled: Yes (USB4E01596)
Correct for Detector Non-linearity: No (USB4E01596)
Correct for Stray Light: No (USB4E01596)
Number of Pixels in Processed Spectrum: 3648
>>>>>Begin Processed Spectral Data<<<<<
178.44	721.429
178.66	721.429
178.87	721.429
179.09	-900.000
179.30	210.714
179.52	1871.429
179.74	-966.667
179.95	804.762
180.17	1481.818
180.38	256.716
180.60	0.000
180.82	703.226
181.03	231.481
181.25	2950.000
181.46	1330.769
181.68	-269.767
181.89	1342.857
182.11	625.000
182.33	570.370
182.54	1358.333
182.76	705.556
182.97	-589.286
183.19	345.238
183.40	292.727
183.62	623.810
183.84	1787.500
184.05	1086.667
184.27	-7000.000
184.48	273.016
184.70	6900.000
184.91	573.077
185.13	292.958
185.34	-255.769
185.56	655.556
185.78	450.000
185.99	-4700.000
186.21	-1072.727
186.42	-332.500
186.64	1013.333
186.85	-6050.000
187.07	686.364
187.28	964.286
187.50	631.818
187.72	419.444
187.93	900.000
188.15	800.000
188.36	1141.176
188.58	343.590
188.79	2866.667
189.01	604.167
189.22	2660.000
189.44	670.000
189.65	-6800.000
189.87	3125.000
190.09	970.588
190.30	2128.571
190.52	1258.333
190.73	-569.231
190.95	320.455
191.16	562.500
191.38	422.222
191.59	-1372.727
191.81	727.273
192.02	920.000
192.24	784.615
192.45	1500.000
192.67	2466.667
192.88	-522.222
193.10	-18600.000
193.31	622.857
193.53	-671.429
193.74	-3275.000
193.96	2166.667
194.18	1131.250
194.39	439.024
194.61	836.842
194.82	1490.909
195.04	708.000
195.25	5200.000
195.47	413.158
195.68	952.941
195.90	286.047
196.11	715.385
196.33	-1666.667
196.54	-947.368
196.76	700.000
196.97	1377.778
197.19	-15300.000
197.40	1350.000
197.62	1850.000
197.83	1246.154
198.05	553.571
198.26	505.000
198.48	370.588
198.69	-2033.333
198.91	688.889
199.12	494.286
199.34	-2214.286
199.55	243.860
199.77	302.174
199.98	-1572.727
200.20	820.000
200.41	7100.000
200.63	578.571
200.84	604.762
201.06	-1007.692
201.27	-2640.000
201.49	1341.667
201.70	756.250
201.91	-8200.000
202.13	747.368
202.34	302.174
202.56	6450.000
202.77	856.250
202.99	360.000
203.20	621.212
203.42	-2585.714
203.63	3016.667
203.85	561.111
204.06	543.478
204.28	1550.000
204.49	-1250.000
204.71	436.585
204.92	342.222
205.14	368.889
205.35	232.857
205.56	2166.667
205.78	690.909
205.99	-1320.000
206.21	956.522
206.42	291.525
206.64	-2783.333
206.85	561.905
207.07	910.526
207.28	-3080.000
207.50	372.222
207.71	875.000
207.93	356.250
208.14	644.444
208.35	652.941
208.57	-404.000
208.78	-368.293
209.00	337.209
209.21	392.857
209.43	644.000
209.64	12900.000
209.86	685.714
210.07	468.966
210.28	-984.615
210.50	858.824
210.71	870.000
210.93	434.375
211.14	252.857
211.36	354.348
211.57	815.000
211.78	420.513
212.00	1060.000
212.21	1000.000
212.43	893.333
212.64	526.667
212.86	194.872
213.07	682.759
213.29	523.333
213.50	448.387
213.71	493.333
213.93	2828.571
214.14	841.176
214.36	1912.500
214.57	280.282
214.78	1206.667
215.00	863.158
215.21	966.667
215.43	221.519
215.64	470.370
215.86	1160.000
216.07	626.316
216.28	337.778
216.50	5300.000
216.71	-12400.000
216.93	796.296
217.14	236.364
217.35	388.571
217.57	2700.000
217.78	385.714
218.00	4733.333
218.21	579.167
218.42	273.437
218.64	-6800.000
218.85	364.706
219.07	2314.286
219.28	237.705
219.49	-1116.667
219.71	1800.000
219.92	244.595
220.14	2125.000
220.35	336.364
220.56	1000.000
220.78	319.298
220.99	460.000
221.21	175.258
221.42	704.348
221.63	7050.000
221.85	708.333
222.06	710.000
222.28	246.667
222.49	-1333.333
222.70	301.852
222.92	-9800.000
223.13	363.158
223.34	248.913
223.56	1491.667
223.77	180.882
223.99	393.333
224.20	308.333
224.41	206.667
224.63	8050.000
224.84	5366.667
225.05	992.308
225.27	400.000
225.48	353.333
225.69	214.118
225.91	209.375
226.12	202.899
226.34	515.625
226.55	205.882
226.76	258.824
226.98	213.636
227.19	187.179
227.40	374.000
227.62	201.370
227.83	148.214
228.04	133.766
228.26	127.679
228.47	81.667
228.69	111.029
228.90	79.762
229.11	65.502
229.33	66.029
229.54	60.581
229.75	59.717
229.97	56.098
230.18	52.492
230.39	42.424
230.61	46.075
230.82	63.455
231.03	47.134
231.25	59.060
231.46	47.024
231.67	69.811
231.89	57.937
232.10	70.566
232.31	90.625
232.53	69.725
232.74	55.505
232.95	73.529
233.17	71.795
233.38	61.053
233.59	91.573
233.81	90.741
234.02	80.000
234.23	84.536
234.45	89.091
234.66	95.402
234.87	65.698
235.09	79.787
235.30	73.301
235.51	66.816
235.73	72.222
235.94	49.107
236.15	76.119
236.36	75.111
236.58	70.335
236.79	66.379
237.00	66.667
237.22	73.545
237.43	72.763
237.64	95.031
237.86	65.094
238.07	82.773
238.28	72.047
238.50	65.072
238.71	78.238
238.92	75.000
239.13	85.484
239.35	69.710
239.56	88.889
239.77	104.918
239.99	72.177
240.20	91.829
240.41	66.142
240.63	39.403
240.84	67.257
241.05	59.459
241.26	49.020
241.48	44.037
241.69	28.726
241.90	26.897
242.12	33.538
242.33	36.742
242.54	23.697
242.75	25.758
242.97	23.654
243.18	16.252
243.39	15.535
243.61	20.894
243.82	24.367
244.03	19.536
244.24	19.855
244.46	25.204
244.67	20.502
244.88	25.036
245.09	24.422
245.31	28.852
245.52	17.483
245.73	37.435
245.95	47.024
246.16	38.571
246.37	28.788
246.58	28.923
246.80	27.718
247.01	18.237
247.22	18.822
247.43	21.727
247.65	13.113
247.86	14.551
248.07	8.854
248.28	12.908
248.50	9.176
248.71	10.338
248.92	10.314
249.13	9.536
249.35	11.017
249.56	11.128
249.77	12.879
249.98	14.940
250.20	15.000
250.41	21.175
250.62	22.815
250.83	22.018
251.05	27.601
251.26	32.056
251.47	24.186
251.68	27.911
251.90	30.706
252.11	28.619
252.32	21.107
252.53	24.194
252.75	23.657
252.96	25.000
253.17	16.842
253.38	25.700
253.59	19.630
253.81	24.904
254.02	18.092
254.23	22.942
254.44	20.857
254.66	27.451
254.87	24.746
255.08	26.110
255.29	35.878
255.50	29.124
255.72	27.843
255.93	42.377
256.14	34.267
256.35	25.290
256.57	36.609
256.78	29.167
256.99	33.582
257.20	32.777
257.41	33.402
257.63	37.030
257.84	34.156
258.05	25.479
258.26	26.849
258.47	36.782
258.69	22.659
258.90	22.431
259.11	20.801
259.32	16.133
259.53	17.213
259.75	18.850
259.96	14.068
260.17	13.814
260.38	9.291
260.59	11.583
260.81	8.996
261.02	9.643
261.23	9.096
261.44	10.430
261.65	8.312
261.87	9.365
262.08	10.221
262.29	12.954
262.50	10.117
262.71	11.997
262.92	14.016
263.14	17.946
263.35	12.637
263.56	15.158
263.77	14.957
263.98	18.122
264.20	21.684
264.41	15.365
264.62	24.348
264.83	16.404
265.04	23.210
265.25	23.295
265.47	18.573
265.68	20.223
265.89	22.148
266.10	19.974
266.31	23.343
266.52	22.684
266.74	22.464
266.95	13.596
267.16	13.281
267.37	15.326
267.58	12.969
267.79	14.161
268.01	19.981
268.22	10.166
268.43	14.193
268.64	15.269
268.85	14.804
269.06	13.403
269.27	16.251
269.49	17.291
269.70	13.786
269.91	14.000
270.12	16.221
270.33	16.353
270.54	16.667
270.75	14.313
270.97	16.369
271.18	14.379
271.39	17.124
271.60	14.286
271.81	14.906
272.02	11.981
272.23	12.234
272.45	10.752
272.66	8.073
272.87	13.746
273.08	11.096
273.29	10.895
273.50	9.232
273.71	11.933
273.92	9.582
274.14	11.004
274.35	11.745
274.56	12.151
274.77	9.531
274.98	12.313
275.19	12.025
275.40	14.610
275.61	13.188
275.83	17.325
276.04	12.116
276.25	14.427
276.46	11.712
276.67	13.149
276.88	14.675
277.09	14.825
277.30	16.427
277.51	14.497
277.73	13.105
277.94	12.210
278.15	13.589
278.36	16.186
278.57	15.214
278.78	15.175
278.99	11.258
279.20	14.194
279.41	13.414
279.62	10.698
279.84	12.579
280.05	15.642
280.26	11.857
280.47	15.108
280.68	14.173
280.89	15.926
281.10	13.653
281.31	10.822
281.52	12.020
281.73	11.111
281.94	10.008
282.16	13.272
282.37	12.048
282.58	11.739
282.79	13.963
283.00	12.582
283.21	10.138
283.42	9.838
283.63	10.094
283.84	10.803
284.05	13.008
284.26	14.391
284.47	13.219
284.68	12.850
284.89	12.097
285.11	12.848
285.32	8.925
285.53	13.431
285.74	11.881
285.95	11.223
286.16	11.440
286.37	8.183
286.58	10.365
286.79	8.803
287.00	9.485
287.21	8.077
287.42	9.586
287.63	8.819
287.84	11.287
288.05	11.752
288.26	11.195
288.48	11.967
288.69	8.654
288.90	9.827
289.11	11.820
289.32	11.014
289.53	9.028
289.74	10.501
289.95	11.216
290.16	10.568
290.37	9.832
290.58	7.921
290.79	9.128
291.00	10.811
291.21	8.273
291.42	8.859
291.63	8.369
291.84	10.774
292.05	9.516
292.26	9.034
292.47	8.890
292.68	9.264
292.89	9.231
293.10	10.307
293.31	12.306
293.52	9.267
293.73	12.647
293.94	13.293
294.15	11.870
294.36	9.377
294.57	12.574
294.79	9.246
295.00	10.804
295.21	8.925
295.42	10.163
295.63	11.058
295.84	10.296
296.05	8.632
296.26	8.901
296.47	8.856
296.68	9.618
296.89	9.946
297.10	9.549
297.31	8.204
297.52	10.000
297.73	7.786
297.94	8.422
298.15	9.510
298.36	7.812
298.57	7.938
298.78	8.718
298.99	6.422
299.20	7.804
299.41	6.966
299.62	8.233
299.83	7.622
300.04	6.900
300.25	10.025
300.46	9.937
300.67	10.202
300.88	10.341
301.09	8.508
301.30	10.833
301.50	11.808
301.71	10.998
301.92	10.863
302.13	10.526
302.34	11.684
302.55	12.995
302.76	9.332
302.97	9.300
303.18	9.741
303.39	9.292
303.60	9.565
303.81	9.900
304.02	11.953
304.23	9.524
304.44	12.645
304.65	10.529
304.86	9.940
305.07	9.676
305.28	8.779
305.49	11.086
305.70	12.081
305.91	11.348
306.12	9.375
306.33	7.817
306.54	9.823
306.75	8.920
306.96	16.273
307.17	10.422
307.38	10.171
307.58	8.123
307.79	10.305
308.00	13.078
308.21	12.260
308.42	11.524
308.63	12.733
308.84	6.679
309.05	7.874
309.26	8.963
309.47	13.017
309.68	8.796
309.89	8.749
310.10	8.756
310.31	7.704
310.52	7.036
310.73	9.869
310.94	7.305
311.14	8.052
311.35	8.649
311.56	6.798
311.77	8.286
311.98	8.119
312.19	6.139
312.40	9.589
312.61	8.122
312.82	10.492
313.03	7.435
313.24	9.948
313.45	8.384
313.66	8.795
313.86	10.943
314.07	9.320
314.28	14.239
314.49	9.919
314.70	11.744
314.91	12.551
315.12	10.779
315.33	10.419
315.54	9.391
315.75	10.427
315.96	11.117
316.16	9.591
316.37	9.885
316.58	8.514
316.79	10.644
317.00	12.232
317.21	8.363
317.42	11.823
317.63	12.139
317.84	10.448
318.05	9.739
318.25	11.644
318.46	8.280
318.67	9.795
318.88	8.884
319.09	9.640
319.30	9.724
319.51	10.305
319.72	10.501
319.93	9.169
320.13	11.726
320.34	10.156
320.55	10.846
320.76	10.646
320.97	7.156
321.18	10.316
321.39	10.838
321.60	12.182
321.80	13.560
322.01	9.848
322.22	10.771
322.43	10.705
322.64	9.345
322.85	10.507
323.06	12.508
323.27	12.962
323.47	12.960
323.68	12.683
323.89	6.971
324.10	12.356
324.31	7.789
324.52	9.647
324.73	9.727
324.93	9.312
325.14	10.180
325.35	9.599
325.56	10.116
325.77	11.196
325.98	10.553
326.19	9.978
326.39	9.904
326.60	9.327
326.81	10.069
327.02	9.661
327.23	8.563
327.44	13.655
327.64	6.757
327.85	9.191
328.06	9.150
328.27	13.849
328.48	10.788
328.69	9.909
328.90	8.981
329.10	10.044
329.31	10.911
329.52	11.143
329.73	10.837
329.94	10.351
330.15	11.227
330.35	11.704
330.56	10.871
330.77	10.292
330.98	11.674
331.19	9.555
331.39	13.783
331.60	11.653
331.81	9.439
332.02	14.021
332.23	12.597
332.44	11.788
332.64	11.000
332.85	9.437
333.06	10.950
333.27	8.729
333.48	13.265
333.68	10.624
333.89	10.712
334.10	10.741
334.31	13.480
334.52	11.093
334.72	7.774
334.93	9.816
335.14	10.144
335.35	9.888
335.56	11.565
335.76	9.764
335.97	11.948
336.18	9.276
336.39	13.937
336.60	12.481
336.80	10.412
337.01	9.970
337.22	8.730
337.43	12.691
337.64	13.080
337.84	12.174
338.05	10.988
338.26	13.595
338.47	12.259
338.68	8.990
338.88	10.565
339.09	13.324
339.30	10.823
339.51	10.621
339.71	12.859
339.92	9.873
340.13	11.713
340.34	10.396
340.55	10.652
340.75	15.512
340.96	10.333
341.17	11.674
341.38	8.846
341.58	11.319
341.79	12.476
342.00	9.583
342.21	11.996
342.41	9.315
342.62	12.477
342.83	15.007
343.04	9.303
343.24	12.062
343.45	15.166
343.66	9.209
343.87	11.861
344.07	11.754
344.28	11.944
344.49	13.762
344.70	13.133
344.90	10.409
345.11	9.943
345.32	10.280
345.53	11.039
345.73	11.406
345.94	11.862
346.15	13.538
346.36	10.618
346.56	12.425
346.77	15.761
346.98	12.684
347.19	13.162
347.39	12.452
347.60	10.821
347.81	13.238
348.02	14.170
348.22	8.878
348.43	10.827
348.64	13.168
348.84	10.144
349.05	13.283
349.26	16.864
349.47	10.657
349.67	12.670
349.88	12.512
350.09	12.634
350.30	15.635
350.50	13.278
350.71	14.527
350.92	14.280
351.12	13.330
351.33	13.499
351.54	13.091
351.74	12.688
351.95	12.853
352.16	12.841
352.37	17.717
352.57	13.757
352.78	11.486
352.99	14.400
353.19	14.598
353.40	14.013
353.61	16.032
353.82	15.474
354.02	14.651
354.23	13.408
354.44	15.147
354.64	12.046
354.85	14.956
355.06	13.060
355.26	12.281
355.47	13.429
355.68	17.952
355.88	16.315
356.09	14.869
356.30	12.071
356.51	15.976
356.71	14.507
356.92	13.716
357.13	14.280
357.33	17.345
357.54	15.874
357.75	11.103
357.95	13.609
358.16	12.241
358.37	17.472
358.57	12.694
358.78	17.952
358.99	14.889
359.19	13.062
359.40	13.763
359.61	14.235
359.81	16.439
360.02	17.875
360.23	13.038
360.43	13.862
360.64	13.253
360.85	14.066
361.05	11.718
361.26	18.112
361.47	13.660
361.67	17.824
361.88	11.679
362.09	15.356
362.29	12.346
362.50	12.733
362.70	12.975
362.91	17.681
363.12	13.640
363.32	14.564
363.53	15.663
363.74	16.796
363.94	12.259
364.15	17.291
364.36	16.806
364.56	14.225
364.77	15.562
364.98	19.988
365.18	14.268
365.39	17.477
365.59	12.441
365.80	14.889
366.01	15.934
366.21	12.761
366.42	14.025
366.63	16.517
366.83	12.476
367.04	10.723
367.24	16.614
367.45	11.767
367.66	12.234
367.86	14.100
368.07	13.192
368.28	14.704
368.48	13.380
368.69	11.848
368.89	12.266
369.10	14.543
369.31	14.928
369.51	13.470
369.72	15.631
369.92	16.650
370.13	10.740
370.34	14.590
370.54	9.341
370.75	14.271
370.95	8.948
371.16	14.742
371.37	12.404
371.57	11.172
371.78	12.576
371.98	16.099
372.19	14.172
372.40	16.056
372.60	12.408
372.81	12.576
373.01	10.458
373.22	12.119
373.43	13.784
373.63	15.807
373.84	15.362
374.04	13.575
374.25	13.469
374.46	14.831
374.66	13.354
374.87	15.756
375.07	9.761
375.28	12.272
375.48	12.430
375.69	13.820
375.90	9.882
376.10	11.336
376.31	10.546
376.51	10.835
376.72	11.117
376.92	9.521
377.13	13.114
377.34	13.426
377.54	11.627
377.75	14.806
377.95	11.712
378.16	14.268
378.36	13.387
378.57	12.999
378.77	12.759
378.98	14.746
379.19	11.963
379.39	12.052
379.60	12.324
379.80	12.321
380.01	13.012
380.21	11.397
380.42	14.240
380.62	11.906
380.83	13.574
381.04	12.487
381.24	13.790
381.45	12.096
381.65	10.066
381.86	13.771
382.06	14.182
382.27	10.738
382.47	9.952
382.68	13.231
382.88	10.710
383.09	11.003
383.29	10.635
383.50	14.020
383.71	11.073
383.91	11.070
384.12	9.212
384.32	13.907
384.53	11.787
384.73	10.284
384.94	10.124
385.14	11.749
385.35	9.750
385.55	12.515
385.76	10.608
385.96	11.691
386.17	12.025
386.37	12.431
386.58	10.945
386.78	14.100
386.99	10.057
387.19	14.680
387.40	11.129
387.60	14.030
387.81	10.212
388.01	11.765
388.22	11.797
388.42	13.677
388.63	13.085
388.83	14.839
389.04	9.991
389.24	11.188
389.45	10.530
389.65	11.124
389.86	11.272
390.06	9.754
390.27	10.022
390.47	11.486
390.68	10.628
390.88	14.221
391.09	11.747
391.29	11.684
391.50	11.613
391.70	12.749
391.91	10.798
392.11	11.031
392.32	11.720
392.52	13.177
392.73	11.045
392.93	12.547
393.14	11.359
393.34	12.097
393.55	11.601
393.75	11.235
393.95	10.725
394.16	12.620
394.36	12.299
394.57	13.707
394.77	12.823
394.98	11.915
395.18	12.526
395.39	13.024
395.59	10.880
395.80	10.485
396.00	10.926
396.21	14.065
396.41	9.977
396.61	13.620
396.82	12.248
397.02	14.103
397.23	11.573
397.43	11.366
397.64	9.636
397.84	13.572
398.05	8.191
398.25	12.726
398.45	11.030
398.66	11.757
398.86	11.853
399.07	14.440
399.27	10.965
399.48	13.470
399.68	10.404
399.89	10.334
400.09	12.316
400.29	11.344
400.50	12.007
400.70	12.688
400.91	9.379
401.11	10.265
401.32	12.057
401.52	9.452
401.72	11.023
401.93	13.558
402.13	11.566
402.34	10.771
402.54	8.667
402.75	13.106
402.95	10.009
403.15	12.586
403.36	9.843
403.56	11.816
403.77	10.402
403.97	9.658
404.17	9.617
404.38	10.917
404.58	10.520
404.79	11.927
404.99	11.198
405.19	10.963
405.40	10.551
405.60	12.132
405.81	11.362
406.01	11.917
406.21	11.333
406.42	11.420
406.62	10.963
406.83	13.052
407.03	13.782
407.23	10.500
407.44	9.423
407.64	12.608
407.85	11.073
408.05	10.854
408.25	10.718
408.46	12.824
408.66	9.241
408.87	9.372
409.07	10.842
409.27	9.204
409.48	9.868
409.68	12.058
409.88	9.361
410.09	11.063
410.29	11.480
410.50	11.823
410.70	9.401
410.90	11.406
411.11	8.968
411.31	10.553
411.51	10.902
411.72	12.260
411.92	9.612
412.12	12.142
412.33	8.653
412.53	10.288
412.74	7.853
412.94	10.893
413.14	11.059
413.35	10.654
413.55	9.810
413.75	10.851
413.96	8.681
414.16	10.657
414.36	10.531
414.57	10.975
414.77	8.650
414.97	10.927
415.18	9.118
415.38	9.553
415.58	10.184
415.79	10.335
415.99	9.949
416.19	10.567
416.40	10.764
416.60	10.161
416.80	9.731
417.01	10.990
417.21	8.859
417.41	12.602
417.62	10.527
417.82	12.058
418.02	9.086
418.23	11.257
418.43	10.397
418.63	11.257
418.84	10.933
419.04	10.698
419.24	12.243
419.45	12.220
419.65	11.874
419.85	11.516
420.06	10.775
420.26	11.855
420.46	11.217
420.67	12.261
420.87	11.883
421.07	11.898
421.28	11.472
421.48	11.917
421.68	12.140
421.88	12.228
422.09	12.155
422.29	12.039
422.49	11.811
422.70	12.249
422.90	11.697
423.10	12.495
423.31	11.906
423.51	12.625
423.71	11.985
423.91	12.471
424.12	12.365
424.32	12.319
424.52	11.885
424.73	11.838
424.93	11.830
425.13	12.422
425.33	11.678
425.54	11.654
425.74	11.305
425.94	12.275
426.15	12.209
426.35	11.625
426.55	12.150
426.75	12.393
426.96	12.243
427.16	11.770
427.36	12.728
427.57	12.100
427.77	11.733
427.97	11.319
428.17	11.118
428.38	12.773
428.58	10.091
428.78	12.441
428.98	9.889
429.19	10.807
429.39	9.731
429.59	12.213
429.79	9.458
430.00	11.049
430.20	9.066
430.40	10.575
430.60	9.706
430.81	10.923
431.01	9.561
431.21	11.127
431.41	10.183
431.62	11.155
431.82	9.295
432.02	12.667
432.22	9.530
432.43	10.173
432.63	9.350
432.83	11.597
433.03	10.188
433.24	11.178
433.44	9.959
433.64	11.865
433.84	10.407
434.05	12.396
434.25	10.927
434.45	12.120
434.65	12.040
434.85	12.887
435.06	11.509
435.26	12.636
435.46	11.850
435.66	12.729
435.87	11.738
436.07	11.893
436.27	11.320
436.47	11.305
436.67	10.934
436.88	11.400
437.08	11.505
437.28	11.235
437.48	10.889
437.69	12.060
437.89	11.065
438.09	12.302
438.29	11.012
438.49	12.676
438.70	11.537
438.90	11.599
439.10	11.306
439.30	11.314
439.50	10.551
439.71	12.194
439.91	11.242
440.11	12.449
440.31	12.100
440.51	11.444
440.72	11.406
440.92	11.870
441.12	11.859
441.32	12.650
441.52	11.988
441.72	12.599
441.93	12.186
442.13	12.533
442.33	12.737
442.53	13.097
442.73	12.036
442.94	12.447
443.14	12.170
443.34	13.698
443.54	12.984
443.74	13.288
443.94	12.160
444.15	11.749
444.35	12.037
444.55	12.125
444.75	11.239
444.95	12.353
445.15	12.266
445.36	12.106
445.56	11.767
445.76	12.811
445.96	11.813
446.16	11.969
446.36	11.720
446.57	12.702
446.77	11.282
446.97	12.197
447.17	12.256
447.37	12.228
447.57	12.370
447.77	12.940
447.98	12.318
448.18	13.248
448.38	12.156
448.58	12.872
448.78	13.304
448.98	13.125
449.18	12.848
449.39	12.649
449.59	12.138
449.79	12.947
449.99	12.107
450.19	12.881
450.39	12.719
450.59	12.718
450.79	12.513
451.00	12.427
451.20	12.699
451.40	13.212
451.60	11.350
451.80	12.532
452.00	11.456
452.20	11.880
452.40	11.829
452.61	12.311
452.81	11.498
453.01	12.303
453.21	11.657
453.41	12.574
453.61	11.844
453.81	11.961
454.01	11.530
454.21	12.605
454.42	13.101
454.62	12.919
454.82	11.572
455.02	12.682
455.22	10.799
455.42	12.405
455.62	11.080
455.82	12.214
456.02	11.685
456.23	12.434
456.43	12.397
456.63	11.943
456.83	10.662
457.03	12.036
457.23	11.623
457.43	11.895
457.63	11.608
457.83	12.548
458.03	11.516
458.23	11.840
458.43	11.569
458.64	11.983
458.84	11.068
459.04	12.047
459.24	11.633
459.44	11.794
459.64	11.529
459.84	11.326
460.04	11.907
460.24	11.829
460.44	11.698
460.64	11.987
460.84	11.857
461.04	12.230
461.24	12.604
461.45	12.250
461.65	13.243
461.85	13.307
462.05	12.450
462.25	13.249
462.45	12.377
462.65	13.231
462.85	11.798
463.05	12.548
463.25	12.254
463.45	12.251
463.65	12.270
463.85	12.563
464.05	12.611
464.25	12.106
464.45	12.038
464.65	12.335
464.85	11.806
465.05	12.574
465.26	11.865
465.46	12.327
465.66	12.463
465.86	11.803
466.06	11.880
466.26	12.075
466.46	11.396
466.66	11.557
466.86	11.031
467.06	12.157
467.26	11.699
467.46	13.900
467.66	12.278
467.86	12.110
468.06	11.724
468.26	11.875
468.46	11.880
468.66	12.512
468.86	11.423
469.06	12.706
469.26	12.000
469.46	12.648
469.66	12.029
469.86	12.858
470.06	11.732
470.26	12.901
470.46	12.267
470.66	12.284
470.86	11.134
471.06	12.707
471.26	11.727
471.46	11.831
471.66	12.179
471.86	12.150
472.06	11.982
472.26	13.365
472.46	12.759
472.66	13.363
472.86	12.526
473.06	12.536
473.26	12.057
473.46	12.705
473.66	12.410
473.86	12.476
474.06	11.905
474.26	13.330
474.46	12.384
474.66	13.011
474.86	12.624
475.06	13.018
475.26	11.635
475.46	14.058
475.66	12.122
475.86	13.371
476.06	12.606
476.26	13.381
476.46	11.789
476.66	13.787
476.86	12.831
477.06	12.719
477.26	12.255
477.46	13.047
477.65	13.246
477.85	13.536
478.05	11.830
478.25	13.918
478.45	12.391
478.65	13.646
478.85	13.026
479.05	14.100
479.25	13.320
479.45	13.873
479.65	13.473
479.85	14.042
480.05	13.839
480.25	13.610
480.45	13.887
480.65	13.326
480.85	13.580
481.05	13.892
481.25	14.039
481.44	14.223
481.64	12.975
481.84	13.792
482.04	13.548
482.24	13.902
482.44	13.278
482.64	13.306
482.84	13.319
483.04	13.056
483.24	12.571
483.44	12.202
483.64	12.268
483.84	12.051
484.04	12.618
484.23	12.699
484.43	13.263
484.63	13.848
484.83	14.532
485.03	15.290
485.23	15.470
485.43	15.232
485.63	15.209
485.83	14.493
486.03	14.190
486.23	14.325
486.42	14.574
486.62	14.208
486.82	14.043
487.02	13.405
487.22	13.547
487.42	13.397
487.62	13.502
487.82	13.139
488.02	12.988
488.22	13.165
488.41	13.514
488.61	13.413
488.81	13.488
489.01	13.831
489.21	13.800
489.41	13.967
489.61	14.239
489.81	14.368
490.01	14.367
490.20	14.317
490.40	14.370
490.60	14.218
490.80	13.927
491.00	13.849
491.20	13.577
491.40	13.135
491.60	13.344
491.79	13.238
491.99	13.505
492.19	13.473
492.39	13.823
492.59	13.822
492.79	13.366
492.99	14.076
493.19	14.059
493.38	14.306
493.58	14.604
493.78	14.414
493.98	14.844
494.18	14.816
494.38	14.400
494.58	15.185
494.77	14.681
494.97	14.657
495.17	14.417
495.37	14.389
495.57	14.900
495.77	14.733
495.96	14.403
496.16	14.089
496.36	13.612
496.56	13.958
496.76	14.596
496.96	14.487
497.15	13.772
497.35	13.977
497.55	14.290
497.75	14.070
497.95	13.872
498.15	14.038
498.34	14.273
498.54	14.746
498.74	14.681
498.94	15.039
499.14	13.618
499.34	14.624
499.53	14.657
499.73	15.040
499.93	14.355
500.13	14.627
500.33	14.403
500.52	15.222
500.72	14.729
500.92	14.828
501.12	14.258
501.32	14.832
501.52	14.196
501.71	14.794
501.91	15.008
502.11	14.986
502.31	14.284
502.51	14.926
502.70	13.976
502.90	15.254
503.10	15.308
503.30	15.632
503.50	14.887
503.69	14.322
503.89	14.550
504.09	15.022
504.29	14.507
504.48	14.828
504.68	15.084
504.88	14.674
505.08	14.208
505.28	15.339
505.47	14.787
505.67	15.323
505.87	15.338
506.07	15.141
506.27	14.896
506.46	15.265
506.66	14.741
506.86	15.199
507.06	14.651
507.25	15.169
507.45	14.840
507.65	14.974
507.85	14.538
508.04	14.919
508.24	15.161
508.44	14.900
508.64	14.552
508.83	15.404
509.03	14.266
509.23	15.052
509.43	14.139
509.63	14.976
509.82	14.996
510.02	14.924
510.22	15.115
510.42	14.649
510.61	15.687
510.81	14.644
511.01	15.100
511.21	15.215
511.40	15.301
511.60	15.419
511.80	14.944
511.99	15.313
512.19	14.548
512.39	15.021
512.59	14.315
512.78	14.491
512.98	14.418
513.18	15.552
513.38	14.673
513.57	15.415
513.77	15.287
513.97	15.298
514.17	15.147
514.36	15.627
514.56	14.796
514.76	15.371
514.95	14.537
515.15	15.073
515.35	15.256
515.55	15.333
515.74	15.508
515.94	15.668
516.14	14.900
516.33	15.697
516.53	14.907
516.73	15.392
516.93	14.389
517.12	14.867
517.32	15.553
517.52	15.164
517.71	14.969
517.91	15.052
518.11	14.731
518.30	15.531
518.50	14.599
518.70	14.706
518.90	14.748
519.09	15.302
519.29	15.013
519.49	14.503
519.68	14.749
519.88	15.344
520.08	15.071
520.27	15.296
520.47	15.694
520.67	16.097
520.86	15.750
521.06	15.509
521.26	15.030
521.45	15.518
521.65	15.665
521.85	16.051
522.04	15.256
522.24	15.989
522.44	15.458
522.63	15.149
522.83	15.071
523.03	15.150
523.22	14.843
523.42	15.516
523.62	15.332
523.81	15.499
524.01	15.175
524.21	16.061
524.40	15.063
524.60	15.223
524.80	14.792
524.99	15.522
525.19	15.045
525.39	14.718
525.58	15.061
525.78	14.589
525.98	15.262
526.17	14.823
526.37	14.833
526.57	15.158
526.76	14.987
526.96	14.765
527.15	15.275
527.35	15.067
527.55	15.053
527.74	15.083
527.94	15.123
528.14	14.541
528.33	14.469
528.53	14.140
528.72	14.315
528.92	14.525
529.12	14.711
529.31	14.824
529.51	15.094
529.71	14.887
529.90	15.232
530.10	15.477
530.29	15.335
530.49	15.881
530.69	15.937
530.88	15.864
531.08	16.095
531.28	15.784
531.47	15.773
531.67	15.588
531.86	15.439
532.06	15.304
532.26	15.774
532.45	15.139
532.65	15.196
532.84	14.934
533.04	14.894
533.24	14.538
533.43	14.709
533.63	14.836
533.82	15.217
534.02	14.902
534.22	15.214
534.41	15.113
534.61	15.055
534.80	15.542
535.00	15.424
535.19	15.945
535.39	16.108
535.59	16.243
535.78	16.052
535.98	15.567
536.17	16.140
536.37	15.305
536.57	15.320
536.76	15.472
536.96	15.359
537.15	15.279
537.35	15.711
537.54	15.283
537.74	15.766
537.93	15.979
538.13	15.713
538.33	15.873
538.52	16.569
538.72	16.601
538.91	16.644
539.11	16.567
539.30	16.541
539.50	15.968
539.70	16.323
539.89	16.004
540.09	15.865
540.28	15.707
540.48	15.836
540.67	15.787
540.87	15.353
541.06	15.284
541.26	15.321
541.45	15.318
541.65	15.415
541.85	15.514
542.04	15.497
542.24	15.981
542.43	15.881
542.63	15.721
542.82	15.921
543.02	16.213
543.21	16.402
543.41	16.531
543.60	16.293
543.80	16.505
543.99	16.600
544.19	16.287
544.38	16.564
544.58	16.985
544.77	16.620
544.97	16.982
545.16	17.019
545.36	17.032
545.56	16.670
545.75	16.601
545.95	16.838
546.14	16.948
546.34	16.928
546.53	17.122
546.73	15.945
546.92	16.909
547.12	16.437
547.31	16.721
547.51	17.186
547.70	17.131
547.90	16.437
548.09	17.367
548.29	16.529
548.48	17.397
548.68	17.493
548.87	17.673
549.07	17.598
549.26	18.002
549.46	18.474
549.65	17.778
549.84	17.405
550.04	17.881
550.23	17.948
550.43	16.964
550.62	18.061
550.82	18.415
551.01	17.100
551.21	18.389
551.40	18.118
551.60	18.454
551.79	17.718
551.99	18.505
552.18	17.710
552.38	17.911
552.57	18.099
552.77	18.083
552.96	18.416
553.16	17.947
553.35	18.329
553.54	18.568
553.74	18.311
553.93	18.540
554.13	18.951
554.32	18.718
554.52	19.585
554.71	19.177
554.91	19.062
555.10	19.377
555.29	19.741
555.49	20.040
555.68	18.939
555.88	19.193
556.07	18.607
556.27	20.303
556.46	19.119
556.66	19.151
556.85	19.908
557.04	19.839
557.24	19.791
557.43	19.589
557.63	19.349
557.82	19.583
558.02	19.861
558.21	20.449
558.40	19.191
558.60	20.325
558.79	19.760
558.99	20.933
559.18	20.210
559.38	20.443
559.57	21.383
559.76	19.715
559.96	21.769
560.15	21.450
560.35	19.976
560.54	20.713
560.73	20.602
560.93	20.773
561.12	21.171
561.32	20.685
561.51	21.187
561.70	21.209
561.90	20.779
562.09	21.634
562.29	21.031
562.48	21.113
562.67	21.934
562.87	22.428
563.06	22.258
563.26	21.600
563.45	22.060
563.64	22.211
563.84	22.231
564.03	22.090
564.23	22.587
564.42	22.100
564.61	22.856
564.81	22.518
565.00	22.247
565.20	22.710
565.39	22.774
565.58	21.458
565.78	21.889
565.97	22.443
566.16	21.420
566.36	22.081
566.55	22.857
566.74	22.151
566.94	23.169
567.13	22.947
567.33	22.940
567.52	22.893
567.71	23.464
567.91	24.248
568.10	23.636
568.29	24.417
568.49	24.013
568.68	24.070
568.87	23.697
569.07	23.955
569.26	24.370
569.45	24.309
569.65	23.403
569.84	24.845
570.04	23.603
570.23	24.265
570.42	24.307
570.62	23.591
570.81	23.594
571.00	23.905
571.20	24.013
571.39	24.203
571.58	23.667
571.78	24.410
571.97	24.461
572.16	24.447
572.36	24.336
572.55	24.215
572.74	24.892
572.94	24.267
573.13	24.977
573.32	24.528
573.51	24.218
573.71	24.147
573.90	24.586
574.09	24.982
574.29	25.842
574.48	24.723
574.67	25.149
574.87	24.956
575.06	25.471
575.25	24.796
575.45	25.070
575.64	25.072
575.83	25.276
576.03	25.568
576.22	25.310
576.41	25.523
576.60	24.455
576.80	25.630
576.99	25.378
577.18	25.790
577.38	25.236
577.57	24.612
577.76	26.127
577.95	25.945
578.15	25.745
578.34	25.405
578.53	25.511
578.73	25.602
578.92	25.944
579.11	26.174
579.30	25.316
579.50	25.332
579.69	26.044
579.88	26.655
580.08	25.127
580.27	25.781
580.46	26.180
580.65	24.703
580.85	26.518
581.04	26.291
581.23	25.866
581.42	25.228
581.62	24.836
581.81	26.305
582.00	25.410
582.19	25.911
582.39	26.363
582.58	25.420
582.77	26.080
582.96	25.832
583.16	24.760
583.35	24.804
583.54	26.572
583.73	25.560
583.93	24.996
584.12	25.845
584.31	24.069
584.50	26.215
584.70	25.598
584.89	26.625
585.08	24.572
585.27	25.999
585.47	25.292
585.66	26.832
585.85	25.900
586.04	24.976
586.24	25.243
586.43	25.663
586.62	24.748
586.81	25.254
587.00	24.743
587.20	25.343
587.39	25.524
587.58	25.703
587.77	25.238
587.97	24.761
588.16	24.580
588.35	26.364
588.54	25.496
588.73	25.555
588.93	24.822
589.12	25.471
589.31	24.924
589.50	24.642
589.69	25.291
589.89	26.532
590.08	25.060
590.27	25.037
590.46	25.470
590.65	25.182
590.85	24.591
591.04	25.507
591.23	24.714
591.42	26.416
591.61	25.406
591.81	25.264
592.00	25.839
592.19	25.809
592.38	24.898
592.57	26.167
592.77	24.664
592.96	25.944
593.15	26.382
593.34	25.913
593.53	23.853
593.72	26.133
593.92	26.150
594.11	27.276
594.30	25.539
594.49	25.653
594.68	26.158
594.87	26.117
595.07	24.905
595.26	24.657
595.45	25.276
595.64	26.401
595.83	26.117
596.02	26.096
596.22	25.618
596.41	25.870
596.60	25.497
596.79	25.912
596.98	25.716
597.17	25.561
597.37	26.692
597.56	26.272
597.75	25.803
597.94	26.100
598.13	25.894
598.32	25.668
598.51	26.982
598.71	26.158
598.90	26.206
599.09	27.162
599.28	27.779
599.47	26.370
599.66	26.283
599.85	27.605
600.05	27.183
600.24	27.581
600.43	27.999
600.62	27.277
600.81	27.750
601.00	26.812
601.19	27.622
601.38	27.894
601.58	27.319
601.77	27.466
601.96	27.875
602.15	28.252
602.34	27.199
602.53	27.959
602.72	27.195
602.91	27.595
603.10	28.495
603.30	27.740
603.49	27.098
603.68	27.066
603.87	27.033
604.06	27.110
604.25	27.216
604.44	27.930
604.63	26.805
604.82	27.419
605.01	28.029
605.21	26.672
605.40	26.914
605.59	27.529
605.78	26.506
605.97	27.272
606.16	27.911
606.35	28.380
606.54	28.575
606.73	28.136
606.92	27.732
607.11	29.645
607.30	27.469
607.50	27.779
607.69	27.601
607.88	28.255
608.07	27.329
608.26	28.088
608.45	28.264
608.64	27.867
608.83	26.906
609.02	27.675
609.21	28.222
609.40	27.327
609.59	26.845
609.78	26.887
609.97	26.756
610.16	26.899
610.35	27.178
610.55	26.830
610.74	26.087
610.93	26.432
611.12	27.393
611.31	27.945
611.50	26.942
611.69	26.512
611.88	26.935
612.07	26.633
612.26	27.442
612.45	27.280
612.64	27.012
612.83	28.579
613.02	26.725
613.21	25.910
613.40	27.758
613.59	26.993
613.78	26.775
613.97	27.101
614.16	25.353
614.35	25.748
614.54	25.030
614.73	26.656
614.92	25.430
615.11	25.604
615.30	26.717
615.49	25.936
615.68	26.642
615.87	26.822
616.07	25.698
616.26	25.336
616.45	25.313
616.64	25.169
616.83	25.192
617.02	25.818
617.21	25.773
617.40	25.481
617.59	25.287
617.78	25.020
617.97	25.922
618.16	25.984
618.35	24.181
618.54	25.084
618.73	24.838
618.92	25.005
619.11	25.990
619.30	25.581
619.49	24.729
619.68	25.531
619.86	24.472
620.05	25.030
620.24	24.237
620.43	24.778
620.62	23.679
620.81	24.593
621.00	24.293
621.19	25.092
621.38	24.510
621.57	24.936
621.76	24.027
621.95	23.313
622.14	23.439
622.33	25.067
622.52	24.691
622.71	24.389
622.90	23.778
623.09	24.862
623.28	24.022
623.47	24.762
623.66	24.007
623.85	23.676
624.04	23.990
624.23	25.047
624.42	23.587
624.61	23.055
624.80	23.584
624.99	23.983
625.18	23.099
625.36	23.790
625.55	23.611
625.74	23.541
625.93	22.368
626.12	23.658
626.31	23.654
626.50	24.651
626.69	23.350
626.88	24.906
627.07	24.301
627.26	23.670
627.45	23.313
627.64	24.582
627.83	23.312
628.02	23.948
628.20	24.885
628.39	23.673
628.58	24.551
628.77	24.295
628.96	24.066
629.15	24.413
629.34	23.374
629.53	23.540
629.72	21.880
629.91	23.543
630.10	24.175
630.29	22.340
630.47	21.970
630.66	23.470
630.85	23.542
631.04	23.496
631.23	22.452
631.42	23.746
631.61	21.963
631.80	22.405
631.99	22.687
632.18	23.012
632.36	22.018
632.55	24.113
632.74	22.991
632.93	23.183
633.12	23.315
633.31	23.080
633.50	22.429
633.69	24.200
633.88	20.341
634.06	22.851
634.25	21.877
634.44	22.576
634.63	23.932
634.82	22.695
635.01	21.219
635.20	22.678
635.39	22.306
635.57	23.244
635.76	22.885
635.95	23.457
636.14	22.039
636.33	23.238
636.52	22.563
636.71	22.965
636.89	22.890
637.08	22.810
637.27	22.142
637.46	21.656
637.65	23.285
637.84	23.498
638.03	21.685
638.21	23.475
638.40	21.698
638.59	22.262
638.78	21.703
638.97	22.515
639.16	22.841
639.34	22.376
639.53	21.702
639.72	23.392
639.91	22.344
640.10	22.475
640.29	21.334
640.47	24.408
640.66	23.642
640.85	23.890
641.04	19.252
641.23	22.905
641.42	22.111
641.60	21.665
641.79	20.731
641.98	23.433
642.17	20.820
642.36	23.120
642.54	21.789
642.73	21.103
642.92	20.138
643.11	22.631
643.30	19.840
643.49	23.334
643.67	21.200
643.86	22.878
644.05	20.887
644.24	22.144
644.43	21.836
644.61	23.988
644.80	20.679
644.99	21.993
645.18	23.655
645.37	21.541
645.55	20.788
645.74	20.099
645.93	21.032
646.12	23.293
646.31	21.831
646.49	21.372
646.68	20.352
646.87	21.802
647.06	21.129
647.24	22.328
647.43	20.696
647.62	22.707
647.81	20.209
648.00	22.368
648.18	20.429
648.37	20.969
648.56	20.297
648.75	21.500
648.93	18.642
649.12	21.070
649.31	20.702
649.50	20.808
649.68	19.140
649.87	21.256
650.06	19.117
650.25	21.280
650.43	20.365
650.62	20.505
650.81	22.214
651.00	19.699
651.18	20.167
651.37	22.614
651.56	19.144
651.75	22.461
651.93	21.441
652.12	20.947
652.31	19.676
652.50	22.242
652.68	20.857
652.87	22.133
653.06	19.732
653.25	22.954
653.43	19.079
653.62	20.987
653.81	20.186
654.00	21.841
654.18	20.548
654.37	21.333
654.56	20.900
654.74	21.130
654.93	18.308
655.12	20.077
655.31	20.218
655.49	18.174
655.68	16.832
655.87	20.225
656.05	17.086
656.24	20.642
656.43	15.641
656.62	19.757
656.80	18.927
656.99	19.202
657.18	17.369
657.36	17.549
657.55	16.718
657.74	17.740
657.93	16.871
658.11	20.081
658.30	18.359
658.49	18.600
658.67	16.595
658.86	18.287
659.05	17.776
659.23	19.869
659.42	16.098
659.61	19.653
659.79	17.806
659.98	18.795
660.17	17.766
660.35	17.376
660.54	19.633
660.73	19.456
660.91	18.432
661.10	18.192
661.29	15.885
661.47	18.533
661.66	16.702
661.85	18.013
662.03	15.902
662.22	15.180
662.41	13.744
662.59	16.934
662.78	14.934
662.97	16.792
663.15	12.980
663.34	16.790
663.53	13.773
663.71	15.209
663.90	15.217
664.09	17.070
664.27	13.820
664.46	15.563
664.65	13.340
664.83	12.338
665.02	14.388
665.21	13.043
665.39	13.560
665.58	14.308
665.77	13.833
665.95	16.023
666.14	13.106
666.32	17.230
666.51	13.578
666.70	12.585
666.88	12.227
667.07	15.428
667.26	11.824
667.44	12.889
667.63	14.199
667.81	12.755
668.00	11.926
668.19	14.186
668.37	12.344
668.56	17.465
668.75	11.948
668.93	16.138
669.12	12.465
669.30	14.854
669.49	10.854
669.68	13.914
669.86	13.621
670.05	12.229
670.23	11.510
670.42	13.942
670.61	12.548
670.79	14.930
670.98	13.732
671.16	15.886
671.35	13.127
671.54	14.382
671.72	14.211
671.91	13.574
672.09	12.299
672.28	15.523
672.46	14.911
672.65	15.271
672.84	15.354
673.02	13.490
673.21	11.901
673.39	13.753
673.58	15.579
673.77	14.372
673.95	14.261
674.14	17.099
674.32	12.400
674.51	17.695
674.69	12.071
674.88	13.454
675.07	12.483
675.25	17.706
675.44	15.624
675.62	14.420
675.81	11.986
675.99	19.739
676.18	15.876
676.36	13.245
676.55	12.430
676.74	18.312
676.92	17.485
677.11	14.152
677.29	13.756
677.48	17.343
677.66	14.721
677.85	14.939
678.03	12.785
678.22	17.569
678.40	16.494
678.59	15.863
678.78	14.911
678.96	15.349
679.15	15.020
679.33	18.825
679.52	19.968
679.70	17.063
679.89	16.216
680.07	17.463
680.26	14.923
680.44	17.660
680.63	17.314
680.81	15.348
681.00	13.959
681.18	16.777
681.37	17.224
681.55	18.674
681.74	17.031
681.92	18.474
682.11	16.826
682.29	18.314
682.48	18.302
682.66	19.842
682.85	18.115
683.03	18.345
683.22	19.906
683.40	19.378
683.59	17.520
683.77	20.019
683.96	16.071
684.14	22.098
684.33	16.924
684.51	22.554
684.70	19.178
684.88	22.569
685.07	19.248
685.25	21.229
685.44	17.586
685.62	20.919
685.81	18.251
685.99	23.200
686.18	19.225
686.36	22.650
686.55	19.258
686.73	20.426
686.92	20.197
687.10	22.869
687.29	24.033
687.47	24.075
687.65	22.944
687.84	23.164
688.02	25.672
688.21	26.482
688.39	23.373
688.58	26.140
688.76	22.883
688.95	26.641
689.13	21.578
689.32	27.076
689.50	25.053
689.68	26.852
689.87	26.509
690.05	25.691
690.24	27.405
690.42	26.681
690.61	27.872
690.79	31.666
690.98	28.307
691.16	29.539
691.34	23.973
691.53	31.411
691.71	28.381
691.90	29.385
692.08	28.941
692.27	31.151
692.45	33.978
692.63	33.021
692.82	34.835
693.00	35.756
693.19	33.191
693.37	36.123
693.56	32.622
693.74	38.165
693.92	36.075
694.11	36.636
694.29	36.360
694.48	44.403
694.66	38.998
694.84	42.900
695.03	36.930
695.21	42.634
695.40	39.362
695.58	44.177
695.76	40.016
695.95	41.894
696.13	43.207
696.32	46.899
696.50	47.270
696.68	45.022
696.87	45.128
697.05	49.202
697.24	45.310
697.42	46.835
697.60	45.478
697.79	48.529
697.97	48.930
698.16	48.537
698.34	46.503
698.52	49.708
698.71	49.548
698.89	48.777
699.07	50.782
699.26	51.320
699.44	51.279
699.63	52.605
699.81	49.913
699.99	51.389
700.18	53.606
700.36	51.779
700.54	54.252
700.73	54.121
700.91	55.112
701.09	52.152
701.28	54.884
701.46	55.570
701.64	56.546
701.83	58.105
702.01	57.920
702.20	61.169
702.38	58.681
702.56	61.601
702.75	62.537
702.93	58.784
703.11	59.762
703.30	63.230
703.48	60.149
703.66	62.500
703.85	63.649
704.03	65.093
704.21	62.448
704.40	63.666
704.58	63.086
704.76	65.641
704.95	65.627
705.13	66.051
705.31	66.667
705.50	71.198
705.68	67.513
705.86	68.371
706.04	65.132
706.23	67.756
706.41	70.410
706.59	63.831
706.78	69.284
706.96	71.637
707.14	67.534
707.33	67.734
707.51	65.949
707.69	69.184
707.88	69.710
708.06	70.287
708.24	69.182
708.42	74.819
708.61	67.236
708.79	68.559
708.97	71.379
709.16	72.714
709.34	76.337
709.52	67.184
709.71	70.806
709.89	73.061
710.07	75.072
710.25	70.697
710.44	70.649
710.62	73.792
710.80	74.954
710.98	72.310
711.17	70.197
711.35	70.914
711.53	70.861
711.72	73.998
711.90	75.674
712.08	73.299
712.26	71.473
712.45	71.484
712.63	70.163
712.81	72.791
712.99	69.482
713.18	74.760
713.36	71.884
713.54	74.000
713.72	73.472
713.91	73.839
714.09	72.953
714.27	71.736
714.45	76.855
714.64	72.198
714.82	75.405
715.00	73.037
715.18	74.239
715.37	72.964
715.55	73.271
715.73	76.955
715.91	72.965
716.10	72.775
716.28	72.101
716.46	75.076
716.64	76.568
716.83	76.909
717.01	75.067
717.19	72.144
717.37	73.269
717.55	77.747
717.74	74.436
717.92	77.121
718.10	72.934
718.28	77.423
718.47	74.639
718.65	76.771
718.83	78.095
719.01	82.049
719.19	75.729
719.38	73.263
719.56	76.651
719.74	77.479
719.92	73.224
720.10	78.710
720.29	80.012
720.47	79.234
720.65	82.226
720.83	80.814
721.01	78.644
721.20	78.059
721.38	80.266
721.56	80.800
721.74	82.093
721.92	83.489
722.11	79.085
722.29	81.110
722.47	81.493
722.65	79.963
722.83	78.005
723.01	84.211
723.20	79.351
723.38	82.576
723.56	77.886
723.74	82.888
723.92	76.261
724.10	83.103
724.29	76.908
724.47	83.103
724.65	78.937
724.83	84.939
725.01	77.126
725.19	82.997
725.38	78.762
725.56	82.966
725.74	83.323
725.92	83.182
726.10	81.345
726.28	81.550
726.46	85.145
726.65	83.603
726.83	80.847
727.01	84.562
727.19	76.718
727.37	83.636
727.55	82.676
727.73	80.218
727.92	83.104
728.10	82.198
728.28	78.571
728.46	81.823
728.64	83.031
728.82	84.939
729.00	83.238
729.19	83.020
729.37	83.953
729.55	82.786
729.73	85.556
729.91	85.072
730.09	83.907
730.27	80.587
730.45	80.714
730.63	79.118
730.82	87.824
731.00	85.441
731.18	81.573
731.36	83.663
731.54	81.949
731.72	85.159
731.90	81.479
732.08	84.520
732.26	82.488
732.45	84.430
732.63	92.060
732.81	83.920
732.99	82.867
733.17	85.593
733.35	82.733
733.53	84.518
733.71	82.025
733.89	86.743
734.07	86.449
734.25	88.808
734.44	82.170
734.62	80.910
734.80	88.242
734.98	84.416
735.16	89.168
735.34	88.738
735.52	87.283
735.70	88.767
735.88	88.555
736.06	86.395
736.24	93.624
736.42	88.263
736.60	89.749
736.78	91.269
736.97	90.014
737.15	90.443
737.33	94.223
737.51	88.897
737.69	94.101
737.87	88.419
738.05	96.195
738.23	93.271
738.41	91.075
738.59	90.941
738.77	92.790
738.95	94.957
739.13	89.817
739.31	87.796
739.49	93.502
739.67	90.318
739.85	91.397
740.03	89.803
740.21	88.125
740.39	91.552
740.57	95.926
740.75	91.238
740.93	89.802
741.11	90.775
741.30	99.248
741.48	98.183
741.66	95.313
741.84	87.414
742.02	85.795
742.20	91.832
742.38	90.944
742.56	91.982
742.74	96.065
742.92	91.707
743.10	95.709
743.28	93.735
743.46	98.320
743.64	99.755
743.82	94.723
744.00	97.030
744.18	92.195
744.36	89.517
744.54	94.369
744.72	95.724
744.90	102.344
745.08	102.539
745.26	87.219
745.44	96.652
745.62	90.653
745.80	91.167
745.98	98.094
746.16	99.387
746.34	89.526
746.52	97.156
746.70	96.577
746.87	93.722
747.05	91.254
747.23	92.619
747.41	96.892
747.59	94.387
747.77	90.762
747.95	101.166
748.13	92.014
748.31	100.758
748.49	95.732
748.67	94.521
748.85	91.293
749.03	103.568
749.21	99.816
749.39	96.827
749.57	88.075
749.75	97.215
749.93	105.748
750.11	96.331
750.29	94.878
750.47	96.561
750.65	96.809
750.83	97.103
751.01	93.823
751.18	92.354
751.36	94.926
751.54	91.247
751.72	92.000
751.90	98.504
752.08	100.365
752.26	96.226
752.44	88.717
752.62	96.390
752.80	97.150
752.98	100.643
753.16	100.272
753.34	100.539
753.52	99.276
753.69	95.073
753.87	98.287
754.05	99.736
754.23	98.840
754.41	98.460
754.59	93.957
754.77	99.567
754.95	93.939
755.13	95.427
755.31	89.941
755.49	93.649
755.66	90.676
755.84	93.362
756.02	91.793
756.20	98.775
756.38	96.875
756.56	94.401
756.74	97.911
756.92	91.126
757.10	93.303
757.28	104.913
757.45	98.270
757.63	96.740
757.81	102.239
757.99	102.801
758.17	91.522
758.35	92.930
758.53	94.128
758.71	94.626
758.88	97.266
759.06	95.687
759.24	91.593
759.42	90.034
759.60	93.821
759.78	92.274
759.96	83.306
760.13	88.318
760.31	76.288
760.49	86.930
760.67	77.720
760.85	75.903
761.03	75.873
761.21	84.111
761.38	72.884
761.56	83.234
761.74	70.155
761.92	85.606
762.10	75.720
762.28	81.140
762.46	77.460
762.63	80.602
762.81	76.504
762.99	79.706
763.17	74.346
763.35	82.060
763.53	77.898
763.70	77.792
763.88	81.475
764.06	82.806
764.24	77.760
764.42	80.850
764.60	79.023
764.77	74.898
764.95	80.773
765.13	84.159
765.31	82.528
765.49	79.365
765.66	79.768
765.84	84.477
766.02	83.599
766.20	83.747
766.38	85.025
766.56	87.992
766.73	83.764
766.91	88.298
767.09	87.734
767.27	93.456
767.45	87.182
767.62	89.217
767.80	86.783
767.98	90.917
768.16	90.925
768.33	92.414
768.51	91.974
768.69	92.672
768.87	92.153
769.05	93.987
769.22	93.927
769.40	99.596
769.58	96.798
769.76	93.037
769.94	96.186
770.11	96.352
770.29	97.052
770.47	104.515
770.65	98.470
770.82	99.249
771.00	103.135
771.18	97.894
771.36	103.502
771.53	101.364
771.71	97.857
771.89	103.189
772.07	101.415
772.25	105.535
772.42	96.748
772.60	108.373
772.78	105.860
772.96	99.534
773.13	96.253
773.31	107.099
773.49	97.766
773.67	104.245
773.84	98.846
774.02	106.312
774.20	96.261
774.37	105.578
774.55	108.719
774.73	108.466
774.91	96.757
775.08	104.370
775.26	104.453
775.44	103.974
775.62	103.324
775.79	100.911
775.97	105.000
776.15	94.855
776.32	108.987
776.50	102.522
776.68	100.659
776.86	109.143
777.03	105.593
777.21	97.987
777.39	104.360
777.56	107.672
777.74	110.974
777.92	112.824
778.10	105.991
778.27	105.340
778.45	103.883
778.63	110.724
778.80	104.218
778.98	94.213
779.16	100.677
779.34	109.227
779.51	99.291
779.69	104.861
779.87	97.760
780.04	93.631
780.22	103.290
780.40	100.519
780.57	100.132
780.75	95.712
780.93	94.723
781.10	100.000
781.28	109.170
781.46	102.479
781.63	111.392
781.81	111.190
781.99	96.170
782.16	101.166
782.34	96.238
782.52	112.696
782.69	91.126
782.87	99.426
783.05	94.502
783.22	102.312
783.40	102.410
783.58	115.408
783.75	98.949
783.93	100.000
784.11	105.280
784.28	104.079
784.46	92.760
784.64	104.715
784.81	101.340
784.99	109.569
785.17	110.000
785.34	104.414
785.52	99.371
785.69	96.965
785.87	98.061
786.05	97.496
786.22	103.035
786.40	114.901
786.58	97.063
786.75	101.780
786.93	96.123
787.11	103.648
787.28	113.692
787.46	102.615
787.63	104.286
787.81	102.482
787.99	100.743
788.16	97.274
788.34	98.273
788.51	101.458
788.69	90.188
788.87	97.908
789.04	89.495
789.22	91.508
789.39	98.017
789.57	90.476
789.75	100.000
789.92	104.814
790.10	92.683
790.27	93.629
790.45	88.522
790.63	100.418
790.80	91.678
790.98	101.471
791.15	95.427
791.33	88.478
791.51	92.605
791.68	111.552
791.86	90.644
792.03	96.142
792.21	101.314
792.39	94.444
792.56	103.295
792.74	102.047
792.91	91.366
793.09	97.623
793.26	93.333
793.44	101.815
793.62	93.207
793.79	107.772
793.97	97.582
794.14	107.207
794.32	103.339
794.49	100.510
794.67	91.653
794.84	94.586
795.02	103.540
795.20	111.475
795.37	92.034
795.55	93.559
795.72	91.918
795.90	87.184
796.07	92.525
796.25	89.815
796.42	94.318
796.60	95.341
796.77	89.540
796.95	99.848
797.13	81.887
797.30	100.000
797.48	85.630
797.65	92.330
797.83	86.486
798.00	95.200
798.18	92.982
798.35	99.839
798.53	92.793
798.70	98.981
798.88	95.938
799.05	90.789
799.23	88.444
799.40	103.448
799.58	96.392
799.75	94.327
799.93	82.780
800.10	91.593
800.28	95.486
800.45	94.787
800.63	94.766
800.80	99.642
800.98	106.102
801.15	98.791
801.33	96.673
801.50	100.650
801.68	94.333
801.85	94.346
802.03	103.564
802.20	96.014
802.38	87.201
802.55	94.690
802.73	95.455
802.90	96.569
803.08	99.436
803.25	104.373
803.43	96.828
803.60	106.445
803.78	85.205
803.95	88.989
804.13	94.912
804.30	106.770
804.48	93.023
804.65	96.086
804.83	89.510
805.00	90.925
805.17	89.871
805.35	105.294
805.52	93.939
805.70	99.132
805.87	99.389
806.05	100.821
806.22	88.391
806.40	87.895
806.57	88.398
806.75	98.780
806.92	91.068
807.09	100.583
807.27	91.860
807.44	101.136
807.62	105.545
807.79	90.452
807.97	94.934
808.14	103.091
808.31	84.404
808.49	87.852
808.66	82.657
808.84	108.740
809.01	86.891
809.19	94.336
809.36	92.948
809.53	93.542
809.71	85.487
809.88	98.950
810.06	94.355
810.23	86.522
810.41	88.525
810.58	95.113
810.75	83.985
810.93	97.500
811.10	96.654
811.28	93.227
811.45	97.039
811.62	98.458
811.80	89.207
811.97	94.091
812.15	89.738
812.32	94.000
812.49	99.274
812.67	93.534
812.84	91.011
813.02	91.358
813.19	83.000
813.36	86.117
813.54	89.325
813.71	85.745
813.89	86.441
814.06	90.448
814.23	90.985
814.41	90.428
814.58	88.511
814.75	88.780
814.93	81.614
815.10	87.872
815.28	82.324
815.45	76.202
815.62	86.270
815.80	72.545
815.97	76.647
816.14	97.208
816.32	81.897
816.49	78.719
816.66	79.318
816.84	85.072
817.01	90.714
817.18	80.632
817.36	90.476
817.53	89.842
817.71	68.706
817.88	88.714
818.05	67.376
818.23	82.874
818.40	75.803
818.57	80.225
818.75	74.178
818.92	90.487
819.09	82.759
819.27	87.967
819.44	79.212
819.61	87.652
819.79	72.929
819.96	81.226
820.13	73.390
820.31	82.137
820.48	88.151
820.65	86.935
820.82	82.165
821.00	83.520
821.17	70.707
821.34	85.020
821.52	82.512
821.69	77.778
821.86	80.697
822.04	85.238
822.21	78.533
822.38	83.455
822.56	77.064
822.73	77.267
822.90	82.289
823.07	75.985
823.25	75.538
823.42	76.233
823.59	76.541
823.77	73.842
823.94	73.874
824.11	74.212
824.29	73.471
824.46	73.968
824.63	77.440
824.80	77.320
824.98	81.612
825.15	75.958
825.32	77.108
825.49	83.286
825.67	79.486
825.84	79.627
826.01	79.932
826.19	83.041
826.36	79.769
826.53	78.849
826.70	77.008
826.88	87.347
827.05	81.710
827.22	86.065
827.39	80.201
827.57	82.699
827.74	78.083
827.91	78.851
828.08	77.877
828.26	82.502
828.43	77.019
828.60	79.113
828.77	78.027
828.95	80.233
829.12	71.848
829.29	75.397
829.46	69.191
829.64	78.249
829.81	67.749
829.98	83.133
830.15	72.914
830.32	69.009
830.50	72.044
830.67	81.732
830.84	63.660
831.01	75.038
831.19	75.370
831.36	79.268
831.53	78.261
831.70	78.626
831.87	76.494
832.05	84.502
832.22	90.426
832.39	71.116
832.56	74.403
832.74	78.170
832.91	78.035
833.08	80.505
833.25	64.457
833.42	72.323
833.60	72.939
833.77	66.619
833.94	70.013
834.11	74.394
834.28	70.818
834.45	79.185
834.63	71.770
834.80	78.211
834.97	72.522
835.14	81.976
835.31	71.572
835.49	72.863
835.66	65.749
835.83	71.209
836.00	78.052
836.17	71.429
836.34	73.391
836.52	77.308
836.69	73.645
836.86	83.445
837.03	85.231
837.20	78.977
837.37	70.067
837.55	77.127
837.72	71.322
837.89	82.143
838.06	83.816
838.23	80.842
838.40	76.145
838.58	71.198
838.75	84.049
838.92	90.435
839.09	82.595
839.26	87.606
839.43	106.597
839.60	100.965
839.78	97.516
839.95	92.262
840.12	97.368
840.29	93.906
840.46	102.492
840.63	82.271
840.80	92.348
840.98	100.000
841.15	82.487
841.32	90.782
841.49	92.011
841.66	88.108
841.83	71.395
842.00	90.085
842.17	100.000
842.34	79.109
842.52	85.152
842.69	88.924
842.86	91.941
843.03	111.254
843.20	90.778
843.37	98.810
843.54	102.730
843.71	108.750
843.88	100.000
844.06	125.424
844.23	124.153
844.40	120.763
844.57	104.959
844.74	105.603
844.91	114.428
845.08	131.638
845.25	142.553
845.42	125.698
845.59	93.852
845.76	131.183
845.94	141.667
846.11	116.337
846.28	94.024
846.45	139.785
846.62	110.000
846.79	94.937
846.96	119.231
847.13	146.739
847.30	135.028
847.47	138.660
847.64	104.082
847.81	172.794
847.98	146.486
848.15	131.285
848.32	124.870
848.50	125.500
848.67	129.586
848.84	144.379
849.01	152.518
849.18	127.059
849.35	117.619
849.52	96.825
849.69	117.582
849.86	170.946
850.03	150.413
850.20	157.333
850.37	120.000
850.54	138.830
850.71	125.000
850.88	147.742
851.05	123.913
851.22	132.530
851.39	131.551
851.56	207.759
851.73	139.881
851.90	137.255
852.07	149.708
852.24	148.366
852.41	101.523
852.58	137.158
852.75	125.000
852.92	114.365
853.09	137.255
853.26	133.333
853.43	130.588
853.60	160.544
853.77	125.698
853.94	147.788
854.11	122.222
854.28	158.333
854.45	131.169
854.62	138.372
854.79	143.636
854.96	155.556
855.13	126.415
855.30	137.956
855.47	179.839
855.64	115.528
855.81	141.727
855.98	147.328
856.15	175.385
856.32	102.844
856.49	146.893
856.66	116.026
856.83	109.434
857.00	143.443
857.17	142.742
857.34	114.674
857.51	125.352
857.68	114.796
857.85	133.529
858.02	140.816
858.19	109.945
858.36	122.989
858.53	124.852
858.70	148.901
858.87	140.000
859.04	140.000
859.21	173.485
859.38	108.756
859.55	114.773
859.72	137.500
859.89	164.336
860.05	180.576
860.22	139.394
860.39	168.103
860.56	130.357
860.73	126.190
860.90	125.150
861.07	142.000
861.24	91.176
861.41	131.792
861.58	131.818
861.75	182.677
861.92	146.875
862.09	123.116
862.26	134.194
862.43	158.667
862.59	106.579
862.76	121.762
862.93	170.000
863.10	168.382
863.27	153.077
863.44	121.138
863.61	137.681
863.78	135.294
863.95	122.561
864.12	206.410
864.29	189.831
864.45	105.031
864.62	149.593
864.79	126.471
864.96	192.308
865.13	150.365
865.30	171.429
865.47	122.069
865.64	187.413
865.81	164.035
865.97	105.660
866.14	100.000
866.31	153.279
866.48	132.394
866.65	121.472
866.82	150.336
866.99	177.857
867.16	131.008
867.33	136.170
867.49	127.108
867.66	165.672
867.83	94.643
868.00	117.204
868.17	175.573
868.34	164.567
868.51	127.465
868.67	139.286
868.84	103.704
869.01	146.207
869.18	167.200
869.35	119.149
869.52	148.905
869.69	164.179
869.85	146.622
870.02	111.957
870.19	173.077
870.36	158.273
870.53	221.429
870.70	170.536
870.86	131.818
871.03	135.766
871.20	163.866
871.37	142.604
871.54	155.660
871.71	130.303
871.87	192.784
872.04	90.625
872.21	137.121
872.38	216.867
872.55	142.857
872.72	122.464
872.88	121.667
873.05	113.904
873.22	170.833
873.39	113.415
873.56	112.230
873.72	122.652
873.89	131.210
874.06	103.279
874.23	137.681
874.40	160.800
874.56	168.939
874.73	194.167
874.90	123.973
875.07	135.115
875.24	118.902
875.40	187.500
875.57	161.905
875.74	134.375
875.91	150.794
876.08	107.857
876.24	153.846
876.41	152.632
876.58	140.146
876.75	113.548
876.92	208.974
877.08	134.307
877.25	105.195
877.42	141.538
877.59	110.843
877.75	101.887
877.92	115.116
878.09	130.263
878.26	136.986
878.42	143.704
878.59	132.955
878.76	108.466
878.93	172.848
879.09	126.531
879.26	115.385
879.43	111.979
879.60	112.727
879.76	96.410
879.93	115.736
880.10	83.256
880.27	81.333
880.43	98.980
880.60	105.634
880.77	91.765
880.94	76.429
881.10	71.379
881.27	77.072
881.44	53.145
881.61	72.233
881.77	65.498
881.94	58.517
882.11	54.882
882.28	61.957
882.44	60.809
882.61	59.835
882.78	63.501
882.94	76.578
883.11	68.247
883.28	68.333
883.45	69.570
883.61	73.894
883.78	65.346
883.95	71.116
884.11	61.915
884.28	70.116
>>>>>End Processed Spectral Data<<<<<
