SpectraSuite Data File
++++++++++++++++++++++++++++++++++++
Date: Thu Sep 19 03:30:44 EST 2019
User: sgrac
Dark Spectrum Present: Yes
Reference Spectrum Present: Yes
Number of Sampled Component Spectra: 1
Spectrometers: USB4E01596
Integration Time (usec): 100000 (USB4E01596)
Spectra Averaged: 1 (USB4E01596)
Boxcar Smoothing: 0 (USB4E01596)
Correct for Electrical Dark: No (USB4E01596)
Strobe/Lamp Enabled: Yes (USB4E01596)
Correct for Detector Non-linearity: No (USB4E01596)
Correct for Stray Light: No (USB4E01596)
Number of Pixels in Processed Spectrum: 3648
>>>>>Begin Processed Spectral Data<<<<<
178.44	892.857
178.66	892.857
178.87	892.857
179.09	-1045.455
179.30	135.714
179.52	1900.000
179.74	-711.111
179.95	738.095
180.17	1527.273
180.38	334.328
180.60	0.000
180.82	570.968
181.03	301.852
181.25	2500.000
181.46	1238.462
181.68	-246.512
181.89	1250.000
182.11	750.000
182.33	740.741
182.54	1583.333
182.76	650.000
182.97	-528.571
183.19	369.048
183.40	354.545
183.62	657.143
183.84	1887.500
184.05	1106.667
184.27	-9150.000
184.48	249.206
184.70	8500.000
184.91	626.923
185.13	315.493
185.34	-201.923
185.56	648.148
185.78	457.692
185.99	-3625.000
186.21	-1400.000
186.42	-340.000
186.64	1053.333
186.85	-7350.000
187.07	595.455
187.28	1100.000
187.50	800.000
187.72	372.222
187.93	1161.111
188.15	915.789
188.36	1170.588
188.58	523.077
188.79	2100.000
189.01	812.500
189.22	3060.000
189.44	915.000
189.65	-7533.333
189.87	4350.000
190.09	1211.765
190.30	2271.429
190.52	1200.000
190.73	-423.077
190.95	325.000
191.16	633.333
191.38	508.333
191.59	-1245.455
191.81	763.636
192.02	1153.333
192.24	665.385
192.45	1875.000
192.67	2800.000
192.88	-514.815
193.10	-20900.000
193.31	500.000
193.53	-852.381
193.74	-3775.000
193.96	2400.000
194.18	800.000
194.39	460.976
194.61	852.632
194.82	1663.636
195.04	600.000
195.25	4666.667
195.47	378.947
195.68	894.118
195.90	402.326
196.11	696.154
196.33	-1666.667
196.54	-926.316
196.76	754.545
196.97	1711.111
197.19	-16200.000
197.40	1500.000
197.62	2900.000
197.83	1069.231
198.05	632.143
198.26	455.000
198.48	455.882
198.69	-1766.667
198.91	850.000
199.12	531.429
199.34	-1957.143
199.55	263.158
199.77	391.304
199.98	-1454.545
200.20	740.000
200.41	7200.000
200.63	542.857
200.84	714.286
201.06	-1269.231
201.27	-2320.000
201.49	1241.667
201.70	837.500
201.91	-9250.000
202.13	1000.000
202.34	336.957
202.56	6900.000
202.77	706.250
202.99	414.000
203.20	557.576
203.42	-2542.857
203.63	3383.333
203.85	580.556
204.06	569.565
204.28	1687.500
204.49	-1590.000
204.71	507.317
204.92	433.333
205.14	393.333
205.35	280.000
205.56	2533.333
205.78	904.545
205.99	-1470.000
206.21	726.087
206.42	277.966
206.64	-2500.000
206.85	719.048
207.07	784.211
207.28	-3100.000
207.50	303.704
207.71	987.500
207.93	322.917
208.14	559.259
208.35	888.235
208.57	-628.000
208.78	-336.585
209.00	325.581
209.21	473.810
209.43	616.000
209.64	11100.000
209.86	661.905
210.07	503.448
210.28	-1230.769
210.50	1188.235
210.71	625.000
210.93	603.125
211.14	277.143
211.36	371.739
211.57	720.000
211.78	487.179
212.00	1066.667
212.21	1088.235
212.43	1146.667
212.64	570.000
212.86	242.308
213.07	568.966
213.29	670.000
213.50	570.968
213.71	470.000
213.93	2571.429
214.14	1070.588
214.36	1837.500
214.57	311.268
214.78	1086.667
215.00	1057.895
215.21	900.000
215.43	207.595
215.64	540.741
215.86	1240.000
216.07	736.842
216.28	282.222
216.50	9000.000
216.71	-9700.000
216.93	677.778
217.14	280.303
217.35	511.429
217.57	3275.000
217.78	374.286
218.00	4533.333
218.21	512.500
218.42	340.625
218.64	-8950.000
218.85	384.314
219.07	2214.286
219.28	277.049
219.49	-1141.667
219.71	1787.500
219.92	245.946
220.14	1950.000
220.35	327.273
220.56	1046.154
220.78	350.877
220.99	442.857
221.21	179.381
221.42	682.609
221.63	9850.000
221.85	712.500
222.06	520.000
222.28	232.000
222.49	-1888.889
222.70	305.556
222.92	-8950.000
223.13	336.842
223.34	225.000
223.56	1300.000
223.77	200.000
223.99	406.667
224.20	236.667
224.41	216.000
224.63	6800.000
224.84	5666.667
225.05	1007.692
225.27	423.077
225.48	395.000
225.69	215.294
225.91	293.750
226.12	240.580
226.34	465.625
226.55	217.647
226.76	301.961
226.98	220.455
227.19	183.333
227.40	350.000
227.62	197.260
227.83	152.679
228.04	183.117
228.26	116.964
228.47	145.000
228.69	88.235
228.90	74.405
229.11	82.969
229.33	76.077
229.54	66.390
229.75	51.590
229.97	56.402
230.18	63.787
230.39	48.485
230.61	52.560
230.82	64.452
231.03	53.503
231.25	65.436
231.46	54.762
231.67	56.226
231.89	52.381
232.10	74.340
232.31	84.375
232.53	84.862
232.74	75.229
232.95	82.353
233.17	84.103
233.38	79.474
233.59	96.067
233.81	93.210
234.02	95.429
234.23	68.041
234.45	94.091
234.66	85.057
234.87	97.093
235.09	75.000
235.30	84.951
235.51	83.857
235.73	88.384
235.94	59.821
236.15	89.925
236.36	77.333
236.58	72.727
236.79	71.121
237.00	71.486
237.22	86.772
237.43	80.545
237.64	87.578
237.86	85.377
238.07	89.496
238.28	72.441
238.50	68.900
238.71	87.047
238.92	66.038
239.13	81.183
239.35	68.465
239.56	86.111
239.77	113.661
239.99	54.839
240.20	82.879
240.41	70.079
240.63	48.358
240.84	57.965
241.05	54.730
241.26	52.381
241.48	50.153
241.69	38.753
241.90	35.862
242.12	36.196
242.33	39.773
242.54	26.218
242.75	22.727
242.97	35.127
243.18	15.081
243.39	21.149
243.61	24.704
243.82	27.382
244.03	23.087
244.24	22.760
244.46	25.204
244.67	23.570
244.88	26.055
245.09	31.683
245.31	32.787
245.52	23.427
245.73	38.995
245.95	55.159
246.16	38.393
246.37	32.492
246.58	32.000
246.80	29.862
247.01	29.621
247.22	18.591
247.43	24.383
247.65	18.198
247.86	16.563
248.07	10.158
248.28	15.603
248.50	17.620
248.71	11.118
248.92	13.837
249.13	14.172
249.35	12.641
249.56	13.853
249.77	14.602
249.98	15.544
250.20	21.154
250.41	25.831
250.62	29.171
250.83	20.839
251.05	27.312
251.26	29.617
251.47	30.388
251.68	27.568
251.90	21.182
252.11	30.616
252.32	22.491
252.53	26.100
252.75	25.544
252.96	28.846
253.17	19.342
253.38	25.579
253.59	26.296
253.81	26.829
254.02	22.800
254.23	21.457
254.44	22.429
254.66	23.856
254.87	31.525
255.08	28.419
255.29	41.603
255.50	33.605
255.72	31.961
255.93	36.996
256.14	43.103
256.35	33.411
256.57	40.049
256.78	33.333
256.99	32.649
257.20	44.050
257.41	30.722
257.63	30.639
257.84	32.068
258.05	29.693
258.26	26.206
258.47	34.319
258.69	26.459
258.90	22.576
259.11	18.605
259.32	22.776
259.53	18.135
259.75	16.305
259.96	13.424
260.17	15.165
260.38	13.302
260.59	13.402
260.81	10.872
261.02	11.774
261.23	12.744
261.44	13.266
261.65	9.883
261.87	13.712
262.08	12.485
262.29	16.707
262.50	11.089
262.71	12.859
262.92	18.443
263.14	13.304
263.35	10.647
263.56	13.263
263.77	21.154
263.98	17.680
264.20	24.913
264.41	16.373
264.62	21.739
264.83	18.373
265.04	31.698
265.25	22.909
265.47	22.880
265.68	25.802
265.89	27.248
266.10	20.499
266.31	23.619
266.52	20.071
266.74	21.739
266.95	19.568
267.16	15.513
267.37	17.065
267.58	17.123
267.79	19.108
268.01	21.107
268.22	16.266
268.43	17.718
268.64	16.667
268.85	12.197
269.06	19.408
269.27	19.021
269.49	19.519
269.70	14.369
269.91	15.636
270.12	18.802
270.33	18.632
270.54	16.667
270.75	15.913
270.97	19.285
271.18	13.072
271.39	17.881
271.60	17.089
271.81	14.566
272.02	13.339
272.23	16.101
272.45	12.857
272.66	10.836
272.87	16.738
273.08	10.688
273.29	13.393
273.50	10.849
273.71	12.840
273.92	12.281
274.14	10.635
274.35	11.417
274.56	18.575
274.77	13.141
274.98	16.940
275.19	11.559
275.40	12.338
275.61	14.725
275.83	16.569
276.04	15.188
276.25	16.667
276.46	17.748
276.67	16.869
276.88	19.069
277.09	22.007
277.30	16.257
277.51	14.844
277.73	12.753
277.94	13.102
278.15	17.857
278.36	18.814
278.57	14.057
278.78	14.919
278.99	16.799
279.20	15.842
279.41	16.281
279.62	16.465
279.84	14.915
280.05	16.760
280.26	14.982
280.47	18.885
280.68	19.366
280.89	17.603
281.10	17.066
281.31	15.948
281.52	18.159
281.73	14.297
281.94	10.396
282.16	17.863
282.37	12.199
282.58	14.348
282.79	17.842
283.00	15.216
283.21	10.828
283.42	11.806
283.63	13.770
283.84	12.628
284.05	13.957
284.26	13.722
284.47	12.492
284.68	14.647
284.89	13.215
285.11	13.974
285.32	10.554
285.53	14.067
285.74	15.403
285.95	13.302
286.16	12.635
286.37	10.892
286.58	12.374
286.79	11.439
287.00	13.623
287.21	7.875
287.42	11.782
287.63	10.394
287.84	12.206
288.05	13.983
288.26	12.169
288.48	14.692
288.69	10.156
288.90	13.597
289.11	13.002
289.32	14.126
289.53	11.473
289.74	10.923
289.95	13.596
290.16	13.345
290.37	10.791
290.58	10.192
290.79	10.283
291.00	12.421
291.21	11.738
291.42	9.302
291.63	9.881
291.84	12.514
292.05	11.221
292.26	8.348
292.47	9.332
292.68	10.368
292.89	11.302
293.10	14.416
293.31	13.238
293.52	10.958
293.73	12.125
293.94	15.047
294.15	15.252
294.36	9.719
294.57	15.717
294.79	12.328
295.00	9.904
295.21	13.115
295.42	13.739
295.63	14.644
295.84	10.947
296.05	10.217
296.26	9.670
296.47	10.859
296.68	9.096
296.89	12.043
297.10	9.916
297.31	10.137
297.52	10.786
297.73	9.586
297.94	8.123
298.15	9.510
298.36	10.004
298.57	8.496
298.78	9.793
298.99	7.131
299.20	9.921
299.41	9.903
299.62	8.055
299.83	10.315
300.04	9.631
300.25	13.400
300.46	11.469
300.67	11.323
300.88	12.816
301.09	11.571
301.30	12.722
301.50	12.429
301.71	14.172
301.92	12.918
302.13	11.591
302.34	12.574
302.55	12.758
302.76	10.253
302.97	9.829
303.18	11.365
303.39	12.950
303.60	7.578
303.81	11.609
304.02	10.414
304.23	11.905
304.44	12.523
304.65	10.529
304.86	11.024
305.07	10.892
305.28	11.047
305.49	10.171
305.70	11.423
305.91	10.189
306.12	14.123
306.33	10.819
306.54	12.081
306.75	12.985
306.96	18.696
307.17	11.627
307.38	10.739
307.58	12.343
307.79	12.023
308.00	14.004
308.21	12.384
308.42	12.292
308.63	13.955
308.84	9.542
309.05	11.690
309.26	10.767
309.47	11.536
309.68	10.610
309.89	11.722
310.10	10.311
310.31	9.110
310.52	7.858
310.73	9.718
310.94	6.022
311.14	9.643
311.35	10.107
311.56	7.548
311.77	7.765
311.98	9.679
312.19	6.762
312.40	9.898
312.61	7.660
312.82	8.376
313.03	8.674
313.24	10.090
313.45	10.666
313.66	9.378
313.86	12.708
314.07	9.063
314.28	14.185
314.49	9.326
314.70	12.849
314.91	15.249
315.12	11.553
315.33	12.049
315.54	9.275
315.75	10.655
315.96	9.122
316.16	9.766
316.37	11.272
316.58	11.371
316.79	10.414
317.00	12.661
317.21	10.529
317.42	15.376
317.63	12.257
317.84	9.612
318.05	10.273
318.25	13.926
318.46	9.748
318.67	9.736
318.88	10.504
319.09	9.579
319.30	11.345
319.51	11.402
319.72	10.562
319.93	10.880
320.13	12.321
320.34	13.271
320.55	10.846
320.76	11.262
320.97	11.927
321.18	11.392
321.39	11.153
321.60	11.576
321.80	15.789
322.01	11.302
322.22	11.536
322.43	11.538
322.64	9.091
322.85	12.258
323.06	11.942
323.27	12.703
323.47	12.087
323.68	13.153
323.89	9.624
324.10	14.607
324.31	8.243
324.52	6.506
324.73	9.891
324.93	9.726
325.14	9.690
325.35	9.546
325.56	9.256
325.77	13.181
325.98	9.347
326.19	12.486
326.39	7.491
326.60	10.524
326.81	11.837
327.02	10.673
327.23	6.910
327.44	11.675
327.64	8.119
327.85	9.844
328.06	11.750
328.27	12.913
328.48	11.740
328.69	9.802
328.90	10.819
329.10	9.607
329.31	12.275
329.52	10.046
329.73	11.960
329.94	8.767
330.15	11.446
330.35	10.786
330.56	9.562
330.77	9.825
330.98	12.720
331.19	10.148
331.39	9.983
331.60	12.954
331.81	7.952
332.02	14.021
332.23	11.289
332.44	8.855
332.64	10.235
332.85	10.099
333.06	10.896
333.27	8.398
333.48	11.171
333.68	9.989
333.89	10.123
334.10	7.841
334.31	13.062
334.52	8.053
334.72	10.112
334.93	7.809
335.14	10.711
335.35	8.240
335.56	8.896
335.76	9.029
335.97	8.935
336.18	8.970
336.39	10.400
336.60	12.431
336.80	10.759
337.01	10.565
337.22	6.895
337.43	11.756
337.64	12.006
337.84	11.787
338.05	10.410
338.26	11.058
338.47	11.044
338.68	7.540
338.88	9.932
339.09	10.079
339.30	8.178
339.51	9.578
339.71	11.185
339.92	8.553
340.13	9.614
340.34	10.193
340.55	5.912
340.75	8.835
340.96	6.704
341.17	10.021
341.38	7.190
341.58	8.729
341.79	9.143
342.00	7.917
342.21	8.985
342.41	6.851
342.62	9.608
342.83	10.338
343.04	7.149
343.24	7.852
343.45	8.863
343.66	8.850
343.87	8.148
344.07	8.376
344.28	7.813
344.49	9.488
344.70	9.771
344.90	7.361
345.11	6.280
345.32	8.055
345.53	8.225
345.73	9.343
345.94	6.180
346.15	10.429
346.36	5.922
346.56	8.454
346.77	8.683
346.98	9.217
347.19	6.209
347.39	6.480
347.60	6.924
347.81	10.113
348.02	8.809
348.22	6.309
348.43	7.637
348.64	11.136
348.84	8.528
349.05	9.044
349.26	8.751
349.47	8.028
349.67	9.673
349.88	10.131
350.09	10.394
350.30	8.841
350.50	8.141
350.71	9.729
350.92	8.351
351.12	7.971
351.33	9.798
351.54	7.716
351.74	6.429
351.95	8.966
352.16	9.316
352.37	11.644
352.57	7.892
352.78	8.248
352.99	8.817
353.19	8.705
353.40	9.371
353.61	9.920
353.82	7.781
354.02	9.796
354.23	7.520
354.44	10.813
354.64	7.513
354.85	9.597
355.06	8.966
355.26	6.391
355.47	8.701
355.68	12.410
355.88	11.620
356.09	7.772
356.30	6.824
356.51	8.964
356.71	7.660
356.92	6.782
357.13	9.832
357.33	10.030
357.54	9.188
357.75	8.301
357.95	9.049
358.16	7.793
358.37	10.359
358.57	8.417
358.78	11.257
358.99	9.710
359.19	9.066
359.40	11.245
359.61	9.609
359.81	11.230
360.02	13.245
360.23	9.143
360.43	9.130
360.64	9.739
360.85	10.525
361.05	7.921
361.26	11.738
361.47	9.066
361.67	12.441
361.88	8.252
362.09	9.864
362.29	8.239
362.50	9.302
362.70	7.557
362.91	12.888
363.12	10.304
363.32	11.434
363.53	11.716
363.74	13.127
363.94	8.852
364.15	15.074
364.36	12.179
364.56	11.770
364.77	12.444
364.98	15.358
365.18	12.710
365.39	15.149
365.59	11.379
365.80	10.969
366.01	12.906
366.21	10.821
366.42	10.692
366.63	14.255
366.83	11.626
367.04	9.436
367.24	15.945
367.45	11.091
367.66	10.195
367.86	12.055
368.07	12.116
368.28	13.350
368.48	12.464
368.69	9.585
368.89	12.330
369.10	12.162
369.31	13.780
369.51	12.366
369.72	15.765
369.92	15.430
370.13	11.713
370.34	15.529
370.54	9.405
370.75	14.638
370.95	9.850
371.16	12.663
371.37	12.371
371.57	12.607
371.78	11.427
371.98	15.830
372.19	12.640
372.40	15.324
372.60	13.147
372.81	14.368
373.01	10.458
373.22	12.177
373.43	14.138
373.63	14.611
373.84	14.917
374.04	14.774
374.25	13.804
374.46	14.920
374.66	12.927
374.87	15.877
375.07	10.397
375.28	12.058
375.48	13.958
375.69	14.418
375.90	10.000
376.10	12.250
376.31	10.690
376.51	11.521
376.72	11.784
376.92	10.147
377.13	12.510
377.34	15.519
377.54	12.911
377.75	15.413
377.95	12.378
378.16	15.287
378.36	15.357
378.57	14.746
378.77	14.300
378.98	15.337
379.19	13.267
379.39	12.910
379.60	13.323
379.80	13.159
380.01	16.252
380.21	12.593
380.42	14.559
380.62	12.370
380.83	14.587
381.04	13.065
381.24	14.473
381.45	13.990
381.65	11.900
381.86	14.901
382.06	14.343
382.27	13.240
382.47	11.385
382.68	14.957
382.88	11.824
383.09	11.475
383.29	12.736
383.50	16.201
383.71	13.086
383.91	12.898
384.12	10.999
384.32	14.033
384.53	11.660
384.73	10.954
384.94	11.109
385.14	11.556
385.35	12.151
385.55	13.629
385.76	11.475
385.96	13.605
386.17	13.423
386.37	14.941
386.58	12.156
386.78	16.260
386.99	10.836
387.19	15.502
387.40	12.345
387.60	17.096
387.81	11.735
388.01	13.643
388.22	14.113
388.42	15.945
388.63	15.390
388.83	16.563
389.04	10.750
389.24	12.609
389.45	12.665
389.65	12.638
389.86	13.139
390.06	12.436
390.27	10.408
390.47	13.147
390.68	12.767
390.88	14.937
391.09	15.117
391.29	14.260
391.50	12.970
391.70	14.718
391.91	12.932
392.11	14.176
392.32	15.425
392.52	14.532
392.73	12.889
392.93	14.426
393.14	13.651
393.34	13.977
393.55	14.939
393.75	14.107
393.95	13.042
394.16	15.694
394.36	14.397
394.57	15.291
394.77	14.560
394.98	14.108
395.18	15.223
395.39	15.438
395.59	14.513
395.80	14.149
396.00	13.834
396.21	17.389
396.41	11.883
396.61	15.004
396.82	14.242
397.02	17.521
397.23	14.812
397.43	13.767
397.64	12.433
397.84	15.812
398.05	11.329
398.25	14.975
398.45	13.766
398.66	14.675
398.86	12.884
399.07	16.681
399.27	13.600
399.48	16.314
399.68	13.064
399.89	13.197
400.09	13.969
400.29	13.794
400.50	14.056
400.70	15.230
400.91	11.405
401.11	13.444
401.32	14.010
401.52	12.516
401.72	14.355
401.93	16.039
402.13	14.491
402.34	14.487
402.54	10.265
402.75	16.236
402.95	12.585
403.15	16.589
403.36	13.344
403.56	15.799
403.77	12.508
403.97	13.600
404.17	12.199
404.38	14.466
404.58	12.116
404.79	15.557
404.99	14.430
405.19	13.868
405.40	13.833
405.60	14.601
405.81	14.254
406.01	14.034
406.21	13.532
406.42	15.838
406.62	14.861
406.83	15.877
407.03	16.465
407.23	13.392
407.44	13.526
407.64	15.775
407.85	15.301
408.05	14.950
408.25	13.996
408.46	15.920
408.66	14.093
408.87	13.462
409.07	14.286
409.27	12.787
409.48	13.555
409.68	15.016
409.88	12.056
410.09	13.343
410.29	14.922
410.50	14.986
410.70	11.686
410.90	14.117
411.11	13.313
411.31	13.957
411.51	13.916
411.72	16.252
411.92	12.149
412.12	13.811
412.33	12.766
412.53	14.061
412.74	11.504
412.94	15.675
413.14	13.024
413.35	13.979
413.55	13.806
413.75	14.149
413.96	11.829
414.16	14.468
414.36	14.096
414.57	14.660
414.77	11.994
414.97	15.176
415.18	11.741
415.38	13.847
415.58	14.414
415.79	14.674
415.99	13.571
416.19	15.394
416.40	13.332
416.60	14.480
416.80	13.545
417.01	14.553
417.21	12.781
417.41	15.995
417.62	14.556
417.82	15.135
418.02	12.307
418.23	14.288
418.43	13.927
418.63	15.054
418.84	15.187
419.04	14.753
419.24	15.504
419.45	15.355
419.65	15.489
419.85	15.295
420.06	14.841
420.26	15.249
420.46	14.451
420.67	15.766
420.87	15.257
421.07	15.751
421.28	14.972
421.48	16.034
421.68	15.897
421.88	16.030
422.09	15.457
422.29	15.898
422.49	15.393
422.70	15.578
422.90	15.690
423.10	16.352
423.31	16.160
423.51	15.697
423.71	14.764
423.91	15.716
424.12	15.530
424.32	16.137
424.52	15.670
424.73	14.948
424.93	15.151
425.13	15.442
425.33	14.583
425.54	15.728
425.74	15.340
425.94	15.710
426.15	15.470
426.35	15.389
426.55	16.097
426.75	16.200
426.96	15.828
427.16	15.273
427.36	16.191
427.57	16.910
427.77	15.497
427.97	15.227
428.17	15.577
428.38	15.773
428.58	13.446
428.78	15.970
428.98	14.170
429.19	14.414
429.39	12.825
429.59	15.790
429.79	12.731
430.00	14.455
430.20	12.812
430.40	14.387
430.60	13.624
430.81	15.338
431.01	12.890
431.21	14.724
431.41	14.115
431.62	15.042
431.82	14.236
432.02	15.583
432.22	13.783
432.43	14.103
432.63	13.044
432.83	15.784
433.03	14.228
433.24	15.175
433.44	13.933
433.64	15.626
433.84	14.279
434.05	15.620
434.25	14.572
434.45	15.575
434.65	16.488
434.85	16.505
435.06	15.581
435.26	16.380
435.46	16.071
435.66	16.797
435.87	15.513
436.07	16.712
436.27	15.986
436.47	15.602
436.67	15.493
436.88	16.299
437.08	16.616
437.28	16.041
437.48	15.320
437.69	16.100
437.89	15.670
438.09	16.741
438.29	15.334
438.49	17.131
438.70	16.519
438.90	15.918
439.10	15.729
439.30	16.456
439.50	15.854
439.71	16.269
439.91	16.021
440.11	17.020
440.31	16.466
440.51	16.507
440.72	16.266
440.92	15.545
441.12	16.613
441.32	16.907
441.52	16.607
441.72	17.314
441.93	16.483
442.13	16.806
442.33	16.741
442.53	17.842
442.73	17.422
442.94	17.255
443.14	17.239
443.34	17.265
443.54	17.315
443.74	18.351
443.94	17.457
444.15	17.579
444.35	16.902
444.55	17.139
444.75	16.216
444.95	17.194
445.15	17.229
445.36	17.443
445.56	16.391
445.76	17.355
445.96	16.742
446.16	16.558
446.36	16.391
446.57	17.365
446.77	16.844
446.97	16.211
447.17	17.263
447.37	16.819
447.57	16.658
447.77	17.023
447.98	17.232
448.18	17.476
448.38	17.516
448.58	17.497
448.78	18.363
448.98	18.170
449.18	18.028
449.39	17.833
449.59	18.071
449.79	18.341
449.99	17.620
450.19	18.351
450.39	18.108
450.59	17.578
450.79	17.165
451.00	17.940
451.20	18.820
451.40	17.684
451.60	17.780
451.80	17.767
452.00	16.803
452.20	17.387
452.40	17.116
452.61	17.526
452.81	16.680
453.01	17.317
453.21	17.310
453.41	18.020
453.61	16.621
453.81	17.401
454.01	17.366
454.21	18.106
454.42	18.368
454.62	17.444
454.82	18.182
455.02	18.296
455.22	16.632
455.42	18.746
455.62	16.802
455.82	18.303
456.02	17.504
456.23	18.190
456.43	18.003
456.63	17.836
456.83	15.755
457.03	17.529
457.23	17.997
457.43	17.311
457.63	17.305
457.83	17.338
458.03	16.499
458.23	16.598
458.43	16.572
458.64	17.282
458.84	16.391
459.04	17.569
459.24	17.002
459.44	16.581
459.64	16.570
459.84	16.936
460.04	16.867
460.24	17.124
460.44	16.665
460.64	16.791
460.84	17.267
461.04	17.174
461.24	17.755
461.45	17.423
461.65	17.950
461.85	18.024
462.05	18.324
462.25	18.258
462.45	18.923
462.65	18.045
462.85	17.557
463.05	18.726
463.25	17.827
463.45	18.191
463.65	18.366
463.85	18.182
464.05	17.202
464.25	18.278
464.45	17.044
464.65	17.093
464.85	16.897
465.05	17.683
465.26	17.605
465.46	17.237
465.66	17.986
465.86	17.146
466.06	17.603
466.26	17.149
466.46	16.508
466.66	17.422
466.86	16.947
467.06	17.915
467.26	16.765
467.46	18.403
467.66	16.661
467.86	18.405
468.06	17.167
468.26	17.467
468.46	17.493
468.66	17.811
468.86	17.274
469.06	17.868
469.26	16.997
469.46	18.040
469.66	16.665
469.86	17.716
470.06	17.202
470.26	18.834
470.46	17.972
470.66	17.548
470.86	17.128
471.06	18.392
471.26	16.465
471.46	17.718
471.66	17.883
471.86	17.686
472.06	17.249
472.26	19.088
472.46	17.783
472.66	17.731
472.86	18.144
473.06	17.845
473.26	17.533
473.46	17.430
473.66	17.648
473.86	18.018
474.06	16.674
474.26	18.216
474.46	17.564
474.66	18.848
474.86	17.808
475.06	18.711
475.26	17.575
475.46	18.555
475.66	17.957
475.86	18.213
476.06	18.868
476.26	18.118
476.46	18.189
476.66	17.927
476.86	17.610
477.06	17.308
477.26	17.641
477.46	18.406
477.65	18.124
477.85	18.217
478.05	17.724
478.25	18.340
478.45	17.409
478.65	18.383
478.85	17.628
479.05	18.850
479.25	18.190
479.45	19.366
479.65	18.317
479.85	18.940
480.05	18.655
480.25	19.358
480.45	18.939
480.65	18.636
480.85	18.508
481.05	18.338
481.25	18.657
481.44	19.213
481.64	17.819
481.84	19.005
482.04	18.632
482.24	17.973
482.44	18.414
482.64	18.116
482.84	17.856
483.04	17.509
483.24	17.462
483.44	16.699
483.64	16.629
483.84	16.346
484.04	17.317
484.23	17.313
484.43	18.483
484.63	19.572
484.83	20.077
485.03	21.198
485.23	21.254
485.43	20.885
485.63	21.106
485.83	19.917
486.03	19.424
486.23	19.869
486.42	19.666
486.62	19.556
486.82	18.910
487.02	18.831
487.22	18.605
487.42	18.456
487.62	18.152
487.82	17.615
488.02	18.118
488.22	18.263
488.41	18.520
488.61	18.992
488.81	18.811
489.01	18.803
489.21	18.932
489.41	19.331
489.61	19.063
489.81	18.995
490.01	19.705
490.20	19.112
490.40	19.165
490.60	19.366
490.80	18.630
491.00	19.144
491.20	18.261
491.40	17.882
491.60	17.513
491.79	17.976
491.99	17.833
492.19	18.332
492.39	18.159
492.59	18.165
492.79	17.964
492.99	18.737
493.19	18.797
493.38	19.427
493.58	19.434
493.78	19.329
493.98	19.597
494.18	19.833
494.38	19.198
494.58	19.506
494.77	19.268
494.97	19.035
495.17	19.135
495.37	19.310
495.57	18.685
495.77	18.786
495.96	18.722
496.16	18.525
496.36	18.425
496.56	18.594
496.76	18.319
496.96	18.577
497.15	18.011
497.35	18.717
497.55	18.506
497.75	18.829
497.95	18.748
498.15	18.420
498.34	18.706
498.54	19.177
498.74	19.414
498.94	19.481
499.14	19.155
499.34	20.209
499.53	19.348
499.73	19.552
499.93	19.475
500.13	20.368
500.33	18.801
500.52	19.172
500.72	19.394
500.92	20.063
501.12	18.954
501.32	19.187
501.52	19.773
501.71	19.464
501.91	19.559
502.11	19.866
502.31	19.237
502.51	19.640
502.70	19.404
502.90	19.755
503.10	19.203
503.30	19.682
503.50	19.689
503.69	19.413
503.89	19.798
504.09	19.499
504.29	19.268
504.48	19.828
504.68	20.070
504.88	20.161
505.08	19.914
505.28	20.404
505.47	19.922
505.67	19.774
505.87	19.663
506.07	19.911
506.27	20.548
506.46	20.582
506.66	20.106
506.86	20.606
507.06	20.636
507.25	20.823
507.45	20.701
507.65	20.317
507.85	21.485
508.04	20.457
508.24	21.645
508.44	20.909
508.64	20.478
508.83	20.292
509.03	20.073
509.23	20.155
509.43	20.449
509.63	20.759
509.82	20.371
510.02	20.289
510.22	20.438
510.42	20.727
510.61	20.792
510.81	20.748
511.01	20.831
511.21	21.535
511.40	21.229
511.60	21.147
511.80	20.997
511.99	20.728
512.19	20.937
512.39	20.740
512.59	21.252
512.78	20.880
512.98	20.983
513.18	20.871
513.38	21.463
513.57	21.234
513.77	21.570
513.97	20.967
514.17	20.825
514.36	21.583
514.56	21.343
514.76	21.231
514.95	21.393
515.15	21.471
515.35	21.751
515.55	21.002
515.74	21.322
515.94	21.680
516.14	21.828
516.33	21.683
516.53	21.242
516.73	21.551
516.93	21.021
517.12	20.634
517.32	20.765
517.52	21.033
517.71	20.953
517.91	21.471
518.11	21.082
518.30	20.136
518.50	20.812
518.70	20.500
518.90	21.063
519.09	21.021
519.29	21.370
519.49	21.252
519.68	20.820
519.88	21.620
520.08	21.764
520.27	21.486
520.47	21.601
520.67	22.185
520.86	21.632
521.06	21.839
521.26	21.726
521.45	21.749
521.65	21.612
521.85	21.379
522.04	21.588
522.24	21.211
522.44	21.726
522.63	21.183
522.83	21.592
523.03	21.648
523.22	20.840
523.42	21.020
523.62	21.986
523.81	20.887
524.01	21.025
524.21	21.354
524.40	20.842
524.60	20.914
524.80	21.064
524.99	20.633
525.19	21.442
525.39	20.520
525.58	20.213
525.78	19.803
525.98	20.609
526.17	20.593
526.37	20.592
526.57	20.375
526.76	19.921
526.96	20.236
527.15	20.356
527.35	20.733
527.55	20.164
527.74	20.857
527.94	20.256
528.14	20.054
528.33	19.952
528.53	19.357
528.72	19.168
528.92	19.774
529.12	20.111
529.31	19.988
529.51	20.774
529.71	20.708
529.90	20.799
530.10	21.116
530.29	21.036
530.49	21.759
530.69	21.890
530.88	22.063
531.08	21.634
531.28	21.469
531.47	20.762
531.67	20.612
531.86	20.497
532.06	20.767
532.26	20.179
532.45	20.577
532.65	19.865
532.84	19.599
533.04	19.815
533.24	19.491
533.43	19.515
533.63	19.664
533.82	19.782
534.02	20.151
534.22	20.484
534.41	20.203
534.61	20.228
534.80	20.439
535.00	20.751
535.19	21.191
535.39	21.056
535.59	20.892
535.78	20.812
535.98	20.515
536.17	20.150
536.37	19.325
536.57	20.068
536.76	20.032
536.96	19.824
537.15	19.893
537.35	20.462
537.54	20.047
537.74	20.572
537.93	20.166
538.13	19.732
538.33	20.645
538.52	20.853
538.72	21.215
538.91	21.109
539.11	20.398
539.30	20.535
539.50	20.341
539.70	20.578
539.89	20.546
540.09	20.029
540.28	19.829
540.48	19.597
540.67	19.545
540.87	19.233
541.06	18.988
541.26	19.113
541.45	18.723
541.65	19.301
541.85	18.843
542.04	19.958
542.24	20.134
542.43	19.841
542.63	19.992
542.82	20.247
543.02	20.494
543.21	20.334
543.41	20.942
543.60	21.020
543.80	20.659
543.99	20.873
544.19	20.548
544.38	20.483
544.58	20.737
544.77	20.486
544.97	20.761
545.16	20.638
545.36	20.667
545.56	20.344
545.75	20.558
545.95	20.490
546.14	20.101
546.34	19.891
546.53	19.976
546.73	19.940
546.92	20.437
547.12	20.280
547.31	20.896
547.51	20.882
547.70	20.394
547.90	20.034
548.09	20.519
548.29	19.961
548.48	20.667
548.68	20.703
548.87	21.343
549.07	21.454
549.26	21.338
549.46	20.941
549.65	20.668
549.84	20.789
550.04	21.597
550.23	20.186
550.43	20.392
550.62	20.615
550.82	20.566
551.01	21.047
551.21	21.137
551.40	20.079
551.60	20.828
551.79	20.605
551.99	20.228
552.18	20.090
552.38	20.465
552.57	20.260
552.77	19.944
552.96	21.194
553.16	20.526
553.35	20.258
553.54	20.710
553.74	20.488
553.93	20.933
554.13	20.405
554.32	20.037
554.52	20.984
554.71	21.085
554.91	20.644
555.10	21.208
555.29	20.068
555.49	20.821
555.68	20.564
555.88	20.469
556.07	19.645
556.27	20.182
556.46	19.920
556.66	19.972
556.85	20.139
557.04	20.541
557.24	21.157
557.43	20.125
557.63	20.925
557.82	19.583
558.02	19.400
558.21	20.244
558.40	18.921
558.60	19.727
558.79	18.916
558.99	19.238
559.18	19.705
559.38	19.916
559.57	20.156
559.76	19.544
559.96	20.253
560.15	20.532
560.35	18.935
560.54	20.106
560.73	18.245
560.93	19.945
561.12	19.444
561.32	18.612
561.51	18.770
561.70	18.690
561.90	19.107
562.09	19.455
562.29	18.366
562.48	19.084
562.67	19.160
562.87	19.339
563.06	18.589
563.26	19.260
563.45	18.179
563.64	19.906
563.84	17.777
564.03	18.463
564.23	18.279
564.42	19.019
564.61	18.713
564.81	18.528
565.00	18.476
565.20	19.319
565.39	18.987
565.58	17.909
565.78	17.953
565.97	18.132
566.16	18.294
566.36	18.031
566.55	18.166
566.74	17.750
566.94	17.486
567.13	18.861
567.33	17.522
567.52	18.037
567.71	18.344
567.91	18.466
568.10	17.933
568.29	18.397
568.49	18.380
568.68	17.259
568.87	17.793
569.07	17.155
569.26	16.939
569.45	17.969
569.65	17.038
569.84	17.084
570.04	17.305
570.23	16.850
570.42	16.483
570.62	17.282
570.81	16.475
571.00	17.510
571.20	16.497
571.39	16.934
571.58	16.992
571.78	17.320
571.97	16.530
572.16	16.848
572.36	16.510
572.55	16.911
572.74	16.021
572.94	15.526
573.13	16.566
573.32	16.849
573.51	16.056
573.71	16.819
573.90	15.941
574.09	16.630
574.29	16.641
574.48	16.427
574.67	15.959
574.87	16.300
575.06	15.641
575.25	15.713
575.45	15.627
575.64	16.598
575.83	15.862
576.03	17.042
576.22	15.859
576.41	15.705
576.60	14.978
576.80	15.941
576.99	15.452
577.18	16.045
577.38	14.802
577.57	14.834
577.76	16.170
577.95	15.587
578.15	15.277
578.34	15.147
578.53	14.707
578.73	15.827
578.92	13.510
579.11	14.744
579.30	14.576
579.50	14.679
579.69	14.573
579.88	15.285
580.08	12.986
580.27	15.172
580.46	15.179
580.65	14.793
580.85	13.966
581.04	14.843
581.23	13.668
581.42	14.160
581.62	13.583
581.81	14.776
582.00	13.091
582.19	15.182
582.39	14.182
582.58	13.784
582.77	14.744
582.96	14.664
583.16	13.790
583.35	15.495
583.54	14.595
583.73	14.778
583.93	13.516
584.12	13.010
584.31	12.663
584.50	15.070
584.70	13.629
584.89	15.067
585.08	13.126
585.27	14.972
585.47	13.165
585.66	14.080
585.85	12.732
586.04	14.896
586.24	14.785
586.43	14.388
586.62	13.096
586.81	15.422
587.00	13.800
587.20	15.577
587.39	12.578
587.58	15.719
587.77	14.279
587.97	14.056
588.16	14.809
588.35	15.838
588.54	13.488
588.73	15.582
588.93	15.585
589.12	15.450
589.31	14.404
589.50	16.297
589.69	16.009
589.89	16.564
590.08	14.391
590.27	16.272
590.46	15.402
590.65	16.240
590.85	15.386
591.04	16.737
591.23	15.340
591.42	16.447
591.61	15.875
591.81	17.175
592.00	16.515
592.19	17.727
592.38	16.530
592.57	16.685
592.77	16.469
592.96	16.853
593.15	17.626
593.34	18.419
593.53	16.680
593.72	16.201
593.92	16.223
594.11	18.813
594.30	17.273
594.49	18.630
594.68	18.031
594.87	18.474
595.07	17.326
595.26	18.266
595.45	17.456
595.64	18.429
595.83	18.800
596.02	19.135
596.22	18.028
596.41	18.393
596.60	19.016
596.79	19.333
596.98	19.471
597.17	20.002
597.37	19.710
597.56	20.032
597.75	18.937
597.94	20.658
598.13	20.017
598.32	20.844
598.51	21.307
598.71	22.130
598.90	20.738
599.09	20.448
599.28	20.869
599.47	21.670
599.66	20.611
599.85	22.038
600.05	20.717
600.24	22.531
600.43	21.608
600.62	23.290
600.81	22.518
601.00	23.238
601.19	21.950
601.38	23.486
601.58	23.169
601.77	24.007
601.96	22.563
602.15	23.626
602.34	23.674
602.53	24.899
602.72	23.611
602.91	24.251
603.10	24.350
603.30	25.872
603.49	24.460
603.68	25.343
603.87	24.465
604.06	25.257
604.25	25.193
604.44	25.489
604.63	26.521
604.82	26.269
605.01	27.131
605.21	25.932
605.40	26.854
605.59	26.273
605.78	26.553
605.97	26.984
606.16	27.610
606.35	27.312
606.54	27.528
606.73	27.789
606.92	28.845
607.11	27.960
607.30	27.661
607.50	28.842
607.69	28.350
607.88	27.506
608.07	27.133
608.26	29.233
608.45	28.083
608.64	29.193
608.83	28.754
609.02	28.044
609.21	28.407
609.40	29.460
609.59	28.559
609.78	28.958
609.97	29.735
610.16	29.485
610.35	30.001
610.55	29.068
610.74	29.208
610.93	30.508
611.12	31.049
611.31	30.748
611.50	30.480
611.69	30.223
611.88	31.576
612.07	31.792
612.26	30.371
612.45	31.875
612.64	30.995
612.83	32.132
613.02	30.446
613.21	31.496
613.40	32.097
613.59	31.980
613.78	31.578
613.97	32.806
614.16	31.125
614.35	31.403
614.54	30.911
614.73	32.965
614.92	31.588
615.11	31.910
615.30	31.950
615.49	32.410
615.68	32.553
615.87	30.749
616.07	31.906
616.26	32.480
616.45	33.210
616.64	31.523
616.83	32.123
617.02	33.251
617.21	31.915
617.40	32.651
617.59	33.057
617.78	31.524
617.97	34.320
618.16	33.793
618.35	32.017
618.54	32.580
618.73	33.819
618.92	32.190
619.11	33.648
619.30	33.954
619.49	33.041
619.68	32.795
619.86	32.595
620.05	32.667
620.24	33.454
620.43	34.454
620.62	32.663
620.81	32.783
621.00	33.428
621.19	34.133
621.38	32.027
621.57	33.570
621.76	34.104
621.95	33.765
622.14	33.422
622.33	33.450
622.52	33.533
622.71	34.634
622.90	33.222
623.09	34.316
623.28	33.887
623.47	32.549
623.66	33.264
623.85	33.719
624.04	34.278
624.23	34.499
624.42	33.522
624.61	32.020
624.80	31.566
624.99	35.654
625.18	33.062
625.36	33.669
625.55	33.790
625.74	34.093
625.93	33.542
626.12	33.333
626.31	32.488
626.50	34.412
626.69	34.575
626.88	34.012
627.07	33.596
627.26	33.499
627.45	33.410
627.64	34.317
627.83	34.216
628.02	34.064
628.20	34.872
628.39	33.904
628.58	34.503
628.77	34.942
628.96	33.905
629.15	33.640
629.34	34.202
629.53	35.096
629.72	33.784
629.91	35.234
630.10	35.056
630.29	34.223
630.47	33.296
630.66	35.272
630.85	34.360
631.04	33.321
631.23	34.833
631.42	32.127
631.61	32.965
631.80	33.313
631.99	33.826
632.18	33.619
632.36	33.397
632.55	34.134
632.74	34.393
632.93	33.313
633.12	33.656
633.31	33.767
633.50	33.850
633.69	33.897
633.88	31.683
634.06	34.197
634.25	33.194
634.44	32.293
634.63	34.297
634.82	33.916
635.01	32.909
635.20	35.017
635.39	33.584
635.57	34.045
635.76	34.238
635.95	34.945
636.14	33.219
636.33	34.139
636.52	32.677
636.71	33.879
636.89	33.481
637.08	32.913
637.27	33.064
637.46	31.885
637.65	34.140
637.84	34.163
638.03	32.892
638.21	35.410
638.40	33.877
638.59	33.684
638.78	33.507
638.97	35.815
639.16	33.247
639.34	34.280
639.53	33.788
639.72	36.580
639.91	34.573
640.10	34.729
640.29	34.385
640.47	35.636
640.66	32.711
640.85	36.004
641.04	32.934
641.23	34.591
641.42	34.044
641.60	33.810
641.79	35.098
641.98	35.100
642.17	33.240
642.36	34.629
642.54	34.965
642.73	34.524
642.92	32.590
643.11	35.281
643.30	33.445
643.49	34.834
643.67	33.066
643.86	34.964
644.05	31.265
644.24	33.411
644.43	34.571
644.61	35.756
644.80	33.610
644.99	34.725
645.18	36.179
645.37	34.213
645.55	32.603
645.74	33.516
645.93	33.449
646.12	34.017
646.31	34.083
646.49	35.411
646.68	34.788
646.87	33.394
647.06	33.047
647.24	34.020
647.43	32.191
647.62	35.485
647.81	32.157
648.00	34.078
648.18	32.325
648.37	33.745
648.56	33.742
648.75	34.553
648.93	32.432
649.12	33.229
649.31	32.416
649.50	33.589
649.68	32.486
649.87	32.430
650.06	32.311
650.25	33.507
650.43	34.772
650.62	33.672
650.81	33.411
651.00	33.078
651.18	33.698
651.37	35.554
651.56	32.537
651.75	36.573
651.93	32.697
652.12	34.894
652.31	33.386
652.50	33.859
652.68	34.383
652.87	34.151
653.06	34.260
653.25	35.841
653.43	32.762
653.62	33.647
653.81	33.324
654.00	34.714
654.18	32.771
654.37	33.342
654.56	33.396
654.74	34.201
654.93	29.633
655.12	33.729
655.31	30.452
655.49	31.728
655.68	29.946
655.87	33.372
656.05	29.084
656.24	31.823
656.43	29.190
656.62	31.639
656.80	30.789
656.99	32.584
657.18	30.610
657.36	31.217
657.55	31.160
657.74	31.233
657.93	32.127
658.11	32.470
658.30	29.316
658.49	29.618
658.67	29.060
658.86	31.515
659.05	29.444
659.23	29.623
659.42	29.332
659.61	30.662
659.79	28.276
659.98	30.638
660.17	30.269
660.35	29.826
660.54	30.209
660.73	30.980
660.91	29.375
661.10	29.509
661.29	27.970
661.47	29.913
661.66	28.384
661.85	28.361
662.03	28.231
662.22	24.955
662.41	25.216
662.59	27.627
662.78	23.452
662.97	26.817
663.15	22.263
663.34	25.583
663.53	24.132
663.71	26.002
663.90	23.131
664.09	26.314
664.27	25.449
664.46	24.438
664.65	22.630
664.83	23.231
665.02	20.945
665.21	22.437
665.39	19.594
665.58	24.706
665.77	21.881
665.95	22.694
666.14	19.805
666.32	23.984
666.51	21.104
666.70	20.738
666.88	19.852
667.07	20.582
667.26	17.982
667.44	21.683
667.63	20.325
667.81	18.960
668.00	17.679
668.19	23.123
668.37	17.685
668.56	22.786
668.75	16.555
668.93	23.165
669.12	17.519
669.30	21.810
669.49	16.312
669.68	21.560
669.86	20.462
670.05	18.129
670.23	18.662
670.42	18.870
670.61	17.364
670.79	22.138
670.98	19.469
671.16	21.843
671.35	17.889
671.54	21.397
671.72	17.927
671.91	18.045
672.09	16.602
672.28	20.479
672.46	19.980
672.65	20.663
672.84	18.843
673.02	18.960
673.21	15.354
673.39	16.832
673.58	19.816
673.77	20.316
673.95	16.730
674.14	19.522
674.32	17.527
674.51	21.234
674.69	16.198
674.88	19.072
675.07	17.094
675.25	22.976
675.44	18.665
675.62	18.820
675.81	15.366
675.99	26.730
676.18	20.519
676.36	18.290
676.55	15.721
676.74	21.277
676.92	20.735
677.11	17.204
677.29	17.711
677.48	23.066
677.66	19.234
677.85	19.337
678.03	16.061
678.22	23.017
678.40	19.156
678.59	19.090
678.78	16.700
678.96	19.616
679.15	18.226
679.33	22.330
679.52	23.087
679.70	21.642
679.89	20.589
680.07	20.915
680.26	19.738
680.44	21.299
680.63	21.143
680.81	20.733
681.00	16.713
681.18	21.211
681.37	21.905
681.55	23.838
681.74	22.444
681.92	24.632
682.11	23.196
682.29	21.423
682.48	22.460
682.66	25.044
682.85	22.106
683.03	23.155
683.22	22.781
683.40	24.861
683.59	21.449
683.77	27.373
683.96	20.918
684.14	25.528
684.33	19.241
684.51	27.681
684.70	23.488
684.88	26.736
685.07	22.164
685.25	26.587
685.44	22.636
685.62	25.336
685.81	22.951
685.99	27.370
686.18	23.486
686.36	27.635
686.55	23.002
686.73	27.305
686.92	27.137
687.10	29.439
687.29	28.695
687.47	29.344
687.65	30.534
687.84	29.404
688.02	31.011
688.21	32.929
688.39	29.243
688.58	31.053
688.76	28.185
688.95	32.998
689.13	29.289
689.32	32.938
689.50	32.125
689.68	36.890
689.87	31.228
690.05	33.664
690.24	33.721
690.42	35.281
690.61	34.034
690.79	37.721
690.98	33.298
691.16	34.784
691.34	32.152
691.53	33.801
691.71	32.495
691.90	35.609
692.08	36.266
692.27	38.676
692.45	39.460
692.63	39.064
692.82	41.052
693.00	38.350
693.19	35.873
693.37	41.209
693.56	40.717
693.74	40.607
693.92	40.676
694.11	41.731
694.29	41.026
694.48	44.114
694.66	41.567
694.84	44.648
695.03	41.407
695.21	45.103
695.40	45.825
695.58	49.114
695.76	43.557
695.95	48.178
696.13	45.949
696.32	48.240
696.50	49.894
696.68	47.965
696.87	48.515
697.05	46.887
697.24	47.752
697.42	49.751
697.60	48.221
697.79	50.527
697.97	51.904
698.16	52.640
698.34	50.907
698.52	50.508
698.71	50.693
698.89	51.973
699.07	50.700
699.26	52.467
699.44	53.065
699.63	51.270
699.81	50.235
699.99	52.459
700.18	55.355
700.36	52.791
700.54	54.498
700.73	53.985
700.91	52.985
701.09	54.991
701.28	54.366
701.46	55.338
701.64	54.565
701.83	55.656
702.01	54.848
702.20	57.685
702.38	59.490
702.56	58.701
702.75	58.463
702.93	54.139
703.11	58.786
703.30	55.796
703.48	56.854
703.66	59.456
703.85	54.925
704.03	61.402
704.21	59.423
704.40	61.819
704.58	56.413
704.76	58.448
704.95	56.361
705.13	59.835
705.31	59.813
705.50	58.533
705.68	61.421
705.86	63.158
706.04	60.186
706.23	62.037
706.41	61.795
706.59	57.025
706.78	59.506
706.96	63.303
707.14	58.202
707.33	59.465
707.51	59.158
707.69	61.491
707.88	61.531
708.06	61.683
708.24	60.808
708.42	62.446
708.61	59.981
708.79	63.198
708.97	65.744
709.16	61.576
709.34	66.602
709.52	59.836
709.71	60.995
709.89	60.938
710.07	60.984
710.25	63.820
710.44	61.524
710.62	63.127
710.80	63.476
710.98	61.324
711.17	60.992
711.35	60.584
711.53	60.883
711.72	64.515
711.90	66.712
712.08	64.023
712.26	61.741
712.45	62.350
712.63	60.335
712.81	64.523
712.99	63.673
713.18	65.344
713.36	64.149
713.54	60.818
713.72	64.260
713.91	64.908
714.09	60.120
714.27	64.308
714.45	62.477
714.64	63.660
714.82	62.876
715.00	65.956
715.18	63.289
715.37	64.642
715.55	64.034
715.73	67.318
715.91	63.053
716.10	63.918
716.28	60.070
716.46	63.897
716.64	64.740
716.83	68.077
717.01	64.735
717.19	63.439
717.37	62.558
717.55	63.885
717.74	65.555
717.92	62.365
718.10	62.631
718.28	68.126
718.47	59.722
718.65	63.158
718.83	66.772
719.01	64.259
719.19	63.016
719.38	61.263
719.56	63.714
719.74	64.877
719.92	59.470
720.10	64.954
720.29	63.905
720.47	65.951
720.65	62.717
720.83	67.820
721.01	59.667
721.20	64.618
721.38	66.144
721.56	62.585
721.74	64.549
721.92	68.094
722.11	64.817
722.29	65.284
722.47	63.300
722.65	64.378
722.83	63.161
723.01	68.482
723.20	60.636
723.38	63.286
723.56	61.179
723.74	70.483
723.92	62.854
724.10	67.127
724.29	62.818
724.47	66.269
724.65	65.420
724.83	68.985
725.01	61.211
725.19	68.274
725.38	63.034
725.56	62.241
725.74	66.899
725.92	64.610
726.10	65.038
726.28	63.582
726.46	65.016
726.65	67.394
726.83	63.970
727.01	67.027
727.19	64.218
727.37	68.777
727.55	63.381
727.73	67.536
727.92	63.940
728.10	66.249
728.28	57.083
728.46	67.095
728.64	64.976
728.82	69.352
729.00	64.359
729.19	67.350
729.37	64.128
729.55	68.624
729.73	63.041
729.91	67.866
730.09	66.122
730.27	65.576
730.45	67.358
730.63	65.124
730.82	64.294
731.00	66.763
731.18	63.548
731.36	65.630
731.54	61.303
731.72	65.217
731.90	66.112
732.08	67.246
732.26	65.207
732.45	66.185
732.63	69.672
732.81	66.193
732.99	66.573
733.17	66.818
733.35	66.704
733.53	66.061
733.71	64.862
733.89	64.212
734.07	66.005
734.25	67.717
734.44	65.955
734.62	65.806
734.80	67.113
734.98	71.665
735.16	69.767
735.34	66.092
735.52	67.309
735.70	70.110
735.88	70.046
736.06	68.150
736.24	72.141
736.42	69.695
736.60	67.346
736.78	70.191
736.97	68.768
737.15	68.236
737.33	67.903
737.51	67.034
737.69	70.789
737.87	69.001
738.05	68.485
738.23	70.580
738.41	68.658
738.59	67.151
738.77	68.782
738.95	75.000
739.13	72.121
739.31	75.802
739.49	73.430
739.67	72.309
739.85	70.200
740.03	68.865
740.21	69.236
740.39	66.827
740.57	70.407
740.75	72.879
740.93	67.556
741.11	70.986
741.30	72.256
741.48	72.748
741.66	65.554
741.84	71.243
742.02	67.370
742.20	68.626
742.38	68.963
742.56	72.977
742.74	68.287
742.92	69.458
743.10	67.126
743.28	67.424
743.46	69.840
743.64	73.529
743.82	64.468
744.00	70.787
744.18	70.732
744.36	68.802
744.54	69.966
744.72	76.527
744.90	73.611
745.08	74.161
745.26	66.640
745.44	71.845
745.62	65.697
745.80	63.128
745.98	68.330
746.16	73.643
746.34	68.577
746.52	71.468
746.70	68.640
746.87	75.336
747.05	67.491
747.23	62.830
747.41	68.295
747.59	69.689
747.77	64.933
747.95	72.400
748.13	64.862
748.31	75.758
748.49	65.767
748.67	73.516
748.85	69.031
749.03	75.201
749.21	69.273
749.39	69.983
749.57	62.862
749.75	68.186
749.93	76.369
750.11	69.966
750.29	66.667
750.47	72.657
750.65	67.908
750.83	73.134
751.01	62.399
751.18	70.026
751.36	69.291
751.54	68.951
751.72	66.435
751.90	72.623
752.08	65.023
752.26	69.632
752.44	64.341
752.62	67.842
752.80	66.696
752.98	73.554
753.16	72.414
753.34	74.865
753.52	70.950
753.69	72.774
753.87	69.432
754.05	73.638
754.23	66.012
754.41	68.007
754.59	64.901
754.77	73.962
754.95	66.751
755.13	70.751
755.31	69.321
755.49	70.110
755.66	68.007
755.84	68.085
756.02	67.172
756.20	68.066
756.38	66.339
756.56	69.165
756.74	68.665
756.92	70.222
757.10	65.596
757.28	79.672
757.45	70.156
757.63	72.863
757.81	68.097
757.99	74.790
758.17	66.436
758.35	70.869
758.53	72.719
758.71	67.048
758.88	64.021
759.06	75.292
759.24	64.248
759.42	67.869
759.60	66.580
759.78	69.444
759.96	62.354
760.13	66.197
760.31	59.325
760.49	61.135
760.67	53.177
760.85	58.438
761.03	55.565
761.21	61.831
761.38	48.964
761.56	61.933
761.74	54.538
761.92	63.721
762.10	52.181
762.28	58.507
762.46	54.163
762.63	55.899
762.81	54.691
762.99	59.644
763.17	53.125
763.35	60.778
763.53	61.321
763.70	63.506
763.88	63.189
764.06	63.255
764.24	60.289
764.42	64.712
764.60	62.347
764.77	60.925
764.95	59.021
765.13	67.991
765.31	60.119
765.49	61.338
765.66	58.440
765.84	64.997
766.02	62.285
766.20	62.728
766.38	68.467
766.56	66.573
766.73	60.369
766.91	68.617
767.09	64.398
767.27	67.598
767.45	62.695
767.62	71.272
767.80	65.835
767.98	69.136
768.16	65.009
768.33	74.191
768.51	67.066
768.69	70.037
768.87	66.124
769.05	69.935
769.22	67.539
769.40	74.722
769.58	62.500
769.76	72.340
769.94	65.258
770.11	65.773
770.29	71.088
770.47	70.655
770.65	66.776
770.82	72.747
771.00	68.421
771.18	73.282
771.36	72.464
771.53	71.250
771.71	68.571
771.89	69.590
772.07	67.689
772.25	76.753
772.42	68.177
772.60	73.804
772.78	66.209
772.96	73.310
773.13	70.960
773.31	78.703
773.49	66.886
773.67	76.030
773.84	68.333
774.02	71.040
774.20	66.586
774.37	73.838
774.55	73.297
774.73	73.016
774.91	69.780
775.08	71.465
775.26	68.826
775.44	81.854
775.62	68.484
775.79	73.698
775.97	66.806
776.15	74.011
776.32	65.050
776.50	74.779
776.68	64.954
776.86	77.714
777.03	66.712
777.21	72.349
777.39	69.620
777.56	76.852
777.74	63.786
777.92	73.588
778.10	72.753
778.27	76.101
778.45	64.355
778.63	70.752
778.80	64.354
778.98	74.697
779.16	70.907
779.34	68.521
779.51	64.539
779.69	68.611
779.87	66.403
780.04	70.732
780.22	64.664
780.40	69.481
780.57	70.619
780.75	62.379
780.93	75.032
781.10	75.516
781.28	86.026
781.46	63.085
781.63	72.943
781.81	79.178
781.99	62.128
782.16	68.222
782.34	59.091
782.52	75.392
782.69	63.046
782.87	67.432
783.05	65.230
783.22	75.145
783.40	66.954
783.58	73.960
783.75	71.922
783.93	69.274
784.11	69.760
784.28	74.622
784.46	65.008
784.64	83.415
784.81	65.327
784.99	84.370
785.17	69.322
785.34	70.015
785.52	65.409
785.69	71.927
785.87	67.044
786.05	74.961
786.22	71.565
786.40	83.775
786.58	65.198
786.75	74.110
786.93	61.712
787.11	66.833
787.28	78.163
787.46	70.462
787.63	77.619
787.81	71.971
787.99	65.973
788.16	61.406
788.34	61.151
788.51	67.784
788.69	60.618
788.87	66.109
789.04	59.345
789.22	64.259
789.39	63.881
789.57	68.421
789.75	65.934
789.92	68.226
790.10	59.485
790.27	71.607
790.45	53.515
790.63	72.803
790.80	61.495
790.98	67.320
791.15	62.500
791.33	66.287
791.51	64.630
791.68	78.448
791.86	68.252
792.03	66.617
792.21	65.846
792.39	69.841
792.56	66.886
792.74	67.717
792.91	70.016
793.09	63.150
793.26	58.120
793.44	66.337
793.62	64.929
793.79	70.466
793.97	63.903
794.14	69.009
794.32	70.475
794.49	82.143
794.67	61.102
794.84	64.172
795.02	70.265
795.20	70.310
795.37	63.898
795.55	59.098
795.72	63.391
795.90	69.815
796.07	64.950
796.25	65.741
796.42	63.474
796.60	66.889
796.77	64.659
796.95	60.731
797.13	50.685
797.30	69.172
797.48	60.117
797.65	70.043
797.83	51.652
798.00	73.440
798.18	64.593
798.35	68.379
798.53	60.060
798.70	71.817
798.88	61.875
799.05	68.860
799.23	56.703
799.40	75.690
799.58	63.230
799.75	60.778
799.93	60.979
800.10	64.897
800.28	63.194
800.45	68.562
800.63	59.439
800.80	77.102
800.98	69.882
801.15	68.912
801.33	71.103
801.50	66.179
801.68	52.285
801.85	66.961
802.03	60.000
802.20	68.977
802.38	66.382
802.55	61.416
802.73	69.406
802.90	63.889
803.08	64.662
803.25	70.913
803.43	69.590
803.60	73.437
803.78	64.706
803.95	65.704
804.13	65.753
804.30	70.019
804.48	57.558
804.65	69.472
804.83	62.937
805.00	57.651
805.17	58.932
805.35	73.137
805.52	62.424
805.70	62.847
805.87	67.617
806.05	69.405
806.22	60.896
806.40	54.211
806.57	60.589
806.75	71.951
806.92	67.601
807.09	74.563
807.27	65.504
807.44	76.515
807.62	71.349
807.79	58.459
807.97	66.792
808.14	69.818
808.31	61.651
808.49	55.634
808.66	57.749
808.84	67.683
809.01	66.667
809.19	68.359
809.36	73.779
809.53	71.624
809.71	66.998
809.88	64.496
810.06	71.573
810.23	66.739
810.41	64.344
810.58	69.737
810.75	59.963
810.93	67.083
811.10	66.535
811.28	77.291
811.45	70.843
811.62	71.145
811.80	60.352
811.97	73.864
812.15	64.185
812.32	74.444
812.49	79.419
812.67	65.733
812.84	64.719
813.02	69.959
813.19	60.800
813.36	69.631
813.54	64.706
813.71	69.978
813.89	58.111
814.06	70.370
814.23	64.780
814.41	64.484
814.58	70.000
814.75	63.976
814.93	57.848
815.10	70.938
815.28	60.048
815.45	60.817
815.62	63.387
815.80	49.107
815.97	59.880
816.14	66.244
816.32	63.793
816.49	63.430
816.66	66.098
816.84	63.190
817.01	73.571
817.18	65.053
817.36	68.170
817.53	64.786
817.71	49.176
817.88	64.042
818.05	48.463
818.23	62.992
818.40	57.173
818.57	65.843
818.75	58.685
818.92	67.257
819.09	58.238
819.27	64.315
819.44	57.768
819.61	71.457
819.79	53.939
819.96	63.410
820.13	55.085
820.31	60.925
820.48	69.300
820.65	61.129
820.82	53.049
821.00	60.335
821.17	47.854
821.34	63.833
821.52	52.113
821.69	51.337
821.86	54.237
822.04	67.143
822.21	58.210
822.38	60.684
822.56	60.109
822.73	62.097
822.90	64.416
823.07	62.214
823.25	59.147
823.42	60.034
823.59	60.305
823.77	60.763
823.94	59.821
824.11	61.125
824.29	58.770
824.46	61.296
824.63	64.642
824.80	59.764
824.98	62.612
825.15	60.249
825.32	58.981
825.49	61.020
825.67	57.842
825.84	60.797
826.01	56.096
826.19	62.865
826.36	54.769
826.53	63.608
826.70	54.100
826.88	63.089
827.05	57.917
827.22	55.503
827.39	62.568
827.57	61.298
827.74	52.220
827.91	59.662
828.08	57.877
828.26	61.138
828.43	56.453
828.60	59.126
828.77	56.823
828.95	59.506
829.12	50.430
829.29	52.540
829.46	51.033
829.64	59.981
829.81	47.644
829.98	58.488
830.15	53.829
830.32	52.321
830.50	44.951
830.67	49.526
830.84	48.276
831.01	49.464
831.19	49.630
831.36	57.317
831.53	59.924
831.70	52.290
831.87	58.167
832.05	63.284
832.22	68.511
832.39	61.050
832.56	45.336
832.74	54.470
832.91	50.289
833.08	63.718
833.25	50.460
833.42	51.565
833.60	51.788
833.77	43.453
833.94	47.490
834.11	53.518
834.28	48.718
834.45	54.075
834.63	45.277
834.80	51.895
834.97	51.401
835.14	56.314
835.31	52.052
835.49	49.404
835.66	45.872
835.83	48.681
836.00	53.991
836.17	50.837
836.34	50.495
836.52	55.513
836.69	59.940
836.86	63.880
837.03	58.007
837.20	53.598
837.37	50.502
837.55	50.095
837.72	47.300
837.89	65.402
838.06	65.459
838.23	69.474
838.40	64.096
838.58	53.687
838.75	74.233
838.92	58.261
839.09	83.861
839.26	72.113
839.43	89.583
839.60	74.920
839.78	83.540
839.95	71.429
840.12	65.789
840.29	69.252
840.46	82.866
840.63	64.820
840.80	62.797
840.98	69.146
841.15	63.198
841.32	74.302
841.49	66.667
841.66	66.757
841.83	45.390
842.00	67.989
842.17	77.374
842.34	69.081
842.52	57.273
842.69	72.785
842.86	65.934
843.03	79.421
843.20	72.046
843.37	73.016
843.54	70.990
843.71	87.917
843.88	77.007
844.06	128.390
844.23	94.915
844.40	97.034
844.57	88.843
844.74	87.500
844.91	106.965
845.08	119.774
845.25	110.106
845.42	104.469
845.59	90.984
845.76	101.613
845.94	138.333
846.11	96.535
846.28	91.633
846.45	110.753
846.62	103.000
846.79	90.295
846.96	93.956
847.13	122.826
847.30	85.311
847.47	97.423
847.64	93.469
847.81	158.824
847.98	124.324
848.15	107.821
848.32	121.762
848.50	105.500
848.67	95.858
848.84	92.308
849.01	117.266
849.18	108.824
849.35	88.571
849.52	100.529
849.69	98.352
849.86	112.162
850.03	138.843
850.20	154.000
850.37	94.118
850.54	110.106
850.71	109.896
850.88	108.387
851.05	92.391
851.22	122.892
851.39	139.037
851.56	163.793
851.73	139.286
851.90	135.294
852.07	99.415
852.24	140.523
852.41	101.015
852.58	110.929
852.75	104.070
852.92	111.050
853.09	139.869
853.26	125.490
853.43	92.353
853.60	121.088
853.77	118.436
853.94	136.283
854.11	111.667
854.28	135.417
854.45	125.974
854.62	105.233
854.79	97.576
854.96	157.639
855.13	116.981
855.30	152.555
855.47	186.290
855.64	132.298
855.81	161.151
855.98	121.374
856.15	146.923
856.32	93.365
856.49	120.904
856.66	123.718
856.83	121.384
857.00	131.967
857.17	147.581
857.34	82.609
857.51	111.268
857.68	110.714
857.85	125.294
858.02	122.449
858.19	96.133
858.36	125.287
858.53	117.160
858.70	112.088
858.87	135.862
859.04	115.882
859.21	143.182
859.38	97.696
859.55	131.250
859.72	122.222
859.89	136.364
860.05	160.432
860.22	113.939
860.39	136.207
860.56	126.786
860.73	132.143
860.90	120.359
861.07	110.000
861.24	101.471
861.41	123.121
861.58	119.481
861.75	126.772
861.92	115.625
862.09	111.558
862.26	123.226
862.43	163.333
862.59	98.026
862.76	125.907
862.93	149.231
863.10	132.353
863.27	125.385
863.44	152.033
863.61	131.159
863.78	101.604
863.95	114.634
864.12	169.231
864.29	141.525
864.45	109.434
864.62	139.837
864.79	110.588
864.96	177.885
865.13	136.496
865.30	192.857
865.47	131.034
865.64	137.762
865.81	139.474
865.97	91.824
866.14	103.209
866.31	143.443
866.48	102.113
866.65	103.681
866.82	149.664
866.99	120.714
867.16	114.729
867.33	151.773
867.49	112.651
867.66	152.239
867.83	92.857
868.00	108.602
868.17	155.725
868.34	150.394
868.51	106.338
868.67	123.214
868.84	136.296
869.01	124.138
869.18	116.000
869.35	114.184
869.52	119.708
869.69	162.687
869.85	118.243
870.02	100.000
870.19	150.769
870.36	115.827
870.53	228.571
870.70	173.214
870.86	102.597
871.03	126.277
871.20	136.134
871.37	118.935
871.54	133.962
871.71	147.727
871.87	187.629
872.04	91.250
872.21	134.091
872.38	228.916
872.55	115.000
872.72	94.928
872.88	146.667
873.05	94.652
873.22	133.333
873.39	110.976
873.56	117.266
873.72	125.967
873.89	143.949
874.06	111.475
874.23	106.522
874.40	138.400
874.56	171.212
874.73	140.833
874.90	117.123
875.07	131.298
875.24	106.098
875.40	159.821
875.57	138.889
875.74	118.750
875.91	160.317
876.08	103.571
876.24	142.308
876.41	136.090
876.58	112.409
876.75	122.581
876.92	156.410
877.08	126.277
877.25	125.974
877.42	143.077
877.59	98.193
877.75	110.849
877.92	104.070
878.09	140.132
878.26	129.452
878.42	108.889
878.59	121.023
878.76	98.942
878.93	127.815
879.09	106.803
879.26	91.667
879.43	133.333
879.60	109.091
879.76	97.949
879.93	75.635
880.10	87.907
880.27	71.111
880.43	86.224
880.60	89.202
880.77	76.863
880.94	70.714
881.10	62.759
881.27	62.431
881.44	45.770
881.61	57.746
881.77	53.690
881.94	46.215
882.11	39.053
882.28	45.109
882.44	41.340
882.61	45.112
882.78	42.903
882.94	55.722
883.11	44.124
883.28	46.176
883.45	47.429
883.61	48.867
883.78	45.935
883.95	53.389
884.11	44.574
884.28	40.581
>>>>>End Processed Spectral Data<<<<<
