SpectraSuite Data File
++++++++++++++++++++++++++++++++++++
Date: Thu Sep 19 03:38:19 EST 2019
User: sgrac
Dark Spectrum Present: Yes
Reference Spectrum Present: Yes
Number of Sampled Component Spectra: 1
Spectrometers: USB4E01596
Integration Time (usec): 100000 (USB4E01596)
Spectra Averaged: 1 (USB4E01596)
Boxcar Smoothing: 0 (USB4E01596)
Correct for Electrical Dark: No (USB4E01596)
Strobe/Lamp Enabled: Yes (USB4E01596)
Correct for Detector Non-linearity: No (USB4E01596)
Correct for Stray Light: No (USB4E01596)
Number of Pixels in Processed Spectrum: 3648
>>>>>Begin Processed Spectral Data<<<<<
178.44	928.571
178.66	928.571
178.87	928.571
179.09	-1063.636
179.30	226.786
179.52	1900.000
179.74	-833.333
179.95	904.762
180.17	1600.000
180.38	323.881
180.60	0.000
180.82	774.194
181.03	242.593
181.25	3000.000
181.46	1146.154
181.68	-344.186
181.89	1264.286
182.11	854.167
182.33	629.630
182.54	1408.333
182.76	1061.111
182.97	-632.143
183.19	423.810
183.40	360.000
183.62	576.190
183.84	1700.000
184.05	1173.333
184.27	-7250.000
184.48	285.714
184.70	7300.000
184.91	738.462
185.13	309.859
185.34	-242.308
185.56	644.444
185.78	534.615
185.99	-4550.000
186.21	-1118.182
186.42	-282.500
186.64	873.333
186.85	-7550.000
187.07	640.909
187.28	1257.143
187.50	654.545
187.72	397.222
187.93	1044.444
188.15	1015.789
188.36	1070.588
188.58	517.949
188.79	2533.333
189.01	666.667
189.22	3420.000
189.44	825.000
189.65	-6400.000
189.87	3825.000
190.09	1058.824
190.30	2371.429
190.52	1541.667
190.73	-511.538
190.95	397.727
191.16	591.667
191.38	525.000
191.59	-1263.636
191.81	713.636
192.02	1180.000
192.24	696.154
192.45	2025.000
192.67	2450.000
192.88	-514.815
193.10	-20100.000
193.31	588.571
193.53	-776.190
193.74	-3650.000
193.96	2033.333
194.18	943.750
194.39	502.439
194.61	1100.000
194.82	1490.909
195.04	640.000
195.25	6066.667
195.47	505.263
195.68	741.176
195.90	318.605
196.11	753.846
196.33	-2188.889
196.54	-1010.526
196.76	727.273
196.97	1611.111
197.19	-18500.000
197.40	1383.333
197.62	2750.000
197.83	1223.077
198.05	585.714
198.26	382.500
198.48	470.588
198.69	-1955.556
198.91	827.778
199.12	497.143
199.34	-2085.714
199.55	264.912
199.77	406.522
199.98	-1745.455
200.20	780.000
200.41	8500.000
200.63	660.714
200.84	704.762
201.06	-1476.923
201.27	-2640.000
201.49	1291.667
201.70	718.750
201.91	-8400.000
202.13	810.526
202.34	408.696
202.56	7550.000
202.77	993.750
202.99	396.000
203.20	536.364
203.42	-2357.143
203.63	2983.333
203.85	550.000
204.06	721.739
204.28	1737.500
204.49	-1180.000
204.71	497.561
204.92	368.889
205.14	428.889
205.35	310.000
205.56	2800.000
205.78	1018.182
205.99	-1220.000
206.21	691.304
206.42	277.966
206.64	-3066.667
206.85	761.905
207.07	800.000
207.28	-3080.000
207.50	359.259
207.71	662.500
207.93	387.500
208.14	729.630
208.35	911.765
208.57	-464.000
208.78	-390.244
209.00	379.070
209.21	442.857
209.43	568.000
209.64	12500.000
209.86	723.810
210.07	582.759
210.28	-1076.923
210.50	952.941
210.71	755.000
210.93	546.875
211.14	294.286
211.36	402.174
211.57	830.000
211.78	448.718
212.00	1113.333
212.21	970.588
212.43	1240.000
212.64	610.000
212.86	239.744
213.07	637.931
213.29	650.000
213.50	525.806
213.71	660.000
213.93	2614.286
214.14	941.176
214.36	2112.500
214.57	271.831
214.78	1113.333
215.00	1021.053
215.21	727.778
215.43	270.886
215.64	540.741
215.86	1066.667
216.07	678.947
216.28	382.222
216.50	8400.000
216.71	-17500.000
216.93	722.222
217.14	275.758
217.35	494.286
217.57	2775.000
217.78	534.286
218.00	4400.000
218.21	612.500
218.42	318.750
218.64	-7650.000
218.85	331.373
219.07	2114.286
219.28	281.967
219.49	-1200.000
219.71	1737.500
219.92	275.676
220.14	1662.500
220.35	454.545
220.56	1361.538
220.78	284.211
220.99	540.000
221.21	174.227
221.42	604.348
221.63	6750.000
221.85	575.000
222.06	630.000
222.28	293.333
222.49	-1577.778
222.70	296.296
222.92	-9850.000
223.13	400.000
223.34	214.130
223.56	1325.000
223.77	235.294
223.99	355.556
224.20	291.667
224.41	214.667
224.63	9800.000
224.84	5566.667
225.05	1176.923
225.27	376.923
225.48	328.333
225.69	171.765
225.91	321.875
226.12	221.739
226.34	531.250
226.55	230.882
226.76	390.196
226.98	218.182
227.19	191.026
227.40	306.000
227.62	241.096
227.83	173.214
228.04	183.117
228.26	109.821
228.47	133.333
228.69	139.706
228.90	94.643
229.11	65.502
229.33	97.129
229.54	80.498
229.75	80.565
229.97	66.159
230.18	62.791
230.39	45.960
230.61	70.307
230.82	70.432
231.03	50.000
231.25	61.409
231.46	67.857
231.67	69.057
231.89	69.048
232.10	80.755
232.31	108.929
232.53	88.532
232.74	63.303
232.95	80.392
233.17	96.923
233.38	85.789
233.59	116.292
233.81	106.790
234.02	106.286
234.23	81.443
234.45	89.091
234.66	86.207
234.87	84.302
235.09	78.191
235.30	100.000
235.51	79.821
235.73	67.172
235.94	74.107
236.15	75.000
236.36	81.333
236.58	77.512
236.79	90.948
237.00	69.880
237.22	96.825
237.43	78.599
237.64	103.727
237.86	83.019
238.07	95.378
238.28	85.433
238.50	78.947
238.71	88.083
238.92	68.396
239.13	95.161
239.35	78.423
239.56	79.444
239.77	118.033
239.99	63.710
240.20	89.105
240.41	73.228
240.63	57.910
240.84	74.336
241.05	59.797
241.26	42.857
241.48	50.765
241.69	50.136
241.90	36.552
242.12	39.264
242.33	49.242
242.54	32.437
242.75	29.125
242.97	38.102
243.18	21.376
243.39	22.454
243.61	26.675
243.82	33.052
244.03	26.093
244.24	25.666
244.46	32.834
244.67	36.541
244.88	35.953
245.09	35.149
245.31	39.016
245.52	32.343
245.73	47.834
245.95	61.310
246.16	39.464
246.37	28.620
246.58	30.000
246.80	37.519
247.01	31.089
247.22	24.596
247.43	29.886
247.65	26.851
247.86	29.102
248.07	15.786
248.28	24.965
248.50	25.133
248.71	19.636
248.92	25.304
249.13	25.430
249.35	24.718
249.56	24.603
249.77	28.384
249.98	22.625
250.20	32.308
250.41	39.135
250.62	38.820
250.83	29.227
251.05	31.503
251.26	27.003
251.47	36.744
251.68	42.637
251.90	32.677
252.11	38.602
252.32	23.875
252.53	29.326
252.75	31.785
252.96	36.676
253.17	27.632
253.38	31.303
253.59	27.901
253.81	26.059
254.02	27.261
254.23	28.070
254.44	28.143
254.66	24.673
254.87	34.407
255.08	36.767
255.29	48.473
255.50	35.031
255.72	35.490
255.93	50.897
256.14	51.724
256.35	30.858
256.57	43.489
256.78	35.526
256.99	38.060
257.20	45.303
257.41	37.320
257.63	38.722
257.84	44.972
258.05	28.544
258.26	32.958
258.47	29.721
258.69	28.087
258.90	21.708
259.11	22.868
259.32	24.437
259.53	23.053
259.75	20.735
259.96	20.016
260.17	17.267
260.38	18.850
260.59	20.679
260.81	19.702
261.02	18.594
261.23	23.535
261.44	21.367
261.65	24.480
261.87	22.408
262.08	23.751
262.29	26.816
262.50	20.104
262.71	19.971
262.92	26.148
263.14	24.821
263.35	15.920
263.56	22.737
263.77	26.068
263.98	22.099
264.20	31.834
264.41	21.537
264.62	25.839
264.83	21.129
265.04	34.881
265.25	27.928
265.47	32.974
265.68	33.891
265.89	24.027
266.10	21.288
266.31	30.525
266.52	27.078
266.74	26.570
266.95	20.839
267.16	21.094
267.37	25.217
267.58	25.025
267.79	22.502
268.01	26.079
268.22	23.105
268.43	22.449
268.64	23.653
268.85	21.788
269.06	23.760
269.27	31.948
269.49	25.490
269.70	23.204
269.91	20.000
270.12	20.922
270.33	27.849
270.54	25.291
270.75	18.832
270.97	22.201
271.18	16.713
271.39	20.151
271.60	25.588
271.81	21.295
272.02	16.933
272.23	21.310
272.45	15.714
272.66	17.309
272.87	18.590
273.08	21.784
273.29	20.749
273.50	19.340
273.71	23.447
273.92	16.599
274.14	18.316
274.35	22.047
274.56	23.045
274.77	23.827
274.98	20.970
275.19	20.791
275.40	22.646
275.61	18.204
275.83	26.577
276.04	23.549
276.25	22.491
276.46	25.495
276.67	23.875
276.88	27.065
277.09	28.085
277.30	28.535
277.51	22.309
277.73	21.372
277.94	20.053
278.15	23.519
278.36	25.424
278.57	20.285
278.78	25.149
278.99	21.988
279.20	22.070
279.41	22.757
279.62	21.116
279.84	20.485
280.05	21.695
280.26	18.750
280.47	26.619
280.68	21.391
280.89	21.794
281.10	24.077
281.31	21.806
281.52	22.762
281.73	15.074
281.94	18.231
282.16	21.536
282.37	19.503
282.58	18.986
282.79	26.587
283.00	20.190
283.21	20.552
283.42	17.217
283.63	21.992
283.84	14.745
284.05	20.596
284.26	18.876
284.47	20.489
284.68	21.771
284.89	17.357
285.11	17.815
285.32	15.896
285.53	17.568
285.74	24.418
285.95	17.577
286.16	21.343
286.37	16.874
286.58	21.576
286.79	16.869
287.00	19.374
287.21	15.396
287.42	22.366
287.63	16.955
287.84	19.408
288.05	19.587
288.26	20.498
288.48	19.313
288.69	15.144
288.90	18.665
289.11	22.518
289.32	18.482
289.53	17.304
289.74	15.088
289.95	17.105
290.16	23.007
290.37	16.187
290.58	12.871
290.79	11.034
291.00	18.056
291.21	14.980
291.42	13.566
291.63	15.713
291.84	19.080
292.05	14.356
292.26	17.153
292.47	17.062
292.68	14.356
292.89	16.982
293.10	20.352
293.31	16.594
293.52	14.402
293.73	15.711
293.94	17.206
294.15	16.337
294.36	13.484
294.57	20.367
294.79	16.525
295.00	13.055
295.21	17.486
295.42	20.263
295.63	16.497
295.84	13.728
296.05	12.742
296.26	14.066
296.47	13.917
296.68	16.362
296.89	18.011
297.10	15.950
297.31	17.350
297.52	13.755
297.73	13.816
297.94	14.536
298.15	13.563
298.36	14.109
298.57	13.043
298.78	16.919
298.99	12.469
299.20	16.065
299.41	14.771
299.62	15.176
299.83	12.369
300.04	16.483
300.25	18.362
300.46	17.812
300.67	18.386
300.88	18.372
301.09	15.315
301.30	18.944
301.50	16.215
301.71	22.336
301.92	16.735
302.13	14.488
302.34	16.489
302.55	11.695
302.76	15.553
302.97	16.480
303.18	14.372
303.39	12.427
303.60	15.031
303.81	16.912
304.02	13.905
304.23	16.434
304.44	16.310
304.65	15.586
304.86	15.361
305.07	14.195
305.28	12.267
305.49	16.114
305.70	16.567
305.91	14.887
306.12	14.904
306.33	17.011
306.54	14.643
306.75	15.837
306.96	20.683
307.17	13.614
307.38	14.656
307.58	13.980
307.79	17.430
308.00	15.978
308.21	15.170
308.42	16.645
308.63	17.106
308.84	13.232
309.05	14.597
309.26	12.796
309.47	16.595
309.68	12.864
309.89	14.694
310.10	14.197
310.31	11.244
310.52	12.327
310.73	16.113
310.94	10.415
311.14	11.716
311.35	15.160
311.56	12.518
311.77	13.210
311.98	13.257
312.19	11.165
312.40	13.610
312.61	14.398
312.82	16.153
313.03	14.456
313.24	14.780
313.45	15.789
313.66	14.966
313.86	14.070
314.07	13.646
314.28	19.383
314.49	13.315
314.70	15.756
314.91	20.117
315.12	14.538
315.33	15.541
315.54	12.000
315.75	11.795
315.96	12.999
316.16	11.345
316.37	14.165
316.58	13.886
316.79	15.132
317.00	18.410
317.21	13.538
317.42	17.414
317.63	14.614
317.84	14.328
318.05	15.024
318.25	15.857
318.46	12.977
318.67	14.194
318.88	16.206
319.09	15.314
319.30	13.145
319.51	13.171
319.72	13.370
319.93	14.792
320.13	16.488
320.34	16.636
320.55	14.044
320.76	13.538
320.97	14.313
321.18	18.481
321.39	15.375
321.60	12.848
321.80	18.885
322.01	13.946
322.22	16.571
322.43	14.872
322.64	10.617
322.85	14.196
323.06	15.085
323.27	16.526
323.47	15.327
323.68	15.796
323.89	12.832
324.10	16.686
324.31	12.109
324.52	14.638
324.73	15.082
324.93	12.312
325.14	14.208
325.35	15.348
325.56	12.999
325.77	14.656
325.98	14.322
326.19	12.595
326.39	9.653
326.60	14.314
326.81	13.998
327.02	11.887
327.23	11.167
327.44	16.294
327.64	11.943
327.85	11.753
328.06	17.100
328.27	20.651
328.48	14.966
328.69	12.373
328.90	12.763
329.10	12.500
329.31	16.203
329.52	12.009
329.73	16.227
329.94	15.441
330.15	16.867
330.35	13.597
330.56	15.424
330.77	14.912
330.98	16.079
331.19	11.810
331.39	14.804
331.60	10.732
331.81	10.927
332.02	16.265
332.23	13.547
332.44	12.803
332.64	14.353
332.85	12.638
333.06	14.385
333.27	11.823
333.48	14.984
333.68	12.421
333.89	13.283
334.10	12.191
334.31	16.092
334.52	11.627
334.72	10.925
334.93	11.388
335.14	10.968
335.35	12.068
335.56	14.024
335.76	9.239
335.97	12.312
336.18	9.939
336.39	16.849
336.60	15.058
336.80	14.527
337.01	12.798
337.22	10.764
337.43	16.626
337.64	15.373
337.84	13.623
338.05	13.446
338.26	16.084
338.47	15.046
338.68	9.667
338.88	14.411
339.09	13.422
339.30	11.753
339.51	13.845
339.71	14.532
339.92	10.020
340.13	13.616
340.34	12.982
340.55	9.939
340.75	13.353
340.96	10.131
341.17	15.806
341.38	9.839
341.58	11.175
341.79	12.286
342.00	10.648
342.21	13.842
342.41	8.576
342.62	12.523
342.83	13.578
343.04	8.983
343.24	12.441
343.45	12.038
343.66	10.422
343.87	10.593
344.07	11.060
344.28	12.393
344.49	12.447
344.70	13.581
344.90	11.368
345.11	10.336
345.32	10.859
345.53	11.169
345.73	13.552
345.94	11.987
346.15	12.965
346.36	12.183
346.56	12.767
346.77	13.210
346.98	12.724
347.19	13.162
347.39	9.742
347.60	11.070
347.81	12.804
348.02	12.043
348.22	9.824
348.43	11.411
348.64	10.075
348.84	10.772
349.05	12.388
349.26	13.218
349.47	11.690
349.67	10.763
349.88	13.819
350.09	12.724
350.30	13.681
350.50	11.101
350.71	12.839
350.92	13.501
351.12	11.727
351.33	13.078
351.54	10.620
351.74	11.745
351.95	11.970
352.16	13.596
352.37	13.607
352.57	11.552
352.78	12.239
352.99	13.115
353.19	12.991
353.40	12.191
353.61	13.773
353.82	11.605
354.02	12.787
354.23	11.689
354.44	14.745
354.64	10.576
354.85	14.666
355.06	13.103
355.26	9.983
355.47	13.429
355.68	15.221
355.88	13.132
356.09	13.521
356.30	12.150
356.51	15.100
356.71	12.418
356.92	11.724
357.13	16.224
357.33	17.006
357.54	15.552
357.75	12.154
357.95	15.907
358.16	12.977
358.37	16.644
358.57	12.142
358.78	17.755
358.99	14.787
359.19	14.103
359.40	17.288
359.61	16.710
359.81	17.415
360.02	19.850
360.23	14.054
360.43	15.462
360.64	15.161
360.85	16.459
361.05	14.272
361.26	20.564
361.47	17.052
361.67	19.059
361.88	13.706
362.09	17.569
362.29	15.015
362.50	17.081
362.70	15.710
362.91	21.629
363.12	18.112
363.32	20.232
363.53	18.927
363.74	20.543
363.94	15.638
364.15	23.099
364.36	19.621
364.56	19.644
364.77	19.340
364.98	23.974
365.18	19.615
365.39	22.723
365.59	17.193
365.80	17.867
366.01	21.447
366.21	17.460
366.42	18.302
366.63	21.909
366.83	17.360
367.04	14.767
367.24	22.151
367.45	18.310
367.66	17.146
367.86	19.957
368.07	19.741
368.28	19.899
368.48	19.754
368.69	16.656
368.89	19.017
369.10	20.270
369.31	19.298
369.51	20.415
369.72	21.409
369.92	23.640
370.13	15.250
370.34	21.634
370.54	14.693
370.75	21.207
370.95	14.925
371.16	21.012
371.37	17.834
371.57	18.681
371.78	19.045
371.98	21.864
372.19	20.330
372.40	22.561
372.60	19.778
372.81	20.150
373.01	17.298
373.22	19.701
373.43	21.192
373.63	22.956
373.84	20.077
374.04	22.535
374.25	19.337
374.46	22.972
374.66	20.366
374.87	23.133
375.07	15.338
375.28	19.153
375.48	17.896
375.69	21.747
375.90	15.988
376.10	18.989
376.31	18.592
376.51	18.210
376.72	17.287
376.92	16.975
377.13	21.701
377.34	21.644
377.54	18.095
377.75	21.826
377.95	19.349
378.16	21.529
378.36	20.182
378.57	22.081
378.77	20.136
378.98	21.738
379.19	19.248
379.39	20.600
379.60	20.907
379.80	19.739
380.01	21.695
380.21	19.899
380.42	20.563
380.62	19.661
380.83	20.799
381.04	20.820
381.24	21.644
381.45	19.899
381.65	18.611
381.86	19.054
382.06	20.199
382.27	19.520
382.47	16.959
382.68	23.061
382.88	17.338
383.09	19.597
383.29	18.471
383.50	22.267
383.71	18.464
383.91	18.146
384.12	16.738
384.32	21.681
384.53	17.972
384.73	17.191
384.94	17.436
385.14	20.290
385.35	16.977
385.55	21.285
385.76	16.731
385.96	19.143
386.17	19.264
386.37	19.747
386.58	18.044
386.78	20.743
386.99	18.855
387.19	23.196
387.40	17.944
387.60	23.518
387.81	18.567
388.01	18.778
388.22	19.433
388.42	20.435
388.63	20.210
388.83	21.406
389.04	16.920
389.24	19.166
389.45	19.069
389.65	18.837
389.86	19.253
390.06	18.532
390.27	16.276
390.47	20.408
390.68	17.000
390.88	21.642
391.09	18.694
391.29	20.588
391.50	18.776
391.70	20.627
391.91	17.704
392.11	18.853
392.32	20.177
392.52	21.188
392.73	19.968
392.93	21.139
393.14	19.240
393.34	19.798
393.55	19.720
393.75	20.543
393.95	19.353
394.16	20.918
394.36	21.061
394.57	21.463
394.77	18.780
394.98	19.087
395.18	20.433
395.39	20.973
395.59	18.853
395.80	19.782
396.00	17.587
396.21	21.068
396.41	17.824
396.61	22.801
396.82	19.817
397.02	22.302
397.23	20.286
397.43	20.551
397.64	17.429
397.84	20.829
398.05	16.136
398.25	19.450
398.45	18.707
398.66	20.684
398.86	18.620
399.07	21.187
399.27	17.977
399.48	21.561
399.68	17.489
399.89	18.149
400.09	19.289
400.29	18.539
400.50	19.255
400.70	20.504
400.91	17.768
401.11	19.505
401.32	19.005
401.52	17.221
401.72	18.256
401.93	20.735
402.13	19.644
402.34	19.861
402.54	17.575
402.75	21.517
402.95	16.991
403.15	21.614
403.36	17.595
403.56	20.205
403.77	17.448
403.97	18.461
404.17	17.276
404.38	18.984
404.58	17.868
404.79	21.199
404.99	18.289
405.19	19.865
405.40	19.674
405.60	19.221
405.81	18.462
406.01	19.813
406.21	18.751
406.42	20.075
406.62	19.031
406.83	20.722
407.03	19.705
407.23	19.422
407.44	17.337
407.64	19.394
407.85	20.153
408.05	18.587
408.25	17.635
408.46	19.960
408.66	18.101
408.87	18.441
409.07	18.197
409.27	16.542
409.48	17.498
409.68	19.454
409.88	14.835
410.09	18.577
410.29	18.941
410.50	19.810
410.70	17.278
410.90	19.484
411.11	16.448
411.31	18.768
411.51	18.326
411.72	19.996
411.92	16.945
412.12	17.833
412.33	17.716
412.53	18.106
412.74	15.213
412.94	18.016
413.14	17.440
413.35	19.258
413.55	17.942
413.75	19.356
413.96	15.717
414.16	18.572
414.36	19.154
414.57	18.466
414.77	17.020
414.97	19.243
415.18	15.493
415.38	17.983
415.58	16.941
415.79	18.491
415.99	16.127
416.19	19.256
416.40	17.246
416.60	18.428
416.80	18.180
417.01	17.866
417.21	16.619
417.41	18.799
417.62	17.798
417.82	18.330
418.02	16.236
418.23	18.297
418.43	17.871
418.63	19.129
418.84	17.874
419.04	17.238
419.24	19.423
419.45	18.931
419.65	18.725
419.85	17.677
420.06	18.246
420.26	18.543
420.46	18.257
420.67	18.392
420.87	18.193
421.07	18.262
421.28	17.491
421.48	18.235
421.68	18.406
421.88	18.479
422.09	18.271
422.29	18.645
422.49	18.511
422.70	17.999
422.90	18.160
423.10	19.576
423.31	19.108
423.51	18.593
423.71	18.046
423.91	18.076
424.12	18.110
424.32	18.145
424.52	17.937
424.73	18.213
424.93	17.835
425.13	18.284
425.33	17.243
425.54	17.391
425.74	17.758
425.94	18.701
426.15	18.265
426.35	18.222
426.55	19.170
426.75	18.879
426.96	18.619
427.16	18.570
427.36	19.269
427.57	19.196
427.77	19.110
427.97	19.479
428.17	18.534
428.38	18.925
428.58	17.827
428.78	19.803
428.98	17.023
429.19	18.164
429.39	16.906
429.59	18.042
429.79	17.128
430.00	17.626
430.20	16.530
430.40	17.111
430.60	17.541
430.81	18.365
431.01	16.683
431.21	17.543
431.41	16.967
431.62	18.183
431.82	17.315
432.02	19.224
432.22	17.272
432.43	17.789
432.63	16.376
432.83	18.095
433.03	16.816
433.24	17.995
433.44	17.252
433.64	17.804
433.84	17.002
434.05	18.367
434.25	17.936
434.45	18.767
434.65	18.531
434.85	18.441
435.06	18.386
435.26	18.966
435.46	18.673
435.66	18.985
435.87	18.556
436.07	18.696
436.27	18.372
436.47	18.177
436.67	17.523
436.88	18.482
437.08	18.694
437.28	18.590
437.48	18.081
437.69	18.256
437.89	18.381
438.09	18.947
438.29	17.556
438.49	18.997
438.70	18.619
438.90	18.050
439.10	18.071
439.30	18.323
439.50	17.552
439.71	18.307
439.91	18.276
440.11	18.597
440.31	18.150
440.51	17.690
440.72	18.017
440.92	17.871
441.12	18.697
441.32	18.437
441.52	18.712
441.72	18.519
441.93	18.650
442.13	18.510
442.33	18.694
442.53	18.588
442.73	19.142
442.94	18.675
443.14	18.118
443.34	19.520
443.54	18.724
443.74	19.292
443.94	18.436
444.15	19.081
444.35	18.720
444.55	19.044
444.75	18.142
444.95	18.808
445.15	18.383
445.36	17.872
445.56	17.572
445.76	18.293
445.96	17.664
446.16	18.575
446.36	18.028
446.57	18.311
446.77	17.698
446.97	17.846
447.17	18.182
447.37	18.119
447.57	18.843
447.77	18.708
447.98	18.254
448.18	18.933
448.38	18.812
448.58	19.090
448.78	19.037
448.98	19.701
449.18	18.855
449.39	18.905
449.59	18.931
449.79	19.407
449.99	18.592
450.19	19.165
450.39	19.211
450.59	18.483
450.79	18.735
451.00	18.456
451.20	20.467
451.40	19.518
451.60	19.040
451.80	19.217
452.00	18.397
452.20	19.219
452.40	19.098
452.61	18.722
452.81	17.513
453.01	19.116
453.21	19.127
453.41	18.823
453.61	18.617
453.81	18.939
454.01	18.441
454.21	18.570
454.42	19.063
454.62	19.660
454.82	18.970
455.02	19.511
455.22	18.775
455.42	18.334
455.62	18.063
455.82	19.579
456.02	19.335
456.23	19.346
456.43	18.975
456.63	18.838
456.83	17.794
457.03	18.998
457.23	20.105
457.43	18.976
457.63	17.873
457.83	20.010
458.03	18.780
458.23	18.341
458.43	18.338
458.64	18.232
458.84	18.517
459.04	18.854
459.24	18.578
459.44	18.555
459.64	17.113
459.84	18.039
460.04	17.732
460.24	17.812
460.44	17.971
460.64	18.010
460.84	18.796
461.04	17.978
461.24	18.021
461.45	18.419
461.65	18.519
461.85	19.586
462.05	18.837
462.25	19.413
462.45	19.062
462.65	19.595
462.85	19.356
463.05	20.263
463.25	19.022
463.45	18.975
463.65	19.639
463.85	18.744
464.05	18.904
464.25	18.742
464.45	19.482
464.65	19.373
464.85	18.257
465.05	19.480
465.26	18.628
465.46	18.267
465.66	19.699
465.86	18.851
466.06	18.375
466.26	18.600
466.46	18.244
466.66	18.232
466.86	17.760
467.06	18.600
467.26	18.761
467.46	19.803
467.66	18.815
467.86	19.004
468.06	18.399
468.26	18.850
468.46	18.525
468.66	18.897
468.86	18.723
469.06	18.860
469.26	18.891
469.46	18.799
469.66	18.875
469.86	19.397
470.06	18.865
470.26	19.284
470.46	19.375
470.66	18.968
470.86	18.904
471.06	19.060
471.26	17.755
471.46	18.268
471.66	18.762
471.86	19.041
472.06	19.000
472.26	19.964
472.46	19.052
472.66	19.242
472.86	19.247
473.06	18.726
473.26	18.715
473.46	18.745
473.66	18.750
473.86	18.892
474.06	18.024
474.26	19.602
474.46	19.155
474.66	19.631
474.86	19.618
475.06	19.644
475.26	17.937
475.46	19.380
475.66	18.492
475.86	20.409
476.06	18.405
476.26	19.030
476.46	19.131
476.66	19.033
476.86	18.839
477.06	18.463
477.26	18.716
477.46	19.434
477.65	19.260
477.85	19.356
478.05	18.758
478.25	19.586
478.45	18.516
478.65	18.948
478.85	18.852
479.05	19.782
479.25	19.154
479.45	19.483
479.65	19.871
479.85	19.594
480.05	19.967
480.25	19.573
480.45	19.919
480.65	19.889
480.85	19.105
481.05	19.670
481.25	19.292
481.44	19.796
481.64	19.890
481.84	19.865
482.04	19.286
482.24	18.845
482.44	18.035
482.64	18.589
482.84	18.905
483.04	18.523
483.24	18.010
483.44	17.479
483.64	17.519
483.84	17.304
484.04	17.771
484.23	18.375
484.43	18.973
484.63	19.885
484.83	20.902
485.03	22.004
485.23	21.897
485.43	21.792
485.63	21.802
485.83	20.770
486.03	19.811
486.23	20.971
486.42	19.864
486.62	19.930
486.82	19.117
487.02	19.065
487.22	19.276
487.42	19.034
487.62	18.668
487.82	18.328
488.02	18.453
488.22	18.846
488.41	18.880
488.61	18.682
488.81	19.559
489.01	19.237
489.21	19.734
489.41	19.768
489.61	19.789
489.81	19.650
490.01	20.769
490.20	19.990
490.40	19.826
490.60	20.001
490.80	19.818
491.00	19.319
491.20	18.588
491.40	18.482
491.60	18.231
491.79	18.580
491.99	18.482
492.19	18.747
492.39	19.325
492.59	19.058
492.79	19.252
492.99	19.401
493.19	19.653
493.38	19.801
493.58	20.090
493.78	19.916
493.98	20.376
494.18	20.636
494.38	20.307
494.58	19.916
494.77	20.284
494.97	19.632
495.17	20.031
495.37	19.395
495.57	19.747
495.77	20.441
495.96	20.688
496.16	20.327
496.36	18.962
496.56	18.861
496.76	19.565
496.96	19.963
497.15	19.083
497.35	19.399
497.55	19.628
497.75	19.516
497.95	19.153
498.15	19.741
498.34	19.499
498.54	19.742
498.74	20.339
498.94	20.231
499.14	20.241
499.34	19.807
499.53	20.183
499.73	20.230
499.93	19.670
500.13	20.309
500.33	20.142
500.52	20.290
500.72	20.347
500.92	20.826
501.12	20.187
501.32	20.495
501.52	20.495
501.71	20.122
501.91	21.082
502.11	20.840
502.31	20.485
502.51	20.147
502.70	20.544
502.90	20.221
503.10	20.575
503.30	21.532
503.50	19.819
503.69	19.858
503.89	20.253
504.09	20.520
504.29	20.611
504.48	20.851
504.68	21.132
504.88	20.853
505.08	19.990
505.28	20.679
505.47	21.265
505.67	20.783
505.87	20.658
506.07	21.375
506.27	20.994
506.46	21.333
506.66	21.616
506.86	21.343
507.06	21.201
507.25	21.905
507.45	20.721
507.65	20.854
507.85	21.620
508.04	20.995
508.24	21.645
508.44	21.145
508.64	20.585
508.83	20.935
509.03	21.420
509.23	21.143
509.43	20.748
509.63	20.651
509.82	21.075
510.02	21.766
510.22	20.881
510.42	20.866
510.61	21.485
510.81	21.649
511.01	21.678
511.21	21.894
511.40	21.617
511.60	22.042
511.80	21.768
511.99	21.809
512.19	21.704
512.39	22.319
512.59	21.921
512.78	21.754
512.98	21.862
513.18	21.925
513.38	21.430
513.57	21.809
513.77	22.252
513.97	22.038
514.17	21.675
514.36	22.330
514.56	21.308
514.76	21.854
514.95	21.656
515.15	22.122
515.35	22.541
515.55	21.614
515.74	22.174
515.94	22.435
516.14	22.597
516.33	22.897
516.53	22.281
516.73	22.729
516.93	22.034
517.12	21.635
517.32	21.333
517.52	21.337
517.71	22.328
517.91	22.069
518.11	21.218
518.30	20.882
518.50	21.424
518.70	20.766
518.90	21.515
519.09	21.648
519.29	21.717
519.49	22.144
519.68	21.863
519.88	21.601
520.08	22.486
520.27	22.229
520.47	22.533
520.67	22.416
520.86	22.306
521.06	23.112
521.26	22.765
521.45	22.788
521.65	22.279
521.85	22.636
522.04	21.777
522.24	22.533
522.44	22.743
522.63	21.432
522.83	22.167
523.03	22.182
523.22	22.348
523.42	22.068
523.62	22.214
523.81	22.031
524.01	22.291
524.21	22.574
524.40	22.036
524.60	22.059
524.80	22.155
524.99	21.822
525.19	22.492
525.39	22.084
525.58	21.384
525.78	21.523
525.98	21.629
526.17	21.497
526.37	21.697
526.57	21.497
526.76	21.310
526.96	21.903
527.15	21.722
527.35	21.581
527.55	21.349
527.74	21.615
527.94	21.351
528.14	20.954
528.33	20.557
528.53	19.835
528.72	21.039
528.92	21.086
529.12	21.061
529.31	21.155
529.51	21.803
529.71	22.106
529.90	21.584
530.10	22.387
530.29	22.471
530.49	22.542
530.69	22.727
530.88	23.067
531.08	22.886
531.28	22.289
531.47	22.200
531.67	21.753
531.86	21.523
532.06	21.323
532.26	21.300
532.45	21.599
532.65	21.020
532.84	20.790
533.04	20.622
533.24	20.709
533.43	20.170
533.63	21.339
533.82	21.366
534.02	21.500
534.22	21.992
534.41	21.448
534.61	21.488
534.80	22.057
535.00	21.747
535.19	22.466
535.39	22.780
535.59	22.344
535.78	22.071
535.98	21.971
536.17	22.032
536.37	21.273
536.57	21.015
536.76	21.602
536.96	21.139
537.15	21.643
537.35	21.671
537.54	21.531
537.74	21.730
537.93	21.621
538.13	21.948
538.33	22.672
538.52	22.549
538.72	22.296
538.91	22.397
539.11	21.581
539.30	22.648
539.50	21.828
539.70	21.983
539.89	21.751
540.09	22.267
540.28	21.301
540.48	22.097
540.67	20.747
540.87	21.263
541.06	20.477
541.26	20.716
541.45	20.511
541.65	21.296
541.85	20.608
542.04	21.035
542.24	21.988
542.43	21.530
542.63	21.876
542.82	22.030
543.02	21.952
543.21	22.050
543.41	22.644
543.60	22.463
543.80	22.102
543.99	22.884
544.19	22.124
544.38	21.880
544.58	22.287
544.77	21.794
544.97	22.094
545.16	22.765
545.36	22.561
545.56	22.573
545.75	22.458
545.95	22.346
546.14	22.202
546.34	21.980
546.53	21.616
546.73	22.789
546.92	22.434
547.12	22.280
547.31	22.554
547.51	23.128
547.70	22.106
547.90	21.811
548.09	22.192
548.29	22.281
548.48	22.597
548.68	22.032
548.87	22.544
549.07	22.953
549.26	23.584
549.46	23.022
549.65	22.322
549.84	23.311
550.04	22.748
550.23	23.222
550.43	22.692
550.62	23.203
550.82	22.832
551.01	23.050
551.21	22.725
551.40	22.255
551.60	23.389
551.79	23.038
551.99	23.396
552.18	22.274
552.38	23.144
552.57	22.006
552.77	23.048
552.96	22.829
553.16	22.501
553.35	22.691
553.54	23.220
553.74	22.391
553.93	22.511
554.13	22.773
554.32	22.624
554.52	23.189
554.71	23.711
554.91	23.539
555.10	24.146
555.29	22.930
555.49	22.905
555.68	22.978
555.88	23.131
556.07	22.505
556.27	22.862
556.46	23.048
556.66	23.474
556.85	22.973
557.04	22.686
557.24	22.625
557.43	22.205
557.63	22.909
557.82	22.992
558.02	21.786
558.21	22.707
558.40	22.682
558.60	23.550
558.79	23.662
558.99	22.930
559.18	22.685
559.38	22.420
559.57	22.866
559.76	22.775
559.96	22.939
560.15	22.754
560.35	21.898
560.54	22.589
560.73	21.268
560.93	22.693
561.12	23.187
561.32	21.766
561.51	22.107
561.70	22.099
561.90	21.749
562.09	23.103
562.29	21.860
562.48	22.762
562.67	22.526
562.87	22.556
563.06	22.529
563.26	22.820
563.45	21.919
563.64	23.135
563.84	21.685
564.03	21.516
564.23	21.368
564.42	22.285
564.61	22.842
564.81	21.627
565.00	22.247
565.20	21.541
565.39	21.849
565.58	21.877
565.78	20.713
565.97	21.253
566.16	21.171
566.36	21.452
566.55	21.836
566.74	21.138
566.94	20.447
567.13	21.227
567.33	21.260
567.52	21.712
567.71	21.474
567.91	21.816
568.10	21.190
568.29	21.592
568.49	21.593
568.68	21.649
568.87	21.347
569.07	21.594
569.26	21.609
569.45	21.510
569.65	20.438
569.84	21.352
570.04	19.894
570.23	20.713
570.42	20.554
570.62	20.334
570.81	20.053
571.00	20.473
571.20	20.342
571.39	19.823
571.58	19.405
571.78	19.910
571.97	20.690
572.16	20.563
572.36	19.901
572.55	20.584
572.74	20.303
572.94	20.002
573.13	20.430
573.32	20.599
573.51	19.973
573.71	20.047
573.90	20.337
574.09	20.165
574.29	20.130
574.48	19.656
574.67	19.902
574.87	19.828
575.06	19.780
575.25	19.118
575.45	19.168
575.64	19.620
575.83	19.945
576.03	20.388
576.22	19.194
576.41	19.591
576.60	19.042
576.80	20.117
576.99	19.085
577.18	20.107
577.38	20.019
577.57	19.436
577.76	20.604
577.95	19.809
578.15	19.845
578.34	19.453
578.53	18.531
578.73	19.682
578.92	18.779
579.11	19.479
579.30	19.994
579.50	18.292
579.69	19.686
579.88	19.876
580.08	18.591
580.27	19.179
580.46	18.992
580.65	19.220
580.85	19.272
581.04	19.681
581.23	19.016
581.42	18.805
581.62	18.456
581.81	19.492
582.00	19.042
582.19	19.024
582.39	19.295
582.58	19.504
582.77	18.396
582.96	18.780
583.16	18.702
583.35	18.957
583.54	18.921
583.73	19.166
583.93	18.689
584.12	18.642
584.31	16.811
584.50	18.524
584.70	18.193
584.89	19.483
585.08	18.057
585.27	19.243
585.47	17.367
585.66	19.744
585.85	17.541
586.04	19.856
586.24	19.320
586.43	18.237
586.62	17.446
586.81	19.298
587.00	18.765
587.20	20.145
587.39	17.331
587.58	19.281
587.77	20.112
587.97	17.964
588.16	18.782
588.35	19.304
588.54	19.151
588.73	18.654
588.93	20.139
589.12	20.554
589.31	18.395
589.50	19.919
589.69	19.592
589.89	21.111
590.08	19.778
590.27	20.033
590.46	19.970
590.65	20.079
590.85	19.398
591.04	20.517
591.23	19.714
591.42	19.509
591.61	20.250
591.81	20.162
592.00	19.793
592.19	21.737
592.38	19.487
592.57	21.131
592.77	21.231
592.96	19.558
593.15	21.963
593.34	21.499
593.53	20.497
593.72	20.875
593.92	20.210
594.11	22.652
594.30	20.390
594.49	21.962
594.68	21.941
594.87	21.770
595.07	21.479
595.26	21.171
595.45	21.880
595.64	22.275
595.83	21.982
596.02	21.742
596.22	21.938
596.41	21.104
596.60	22.907
596.79	22.276
596.98	22.683
597.17	22.819
597.37	22.614
597.56	23.338
597.75	22.149
597.94	23.194
598.13	23.052
598.32	23.166
598.51	23.794
598.71	23.250
598.90	23.872
599.09	23.879
599.28	24.751
599.47	24.737
599.66	24.567
599.85	25.357
600.05	25.122
600.24	24.848
600.43	25.302
600.62	25.692
600.81	24.574
601.00	25.237
601.19	25.788
601.38	25.568
601.58	25.896
601.77	25.456
601.96	24.614
602.15	27.211
602.34	26.656
602.53	26.614
602.72	26.159
602.91	25.995
603.10	26.982
603.30	27.277
603.49	25.854
603.68	27.416
603.87	27.061
604.06	26.420
604.25	26.668
604.44	27.240
604.63	27.757
604.82	27.095
605.01	28.580
605.21	27.366
605.40	27.630
605.59	28.477
605.78	27.839
605.97	28.232
606.16	28.417
606.35	28.454
606.54	29.648
606.73	29.325
606.92	29.409
607.11	30.041
607.30	29.476
607.50	30.059
607.69	29.834
607.88	30.311
608.07	30.135
608.26	30.279
608.45	30.220
608.64	30.325
608.83	30.490
609.02	29.597
609.21	30.098
609.40	29.878
609.59	30.404
609.78	29.761
609.97	30.747
610.16	30.725
610.35	30.731
610.55	30.066
610.74	30.568
610.93	31.578
611.12	31.203
611.31	30.435
611.50	30.862
611.69	30.963
611.88	32.930
612.07	32.707
612.26	31.271
612.45	32.981
612.64	30.927
612.83	33.094
613.02	31.452
613.21	31.987
613.40	32.320
613.59	32.206
613.78	32.581
613.97	32.884
614.16	32.481
614.35	32.322
614.54	31.347
614.73	32.630
614.92	32.549
615.11	32.413
615.30	32.420
615.49	33.184
615.68	32.471
615.87	33.138
616.07	32.237
616.26	31.902
616.45	34.010
616.64	32.753
616.83	30.504
617.02	33.210
617.21	31.957
617.40	32.530
617.59	32.293
617.78	32.455
617.97	33.382
618.16	31.521
618.35	31.284
618.54	31.965
618.73	33.172
618.92	32.250
619.11	33.487
619.30	33.834
619.49	33.102
619.68	32.795
619.86	33.251
620.05	33.434
620.24	33.936
620.43	33.773
620.62	32.480
620.81	33.048
621.00	33.550
621.19	32.964
621.38	33.219
621.57	34.674
621.76	33.698
621.95	33.560
622.14	32.128
622.33	33.203
622.52	33.512
622.71	33.299
622.90	33.264
623.09	33.231
623.28	33.509
623.47	34.263
623.66	34.512
623.85	33.699
624.04	31.304
624.23	34.249
624.42	32.976
624.61	32.543
624.80	32.735
624.99	33.567
625.18	31.375
625.36	33.085
625.55	33.770
625.74	34.191
625.93	32.425
626.12	33.594
626.31	32.816
626.50	34.218
626.69	34.988
626.88	33.088
627.07	33.830
627.26	34.539
627.45	35.044
627.64	33.370
627.83	32.246
628.02	33.206
628.20	33.677
628.39	33.403
628.58	33.679
628.77	34.942
628.96	33.219
629.15	32.414
629.34	33.050
629.53	33.435
629.72	31.295
629.91	34.043
630.10	33.076
630.29	31.906
630.47	32.672
630.66	31.919
630.85	32.551
631.04	32.997
631.23	33.240
631.42	32.796
631.61	34.190
631.80	32.561
631.99	32.205
632.18	32.352
632.36	32.360
632.55	33.111
632.74	32.461
632.93	32.963
633.12	33.551
633.31	32.852
633.50	33.313
633.69	34.365
633.88	31.844
634.06	33.340
634.25	33.015
634.44	32.790
634.63	33.948
634.82	33.159
635.01	31.404
635.20	32.588
635.39	31.518
635.57	33.749
635.76	32.950
635.95	32.547
636.14	33.219
636.33	34.139
636.52	32.474
636.71	33.154
636.89	33.713
637.08	32.831
637.27	32.065
637.46	32.549
637.65	33.074
637.84	33.305
638.03	32.451
638.21	34.317
638.40	32.223
638.59	32.788
638.78	33.031
638.97	35.701
639.16	34.191
639.34	34.116
639.53	33.694
639.72	33.248
639.91	32.118
640.10	33.617
640.29	33.951
640.47	34.635
640.66	34.748
640.85	35.425
641.04	31.639
641.23	33.660
641.42	32.941
641.60	33.623
641.79	31.991
641.98	34.652
642.17	32.858
642.36	33.308
642.54	31.530
642.73	32.800
642.92	31.360
643.11	34.569
643.30	33.497
643.49	34.371
643.67	31.929
643.86	34.705
644.05	31.578
644.24	33.204
644.43	33.107
644.61	34.212
644.80	32.936
644.99	33.681
645.18	34.466
645.37	33.902
645.55	32.994
645.74	32.942
645.93	30.471
646.12	32.927
646.31	32.654
646.49	34.390
646.68	33.684
646.87	33.734
647.06	32.423
647.24	33.711
647.43	32.423
647.62	33.734
647.81	32.237
648.00	33.898
648.18	32.066
648.37	32.303
648.56	33.403
648.75	33.000
648.93	31.291
649.12	32.892
649.31	31.578
649.50	31.951
649.68	31.673
649.87	32.508
650.06	31.888
650.25	32.648
650.43	32.574
650.62	32.579
650.81	32.630
651.00	31.932
651.18	33.333
651.37	33.104
651.56	30.593
651.75	34.066
651.93	32.289
652.12	33.359
652.31	31.554
652.50	32.588
652.68	32.602
652.87	34.326
653.06	32.163
653.25	33.604
653.43	29.488
653.62	32.263
653.81	32.739
654.00	33.342
654.18	33.877
654.37	34.175
654.56	33.235
654.74	31.709
654.93	29.577
655.12	33.012
655.31	31.874
655.49	31.392
655.68	28.527
655.87	29.645
656.05	30.269
656.24	31.623
656.43	29.632
656.62	29.566
656.80	30.051
656.99	31.600
657.18	29.779
657.36	29.193
657.55	29.587
657.74	30.872
657.93	30.122
658.11	31.174
658.30	29.209
658.49	29.164
658.67	28.705
658.86	30.602
659.05	28.755
659.23	29.375
659.42	28.422
659.61	29.946
659.79	28.320
659.98	30.407
660.17	28.271
660.35	28.710
660.54	30.040
660.73	29.067
660.91	28.615
661.10	30.246
661.29	26.299
661.47	28.588
661.66	28.860
661.85	28.917
662.03	26.693
662.22	26.920
662.41	23.831
662.59	26.600
662.78	23.424
662.97	25.759
663.15	22.630
663.34	24.587
663.53	23.185
663.71	24.598
663.90	23.800
664.09	26.728
664.27	23.775
664.46	25.563
664.65	21.061
664.83	21.969
665.02	21.566
665.21	21.168
665.39	19.534
665.58	20.954
665.77	21.622
665.95	23.683
666.14	21.138
666.32	23.515
666.51	20.132
666.70	20.479
666.88	19.080
667.07	20.961
667.26	18.605
667.44	20.921
667.63	19.783
667.81	19.210
668.00	19.134
668.19	24.523
668.37	20.243
668.56	24.163
668.75	17.699
668.93	24.129
669.12	18.357
669.30	21.476
669.49	16.559
669.68	21.437
669.86	19.672
670.05	19.260
670.23	18.631
670.42	18.089
670.61	19.550
670.79	22.168
670.98	19.042
671.16	22.681
671.35	19.144
671.54	19.859
671.72	17.960
671.91	19.642
672.09	17.277
672.28	21.529
672.46	21.824
672.65	20.328
672.84	20.439
673.02	20.659
673.21	15.555
673.39	19.911
673.58	22.002
673.77	19.711
673.95	18.752
674.14	20.364
674.32	18.566
674.51	22.380
674.69	18.557
674.88	20.114
675.07	17.094
675.25	23.527
675.44	19.224
675.62	21.892
675.81	18.014
675.99	28.460
676.18	21.270
676.36	19.096
676.55	17.087
676.74	23.509
676.92	23.278
677.11	21.054
677.29	19.601
677.48	22.303
677.66	20.630
677.85	20.942
678.03	19.053
678.22	24.685
678.40	20.401
678.59	22.249
678.78	19.384
678.96	21.039
679.15	19.699
679.33	23.142
679.52	24.405
679.70	24.328
679.89	21.166
680.07	24.425
680.26	20.987
680.44	23.650
680.63	23.620
680.81	22.509
681.00	20.237
681.18	23.414
681.37	22.367
681.55	24.545
681.74	24.576
681.92	24.216
682.11	25.366
682.29	23.607
682.48	24.656
682.66	25.073
682.85	24.839
683.03	25.306
683.22	26.594
683.40	24.615
683.59	23.446
683.77	26.933
683.96	23.214
684.14	29.354
684.33	20.853
684.51	30.328
684.70	23.889
684.88	29.063
685.07	26.063
685.25	27.509
685.44	23.532
685.62	27.562
685.81	26.557
685.99	30.114
686.18	25.704
686.36	29.238
686.55	22.894
686.73	27.305
686.92	28.671
687.10	29.759
687.29	30.611
687.47	31.961
687.65	32.115
687.84	30.403
688.02	32.744
688.21	33.969
688.39	30.375
688.58	34.842
688.76	32.100
688.95	34.908
689.13	30.103
689.32	36.392
689.50	32.694
689.68	35.311
689.87	33.241
690.05	36.322
690.24	36.225
690.42	36.751
690.61	36.354
690.79	41.632
690.98	33.226
691.16	36.830
691.34	34.678
691.53	39.719
691.71	35.810
691.90	38.438
692.08	38.535
692.27	41.610
692.45	39.057
692.63	40.468
692.82	42.726
693.00	41.493
693.19	38.593
693.37	44.854
693.56	40.354
693.74	42.694
693.92	41.450
694.11	45.855
694.29	45.734
694.48	47.047
694.66	45.676
694.84	47.505
695.03	44.051
695.21	47.284
695.40	47.797
695.58	51.477
695.76	44.298
695.95	48.220
696.13	48.317
696.32	49.455
696.50	53.280
696.68	51.794
696.87	49.854
697.05	52.394
697.24	52.326
697.42	51.438
697.60	49.666
697.79	49.873
697.97	53.428
698.16	52.842
698.34	51.587
698.52	53.032
698.71	51.718
698.89	52.140
699.07	51.632
699.26	53.774
699.44	53.891
699.63	52.964
699.81	51.945
699.99	54.038
700.18	54.905
700.36	54.375
700.54	55.072
700.73	54.176
700.91	55.615
701.09	56.993
701.28	57.050
701.46	57.532
701.64	57.006
701.83	58.033
702.01	55.440
702.20	60.511
702.38	59.571
702.56	58.783
702.75	61.907
702.93	57.348
703.11	60.908
703.30	60.929
703.48	59.578
703.66	61.854
703.85	59.193
704.03	61.963
704.21	62.587
704.40	61.542
704.58	58.637
704.76	60.625
704.95	60.826
705.13	61.535
705.31	62.722
705.50	63.863
705.68	62.741
705.86	63.754
706.04	63.075
706.23	61.124
706.41	64.000
706.59	61.108
706.78	60.642
706.96	64.408
707.14	61.837
707.33	62.620
707.51	62.602
707.69	65.691
707.88	61.103
708.06	66.479
708.24	65.287
708.42	65.974
708.61	60.740
708.79	63.514
708.97	69.501
709.16	67.607
709.34	67.904
709.52	63.943
709.71	64.076
709.89	64.561
710.07	63.276
710.25	64.899
710.44	68.391
710.62	67.730
710.80	65.056
710.98	68.032
711.17	63.539
711.35	62.616
711.53	64.415
711.72	66.251
711.90	68.450
712.08	66.407
712.26	65.134
712.45	64.966
712.63	64.346
712.81	68.154
712.99	65.594
713.18	68.396
713.36	64.149
713.54	65.727
713.72	64.570
713.91	63.915
714.09	66.283
714.27	65.407
714.45	68.321
714.64	67.119
714.82	65.650
715.00	67.544
715.18	65.834
715.37	65.902
715.55	65.328
715.73	69.773
715.91	63.319
716.10	64.311
716.28	64.996
716.46	65.072
716.64	65.457
716.83	66.743
717.01	65.454
717.19	62.718
717.37	65.882
717.55	67.259
717.74	66.682
717.92	64.711
718.10	62.536
718.28	68.077
718.47	64.993
718.65	66.751
718.83	67.460
719.01	67.817
719.19	68.685
719.38	64.632
719.56	67.257
719.74	65.644
719.92	61.556
720.10	67.694
720.29	66.686
720.47	68.735
720.65	69.958
720.83	68.549
721.01	66.151
721.20	67.260
721.38	69.161
721.56	70.523
721.74	67.756
721.92	68.405
722.11	67.500
722.29	68.922
722.47	65.558
722.65	67.780
722.83	66.226
723.01	70.991
723.20	64.442
723.38	67.766
723.56	66.950
723.74	67.112
723.92	69.619
724.10	74.359
724.29	69.341
724.47	71.608
724.65	69.619
724.83	72.814
725.01	66.237
725.19	71.792
725.38	65.325
725.56	69.819
725.74	67.470
725.92	71.022
726.10	62.627
726.28	64.844
726.46	67.203
726.65	69.451
726.83	71.365
727.01	69.314
727.19	64.455
727.37	70.282
727.55	68.519
727.73	70.449
727.92	69.373
728.10	64.934
728.28	67.047
728.46	69.784
728.64	68.357
728.82	70.870
729.00	66.762
729.19	70.484
729.37	68.779
729.55	70.409
729.73	69.006
729.91	69.245
730.09	68.630
730.27	66.874
730.45	65.055
730.63	65.179
730.82	70.235
731.00	68.619
731.18	65.729
731.36	68.118
731.54	65.283
731.72	66.957
731.90	65.138
732.08	69.770
732.26	69.585
732.45	67.790
732.63	73.612
732.81	69.489
732.99	69.261
733.17	73.114
733.35	65.073
733.53	67.218
733.71	67.515
733.89	67.430
734.07	71.379
734.25	69.798
734.44	69.071
734.62	66.086
734.80	69.732
734.98	70.425
735.16	70.563
735.34	69.662
735.52	68.658
735.70	69.722
735.88	67.953
736.06	67.451
736.24	72.834
736.42	71.154
736.60	71.758
736.78	71.419
736.97	72.380
737.15	74.069
737.33	68.117
737.51	70.966
737.69	73.845
737.87	70.111
738.05	70.926
738.23	69.721
738.41	71.398
738.59	75.311
738.77	67.484
738.95	72.017
739.13	66.784
739.31	72.734
739.49	76.679
739.67	72.038
739.85	72.953
740.03	66.010
740.21	69.653
740.39	72.940
740.57	71.694
740.75	74.478
740.93	66.735
741.11	73.310
741.30	72.556
741.48	74.413
741.66	68.963
741.84	72.540
742.02	63.572
742.20	71.298
742.38	74.845
742.56	70.676
742.74	71.142
742.92	68.182
743.10	72.713
743.28	69.068
743.46	73.840
743.64	73.284
743.82	67.634
744.00	72.953
744.18	68.049
744.36	71.381
744.54	66.126
744.72	72.251
744.90	78.038
745.08	71.623
745.26	65.354
745.44	77.167
745.62	69.577
745.80	67.666
745.98	73.775
746.16	75.219
746.34	68.129
746.52	75.780
746.70	72.710
746.87	69.148
747.05	73.498
747.23	70.650
747.41	75.044
747.59	68.135
747.77	63.049
747.95	74.344
748.13	69.654
748.31	74.337
748.49	70.035
748.67	73.425
748.85	70.018
749.03	75.647
749.21	72.309
749.39	68.096
749.57	66.354
749.75	74.430
749.93	73.358
750.11	71.416
750.29	68.850
750.47	72.227
750.65	70.301
750.83	74.978
751.01	70.815
751.18	76.455
751.36	67.979
751.54	67.960
751.72	69.739
751.90	69.806
752.08	70.320
752.26	71.339
752.44	64.513
752.62	71.872
752.80	67.765
752.98	68.779
753.16	73.866
753.34	78.456
753.52	64.525
753.69	74.935
753.87	69.702
754.05	69.156
754.23	73.238
754.41	72.027
754.59	68.046
754.77	74.913
754.95	66.077
755.13	72.908
755.31	71.417
755.49	72.227
755.66	67.408
755.84	69.362
756.02	69.224
756.20	72.616
756.38	60.625
756.56	72.610
756.74	69.936
756.92	68.430
757.10	66.330
757.28	78.902
757.45	72.145
757.63	73.128
757.81	69.869
757.99	77.218
758.17	71.280
758.35	73.424
758.53	70.551
758.71	73.040
758.88	68.783
759.06	71.968
759.24	71.593
759.42	69.759
759.60	68.755
759.78	66.233
759.96	66.528
760.13	67.688
760.31	59.236
760.49	62.769
760.67	60.487
760.85	63.056
761.03	54.915
761.21	59.067
761.38	55.699
761.56	64.500
761.74	56.664
761.92	62.795
762.10	57.119
762.28	64.286
762.46	54.752
762.63	59.620
762.81	60.946
762.99	65.066
763.17	56.613
763.35	65.416
763.53	63.140
763.70	66.064
763.88	66.607
764.06	65.037
764.24	62.111
764.42	69.554
764.60	63.728
764.77	63.770
764.95	64.072
765.13	69.897
765.31	62.235
765.49	64.002
765.66	65.448
765.84	70.686
766.02	63.689
766.20	68.407
766.38	66.739
766.56	69.944
766.73	60.812
766.91	66.945
767.09	63.725
767.27	73.663
767.45	57.601
767.62	68.408
767.80	64.505
767.98	67.901
768.16	63.613
768.33	68.548
768.51	67.804
768.69	69.481
768.87	65.072
769.05	68.640
769.22	67.330
769.40	75.834
769.58	68.079
769.76	70.406
769.94	60.928
770.11	69.528
770.29	68.821
770.47	71.896
770.65	74.973
770.82	68.991
771.00	66.405
771.18	68.625
771.36	66.787
771.53	67.841
771.71	71.429
771.89	73.462
772.07	66.863
772.25	70.972
772.42	63.763
772.60	76.435
772.78	63.840
772.96	74.359
773.13	63.583
773.31	77.723
773.49	67.411
773.67	76.779
773.84	64.231
774.02	73.639
774.20	57.780
774.37	75.697
774.55	71.798
774.73	77.116
774.91	63.813
775.08	70.180
775.26	73.144
775.44	71.258
775.62	75.532
775.79	70.182
775.97	66.250
776.15	71.240
776.32	66.762
776.50	73.266
776.68	71.937
776.86	74.286
777.03	67.940
777.21	64.161
777.39	66.385
777.56	68.254
777.74	68.313
777.92	79.389
778.10	71.041
778.27	75.968
778.45	68.932
778.63	74.930
778.80	64.762
778.98	77.254
779.16	71.177
779.34	74.763
779.51	65.816
779.69	70.139
779.87	63.373
780.04	71.816
780.22	67.954
780.40	69.351
780.57	70.883
780.75	66.667
780.93	66.409
781.10	68.363
781.28	81.223
781.46	61.708
781.63	72.152
781.81	73.229
781.99	67.518
782.16	70.117
782.34	63.323
782.52	68.966
782.69	58.278
782.87	75.179
783.05	64.487
783.22	73.988
783.40	61.962
783.58	75.039
783.75	63.664
783.93	63.687
784.11	71.520
784.28	73.112
784.46	58.371
784.64	74.959
784.81	62.814
784.99	75.279
785.17	76.610
785.34	64.992
785.52	70.283
785.69	71.472
785.87	71.567
786.05	74.178
786.22	72.684
786.40	75.662
786.58	61.527
786.75	66.343
786.93	66.397
787.11	66.501
787.28	72.270
787.46	70.923
787.63	80.000
787.81	73.285
787.99	67.459
788.16	67.862
788.34	59.856
788.51	70.700
788.69	54.704
788.87	62.483
789.04	59.345
789.22	60.963
789.39	68.130
789.57	68.421
789.75	65.522
789.92	70.289
790.10	59.350
790.27	63.989
790.45	56.671
790.63	67.225
790.80	60.226
790.98	65.850
791.15	59.299
791.33	66.856
791.51	62.862
791.68	72.931
791.86	67.178
792.03	65.430
792.21	62.890
792.39	73.968
792.56	69.193
792.74	70.394
792.91	67.818
793.09	67.756
793.26	56.752
793.44	69.307
793.62	61.611
793.79	64.767
793.97	68.048
794.14	69.189
794.32	66.257
794.49	79.762
794.67	57.262
794.84	61.624
795.02	70.973
795.20	71.403
795.37	70.339
795.55	57.810
795.72	68.146
795.90	64.250
796.07	61.130
796.25	68.827
796.42	63.312
796.60	62.063
796.77	63.391
796.95	64.384
797.13	56.012
797.30	68.558
797.48	58.358
797.65	61.071
797.83	54.505
798.00	69.920
798.18	66.348
798.35	67.576
798.53	59.910
798.70	69.100
798.88	68.437
799.05	60.380
799.23	52.851
799.40	69.483
799.58	63.230
799.75	64.830
799.93	56.556
800.10	56.342
800.28	63.194
800.45	66.509
800.63	64.299
800.80	69.767
800.98	71.063
801.15	72.884
801.33	61.471
801.50	70.894
801.68	57.221
801.85	64.488
802.03	63.762
802.20	66.898
802.38	65.700
802.55	66.195
802.73	70.455
802.90	66.503
803.08	54.887
803.25	72.053
803.43	65.485
803.60	78.516
803.78	67.023
803.95	66.245
804.13	63.209
804.30	71.180
804.48	58.721
804.65	59.491
804.83	70.804
805.00	56.584
805.17	67.587
805.35	64.314
805.52	60.000
805.70	63.715
805.87	68.024
806.05	68.172
806.22	54.175
806.40	62.632
806.57	54.696
806.75	69.164
806.92	63.398
807.09	68.155
807.27	59.109
807.44	80.303
807.62	65.619
807.79	63.987
807.97	68.293
808.14	68.182
808.31	60.917
808.49	62.500
808.66	58.303
808.84	65.650
809.01	60.300
809.19	67.969
809.36	72.152
809.53	72.798
809.71	58.250
809.88	69.118
810.06	64.315
810.23	69.130
810.41	71.926
810.58	73.872
810.75	61.266
810.93	66.042
811.10	62.992
811.28	64.741
811.45	58.314
811.62	63.216
811.80	63.877
811.97	65.227
812.15	60.362
812.32	70.222
812.49	59.564
812.67	60.991
812.84	67.865
813.02	66.667
813.19	60.000
813.36	61.171
813.54	67.538
813.71	66.307
813.89	65.375
814.06	64.133
814.23	64.151
814.41	69.773
814.58	64.681
814.75	61.417
814.93	63.677
815.10	63.616
815.28	59.322
815.45	73.798
815.62	60.870
815.80	48.661
815.97	58.084
816.14	63.198
816.32	65.302
816.49	60.331
816.66	59.275
816.84	71.779
817.01	77.857
817.18	68.421
817.36	75.439
817.53	59.594
817.71	47.059
817.88	65.354
818.05	58.865
818.23	63.189
818.40	63.812
818.57	64.944
818.75	59.155
818.92	62.832
819.09	58.812
819.27	59.751
819.44	63.676
819.61	53.239
819.79	55.758
819.96	63.218
820.13	46.441
820.31	60.447
820.48	66.427
820.65	66.774
820.82	55.488
821.00	64.525
821.17	49.495
821.34	59.649
821.52	61.972
821.69	54.424
821.86	57.250
822.04	69.286
822.21	61.440
822.38	66.405
822.56	64.360
822.73	68.070
822.90	64.254
823.07	64.991
823.25	63.483
823.42	63.938
823.59	63.718
823.77	63.548
823.94	63.590
824.11	62.476
824.29	63.670
824.46	61.369
824.63	66.869
824.80	65.849
824.98	65.299
825.15	61.638
825.32	58.762
825.49	64.986
825.67	63.425
825.84	59.833
826.01	58.288
826.19	64.035
826.36	54.615
826.53	62.364
826.70	56.974
826.88	71.990
827.05	60.203
827.22	63.183
827.39	57.618
827.57	60.030
827.74	55.955
827.91	62.703
828.08	59.452
828.26	63.598
828.43	59.765
828.60	64.010
828.77	56.613
828.95	59.025
829.12	51.218
829.29	51.508
829.46	49.828
829.64	55.838
829.81	44.607
829.98	60.789
830.15	50.400
830.32	50.816
830.50	49.015
830.67	59.811
830.84	47.878
831.01	47.167
831.19	53.333
831.36	49.303
831.53	58.223
831.70	60.496
831.87	58.964
832.05	65.498
832.22	68.511
832.39	60.175
832.56	52.495
832.74	52.183
832.91	60.116
833.08	63.357
833.25	49.724
833.42	50.247
833.60	46.345
833.77	47.482
833.94	49.807
834.11	50.058
834.28	47.741
834.45	51.542
834.63	47.014
834.80	54.211
834.97	51.401
835.14	56.008
835.31	53.554
835.49	53.181
835.66	45.668
835.83	48.462
836.00	55.399
836.17	54.698
836.34	49.134
836.52	58.718
836.69	62.199
836.86	57.525
837.03	60.142
837.20	48.295
837.37	53.846
837.55	47.070
837.72	60.894
837.89	56.920
838.06	57.005
838.23	62.947
838.40	55.904
838.58	61.982
838.75	66.871
838.92	66.667
839.09	85.759
839.26	67.324
839.43	88.889
839.60	76.849
839.78	88.820
839.95	69.643
840.12	76.316
840.29	78.116
840.46	73.520
840.63	68.975
840.80	71.768
840.98	88.430
841.15	61.675
841.32	75.978
841.49	63.085
841.66	64.865
841.83	60.047
842.00	69.405
842.17	72.346
842.34	65.460
842.52	68.788
842.69	57.911
842.86	62.271
843.03	73.955
843.20	65.418
843.37	86.905
843.54	75.768
843.71	81.667
843.88	79.562
844.06	123.729
844.23	99.576
844.40	88.559
844.57	93.388
844.74	96.121
844.91	98.507
845.08	96.045
845.25	117.021
845.42	115.642
845.59	87.295
845.76	93.011
845.94	122.778
846.11	123.267
846.28	100.000
846.45	103.763
846.62	100.500
846.79	83.544
846.96	98.352
847.13	113.587
847.30	123.729
847.47	112.371
847.64	98.776
847.81	155.147
847.98	93.514
848.15	104.469
848.32	132.124
848.50	108.500
848.67	95.858
848.84	105.917
849.01	134.532
849.18	110.000
849.35	96.190
849.52	85.714
849.69	120.879
849.86	118.243
850.03	133.884
850.20	152.667
850.37	107.059
850.54	115.957
850.71	110.417
850.88	102.581
851.05	96.739
851.22	125.301
851.39	139.037
851.56	169.828
851.73	125.595
851.90	138.562
852.07	97.076
852.24	110.458
852.41	108.122
852.58	120.219
852.75	105.814
852.92	104.420
853.09	159.477
853.26	123.529
853.43	84.706
853.60	128.571
853.77	113.966
853.94	135.398
854.11	113.333
854.28	145.833
854.45	102.597
854.62	115.116
854.79	133.939
854.96	151.389
855.13	114.465
855.30	142.336
855.47	157.258
855.64	114.286
855.81	138.129
855.98	143.511
856.15	136.154
856.32	101.422
856.49	129.944
856.66	101.923
856.83	105.031
857.00	140.164
857.17	137.903
857.34	105.435
857.51	119.718
857.68	128.061
857.85	111.176
858.02	151.020
858.19	77.348
858.36	119.540
858.53	98.817
858.70	120.330
858.87	131.034
859.04	144.118
859.21	115.909
859.38	101.843
859.55	117.614
859.72	140.972
859.89	160.839
860.05	174.101
860.22	123.636
860.39	160.345
860.56	139.286
860.73	130.952
860.90	121.557
861.07	128.000
861.24	144.118
861.41	112.139
861.58	130.519
861.75	117.323
861.92	111.875
862.09	115.075
862.26	140.000
862.43	150.667
862.59	109.868
862.76	115.026
862.93	143.846
863.10	172.059
863.27	143.846
863.44	141.463
863.61	113.043
863.78	113.369
863.95	120.122
864.12	123.077
864.29	151.695
864.45	117.610
864.62	121.951
864.79	98.235
864.96	189.423
865.13	142.336
865.30	123.469
865.47	120.000
865.64	138.462
865.81	137.719
865.97	103.145
866.14	111.230
866.31	135.246
866.48	123.944
866.65	112.883
866.82	152.349
866.99	142.143
867.16	121.705
867.33	146.099
867.49	102.410
867.66	137.313
867.83	94.643
868.00	113.978
868.17	167.939
868.34	128.346
868.51	133.803
868.67	104.762
868.84	136.296
869.01	131.034
869.18	145.600
869.35	137.589
869.52	124.818
869.69	150.746
869.85	118.243
870.02	113.043
870.19	123.846
870.36	142.446
870.53	150.000
870.70	160.714
870.86	120.779
871.03	129.927
871.20	125.210
871.37	111.243
871.54	108.491
871.71	120.455
871.87	195.876
872.04	101.250
872.21	145.455
872.38	207.229
872.55	160.714
872.72	99.275
872.88	157.500
873.05	105.348
873.22	146.667
873.39	120.122
873.56	120.144
873.72	128.729
873.89	124.204
874.06	124.590
874.23	131.159
874.40	111.200
874.56	156.061
874.73	158.333
874.90	130.822
875.07	119.847
875.24	119.512
875.40	137.500
875.57	154.762
875.74	116.875
875.91	171.429
876.08	131.429
876.24	138.462
876.41	161.654
876.58	136.496
876.75	101.935
876.92	183.333
877.08	129.197
877.25	120.130
877.42	114.615
877.59	119.277
877.75	115.566
877.92	112.209
878.09	140.132
878.26	129.452
878.42	130.370
878.59	115.909
878.76	119.577
878.93	111.921
879.09	119.728
879.26	79.487
879.43	116.146
879.60	133.939
879.76	101.538
879.93	92.893
880.10	86.977
880.27	72.889
880.43	109.694
880.60	89.671
880.77	73.333
880.94	79.643
881.10	61.724
881.27	51.934
881.44	47.289
881.61	58.350
881.77	54.797
881.94	44.322
882.11	38.905
882.28	44.701
882.44	40.834
882.61	39.929
882.78	43.436
882.94	57.647
883.11	52.577
883.28	46.765
883.45	49.423
883.61	48.759
883.78	44.614
883.95	52.659
884.11	51.170
884.28	48.140
>>>>>End Processed Spectral Data<<<<<
