SpectraSuite Data File
++++++++++++++++++++++++++++++++++++
Date: Thu Sep 19 03:44:45 EST 2019
User: sgrac
Dark Spectrum Present: Yes
Reference Spectrum Present: Yes
Number of Sampled Component Spectra: 1
Spectrometers: USB4E01596
Integration Time (usec): 100000 (USB4E01596)
Spectra Averaged: 1 (USB4E01596)
Boxcar Smoothing: 0 (USB4E01596)
Correct for Electrical Dark: No (USB4E01596)
Strobe/Lamp Enabled: Yes (USB4E01596)
Correct for Detector Non-linearity: No (USB4E01596)
Correct for Stray Light: No (USB4E01596)
Number of Pixels in Processed Spectrum: 3648
>>>>>Begin Processed Spectral Data<<<<<
178.44	821.429
178.66	821.429
178.87	821.429
179.09	-736.364
179.30	205.357
179.52	2114.286
179.74	-922.222
179.95	761.905
180.17	1627.273
180.38	265.672
180.60	0.000
180.82	625.806
181.03	277.778
181.25	3875.000
181.46	1453.846
181.68	-272.093
181.89	1585.714
182.11	862.500
182.33	711.111
182.54	1525.000
182.76	1061.111
182.97	-521.429
183.19	483.333
183.40	358.182
183.62	738.095
183.84	1875.000
184.05	1226.667
184.27	-7700.000
184.48	247.619
184.70	7000.000
184.91	680.769
185.13	295.775
185.34	-255.769
185.56	640.741
185.78	588.462
185.99	-5650.000
186.21	-1372.727
186.42	-275.000
186.64	1013.333
186.85	-8350.000
187.07	595.455
187.28	1028.571
187.50	581.818
187.72	486.111
187.93	1038.889
188.15	863.158
188.36	911.765
188.58	510.256
188.79	2183.333
189.01	745.833
189.22	3200.000
189.44	800.000
189.65	-6500.000
189.87	4775.000
190.09	1252.941
190.30	2442.857
190.52	1166.667
190.73	-565.385
190.95	370.455
191.16	554.167
191.38	538.889
191.59	-1700.000
191.81	840.909
192.02	1006.667
192.24	592.308
192.45	2075.000
192.67	2816.667
192.88	-562.963
193.10	-19000.000
193.31	557.143
193.53	-776.190
193.74	-3625.000
193.96	2500.000
194.18	1062.500
194.39	421.951
194.61	994.737
194.82	1445.455
195.04	756.000
195.25	5933.333
195.47	434.211
195.68	888.235
195.90	411.628
196.11	815.385
196.33	-2077.778
196.54	-873.684
196.76	727.273
196.97	2033.333
197.19	-18800.000
197.40	1658.333
197.62	2850.000
197.83	1261.538
198.05	721.429
198.26	405.000
198.48	564.706
198.69	-1922.222
198.91	972.222
199.12	568.571
199.34	-1842.857
199.55	278.947
199.77	347.826
199.98	-1636.364
200.20	915.000
200.41	8750.000
200.63	603.571
200.84	804.762
201.06	-1300.000
201.27	-3000.000
201.49	1375.000
201.70	993.750
201.91	-8300.000
202.13	1052.632
202.34	428.261
202.56	8850.000
202.77	1275.000
202.99	444.000
203.20	633.333
203.42	-2142.857
203.63	3333.333
203.85	577.778
204.06	626.087
204.28	1937.500
204.49	-1530.000
204.71	539.024
204.92	455.556
205.14	435.556
205.35	285.714
205.56	2533.333
205.78	927.273
205.99	-1660.000
206.21	847.826
206.42	384.746
206.64	-2800.000
206.85	747.619
207.07	678.947
207.28	-2880.000
207.50	320.370
207.71	1068.750
207.93	443.750
208.14	833.333
208.35	747.059
208.57	-548.000
208.78	-370.732
209.00	379.070
209.21	426.190
209.43	716.000
209.64	10400.000
209.86	761.905
210.07	503.448
210.28	-1330.769
210.50	982.353
210.71	840.000
210.93	528.125
211.14	272.857
211.36	432.609
211.57	790.000
211.78	487.179
212.00	1146.667
212.21	894.118
212.43	1106.667
212.64	626.667
212.86	239.744
213.07	534.483
213.29	663.333
213.50	551.613
213.71	550.000
213.93	2985.714
214.14	788.235
214.36	2175.000
214.57	228.169
214.78	1053.333
215.00	994.737
215.21	744.444
215.43	210.127
215.64	603.704
215.86	1240.000
216.07	768.421
216.28	328.889
216.50	6450.000
216.71	-14900.000
216.93	648.148
217.14	295.455
217.35	374.286
217.57	2850.000
217.78	525.714
218.00	4766.667
218.21	470.833
218.42	287.500
218.64	-9350.000
218.85	458.824
219.07	2157.143
219.28	321.311
219.49	-1166.667
219.71	1625.000
219.92	264.865
220.14	1950.000
220.35	368.182
220.56	1030.769
220.78	338.596
220.99	557.143
221.21	201.031
221.42	704.348
221.63	7350.000
221.85	658.333
222.06	670.000
222.28	248.000
222.49	-1788.889
222.70	357.407
222.92	-10900.000
223.13	439.474
223.34	205.435
223.56	1366.667
223.77	220.588
223.99	488.889
224.20	346.667
224.41	277.333
224.63	7300.000
224.84	5600.000
225.05	1207.692
225.27	425.641
225.48	305.000
225.69	171.765
225.91	282.813
226.12	268.116
226.34	475.000
226.55	207.353
226.76	264.706
226.98	215.909
227.19	183.333
227.40	358.000
227.62	230.137
227.83	175.000
228.04	175.325
228.26	130.357
228.47	135.000
228.69	106.618
228.90	99.405
229.11	76.856
229.33	82.297
229.54	68.050
229.75	74.205
229.97	65.854
230.18	61.130
230.39	48.990
230.61	65.529
230.82	60.797
231.03	63.057
231.25	58.389
231.46	63.690
231.67	66.038
231.89	67.063
232.10	61.509
232.31	94.196
232.53	90.367
232.74	91.284
232.95	76.961
233.17	87.179
233.38	80.526
233.59	98.876
233.81	93.210
234.02	102.857
234.23	82.474
234.45	106.364
234.66	77.011
234.87	72.093
235.09	87.766
235.30	105.340
235.51	91.928
235.73	76.263
235.94	61.607
236.15	80.224
236.36	92.889
236.58	71.292
236.79	91.379
237.00	72.691
237.22	84.127
237.43	80.934
237.64	87.578
237.86	75.472
238.07	89.076
238.28	77.559
238.50	74.163
238.71	106.218
238.92	84.434
239.13	61.828
239.35	81.328
239.56	88.889
239.77	95.082
239.99	50.806
240.20	82.490
240.41	55.906
240.63	46.567
240.84	66.372
241.05	49.662
241.26	45.938
241.48	51.988
241.69	31.436
241.90	43.448
242.12	35.787
242.33	39.205
242.54	32.101
242.75	23.232
242.97	27.479
243.18	24.890
243.39	21.540
243.61	21.945
243.82	29.312
244.03	23.907
244.24	19.976
244.46	24.523
244.67	26.639
244.88	32.751
245.09	19.142
245.31	30.984
245.52	24.476
245.73	39.168
245.95	53.373
246.16	40.357
246.37	26.431
246.58	26.308
246.80	26.953
247.01	25.459
247.22	21.709
247.43	20.398
247.65	16.682
247.86	14.861
248.07	11.119
248.28	12.908
248.50	12.234
248.71	13.004
248.92	11.275
249.13	14.305
249.35	11.582
249.56	14.762
249.77	11.813
249.98	18.653
250.20	17.596
250.41	28.049
250.62	22.928
250.83	22.936
251.05	23.988
251.26	32.927
251.47	26.047
251.68	27.911
251.90	26.108
252.11	26.123
252.32	22.491
252.53	26.393
252.75	25.544
252.96	25.687
253.17	18.684
253.38	23.873
253.59	21.111
253.81	28.241
254.02	20.818
254.23	23.617
254.44	26.714
254.66	27.614
254.87	26.780
255.08	28.597
255.29	44.656
255.50	27.495
255.72	28.431
255.93	36.323
256.14	38.362
256.35	19.258
256.57	37.592
256.78	29.386
256.99	39.179
257.20	41.336
257.41	33.402
257.63	30.263
257.84	28.843
258.05	22.605
258.26	35.370
258.47	36.125
258.69	27.408
258.90	25.326
259.11	19.767
259.32	17.082
259.53	15.574
259.75	19.039
259.96	19.855
260.17	13.063
260.38	12.567
260.59	11.401
260.81	8.002
261.02	10.016
261.23	10.586
261.44	11.038
261.65	10.086
261.87	13.601
262.08	9.117
262.29	14.407
262.50	11.219
262.71	11.063
262.92	13.525
263.14	16.786
263.35	14.826
263.56	18.842
263.77	18.162
263.98	19.116
264.20	26.298
264.41	18.010
264.62	23.354
264.83	15.879
265.04	28.249
265.25	27.156
265.47	21.803
265.68	24.826
265.89	28.591
266.10	22.339
266.31	31.906
266.52	24.584
266.74	23.792
266.95	16.391
267.16	21.317
267.37	20.000
267.58	15.805
267.79	17.362
268.01	23.452
268.22	14.695
268.43	14.007
268.64	16.966
268.85	14.060
269.06	14.708
269.27	19.206
269.49	21.301
269.70	20.583
269.91	15.636
270.12	17.419
270.33	17.245
270.54	20.252
270.75	12.994
270.97	16.839
271.18	15.313
271.39	14.096
271.60	17.722
271.81	15.928
272.02	15.176
272.23	13.575
272.45	11.654
272.66	10.255
272.87	13.889
273.08	14.704
273.29	13.671
273.50	11.456
273.71	12.073
273.92	10.391
274.14	10.487
274.35	11.680
274.56	16.480
274.77	10.469
274.98	14.925
275.19	14.663
275.40	14.854
275.61	13.430
275.83	16.569
276.04	13.225
276.25	16.398
276.46	16.126
276.67	13.668
276.88	15.290
277.09	19.982
277.30	18.205
277.51	23.003
277.73	15.655
277.94	13.012
278.15	15.941
278.36	19.576
278.57	18.060
278.78	15.004
278.99	14.424
279.20	17.308
279.41	14.709
279.62	18.233
279.84	15.903
280.05	16.853
280.26	11.765
280.47	15.378
280.68	17.518
280.89	16.429
281.10	13.838
281.31	11.798
281.52	15.004
281.73	9.635
281.94	11.559
282.16	17.696
282.37	13.554
282.58	12.536
282.79	17.842
283.00	13.753
283.21	12.207
283.42	13.001
283.63	11.029
283.84	10.219
284.05	11.518
284.26	13.521
284.47	10.773
284.68	10.719
284.89	9.928
285.11	12.450
285.32	10.098
285.53	12.603
285.74	14.866
285.95	9.976
286.16	10.814
286.37	9.424
286.58	9.995
286.79	10.912
287.00	10.494
287.21	8.026
287.42	9.486
287.63	8.766
287.84	11.645
288.05	13.112
288.26	11.844
288.48	15.521
288.69	9.615
288.90	13.041
289.11	12.766
289.32	12.570
289.53	9.154
289.74	9.475
289.95	13.784
290.16	12.923
290.37	9.952
290.58	10.483
290.79	10.919
291.00	10.811
291.21	12.130
291.42	8.915
291.63	10.853
291.84	9.540
292.05	9.186
292.26	8.576
292.47	10.988
292.68	8.160
292.89	10.296
293.10	10.568
293.31	12.679
293.52	9.017
293.73	11.343
293.94	11.673
294.15	9.764
294.36	8.556
294.57	15.128
294.79	11.279
295.00	10.289
295.21	11.293
295.42	11.230
295.63	12.134
295.84	8.876
296.05	10.863
296.26	10.000
296.47	9.700
296.68	8.625
296.89	10.860
297.10	8.395
297.31	10.750
297.52	10.000
297.73	8.101
297.94	6.755
298.15	7.303
298.36	8.091
298.57	7.938
298.78	7.842
298.99	6.130
299.20	8.883
299.41	8.645
299.62	7.521
299.83	8.307
300.04	8.816
300.25	10.223
300.46	8.192
300.67	11.323
300.88	10.891
301.09	9.756
301.30	12.167
301.50	11.977
301.71	13.776
301.92	9.806
302.13	9.462
302.34	10.320
302.55	10.986
302.76	11.636
302.97	9.476
303.18	10.884
303.39	12.195
303.60	9.689
303.81	8.486
304.02	13.136
304.23	12.021
304.44	11.973
304.65	11.600
304.86	8.976
305.07	9.212
305.28	8.081
305.49	11.314
305.70	14.175
305.91	10.677
306.12	9.916
306.33	9.193
306.54	11.287
306.75	9.769
306.96	14.969
307.17	9.759
307.38	10.234
307.58	9.131
307.79	10.433
308.00	14.806
308.21	13.560
308.42	11.012
308.63	14.019
308.84	9.224
309.05	11.024
309.26	9.301
309.47	13.325
309.68	9.016
309.89	11.273
310.10	9.067
310.31	7.132
310.52	7.858
310.73	11.531
310.94	6.811
311.14	7.136
311.35	8.552
311.56	7.267
311.77	8.097
311.98	8.578
312.19	7.117
312.40	10.119
312.61	6.968
312.82	9.940
313.03	8.031
313.24	8.906
313.45	8.663
313.66	9.475
313.86	8.220
314.07	8.239
314.28	12.507
314.49	11.590
314.70	9.477
314.91	13.314
315.12	12.106
315.33	8.440
315.54	11.594
315.75	10.712
315.96	9.692
316.16	10.117
316.37	12.055
316.58	10.229
316.79	9.609
317.00	10.398
317.21	11.131
317.42	11.357
317.63	10.136
317.84	10.328
318.05	9.976
318.25	10.123
318.46	11.392
318.67	10.381
318.88	9.664
319.09	11.165
319.30	10.744
319.51	9.329
319.72	8.364
319.93	9.597
320.13	11.845
320.34	11.402
320.55	10.533
320.76	9.908
320.97	10.546
321.18	12.025
321.39	11.972
321.60	11.879
321.80	13.808
322.01	10.509
322.22	11.281
322.43	11.474
322.64	10.935
322.85	10.632
323.06	11.188
323.27	11.406
323.47	12.897
323.68	12.155
323.89	8.822
324.10	12.413
324.31	8.755
324.52	6.618
324.73	7.104
324.93	9.364
325.14	11.486
325.35	9.916
325.56	8.801
325.77	8.092
325.98	9.899
326.19	9.815
326.39	7.642
326.60	10.723
326.81	8.448
327.02	10.268
327.23	7.111
327.44	10.152
327.64	8.172
327.85	8.036
328.06	10.650
328.27	13.110
328.48	10.100
328.69	8.945
328.90	9.559
329.10	9.498
329.31	10.966
329.52	7.217
329.73	8.478
329.94	10.520
330.15	9.091
330.35	10.671
330.56	12.294
330.77	9.532
330.98	13.216
331.19	8.071
331.39	12.082
331.60	8.022
331.81	7.437
332.02	11.217
332.23	10.160
332.44	10.265
332.64	8.824
332.85	10.265
333.06	9.125
333.27	9.171
333.48	11.171
333.68	9.672
333.89	7.124
334.10	10.043
334.31	10.031
334.52	6.987
334.72	6.657
334.93	8.731
335.14	6.746
335.35	10.739
335.56	10.361
335.76	6.719
335.97	9.870
336.18	8.512
336.39	10.088
336.60	11.016
336.80	8.032
337.01	8.631
337.22	6.448
337.43	9.641
337.64	8.590
337.84	11.546
338.05	9.253
338.26	10.148
338.47	8.257
338.68	8.797
338.88	8.715
339.09	10.718
339.30	8.031
339.51	9.388
339.71	8.652
339.92	8.065
340.13	9.517
340.34	9.533
340.55	7.696
340.75	7.631
340.96	5.696
341.17	9.814
341.38	8.751
341.58	7.770
341.79	8.429
342.00	8.194
342.21	9.616
342.41	8.034
342.62	9.426
342.83	8.814
343.04	8.891
343.24	7.711
343.45	8.246
343.66	9.973
343.87	7.605
344.07	7.080
344.28	8.083
344.49	6.670
344.70	8.292
344.90	8.232
345.11	7.196
345.32	7.655
345.53	6.840
345.73	9.428
345.94	7.632
346.15	7.975
346.36	6.134
346.56	8.497
346.77	7.860
346.98	8.279
347.19	7.368
347.39	5.591
347.60	5.265
347.81	9.115
348.02	8.809
348.22	7.075
348.43	7.727
348.64	9.015
348.84	6.598
349.05	7.348
349.26	8.159
349.47	8.498
349.67	8.583
349.88	6.303
350.09	8.513
350.30	9.167
350.50	7.619
350.71	8.707
350.92	8.481
351.12	7.284
351.33	9.420
351.54	7.759
351.74	6.815
351.95	7.862
352.16	7.134
352.37	10.183
352.57	9.259
352.78	7.716
352.99	7.931
353.19	9.152
353.40	7.245
353.61	9.566
353.82	7.870
354.02	8.756
354.23	6.833
354.44	9.026
354.64	6.982
354.85	8.974
355.06	9.138
355.26	8.354
355.47	8.304
355.68	9.518
355.88	8.874
356.09	9.794
356.30	7.061
356.51	7.968
356.71	6.151
356.92	8.429
357.13	8.860
357.33	9.992
357.54	9.010
357.75	7.145
357.95	9.014
358.16	7.993
358.37	9.012
358.57	7.589
358.78	7.975
358.99	8.245
359.19	9.066
359.40	8.560
359.61	9.283
359.81	10.286
360.02	11.645
360.23	9.414
360.43	9.130
360.64	8.333
360.85	8.393
361.05	8.249
361.26	11.891
361.47	9.727
361.67	11.118
361.88	7.481
362.09	9.278
362.29	8.650
362.50	8.625
362.70	7.805
362.91	11.597
363.12	9.859
363.32	9.906
363.53	9.489
363.74	11.990
363.94	9.415
364.15	12.460
364.36	11.929
364.56	10.641
364.77	12.774
364.98	14.625
365.18	11.366
365.39	13.882
365.59	10.316
365.80	10.909
366.01	14.468
366.21	10.003
366.42	9.874
366.63	12.891
366.83	11.909
367.04	9.743
367.24	13.940
367.45	11.920
367.66	10.812
367.86	13.325
368.07	12.275
368.28	13.224
368.48	11.612
368.69	9.962
368.89	11.220
369.10	14.028
369.31	11.356
369.51	13.729
369.72	15.063
369.92	13.914
370.13	10.707
370.34	13.651
370.54	9.341
370.75	12.538
370.95	9.349
371.16	14.246
371.37	11.761
371.57	12.241
371.78	11.366
371.98	13.560
372.19	13.671
372.40	15.207
372.60	13.432
372.81	12.923
373.01	10.854
373.22	11.861
373.43	14.669
373.63	13.529
373.84	13.434
374.04	11.627
374.25	13.165
374.46	13.233
374.66	12.957
374.87	13.843
375.07	9.942
375.28	12.607
375.48	13.371
375.69	13.820
375.90	9.351
376.10	11.336
376.31	11.322
376.51	11.264
376.72	10.645
376.92	11.045
377.13	12.181
377.34	13.504
377.54	11.627
377.75	14.410
377.95	11.404
378.16	14.369
378.36	13.892
378.57	14.022
378.77	12.936
378.98	14.968
379.19	12.883
379.39	12.683
379.60	11.453
379.80	12.124
380.01	14.152
380.21	12.912
380.42	13.151
380.62	11.442
380.83	12.781
381.04	12.671
381.24	13.213
381.45	13.005
381.65	10.275
381.86	12.378
382.06	13.108
382.27	10.894
382.47	10.642
382.68	13.629
382.88	10.101
383.09	11.894
383.29	11.605
383.50	14.233
383.71	12.848
383.91	10.444
384.12	10.018
384.32	13.806
384.53	10.773
384.73	10.799
384.94	10.241
385.14	10.302
385.35	8.917
385.55	12.515
385.76	10.149
385.96	11.987
386.17	12.785
386.37	13.770
386.58	10.304
386.78	13.333
386.99	9.782
387.19	13.196
387.40	10.119
387.60	14.925
387.81	9.593
388.01	11.946
388.22	12.908
388.42	12.682
388.63	12.014
388.83	14.595
389.04	11.557
389.24	12.403
389.45	12.185
389.65	10.956
389.86	12.083
390.06	10.656
390.27	9.901
390.47	11.865
390.68	10.295
390.88	13.839
391.09	12.624
391.29	12.294
391.50	11.746
391.70	12.537
391.91	10.842
392.11	11.693
392.32	12.485
392.52	13.293
392.73	12.354
392.93	12.527
393.14	11.580
393.34	12.354
393.55	12.178
393.75	12.372
393.95	11.324
394.16	13.604
394.36	12.834
394.57	13.487
394.77	11.914
394.98	11.361
395.18	11.361
395.39	13.254
395.59	12.097
395.80	11.713
396.00	11.476
396.21	14.144
396.41	10.510
396.61	14.088
396.82	11.373
397.02	13.671
397.23	12.131
397.43	12.137
397.64	10.346
397.84	13.863
398.05	9.281
398.25	12.508
398.45	10.699
398.66	12.149
398.86	10.710
399.07	14.022
399.27	11.925
399.48	12.941
399.68	11.149
399.89	10.721
400.09	12.339
400.29	11.763
400.50	11.280
400.70	13.323
400.91	9.665
401.11	12.036
401.32	12.829
401.52	10.121
401.72	11.637
401.93	13.425
402.13	12.241
402.34	12.450
402.54	10.462
402.75	14.193
402.95	10.461
403.15	13.831
403.36	10.571
403.56	12.150
403.77	11.111
403.97	11.473
404.17	10.306
404.38	11.809
404.58	10.047
404.79	11.907
404.99	11.673
405.19	11.301
405.40	11.422
405.60	11.814
405.81	12.678
406.01	12.491
406.21	10.774
406.42	11.295
406.62	12.202
406.83	12.015
407.03	14.031
407.23	11.680
407.44	9.772
407.64	11.979
407.85	11.456
408.05	11.447
408.25	10.959
408.46	12.704
408.66	11.477
408.87	11.053
409.07	10.799
409.27	9.697
409.48	10.891
409.68	12.859
409.88	8.504
410.09	11.598
410.29	11.603
410.50	13.088
410.70	9.902
410.90	11.387
411.11	10.952
411.31	10.839
411.51	11.516
411.72	12.222
411.92	10.494
412.12	10.928
412.33	10.524
412.53	10.521
412.74	9.905
412.94	11.687
413.14	9.945
413.35	11.852
413.55	11.129
413.75	11.963
413.96	8.743
414.16	11.432
414.36	11.215
414.57	11.377
414.77	9.231
414.97	12.465
415.18	8.957
415.38	10.873
415.58	11.007
415.79	10.785
415.99	10.077
416.19	11.111
416.40	10.851
416.60	11.011
416.80	9.714
417.01	10.371
417.21	9.501
417.41	11.948
417.62	10.542
417.82	11.425
418.02	9.496
418.23	11.697
418.43	10.301
418.63	11.456
418.84	11.499
419.04	10.908
419.24	12.000
419.45	11.326
419.65	12.036
419.85	11.594
420.06	11.234
420.26	11.445
420.46	11.137
420.67	11.648
420.87	11.552
421.07	11.907
421.28	10.935
421.48	12.221
421.68	11.155
421.88	12.007
422.09	11.911
422.29	11.827
422.49	11.776
422.70	12.131
422.90	11.514
423.10	12.213
423.31	12.005
423.51	12.545
423.71	11.198
423.91	11.863
424.12	12.058
424.32	11.784
424.52	11.938
424.73	11.304
424.93	11.400
425.13	11.581
425.33	10.685
425.54	11.646
425.74	11.659
425.94	11.831
426.15	11.497
426.35	12.172
426.55	11.498
426.75	12.034
426.96	11.652
427.16	10.840
427.36	11.649
427.57	12.654
427.77	11.466
427.97	11.429
428.17	11.250
428.38	11.591
428.58	9.407
428.78	11.666
428.98	10.015
429.19	10.950
429.39	9.339
429.59	11.757
429.79	9.703
430.00	10.085
430.20	9.653
430.40	11.083
430.60	9.575
430.81	11.361
431.01	9.251
431.21	10.070
431.41	9.218
431.62	11.000
431.82	9.840
432.02	11.496
432.22	8.982
432.43	9.710
432.63	8.503
432.83	10.593
433.03	9.822
433.24	11.003
433.44	9.620
433.64	11.726
433.84	10.597
434.05	11.011
434.25	10.731
434.45	11.352
434.65	11.741
434.85	12.129
435.06	10.757
435.26	11.737
435.46	10.780
435.66	12.294
435.87	10.640
436.07	11.692
436.27	11.344
436.47	11.119
436.67	10.859
436.88	11.610
437.08	11.566
437.28	11.463
437.48	11.155
437.69	11.419
437.89	11.454
438.09	12.010
438.29	11.244
438.49	12.280
438.70	11.128
438.90	10.952
439.10	10.729
439.30	11.157
439.50	10.584
439.71	11.252
439.91	11.231
440.11	12.897
440.31	12.030
440.51	11.366
440.72	11.913
440.92	11.306
441.12	12.429
441.32	12.213
441.52	12.057
441.72	12.390
441.93	11.609
442.13	12.346
442.33	12.460
442.53	12.942
442.73	12.120
442.94	12.202
443.14	12.170
443.34	13.281
443.54	12.984
443.74	13.510
443.94	11.671
444.15	11.682
444.35	11.116
444.55	12.487
444.75	11.548
444.95	12.458
445.15	12.118
445.36	12.337
445.56	11.541
445.76	12.366
445.96	11.945
446.16	11.564
446.36	12.418
446.57	12.321
446.77	11.815
446.97	12.274
447.17	12.323
447.37	12.495
447.57	12.706
447.77	12.043
447.98	12.686
448.18	13.248
448.38	12.688
448.58	12.872
448.78	13.166
448.98	13.456
449.18	12.673
449.39	13.235
449.59	12.422
449.79	13.533
449.99	12.613
450.19	12.923
450.39	12.634
450.59	12.708
450.79	12.208
451.00	13.245
451.20	13.072
451.40	12.702
451.60	12.250
451.80	12.969
452.00	12.047
452.20	12.723
452.40	12.032
452.61	12.555
452.81	11.695
453.01	13.312
453.21	12.443
453.41	13.245
453.61	12.106
453.81	12.830
454.01	11.574
454.21	13.047
454.42	12.989
454.62	13.470
454.82	12.160
455.02	12.789
455.22	11.560
455.42	12.744
455.62	11.480
455.82	12.336
456.02	12.770
456.23	13.318
456.43	13.130
456.63	12.474
456.83	11.321
457.03	12.752
457.23	12.505
457.43	13.188
457.63	12.012
457.83	12.080
458.03	12.161
458.23	12.433
458.43	11.724
458.64	12.839
458.84	12.078
459.04	11.959
459.24	12.914
459.44	12.268
459.64	11.806
459.84	11.993
460.04	11.258
460.24	12.173
460.44	11.877
460.64	12.202
460.84	12.264
461.04	12.444
461.24	11.947
461.45	12.530
461.65	12.645
461.85	13.359
462.05	12.980
462.25	12.849
462.45	13.175
462.65	13.009
462.85	12.391
463.05	13.374
463.25	12.479
463.45	13.090
463.65	12.056
463.85	13.440
464.05	12.815
464.25	12.154
464.45	12.768
464.65	12.709
464.85	12.204
465.05	12.458
465.26	12.912
465.46	12.865
465.66	12.759
465.86	12.563
466.06	12.395
466.26	12.562
466.46	12.135
466.66	12.321
466.86	12.070
467.06	12.908
467.26	12.869
467.46	13.519
467.66	12.289
467.86	12.591
468.06	12.379
468.26	12.366
468.46	12.526
468.66	13.168
468.86	12.694
469.06	13.396
469.26	11.742
469.46	12.168
469.66	11.983
469.86	13.008
470.06	12.523
470.26	13.228
470.46	13.051
470.66	13.149
470.86	13.051
471.06	13.175
471.26	12.501
471.46	12.942
471.66	12.488
471.86	12.868
472.06	12.542
472.26	13.521
472.46	13.190
472.66	12.974
472.86	13.535
473.06	13.005
473.26	13.161
473.46	13.474
473.66	12.995
473.86	13.339
474.06	13.189
474.26	13.477
474.46	12.724
474.66	13.896
474.86	13.216
475.06	14.480
475.26	11.985
475.46	14.372
475.66	12.908
475.86	13.960
476.06	13.265
476.26	13.133
476.46	12.788
476.66	14.061
476.86	13.054
477.06	13.450
477.26	13.472
477.46	14.211
477.65	14.182
477.85	13.908
478.05	13.232
478.25	14.149
478.45	13.457
478.65	14.548
478.85	12.957
479.05	14.437
479.25	13.482
479.45	14.639
479.65	13.513
479.85	14.149
480.05	14.013
480.25	14.560
480.45	13.799
480.65	13.757
480.85	13.869
481.05	14.361
481.25	14.121
481.44	14.624
481.64	14.149
481.84	14.439
482.04	13.448
482.24	14.366
482.44	13.407
482.64	13.314
482.84	13.473
483.04	13.208
483.24	13.506
483.44	12.644
483.64	12.654
483.84	12.390
484.04	12.701
484.23	13.359
484.43	13.415
484.63	14.447
484.83	15.032
485.03	16.318
485.23	15.976
485.43	16.015
485.63	15.832
485.83	15.149
486.03	14.693
486.23	14.914
486.42	14.953
486.62	14.892
486.82	14.039
487.02	13.953
487.22	13.847
487.42	13.910
487.62	13.696
487.82	13.344
488.02	13.654
488.22	13.625
488.41	13.751
488.61	13.887
488.81	14.057
489.01	14.250
489.21	14.478
489.41	14.349
489.61	14.309
489.81	14.737
490.01	14.853
490.20	14.759
490.40	14.578
490.60	14.902
490.80	14.416
491.00	13.820
491.20	13.989
491.40	13.958
491.60	13.615
491.79	13.355
491.99	13.673
492.19	13.750
492.39	14.182
492.59	14.077
492.79	13.720
492.99	14.525
493.19	14.733
493.38	14.685
493.58	14.861
493.78	14.482
493.98	15.474
494.18	15.199
494.38	14.554
494.58	14.951
494.77	14.823
494.97	14.461
495.17	14.549
495.37	15.028
495.57	15.102
495.77	15.512
495.96	15.181
496.16	14.533
496.36	14.007
496.56	14.105
496.76	14.396
496.96	14.495
497.15	14.675
497.35	15.245
497.55	14.695
497.75	14.826
497.95	14.300
498.15	14.702
498.34	14.333
498.54	14.596
498.74	15.163
498.94	15.086
499.14	15.062
499.34	15.606
499.53	14.632
499.73	15.098
499.93	15.099
500.13	15.276
500.33	15.358
500.52	15.047
500.72	15.936
500.92	16.355
501.12	15.742
501.32	16.215
501.52	15.150
501.71	15.404
501.91	16.254
502.11	15.861
502.31	15.714
502.51	16.279
502.70	15.895
502.90	15.406
503.10	15.619
503.30	15.942
503.50	15.741
503.69	16.319
503.89	16.230
504.09	15.523
504.29	16.035
504.48	16.449
504.68	16.127
504.88	17.067
505.08	16.056
505.28	16.435
505.47	16.806
505.67	16.662
505.87	16.582
506.07	17.276
506.27	16.450
506.46	17.375
506.66	16.771
506.86	16.830
507.06	17.029
507.25	17.810
507.45	16.989
507.65	16.969
507.85	17.000
508.04	16.873
508.24	17.231
508.44	17.018
508.64	16.352
508.83	17.051
509.03	17.222
509.23	16.935
509.43	16.897
509.63	17.231
509.82	17.500
510.02	17.449
510.22	18.191
510.42	17.470
510.61	17.798
510.81	17.552
511.01	17.454
511.21	18.174
511.40	17.558
511.60	18.471
511.80	17.521
511.99	18.456
512.19	17.313
512.39	17.872
512.59	17.779
512.78	17.944
512.98	18.237
513.18	18.274
513.38	18.240
513.57	18.391
513.77	17.965
513.97	18.740
514.17	18.285
514.36	18.965
514.56	18.398
514.76	18.773
514.95	18.368
515.15	18.267
515.35	19.002
515.55	18.381
515.74	19.078
515.94	18.641
516.14	19.000
516.33	19.010
516.53	18.769
516.73	18.872
516.93	18.666
517.12	18.806
517.32	18.384
517.52	18.459
517.71	18.800
517.91	18.632
518.11	18.758
518.30	18.334
518.50	17.967
518.70	18.397
518.90	18.642
519.09	18.412
519.29	19.017
519.49	18.951
519.68	18.560
519.88	19.121
520.08	19.468
520.27	19.327
520.47	19.317
520.67	19.746
520.86	20.000
521.06	19.359
521.26	19.178
521.45	19.865
521.65	19.619
521.85	19.379
522.04	19.373
522.24	19.473
522.44	19.803
522.63	19.694
522.83	18.872
523.03	19.073
523.22	19.086
523.42	19.100
523.62	19.310
523.81	19.202
524.01	19.026
524.21	19.573
524.40	19.282
524.60	19.023
524.80	18.866
524.99	19.323
525.19	19.270
525.39	18.579
525.58	18.582
525.78	18.402
525.98	19.053
526.17	18.289
526.37	19.052
526.57	18.604
526.76	19.023
526.96	19.101
527.15	19.249
527.35	19.061
527.55	18.945
527.74	18.789
527.94	18.752
528.14	18.255
528.33	17.781
528.53	17.784
528.72	18.067
528.92	18.697
529.12	18.703
529.31	18.642
529.51	18.881
529.71	19.304
529.90	19.398
530.10	19.244
530.29	19.601
530.49	20.221
530.69	20.278
530.88	20.511
531.08	20.425
531.28	19.867
531.47	19.840
531.67	19.044
531.86	19.568
532.06	19.744
532.26	18.739
532.45	18.816
532.65	18.798
532.84	18.846
533.04	18.101
533.24	18.479
533.43	18.330
533.63	18.681
533.82	18.580
534.02	18.885
534.22	19.186
534.41	19.318
534.61	18.937
534.80	19.164
535.00	19.391
535.19	20.523
535.39	20.175
535.59	19.770
535.78	20.120
535.98	19.934
536.17	19.520
536.37	18.709
536.57	19.437
536.76	19.149
536.96	18.925
537.15	19.346
537.35	19.424
537.54	19.428
537.74	19.257
537.93	19.708
538.13	19.322
538.33	19.845
538.52	20.107
538.72	20.271
538.91	20.124
539.11	20.383
539.30	20.333
539.50	19.720
539.70	20.418
539.89	19.405
540.09	19.948
540.28	19.244
540.48	19.519
540.67	18.988
540.87	18.318
541.06	19.144
541.26	18.571
541.45	18.625
541.65	18.606
541.85	18.894
542.04	19.343
542.24	19.436
542.43	19.595
542.63	19.843
542.82	19.880
543.02	19.825
543.21	20.159
543.41	20.459
543.60	20.410
543.80	20.023
543.99	20.753
544.19	20.215
544.38	20.566
544.58	20.377
544.77	20.093
544.97	20.502
545.16	21.123
545.36	20.709
545.56	20.697
545.75	20.742
545.95	20.685
546.14	20.258
546.34	20.536
546.53	20.238
546.73	20.390
546.92	20.778
547.12	20.944
547.31	20.852
547.51	20.565
547.70	20.651
547.90	20.409
548.09	20.720
548.29	20.588
548.48	21.433
548.68	20.918
548.87	21.529
549.07	21.472
549.26	21.972
549.46	22.251
549.65	21.236
549.84	21.619
550.04	20.937
550.23	21.737
550.43	20.523
550.62	22.094
550.82	21.532
551.01	21.082
551.21	22.334
551.40	21.885
551.60	22.009
551.79	21.222
551.99	22.453
552.18	21.546
552.38	21.822
552.57	21.860
552.77	20.820
552.96	21.772
553.16	21.503
553.35	22.051
553.54	21.557
553.74	21.028
553.93	21.920
554.13	21.672
554.32	21.242
554.52	22.146
554.71	22.575
554.91	21.880
555.10	22.214
555.29	22.357
555.49	22.360
555.68	22.285
555.88	22.122
556.07	21.190
556.27	21.407
556.46	22.698
556.66	21.894
556.85	22.973
557.04	22.086
557.24	22.715
557.43	22.154
557.63	21.719
557.82	21.402
558.02	20.362
558.21	22.207
558.40	21.278
558.60	23.043
558.79	22.107
558.99	22.011
559.18	22.366
559.38	21.458
559.57	22.246
559.76	21.390
559.96	22.314
560.15	22.448
560.35	21.137
560.54	22.048
560.73	21.641
560.93	21.759
561.12	21.447
561.32	22.049
561.51	21.634
561.70	21.794
561.90	20.983
562.09	21.799
562.29	21.647
562.48	20.784
562.67	21.644
562.87	21.445
563.06	22.103
563.26	21.122
563.45	21.622
563.64	22.172
563.84	22.101
564.03	20.994
564.23	21.328
564.42	21.637
564.61	21.777
564.81	21.356
565.00	21.029
565.20	21.118
565.39	22.242
565.58	20.882
565.78	20.569
565.97	20.663
566.16	21.522
566.36	20.316
566.55	19.730
566.74	19.787
566.94	21.132
567.13	20.561
567.33	20.420
567.52	20.765
567.71	20.385
567.91	21.293
568.10	21.126
568.29	20.273
568.49	21.151
568.68	21.290
568.87	20.984
569.07	20.626
569.26	20.924
569.45	20.864
569.65	19.821
569.84	20.303
570.04	19.521
570.23	19.720
570.42	19.904
570.62	19.325
570.81	20.172
571.00	19.829
571.20	19.418
571.39	19.124
571.58	19.765
571.78	19.855
571.97	19.192
572.16	19.399
572.36	19.322
572.55	19.215
572.74	19.965
572.94	19.370
573.13	19.553
573.32	19.425
573.51	18.583
573.71	19.225
573.90	19.589
574.09	19.320
574.29	19.557
574.48	19.341
574.67	19.196
574.87	18.957
575.06	18.921
575.25	18.822
575.45	18.410
575.64	19.069
575.83	19.475
576.03	19.520
576.22	18.444
576.41	18.857
576.60	17.881
576.80	19.255
576.99	18.890
577.18	19.263
577.38	18.771
577.57	18.695
577.76	19.126
577.95	19.391
578.15	18.500
578.34	18.655
578.53	18.478
578.73	18.655
578.92	19.183
579.11	18.715
579.30	18.729
579.50	18.563
579.69	18.114
579.88	19.588
580.08	18.285
580.27	17.810
580.46	18.612
580.65	18.678
580.85	18.536
581.04	18.803
581.23	18.173
581.42	18.118
581.62	18.090
581.81	19.032
582.00	17.357
582.19	19.207
582.39	18.525
582.58	17.340
582.77	17.788
582.96	19.265
583.16	18.934
583.35	18.187
583.54	19.078
583.73	19.072
583.93	18.036
584.12	18.753
584.31	17.581
584.50	19.243
584.70	18.449
584.89	18.794
585.08	18.025
585.27	19.438
585.47	18.405
585.66	18.944
585.85	17.896
586.04	18.405
586.24	19.943
586.43	18.540
586.62	17.835
586.81	18.345
587.00	18.210
587.20	18.743
587.39	19.123
587.58	18.115
587.77	18.879
587.97	19.001
588.16	19.186
588.35	18.983
588.54	18.939
588.73	19.348
588.93	18.750
589.12	19.776
589.31	18.909
589.50	18.757
589.69	19.501
589.89	19.756
590.08	19.193
590.27	19.736
590.46	19.504
590.65	19.773
590.85	19.605
591.04	20.020
591.23	19.357
591.42	19.908
591.61	19.588
591.81	20.791
592.00	20.442
592.19	21.025
592.38	19.377
592.57	20.382
592.77	19.981
592.96	20.695
593.15	20.920
593.34	20.292
593.53	19.592
593.72	20.038
593.92	19.370
594.11	22.460
594.30	19.918
594.49	20.616
594.68	20.699
594.87	21.129
595.07	21.373
595.26	21.335
595.45	20.852
595.64	22.304
595.83	22.027
596.02	21.697
596.22	21.320
596.41	21.216
596.60	21.647
596.79	21.282
596.98	21.642
597.17	22.298
597.37	22.740
597.56	23.338
597.75	21.612
597.94	22.572
598.13	22.100
598.32	22.697
598.51	23.043
598.71	22.923
598.90	23.704
599.09	22.758
599.28	23.125
599.47	24.794
599.66	22.913
599.85	24.442
600.05	23.486
600.24	24.529
600.43	25.204
600.62	24.074
600.81	24.290
601.00	25.339
601.19	25.171
601.38	24.336
601.58	25.622
601.77	24.468
601.96	27.016
602.15	26.408
602.34	24.674
602.53	25.319
602.72	25.501
602.91	25.678
603.10	26.225
603.30	26.891
603.49	25.525
603.68	26.380
603.87	26.049
604.06	25.406
604.25	26.263
604.44	26.550
604.63	26.175
604.82	27.359
605.01	27.179
605.21	25.791
605.40	26.829
605.59	27.316
605.78	27.148
605.97	27.356
606.16	27.514
606.35	28.591
606.54	26.985
606.73	27.869
606.92	28.930
607.11	29.308
607.30	28.236
607.50	29.381
607.69	29.371
607.88	27.092
608.07	28.243
608.26	30.063
608.45	29.217
608.64	29.727
608.83	28.868
609.02	28.936
609.21	29.006
609.40	28.311
609.59	28.762
609.78	28.648
609.97	28.779
610.16	29.189
610.35	29.826
610.55	28.421
610.74	28.914
610.93	28.856
611.12	28.858
611.31	29.496
611.50	29.291
611.69	30.282
611.88	30.349
612.07	30.719
612.26	30.404
612.45	31.019
612.64	30.656
612.83	30.469
613.02	30.859
613.21	29.876
613.40	30.299
613.59	31.602
613.78	30.710
613.97	31.611
614.16	28.394
614.35	30.953
614.54	31.267
614.73	30.698
614.92	30.687
615.11	30.016
615.30	31.582
615.49	31.209
615.68	30.644
615.87	31.700
616.07	29.133
616.26	30.849
616.45	31.036
616.64	30.867
616.83	31.044
617.02	29.874
617.21	31.687
617.40	30.018
617.59	30.892
617.78	29.660
617.97	32.423
618.16	31.055
618.35	28.964
618.54	29.407
618.73	31.735
618.92	28.739
619.11	32.161
619.30	30.689
619.49	30.958
619.68	30.551
619.86	30.544
620.05	31.798
620.24	30.020
620.43	31.339
620.62	30.630
620.81	29.666
621.00	30.926
621.19	31.037
621.38	30.855
621.57	30.850
621.76	30.312
621.95	30.062
622.14	29.951
622.33	30.121
622.52	30.585
622.71	30.466
622.90	30.025
623.09	30.960
623.28	30.564
623.47	31.330
623.66	31.038
623.85	31.203
624.04	29.134
624.23	31.085
624.42	31.275
624.61	29.387
624.80	30.679
624.99	29.849
625.18	31.110
625.36	30.081
625.55	29.464
625.74	31.637
625.93	30.661
626.12	30.667
626.31	30.845
626.50	30.433
626.69	30.833
626.88	30.914
627.07	30.079
627.26	31.004
627.45	31.051
627.64	30.530
627.83	30.727
628.02	30.729
628.20	30.354
628.39	30.273
628.58	31.406
628.77	31.493
628.96	30.819
629.15	30.422
629.34	30.498
629.53	30.791
629.72	29.852
629.91	30.164
630.10	30.850
630.29	30.386
630.47	31.159
630.66	30.782
630.85	29.490
631.04	30.236
631.23	30.175
631.42	29.608
631.61	31.961
631.80	31.099
631.99	30.749
632.18	30.084
632.36	30.140
632.55	31.858
632.74	29.180
632.93	30.451
633.12	31.171
633.31	29.541
633.50	30.669
633.69	30.638
633.88	28.657
634.06	31.605
634.25	29.316
634.44	29.610
634.63	30.823
634.82	30.984
635.01	30.170
635.20	30.626
635.39	29.278
635.57	30.564
635.76	30.929
635.95	29.431
636.14	31.852
636.33	30.164
636.52	31.194
636.71	29.530
636.89	31.540
637.08	30.310
637.27	31.088
637.46	29.596
637.65	31.410
637.84	31.052
638.03	30.951
638.21	32.612
638.40	29.788
638.59	30.952
638.78	30.715
638.97	31.162
639.16	30.651
639.34	30.782
639.53	30.637
639.72	33.038
639.91	31.024
640.10	30.423
640.29	32.386
640.47	31.413
640.66	32.177
640.85	31.395
641.04	30.271
641.23	31.455
641.42	32.539
641.60	30.762
641.79	30.823
641.98	32.637
642.17	31.102
642.36	31.555
642.54	30.659
642.73	30.904
642.92	31.232
643.11	31.572
643.30	31.583
643.49	31.052
643.67	30.171
643.86	32.945
644.05	31.473
644.24	30.763
644.43	31.198
644.61	32.721
644.80	31.640
644.99	31.568
645.18	32.272
645.37	30.566
645.55	30.803
645.74	30.253
645.93	29.008
646.12	32.096
646.31	31.754
646.49	29.911
646.68	30.450
646.87	31.775
647.06	30.887
647.24	31.033
647.43	29.227
647.62	31.696
647.81	31.115
648.00	32.075
648.18	29.480
648.37	30.551
648.56	29.729
648.75	31.921
648.93	29.912
649.12	30.657
649.31	29.796
649.50	28.915
649.68	30.624
649.87	29.565
650.06	30.381
650.25	31.087
650.43	29.290
650.62	29.300
650.81	30.755
651.00	29.485
651.18	29.586
651.37	30.398
651.56	27.967
651.75	32.075
651.93	31.831
652.12	30.891
652.31	29.383
652.50	30.351
652.68	31.337
652.87	31.047
653.06	30.520
653.25	29.842
653.43	29.437
653.62	30.305
653.81	27.872
654.00	31.812
654.18	30.503
654.37	31.596
654.56	31.080
654.74	30.906
654.93	28.130
655.12	30.750
655.31	29.922
655.49	30.552
655.68	28.924
655.87	29.905
656.05	27.465
656.24	27.523
656.43	27.128
656.62	28.931
656.80	27.611
656.99	28.057
657.18	29.263
657.36	28.500
657.55	28.463
657.74	26.929
657.93	28.480
658.11	28.637
658.30	27.900
658.49	27.293
658.67	26.070
658.86	27.813
659.05	26.640
659.23	26.146
659.42	26.353
659.61	26.254
659.79	24.619
659.98	26.711
660.17	26.595
660.35	24.493
660.54	27.190
660.73	26.600
660.91	25.271
661.10	25.915
661.29	23.896
661.47	26.508
661.66	24.387
661.85	24.952
662.03	24.386
662.22	24.334
662.41	21.505
662.59	22.096
662.78	22.555
662.97	23.503
663.15	19.526
663.34	23.136
663.53	20.775
663.71	23.252
663.90	20.832
664.09	23.125
664.27	21.400
664.46	20.625
664.65	20.056
664.83	19.600
665.02	19.546
665.21	20.660
665.39	20.430
665.58	21.781
665.77	19.619
665.95	20.683
666.14	20.780
666.32	22.608
666.51	19.975
666.70	18.829
666.88	16.731
667.07	18.622
667.26	17.622
667.44	17.778
667.63	18.060
667.81	19.054
668.00	16.516
668.19	21.088
668.37	17.589
668.56	22.254
668.75	16.619
668.93	19.807
669.12	17.581
669.30	19.016
669.49	15.356
669.68	18.440
669.86	17.635
670.05	17.823
670.23	17.281
670.42	16.647
670.61	17.459
670.79	18.292
670.98	16.173
671.16	20.105
671.35	16.860
671.54	16.368
671.72	15.874
671.91	17.822
672.09	15.382
672.28	20.053
672.46	19.849
672.65	16.946
672.84	18.445
673.02	19.266
673.21	16.091
673.39	17.243
673.58	18.449
673.77	19.275
673.95	16.867
674.14	19.724
674.32	17.111
674.51	19.110
674.69	17.100
674.88	17.659
675.07	14.736
675.25	21.185
675.44	18.385
675.62	18.226
675.81	16.202
675.99	24.929
676.18	19.665
676.36	16.748
676.55	17.997
676.74	21.730
676.92	18.721
677.11	18.314
677.29	18.656
677.48	22.199
677.66	19.520
677.85	18.848
678.03	16.667
678.22	20.735
678.40	19.640
678.59	19.939
678.78	18.787
678.96	18.657
679.15	17.899
679.33	19.539
679.52	21.672
679.70	20.574
679.89	22.472
680.07	21.720
680.26	18.430
680.44	20.403
680.63	19.792
680.81	20.594
681.00	18.199
681.18	21.025
681.37	19.810
681.55	21.229
681.74	21.597
681.92	23.245
682.11	22.125
682.29	22.683
682.48	22.313
682.66	22.852
682.85	22.076
683.03	23.454
683.22	24.094
683.40	24.892
683.59	21.417
683.77	25.833
683.96	20.536
684.14	24.109
684.33	21.256
684.51	26.676
684.70	22.720
684.88	27.743
685.07	24.236
685.25	26.075
685.44	25.501
685.62	25.300
685.81	22.914
685.99	29.081
686.18	25.246
686.36	28.276
686.55	24.694
686.73	25.957
686.92	27.210
687.10	28.835
687.29	29.490
687.47	30.251
687.65	29.339
687.84	28.438
688.02	32.214
688.21	31.473
688.39	28.854
688.58	31.263
688.76	29.502
688.95	30.531
689.13	26.671
689.32	33.636
689.50	30.419
689.68	30.923
689.87	32.061
690.05	32.530
690.24	32.450
690.42	32.929
690.61	33.527
690.79	35.803
690.98	34.082
691.16	33.929
691.34	33.660
691.53	36.760
691.71	35.695
691.90	36.741
692.08	36.584
692.27	39.353
692.45	38.976
692.63	36.608
692.82	39.896
693.00	39.725
693.19	38.943
693.37	41.169
693.56	38.099
693.74	41.276
693.92	40.798
694.11	41.448
694.29	40.731
694.48	45.973
694.66	43.108
694.84	45.970
695.03	40.981
695.21	45.720
695.40	44.943
695.58	49.198
695.76	43.557
695.95	46.125
696.13	47.154
696.32	49.749
696.50	49.386
696.68	46.433
696.87	49.854
697.05	45.930
697.24	46.899
697.42	46.912
697.60	47.183
697.79	47.367
697.97	50.054
698.16	48.133
698.34	46.405
698.52	46.630
698.71	49.096
698.89	47.971
699.07	47.627
699.26	50.573
699.44	47.281
699.63	47.524
699.81	45.824
699.99	47.516
700.18	49.788
700.36	49.312
700.54	49.385
700.73	47.434
700.91	48.966
701.09	48.087
701.28	52.587
701.46	50.482
701.64	50.460
701.83	52.450
702.01	52.480
702.20	54.433
702.38	52.448
702.56	54.371
702.75	53.465
702.93	52.154
703.11	53.523
703.30	57.832
703.48	55.360
703.66	57.887
703.85	56.520
704.03	56.308
704.21	55.514
704.40	55.309
704.58	52.343
704.76	55.324
704.95	55.545
705.13	53.764
705.31	56.953
705.50	59.315
705.68	58.579
705.86	60.079
706.04	56.905
706.23	59.587
706.41	60.205
706.59	55.275
706.78	56.049
706.96	59.337
707.14	58.301
707.33	58.987
707.51	56.193
707.69	60.595
707.88	58.535
708.06	59.285
708.24	54.771
708.42	61.527
708.61	56.330
708.79	58.964
708.97	63.470
709.16	60.895
709.34	64.193
709.52	56.915
709.71	59.763
709.89	60.567
710.07	60.697
710.25	61.843
710.44	60.960
710.62	60.027
710.80	61.524
710.98	58.757
711.17	59.651
711.35	58.721
711.53	57.351
711.72	61.532
711.90	61.408
712.08	59.775
712.26	59.554
712.45	57.547
712.63	55.928
712.81	59.580
712.99	60.009
713.18	61.857
713.36	61.237
713.54	59.273
713.72	57.307
713.91	61.028
714.09	56.716
714.27	60.923
714.45	60.622
714.64	59.588
714.82	60.795
715.00	61.189
715.18	58.065
715.37	62.078
715.55	59.839
715.73	64.455
715.91	58.850
716.10	59.424
716.28	55.711
716.46	60.548
716.64	60.439
716.83	60.442
717.01	59.209
717.19	59.406
717.37	62.512
717.55	62.107
717.74	60.902
717.92	58.529
718.10	57.123
718.28	59.616
718.47	61.313
718.65	62.247
718.83	59.418
719.01	63.396
719.19	63.621
719.38	55.842
719.56	61.836
719.74	62.904
719.92	59.696
720.10	62.842
720.29	61.298
720.47	63.109
720.65	65.111
720.83	63.327
721.01	62.344
721.20	61.574
721.38	61.979
721.56	65.662
721.74	61.766
721.92	67.846
722.11	61.402
722.29	64.454
722.47	65.684
722.65	63.389
722.83	60.577
723.01	67.258
723.20	63.568
723.38	64.966
723.56	66.403
723.74	67.239
723.92	65.375
724.10	69.428
724.29	62.688
724.47	65.013
724.65	68.176
724.83	66.496
725.01	60.760
725.19	69.316
725.38	61.300
725.56	65.350
725.74	67.089
725.92	65.033
726.10	64.150
726.28	61.418
726.46	62.701
726.65	64.713
726.83	67.004
727.01	64.994
727.19	60.782
727.37	69.592
727.55	65.532
727.73	63.835
727.92	66.746
728.10	64.934
728.28	61.164
728.46	63.939
728.64	65.278
728.82	68.360
729.00	64.588
729.19	63.134
729.37	63.081
729.55	64.191
729.73	63.509
729.91	68.225
730.09	64.023
730.27	65.406
730.45	63.040
730.63	59.284
730.82	65.529
731.00	65.023
731.18	66.303
731.36	64.952
731.54	66.724
731.72	65.449
731.90	66.858
732.08	66.012
732.26	67.166
732.45	67.309
732.63	70.806
732.81	63.068
732.99	66.293
733.17	68.009
733.35	67.829
733.53	65.950
733.71	64.375
733.89	66.176
734.07	68.107
734.25	66.929
734.44	65.609
734.62	66.086
734.80	65.308
734.98	66.529
735.16	67.809
735.34	68.062
735.52	67.887
735.70	72.111
735.88	72.008
736.06	70.057
736.24	70.132
736.42	70.889
736.60	71.283
736.78	69.645
736.97	72.946
737.15	72.242
737.33	72.967
737.51	70.483
737.69	75.693
737.87	71.012
738.05	74.946
738.23	72.870
738.41	68.939
738.59	73.237
738.77	69.142
738.95	72.301
739.13	70.716
739.31	71.897
739.49	76.534
739.67	74.746
739.85	73.365
740.03	70.700
740.21	72.847
740.39	72.734
740.57	72.695
740.75	72.184
740.93	74.880
741.11	73.310
741.30	71.805
741.48	77.290
741.66	71.662
741.84	77.193
742.02	73.136
742.20	73.893
742.38	75.232
742.56	78.545
742.74	72.994
742.92	71.372
743.10	73.036
743.28	74.941
743.46	76.960
743.64	75.327
743.82	75.022
744.00	79.535
744.18	73.089
744.36	77.121
744.54	78.498
744.72	75.131
744.90	85.069
745.08	76.881
745.26	73.875
745.44	76.567
745.62	79.277
745.80	71.799
745.98	75.681
746.16	80.298
746.34	74.933
746.52	76.972
746.70	74.376
746.87	79.283
747.05	75.883
747.23	73.023
747.41	79.574
747.59	75.475
747.77	75.067
747.95	80.078
748.13	74.534
748.31	86.364
748.49	74.564
748.67	80.183
748.85	80.521
749.03	78.591
749.21	81.417
749.39	80.446
749.57	75.043
749.75	72.743
749.93	76.916
750.11	73.635
750.29	77.582
750.47	76.612
750.65	76.152
750.83	82.002
751.01	74.127
751.18	82.798
751.36	71.479
751.54	76.796
751.72	73.043
751.90	77.201
752.08	75.708
752.26	74.573
752.44	76.055
752.62	76.071
752.80	81.300
752.98	83.012
753.16	85.662
753.34	85.278
753.52	78.009
753.69	80.380
753.87	85.032
754.05	76.098
754.23	77.074
754.41	78.700
754.59	72.599
754.77	77.249
754.95	77.189
755.13	76.186
755.31	77.871
755.49	78.323
755.66	76.989
755.84	78.553
756.02	75.290
756.20	81.102
756.38	75.893
756.56	80.620
756.74	77.112
756.92	78.840
757.10	80.000
757.28	87.572
757.45	78.028
757.63	77.885
757.81	79.104
757.99	81.046
758.17	77.163
758.35	76.831
758.53	79.494
758.71	80.264
758.88	75.573
759.06	76.909
759.24	70.708
759.42	67.354
759.60	68.668
759.78	66.840
759.96	66.361
760.13	65.286
760.31	58.526
760.49	62.339
760.67	53.699
760.85	59.026
761.03	55.646
761.21	61.313
761.38	51.554
761.56	62.618
761.74	53.884
761.92	62.879
762.10	54.568
762.28	60.995
762.46	58.368
762.63	56.215
762.81	60.305
762.99	62.277
763.17	50.799
763.35	60.573
763.53	56.536
763.70	59.825
763.88	57.374
764.06	58.884
764.24	55.252
764.42	59.656
764.60	60.435
764.77	57.673
764.95	54.742
765.13	64.126
765.31	60.228
765.49	57.143
765.66	58.927
765.84	67.347
766.02	62.795
766.20	64.948
766.38	63.427
766.56	63.272
766.73	63.173
766.91	71.277
767.09	65.894
767.27	73.025
767.45	69.433
767.62	72.957
767.80	72.153
767.98	70.635
768.16	75.829
768.33	71.785
768.51	72.232
768.69	75.046
768.87	78.469
769.05	73.358
769.22	80.105
769.40	86.957
769.58	77.893
769.76	83.075
769.94	78.144
770.11	78.970
770.29	83.333
770.47	87.246
770.65	82.295
770.82	85.730
771.00	83.427
771.18	85.033
771.36	91.184
771.53	81.136
771.71	87.857
771.89	83.941
772.07	78.774
772.25	89.668
772.42	82.578
772.60	85.885
772.78	88.903
772.96	83.800
773.13	81.850
773.31	93.513
773.49	83.049
773.67	91.635
773.84	80.385
774.02	87.005
774.20	83.474
774.37	87.915
774.55	92.507
774.73	96.164
774.91	84.047
775.08	82.519
775.26	88.259
775.44	90.331
775.62	92.686
775.79	83.854
775.97	89.028
776.15	79.947
776.32	90.870
776.50	88.146
776.68	94.862
776.86	88.000
777.03	87.858
777.21	82.148
777.39	84.529
777.56	84.524
777.74	86.008
777.92	81.527
778.10	90.014
778.27	89.853
778.45	82.802
778.63	82.591
778.80	91.293
778.98	87.349
779.16	88.769
779.34	94.980
779.51	85.674
779.69	82.361
779.87	84.585
780.04	83.062
780.22	91.845
780.40	82.338
780.57	76.153
780.75	81.466
780.93	77.992
781.10	82.531
781.28	93.013
781.46	83.196
781.63	94.462
781.81	92.635
781.99	79.433
782.16	83.673
782.34	84.639
782.52	93.417
782.69	74.570
782.87	84.505
783.05	89.302
783.22	85.260
783.40	94.664
783.58	93.220
783.75	84.384
783.93	87.430
784.11	89.120
784.28	82.931
784.46	80.241
784.64	98.537
784.81	90.955
784.99	101.116
785.17	94.068
785.34	88.889
785.52	84.748
785.69	86.950
785.87	82.391
786.05	86.541
786.22	90.415
786.40	94.868
786.58	85.756
786.75	92.395
786.93	80.452
787.11	92.371
787.28	100.173
787.46	98.308
787.63	93.016
787.81	82.920
787.99	85.290
788.16	83.357
788.34	82.158
788.51	85.277
788.69	75.000
788.87	78.103
789.04	76.126
789.22	77.060
789.39	83.144
789.57	84.586
789.75	81.181
789.92	79.230
790.10	78.591
790.27	82.687
790.45	82.066
790.63	82.706
790.80	77.715
790.98	92.974
791.15	85.823
791.33	87.198
791.51	80.868
791.68	97.931
791.86	80.215
792.03	81.602
792.21	86.700
792.39	85.397
792.56	80.725
792.74	81.732
792.91	79.592
793.09	83.804
793.26	78.120
793.44	92.739
793.62	81.991
793.79	89.810
793.97	85.320
794.14	89.550
794.32	91.388
794.49	89.796
794.67	82.805
794.84	84.554
795.02	93.451
795.20	86.157
795.37	85.254
795.55	76.167
795.72	75.436
795.90	90.725
796.07	77.575
796.25	78.086
796.42	82.630
796.60	82.529
796.77	80.824
796.95	83.562
797.13	69.559
797.30	80.675
797.48	76.979
797.65	88.712
797.83	74.324
798.00	90.080
798.18	77.352
798.35	86.998
798.53	76.727
798.70	85.399
798.88	77.500
799.05	72.661
799.23	74.884
799.40	83.448
799.58	78.866
799.75	83.144
799.93	79.305
800.10	74.779
800.28	84.375
800.45	79.937
800.63	75.701
800.80	83.900
800.98	88.386
801.15	77.202
801.33	86.865
801.50	81.463
801.68	70.018
801.85	80.565
802.03	92.079
802.20	84.055
802.38	77.645
802.55	86.018
802.73	81.294
802.90	84.804
803.08	76.692
803.25	92.015
803.43	84.515
803.60	95.898
803.78	86.809
803.95	84.296
804.13	87.280
804.30	82.592
804.48	82.364
804.65	87.084
804.83	81.818
805.00	77.936
805.17	80.295
805.35	84.902
805.52	80.000
805.70	80.729
805.87	80.652
806.05	86.242
806.22	82.892
806.40	77.193
806.57	80.663
806.75	84.321
806.92	74.781
807.09	92.427
807.27	74.806
807.44	90.909
807.62	76.710
807.79	69.179
807.97	78.424
808.14	80.545
808.31	70.642
808.49	70.070
808.66	72.694
808.84	88.008
809.01	84.270
809.19	77.734
809.36	86.980
809.53	91.781
809.71	78.529
809.88	82.983
810.06	84.476
810.23	79.130
810.41	75.205
810.58	89.098
810.75	76.164
810.93	84.792
811.10	79.331
811.28	91.036
811.45	87.016
811.62	87.004
811.80	87.225
811.97	93.409
812.15	77.264
812.32	84.444
812.49	78.935
812.67	84.483
812.84	89.663
813.02	90.741
813.19	74.000
813.36	79.393
813.54	87.364
813.71	80.994
813.89	85.956
814.06	83.821
814.23	75.262
814.41	81.864
814.58	74.043
814.75	78.346
814.93	78.027
815.10	82.609
815.28	77.966
815.45	84.375
815.62	80.320
815.80	64.955
815.97	65.868
816.14	74.873
816.32	72.845
816.49	72.727
816.66	78.465
816.84	70.961
817.01	90.952
817.18	73.474
817.36	77.945
817.53	79.233
817.71	68.941
817.88	85.039
818.05	57.210
818.23	66.535
818.40	76.231
818.57	68.539
818.75	71.831
818.92	72.788
819.09	60.153
819.27	79.046
819.44	72.429
819.61	70.243
819.79	68.889
819.96	68.966
820.13	61.864
820.31	66.188
820.48	80.610
820.65	73.710
820.82	62.195
821.00	61.034
821.17	56.061
821.34	62.213
821.52	55.986
821.69	55.041
821.86	57.627
822.04	65.714
822.21	53.230
822.38	55.132
822.56	55.858
822.73	55.694
822.90	54.307
823.07	53.321
823.25	53.437
823.42	54.281
823.59	52.087
823.77	53.223
823.94	52.986
824.11	52.058
824.29	50.659
824.46	54.743
824.63	56.217
824.80	54.203
824.98	53.418
825.15	55.603
825.32	51.533
825.49	57.677
825.67	57.591
825.84	56.041
826.01	53.973
826.19	60.015
826.36	52.462
826.53	58.243
826.70	56.636
826.88	61.606
827.05	55.970
827.22	59.937
827.39	57.309
827.57	56.227
827.74	53.066
827.91	57.230
828.08	54.041
828.26	57.554
828.43	52.381
828.60	57.391
828.77	54.094
828.95	55.800
829.12	45.774
829.29	51.984
829.46	52.582
829.64	54.991
829.81	50.157
829.98	60.350
830.15	54.400
830.32	56.462
830.50	53.079
830.67	65.629
830.84	52.653
831.01	62.940
831.19	60.000
831.36	59.059
831.53	67.864
831.70	67.939
831.87	66.733
832.05	71.033
832.22	75.532
832.39	66.083
832.56	62.256
832.74	61.331
832.91	67.630
833.08	66.968
833.25	56.906
833.42	64.580
833.60	67.496
833.77	59.856
833.94	57.529
834.11	54.556
834.28	52.625
834.45	58.811
834.63	50.706
834.80	57.368
834.97	50.754
835.14	57.332
835.31	54.955
835.49	56.262
835.66	47.808
835.83	54.396
836.00	57.277
836.17	58.687
836.34	55.446
836.52	58.718
836.69	58.735
836.86	63.880
837.03	65.480
837.20	62.879
837.37	53.846
837.55	57.089
837.72	66.480
837.89	73.438
838.06	77.295
838.23	70.737
838.40	73.253
838.58	59.677
838.75	71.779
838.92	85.507
839.09	108.228
839.26	85.915
839.43	99.653
839.60	82.958
839.78	103.416
839.95	79.762
840.12	74.561
840.29	87.812
840.46	101.558
840.63	78.116
840.80	79.683
840.98	107.989
841.15	86.548
841.32	89.944
841.49	69.146
841.66	68.108
841.83	69.504
842.00	81.586
842.17	86.872
842.34	75.209
842.52	86.667
842.69	87.025
842.86	77.656
843.03	90.997
843.20	89.625
843.37	113.095
843.54	89.420
843.71	98.750
843.88	101.460
844.06	123.305
844.23	125.000
844.40	108.051
844.57	104.545
844.74	112.069
844.91	117.910
845.08	149.153
845.25	125.532
845.42	135.754
845.59	90.164
845.76	118.817
845.94	123.889
846.11	122.772
846.28	100.398
846.45	131.183
846.62	123.500
846.79	105.485
846.96	131.319
847.13	161.413
847.30	136.158
847.47	126.289
847.64	113.878
847.81	191.912
847.98	112.973
848.15	117.877
848.32	136.269
848.50	110.000
848.67	106.509
848.84	117.751
849.01	142.446
849.18	145.882
849.35	143.333
849.52	121.693
849.69	138.462
849.86	139.865
850.03	157.025
850.20	162.000
850.37	132.941
850.54	148.936
850.71	122.396
850.88	134.839
851.05	122.283
851.22	146.988
851.39	141.176
851.56	163.793
851.73	150.595
851.90	122.876
852.07	130.409
852.24	164.052
852.41	127.919
852.58	138.798
852.75	122.674
852.92	132.044
853.09	162.092
853.26	154.248
853.43	107.647
853.60	134.694
853.77	136.313
853.94	163.717
854.11	141.667
854.28	134.722
854.45	161.039
854.62	158.721
854.79	135.152
854.96	168.750
855.13	145.283
855.30	163.504
855.47	187.097
855.64	131.056
855.81	190.647
855.98	161.069
856.15	160.000
856.32	122.275
856.49	131.073
856.66	133.974
856.83	135.220
857.00	151.639
857.17	156.452
857.34	114.130
857.51	119.718
857.68	129.592
857.85	140.000
858.02	154.422
858.19	115.470
858.36	133.908
858.53	150.296
858.70	123.626
858.87	161.379
859.04	151.176
859.21	198.485
859.38	120.276
859.55	148.295
859.72	147.917
859.89	181.818
860.05	180.576
860.22	149.697
860.39	200.000
860.56	164.881
860.73	142.262
860.90	140.120
861.07	140.000
861.24	140.441
861.41	149.133
861.58	162.987
861.75	159.055
861.92	120.625
862.09	127.136
862.26	125.806
862.43	151.333
862.59	113.158
862.76	131.606
862.93	190.000
863.10	190.441
863.27	144.615
863.44	163.415
863.61	140.580
863.78	131.551
863.95	145.732
864.12	237.179
864.29	148.305
864.45	123.899
864.62	164.228
864.79	128.235
864.96	215.385
865.13	180.292
865.30	182.653
865.47	145.517
865.64	137.762
865.81	140.351
865.97	134.591
866.14	117.647
866.31	185.246
866.48	114.085
866.65	120.859
866.82	171.141
866.99	152.143
867.16	141.860
867.33	153.191
867.49	128.313
867.66	146.269
867.83	114.286
868.00	133.871
868.17	186.260
868.34	178.740
868.51	139.437
868.67	133.929
868.84	160.741
869.01	162.069
869.18	171.200
869.35	148.227
869.52	170.803
869.69	171.642
869.85	127.027
870.02	114.130
870.19	186.154
870.36	153.957
870.53	189.286
870.70	192.857
870.86	137.662
871.03	164.964
871.20	122.689
871.37	126.627
871.54	165.094
871.71	157.576
871.87	210.309
872.04	98.125
872.21	146.970
872.38	245.783
872.55	137.857
872.72	115.217
872.88	180.833
873.05	114.973
873.22	152.500
873.39	123.171
873.56	109.353
873.72	134.807
873.89	136.306
874.06	122.131
874.23	140.580
874.40	146.400
874.56	161.364
874.73	193.333
874.90	160.959
875.07	158.779
875.24	142.683
875.40	204.464
875.57	153.968
875.74	118.750
875.91	169.841
876.08	148.571
876.24	150.000
876.41	194.737
876.58	140.146
876.75	140.000
876.92	180.769
877.08	139.416
877.25	144.156
877.42	140.769
877.59	130.120
877.75	115.566
877.92	109.302
878.09	149.342
878.26	146.575
878.42	128.148
878.59	139.773
878.76	127.513
878.93	115.232
879.09	151.701
879.26	125.641
879.43	120.312
879.60	118.788
879.76	132.308
879.93	102.030
880.10	80.000
880.27	71.556
880.43	101.531
880.60	83.099
880.77	84.706
880.94	96.786
881.10	65.172
881.27	65.746
881.44	57.050
881.61	55.936
881.77	53.506
881.94	51.577
882.11	43.491
882.28	46.467
882.44	39.444
882.61	47.350
882.78	42.156
882.94	52.193
883.11	44.021
883.28	44.706
883.45	42.812
883.61	47.033
883.78	42.276
883.95	46.403
884.11	45.319
884.28	49.302
>>>>>End Processed Spectral Data<<<<<
