SpectraSuite Data File
++++++++++++++++++++++++++++++++++++
Date: Thu Sep 19 03:53:00 EST 2019
User: sgrac
Dark Spectrum Present: Yes
Reference Spectrum Present: Yes
Number of Sampled Component Spectra: 1
Spectrometers: USB4E01596
Integration Time (usec): 100000 (USB4E01596)
Spectra Averaged: 1 (USB4E01596)
Boxcar Smoothing: 0 (USB4E01596)
Correct for Electrical Dark: No (USB4E01596)
Strobe/Lamp Enabled: Yes (USB4E01596)
Correct for Detector Non-linearity: No (USB4E01596)
Correct for Stray Light: No (USB4E01596)
Number of Pixels in Processed Spectrum: 3648
>>>>>Begin Processed Spectral Data<<<<<
178.44	935.714
178.66	935.714
178.87	935.714
179.09	-1063.636
179.30	214.286
179.52	2314.286
179.74	-788.889
179.95	809.524
180.17	1636.364
180.38	323.881
180.60	0.000
180.82	729.032
181.03	268.519
181.25	3950.000
181.46	1315.385
181.68	-258.140
181.89	1535.714
182.11	745.833
182.33	700.000
182.54	1258.333
182.76	894.444
182.97	-721.429
183.19	321.429
183.40	367.273
183.62	723.810
183.84	2425.000
184.05	1440.000
184.27	-8500.000
184.48	295.238
184.70	9500.000
184.91	850.000
185.13	364.789
185.34	-311.538
185.56	751.852
185.78	507.692
185.99	-5050.000
186.21	-1563.636
186.42	-400.000
186.64	1113.333
186.85	-7650.000
187.07	645.455
187.28	950.000
187.50	809.091
187.72	447.222
187.93	1116.667
188.15	1036.842
188.36	988.235
188.58	453.846
188.79	2633.333
189.01	808.333
189.22	2980.000
189.44	660.000
189.65	-7466.667
189.87	4350.000
190.09	1200.000
190.30	2157.143
190.52	1625.000
190.73	-603.846
190.95	354.545
191.16	550.000
191.38	502.778
191.59	-1545.455
191.81	731.818
192.02	1120.000
192.24	723.077
192.45	2025.000
192.67	3516.667
192.88	-555.556
193.10	-18100.000
193.31	594.286
193.53	-604.762
193.74	-2575.000
193.96	2388.889
194.18	1000.000
194.39	482.927
194.61	968.421
194.82	1663.636
195.04	720.000
195.25	4933.333
195.47	484.211
195.68	888.235
195.90	369.767
196.11	673.077
196.33	-1900.000
196.54	-1084.211
196.76	668.182
196.97	1922.222
197.19	-18300.000
197.40	1633.333
197.62	2916.667
197.83	1392.308
198.05	617.857
198.26	440.000
198.48	450.000
198.69	-1677.778
198.91	938.889
199.12	525.714
199.34	-2414.286
199.55	252.632
199.77	360.870
199.98	-1736.364
200.20	965.000
200.41	10200.000
200.63	592.857
200.84	895.238
201.06	-1238.462
201.27	-2840.000
201.49	1691.667
201.70	1262.500
201.91	-9350.000
202.13	836.842
202.34	404.348
202.56	8000.000
202.77	1043.750
202.99	430.000
203.20	709.091
203.42	-2742.857
203.63	3683.333
203.85	561.111
204.06	647.826
204.28	1900.000
204.49	-1360.000
204.71	519.512
204.92	337.778
205.14	386.667
205.35	268.571
205.56	2800.000
205.78	986.364
205.99	-1520.000
206.21	786.957
206.42	338.983
206.64	-2866.667
206.85	790.476
207.07	836.842
207.28	-3180.000
207.50	381.481
207.71	1087.500
207.93	393.750
208.14	796.296
208.35	876.471
208.57	-524.000
208.78	-390.244
209.00	409.302
209.21	492.857
209.43	772.000
209.64	15700.000
209.86	700.000
210.07	589.655
210.28	-1038.462
210.50	894.118
210.71	740.000
210.93	493.750
211.14	268.571
211.36	400.000
211.57	750.000
211.78	492.308
212.00	1080.000
212.21	917.647
212.43	1173.333
212.64	640.000
212.86	275.641
213.07	627.586
213.29	696.667
213.50	519.355
213.71	556.667
213.93	2528.571
214.14	882.353
214.36	1887.500
214.57	312.676
214.78	1253.333
215.00	1147.368
215.21	811.111
215.43	240.506
215.64	581.481
215.86	1253.333
216.07	963.158
216.28	355.556
216.50	8300.000
216.71	-15100.000
216.93	659.259
217.14	306.061
217.35	460.000
217.57	3550.000
217.78	434.286
218.00	5133.333
218.21	537.500
218.42	281.250
218.64	-9150.000
218.85	352.941
219.07	2285.714
219.28	272.131
219.49	-1183.333
219.71	1537.500
219.92	281.081
220.14	2350.000
220.35	386.364
220.56	1184.615
220.78	307.018
220.99	474.286
221.21	204.124
221.42	765.217
221.63	7850.000
221.85	733.333
222.06	560.000
222.28	217.333
222.49	-1666.667
222.70	346.296
222.92	-9200.000
223.13	492.105
223.34	220.652
223.56	1558.333
223.77	255.882
223.99	391.111
224.20	308.333
224.41	241.333
224.63	8700.000
224.84	5800.000
225.05	1030.769
225.27	494.872
225.48	340.000
225.69	232.941
225.91	245.313
226.12	285.507
226.34	425.000
226.55	239.706
226.76	301.961
226.98	222.727
227.19	270.513
227.40	318.000
227.62	264.384
227.83	164.286
228.04	193.506
228.26	125.893
228.47	145.833
228.69	121.324
228.90	98.214
229.11	68.559
229.33	91.866
229.54	78.838
229.75	72.438
229.97	57.012
230.18	64.452
230.39	44.949
230.61	75.085
230.82	64.452
231.03	55.096
231.25	82.215
231.46	63.095
231.67	68.679
231.89	72.222
232.10	58.491
232.31	85.268
232.53	87.156
232.74	83.028
232.95	110.784
233.17	77.949
233.38	65.789
233.59	124.157
233.81	107.407
234.02	98.857
234.23	92.784
234.45	96.818
234.66	93.678
234.87	98.256
235.09	79.787
235.30	91.262
235.51	82.063
235.73	63.636
235.94	73.214
236.15	74.254
236.36	76.889
236.58	84.211
236.79	84.483
237.00	70.281
237.22	104.233
237.43	83.658
237.64	74.534
237.86	83.491
238.07	89.916
238.28	76.378
238.50	84.211
238.71	82.902
238.92	71.226
239.13	90.323
239.35	88.382
239.56	70.556
239.77	118.033
239.99	66.129
240.20	93.385
240.41	80.315
240.63	51.642
240.84	64.602
241.05	59.122
241.26	44.818
241.48	49.847
241.69	41.192
241.90	40.920
242.12	37.014
242.33	34.091
242.54	37.311
242.75	27.946
242.97	36.827
243.18	22.987
243.39	24.151
243.61	29.172
243.82	37.636
244.03	30.464
244.24	28.571
244.46	31.199
244.67	32.775
244.88	34.352
245.09	30.858
245.31	35.082
245.52	34.266
245.73	43.154
245.95	60.119
246.16	42.679
246.37	34.343
246.58	32.000
246.80	32.312
247.01	29.865
247.22	24.134
247.43	27.799
247.65	23.461
247.86	21.749
248.07	13.864
248.28	21.631
248.50	20.146
248.71	18.075
248.92	19.475
249.13	18.808
249.35	21.186
249.56	19.909
249.77	25.513
249.98	24.957
250.20	29.038
250.41	33.259
250.62	30.306
250.83	25.295
251.05	35.549
251.26	37.456
251.47	32.558
251.68	39.555
251.90	27.422
252.11	30.616
252.32	29.758
252.53	34.018
252.75	33.817
252.96	29.396
253.17	24.868
253.38	26.309
253.59	23.827
253.81	25.160
254.02	22.677
254.23	27.126
254.44	23.429
254.66	32.516
254.87	37.288
255.08	30.018
255.29	39.695
255.50	32.994
255.72	38.235
255.93	44.619
256.14	45.905
256.35	43.619
256.57	38.084
256.78	33.333
256.99	33.396
257.20	44.885
257.41	44.948
257.63	33.271
257.84	35.104
258.05	38.506
258.26	33.119
258.47	37.603
258.69	22.252
258.90	22.865
259.11	26.227
259.32	20.996
259.53	21.311
259.75	19.887
259.96	17.524
260.17	16.366
260.38	16.644
260.59	18.011
260.81	15.673
261.02	16.143
261.23	16.650
261.44	17.823
261.65	16.624
261.87	17.001
262.08	21.080
262.29	22.215
262.50	14.786
262.71	18.319
262.92	25.574
263.14	20.000
263.35	14.030
263.56	22.316
263.77	25.748
263.98	22.210
264.20	33.449
264.41	19.018
264.62	31.429
264.83	16.929
265.04	35.676
265.25	25.097
265.47	28.264
265.68	28.591
265.89	26.443
266.10	22.996
266.31	31.215
266.52	24.466
266.74	26.570
266.95	23.634
267.16	19.978
267.37	24.348
267.58	20.973
267.79	21.726
268.01	19.231
268.22	20.148
268.43	23.284
268.64	24.651
268.85	18.156
269.06	20.017
269.27	21.053
269.49	26.827
269.70	20.680
269.91	22.091
270.12	23.871
270.33	23.984
270.54	22.674
270.75	18.832
270.97	21.919
271.18	17.087
271.39	18.543
271.60	19.168
271.81	18.484
272.02	17.093
272.23	19.179
272.45	18.195
272.66	15.200
272.87	19.302
273.08	17.495
273.29	18.737
273.50	17.992
273.71	17.376
273.92	14.575
274.14	14.845
274.35	19.160
274.56	21.020
274.77	19.134
274.98	19.478
275.19	18.386
275.40	19.886
275.61	16.748
275.83	21.026
276.04	19.283
276.25	21.237
276.46	20.991
276.67	18.685
276.88	23.199
277.09	24.862
277.30	22.185
277.51	24.826
277.73	15.919
277.94	14.884
278.15	18.641
278.36	25.339
278.57	19.395
278.78	20.631
278.99	22.427
279.20	19.414
279.41	23.589
279.62	20.372
279.84	19.048
280.05	20.670
280.26	13.051
280.47	23.651
280.68	17.958
280.89	19.531
281.10	20.018
281.31	20.586
281.52	21.654
281.73	13.054
281.94	15.749
282.16	22.705
282.37	16.566
282.58	17.029
282.79	21.862
283.00	21.141
283.21	15.931
283.42	16.655
283.63	18.783
283.84	15.255
284.05	17.751
284.26	17.871
284.47	16.061
284.68	16.778
284.89	15.648
285.11	17.351
285.32	12.313
285.53	15.977
285.74	21.910
285.95	16.211
286.16	17.359
286.37	15.181
286.58	14.913
286.79	13.284
287.00	15.943
287.21	13.428
287.42	16.775
287.63	14.856
287.84	15.628
288.05	16.975
288.26	14.548
288.48	17.239
288.69	13.401
288.90	15.019
289.11	20.390
289.32	17.486
289.53	15.298
289.74	15.691
289.95	15.100
290.16	18.357
290.37	13.669
290.58	13.628
290.79	14.385
291.00	13.744
291.21	15.036
291.42	13.843
291.63	15.173
291.84	14.983
292.05	13.751
292.26	13.093
292.47	15.406
292.68	14.110
292.89	15.207
293.10	18.591
293.31	17.216
293.52	12.210
293.73	13.168
293.94	17.949
294.15	15.635
294.36	12.115
294.57	19.384
294.79	15.607
295.00	12.347
295.21	14.633
295.42	13.864
295.63	17.035
295.84	11.716
296.05	12.214
296.26	11.978
296.47	14.338
296.68	11.657
296.89	18.011
297.10	14.690
297.31	13.060
297.52	12.533
297.73	13.051
297.94	11.971
298.15	11.758
298.36	12.714
298.57	11.488
298.78	12.818
298.99	10.133
299.20	12.578
299.41	13.135
299.62	12.906
299.83	13.053
300.04	14.471
300.25	17.171
300.46	15.856
300.67	14.910
300.88	15.127
301.09	10.947
301.30	12.778
301.50	13.729
301.71	19.558
301.92	13.740
302.13	13.247
302.34	12.633
302.55	14.885
302.76	14.977
302.97	11.124
303.18	13.289
303.39	12.834
303.60	12.298
303.81	15.616
304.02	15.030
304.23	12.253
304.44	13.134
304.65	15.943
304.86	11.506
305.07	13.326
305.28	12.209
305.49	13.314
305.70	14.952
305.91	14.155
306.12	12.079
306.33	13.196
306.54	13.972
306.75	14.381
306.96	20.000
307.17	13.072
307.38	10.676
307.58	12.154
307.79	13.804
308.00	17.397
308.21	15.789
308.42	16.005
308.63	16.206
308.84	10.242
309.05	12.296
309.26	11.950
309.47	15.114
309.68	9.126
309.89	11.834
310.10	11.813
310.31	10.567
310.52	10.889
310.73	13.293
310.94	8.539
311.14	10.752
311.35	13.022
311.56	8.861
311.77	11.364
311.98	9.450
312.19	10.988
312.40	12.815
312.61	12.367
312.82	11.229
313.03	12.116
313.24	13.311
313.45	14.066
313.66	15.160
313.86	14.170
314.07	12.255
314.28	19.437
314.49	10.512
314.70	12.965
314.91	17.009
315.12	13.875
315.33	14.377
315.54	13.913
315.75	12.764
315.96	13.569
316.16	10.585
316.37	13.442
316.58	10.114
316.79	12.716
317.00	14.985
317.21	11.673
317.42	15.550
317.63	14.260
317.84	13.433
318.05	13.539
318.25	16.150
318.46	10.276
318.67	11.965
318.88	13.745
319.09	15.192
319.30	13.085
319.51	11.890
319.72	15.690
319.93	10.269
320.13	14.702
320.34	14.268
320.55	14.044
320.76	12.492
320.97	13.183
321.18	14.367
321.39	14.178
321.60	13.273
321.80	16.409
322.01	14.276
322.22	15.488
322.43	15.064
322.64	10.998
322.85	14.134
323.06	14.771
323.27	16.073
323.47	15.576
323.68	13.858
323.89	13.387
324.10	14.723
324.31	11.086
324.52	9.310
324.73	12.022
324.93	11.692
325.14	13.010
325.35	12.816
325.56	11.330
325.77	14.758
325.98	12.462
326.19	11.287
326.39	8.849
326.60	12.519
326.81	14.538
327.02	11.077
327.23	8.863
327.44	16.701
327.64	9.953
327.85	7.885
328.06	11.500
328.27	17.447
328.48	14.543
328.69	10.766
328.90	13.025
329.10	11.408
329.31	15.003
329.52	11.836
329.73	12.296
329.94	13.066
330.15	13.034
330.35	13.196
330.56	14.400
330.77	12.632
330.98	13.271
331.19	12.107
331.39	13.443
331.60	13.442
331.81	9.554
332.02	15.031
332.23	13.844
332.44	11.224
332.64	13.706
332.85	11.534
333.06	13.043
333.27	9.834
333.48	13.588
333.68	12.632
333.89	10.980
334.10	12.889
334.31	13.062
334.52	11.307
334.72	12.246
334.93	10.033
335.14	11.071
335.35	11.430
335.56	13.082
335.76	11.444
335.97	11.948
336.18	10.296
336.39	14.769
336.60	13.997
336.80	11.651
337.01	11.359
337.22	9.524
337.43	11.067
337.64	11.615
337.84	14.444
338.05	11.566
338.26	14.026
338.47	14.134
338.68	9.377
338.88	11.587
339.09	10.767
339.30	12.096
339.51	10.716
339.71	12.620
339.92	11.095
340.13	11.420
340.34	11.917
340.55	11.111
340.75	11.044
340.96	10.030
341.17	10.795
341.38	9.555
341.58	11.894
341.79	12.048
342.00	10.324
342.21	11.559
342.41	8.428
342.62	11.794
342.83	13.340
343.04	9.533
343.24	11.447
343.45	9.289
343.66	8.805
343.87	11.136
344.07	10.736
344.28	11.226
344.49	9.676
344.70	12.909
344.90	9.582
345.11	10.161
345.32	11.526
345.53	10.173
345.73	11.532
345.94	9.954
346.15	12.965
346.36	9.898
346.56	9.821
346.77	11.687
346.98	10.400
347.19	10.803
347.39	10.250
347.60	9.784
347.81	10.720
348.02	11.191
348.22	8.382
348.43	12.579
348.64	11.136
348.84	10.996
349.05	10.551
349.26	12.397
349.47	9.249
349.67	10.899
349.88	11.951
350.09	12.097
350.30	12.052
350.50	10.492
350.71	10.529
350.92	12.029
351.12	10.765
351.33	12.532
351.54	10.967
351.74	10.330
351.95	9.673
352.16	11.204
352.37	12.968
352.57	9.832
352.78	11.796
352.99	12.184
353.19	12.232
353.40	10.586
353.61	14.172
353.82	11.650
354.02	12.831
354.23	10.357
354.44	12.958
354.64	10.249
354.85	12.796
355.06	11.034
355.26	9.816
355.47	12.992
355.68	13.454
355.88	14.723
356.09	13.204
356.30	10.493
356.51	12.470
356.71	12.340
356.92	11.571
357.13	13.047
357.33	14.367
357.54	13.872
357.75	8.161
357.95	14.210
358.16	11.271
358.37	15.642
358.57	11.211
358.78	15.852
358.99	13.288
359.19	12.357
359.40	14.669
359.61	14.007
359.81	15.007
360.02	16.718
360.23	13.275
360.43	12.896
360.64	15.194
360.85	12.361
361.05	12.242
361.26	17.714
361.47	14.350
361.67	17.441
361.88	11.765
362.09	14.476
362.29	13.629
362.50	13.288
362.70	12.478
362.91	17.532
363.12	14.875
363.32	15.451
363.53	15.536
363.74	18.475
363.94	12.902
364.15	18.664
364.36	17.642
364.56	17.528
364.77	16.582
364.98	20.985
365.18	15.185
365.39	18.450
365.59	15.036
365.80	16.317
366.01	19.089
366.21	15.914
366.42	14.434
366.63	18.345
366.83	16.037
367.04	13.358
367.24	19.892
367.45	15.975
367.66	14.056
367.86	15.184
368.07	16.957
368.28	15.838
368.48	16.220
368.69	15.776
368.89	15.689
369.10	17.632
369.31	15.981
369.51	16.683
369.72	18.537
369.92	19.881
370.13	13.660
370.34	19.317
370.54	11.843
370.75	16.572
370.95	14.925
371.16	17.039
371.37	15.328
371.57	15.659
371.78	16.657
371.98	18.728
372.19	16.588
372.40	19.396
372.60	17.018
372.81	17.635
373.01	14.330
373.22	16.427
373.43	17.503
373.63	17.317
373.84	16.311
374.04	18.669
374.25	16.327
374.46	17.436
374.66	17.043
374.87	18.822
375.07	12.761
375.28	14.951
375.48	16.485
375.69	18.456
375.90	13.097
376.10	16.105
376.31	15.460
376.51	16.038
376.72	14.619
376.92	14.527
377.13	17.449
377.34	17.849
377.54	14.502
377.75	19.398
377.95	15.607
378.16	19.159
378.36	18.111
378.57	18.588
378.77	17.711
378.98	19.769
379.19	16.539
379.39	17.776
379.60	16.551
379.80	16.880
380.01	18.481
380.21	16.684
380.42	18.996
380.62	16.603
380.83	15.900
381.04	16.325
381.24	18.256
381.45	16.263
381.65	14.312
381.86	17.792
382.06	17.647
382.27	15.064
382.47	14.464
382.68	18.757
382.88	14.316
383.09	16.269
383.29	13.489
383.50	18.037
383.71	15.232
383.91	14.700
384.12	14.624
384.32	16.557
384.53	15.108
384.73	14.794
384.94	15.397
385.14	16.671
385.35	13.768
385.55	16.876
385.76	14.971
385.96	16.135
386.17	15.951
386.37	17.117
386.58	15.741
386.78	18.095
386.99	13.837
387.19	18.767
387.40	14.754
387.60	19.132
387.81	13.997
388.01	16.199
388.22	16.147
388.42	17.704
388.63	17.113
388.83	18.908
389.04	14.452
389.24	15.910
389.45	15.711
389.65	15.281
389.86	16.749
390.06	15.508
390.27	14.272
390.47	16.896
390.68	15.906
390.88	17.204
391.09	16.778
391.29	15.435
391.50	14.994
391.70	16.815
391.91	15.549
392.11	15.853
392.32	16.351
392.52	17.144
392.73	16.518
392.93	17.562
393.14	16.425
393.34	16.908
393.55	18.009
393.75	17.865
393.95	16.117
394.16	17.824
394.36	16.290
394.57	17.575
394.77	15.691
394.98	16.242
395.18	16.714
395.39	17.564
395.59	15.907
395.80	17.053
396.00	15.877
396.21	19.327
396.41	15.550
396.61	18.974
396.82	16.521
397.02	19.079
397.23	16.935
397.43	16.960
397.64	14.787
397.84	17.223
398.05	14.801
398.25	17.311
398.45	14.560
398.66	16.808
398.86	16.177
399.07	18.418
399.27	17.151
399.48	18.386
399.68	15.638
399.89	15.823
400.09	16.210
400.29	16.310
400.50	17.427
400.70	17.454
400.91	14.267
401.11	16.752
401.32	16.417
401.52	15.041
401.72	16.327
401.93	17.745
402.13	17.597
402.34	17.783
402.54	14.423
402.75	19.039
402.95	15.861
403.15	17.456
403.36	16.572
403.56	17.134
403.77	14.905
403.97	15.707
404.17	14.178
404.38	16.870
404.58	15.642
404.79	16.455
404.99	16.711
405.19	16.717
405.40	16.095
405.60	17.246
405.81	16.367
406.01	16.637
406.21	15.881
406.42	17.166
406.62	17.155
406.83	16.682
407.03	17.328
407.23	16.150
407.44	15.480
407.64	16.778
407.85	16.690
408.05	17.381
408.25	15.765
408.46	17.286
408.66	15.253
408.87	15.263
409.07	16.454
409.27	14.632
409.48	15.111
409.68	16.537
409.88	14.104
410.09	17.109
410.29	15.725
410.50	16.746
410.70	15.033
410.90	16.960
411.11	15.020
411.31	16.030
411.51	16.465
411.72	17.506
411.92	15.108
412.12	16.335
412.33	16.118
412.53	16.647
412.74	13.871
412.94	17.401
413.14	15.131
413.35	16.551
413.55	15.644
413.75	16.952
413.96	14.092
414.16	16.478
414.36	15.941
414.57	17.137
414.77	13.056
414.97	15.722
415.18	14.061
415.38	15.718
415.58	16.194
415.79	15.484
415.99	15.006
416.19	16.886
416.40	15.848
416.60	16.959
416.80	14.623
417.01	15.674
417.21	14.539
417.41	16.744
417.62	14.950
417.82	17.153
418.02	15.134
418.23	16.065
418.43	15.761
418.63	16.249
418.84	16.228
419.04	15.956
419.24	17.671
419.45	16.481
419.65	16.766
419.85	15.854
420.06	15.255
420.26	16.303
420.46	15.967
420.67	16.450
420.87	16.239
421.07	15.963
421.28	15.843
421.48	16.265
421.68	15.934
421.88	16.083
422.09	15.710
422.29	15.942
422.49	16.563
422.70	15.847
422.90	15.836
423.10	16.765
423.31	16.467
423.51	16.871
423.71	16.272
423.91	16.083
424.12	16.432
424.32	16.209
424.52	16.010
424.73	15.921
424.93	15.650
425.13	16.392
425.33	15.282
425.54	16.280
425.74	15.786
425.94	16.523
426.15	16.191
426.35	16.680
426.55	16.823
426.75	16.550
426.96	16.429
427.16	16.234
427.36	16.512
427.57	16.887
427.77	16.113
427.97	16.529
428.17	16.466
428.38	17.234
428.58	15.143
428.78	16.621
428.98	15.289
429.19	16.168
429.39	15.657
429.59	17.101
429.79	14.864
430.00	15.653
430.20	15.413
430.40	15.163
430.60	14.676
430.81	16.640
431.01	14.272
431.21	15.458
431.41	14.720
431.62	15.634
431.82	15.132
432.02	16.783
432.22	15.167
432.43	15.694
432.63	14.468
432.83	15.837
433.03	14.695
433.24	15.363
433.44	15.386
433.64	16.034
433.84	15.416
434.05	15.919
434.25	14.811
434.45	15.992
434.65	16.061
434.85	16.127
435.06	16.065
435.26	15.571
435.46	16.248
435.66	16.338
435.87	15.696
436.07	16.062
436.27	16.489
436.47	16.134
436.67	15.694
436.88	16.804
437.08	16.249
437.28	15.940
437.48	15.257
437.69	15.792
437.89	16.228
438.09	16.424
438.29	15.187
438.49	17.015
438.70	15.858
438.90	16.281
439.10	15.329
439.30	16.076
439.50	15.358
439.71	15.757
439.91	16.086
440.11	16.317
440.31	16.236
440.51	15.803
440.72	16.056
440.92	15.783
441.12	16.230
441.32	16.750
441.52	15.772
441.72	16.345
441.93	16.429
442.13	16.423
442.33	16.661
442.53	17.769
442.73	16.771
442.94	16.210
443.14	16.748
443.34	17.478
443.54	16.453
443.74	17.156
443.94	16.141
444.15	16.500
444.35	15.822
444.55	16.649
444.75	15.929
444.95	16.073
445.15	16.647
445.36	16.271
445.56	16.411
445.76	16.427
445.96	15.707
446.16	16.223
446.36	16.322
446.57	16.361
446.77	15.564
446.97	16.142
447.17	15.947
447.37	16.046
447.57	16.069
447.77	16.310
447.98	16.388
448.18	16.592
448.38	16.359
448.58	16.769
448.78	17.370
448.98	17.665
449.18	16.955
449.39	17.128
449.59	16.810
449.79	17.794
449.99	16.639
450.19	17.432
450.39	17.089
450.59	17.305
450.79	17.064
451.00	17.033
451.20	18.026
451.40	17.310
451.60	16.485
451.80	17.390
452.00	16.574
452.20	16.752
452.40	17.033
452.61	16.551
452.81	15.940
453.01	16.980
453.21	16.863
453.41	16.854
453.61	16.381
453.81	16.174
454.01	16.447
454.21	17.179
454.42	16.889
454.62	17.501
454.82	16.441
455.02	17.533
455.22	16.421
455.42	16.879
455.62	16.135
455.82	16.480
456.02	16.805
456.23	17.329
456.43	16.955
456.63	17.812
456.83	16.011
457.03	17.097
457.23	16.452
457.43	16.581
457.63	15.726
457.83	17.067
458.03	16.425
458.23	16.380
458.43	16.418
458.64	16.860
458.84	16.426
459.04	16.643
459.24	15.632
459.44	15.890
459.64	15.741
459.84	15.318
460.04	15.369
460.24	15.796
460.44	16.145
460.64	16.000
460.84	16.352
461.04	15.984
461.24	16.641
461.45	16.552
461.65	16.738
461.85	16.590
462.05	16.835
462.25	17.208
462.45	16.936
462.65	16.592
462.85	16.913
463.05	16.914
463.25	17.047
463.45	16.512
463.65	17.025
463.85	17.339
464.05	16.651
464.25	16.827
464.45	16.514
464.65	17.128
464.85	16.187
465.05	17.030
465.26	16.811
465.46	16.985
465.66	17.271
465.86	16.202
466.06	17.193
466.26	16.584
466.46	15.910
466.66	16.335
466.86	16.541
467.06	16.304
467.26	17.012
467.46	16.913
467.66	16.705
467.86	16.770
468.06	15.607
468.26	16.551
468.46	15.912
468.66	16.489
468.86	16.438
469.06	17.222
469.26	17.132
469.46	16.678
469.66	15.890
469.86	17.290
470.06	16.330
470.26	16.976
470.46	16.522
470.66	16.636
470.86	16.380
471.06	16.868
471.26	15.504
471.46	16.814
471.66	17.241
471.86	16.701
472.06	16.081
472.26	17.373
472.46	17.611
472.66	17.200
472.86	16.913
473.06	16.317
473.26	16.250
473.46	16.371
473.66	17.154
473.86	17.520
474.06	16.652
474.26	16.648
474.46	16.167
474.66	17.318
474.86	17.473
475.06	17.518
475.26	16.011
475.46	17.602
475.66	17.778
475.86	17.497
476.06	16.657
476.26	16.655
476.46	16.827
476.66	17.459
476.86	17.476
477.06	17.123
477.26	16.654
477.46	17.294
477.65	16.663
477.85	17.202
478.05	16.598
478.25	17.244
478.45	16.715
478.65	17.094
478.85	17.519
479.05	17.700
479.25	17.349
479.45	18.020
479.65	16.863
479.85	17.652
480.05	17.381
480.25	17.615
480.45	17.048
480.65	17.268
480.85	17.286
481.05	17.466
481.25	16.753
481.44	17.656
481.64	16.415
481.84	16.722
482.04	16.893
482.24	17.653
482.44	16.548
482.64	16.217
482.84	16.954
483.04	16.230
483.24	15.901
483.44	15.129
483.64	15.466
483.84	15.555
484.04	15.775
484.23	16.364
484.43	16.810
484.63	17.976
484.83	18.360
485.03	19.523
485.23	19.209
485.43	19.342
485.63	19.121
485.83	18.276
486.03	17.889
486.23	18.353
486.42	17.879
486.62	17.803
486.82	17.209
487.02	16.732
487.22	16.857
487.42	16.578
487.62	16.558
487.82	16.496
488.02	16.739
488.22	16.565
488.41	16.642
488.61	17.161
488.81	16.931
489.01	17.399
489.21	17.057
489.41	17.571
489.61	17.633
489.81	17.923
490.01	17.829
490.20	17.865
490.40	17.114
490.60	17.701
490.80	17.617
491.00	17.156
491.20	16.890
491.40	16.588
491.60	16.169
491.79	16.195
491.99	16.535
492.19	16.955
492.39	16.980
492.59	16.788
492.79	16.883
492.99	17.200
493.19	17.311
493.38	17.658
493.58	17.986
493.78	17.718
493.98	17.592
494.18	18.375
494.38	18.122
494.58	18.153
494.77	18.394
494.97	17.597
495.17	17.574
495.37	17.522
495.57	17.965
495.77	17.839
495.96	17.917
496.16	17.638
496.36	16.740
496.56	16.707
496.76	17.357
496.96	17.404
497.15	17.447
497.35	17.798
497.55	17.758
497.75	17.780
497.95	17.418
498.15	17.206
498.34	17.210
498.54	18.183
498.74	18.007
498.94	18.894
499.14	17.838
499.34	18.173
499.53	18.284
499.73	18.387
499.93	18.502
500.13	17.653
500.33	17.741
500.52	18.866
500.72	18.786
500.92	18.379
501.12	18.609
501.32	18.383
501.52	18.492
501.71	18.359
501.91	18.767
502.11	18.528
502.31	18.150
502.51	18.208
502.70	18.085
502.90	18.926
503.10	18.412
503.30	18.862
503.50	18.152
503.69	18.345
503.89	17.940
504.09	18.547
504.29	17.905
504.48	18.197
504.68	18.620
504.88	19.085
505.08	18.152
505.28	18.949
505.47	18.740
505.67	18.199
505.87	19.137
506.07	18.967
506.27	18.732
506.46	19.127
506.66	19.488
506.86	19.082
507.06	19.134
507.25	19.322
507.45	18.591
507.65	18.571
507.85	18.860
508.04	18.309
508.24	19.048
508.44	19.118
508.64	19.061
508.83	19.156
509.03	18.769
509.23	19.201
509.43	19.237
509.63	19.993
509.82	19.267
510.02	19.059
510.22	19.044
510.42	19.193
510.61	19.258
510.81	19.179
511.01	19.901
511.21	19.646
511.40	19.537
511.60	19.485
511.80	19.361
511.99	20.023
512.19	19.134
512.39	19.742
512.59	19.329
512.78	20.106
512.98	19.627
513.18	20.290
513.38	19.876
513.57	19.466
513.77	20.088
513.97	20.160
514.17	20.244
514.36	20.564
514.56	20.048
514.76	19.779
514.95	19.292
515.15	20.057
515.35	19.868
515.55	19.909
515.74	20.214
515.94	19.943
516.14	20.395
516.33	20.487
516.53	20.242
516.73	20.532
516.93	20.008
517.12	19.982
517.32	19.394
517.52	19.781
517.71	19.933
517.91	20.283
518.11	19.586
518.30	19.350
518.50	19.287
518.70	19.627
518.90	19.726
519.09	20.247
519.29	19.862
519.49	20.092
519.68	19.764
519.88	19.973
520.08	20.314
520.27	20.931
520.47	20.742
520.67	20.269
520.86	20.702
521.06	20.891
521.26	20.381
521.45	20.257
521.65	20.897
521.85	20.467
522.04	21.088
522.24	20.387
522.44	20.528
522.63	20.485
522.83	20.232
523.03	20.562
523.22	20.735
523.42	20.483
523.62	19.961
523.81	19.804
524.01	20.100
524.21	20.628
524.40	20.397
524.60	20.100
524.80	20.296
524.99	20.316
525.19	20.757
525.39	19.564
525.58	19.681
525.78	19.388
525.98	20.381
526.17	19.412
526.37	19.980
526.57	19.912
526.76	19.484
526.96	20.133
527.15	19.882
527.35	19.688
527.55	19.518
527.74	20.177
527.94	19.515
528.14	19.331
528.33	18.554
528.53	17.938
528.72	18.739
528.92	19.313
529.12	19.300
529.31	19.613
529.51	20.085
529.71	19.797
529.90	19.866
530.10	20.394
530.29	20.453
530.49	20.519
530.69	20.791
530.88	21.337
531.08	20.996
531.28	20.842
531.47	20.615
531.67	19.997
531.86	19.901
532.06	19.833
532.26	19.581
532.45	20.179
532.65	19.523
532.84	19.475
533.04	18.647
533.24	19.116
533.43	18.660
533.63	19.278
533.82	19.712
534.02	19.952
534.22	19.702
534.41	19.849
534.61	19.488
534.80	20.267
535.00	19.859
535.19	20.523
535.39	20.639
535.59	20.510
535.78	20.610
535.98	20.093
536.17	19.885
536.37	19.070
536.57	19.607
536.76	19.457
536.96	19.457
537.15	19.881
537.35	19.424
537.54	19.789
537.74	19.469
537.93	19.928
538.13	19.764
538.33	20.239
538.52	20.701
538.72	20.960
538.91	20.769
539.11	20.361
539.30	20.457
539.50	20.200
539.70	20.019
539.89	20.011
540.09	19.352
540.28	19.626
540.48	19.950
540.67	19.176
540.87	19.479
541.06	19.357
541.26	18.786
541.45	19.506
541.65	18.835
541.85	19.305
542.04	19.406
542.24	19.896
542.43	20.052
542.63	19.864
542.82	20.260
543.02	20.002
543.21	20.096
543.41	20.689
543.60	20.762
543.80	20.416
543.99	20.417
544.19	20.360
544.38	20.720
544.58	20.780
544.77	20.385
544.97	21.033
545.16	21.205
545.36	20.535
545.56	20.697
545.75	20.609
545.95	19.896
546.14	20.506
546.34	20.339
546.53	19.924
546.73	19.985
546.92	20.429
547.12	20.059
547.31	20.932
547.51	20.300
547.70	20.210
547.90	20.237
548.09	20.571
548.29	20.240
548.48	20.619
548.68	20.612
548.87	21.038
549.07	20.849
549.26	21.627
549.46	21.528
549.65	21.654
549.84	22.045
550.04	21.587
550.23	21.737
550.43	21.082
550.62	21.458
550.82	20.715
551.01	21.305
551.21	21.102
551.40	21.131
551.60	22.068
551.79	21.106
551.99	21.160
552.18	20.425
552.38	21.423
552.57	21.435
552.77	21.069
552.96	22.012
553.16	20.696
553.35	21.034
553.54	20.792
553.74	20.615
553.93	21.187
554.13	20.654
554.32	21.346
554.52	22.006
554.71	22.039
554.91	21.802
555.10	21.465
555.29	21.750
555.49	21.319
555.68	22.105
555.88	20.968
556.07	20.454
556.27	21.249
556.46	21.934
556.66	21.805
556.85	21.460
557.04	21.537
557.24	21.387
557.43	21.274
557.63	21.949
557.82	21.124
558.02	22.145
558.21	21.437
558.40	21.239
558.60	20.962
558.79	21.302
558.99	21.248
559.18	21.714
559.38	20.957
559.57	20.884
559.76	20.928
559.96	20.904
560.15	21.211
560.35	20.790
560.54	21.110
560.73	19.989
560.93	20.970
561.12	20.656
561.32	20.633
561.51	20.279
561.70	21.183
561.90	20.919
562.09	20.874
562.29	20.063
562.48	20.479
562.67	20.950
562.87	22.249
563.06	20.876
563.26	20.757
563.45	19.830
563.64	21.104
563.84	21.595
564.03	20.577
564.23	19.963
564.42	21.082
564.61	20.871
564.81	19.793
565.00	19.863
565.20	20.334
565.39	19.848
565.58	19.600
565.78	18.865
565.97	19.519
566.16	20.265
566.36	19.742
566.55	19.613
566.74	19.428
566.94	19.304
567.13	19.578
567.33	19.349
567.52	19.646
567.71	20.008
567.91	19.661
568.10	20.011
568.29	20.131
568.49	19.658
568.68	20.236
568.87	20.002
569.07	20.555
569.26	19.004
569.45	20.397
569.65	19.470
569.84	19.003
570.04	19.232
570.23	19.039
570.42	19.169
570.62	19.204
570.81	18.342
571.00	18.845
571.20	18.564
571.39	18.448
571.58	17.781
571.78	18.604
571.97	18.341
572.16	18.468
572.36	17.564
572.55	18.260
572.74	18.121
572.94	17.874
573.13	17.657
573.32	18.162
573.51	18.122
573.71	18.006
573.90	18.429
574.09	18.497
574.29	18.823
574.48	17.906
574.67	17.740
574.87	18.162
575.06	18.041
575.25	17.331
575.45	17.511
575.64	17.870
575.83	18.117
576.03	19.391
576.22	18.303
576.41	17.971
576.60	17.289
576.80	17.886
576.99	18.168
577.18	18.350
577.38	17.511
577.57	17.786
577.76	18.161
577.95	17.980
578.15	17.612
578.34	17.857
578.53	17.928
578.73	18.471
578.92	17.664
579.11	16.823
579.30	17.244
579.50	17.507
579.69	17.009
579.88	18.610
580.08	16.786
580.27	17.282
580.46	17.779
580.65	17.871
580.85	19.047
581.04	17.820
581.23	17.882
581.42	16.833
581.62	17.253
581.81	18.205
582.00	16.986
582.19	18.519
582.39	17.970
582.58	17.128
582.77	17.818
582.96	17.887
583.16	17.121
583.35	16.926
583.54	18.122
583.73	17.411
583.93	16.902
584.12	17.611
584.31	16.544
584.50	17.680
584.70	17.459
584.89	17.823
585.08	16.861
585.27	17.376
585.47	17.894
585.66	18.048
585.85	17.170
586.04	17.959
586.24	18.074
586.43	17.359
586.62	17.186
586.81	18.170
587.00	17.998
587.20	16.995
587.39	17.251
587.58	17.620
587.77	18.534
587.97	17.326
588.16	17.555
588.35	18.582
588.54	17.198
588.73	17.646
588.93	17.652
589.12	18.811
589.31	17.851
589.50	17.565
589.69	18.957
589.89	18.853
590.08	18.292
590.27	18.345
590.46	18.152
590.65	18.755
590.85	18.100
591.04	19.130
591.23	17.959
591.42	18.636
591.61	17.829
591.81	18.355
592.00	19.514
592.19	19.415
592.38	19.346
592.57	19.873
592.77	18.953
592.96	19.558
593.15	20.333
593.34	20.721
593.53	18.967
593.72	19.375
593.92	17.659
594.11	20.829
594.30	19.446
594.49	20.053
594.68	20.331
594.87	21.159
595.07	19.509
595.26	20.247
595.45	20.822
595.64	20.663
595.83	20.573
596.02	20.113
596.22	19.896
596.41	20.238
596.60	21.058
596.79	21.282
596.98	21.013
597.17	21.454
597.37	21.705
597.56	21.506
597.75	20.848
597.94	20.873
598.13	21.860
598.32	21.554
598.51	22.944
598.71	22.394
598.90	21.847
599.09	22.504
599.28	22.593
599.47	21.897
599.66	22.416
599.85	23.558
600.05	22.605
600.24	23.650
600.43	23.995
600.62	23.590
600.81	22.568
601.00	24.170
601.19	24.554
601.38	24.631
601.58	25.090
601.77	23.973
601.96	24.527
602.15	25.179
602.34	24.453
602.53	25.437
602.72	24.252
602.91	24.394
603.10	25.359
603.30	25.486
603.49	24.146
603.68	26.175
603.87	25.121
604.06	25.446
604.25	24.083
604.44	25.515
604.63	25.198
604.82	26.042
605.01	26.784
605.21	26.225
605.40	26.283
605.59	26.510
605.78	25.399
605.97	26.888
606.16	27.140
606.35	27.039
606.54	27.954
606.73	27.174
606.92	27.647
607.11	29.074
607.30	28.207
607.50	27.887
607.69	27.904
607.88	28.287
608.07	28.439
608.26	29.250
608.45	27.738
608.64	28.530
608.83	28.852
609.02	27.844
609.21	28.960
609.40	28.297
609.59	28.835
609.78	28.183
609.97	29.278
610.16	29.081
610.35	29.596
610.55	29.257
610.74	28.688
610.93	29.926
611.12	28.733
611.31	29.667
611.50	29.834
611.69	29.484
611.88	29.987
612.07	30.025
612.26	30.241
612.45	30.466
612.64	29.012
612.83	30.504
613.02	29.529
613.21	29.531
613.40	31.763
613.59	29.996
613.78	31.076
613.97	30.339
614.16	29.247
614.35	29.955
614.54	31.208
614.73	30.836
614.92	31.772
615.11	30.560
615.30	32.400
615.49	30.660
615.68	31.630
615.87	31.032
616.07	30.064
616.26	31.076
616.45	29.990
616.64	30.949
616.83	31.251
617.02	32.695
617.21	30.234
617.40	30.646
617.59	30.297
617.78	29.680
617.97	34.070
618.16	31.481
618.35	30.633
618.54	31.549
618.73	32.282
618.92	31.826
619.11	31.960
619.30	30.990
619.49	32.510
619.68	29.961
619.86	32.431
620.05	32.061
620.24	30.301
620.43	32.659
620.62	31.890
620.81	31.357
621.00	31.190
621.19	31.857
621.38	30.612
621.57	31.520
621.76	31.326
621.95	32.078
622.14	30.341
622.33	31.518
622.52	32.069
622.71	32.519
622.90	32.135
623.09	31.717
623.28	32.772
623.47	32.466
623.66	31.496
623.85	32.319
624.04	30.882
624.23	32.230
624.42	32.262
624.61	31.678
624.80	32.352
624.99	33.857
625.18	30.663
625.36	31.210
625.55	30.734
625.74	32.443
625.93	31.308
626.12	31.133
626.31	31.539
626.50	30.557
626.69	32.794
626.88	31.975
627.07	31.770
627.26	31.153
627.45	31.447
627.64	30.625
627.83	31.002
628.02	31.904
628.20	32.171
628.39	31.596
628.58	31.686
628.77	32.189
628.96	31.454
629.15	30.712
629.34	30.888
629.53	32.934
629.72	30.934
629.91	31.932
630.10	32.887
630.29	31.498
630.47	31.745
630.66	31.237
630.85	31.954
631.04	31.245
631.23	30.971
631.42	31.418
631.61	31.982
631.80	31.830
631.99	30.954
632.18	32.087
632.36	31.959
632.55	32.380
632.74	31.506
632.93	31.233
633.12	31.719
633.31	31.410
633.50	31.475
633.69	32.410
633.88	30.762
634.06	31.944
634.25	31.643
634.44	31.836
634.63	31.832
634.82	30.984
635.01	30.035
635.20	31.384
635.39	30.842
635.57	33.175
635.76	31.702
635.95	30.430
636.14	30.766
636.33	32.459
636.52	31.093
636.71	31.062
636.89	32.131
637.08	31.116
637.27	31.598
637.46	31.949
637.65	32.586
637.84	32.725
638.03	32.495
638.21	32.022
638.40	30.458
638.59	32.968
638.78	30.715
638.97	31.639
639.16	33.200
639.34	32.050
639.53	32.753
639.72	33.737
639.91	31.388
640.10	32.316
640.29	32.338
640.47	33.293
640.66	32.929
640.85	32.070
641.04	32.495
641.23	32.558
641.42	32.289
641.60	31.583
641.79	31.444
641.98	32.711
642.17	31.509
642.36	32.571
642.54	32.043
642.73	30.928
642.92	31.540
643.11	33.096
643.30	30.135
643.49	32.467
643.67	31.799
643.86	32.893
644.05	32.256
644.24	30.945
644.43	33.081
644.61	33.733
644.80	33.843
644.99	31.985
645.18	32.058
645.37	32.040
645.55	31.403
645.74	31.454
645.93	31.109
646.12	31.862
646.31	32.866
646.49	32.137
646.68	33.158
646.87	32.637
647.06	30.679
647.24	31.393
647.43	30.412
647.62	33.107
647.81	31.168
648.00	32.383
648.18	30.282
648.37	31.427
648.56	30.641
648.75	32.605
648.93	30.735
649.12	29.904
649.31	29.507
649.50	30.658
649.68	32.250
649.87	31.779
650.06	31.148
650.25	31.764
650.43	31.939
650.62	30.575
650.81	30.625
651.00	32.187
651.18	31.200
651.37	33.818
651.56	30.410
651.75	33.755
651.93	31.907
652.12	32.729
652.31	32.287
652.50	32.588
652.68	30.872
652.87	33.600
653.06	30.874
653.25	31.444
653.43	30.051
653.62	30.906
653.81	31.410
654.00	33.316
654.18	30.946
654.37	31.918
654.56	31.780
654.74	32.429
654.93	29.855
655.12	32.377
655.31	30.089
655.49	30.776
655.68	28.669
655.87	30.251
656.05	29.691
656.24	29.616
656.43	29.043
656.62	30.064
656.80	30.136
656.99	31.094
657.18	29.407
657.36	28.666
657.55	28.351
657.74	29.650
657.93	28.452
658.11	30.364
658.30	29.049
658.49	27.723
658.67	26.425
658.86	28.406
659.05	28.113
659.23	28.562
659.42	27.808
659.61	27.340
659.79	27.471
659.98	27.950
660.17	26.874
660.35	27.190
660.54	27.992
660.73	28.046
660.91	27.898
661.10	28.192
661.29	26.986
661.47	27.148
661.66	25.696
661.85	27.708
662.03	25.180
662.22	25.937
662.41	23.674
662.59	24.677
662.78	23.760
662.97	26.371
663.15	22.122
663.34	23.819
663.53	21.923
663.71	24.803
663.90	23.567
664.09	24.070
664.27	23.957
664.46	24.750
664.65	22.065
664.83	20.123
665.02	21.535
665.21	22.850
665.39	20.221
665.58	22.258
665.77	21.235
665.95	24.162
666.14	22.179
666.32	24.797
666.51	22.013
666.70	20.123
666.88	20.946
667.07	24.059
667.26	20.603
667.44	22.349
667.63	19.719
667.81	18.584
668.00	19.295
668.19	23.346
668.37	21.043
668.56	23.818
668.75	19.447
668.93	22.575
669.12	20.062
669.30	22.023
669.49	18.625
669.68	20.153
669.86	21.405
670.05	20.086
670.23	19.429
670.42	20.703
670.61	21.420
670.79	20.866
670.98	20.446
671.16	21.036
671.35	19.241
671.54	20.532
671.72	19.720
671.91	18.972
672.09	18.529
672.28	21.529
672.46	20.902
672.65	21.735
672.84	21.635
673.02	19.436
673.21	17.935
673.39	18.953
673.58	21.250
673.77	20.013
673.95	20.089
674.14	20.498
674.32	19.224
674.51	22.447
674.69	17.621
674.88	20.114
675.07	17.649
675.25	22.597
675.44	19.993
675.62	21.020
675.81	19.094
675.99	26.624
676.18	22.841
676.36	19.236
676.55	17.857
676.74	23.090
676.92	21.088
677.11	20.395
677.29	19.846
677.48	24.384
677.66	20.809
677.85	22.129
678.03	19.623
678.22	24.685
678.40	22.130
678.59	21.264
678.78	20.477
678.96	20.807
679.15	21.728
679.33	22.850
679.52	22.958
679.70	23.718
679.89	22.199
680.07	24.482
680.26	20.779
680.44	21.131
680.63	23.958
680.81	23.147
681.00	20.292
681.18	23.918
681.37	22.694
681.55	23.213
681.74	23.537
681.92	24.605
682.11	23.196
682.29	22.487
682.48	24.187
682.66	25.190
682.85	22.597
683.03	26.770
683.22	24.531
683.40	26.925
683.59	22.866
683.77	27.876
683.96	23.310
684.14	28.100
684.33	23.002
684.51	28.251
684.70	23.388
684.88	27.500
685.07	26.063
685.25	27.133
685.44	25.752
685.62	27.809
685.81	25.574
685.99	29.294
686.18	25.704
686.36	28.989
686.55	26.242
686.73	27.908
686.92	29.109
687.10	30.717
687.29	29.563
687.47	31.996
687.65	32.045
687.84	29.748
688.02	32.496
688.21	32.721
688.39	29.738
688.58	34.491
688.76	30.712
688.95	34.700
689.13	30.987
689.32	34.962
689.50	33.085
689.68	35.627
689.87	33.241
690.05	34.479
690.24	31.506
690.42	35.649
690.61	34.324
690.79	38.736
690.98	36.435
691.16	36.905
691.34	33.547
691.53	38.695
691.71	37.029
691.90	39.532
692.08	39.849
692.27	40.444
692.45	41.072
692.63	41.365
692.82	40.813
693.00	41.061
693.19	40.187
693.37	42.050
693.56	41.965
693.74	43.915
693.92	43.811
694.11	45.370
694.29	45.523
694.48	49.773
694.66	46.147
694.84	49.339
695.03	43.028
695.21	46.749
695.40	49.224
695.58	50.633
695.76	48.497
695.95	48.764
696.13	49.979
696.32	50.503
696.50	52.433
696.68	50.101
696.87	50.272
697.05	50.200
697.24	51.822
697.42	49.904
697.60	51.186
697.79	52.452
697.97	52.847
698.16	51.833
698.34	50.389
698.52	51.616
698.71	51.417
698.89	51.445
699.07	53.004
699.26	50.013
699.44	52.345
699.63	53.990
699.81	50.483
699.99	52.611
700.18	52.227
700.36	55.544
700.54	55.291
700.73	54.476
700.91	53.457
701.09	55.320
701.28	56.856
701.46	55.371
701.64	55.272
701.83	56.844
702.01	56.699
702.20	60.317
702.38	56.941
702.56	58.660
702.75	62.159
702.93	59.417
703.11	61.333
703.30	59.204
703.48	58.831
703.66	63.976
703.85	62.008
704.03	63.271
704.21	61.238
704.40	63.712
704.58	60.341
704.76	65.499
704.95	63.466
705.13	63.866
705.31	61.637
705.50	68.557
705.68	67.005
705.86	65.740
706.04	62.390
706.23	64.584
706.41	68.564
706.59	62.275
706.78	66.469
706.96	67.821
707.14	64.735
707.33	61.807
707.51	65.184
707.69	64.842
707.88	65.050
708.06	65.914
708.24	66.164
708.42	67.231
708.61	66.098
708.79	65.901
708.97	71.083
709.16	68.628
709.34	68.434
709.52	65.769
709.71	64.502
709.89	66.465
710.07	67.049
710.25	67.461
710.44	66.745
710.62	68.368
710.80	68.309
710.98	66.186
711.17	65.773
711.35	63.717
711.53	65.121
711.72	68.477
711.90	68.999
712.08	67.837
712.26	67.500
712.45	67.839
712.63	68.797
712.81	66.623
712.99	67.516
713.18	69.180
713.36	67.015
713.54	69.136
713.72	67.405
713.91	64.727
714.09	69.319
714.27	66.901
714.45	71.382
714.64	66.988
714.82	69.394
715.00	67.045
715.18	67.288
715.37	70.895
715.55	66.577
715.73	73.409
715.91	66.106
716.10	66.623
716.28	65.475
716.46	68.465
716.64	67.966
716.83	73.137
717.01	70.800
717.19	64.756
717.37	69.668
717.55	68.764
717.74	68.985
717.92	68.096
718.10	66.904
718.28	71.028
718.47	67.727
718.65	72.419
718.83	67.354
719.01	71.644
719.19	70.501
719.38	66.632
719.56	70.531
719.74	69.425
719.92	68.546
720.10	72.774
720.29	72.827
720.47	70.708
720.65	74.985
720.83	73.163
721.01	69.542
721.20	67.777
721.38	72.661
721.56	74.338
721.74	70.357
721.92	76.474
722.11	73.841
722.29	74.729
722.47	78.984
722.65	76.067
722.83	73.678
723.01	73.501
723.20	75.608
723.38	72.433
723.56	75.638
723.74	74.873
723.92	71.033
724.10	74.556
724.29	73.059
724.47	73.304
724.65	77.100
724.83	76.707
725.01	71.392
725.19	77.134
725.38	68.421
725.56	74.093
725.74	73.240
725.92	74.350
726.10	77.475
726.28	71.575
726.46	72.412
726.65	75.623
726.83	75.664
727.01	79.352
727.19	68.957
727.37	74.734
727.55	73.656
727.73	72.573
727.92	74.507
728.10	73.775
728.28	78.211
728.46	74.576
728.64	77.355
728.82	73.672
729.00	73.970
729.19	72.080
729.37	78.081
729.55	77.029
729.73	72.456
729.91	76.978
730.09	75.743
730.27	73.194
730.45	70.351
730.63	70.579
730.82	76.059
731.00	72.332
731.18	73.708
731.36	72.470
731.54	73.241
731.72	75.710
731.90	73.796
732.08	76.669
732.26	73.963
732.45	76.351
732.63	78.806
732.81	75.966
732.99	76.932
733.17	79.921
733.35	73.847
733.53	73.499
733.71	73.904
733.89	74.250
734.07	79.731
734.25	73.903
734.44	78.477
734.62	75.239
734.80	75.844
734.98	78.158
735.16	79.376
735.34	76.862
735.52	79.319
735.70	79.406
735.88	77.894
736.06	74.952
736.24	82.536
736.42	77.785
736.60	80.177
736.78	81.855
736.97	80.949
737.15	83.767
737.33	80.314
737.51	79.655
737.69	81.095
737.87	80.791
738.05	82.771
738.23	80.530
738.41	83.486
738.59	81.051
738.77	82.120
738.95	82.599
739.13	76.826
739.31	84.310
739.49	84.477
739.67	77.590
739.85	79.284
740.03	79.402
740.21	82.431
740.39	81.319
740.57	82.202
740.75	77.955
740.93	82.136
741.11	83.239
741.30	84.436
741.48	92.051
741.66	77.699
741.84	83.905
742.02	78.903
742.20	83.282
742.38	84.365
742.56	85.820
742.74	85.571
742.92	82.695
743.10	82.267
743.28	85.200
743.46	80.560
743.64	84.967
743.82	88.918
744.00	87.319
744.18	82.764
744.36	87.188
744.54	86.945
744.72	86.998
744.90	97.049
745.08	92.112
745.26	82.074
745.44	91.245
745.62	85.891
745.80	80.227
745.98	85.027
746.16	90.105
746.34	92.659
746.52	89.725
746.70	88.899
746.87	81.614
747.05	80.830
747.23	87.434
747.41	87.744
747.59	87.997
747.77	85.202
747.95	93.780
748.13	85.892
748.31	88.826
748.49	85.976
748.67	90.137
748.85	87.343
749.03	91.347
749.21	88.040
749.39	87.907
749.57	84.583
749.75	88.692
749.93	92.792
750.11	81.741
750.29	83.291
750.47	89.166
750.65	87.589
750.83	91.747
751.01	80.394
751.18	87.924
751.36	85.389
751.54	85.467
751.72	80.522
751.90	85.299
752.08	89.132
752.26	84.726
752.44	87.941
752.62	88.833
752.80	85.129
752.98	83.471
753.16	85.481
753.34	87.702
753.52	86.606
753.69	88.505
753.87	88.458
754.05	86.995
754.23	87.957
754.41	84.859
754.59	83.526
754.77	89.187
754.95	88.215
755.13	87.921
755.31	84.828
755.49	88.992
755.66	89.050
755.84	83.660
756.02	89.474
756.20	88.276
756.38	86.339
756.56	88.803
756.74	86.104
756.92	86.348
757.10	86.239
757.28	97.206
757.45	89.706
757.63	84.405
757.81	90.672
757.99	94.865
758.17	85.381
758.35	85.860
758.53	88.076
758.71	85.727
758.88	82.099
759.06	85.445
759.24	81.327
759.42	84.536
759.60	80.157
759.78	82.812
759.96	72.871
760.13	77.133
760.31	71.758
760.49	75.322
760.67	66.493
760.85	64.736
761.03	63.607
761.21	73.143
761.38	60.017
761.56	74.679
761.74	64.105
761.92	71.465
762.10	70.782
762.28	70.546
762.46	65.181
762.63	68.171
762.81	68.484
762.99	68.939
763.17	63.227
763.35	69.850
763.53	70.889
763.70	70.555
763.88	67.866
764.06	67.338
764.24	64.362
764.42	70.522
764.60	67.233
764.77	67.480
764.95	63.402
765.13	72.782
765.31	72.436
765.49	67.914
765.66	71.968
765.84	72.171
766.02	73.133
766.20	78.133
766.38	73.290
766.56	73.876
766.73	72.620
766.91	83.891
767.09	75.243
767.27	79.569
767.45	76.828
767.62	77.422
767.80	76.808
767.98	86.596
768.16	79.930
768.33	86.124
768.51	85.424
768.69	82.653
768.87	85.359
769.05	86.772
769.22	93.927
769.40	89.687
769.58	89.360
769.76	89.168
769.94	87.938
770.11	87.124
770.29	89.456
770.47	91.422
770.65	91.694
770.82	93.991
771.00	91.265
771.18	94.346
771.36	90.821
771.53	90.795
771.71	92.619
771.89	90.091
772.07	89.623
772.25	101.476
772.42	93.728
772.60	101.316
772.78	93.017
772.96	93.706
773.13	89.930
773.31	94.737
773.49	95.269
773.67	97.378
773.84	93.077
774.02	93.936
774.20	84.439
774.37	90.837
774.55	103.542
774.73	100.661
774.91	88.457
775.08	94.987
775.26	101.889
775.44	103.444
775.62	103.324
775.79	91.797
775.97	98.194
776.15	96.174
776.32	97.432
776.50	95.208
776.68	97.365
776.86	103.000
777.03	94.407
777.21	96.644
777.39	96.343
777.56	97.619
777.74	100.686
777.92	107.023
778.10	96.862
778.27	99.466
778.45	96.117
778.63	99.861
778.80	98.231
778.98	103.634
779.16	100.541
779.34	93.487
779.51	93.901
779.69	94.722
779.87	94.071
780.04	91.870
780.22	97.425
780.40	95.714
780.57	90.119
780.75	89.765
780.93	89.704
781.10	103.164
781.28	104.949
781.46	89.256
781.63	107.278
781.81	100.425
781.99	100.426
782.16	94.752
782.34	96.708
782.52	108.307
782.69	91.656
782.87	98.135
783.05	96.731
783.22	94.653
783.40	101.205
783.58	105.701
783.75	98.048
783.93	98.883
784.11	96.000
784.28	95.770
784.46	93.665
784.64	105.854
784.81	95.812
784.99	103.190
785.17	93.390
785.34	97.412
785.52	92.925
785.69	100.303
785.87	105.008
786.05	97.340
786.22	94.569
786.40	108.278
786.58	97.651
786.75	102.751
786.93	97.738
787.11	103.317
787.28	104.506
787.46	101.692
787.63	99.683
787.81	97.810
787.99	92.422
788.16	92.970
788.34	89.640
788.51	94.898
788.69	83.602
788.87	87.308
789.04	88.131
789.22	87.072
789.39	86.827
789.57	91.604
789.75	96.016
789.92	98.762
790.10	83.740
790.27	96.122
790.45	89.096
790.63	89.400
790.80	81.100
790.98	103.758
791.15	97.104
791.33	82.077
791.51	98.553
791.68	96.207
791.86	86.350
792.03	91.543
792.21	87.849
792.39	89.683
792.56	90.610
792.74	94.961
792.91	91.523
793.09	91.085
793.26	97.778
793.44	95.545
793.62	87.362
793.79	93.610
793.97	94.301
794.14	102.883
794.32	98.770
794.49	102.041
794.67	89.316
794.84	93.312
795.02	94.867
795.20	100.182
795.37	89.492
795.55	93.237
795.72	88.273
795.90	101.180
796.07	85.880
796.25	92.901
796.42	94.318
796.60	90.516
796.77	81.933
796.95	94.825
797.13	78.387
797.30	87.270
797.48	84.164
797.65	83.936
797.83	79.580
798.00	96.640
798.18	87.241
798.35	86.998
798.53	85.586
798.70	98.981
798.88	87.344
799.05	84.064
799.23	83.051
799.40	95.862
799.58	89.003
799.75	90.924
799.93	77.409
800.10	83.038
800.28	95.833
800.45	82.938
800.63	84.673
800.80	92.844
800.98	96.260
801.15	92.055
801.33	88.967
801.50	93.496
801.68	90.128
801.85	85.512
802.03	96.832
802.20	89.601
802.38	87.543
802.55	94.159
802.73	90.385
802.90	94.608
803.08	81.767
803.25	101.141
803.43	96.642
803.60	106.055
803.78	91.800
803.95	92.960
804.13	92.759
804.30	106.770
804.48	87.791
804.65	91.194
804.83	94.056
805.00	85.053
805.17	90.239
805.35	100.196
805.52	90.303
805.70	87.326
805.87	99.796
806.05	91.376
806.22	92.668
806.40	93.860
806.57	90.055
806.75	88.850
806.92	82.137
807.09	93.981
807.27	79.070
807.44	94.129
807.62	90.943
807.79	78.224
807.97	93.809
808.14	89.273
808.31	80.550
808.49	85.387
808.66	83.026
808.84	101.220
809.01	84.270
809.19	99.609
809.36	92.224
809.53	97.260
809.71	90.060
809.88	99.790
810.06	92.944
810.23	91.739
810.41	92.623
810.58	99.248
810.75	86.592
810.93	96.667
811.10	79.331
811.28	82.869
811.45	90.888
811.62	90.308
811.80	93.833
811.97	100.682
812.15	81.489
812.32	82.889
812.49	92.736
812.67	85.345
812.84	92.360
813.02	94.033
813.19	73.600
813.36	86.985
813.54	90.196
813.71	87.473
813.89	92.252
814.06	95.712
814.23	88.889
814.41	95.718
814.58	95.319
814.75	87.992
814.93	81.614
815.10	96.339
815.28	84.019
815.45	95.192
815.62	86.728
815.80	80.580
815.97	83.034
816.14	97.716
816.32	75.647
816.49	81.612
816.66	86.141
816.84	79.755
817.01	93.571
817.18	84.842
817.36	83.709
817.53	86.005
817.71	73.882
817.88	97.375
818.05	73.759
818.23	76.181
818.40	73.662
818.57	86.517
818.75	86.620
818.92	89.823
819.09	67.050
819.27	82.988
819.44	77.899
819.61	76.113
819.79	80.000
819.96	83.333
820.13	74.576
820.31	70.654
820.48	86.535
820.65	81.290
820.82	69.512
821.00	74.022
821.17	58.965
821.34	70.175
821.52	68.192
821.69	66.667
821.86	68.267
822.04	69.841
822.21	63.997
822.38	65.115
822.56	61.888
822.73	65.019
822.90	64.901
823.07	63.640
823.25	61.650
823.42	63.151
823.59	62.260
823.77	57.447
823.94	61.833
824.11	61.929
824.29	60.493
824.46	60.138
824.63	64.034
824.80	65.806
824.98	64.451
825.15	61.398
825.32	61.391
825.49	66.912
825.67	65.872
825.84	66.260
826.01	59.726
826.19	67.032
826.36	61.923
826.53	67.885
826.70	65.427
826.88	73.735
827.05	64.098
827.22	66.983
827.39	66.667
827.57	67.040
827.74	62.227
827.91	65.811
828.08	64.521
828.26	68.025
828.43	58.868
828.60	64.717
828.77	61.092
828.95	64.310
829.12	58.023
829.29	61.032
829.46	59.983
829.64	64.030
829.81	54.764
829.98	66.484
830.15	60.571
830.32	55.709
830.50	66.502
830.67	64.953
830.84	59.284
831.01	72.129
831.19	73.704
831.36	69.512
831.53	77.694
831.70	74.427
831.87	79.482
832.05	91.697
832.22	86.383
832.39	79.431
832.56	77.657
832.74	71.933
832.91	66.281
833.08	78.520
833.25	58.564
833.42	73.806
833.60	67.652
833.77	60.432
833.94	61.261
834.11	67.705
834.28	60.073
834.45	65.198
834.63	61.998
834.80	67.895
834.97	61.422
835.14	66.599
835.31	66.066
835.49	61.332
835.66	54.128
835.83	61.868
836.00	67.019
836.17	70.142
836.34	61.015
836.52	69.487
836.69	74.398
836.86	70.234
837.03	74.911
837.20	71.780
837.37	66.722
837.55	64.272
837.72	70.577
837.89	78.348
838.06	72.222
838.23	90.316
838.40	74.699
838.58	72.811
838.75	81.595
838.92	81.449
839.09	101.582
839.26	101.127
839.43	115.625
839.60	117.363
839.78	105.280
839.95	85.417
840.12	88.889
840.29	89.197
840.46	96.573
840.63	84.488
840.80	88.391
840.98	104.132
841.15	79.188
841.32	95.251
841.49	79.890
841.66	76.757
841.83	79.433
842.00	88.102
842.17	94.413
842.34	92.201
842.52	82.424
842.69	95.886
842.86	99.267
843.03	106.109
843.20	98.847
843.37	105.556
843.54	88.737
843.71	114.167
843.88	106.204
844.06	136.864
844.23	134.322
844.40	119.915
844.57	101.240
844.74	116.379
844.91	130.348
845.08	128.814
845.25	138.298
845.42	140.223
845.59	122.541
845.76	122.043
845.94	149.444
846.11	133.663
846.28	108.367
846.45	128.495
846.62	132.000
846.79	105.063
846.96	125.824
847.13	127.174
847.30	144.068
847.47	127.835
847.64	112.653
847.81	169.853
847.98	130.270
848.15	141.341
848.32	139.378
848.50	116.500
848.67	104.734
848.84	133.136
849.01	148.201
849.18	149.412
849.35	140.476
849.52	112.698
849.69	131.319
849.86	175.676
850.03	175.207
850.20	156.667
850.37	130.588
850.54	147.340
850.71	133.333
850.88	155.484
851.05	144.022
851.22	145.783
851.39	148.663
851.56	194.828
851.73	164.881
851.90	124.837
852.07	137.427
852.24	154.902
852.41	124.873
852.58	131.694
852.75	116.860
852.92	134.807
853.09	170.588
853.26	165.359
853.43	124.118
853.60	149.660
853.77	141.341
853.94	167.257
854.11	146.667
854.28	192.361
854.45	175.325
854.62	148.837
854.79	151.515
854.96	170.833
855.13	167.925
855.30	156.204
855.47	179.032
855.64	131.677
855.81	174.820
855.98	171.756
856.15	170.769
856.32	120.379
856.49	136.723
856.66	127.564
856.83	133.962
857.00	158.197
857.17	167.742
857.34	133.152
857.51	178.169
857.68	122.959
857.85	157.647
858.02	153.061
858.19	111.602
858.36	178.161
858.53	144.970
858.70	140.659
858.87	180.000
859.04	165.882
859.21	148.485
859.38	142.857
859.55	149.432
859.72	134.028
859.89	149.650
860.05	174.820
860.22	164.242
860.39	218.103
860.56	174.405
860.73	168.452
860.90	136.527
861.07	147.500
861.24	132.353
861.41	148.555
861.58	135.714
861.75	149.606
861.92	133.125
862.09	132.663
862.26	147.742
862.43	155.333
862.59	129.605
862.76	148.187
862.93	184.615
863.10	177.206
863.27	151.538
863.44	159.350
863.61	126.812
863.78	144.385
863.95	166.463
864.12	239.744
864.29	185.593
864.45	130.818
864.62	156.098
864.79	143.529
864.96	240.385
865.13	172.993
865.30	196.939
865.47	173.103
865.64	140.559
865.81	185.088
865.97	91.824
866.14	122.995
866.31	154.918
866.48	145.775
866.65	146.012
866.82	175.839
866.99	157.857
867.16	155.039
867.33	141.844
867.49	116.265
867.66	177.612
867.83	107.143
868.00	140.860
868.17	174.809
868.34	176.378
868.51	149.296
868.67	144.643
868.84	148.889
869.01	149.655
869.18	173.600
869.35	134.043
869.52	170.803
869.69	153.731
869.85	136.486
870.02	142.391
870.19	173.846
870.36	164.029
870.53	215.476
870.70	188.393
870.86	130.519
871.03	142.336
871.20	184.034
871.37	138.462
871.54	143.396
871.71	147.727
871.87	207.216
872.04	110.000
872.21	178.788
872.38	233.735
872.55	180.000
872.72	134.783
872.88	175.833
873.05	110.160
873.22	152.500
873.39	121.951
873.56	129.496
873.72	145.304
873.89	152.229
874.06	144.262
874.23	184.783
874.40	136.800
874.56	175.000
874.73	175.833
874.90	133.562
875.07	145.038
875.24	148.171
875.40	156.250
875.57	146.825
875.74	150.625
875.91	181.746
876.08	142.143
876.24	136.538
876.41	188.722
876.58	148.905
876.75	145.806
876.92	210.256
877.08	142.336
877.25	121.429
877.42	146.923
877.59	134.940
877.75	118.396
877.92	104.651
878.09	140.789
878.26	180.137
878.42	148.889
878.59	154.545
878.76	104.233
878.93	143.709
879.09	114.966
879.26	146.154
879.43	117.188
879.60	119.394
879.76	107.692
879.93	120.305
880.10	99.070
880.27	94.222
880.43	120.918
880.60	87.324
880.77	97.255
880.94	100.000
881.10	75.172
881.27	69.337
881.44	52.711
881.61	65.392
881.77	62.915
881.94	51.104
882.11	51.627
882.28	45.245
882.44	47.535
882.61	46.408
882.78	50.053
882.94	52.941
883.11	51.340
883.28	51.373
883.45	53.410
883.61	55.771
883.78	56.707
883.95	51.929
884.11	50.532
884.28	58.023
>>>>>End Processed Spectral Data<<<<<
