SpectraSuite Data File
++++++++++++++++++++++++++++++++++++
Date: Wed Sep 18 03:19:22 EST 2019
User: sgrac
Dark Spectrum Present: Yes
Reference Spectrum Present: Yes
Number of Sampled Component Spectra: 1
Spectrometers: USB4E01596
Integration Time (usec): 100000 (USB4E01596)
Spectra Averaged: 3 (USB4E01596)
Boxcar Smoothing: 0 (USB4E01596)
Correct for Electrical Dark: No (USB4E01596)
Strobe/Lamp Enabled: Yes (USB4E01596)
Correct for Detector Non-linearity: No (USB4E01596)
Correct for Stray Light: No (USB4E01596)
Number of Pixels in Processed Spectrum: 3648
>>>>>Begin Processed Spectral Data<<<<<
178.44	-90.323
178.66	-90.323
178.87	-90.323
179.09	-92.000
179.30	208.696
179.52	534.211
179.74	-355.556
179.95	-1180.000
180.17	509.302
180.38	-470.000
180.60	342.857
180.82	868.750
181.03	225.581
181.25	-1542.857
181.46	-260.000
181.68	-411.628
181.89	336.735
182.11	525.000
182.33	401.961
182.54	345.614
182.76	643.478
182.97	1485.714
183.19	229.348
183.40	221.591
183.62	253.846
183.84	162.903
184.05	503.030
184.27	350.820
184.48	1875.000
184.70	627.778
184.91	582.609
185.13	-606.250
185.34	-118.333
185.56	-518.182
185.78	733.333
185.99	180.328
186.21	360.976
186.42	-1040.000
186.64	186.364
186.85	1212.500
187.07	142.857
187.28	352.381
187.50	-617.647
187.72	260.000
187.93	166.265
188.15	311.765
188.36	-1100.000
188.58	190.909
188.79	-8700.000
189.01	140.816
189.22	329.870
189.44	833.333
189.65	197.753
189.87	278.947
190.09	304.255
190.30	636.667
190.52	993.750
190.73	261.446
190.95	631.818
191.16	198.507
191.38	-10900.000
191.59	395.652
191.81	294.286
192.02	-333.333
192.24	235.484
192.45	214.444
192.67	325.758
192.88	292.188
193.10	381.818
193.31	264.286
193.53	290.323
193.74	378.788
193.96	288.136
194.18	-552.174
194.39	382.353
194.61	731.034
194.82	600.000
195.04	295.556
195.25	227.869
195.47	-4550.000
195.68	121.127
195.90	181.319
196.11	245.833
196.33	1252.941
196.54	446.512
196.76	-516.000
196.97	113.000
197.19	515.000
197.40	148.872
197.62	-430.303
197.83	257.692
198.05	129.530
198.26	-516.000
198.48	316.667
198.69	171.560
198.91	181.159
199.12	-1258.333
199.34	716.000
199.55	7700.000
199.77	192.105
199.98	2366.667
200.20	444.118
200.41	235.211
200.63	250.000
200.84	838.095
201.06	506.452
201.27	198.765
201.49	296.875
201.70	352.459
201.91	386.364
202.13	1275.000
202.34	-317.143
202.56	316.667
202.77	-115.116
202.99	354.878
203.20	351.064
203.42	360.000
203.63	164.220
203.85	-510.345
204.06	427.273
204.28	1440.000
204.49	334.884
204.71	153.782
204.92	561.538
205.14	552.632
205.35	2325.000
205.56	238.028
205.78	335.802
205.99	167.176
206.21	154.545
206.42	356.522
206.64	520.588
206.85	206.667
207.07	265.714
207.28	238.636
207.50	421.739
207.71	302.326
207.93	270.833
208.14	483.721
208.35	213.559
208.57	260.000
208.78	250.000
209.00	225.806
209.21	126.761
209.43	205.556
209.64	596.154
209.86	1363.636
210.07	212.658
210.28	256.627
210.50	313.043
210.71	315.152
210.93	356.364
211.14	335.000
211.36	780.952
211.57	184.167
211.78	738.462
212.00	537.838
212.21	1655.556
212.43	815.385
212.64	412.500
212.86	167.273
213.07	330.769
213.29	204.082
213.50	311.667
213.71	268.750
213.93	187.640
214.14	400.000
214.36	368.293
214.57	209.524
214.78	5400.000
215.00	221.951
215.21	331.111
215.43	-2920.000
215.64	182.857
215.86	364.706
216.07	253.425
216.28	338.000
216.50	304.000
216.71	586.667
216.93	-19300.000
217.14	1068.421
217.35	-116.949
217.57	227.273
217.78	475.862
218.00	193.333
218.21	319.118
218.42	-4975.000
218.64	614.286
218.85	317.647
219.07	195.349
219.28	416.667
219.49	-6750.000
219.71	317.910
219.92	181.579
220.14	-12300.000
220.35	342.466
220.56	182.609
220.78	135.366
220.99	-155.556
221.21	167.470
221.42	129.605
221.63	876.923
221.85	-373.333
222.06	160.606
222.28	-446.429
222.49	268.421
222.70	216.379
222.92	186.842
223.13	118.493
223.34	750.000
223.56	121.368
223.77	248.148
223.99	191.919
224.20	147.619
224.41	191.818
224.63	95.455
224.84	117.742
225.05	160.656
225.27	398.182
225.48	193.902
225.69	342.187
225.91	184.615
226.12	225.333
226.34	171.569
226.55	160.377
226.76	103.101
226.98	169.231
227.19	110.714
227.40	111.268
227.62	90.769
227.83	60.952
228.04	76.216
228.26	75.676
228.47	29.808
228.69	26.230
228.90	29.428
229.11	51.404
229.33	25.843
229.54	30.695
229.75	37.522
229.97	21.658
230.18	24.155
230.39	24.801
230.61	19.218
230.82	25.000
231.03	13.324
231.25	30.378
231.46	29.041
231.67	22.379
231.89	29.131
232.10	32.756
232.31	27.547
232.53	37.333
232.74	33.133
232.95	36.634
233.17	31.567
233.38	33.097
233.59	49.007
233.81	37.740
234.02	25.648
234.23	32.813
234.45	26.257
234.66	39.851
234.87	47.191
235.09	35.407
235.30	18.593
235.51	27.068
235.73	21.615
235.94	25.000
236.15	29.211
236.36	28.989
236.58	43.939
236.79	30.597
237.00	29.609
237.22	34.991
237.43	32.704
237.64	19.960
237.86	34.959
238.07	35.412
238.28	36.695
238.50	36.810
238.71	36.154
238.92	30.296
239.13	21.368
239.35	52.134
239.56	40.340
239.77	53.516
239.99	28.481
240.20	43.125
240.41	23.014
240.63	34.743
240.84	35.314
241.05	25.481
241.26	36.141
241.48	10.920
241.69	20.108
241.90	13.614
242.12	19.381
242.33	11.623
242.54	12.000
242.75	7.743
242.97	8.469
243.18	8.530
243.39	10.023
243.61	9.798
243.82	10.545
244.03	11.004
244.24	10.996
244.46	10.704
244.67	11.021
244.88	7.414
245.09	11.965
245.31	9.421
245.52	9.240
245.73	12.480
245.95	24.778
246.16	17.028
246.37	12.206
246.58	14.352
246.80	19.200
247.01	17.388
247.22	10.682
247.43	4.556
247.65	9.427
247.86	7.268
248.07	7.960
248.28	6.240
248.50	7.242
248.71	6.358
248.92	5.174
249.13	7.201
249.35	4.911
249.56	6.205
249.77	4.970
249.98	8.728
250.20	7.643
250.41	12.179
250.62	10.078
250.83	13.070
251.05	16.459
251.26	11.875
251.47	15.314
251.68	13.985
251.90	8.044
252.11	12.641
252.32	12.063
252.53	12.668
252.75	3.619
252.96	8.875
253.17	11.604
253.38	7.524
253.59	8.453
253.81	6.394
254.02	12.639
254.23	12.435
254.44	14.863
254.66	10.282
254.87	13.775
255.08	6.517
255.29	17.652
255.50	15.620
255.72	12.118
255.93	13.971
256.14	17.154
256.35	3.392
256.57	15.353
256.78	20.433
256.99	12.050
257.20	15.942
257.41	5.738
257.63	15.542
257.84	17.300
258.05	9.591
258.26	4.279
258.47	9.550
258.69	16.942
258.90	10.180
259.11	9.809
259.32	7.813
259.53	7.964
259.75	4.865
259.96	8.953
260.17	9.020
260.38	5.256
260.59	6.671
260.81	7.479
261.02	4.006
261.23	4.953
261.44	5.508
261.65	4.148
261.87	4.280
262.08	4.410
262.29	6.686
262.50	5.112
262.71	5.436
262.92	3.224
263.14	5.856
263.35	8.692
263.56	8.250
263.77	7.662
263.98	5.855
264.20	11.066
264.41	13.238
264.62	5.134
264.83	3.529
265.04	12.943
265.25	10.840
265.47	13.012
265.68	10.615
265.89	9.243
266.10	8.914
266.31	9.430
266.52	10.599
266.74	11.087
266.95	8.582
267.16	8.312
267.37	9.005
267.58	7.987
267.79	7.587
268.01	7.477
268.22	1.776
268.43	7.990
268.64	6.551
268.85	8.389
269.06	5.601
269.27	6.806
269.49	3.882
269.70	7.728
269.91	6.227
270.12	9.773
270.33	8.878
270.54	4.864
270.75	4.590
270.97	5.144
271.18	6.926
271.39	8.271
271.60	7.736
271.81	5.177
272.02	6.761
272.23	4.345
272.45	6.210
272.66	7.076
272.87	6.451
273.08	6.202
273.29	6.729
273.50	3.890
273.71	2.153
273.92	6.728
274.14	5.461
274.35	6.860
274.56	7.559
274.77	5.637
274.98	5.550
275.19	4.803
275.40	7.816
275.61	6.004
275.83	5.855
276.04	5.878
276.25	5.746
276.46	7.750
276.67	6.087
276.88	7.976
277.09	7.010
277.30	7.478
277.51	8.506
277.73	7.863
277.94	7.764
278.15	6.748
278.36	7.925
278.57	6.883
278.78	4.371
278.99	3.219
279.20	8.701
279.41	7.753
279.62	6.005
279.84	7.561
280.05	3.279
280.26	5.878
280.47	6.083
280.68	3.360
280.89	6.763
281.10	6.072
281.31	7.660
281.52	8.750
281.73	4.654
281.94	3.870
282.16	6.802
282.37	8.395
282.58	6.827
282.79	4.624
283.00	5.869
283.21	4.622
283.42	4.752
283.63	5.762
283.84	3.998
284.05	4.796
284.26	4.155
284.47	3.652
284.68	1.784
284.89	4.729
285.11	5.788
285.32	6.295
285.53	5.043
285.74	5.771
285.95	5.617
286.16	6.692
286.37	3.505
286.58	3.107
286.79	2.670
287.00	3.650
287.21	2.705
287.42	3.157
287.63	3.724
287.84	2.986
288.05	4.623
288.26	5.259
288.48	4.948
288.69	4.176
288.90	6.441
289.11	4.530
289.32	5.624
289.53	5.584
289.74	6.633
289.95	6.217
290.16	4.878
290.37	5.581
290.58	3.019
290.79	2.764
291.00	5.386
291.21	5.914
291.42	4.219
291.63	4.048
291.84	5.002
292.05	3.396
292.26	4.664
292.47	5.795
292.68	1.781
292.89	3.792
293.10	3.916
293.31	4.561
293.52	3.949
293.73	4.873
293.94	6.370
294.15	4.552
294.36	5.210
294.57	5.752
294.79	3.748
295.00	4.010
295.21	5.148
295.42	4.420
295.63	6.120
295.84	4.000
296.05	3.084
296.26	4.263
296.47	2.891
296.68	3.276
296.89	5.454
297.10	5.179
297.31	4.009
297.52	2.038
297.73	3.195
297.94	1.539
298.15	3.775
298.36	2.763
298.57	2.693
298.78	3.891
298.99	2.851
299.20	4.550
299.41	3.665
299.62	2.835
299.83	4.279
300.04	3.849
300.25	3.527
300.46	3.990
300.67	7.332
300.88	3.066
301.09	3.040
301.30	5.399
301.50	3.645
301.71	4.600
301.92	5.054
302.13	2.260
302.34	3.036
302.55	3.735
302.76	3.626
302.97	3.075
303.18	1.920
303.39	5.431
303.60	5.112
303.81	3.180
304.02	3.289
304.23	3.990
304.44	6.215
304.65	3.497
304.86	4.690
305.07	2.326
305.28	5.028
305.49	4.886
305.70	3.062
305.91	4.298
306.12	4.558
306.33	3.510
306.54	5.060
306.75	5.590
306.96	6.229
307.17	2.530
307.38	5.416
307.58	2.247
307.79	4.477
308.00	5.233
308.21	3.033
308.42	1.234
308.63	5.604
308.84	6.113
309.05	4.901
309.26	3.261
309.47	3.924
309.68	3.021
309.89	4.481
310.10	4.682
310.31	4.125
310.52	3.631
310.73	6.000
310.94	3.054
311.14	3.077
311.35	3.624
311.56	4.291
311.77	2.476
311.98	3.060
312.19	4.370
312.40	4.416
312.61	2.604
312.82	2.508
313.03	4.533
313.24	2.988
313.45	3.587
313.66	5.061
313.86	4.056
314.07	2.143
314.28	4.740
314.49	1.526
314.70	4.442
314.91	3.992
315.12	4.501
315.33	4.602
315.54	6.102
315.75	4.243
315.96	2.173
316.16	4.436
316.37	4.781
316.58	5.268
316.79	3.878
317.00	4.002
317.21	6.623
317.42	6.512
317.63	5.270
317.84	6.821
318.05	3.876
318.25	3.402
318.46	5.325
318.67	2.098
318.88	4.748
319.09	4.587
319.30	4.670
319.51	5.340
319.72	3.827
319.93	3.897
320.13	4.657
320.34	6.338
320.55	1.729
320.76	5.770
320.97	6.145
321.18	6.071
321.39	2.958
321.60	3.739
321.80	5.088
322.01	5.613
322.22	6.674
322.43	4.615
322.64	7.042
322.85	3.722
323.06	4.491
323.27	4.852
323.47	5.776
323.68	4.301
323.89	4.598
324.10	3.459
324.31	5.413
324.52	5.657
324.73	2.104
324.93	3.374
325.14	1.978
325.35	4.397
325.56	5.394
325.77	5.494
325.98	4.592
326.19	5.219
326.39	2.765
326.60	4.555
326.81	3.526
327.02	4.961
327.23	5.059
327.44	8.191
327.64	3.631
327.85	4.104
328.06	2.716
328.27	4.740
328.48	3.749
328.69	2.508
328.90	4.472
329.10	4.149
329.31	4.000
329.52	6.107
329.73	3.551
329.94	4.169
330.15	6.839
330.35	5.771
330.56	4.835
330.77	4.182
330.98	6.280
331.19	4.928
331.39	4.766
331.60	2.357
331.81	4.393
332.02	3.458
332.23	4.397
332.44	5.180
332.64	5.648
332.85	4.984
333.06	6.281
333.27	2.490
333.48	4.010
333.68	3.931
333.89	3.943
334.10	5.458
334.31	5.080
334.52	4.191
334.72	5.107
334.93	4.908
335.14	2.020
335.35	5.330
335.56	5.155
335.76	1.806
335.97	2.873
336.18	5.686
336.39	5.137
336.60	3.311
336.80	4.072
337.01	3.667
337.22	3.485
337.43	4.035
337.64	4.309
337.84	3.544
338.05	2.782
338.26	4.098
338.47	4.955
338.68	3.203
338.88	5.486
339.09	4.588
339.30	4.646
339.51	3.471
339.71	4.111
339.92	3.393
340.13	6.014
340.34	3.450
340.55	2.734
340.75	3.582
340.96	4.706
341.17	4.422
341.38	4.129
341.58	5.241
341.79	5.332
342.00	3.378
342.21	4.212
342.41	4.131
342.62	4.285
342.83	3.013
343.04	4.628
343.24	4.229
343.45	4.406
343.66	3.478
343.87	3.888
344.07	3.264
344.28	3.950
344.49	4.709
344.70	4.691
344.90	2.879
345.11	2.035
345.32	4.616
345.53	2.887
345.73	4.884
345.94	2.899
346.15	3.753
346.36	3.883
346.56	2.897
346.77	3.951
346.98	3.277
347.19	3.515
347.39	4.047
347.60	3.408
347.81	5.138
348.02	4.945
348.22	2.637
348.43	2.261
348.64	3.308
348.84	3.650
349.05	3.158
349.26	4.381
349.47	4.171
349.67	3.964
349.88	4.775
350.09	3.714
350.30	6.702
350.50	3.248
350.71	3.492
350.92	2.269
351.12	4.398
351.33	2.156
351.54	4.508
351.74	3.436
351.95	1.395
352.16	4.837
352.37	3.962
352.57	3.147
352.78	3.294
352.99	3.976
353.19	2.490
353.40	4.251
353.61	5.499
353.82	4.426
354.02	4.265
354.23	3.759
354.44	4.366
354.64	4.722
354.85	5.403
355.06	3.357
355.26	3.432
355.47	4.574
355.68	5.743
355.88	3.791
356.09	1.636
356.30	3.404
356.51	2.560
356.71	2.426
356.92	3.011
357.13	3.891
357.33	4.401
357.54	2.967
357.75	2.859
357.95	2.670
358.16	1.860
358.37	4.054
358.57	1.809
358.78	4.161
358.99	3.986
359.19	3.262
359.40	4.160
359.61	4.068
359.81	3.431
360.02	5.038
360.23	3.858
360.43	2.167
360.64	4.271
360.85	2.668
361.05	3.783
361.26	2.960
361.47	2.964
361.67	3.885
361.88	2.173
362.09	2.946
362.29	2.412
362.50	2.149
362.70	2.559
362.91	2.089
363.12	2.441
363.32	2.251
363.53	2.729
363.74	3.191
363.94	1.752
364.15	2.740
364.36	3.846
364.56	2.095
364.77	4.414
364.98	4.567
365.18	3.393
365.39	3.213
365.59	2.022
365.80	3.007
366.01	3.763
366.21	3.261
366.42	2.910
366.63	3.202
366.83	1.718
367.04	2.742
367.24	4.437
367.45	2.767
367.66	3.536
367.86	1.871
368.07	2.789
368.28	2.577
368.48	2.774
368.69	2.486
368.89	3.487
369.10	3.263
369.31	4.005
369.51	4.349
369.72	4.263
369.92	3.982
370.13	1.800
370.34	3.416
370.54	1.997
370.75	4.502
370.95	3.983
371.16	3.651
371.37	2.213
371.57	3.543
371.78	2.109
371.98	2.556
372.19	3.643
372.40	3.526
372.60	3.580
372.81	3.097
373.01	3.506
373.22	2.481
373.43	3.093
373.63	3.125
373.84	3.467
374.04	3.295
374.25	4.089
374.46	3.267
374.66	3.953
374.87	3.717
375.07	2.382
375.28	3.060
375.48	3.772
375.69	3.474
375.90	2.282
376.10	1.726
376.31	2.577
376.51	2.387
376.72	3.038
376.92	2.454
377.13	4.007
377.34	2.302
377.54	2.546
377.75	3.966
377.95	2.839
378.16	2.608
378.36	2.419
378.57	3.510
378.77	3.213
378.98	2.963
379.19	2.654
379.39	2.779
379.60	2.897
379.80	2.870
380.01	3.251
380.21	3.396
380.42	3.136
380.62	3.310
380.83	3.895
381.04	3.690
381.24	3.179
381.45	3.959
381.65	3.662
381.86	2.651
382.06	4.393
382.27	3.135
382.47	3.838
382.68	3.771
382.88	3.478
383.09	2.626
383.29	3.585
383.50	3.958
383.71	4.320
383.91	3.590
384.12	3.826
384.32	3.858
384.53	4.027
384.73	3.471
384.94	3.301
385.14	3.221
385.35	3.055
385.55	3.744
385.76	3.952
385.96	3.720
386.17	4.827
386.37	5.047
386.58	4.612
386.78	5.205
386.99	4.405
387.19	4.441
387.40	3.311
387.60	5.469
387.81	4.805
388.01	4.009
388.22	5.832
388.42	6.550
388.63	6.099
388.83	7.155
389.04	3.690
389.24	5.557
389.45	5.749
389.65	4.744
389.86	5.054
390.06	4.683
390.27	5.243
390.47	5.459
390.68	5.326
390.88	8.231
391.09	7.451
391.29	7.034
391.50	6.917
391.70	7.630
391.91	6.306
392.11	7.129
392.32	7.793
392.52	8.327
392.73	6.954
392.93	8.401
393.14	7.746
393.34	8.247
393.55	9.574
393.75	8.610
393.95	7.954
394.16	8.937
394.36	10.725
394.57	10.203
394.77	9.267
394.98	8.652
395.18	9.529
395.39	9.986
395.59	9.745
395.80	10.203
396.00	10.063
396.21	11.731
396.41	9.359
396.61	11.235
396.82	10.916
397.02	12.482
397.23	11.363
397.43	11.524
397.64	8.845
397.84	12.718
398.05	9.703
398.25	12.633
398.45	10.779
398.66	12.209
398.86	11.426
399.07	13.929
399.27	11.333
399.48	12.877
399.68	10.973
399.89	11.987
400.09	13.306
400.29	11.619
400.50	12.662
400.70	13.554
400.91	10.685
401.11	11.829
401.32	12.956
401.52	11.205
401.72	12.555
401.93	14.528
402.13	13.387
402.34	13.184
402.54	12.006
402.75	15.941
402.95	10.819
403.15	14.153
403.36	12.292
403.56	14.226
403.77	11.778
403.97	13.984
404.17	12.439
404.38	14.771
404.58	12.890
404.79	15.036
404.99	14.924
405.19	12.961
405.40	13.969
405.60	15.158
405.81	13.849
406.01	14.540
406.21	13.275
406.42	14.412
406.62	14.035
406.83	15.361
407.03	14.858
407.23	13.140
407.44	13.058
407.64	14.886
407.85	13.355
408.05	14.138
408.25	14.061
408.46	15.083
408.66	14.607
408.87	14.059
409.07	13.491
409.27	12.178
409.48	13.333
409.68	15.064
409.88	11.661
410.09	15.179
410.29	15.052
410.50	16.131
410.70	11.915
410.90	14.171
411.11	12.670
411.31	14.172
411.51	14.525
411.72	14.973
411.92	13.824
412.12	13.120
412.33	13.685
412.53	13.336
412.74	12.560
412.94	14.325
413.14	14.236
413.35	14.624
413.55	13.128
413.75	14.322
413.96	13.348
414.16	13.849
414.36	13.693
414.57	13.686
414.77	12.475
414.97	13.926
415.18	13.274
415.38	14.155
415.58	14.104
415.79	13.303
415.99	12.411
416.19	13.909
416.40	13.954
416.60	13.580
416.80	12.965
417.01	13.435
417.21	11.943
417.41	14.625
417.62	13.763
417.82	14.083
418.02	13.210
418.23	14.344
418.43	13.608
418.63	14.726
418.84	14.014
419.04	13.732
419.24	14.121
419.45	14.641
419.65	14.741
419.85	14.965
420.06	14.529
420.26	14.946
420.46	13.828
420.67	14.060
420.87	14.565
421.07	15.077
421.28	14.200
421.48	14.656
421.68	14.439
421.88	14.972
422.09	14.669
422.29	14.593
422.49	13.968
422.70	14.798
422.90	14.001
423.10	14.543
423.31	14.588
423.51	14.905
423.71	13.978
423.91	15.015
424.12	14.395
424.32	14.676
424.52	14.254
424.73	14.537
424.93	14.632
425.13	14.663
425.33	13.755
425.54	14.387
425.74	14.064
425.94	14.622
426.15	14.323
426.35	14.741
426.55	13.923
426.75	14.661
426.96	14.115
427.16	14.195
427.36	14.646
427.57	14.602
427.77	14.219
427.97	14.146
428.17	14.621
428.38	14.250
428.58	12.726
428.78	14.969
428.98	12.788
429.19	13.479
429.39	12.424
429.59	15.018
429.79	12.164
430.00	12.105
430.20	12.030
430.40	14.084
430.60	12.856
430.81	13.131
431.01	12.286
431.21	12.984
431.41	11.838
431.62	13.095
431.82	12.077
432.02	14.117
432.22	12.424
432.43	12.396
432.63	12.036
432.83	13.698
433.03	12.386
433.24	12.864
433.44	12.550
433.64	13.499
433.84	12.632
434.05	13.386
434.25	12.777
434.45	13.789
434.65	13.198
434.85	13.653
435.06	13.365
435.26	13.541
435.46	13.657
435.66	13.768
435.87	12.657
436.07	13.739
436.27	13.122
436.47	13.230
436.67	12.456
436.88	13.585
437.08	13.344
437.28	13.555
437.48	13.200
437.69	13.840
437.89	12.819
438.09	13.653
438.29	12.660
438.49	13.472
438.70	13.319
438.90	13.340
439.10	12.902
439.30	13.299
439.50	13.113
439.71	13.348
439.91	12.989
440.11	13.874
440.31	13.303
440.51	12.991
440.72	13.108
440.92	13.714
441.12	13.491
441.32	13.824
441.52	13.589
441.72	13.684
441.93	13.558
442.13	13.945
442.33	13.175
442.53	13.715
442.73	13.326
442.94	13.904
443.14	13.302
443.34	13.932
443.54	14.002
443.74	13.801
443.94	13.155
444.15	13.770
444.35	12.911
444.55	14.002
444.75	13.434
444.95	13.677
445.15	13.072
445.36	13.526
445.56	12.887
445.76	13.301
445.96	13.231
446.16	13.555
446.36	12.966
446.57	13.911
446.77	13.033
446.97	13.573
447.17	13.626
447.37	13.255
447.57	13.844
447.77	13.510
447.98	13.421
448.18	13.751
448.38	13.518
448.58	13.706
448.78	13.764
448.98	13.758
449.18	13.217
449.39	13.632
449.59	13.290
449.79	13.950
449.99	13.267
450.19	13.918
450.39	13.712
450.59	14.065
450.79	13.013
451.00	13.626
451.20	13.647
451.40	13.515
451.60	12.843
451.80	12.845
452.00	12.779
452.20	13.547
452.40	13.234
452.61	13.291
452.81	12.651
453.01	13.153
453.21	12.964
453.41	13.364
453.61	13.136
453.81	13.224
454.01	13.136
454.21	13.652
454.42	13.296
454.62	13.437
454.82	13.286
455.02	12.868
455.22	12.747
455.42	13.033
455.62	12.586
455.82	12.579
456.02	12.299
456.23	12.946
456.43	13.298
456.63	13.304
456.83	11.686
457.03	13.287
457.23	12.802
457.43	13.721
457.63	12.899
457.83	13.566
458.03	12.281
458.23	13.190
458.43	12.257
458.64	13.051
458.84	12.834
459.04	13.037
459.24	13.127
459.44	13.172
459.64	13.159
459.84	13.064
460.04	13.021
460.24	12.834
460.44	13.349
460.64	13.403
460.84	12.950
461.04	13.417
461.24	12.886
461.45	13.660
461.65	12.989
461.85	13.311
462.05	13.559
462.25	13.510
462.45	13.687
462.65	13.432
462.85	12.627
463.05	13.360
463.25	12.142
463.45	13.898
463.65	13.227
463.85	12.906
464.05	12.766
464.25	13.117
464.45	13.153
464.65	12.491
464.85	12.192
465.05	12.781
465.26	12.757
465.46	13.313
465.66	12.245
465.86	12.935
466.06	12.561
466.26	12.860
466.46	12.484
466.66	13.072
466.86	12.900
467.06	12.610
467.26	12.672
467.46	12.980
467.66	13.001
467.86	12.973
468.06	12.432
468.26	12.935
468.46	13.071
468.66	13.427
468.86	12.554
469.06	13.900
469.26	12.492
469.46	13.678
469.66	12.192
469.86	13.169
470.06	13.186
470.26	13.363
470.46	12.307
470.66	13.427
470.86	12.606
471.06	12.747
471.26	12.463
471.46	12.928
471.66	12.585
471.86	12.862
472.06	12.480
472.26	13.205
472.46	13.574
472.66	12.822
472.86	12.434
473.06	12.953
473.26	12.997
473.46	13.509
473.66	12.718
473.86	13.141
474.06	12.785
474.26	12.760
474.46	12.300
474.66	13.889
474.86	13.373
475.06	13.899
475.26	12.310
475.46	13.191
475.66	12.673
475.86	13.809
476.06	13.622
476.26	14.259
476.46	12.673
476.66	13.933
476.86	13.016
477.06	13.394
477.26	12.945
477.46	13.800
477.65	12.977
477.85	13.893
478.05	12.691
478.25	13.509
478.45	12.979
478.65	13.481
478.85	13.588
479.05	14.164
479.25	13.402
479.45	13.809
479.65	12.903
479.85	14.107
480.05	13.475
480.25	13.956
480.45	13.532
480.65	13.764
480.85	13.689
481.05	14.042
481.25	14.048
481.44	14.289
481.64	13.442
481.84	14.046
482.04	13.857
482.24	13.751
482.44	13.645
482.64	13.948
482.84	13.778
483.04	13.763
483.24	13.453
483.44	13.928
483.64	13.463
483.84	13.341
484.04	13.355
484.23	13.508
484.43	13.508
484.63	13.951
484.83	13.962
485.03	14.112
485.23	14.181
485.43	14.262
485.63	14.410
485.83	14.478
486.03	14.640
486.23	14.450
486.42	14.382
486.62	14.471
486.82	14.207
487.02	14.242
487.22	14.069
487.42	13.969
487.62	14.059
487.82	13.890
488.02	13.870
488.22	13.977
488.41	13.757
488.61	13.614
488.81	13.902
489.01	14.189
489.21	13.978
489.41	14.125
489.61	14.185
489.81	14.340
490.01	14.203
490.20	14.326
490.40	14.248
490.60	14.566
490.80	14.197
491.00	14.322
491.20	14.107
491.40	13.925
491.60	13.780
491.79	13.635
491.99	13.932
492.19	13.722
492.39	13.668
492.59	14.033
492.79	13.901
492.99	13.984
493.19	13.996
493.38	14.195
493.58	13.991
493.78	14.516
493.98	14.291
494.18	14.760
494.38	14.401
494.58	14.461
494.77	14.123
494.97	14.055
495.17	14.363
495.37	14.454
495.57	14.140
495.77	14.551
495.96	14.393
496.16	13.896
496.36	14.083
496.56	13.760
496.76	13.524
496.96	14.270
497.15	13.758
497.35	14.338
497.55	14.225
497.75	14.271
497.95	13.921
498.15	14.257
498.34	14.147
498.54	14.187
498.74	14.345
498.94	14.419
499.14	13.861
499.34	14.119
499.53	14.155
499.73	14.647
499.93	14.249
500.13	14.647
500.33	13.933
500.52	14.676
500.72	14.219
500.92	14.540
501.12	14.047
501.32	14.456
501.52	14.356
501.71	14.589
501.91	14.123
502.11	14.932
502.31	14.420
502.51	14.729
502.70	13.948
502.90	14.526
503.10	14.284
503.30	14.664
503.50	14.736
503.69	14.677
503.89	14.631
504.09	15.047
504.29	14.474
504.48	14.710
504.68	14.699
504.88	14.827
505.08	14.419
505.28	14.846
505.47	14.894
505.67	15.126
505.87	14.972
506.07	14.872
506.27	14.714
506.46	14.924
506.66	14.734
506.86	15.119
507.06	15.011
507.25	15.118
507.45	14.785
507.65	15.013
507.85	14.926
508.04	15.606
508.24	15.579
508.44	14.886
508.64	15.223
508.83	15.418
509.03	14.726
509.23	15.329
509.43	15.286
509.63	15.263
509.82	15.291
510.02	15.712
510.22	15.290
510.42	15.541
510.61	15.585
510.81	15.366
511.01	15.147
511.21	15.450
511.40	15.291
511.60	15.642
511.80	15.499
511.99	15.412
512.19	15.465
512.39	15.781
512.59	15.510
512.78	15.762
512.98	15.296
513.18	16.156
513.38	15.211
513.57	15.939
513.77	15.404
513.97	15.779
514.17	15.370
514.36	15.918
514.56	15.790
514.76	16.087
514.95	15.768
515.15	16.052
515.35	15.807
515.55	15.666
515.74	15.748
515.94	16.443
516.14	15.511
516.33	15.720
516.53	15.871
516.73	16.196
516.93	15.920
517.12	16.084
517.32	15.079
517.52	15.836
517.71	15.895
517.91	16.178
518.11	15.767
518.30	16.123
518.50	15.582
518.70	15.813
518.90	15.912
519.09	15.814
519.29	15.968
519.49	15.924
519.68	15.988
519.88	15.829
520.08	15.680
520.27	16.318
520.47	16.160
520.67	16.442
520.86	16.422
521.06	16.173
521.26	15.909
521.45	16.184
521.65	16.187
521.85	16.477
522.04	16.045
522.24	15.699
522.44	16.409
522.63	15.974
522.83	16.015
523.03	16.158
523.22	16.378
523.42	16.563
523.62	16.293
523.81	16.351
524.01	16.295
524.21	16.193
524.40	16.223
524.60	16.423
524.80	15.598
524.99	16.423
525.19	16.157
525.39	16.028
525.58	15.973
525.78	15.903
525.98	16.083
526.17	16.262
526.37	15.977
526.57	16.234
526.76	16.201
526.96	15.779
527.15	16.030
527.35	16.399
527.55	15.948
527.74	16.197
527.94	16.030
528.14	15.886
528.33	15.859
528.53	15.897
528.72	15.705
528.92	15.969
529.12	15.747
529.31	16.064
529.51	16.173
529.71	16.049
529.90	16.250
530.10	16.269
530.29	16.352
530.49	16.691
530.69	16.454
530.88	16.773
531.08	16.247
531.28	16.559
531.47	16.460
531.67	16.676
531.86	16.543
532.06	16.679
532.26	16.186
532.45	16.102
532.65	16.625
532.84	16.339
533.04	16.333
533.24	16.134
533.43	15.918
533.63	16.099
533.82	15.800
534.02	16.542
534.22	16.049
534.41	16.374
534.61	16.330
534.80	16.664
535.00	16.156
535.19	16.595
535.39	16.354
535.59	16.696
535.78	16.687
535.98	16.401
536.17	16.541
536.37	16.608
536.57	16.312
536.76	16.471
536.96	16.432
537.15	16.598
537.35	16.232
537.54	16.508
537.74	16.600
537.93	16.769
538.13	16.475
538.33	16.662
538.52	16.470
538.72	17.073
538.91	17.103
539.11	17.022
539.30	16.660
539.50	16.672
539.70	16.485
539.89	16.814
540.09	16.902
540.28	16.846
540.48	16.533
540.67	16.714
540.87	16.724
541.06	16.702
541.26	16.363
541.45	16.387
541.65	16.396
541.85	16.366
542.04	16.735
542.24	16.518
542.43	16.455
542.63	16.471
542.82	16.655
543.02	17.025
543.21	16.675
543.41	17.125
543.60	17.040
543.80	17.360
543.99	16.982
544.19	17.327
544.38	16.942
544.58	17.610
544.77	16.971
544.97	17.275
545.16	17.227
545.36	17.407
545.56	17.262
545.75	17.519
545.95	17.584
546.14	17.685
546.34	17.355
546.53	17.564
546.73	17.418
546.92	17.369
547.12	17.401
547.31	17.166
547.51	17.145
547.70	17.561
547.90	17.086
548.09	17.696
548.29	17.339
548.48	17.519
548.68	17.539
548.87	17.665
549.07	17.906
549.26	17.651
549.46	18.147
549.65	17.567
549.84	17.524
550.04	17.945
550.23	17.541
550.43	18.142
550.62	18.104
550.82	18.435
551.01	17.818
551.21	18.771
551.40	17.901
551.60	17.890
551.79	17.476
551.99	18.619
552.18	17.648
552.38	18.364
552.57	18.023
552.77	18.288
552.96	18.458
553.16	18.433
553.35	18.059
553.54	18.918
553.74	18.497
553.93	18.069
554.13	18.347
554.32	18.273
554.52	18.185
554.71	18.520
554.91	18.897
555.10	18.655
555.29	18.560
555.49	18.971
555.68	18.504
555.88	18.781
556.07	18.386
556.27	18.996
556.46	18.839
556.66	18.776
556.85	19.191
557.04	18.963
557.24	18.308
557.43	18.658
557.63	18.861
557.82	19.505
558.02	19.239
558.21	18.786
558.40	19.593
558.60	19.700
558.79	19.548
558.99	19.411
559.18	18.947
559.38	18.963
559.57	18.819
559.76	18.723
559.96	19.768
560.15	19.623
560.35	19.052
560.54	19.684
560.73	18.966
560.93	20.049
561.12	19.206
561.32	19.678
561.51	19.728
561.70	19.617
561.90	18.999
562.09	19.726
562.29	19.518
562.48	20.244
562.67	19.033
562.87	20.231
563.06	19.239
563.26	20.267
563.45	19.607
563.64	19.941
563.84	19.671
564.03	20.275
564.23	19.589
564.42	20.207
564.61	20.028
564.81	20.837
565.00	19.986
565.20	20.199
565.39	19.956
565.58	19.621
565.78	19.871
565.97	20.141
566.16	20.335
566.36	19.807
566.55	19.948
566.74	19.884
566.94	20.480
567.13	20.055
567.33	20.265
567.52	20.692
567.71	20.951
567.91	20.408
568.10	20.262
568.29	20.304
568.49	20.452
568.68	20.669
568.87	20.764
569.07	20.818
569.26	20.352
569.45	20.306
569.65	20.375
569.84	20.035
570.04	20.731
570.23	20.741
570.42	20.112
570.62	20.449
570.81	20.113
571.00	20.413
571.20	20.663
571.39	20.183
571.58	20.289
571.78	20.660
571.97	20.022
572.16	20.033
572.36	20.070
572.55	19.856
572.74	20.626
572.94	20.368
573.13	20.067
573.32	20.440
573.51	20.459
573.71	20.343
573.90	19.959
574.09	20.208
574.29	19.712
574.48	20.357
574.67	20.470
574.87	20.158
575.06	19.769
575.25	20.179
575.45	20.078
575.64	20.343
575.83	20.093
576.03	21.112
576.22	21.023
576.41	20.757
576.60	19.923
576.80	20.570
576.99	20.237
577.18	20.263
577.38	20.150
577.57	20.679
577.76	20.223
577.95	20.929
578.15	20.311
578.34	21.048
578.53	20.380
578.73	20.038
578.92	20.406
579.11	20.912
579.30	20.131
579.50	20.250
579.69	20.514
579.88	19.994
580.08	20.382
580.27	20.796
580.46	19.936
580.65	20.034
580.85	19.729
581.04	20.502
581.23	19.151
581.42	20.674
581.62	20.148
581.81	20.401
582.00	20.098
582.19	19.904
582.39	20.593
582.58	20.180
582.77	20.382
582.96	20.482
583.16	19.172
583.35	20.243
583.54	20.635
583.73	20.659
583.93	19.982
584.12	19.582
584.31	19.332
584.50	20.528
584.70	19.367
584.89	20.887
585.08	20.423
585.27	20.327
585.47	19.532
585.66	20.234
585.85	20.126
586.04	20.786
586.24	20.252
586.43	20.141
586.62	19.206
586.81	20.142
587.00	19.740
587.20	19.796
587.39	19.730
587.58	20.631
587.77	19.930
587.97	19.698
588.16	20.060
588.35	20.217
588.54	19.470
588.73	20.105
588.93	19.576
589.12	19.850
589.31	20.572
589.50	19.865
589.69	19.980
589.89	21.095
590.08	19.328
590.27	20.156
590.46	19.683
590.65	19.660
590.85	19.910
591.04	20.517
591.23	20.755
591.42	20.068
591.61	20.201
591.81	20.625
592.00	20.456
592.19	20.861
592.38	20.354
592.57	20.466
592.77	20.538
592.96	20.486
593.15	20.468
593.34	20.170
593.53	20.148
593.72	20.556
593.92	19.923
594.11	20.947
594.30	20.473
594.49	20.557
594.68	20.418
594.87	21.442
595.07	20.356
595.26	20.786
595.45	20.894
595.64	21.464
595.83	21.315
596.02	20.995
596.22	21.211
596.41	21.297
596.60	20.852
596.79	21.262
596.98	20.899
597.17	21.260
597.37	20.929
597.56	21.621
597.75	21.628
597.94	21.649
598.13	22.283
598.32	21.745
598.51	21.751
598.71	22.193
598.90	21.526
599.09	22.139
599.28	22.401
599.47	22.058
599.66	22.293
599.85	22.416
600.05	21.508
600.24	22.454
600.43	22.183
600.62	22.939
600.81	21.711
601.00	22.868
601.19	21.644
601.38	22.781
601.58	22.596
601.77	21.884
601.96	22.666
602.15	22.936
602.34	22.827
602.53	22.520
602.72	22.532
602.91	22.918
603.10	23.128
603.30	23.828
603.49	22.988
603.68	23.224
603.87	22.195
604.06	23.745
604.25	23.212
604.44	23.115
604.63	23.233
604.82	23.131
605.01	22.872
605.21	22.968
605.40	22.821
605.59	23.688
605.78	23.385
605.97	23.235
606.16	22.738
606.35	23.444
606.54	23.773
606.73	24.036
606.92	24.128
607.11	23.424
607.30	23.855
607.50	24.066
607.69	23.564
607.88	23.402
608.07	23.519
608.26	23.454
608.45	23.741
608.64	23.763
608.83	22.976
609.02	24.575
609.21	23.467
609.40	23.888
609.59	22.943
609.78	23.217
609.97	23.913
610.16	23.731
610.35	24.125
610.55	23.478
610.74	23.511
610.93	24.248
611.12	23.386
611.31	23.819
611.50	23.897
611.69	24.200
611.88	23.845
612.07	23.783
612.26	24.042
612.45	24.272
612.64	24.108
612.83	23.840
613.02	24.515
613.21	23.546
613.40	23.200
613.59	25.125
613.78	23.907
613.97	23.685
614.16	23.516
614.35	23.497
614.54	23.873
614.73	24.071
614.92	23.246
615.11	23.761
615.30	23.043
615.49	23.423
615.68	23.999
615.87	22.846
616.07	22.601
616.26	24.258
616.45	24.106
616.64	22.871
616.83	23.715
617.02	23.990
617.21	21.812
617.40	23.706
617.59	22.988
617.78	23.734
617.97	22.283
618.16	22.982
618.35	22.380
618.54	23.015
618.73	22.195
618.92	23.391
619.11	22.937
619.30	22.799
619.49	21.843
619.68	22.865
619.86	22.708
620.05	22.006
620.24	22.597
620.43	23.370
620.62	21.681
620.81	23.307
621.00	23.726
621.19	23.518
621.38	22.830
621.57	23.267
621.76	22.971
621.95	22.761
622.14	22.273
622.33	22.881
622.52	22.026
622.71	22.863
622.90	21.635
623.09	22.652
623.28	22.364
623.47	22.272
623.66	22.783
623.85	22.095
624.04	22.029
624.23	22.871
624.42	22.160
624.61	22.931
624.80	22.052
624.99	22.425
625.18	22.075
625.36	23.154
625.55	21.777
625.74	23.154
625.93	22.381
626.12	22.581
626.31	23.103
626.50	22.438
626.69	22.282
626.88	22.580
627.07	22.144
627.26	22.630
627.45	22.078
627.64	21.825
627.83	22.224
628.02	22.823
628.20	22.214
628.39	22.785
628.58	22.176
628.77	22.174
628.96	21.943
629.15	21.792
629.34	22.462
629.53	23.140
629.72	21.606
629.91	23.058
630.10	22.040
630.29	22.088
630.47	22.327
630.66	22.578
630.85	21.902
631.04	22.912
631.23	21.793
631.42	22.076
631.61	21.848
631.80	22.181
631.99	21.445
632.18	22.240
632.36	21.537
632.55	24.253
632.74	21.570
632.93	21.392
633.12	21.594
633.31	21.590
633.50	21.832
633.69	22.272
633.88	21.043
634.06	21.641
634.25	21.796
634.44	20.931
634.63	22.048
634.82	22.285
635.01	22.037
635.20	21.987
635.39	21.147
635.57	21.713
635.76	21.716
635.95	21.714
636.14	20.751
636.33	22.582
636.52	21.372
636.71	21.137
636.89	20.543
637.08	21.959
637.27	21.498
637.46	22.064
637.65	21.816
637.84	21.827
638.03	21.730
638.21	22.040
638.40	21.133
638.59	21.603
638.78	20.914
638.97	22.006
639.16	21.554
639.34	21.599
639.53	19.574
639.72	21.424
639.91	20.274
640.10	21.546
640.29	20.894
640.47	21.265
640.66	20.949
640.85	21.967
641.04	20.220
641.23	21.492
641.42	20.495
641.60	21.450
641.79	19.898
641.98	21.782
642.17	19.770
642.36	21.702
642.54	19.135
642.73	21.943
642.92	20.352
643.11	22.043
643.30	19.867
643.49	21.886
643.67	18.774
643.86	20.885
644.05	18.992
644.24	21.154
644.43	20.467
644.61	20.860
644.80	20.667
644.99	21.640
645.18	20.310
645.37	20.893
645.55	19.708
645.74	21.016
645.93	20.763
646.12	22.032
646.31	21.533
646.49	20.617
646.68	20.187
646.87	21.065
647.06	19.731
647.24	21.889
647.43	19.457
647.62	20.789
647.81	20.041
648.00	21.658
648.18	19.443
648.37	19.807
648.56	20.737
648.75	20.413
648.93	20.362
649.12	19.998
649.31	19.955
649.50	20.870
649.68	20.076
649.87	20.106
650.06	18.733
650.25	20.751
650.43	19.348
650.62	20.177
650.81	19.725
651.00	19.372
651.18	19.138
651.37	21.541
651.56	19.402
651.75	21.761
651.93	19.275
652.12	21.557
652.31	18.966
652.50	20.002
652.68	20.607
652.87	20.632
653.06	20.650
653.25	20.841
653.43	19.369
653.62	20.745
653.81	17.983
654.00	20.915
654.18	18.301
654.37	20.489
654.56	18.540
654.74	19.819
654.93	20.422
655.12	20.027
655.31	18.987
655.49	20.696
655.68	18.732
655.87	18.583
656.05	17.560
656.24	18.654
656.43	18.318
656.62	17.710
656.80	18.301
656.99	19.323
657.18	17.633
657.36	19.427
657.55	18.092
657.74	19.179
657.93	18.481
658.11	19.493
658.30	18.678
658.49	18.530
658.67	19.219
658.86	17.309
659.05	17.503
659.23	18.794
659.42	16.406
659.61	18.039
659.79	16.715
659.98	18.000
660.17	18.002
660.35	18.158
660.54	17.725
660.73	18.580
660.91	17.549
661.10	18.266
661.29	16.734
661.47	16.075
661.66	17.452
661.85	16.749
662.03	17.144
662.22	15.520
662.41	15.094
662.59	16.159
662.78	14.166
662.97	15.281
663.15	15.199
663.34	13.932
663.53	13.987
663.71	15.905
663.90	13.957
664.09	15.749
664.27	14.337
664.46	14.950
664.65	13.886
664.83	14.059
665.02	12.783
665.21	13.307
665.39	11.538
665.58	14.388
665.77	13.585
665.95	13.893
666.14	12.345
666.32	13.720
666.51	11.769
666.70	12.515
666.88	12.680
667.07	13.240
667.26	10.949
667.44	11.816
667.63	12.043
667.81	11.479
668.00	11.617
668.19	13.290
668.37	11.283
668.56	13.288
668.75	10.178
668.93	14.354
669.12	11.320
669.30	13.121
669.49	10.896
669.68	13.341
669.86	11.793
670.05	12.015
670.23	10.930
670.42	11.944
670.61	13.040
670.79	12.038
670.98	11.104
671.16	13.808
671.35	10.429
671.54	12.695
671.72	11.482
671.91	13.470
672.09	10.603
672.28	14.078
672.46	14.586
672.65	13.774
672.84	12.620
673.02	12.752
673.21	10.874
673.39	11.367
673.58	13.210
673.77	13.443
673.95	12.124
674.14	13.444
674.32	11.057
674.51	13.988
674.69	12.627
674.88	13.283
675.07	12.599
675.25	15.097
675.44	13.917
675.62	14.016
675.81	11.934
675.99	16.796
676.18	13.920
676.36	13.531
676.55	11.646
676.74	14.845
676.92	14.619
677.11	14.593
677.29	13.070
677.48	13.685
677.66	13.836
677.85	14.434
678.03	14.479
678.22	16.164
678.40	14.942
678.59	13.431
678.78	11.970
678.96	13.883
679.15	13.570
679.33	16.014
679.52	14.484
679.70	15.759
679.89	14.586
680.07	15.809
680.26	13.219
680.44	16.133
680.63	15.493
680.81	15.223
681.00	13.384
681.18	16.044
681.37	14.333
681.55	16.763
681.74	16.687
681.92	16.473
682.11	16.745
682.29	17.002
682.48	15.936
682.66	16.706
682.85	16.648
683.03	16.350
683.22	17.166
683.40	16.683
683.59	18.190
683.77	18.102
683.96	15.456
684.14	17.925
684.33	15.063
684.51	21.019
684.70	18.694
684.88	20.663
685.07	17.070
685.25	18.665
685.44	17.933
685.62	19.413
685.81	17.869
685.99	19.884
686.18	17.918
686.36	19.376
686.55	18.095
686.73	20.012
686.92	20.488
687.10	21.425
687.29	19.845
687.47	21.433
687.65	21.122
687.84	21.836
688.02	21.945
688.21	23.632
688.39	21.300
688.58	23.887
688.76	20.782
688.95	21.557
689.13	21.125
689.32	23.930
689.50	22.417
689.68	23.599
689.87	22.780
690.05	24.423
690.24	23.624
690.42	23.318
690.61	24.391
690.79	25.523
690.98	25.336
691.16	25.956
691.34	22.359
691.53	26.360
691.71	24.416
691.90	26.993
692.08	25.464
692.27	26.285
692.45	26.886
692.63	25.961
692.82	27.957
693.00	29.053
693.19	25.075
693.37	27.955
693.56	26.922
693.74	29.027
693.92	28.035
694.11	30.070
694.29	28.440
694.48	30.482
694.66	28.242
694.84	31.158
695.03	27.785
695.21	31.393
695.40	30.022
695.58	29.907
695.76	30.390
695.95	31.451
696.13	30.716
696.32	31.772
696.50	34.205
696.68	31.971
696.87	30.645
697.05	32.499
697.24	31.221
697.42	32.466
697.60	32.453
697.79	34.279
697.97	32.859
698.16	33.868
698.34	31.339
698.52	31.744
698.71	31.198
698.89	32.864
699.07	32.220
699.26	33.298
699.44	32.578
699.63	33.028
699.81	31.528
699.99	34.514
700.18	33.631
700.36	33.862
700.54	33.326
700.73	34.393
700.91	32.733
701.09	33.770
701.28	34.173
701.46	35.900
701.64	34.597
701.83	33.770
702.01	33.832
702.20	35.572
702.38	34.955
702.56	35.928
702.75	34.813
702.93	35.666
703.11	35.184
703.30	36.948
703.48	34.726
703.66	37.313
703.85	35.045
704.03	36.518
704.21	35.638
704.40	38.176
704.58	34.721
704.76	36.880
704.95	36.326
705.13	36.596
705.31	34.627
705.50	38.714
705.68	34.764
705.86	39.069
706.04	35.644
706.23	39.815
706.41	38.024
706.59	37.788
706.78	36.286
706.96	38.777
707.14	35.078
707.33	37.967
707.51	36.414
707.69	37.457
707.88	37.612
708.06	37.787
708.24	37.775
708.42	38.205
708.61	36.473
708.79	37.987
708.97	40.224
709.16	38.867
709.34	38.578
709.52	37.267
709.71	39.114
709.89	37.293
710.07	36.612
710.25	37.885
710.44	37.533
710.62	38.670
710.80	38.390
710.98	38.167
711.17	37.327
711.35	40.080
711.53	37.302
711.72	38.853
711.90	39.202
712.08	39.530
712.26	36.738
712.45	37.649
712.63	37.669
712.81	38.388
712.99	35.487
713.18	39.877
713.36	38.089
713.54	38.449
713.72	37.301
713.91	39.267
714.09	37.964
714.27	40.126
714.45	37.669
714.64	39.339
714.82	37.224
715.00	39.208
715.18	36.717
715.37	38.427
715.55	38.112
715.73	38.801
715.91	37.127
716.10	38.336
716.28	35.568
716.46	37.168
716.64	38.353
716.83	38.753
717.01	37.363
717.19	38.497
717.37	37.541
717.55	36.816
717.74	38.843
717.92	37.024
718.10	35.962
718.28	38.661
718.47	36.144
718.65	38.049
718.83	37.976
719.01	37.940
719.19	38.136
719.38	35.298
719.56	36.246
719.74	36.826
719.92	35.213
720.10	37.875
720.29	34.039
720.47	38.462
720.65	39.021
720.83	38.593
721.01	37.630
721.20	38.211
721.38	36.370
721.56	37.133
721.74	38.055
721.92	37.858
722.11	38.051
722.29	38.195
722.47	37.275
722.65	39.461
722.83	40.077
723.01	38.991
723.20	39.639
723.38	38.205
723.56	34.504
723.74	41.059
723.92	35.564
724.10	40.165
724.29	35.709
724.47	39.833
724.65	38.367
724.83	40.124
725.01	37.325
725.19	40.000
725.38	37.443
725.56	37.983
725.74	37.745
725.92	40.513
726.10	38.561
726.28	37.762
726.46	39.126
726.65	37.890
726.83	36.518
727.01	37.054
727.19	37.158
727.37	37.779
727.55	38.135
727.73	38.019
727.92	37.469
728.10	36.135
728.28	36.753
728.46	39.173
728.64	37.287
728.82	37.424
729.00	36.819
729.19	41.320
729.37	37.789
729.55	40.608
729.73	36.397
729.91	38.194
730.09	36.151
730.27	38.095
730.45	36.744
730.63	39.395
730.82	35.295
731.00	39.035
731.18	39.693
731.36	40.524
731.54	37.697
731.72	39.905
731.90	39.238
732.08	39.314
732.26	38.208
732.45	39.525
732.63	39.202
732.81	39.260
732.99	37.851
733.17	41.799
733.35	39.447
733.53	40.211
733.71	38.827
733.89	40.004
734.07	37.418
734.25	39.847
734.44	39.218
734.62	42.085
734.80	38.886
734.98	41.478
735.16	38.912
735.34	42.784
735.52	40.122
735.70	41.719
735.88	39.666
736.06	40.459
736.24	40.527
736.42	40.773
736.60	39.763
736.78	41.266
736.97	39.774
737.15	43.600
737.33	41.985
737.51	41.901
737.69	40.374
737.87	42.141
738.05	42.653
738.23	41.725
738.41	41.197
738.59	43.244
738.77	43.037
738.95	44.032
739.13	40.369
739.31	42.775
739.49	41.284
739.67	43.187
739.85	40.365
740.03	42.477
740.21	43.301
740.39	43.571
740.57	40.925
740.75	42.769
740.93	40.600
741.11	42.488
741.30	41.531
741.48	43.858
741.66	43.682
741.84	45.427
742.02	39.819
742.20	42.041
742.38	39.630
742.56	42.267
742.74	40.689
742.92	42.563
743.10	40.297
743.28	43.063
743.46	42.910
743.64	44.573
743.82	41.405
744.00	38.808
744.18	43.323
744.36	43.487
744.54	40.485
744.72	41.669
744.90	43.082
745.08	45.226
745.26	40.333
745.44	46.495
745.62	38.673
745.80	40.373
745.98	41.568
746.16	41.379
746.34	43.244
746.52	43.767
746.70	42.103
746.87	44.519
747.05	43.843
747.23	44.484
747.41	44.139
747.59	45.236
747.77	42.506
747.95	45.305
748.13	43.957
748.31	44.788
748.49	40.831
748.67	45.803
748.85	42.585
749.03	46.475
749.21	41.473
749.39	42.245
749.57	40.940
749.75	42.699
749.93	44.391
750.11	42.120
750.29	42.527
750.47	43.529
750.65	45.295
750.83	45.128
751.01	39.799
751.18	41.873
751.36	38.393
751.54	43.293
751.72	44.755
751.90	43.475
752.08	40.230
752.26	43.865
752.44	41.015
752.62	43.147
752.80	41.540
752.98	41.687
753.16	43.752
753.34	39.607
753.52	43.029
753.69	44.942
753.87	42.847
754.05	42.214
754.23	41.432
754.41	42.301
754.59	42.832
754.77	44.894
754.95	41.966
755.13	43.960
755.31	41.714
755.49	40.306
755.66	41.343
755.84	43.643
756.02	41.833
756.20	44.657
756.38	42.501
756.56	40.798
756.74	41.352
756.92	41.604
757.10	43.616
757.28	44.034
757.45	46.151
757.63	43.906
757.81	40.212
757.99	42.790
758.17	41.735
758.35	45.778
758.53	41.867
758.71	42.641
758.88	39.569
759.06	41.889
759.24	37.974
759.42	39.718
759.60	34.360
759.78	38.513
759.96	32.064
760.13	36.848
760.31	30.080
760.49	33.333
760.67	30.007
760.85	31.227
761.03	28.450
761.21	29.909
761.38	29.945
761.56	32.483
761.74	29.492
761.92	31.882
762.10	27.978
762.28	33.387
762.46	25.468
762.63	29.553
762.81	29.679
762.99	29.915
763.17	29.475
763.35	31.395
763.53	30.470
763.70	32.341
763.88	31.514
764.06	33.644
764.24	30.990
764.42	35.023
764.60	32.919
764.77	33.754
764.95	33.749
765.13	34.869
765.31	32.468
765.49	33.584
765.66	33.325
765.84	36.287
766.02	34.025
766.20	37.601
766.38	35.667
766.56	37.292
766.73	34.928
766.91	38.417
767.09	34.738
767.27	39.145
767.45	37.305
767.62	38.477
767.80	39.761
767.98	40.385
768.16	35.351
768.33	38.745
768.51	39.330
768.69	41.778
768.87	40.596
769.05	38.373
769.22	40.230
769.40	40.609
769.58	42.720
769.76	43.686
769.94	41.340
770.11	42.110
770.29	40.266
770.47	42.869
770.65	39.870
770.82	43.928
771.00	45.913
771.18	43.050
771.36	40.778
771.53	42.743
771.71	38.670
771.89	43.260
772.07	41.740
772.25	44.408
772.42	37.465
772.60	44.945
772.78	45.262
772.96	46.361
773.13	41.030
773.31	43.378
773.49	41.949
773.67	40.663
773.84	40.703
774.02	39.304
774.20	38.613
774.37	45.422
774.55	39.786
774.73	43.890
774.91	41.036
775.08	41.401
775.26	43.958
775.44	43.992
775.62	40.437
775.79	43.050
775.97	42.441
776.15	42.516
776.32	41.392
776.50	45.658
776.68	41.365
776.86	45.110
777.03	39.596
777.21	46.261
777.39	41.418
777.56	44.316
777.74	41.935
777.92	43.032
778.10	41.370
778.27	49.885
778.45	43.050
778.63	42.671
778.80	41.767
778.98	41.340
779.16	46.137
779.34	41.619
779.51	44.049
779.69	38.348
779.87	39.241
780.04	46.277
780.22	39.934
780.40	41.801
780.57	42.450
780.75	38.905
780.93	43.262
781.10	47.173
781.28	47.318
781.46	43.830
781.63	45.369
781.81	44.948
781.99	41.805
782.16	43.016
782.34	44.189
782.52	44.723
782.69	41.832
782.87	45.535
783.05	39.582
783.22	43.242
783.40	43.222
783.58	50.438
783.75	44.416
783.93	45.613
784.11	43.164
784.28	50.250
784.46	40.559
784.64	42.419
784.81	35.676
784.99	47.527
785.17	41.062
785.34	41.916
785.52	37.184
785.69	43.797
785.87	38.626
786.05	43.168
786.22	40.709
786.40	46.031
786.58	42.067
786.75	41.850
786.93	41.029
787.11	42.681
787.28	42.921
787.46	45.690
787.63	42.082
787.81	44.582
787.99	39.585
788.16	37.448
788.34	39.531
788.51	37.984
788.69	39.488
788.87	37.053
789.04	40.198
789.22	42.646
789.39	36.937
789.57	35.229
789.75	35.135
789.92	47.267
790.10	38.156
790.27	40.043
790.45	33.406
790.63	40.202
790.80	37.493
790.98	38.848
791.15	38.751
791.33	37.222
791.51	43.207
791.68	40.684
791.86	37.714
792.03	41.931
792.21	36.039
792.39	41.614
792.56	39.885
792.74	40.455
792.91	38.218
793.09	34.813
793.26	36.703
793.44	45.816
793.62	38.792
793.79	42.867
793.97	37.577
794.14	40.286
794.32	36.105
794.49	42.797
794.67	39.043
794.84	37.889
795.02	38.086
795.20	39.503
795.37	39.529
795.55	39.727
795.72	41.236
795.90	39.495
796.07	39.739
796.25	33.504
796.42	36.764
796.60	34.565
796.77	41.012
796.95	44.356
797.13	33.673
797.30	43.731
797.48	36.845
797.65	39.786
797.83	36.527
798.00	39.464
798.18	30.882
798.35	47.809
798.53	38.332
798.70	42.206
798.88	39.529
799.05	36.673
799.23	39.855
799.40	36.398
799.58	35.354
799.75	38.900
799.93	40.755
800.10	44.396
800.28	32.558
800.45	35.451
800.63	37.297
800.80	44.796
800.98	43.293
801.15	41.337
801.33	38.187
801.50	37.757
801.68	36.259
801.85	36.181
802.03	38.558
802.20	38.688
802.38	37.233
802.55	39.647
802.73	36.203
802.90	36.842
803.08	35.290
803.25	41.479
803.43	38.841
803.60	39.210
803.78	35.735
803.95	37.302
804.13	42.779
804.30	41.526
804.48	36.283
804.65	37.674
804.83	39.045
805.00	36.872
805.17	42.475
805.35	39.476
805.52	34.459
805.70	40.000
805.87	41.141
806.05	39.831
806.22	32.272
806.40	38.434
806.57	35.285
806.75	33.888
806.92	41.145
807.09	36.932
807.27	38.730
807.44	37.518
807.62	40.058
807.79	37.446
807.97	35.590
808.14	40.208
808.31	33.358
808.49	35.437
808.66	30.520
808.84	36.854
809.01	39.789
809.19	34.373
809.36	39.001
809.53	36.584
809.71	36.653
809.88	34.199
810.06	36.201
810.23	40.111
810.41	35.957
810.58	46.331
810.75	36.020
810.93	36.766
811.10	36.763
811.28	36.702
811.45	37.189
811.62	35.465
811.80	32.917
811.97	35.361
812.15	41.047
812.32	35.304
812.49	36.033
812.67	36.021
812.84	33.092
813.02	31.976
813.19	37.576
813.36	33.936
813.54	33.125
813.71	37.691
813.89	38.041
814.06	38.974
814.23	32.885
814.41	27.019
814.58	41.181
814.75	34.394
814.93	33.029
815.10	32.207
815.28	35.088
815.45	27.969
815.62	31.274
815.80	27.526
815.97	28.412
816.14	38.428
816.32	36.688
816.49	30.195
816.66	25.000
816.84	27.231
817.01	32.734
817.18	31.958
817.36	31.656
817.53	35.284
817.71	32.383
817.88	32.845
818.05	28.125
818.23	30.213
818.40	28.629
818.57	32.849
818.75	30.763
818.92	35.081
819.09	36.334
819.27	31.185
819.44	32.055
819.61	29.383
819.79	29.040
819.96	29.710
820.13	29.110
820.31	30.587
820.48	36.011
820.65	31.472
820.82	28.034
821.00	36.628
821.17	25.306
821.34	27.940
821.52	28.598
821.69	30.353
821.86	28.852
822.04	30.542
822.21	32.262
822.38	32.218
822.56	29.778
822.73	32.659
822.90	32.029
823.07	34.829
823.25	32.302
823.42	33.165
823.59	33.040
823.77	33.455
823.94	33.691
824.11	33.667
824.29	31.746
824.46	33.885
824.63	33.097
824.80	34.989
824.98	32.794
825.15	33.408
825.32	32.748
825.49	32.361
825.67	30.671
825.84	35.069
826.01	28.608
826.19	31.996
826.36	27.490
826.53	31.675
826.70	29.560
826.88	32.106
827.05	30.924
827.22	30.441
827.39	29.530
827.57	29.413
827.74	28.348
827.91	31.497
828.08	26.949
828.26	32.206
828.43	27.326
828.60	32.236
828.77	31.208
828.95	30.717
829.12	28.593
829.29	29.347
829.46	24.663
829.64	28.678
829.81	25.573
829.98	32.637
830.15	26.695
830.32	31.963
830.50	22.329
830.67	31.684
830.84	24.733
831.01	20.780
831.19	26.278
831.36	31.655
831.53	25.292
831.70	32.891
831.87	29.866
832.05	37.445
832.22	30.483
832.39	29.887
832.56	20.892
832.74	30.159
832.91	24.237
833.08	37.969
833.25	24.490
833.42	23.816
833.60	24.286
833.77	21.017
833.94	19.774
834.11	26.447
834.28	26.044
834.45	30.490
834.63	26.236
834.80	27.508
834.97	22.154
835.14	25.496
835.31	28.688
835.49	28.646
835.66	27.792
835.83	28.220
836.00	25.860
836.17	29.703
836.34	27.934
836.52	26.991
836.69	30.760
836.86	29.585
837.03	27.865
837.20	28.125
837.37	23.043
837.55	24.119
837.72	30.217
837.89	37.285
838.06	38.483
838.23	31.943
838.40	33.134
838.58	25.892
838.75	36.137
838.92	35.367
839.09	42.377
839.26	36.690
839.43	41.449
839.60	43.511
839.78	48.362
839.95	36.493
840.12	35.766
840.29	36.538
840.46	36.148
840.63	38.025
840.80	33.723
840.98	38.733
841.15	33.021
841.32	28.345
841.49	28.052
841.66	41.368
841.83	31.474
842.00	24.917
842.17	43.021
842.34	35.091
842.52	33.875
842.69	37.139
842.86	35.695
843.03	54.130
843.20	41.599
843.37	41.732
843.54	46.196
843.71	43.913
843.88	44.426
844.06	58.255
844.23	39.286
844.40	43.272
844.57	46.000
844.74	57.749
844.91	58.898
845.08	45.150
845.25	46.304
845.42	37.285
845.59	51.250
845.76	44.101
845.94	61.836
846.11	63.830
846.28	64.674
846.45	43.058
846.62	66.294
846.79	54.941
846.96	43.117
847.13	58.238
847.30	60.256
847.47	44.402
847.64	58.228
847.81	65.142
847.98	65.314
848.15	53.264
848.32	63.158
848.50	57.783
848.67	48.590
848.84	52.555
849.01	56.416
849.18	71.136
849.35	64.407
849.52	55.397
849.69	58.272
849.86	72.397
850.03	41.443
850.20	51.982
850.37	50.000
850.54	58.537
850.71	46.893
850.88	43.363
851.05	67.943
851.22	53.713
851.39	46.004
851.56	47.525
851.73	69.034
851.90	45.875
852.07	56.995
852.24	57.534
852.41	52.991
852.58	63.089
852.75	51.708
852.92	39.702
853.09	67.810
853.26	61.905
853.43	67.153
853.60	59.593
853.77	38.575
853.94	68.944
854.11	66.942
854.28	69.565
854.45	54.077
854.62	61.290
854.79	55.801
854.96	42.166
855.13	58.273
855.30	53.881
855.47	59.756
855.64	32.399
855.81	46.341
855.98	52.778
856.15	66.927
856.32	60.269
856.49	44.103
856.66	45.833
856.83	51.095
857.00	54.372
857.17	66.667
857.34	51.596
857.51	60.215
857.68	75.851
857.85	61.032
858.02	54.147
858.19	70.192
858.36	68.046
858.53	48.204
858.70	59.845
858.87	61.420
859.04	50.278
859.21	59.654
859.38	55.635
859.55	65.979
859.72	72.099
859.89	64.525
860.05	74.201
860.22	48.077
860.39	59.451
860.56	49.848
860.73	60.000
860.90	57.053
861.07	52.113
861.24	56.325
861.41	60.858
861.58	55.392
861.75	55.031
861.92	60.870
862.09	49.482
862.26	71.292
862.43	73.502
862.59	77.061
862.76	49.068
862.93	69.189
863.10	46.087
863.27	38.644
863.44	60.190
863.61	60.429
863.78	67.793
863.95	54.712
864.12	56.552
864.29	62.534
864.45	59.375
864.62	60.212
864.79	58.869
864.96	58.838
865.13	49.176
865.30	54.815
865.47	54.506
865.64	50.000
865.81	44.236
865.97	48.896
866.14	48.158
866.31	56.510
866.48	64.691
866.65	44.619
866.82	72.600
866.99	53.731
867.16	49.307
867.33	76.803
867.49	49.796
867.66	57.662
867.83	53.369
868.00	63.951
868.17	58.333
868.34	53.480
868.51	48.614
868.67	48.387
868.84	63.492
869.01	88.065
869.18	45.515
869.35	64.247
869.52	52.368
869.69	63.897
869.85	46.632
870.02	57.047
870.19	70.927
870.36	41.846
870.53	37.793
870.70	68.871
870.86	69.091
871.03	54.348
871.20	65.574
871.37	64.873
871.54	58.908
871.71	50.614
871.87	66.938
872.04	70.109
872.21	49.425
872.38	57.143
872.55	74.085
872.72	41.962
872.88	65.261
873.05	45.197
873.22	74.043
873.39	48.128
873.56	72.464
873.72	63.089
873.89	43.506
874.06	43.695
874.23	55.703
874.40	61.656
874.56	62.275
874.73	46.599
874.90	53.197
875.07	62.626
875.24	59.494
875.40	28.082
875.57	68.539
875.74	51.831
875.91	50.608
876.08	56.418
876.24	58.266
876.41	64.589
876.58	50.000
876.75	80.845
876.92	53.595
877.08	54.887
877.25	54.061
877.42	22.350
877.59	49.852
877.75	76.590
877.92	64.894
878.09	44.386
878.26	38.381
878.42	52.941
878.59	64.987
878.76	46.633
878.93	51.090
879.09	31.169
879.26	33.696
879.43	59.234
879.60	28.608
879.76	46.123
879.93	36.517
880.10	43.496
880.27	31.931
880.43	43.642
880.60	30.980
880.77	29.855
880.94	28.662
881.10	25.596
881.27	31.382
881.44	20.347
881.61	28.042
881.77	26.253
881.94	23.352
882.11	17.113
882.28	19.834
882.44	17.836
882.61	25.580
882.78	20.623
882.94	27.780
883.11	24.070
883.28	21.808
883.45	26.377
883.61	23.874
883.78	22.518
883.95	23.457
884.11	26.893
884.28	25.060
>>>>>End Processed Spectral Data<<<<<
