SpectraSuite Data File
++++++++++++++++++++++++++++++++++++
Date: Thu Sep 19 03:59:39 EST 2019
User: sgrac
Dark Spectrum Present: Yes
Reference Spectrum Present: Yes
Number of Sampled Component Spectra: 1
Spectrometers: USB4E01596
Integration Time (usec): 100000 (USB4E01596)
Spectra Averaged: 1 (USB4E01596)
Boxcar Smoothing: 0 (USB4E01596)
Correct for Electrical Dark: No (USB4E01596)
Strobe/Lamp Enabled: Yes (USB4E01596)
Correct for Detector Non-linearity: No (USB4E01596)
Correct for Stray Light: No (USB4E01596)
Number of Pixels in Processed Spectrum: 3648
>>>>>Begin Processed Spectral Data<<<<<
178.44	728.571
178.66	728.571
178.87	728.571
179.09	-881.818
179.30	258.929
179.52	2300.000
179.74	-1061.111
179.95	657.143
180.17	1454.545
180.38	298.507
180.60	0.000
180.82	703.226
181.03	377.778
181.25	3900.000
181.46	1084.615
181.68	-225.581
181.89	1657.143
182.11	737.500
182.33	777.778
182.54	1508.333
182.76	872.222
182.97	-650.000
183.19	378.571
183.40	370.909
183.62	561.905
183.84	2037.500
184.05	1260.000
184.27	-8450.000
184.48	268.254
184.70	8450.000
184.91	726.923
185.13	347.887
185.34	-261.538
185.56	840.741
185.78	519.231
185.99	-4975.000
186.21	-1490.909
186.42	-365.000
186.64	1120.000
186.85	-9250.000
187.07	904.545
187.28	1200.000
187.50	731.818
187.72	513.889
187.93	1216.667
188.15	1005.263
188.36	1064.706
188.58	520.513
188.79	2116.667
189.01	895.833
189.22	3420.000
189.44	810.000
189.65	-8266.667
189.87	5350.000
190.09	1200.000
190.30	2757.143
190.52	1341.667
190.73	-600.000
190.95	425.000
191.16	725.000
191.38	519.444
191.59	-1672.727
191.81	836.364
192.02	1033.333
192.24	726.923
192.45	2425.000
192.67	2700.000
192.88	-525.926
193.10	-19500.000
193.31	502.857
193.53	-757.143
193.74	-3625.000
193.96	2544.444
194.18	1231.250
194.39	482.927
194.61	984.211
194.82	1536.364
195.04	624.000
195.25	6666.667
195.47	481.579
195.68	817.647
195.90	404.651
196.11	680.769
196.33	-2066.667
196.54	-968.421
196.76	745.455
196.97	1811.111
197.19	-18900.000
197.40	1883.333
197.62	2533.333
197.83	1292.308
198.05	728.571
198.26	475.000
198.48	514.706
198.69	-1633.333
198.91	827.778
199.12	620.000
199.34	-2142.857
199.55	324.561
199.77	389.130
199.98	-1909.091
200.20	880.000
200.41	8500.000
200.63	550.000
200.84	961.905
201.06	-1323.077
201.27	-3080.000
201.49	1658.333
201.70	700.000
201.91	-9050.000
202.13	952.632
202.34	478.261
202.56	7500.000
202.77	868.750
202.99	490.000
203.20	684.848
203.42	-2642.857
203.63	3550.000
203.85	550.000
204.06	769.565
204.28	1487.500
204.49	-1560.000
204.71	468.293
204.92	366.667
205.14	435.556
205.35	295.714
205.56	2900.000
205.78	981.818
205.99	-1700.000
206.21	756.522
206.42	288.136
206.64	-3183.333
206.85	819.048
207.07	963.158
207.28	-3300.000
207.50	398.148
207.71	856.250
207.93	343.750
208.14	659.259
208.35	894.118
208.57	-632.000
208.78	-392.683
209.00	479.070
209.21	500.000
209.43	776.000
209.64	8900.000
209.86	833.333
210.07	603.448
210.28	-1246.154
210.50	1094.118
210.71	905.000
210.93	521.875
211.14	300.000
211.36	443.478
211.57	865.000
211.78	538.462
212.00	1533.333
212.21	1105.882
212.43	1040.000
212.64	683.333
212.86	246.154
213.07	744.828
213.29	700.000
213.50	606.452
213.71	636.667
213.93	2414.286
214.14	1088.235
214.36	2187.500
214.57	314.085
214.78	1353.333
215.00	989.474
215.21	855.556
215.43	263.291
215.64	711.111
215.86	1193.333
216.07	700.000
216.28	357.778
216.50	7150.000
216.71	-15300.000
216.93	840.741
217.14	325.758
217.35	397.143
217.57	4250.000
217.78	537.143
218.00	6766.667
218.21	550.000
218.42	325.000
218.64	-8950.000
218.85	437.255
219.07	2442.857
219.28	270.492
219.49	-1316.667
219.71	2100.000
219.92	263.514
220.14	2550.000
220.35	356.818
220.56	1046.154
220.78	384.211
220.99	505.714
221.21	178.351
221.42	708.696
221.63	7350.000
221.85	675.000
222.06	600.000
222.28	253.333
222.49	-1877.778
222.70	359.259
222.92	-10500.000
223.13	492.105
223.34	225.000
223.56	1483.333
223.77	252.941
223.99	355.556
224.20	313.333
224.41	249.333
224.63	8750.000
224.84	6500.000
225.05	1076.923
225.27	466.667
225.48	403.333
225.69	192.941
225.91	317.188
226.12	234.783
226.34	600.000
226.55	188.235
226.76	327.451
226.98	231.818
227.19	198.718
227.40	350.000
227.62	249.315
227.83	151.786
228.04	184.416
228.26	110.714
228.47	165.833
228.69	111.765
228.90	95.833
229.11	88.646
229.33	88.038
229.54	60.996
229.75	70.318
229.97	65.549
230.18	50.831
230.39	48.232
230.61	68.942
230.82	66.113
231.03	53.822
231.25	70.134
231.46	57.143
231.67	79.623
231.89	55.556
232.10	67.547
232.31	75.446
232.53	83.945
232.74	77.064
232.95	97.549
233.17	76.410
233.38	72.105
233.59	124.719
233.81	120.370
234.02	114.286
234.23	81.959
234.45	86.364
234.66	87.931
234.87	106.977
235.09	93.085
235.30	94.660
235.51	80.717
235.73	84.848
235.94	64.286
236.15	85.448
236.36	82.667
236.58	79.904
236.79	88.362
237.00	67.068
237.22	90.476
237.43	74.708
237.64	95.031
237.86	74.057
238.07	104.622
238.28	70.079
238.50	77.033
238.71	109.845
238.92	73.585
239.13	95.161
239.35	75.104
239.56	83.889
239.77	87.432
239.99	62.500
240.20	88.716
240.41	84.252
240.63	61.194
240.84	54.425
241.05	41.216
241.26	52.941
241.48	51.988
241.69	46.341
241.90	46.667
242.12	35.787
242.33	30.682
242.54	27.059
242.75	33.502
242.97	35.694
243.18	23.280
243.39	23.890
243.61	23.390
243.82	24.487
244.03	25.000
244.24	22.276
244.46	21.117
244.67	31.381
244.88	30.131
245.09	30.858
245.31	32.131
245.52	31.119
245.73	43.154
245.95	52.778
246.16	38.929
246.37	25.421
246.58	30.154
246.80	24.043
247.01	25.337
247.22	19.169
247.43	21.157
247.65	17.217
247.86	19.350
248.07	12.629
248.28	14.468
248.50	15.226
248.71	13.719
248.92	12.236
249.13	12.914
249.35	12.218
249.56	14.005
249.77	13.536
249.98	18.135
250.20	20.385
250.41	24.945
250.62	27.582
250.83	24.246
251.05	26.734
251.26	28.049
251.47	33.643
251.68	25.856
251.90	25.780
252.11	26.622
252.32	24.740
252.53	21.114
252.75	28.882
252.96	28.846
253.17	22.895
253.38	26.066
253.59	19.012
253.81	28.241
254.02	21.809
254.23	22.402
254.44	21.143
254.66	29.412
254.87	35.254
255.08	29.840
255.29	41.603
255.50	32.383
255.72	31.373
255.93	36.547
256.14	53.233
256.35	32.715
256.57	34.889
256.78	45.833
256.99	40.858
257.20	44.050
257.41	37.526
257.63	43.609
257.84	33.586
258.05	31.226
258.26	29.100
258.47	37.767
258.69	25.509
258.90	23.878
259.11	21.447
259.32	20.403
259.53	20.389
259.75	18.002
259.96	13.505
260.17	12.688
260.38	13.636
260.59	13.099
260.81	10.651
261.02	11.135
261.23	10.997
261.44	12.709
261.65	11.556
261.87	13.155
262.08	10.859
262.29	16.404
262.50	10.700
262.71	13.937
262.92	16.311
263.14	15.804
263.35	15.920
263.56	21.263
263.77	15.919
263.98	18.564
264.20	28.028
264.41	19.270
264.62	20.124
264.83	18.373
265.04	32.891
265.25	25.611
265.47	20.323
265.68	26.081
265.89	23.221
266.10	23.127
266.31	25.967
266.52	25.534
266.74	23.309
266.95	16.900
267.16	18.304
267.37	21.848
267.58	18.744
267.79	18.429
268.01	20.826
268.22	16.451
268.43	13.729
268.64	18.563
268.85	18.063
269.06	18.799
269.27	20.591
269.49	17.825
269.70	18.835
269.91	17.636
270.12	18.710
270.33	22.498
270.54	19.574
270.75	15.066
270.97	17.780
271.18	15.406
271.39	16.367
271.60	20.796
271.81	11.244
272.02	12.939
272.23	15.627
272.45	15.414
272.66	10.327
272.87	14.245
273.08	12.117
273.29	14.434
273.50	10.040
273.71	14.027
273.92	9.919
274.14	10.192
274.35	12.795
274.56	14.455
274.77	12.924
274.98	15.000
275.19	13.189
275.40	15.990
275.61	13.835
275.83	14.634
276.04	18.515
276.25	20.341
276.46	16.667
276.67	15.657
276.88	16.608
277.09	20.350
277.30	18.120
277.51	18.663
277.73	16.623
277.94	12.834
278.15	15.331
278.36	19.237
278.57	15.569
278.78	15.431
278.99	16.887
279.20	22.070
279.41	11.193
279.62	18.698
279.84	16.173
280.05	18.715
280.26	12.224
280.47	17.896
280.68	15.317
280.89	18.022
281.10	16.144
281.31	14.565
281.52	14.408
281.73	14.530
281.94	12.723
282.16	17.947
282.37	15.889
282.58	14.275
282.79	14.880
283.00	16.094
283.21	12.966
283.42	11.665
283.63	15.307
283.84	13.285
284.05	14.295
284.26	15.596
284.47	13.814
284.68	15.846
284.89	12.295
285.11	12.583
285.32	9.967
285.53	15.786
285.74	15.343
285.95	10.986
286.16	14.400
286.37	11.569
286.58	9.572
286.79	11.017
287.00	12.714
287.21	10.803
287.42	11.283
287.63	9.921
287.84	11.542
288.05	11.915
288.26	12.223
288.48	13.152
288.69	11.118
288.90	11.187
289.11	14.657
289.32	12.757
289.53	11.285
289.74	12.975
289.95	11.404
290.16	14.130
290.37	9.832
290.58	11.823
290.79	10.976
291.00	13.341
291.21	11.683
291.42	11.462
291.63	11.015
291.84	9.540
292.05	9.681
292.26	10.806
292.47	12.535
292.68	10.368
292.89	11.657
293.10	12.590
293.31	13.860
293.52	10.394
293.73	11.538
293.94	15.857
294.15	14.614
294.36	10.267
294.57	15.521
294.79	10.492
295.00	11.511
295.21	11.293
295.42	13.425
295.63	12.493
295.84	10.296
296.05	11.216
296.26	8.846
296.47	8.593
296.68	11.866
296.89	8.118
297.10	11.385
297.31	10.938
297.52	10.131
297.73	8.551
297.94	8.209
298.15	10.072
298.36	9.087
298.57	8.377
298.78	8.678
298.99	7.715
299.20	9.298
299.41	9.652
299.62	8.411
299.83	8.991
300.04	10.350
300.25	14.541
300.46	12.104
300.67	11.547
300.88	11.771
301.09	9.813
301.30	12.056
301.50	11.243
301.71	13.549
301.92	13.506
302.13	10.940
302.34	9.371
302.55	12.168
302.76	12.039
302.97	8.593
303.18	11.064
303.39	11.556
303.60	10.683
303.81	13.377
304.02	11.361
304.23	10.163
304.44	12.645
304.65	12.076
304.86	10.904
305.07	10.718
305.28	11.512
305.49	10.514
305.70	11.364
305.91	10.799
306.12	10.276
306.33	10.319
306.54	11.592
306.75	12.803
306.96	15.031
307.17	12.048
307.38	12.066
307.58	9.320
307.79	12.277
308.00	13.757
308.21	10.464
308.42	11.140
308.63	15.048
308.84	11.196
309.05	11.811
309.26	11.612
309.47	14.682
309.68	8.851
309.89	9.030
310.10	9.845
310.31	8.433
310.52	7.550
310.73	11.934
310.94	7.157
311.14	7.281
311.35	8.163
311.56	7.314
311.77	9.328
311.98	10.780
312.19	7.384
312.40	11.489
312.61	7.291
312.82	11.275
313.03	10.509
313.24	11.843
313.45	10.619
313.66	9.864
313.86	12.204
314.07	10.299
314.28	13.752
314.49	10.674
314.70	9.709
314.91	12.845
315.12	11.940
315.33	12.165
315.54	10.145
315.75	11.396
315.96	9.920
316.16	10.351
316.37	12.116
316.58	11.029
316.79	11.335
317.00	12.599
317.21	9.206
317.42	12.405
317.63	8.544
317.84	11.642
318.05	10.867
318.25	14.687
318.46	11.157
318.67	11.202
318.88	10.804
319.09	13.362
319.30	8.884
319.51	11.159
319.72	12.332
319.93	10.697
320.13	12.440
320.34	13.084
320.55	13.041
320.76	12.431
320.97	11.174
321.18	12.785
321.39	12.287
321.60	11.758
321.80	11.455
322.01	10.773
322.22	14.850
322.43	11.987
322.64	9.790
322.85	9.756
323.06	12.759
323.27	14.258
323.47	12.336
323.68	11.333
323.89	10.734
324.10	12.702
324.31	9.323
324.52	11.273
324.73	8.470
324.93	9.984
325.14	9.526
325.35	10.918
325.56	10.521
325.77	11.145
325.98	10.503
326.19	10.796
326.39	8.748
326.60	11.521
326.81	10.069
327.02	11.533
327.23	9.614
327.44	11.980
327.64	8.591
327.85	9.392
328.06	9.550
328.27	14.490
328.48	10.894
328.69	10.873
328.90	10.137
329.10	10.917
329.31	10.747
329.52	9.122
329.73	10.387
329.94	12.783
330.15	12.267
330.35	9.524
330.56	13.375
330.77	10.702
330.98	12.390
331.19	10.623
331.39	14.010
331.60	11.165
331.81	8.124
332.02	12.227
332.23	10.755
332.44	9.532
332.64	11.824
332.85	11.369
333.06	10.950
333.27	9.171
333.48	10.526
333.68	10.729
333.89	7.552
334.10	10.687
334.31	12.330
334.52	9.707
334.72	9.451
334.93	8.623
335.14	8.857
335.35	9.516
335.56	9.628
335.76	8.609
335.97	8.675
336.18	7.136
336.39	10.920
336.60	10.915
336.80	9.073
337.01	8.681
337.22	7.093
337.43	10.723
337.64	10.200
337.84	10.483
338.05	7.614
338.26	11.393
338.47	9.625
338.68	8.893
338.88	10.419
339.09	12.291
339.30	10.333
339.51	8.677
339.71	12.380
339.92	7.967
340.13	7.809
340.34	10.751
340.55	9.072
340.75	11.044
340.96	9.375
341.17	11.467
341.38	8.373
341.58	9.113
341.79	9.000
342.00	11.620
342.21	9.082
342.41	8.822
342.62	10.428
342.83	10.148
343.04	9.166
343.24	7.852
343.45	8.863
343.66	8.985
343.87	8.465
344.07	8.191
344.28	8.532
344.49	8.596
344.70	7.216
344.90	7.491
345.11	8.112
345.32	5.340
345.53	8.745
345.73	9.428
345.94	8.586
346.15	9.530
346.36	6.091
346.56	8.881
346.77	10.494
346.98	10.155
347.19	8.733
347.39	7.963
347.60	7.297
347.81	8.507
348.02	11.277
348.22	8.337
348.43	10.063
348.64	9.368
348.84	8.169
349.05	8.290
349.26	9.070
349.47	9.906
349.67	9.946
349.88	9.244
350.09	11.380
350.30	10.889
350.50	7.923
350.71	11.595
350.92	9.347
351.12	9.024
351.33	10.345
351.54	9.580
351.74	6.858
351.95	9.982
352.16	8.645
352.37	12.237
352.57	10.714
352.78	11.220
352.99	9.615
353.19	9.777
353.40	8.677
353.61	13.065
353.82	8.004
354.02	10.360
354.23	9.153
354.44	9.115
354.64	7.922
354.85	11.093
355.06	8.233
355.26	9.190
355.47	9.495
355.68	12.892
355.88	11.062
356.09	10.190
356.30	8.126
356.51	11.633
356.71	9.168
356.92	8.927
357.13	10.168
357.33	11.388
357.54	10.905
357.75	8.021
357.95	10.463
358.16	8.863
358.37	10.221
358.57	7.658
358.78	10.929
358.99	9.165
359.19	8.999
359.40	11.917
359.61	9.446
359.81	12.207
360.02	12.972
360.23	10.430
360.43	8.497
360.64	8.568
360.85	8.754
361.05	8.609
361.26	11.891
361.47	11.468
361.67	11.559
361.88	7.967
362.09	8.531
362.29	8.265
362.50	8.819
362.70	8.302
362.91	11.050
363.12	9.513
363.32	9.832
363.53	10.197
363.74	11.809
363.94	8.047
364.15	12.830
364.36	11.065
364.56	10.104
364.77	12.444
364.98	14.273
365.18	11.885
365.39	12.349
365.59	11.285
365.80	11.060
366.01	12.460
366.21	8.881
366.42	9.874
366.63	12.953
366.83	9.987
367.04	8.640
367.24	14.131
367.45	10.292
367.66	9.947
367.86	10.753
368.07	11.326
368.28	11.713
368.48	10.035
368.69	9.428
368.89	10.586
369.10	12.580
369.31	12.313
369.51	10.873
369.72	14.329
369.92	13.683
370.13	8.306
370.34	11.146
370.54	9.278
370.75	12.104
370.95	8.848
371.16	10.521
371.37	9.737
371.57	10.562
371.78	11.004
371.98	12.216
372.19	11.668
372.40	13.419
372.60	12.664
372.81	11.853
373.01	9.440
373.22	10.712
373.43	11.187
373.63	11.735
373.84	11.595
374.04	11.687
374.25	10.520
374.46	12.078
374.66	11.341
374.87	11.658
375.07	8.427
375.28	8.983
375.48	12.078
375.69	11.666
375.90	8.761
376.10	9.252
376.31	9.310
376.51	9.691
376.72	9.700
376.92	8.297
377.13	11.221
377.34	10.966
377.54	9.882
377.75	11.586
377.95	9.610
378.16	10.140
378.36	11.291
378.57	10.454
378.77	10.965
378.98	12.235
379.19	9.688
379.39	9.834
379.60	10.530
379.80	9.118
380.01	11.249
380.21	11.026
380.42	11.318
380.62	9.093
380.83	11.440
381.04	10.594
381.24	11.164
381.45	10.455
381.65	9.227
381.86	10.670
382.06	12.141
382.27	10.295
382.47	10.085
382.68	11.397
382.88	8.484
383.09	8.698
383.29	10.366
383.50	12.796
383.71	10.464
383.91	9.112
384.12	8.054
384.32	10.247
384.53	8.821
384.73	8.119
384.94	8.812
385.14	8.709
385.35	8.158
385.55	9.054
385.76	8.293
385.96	9.047
386.17	11.239
386.37	10.806
386.58	9.188
386.78	11.429
386.99	8.270
387.19	11.301
387.40	9.018
387.60	12.374
387.81	8.998
388.01	9.276
388.22	10.757
388.42	9.743
388.63	9.709
388.83	12.318
389.04	8.638
389.24	9.927
389.45	9.091
389.65	9.539
389.86	10.314
390.06	8.632
390.27	8.138
390.47	10.157
390.68	8.369
390.88	12.384
391.09	10.362
391.29	9.514
391.50	10.145
391.70	9.699
391.91	8.467
392.11	9.292
392.32	10.975
392.52	10.526
392.73	9.260
392.93	10.170
393.14	10.032
393.34	9.404
393.55	10.447
393.75	10.002
393.95	9.726
394.16	10.838
394.36	10.016
394.57	10.762
394.77	9.814
394.98	8.615
395.18	9.685
395.39	10.151
395.59	8.700
395.80	9.121
396.00	8.351
396.21	11.592
396.41	7.888
396.61	11.889
396.82	9.237
397.02	12.265
397.23	10.054
397.43	9.890
397.64	8.437
397.84	10.817
398.05	8.079
398.25	9.976
398.45	8.979
398.66	10.059
398.86	9.724
399.07	11.868
399.27	9.335
399.48	11.354
399.68	9.277
399.89	9.494
400.09	10.505
400.29	10.770
400.50	9.187
400.70	11.417
400.91	8.300
401.11	8.856
401.32	10.967
401.52	9.171
401.72	10.256
401.93	11.342
402.13	10.126
402.34	10.267
402.54	8.142
402.75	12.367
402.95	9.331
403.15	11.964
403.36	9.889
403.56	10.636
403.77	9.965
403.97	8.239
404.17	8.670
404.38	10.161
404.58	8.136
404.79	9.994
404.99	8.859
405.19	9.052
405.40	9.846
405.60	10.069
405.81	10.436
406.01	9.512
406.21	9.786
406.42	9.768
406.62	10.126
406.83	10.603
407.03	9.872
407.23	9.378
407.44	7.798
407.64	9.658
407.85	10.429
408.05	10.222
408.25	9.652
408.46	10.995
408.66	8.903
408.87	8.583
409.07	9.949
409.27	8.475
409.48	9.719
409.68	10.374
409.88	8.065
410.09	9.635
410.29	10.367
410.50	10.340
410.70	7.236
410.90	9.592
411.11	9.028
411.31	9.450
411.51	9.786
411.72	11.063
411.92	9.134
412.12	9.467
412.33	8.829
412.53	9.102
412.74	8.386
412.94	10.377
413.14	7.981
413.35	9.880
413.55	10.270
413.75	10.572
413.96	7.756
414.16	8.689
414.36	9.743
414.57	9.706
414.77	7.449
414.97	10.583
415.18	8.453
415.38	9.573
415.58	9.150
415.79	9.381
415.99	8.091
416.19	10.391
416.40	9.907
416.60	9.028
416.80	9.424
417.01	9.752
417.21	8.402
417.41	10.116
417.62	10.073
417.82	10.468
418.02	8.196
418.23	9.465
418.43	8.687
418.63	10.115
418.84	9.826
419.04	8.305
419.24	10.150
419.45	9.858
419.65	9.979
419.85	9.604
420.06	9.386
420.26	9.892
420.46	9.841
420.67	10.075
420.87	9.811
421.07	9.889
421.28	9.296
421.48	10.582
421.68	10.389
421.88	10.531
422.09	10.325
422.29	10.775
422.49	10.160
422.70	10.063
422.90	10.256
423.10	11.133
423.31	10.590
423.51	10.991
423.71	9.809
423.91	10.218
424.12	10.489
424.32	10.589
424.52	9.740
424.73	9.692
424.93	9.817
425.13	9.832
425.33	9.531
425.54	10.272
425.74	10.210
425.94	10.742
426.15	10.460
426.35	9.949
426.55	10.139
426.75	10.661
426.96	10.053
427.16	10.189
427.36	9.939
427.57	10.289
427.77	9.712
427.97	9.955
428.17	10.337
428.38	10.295
428.58	8.486
428.78	10.739
428.98	9.232
429.19	9.681
429.39	7.160
429.59	10.304
429.79	8.449
430.00	9.339
430.20	7.449
430.40	9.276
430.60	8.931
430.81	10.367
431.01	7.700
431.21	9.601
431.41	7.389
431.62	9.338
431.82	8.777
432.02	10.854
432.22	8.564
432.43	8.242
432.63	8.047
432.83	10.038
433.03	8.711
433.24	9.048
433.44	9.014
433.64	10.119
433.84	8.915
434.05	10.092
434.25	9.006
434.45	10.859
434.65	10.393
434.85	10.688
435.06	9.521
435.26	10.377
435.46	9.943
435.66	10.713
435.87	9.381
436.07	9.567
436.27	9.496
436.47	10.005
436.67	9.532
436.88	10.117
437.08	10.478
437.28	9.891
437.48	9.167
437.69	10.101
437.89	10.857
438.09	10.996
438.29	9.156
438.49	10.787
438.70	9.784
438.90	9.739
439.10	9.435
439.30	9.670
439.50	8.942
439.71	10.157
439.91	9.483
440.11	10.688
440.31	10.266
440.51	9.441
440.72	9.741
440.92	9.896
441.12	10.550
441.32	10.455
441.52	10.587
441.72	10.871
441.93	9.785
442.13	11.106
442.33	10.185
442.53	11.193
442.73	9.478
442.94	10.547
443.14	10.597
443.34	11.737
443.54	10.566
443.74	11.311
443.94	10.648
444.15	11.081
444.35	9.525
444.55	10.996
444.75	10.092
444.95	10.939
445.15	10.287
445.36	10.045
445.56	9.406
445.76	10.684
445.96	9.895
446.16	10.587
446.36	10.126
446.57	10.852
446.77	9.288
446.97	11.015
447.17	10.587
447.37	10.549
447.57	10.655
447.77	10.664
447.98	10.382
448.18	11.210
448.38	10.868
448.58	11.635
448.78	11.871
448.98	11.412
449.18	10.958
449.39	11.568
449.59	10.545
449.79	11.729
449.99	10.937
450.19	11.733
450.39	11.414
450.59	11.014
450.79	10.559
451.00	10.847
451.20	12.056
451.40	11.333
451.60	10.318
451.80	11.660
452.00	9.983
452.20	10.488
452.40	10.313
452.61	10.825
452.81	9.786
453.01	10.782
453.21	10.636
453.41	10.726
453.61	10.405
453.81	10.122
454.01	10.411
454.21	10.948
454.42	11.129
454.62	11.128
454.82	10.349
455.02	11.061
455.22	9.979
455.42	10.792
455.62	9.831
455.82	10.561
456.02	10.493
456.23	10.841
456.43	11.097
456.63	10.832
456.83	9.086
457.03	10.801
457.23	10.397
457.43	11.280
457.63	10.332
457.83	11.661
458.03	10.376
458.23	10.617
458.43	9.649
458.64	11.092
458.84	9.658
459.04	10.380
459.24	10.037
459.44	10.659
459.64	9.709
459.84	9.993
460.04	10.128
460.24	10.757
460.44	10.105
460.64	10.517
460.84	10.485
461.04	10.485
461.24	10.759
461.45	10.914
461.65	11.178
461.85	11.971
462.05	11.458
462.25	11.538
462.45	11.458
462.65	11.652
462.85	10.509
463.05	11.732
463.25	10.589
463.45	12.044
463.65	10.468
463.85	11.619
464.05	10.321
464.25	10.786
464.45	10.907
464.65	10.733
464.85	10.278
465.05	10.988
465.26	10.120
465.46	11.686
465.66	11.452
465.86	11.135
466.06	10.850
466.26	10.513
466.46	10.154
466.66	10.389
466.86	9.428
467.06	10.873
467.26	11.077
467.46	12.175
467.66	10.332
467.86	11.073
468.06	10.186
468.26	10.056
468.46	10.924
468.66	10.685
468.86	9.841
469.06	11.327
469.26	10.028
469.46	11.476
469.66	9.158
469.86	11.868
470.06	10.688
470.26	11.696
470.46	10.603
470.66	10.737
470.86	9.908
471.06	10.538
471.26	9.746
471.46	11.030
471.66	10.266
471.86	10.760
472.06	10.312
472.26	11.494
472.46	11.232
472.66	11.061
472.86	11.201
473.06	10.863
473.26	10.573
473.46	10.565
473.66	10.364
473.86	11.558
474.06	10.677
474.26	11.784
474.46	10.418
474.66	11.685
474.86	11.340
475.06	11.701
475.26	10.293
475.46	12.548
475.66	10.931
475.86	11.580
476.06	11.263
476.26	11.591
476.46	10.768
476.66	11.313
476.86	10.486
477.06	10.725
477.26	11.366
477.46	11.998
477.65	11.270
477.85	11.237
478.05	10.499
478.25	12.129
478.45	10.741
478.65	12.011
478.85	10.419
479.05	11.879
479.25	11.840
479.45	11.771
479.65	11.252
479.85	11.797
480.05	11.629
480.25	11.662
480.45	11.918
480.65	12.102
480.85	11.867
481.05	12.410
481.25	12.337
481.44	12.247
481.64	11.296
481.84	12.011
482.04	11.312
482.24	12.182
482.44	10.888
482.64	11.304
482.84	11.571
483.04	11.638
483.24	11.159
483.44	10.912
483.64	10.874
483.84	10.628
484.04	11.101
484.23	11.161
484.43	11.602
484.63	12.488
484.83	12.790
485.03	13.636
485.23	13.600
485.43	13.625
485.63	13.482
485.83	12.955
486.03	12.182
486.23	12.794
486.42	12.676
486.62	12.714
486.82	11.906
487.02	12.062
487.22	11.874
487.42	11.729
487.62	11.783
487.82	11.623
488.02	11.813
488.22	11.716
488.41	11.864
488.61	11.856
488.81	11.953
489.01	12.045
489.21	12.416
489.41	12.316
489.61	12.595
489.81	12.749
490.01	12.950
490.20	12.822
490.40	13.016
490.60	12.854
490.80	12.562
491.00	12.345
491.20	12.161
491.40	11.945
491.60	11.544
491.79	11.555
491.99	11.605
492.19	11.707
492.39	12.103
492.59	11.789
492.79	12.190
492.99	12.212
493.19	12.444
493.38	12.633
493.58	12.893
493.78	13.008
493.98	13.000
494.18	13.272
494.38	13.144
494.58	12.898
494.77	13.284
494.97	12.638
495.17	12.297
495.37	12.933
495.57	12.328
495.77	13.397
495.96	13.268
496.16	12.528
496.36	12.008
496.56	12.942
496.76	12.396
496.96	13.167
497.15	12.322
497.35	12.082
497.55	12.264
497.75	12.789
497.95	12.649
498.15	12.476
498.34	12.574
498.54	13.465
498.74	13.593
498.94	13.349
499.14	12.873
499.34	13.537
499.53	13.518
499.73	13.296
499.93	13.373
500.13	13.606
500.33	13.115
500.52	13.072
500.72	13.858
500.92	13.844
501.12	13.081
501.32	13.720
501.52	13.657
501.71	13.354
501.91	12.851
502.11	13.628
502.31	13.459
502.51	13.504
502.70	13.646
502.90	13.797
503.10	13.807
503.30	14.001
503.50	13.491
503.69	13.492
503.89	13.383
504.09	14.158
504.29	13.300
504.48	13.843
504.68	13.914
504.88	14.828
505.08	13.796
505.28	14.261
505.47	14.120
505.67	14.257
505.87	13.989
506.07	13.904
506.27	14.634
506.46	14.524
506.66	14.820
506.86	14.413
507.06	14.475
507.25	14.808
507.45	14.019
507.65	14.149
507.85	14.317
508.04	14.493
508.24	15.396
508.44	15.055
508.64	14.721
508.83	14.946
509.03	14.118
509.23	14.354
509.43	14.882
509.63	15.010
509.82	14.898
510.02	14.494
510.22	15.164
510.42	14.969
510.61	15.274
510.81	14.892
511.01	15.820
511.21	15.658
511.40	14.779
511.60	15.718
511.80	15.106
511.99	15.489
512.19	15.408
512.39	15.919
512.59	15.568
512.78	15.140
512.98	15.649
513.18	16.041
513.38	15.985
513.57	16.007
513.77	16.281
513.97	15.630
514.17	15.615
514.36	16.620
514.56	15.896
514.76	15.861
514.95	16.258
515.15	16.459
515.35	16.028
515.55	15.796
515.74	16.067
515.94	16.442
516.14	16.504
516.33	16.685
516.53	16.144
516.73	16.137
516.93	16.518
517.12	16.208
517.32	16.419
517.52	15.694
517.71	16.102
517.91	16.248
518.11	16.419
518.30	15.770
518.50	15.388
518.70	15.636
518.90	15.701
519.09	16.230
519.29	16.239
519.49	16.511
519.68	16.269
519.88	16.374
520.08	16.547
520.27	16.613
520.47	17.020
520.67	17.266
520.86	17.020
521.06	16.790
521.26	17.287
521.45	17.249
521.65	17.015
521.85	17.395
522.04	17.200
522.24	17.170
522.44	17.588
522.63	17.017
522.83	17.294
523.03	16.928
523.22	17.193
523.42	16.670
523.62	17.479
523.81	17.560
524.01	17.506
524.21	17.151
524.40	17.259
524.60	17.301
524.80	17.428
524.99	17.695
525.19	16.875
525.39	17.089
525.58	16.828
525.78	16.513
525.98	16.966
526.17	16.455
526.37	17.208
526.57	17.013
526.76	16.891
526.96	17.279
527.15	16.898
527.35	16.841
527.55	16.805
527.74	17.218
527.94	17.110
528.14	16.430
528.33	16.486
528.53	15.837
528.72	16.181
528.92	16.979
529.12	16.901
529.31	16.640
529.51	17.318
529.71	17.533
529.90	17.405
530.10	18.072
530.29	18.297
530.49	18.164
530.69	18.733
530.88	18.531
531.08	18.856
531.28	18.517
531.47	18.555
531.67	17.873
531.86	17.828
532.06	18.138
532.26	17.544
532.45	18.089
532.65	17.696
532.84	17.603
533.04	16.929
533.24	17.112
533.43	16.549
533.63	17.303
533.82	17.514
534.02	17.735
534.22	17.956
534.41	17.928
534.61	18.116
534.80	18.222
535.00	18.461
535.19	18.927
535.39	18.953
535.59	18.682
535.78	18.796
535.98	18.692
536.17	18.885
536.37	17.726
536.57	18.275
536.76	18.438
536.96	18.882
537.15	18.269
537.35	19.099
537.54	18.425
537.74	18.990
537.93	19.421
538.13	18.780
538.33	19.263
538.52	19.638
538.72	19.287
538.91	20.494
539.11	19.436
539.30	20.146
539.50	19.563
539.70	19.213
539.89	19.596
540.09	18.919
540.28	18.800
540.48	19.495
540.67	18.517
540.87	18.243
541.06	18.468
541.26	18.334
541.45	18.526
541.65	18.259
541.85	18.330
542.04	18.936
542.24	19.467
542.43	19.367
542.63	19.424
542.82	19.625
543.02	19.199
543.21	20.109
543.41	20.474
543.60	20.593
543.80	20.406
543.99	20.461
544.19	20.404
544.38	20.311
544.58	20.231
544.77	20.556
544.97	20.386
545.16	21.192
545.36	20.054
545.56	21.282
545.75	21.179
545.95	20.783
546.14	20.949
546.34	20.924
546.53	20.822
546.73	21.237
546.92	21.603
547.12	20.612
547.31	21.209
547.51	21.560
547.70	21.305
547.90	21.474
548.09	20.913
548.29	20.843
548.48	21.688
548.68	21.330
548.87	22.290
549.07	22.501
549.26	22.838
549.46	22.376
549.65	23.029
549.84	22.460
550.04	22.769
550.23	23.166
550.43	21.958
550.62	23.700
550.82	22.590
551.01	22.886
551.21	22.938
551.40	23.595
551.60	23.752
551.79	22.480
551.99	23.908
552.18	22.447
552.38	22.438
552.57	23.394
552.77	22.810
552.96	23.178
553.16	23.031
553.35	23.267
553.54	23.730
553.74	23.311
553.93	23.671
554.13	23.479
554.32	24.068
554.52	24.341
554.71	24.236
554.91	24.463
555.10	24.324
555.29	25.091
555.49	24.503
555.68	24.125
555.88	23.970
556.07	23.772
556.27	23.432
556.46	24.287
556.66	25.218
556.85	25.385
557.04	25.444
557.24	26.251
557.43	25.038
557.63	24.600
557.82	24.949
558.02	24.480
558.21	25.927
558.40	24.974
558.60	25.215
558.79	25.863
558.99	25.585
559.18	25.532
559.38	25.715
559.57	26.722
559.76	25.808
559.96	26.981
560.15	26.534
560.35	25.580
560.54	26.724
560.73	25.423
560.93	25.914
561.12	26.443
561.32	25.911
561.51	26.736
561.70	26.031
561.90	25.807
562.09	26.396
562.29	26.436
562.48	26.617
562.67	27.304
562.87	26.615
563.06	27.645
563.26	26.129
563.45	27.102
563.64	27.640
563.84	27.009
564.03	26.579
564.23	27.359
564.42	27.219
564.61	27.983
564.81	26.908
565.00	27.118
565.20	27.309
565.39	27.828
565.58	26.169
565.78	26.593
565.97	26.268
566.16	26.450
566.36	27.190
566.55	27.196
566.74	26.140
566.94	27.252
567.13	27.432
567.33	26.446
567.52	27.871
567.71	27.222
567.91	28.131
568.10	28.117
568.29	27.939
568.49	27.440
568.68	28.101
568.87	27.414
569.07	27.627
569.26	28.199
569.45	27.743
569.65	28.025
569.84	27.921
570.04	26.830
570.23	27.661
570.42	27.385
570.62	27.881
570.81	28.320
571.00	27.840
571.20	27.361
571.39	28.239
571.58	27.771
571.78	28.175
571.97	28.093
572.16	28.246
572.36	27.437
572.55	27.404
572.74	28.416
572.94	26.646
573.13	28.209
573.32	28.088
573.51	28.493
573.71	27.609
573.90	27.665
574.09	27.338
574.29	27.970
574.48	27.702
574.67	27.844
574.87	28.038
575.06	27.969
575.25	27.704
575.45	27.669
575.64	26.875
575.83	27.947
576.03	28.764
576.22	27.895
576.41	27.066
576.60	26.657
576.80	27.872
576.99	27.350
577.18	28.038
577.38	27.591
577.57	27.349
577.76	28.469
577.95	28.031
578.15	28.156
578.34	27.470
578.53	27.698
578.73	28.128
578.92	27.598
579.11	27.234
579.30	27.324
579.50	27.474
579.69	27.772
579.88	27.418
580.08	28.097
580.27	27.435
580.46	28.137
580.65	27.342
580.85	28.067
581.04	27.706
581.23	28.103
581.42	27.498
581.62	26.983
581.81	27.852
582.00	27.388
582.19	28.298
582.39	27.733
582.58	27.099
582.77	28.135
582.96	27.815
583.16	27.332
583.35	27.804
583.54	27.998
583.73	27.362
583.93	26.503
584.12	27.447
584.31	27.306
584.50	28.076
584.70	26.907
584.89	27.314
585.08	27.401
585.27	27.817
585.47	26.921
585.66	27.296
585.85	27.997
586.04	27.145
586.24	27.463
586.43	26.685
586.62	27.962
586.81	27.065
587.00	27.748
587.20	27.532
587.39	26.036
587.58	27.188
587.77	27.013
587.97	27.010
588.16	25.711
588.35	27.118
588.54	27.091
588.73	27.509
588.93	27.083
589.12	27.011
589.31	25.378
589.50	25.894
589.69	27.029
589.89	27.165
590.08	26.861
590.27	27.584
590.46	26.762
590.65	26.287
590.85	26.759
591.04	26.674
591.23	26.945
591.42	26.653
591.61	27.420
591.81	27.011
592.00	27.261
592.19	26.320
592.38	27.839
592.57	27.538
592.77	27.448
592.96	27.705
593.15	28.616
593.34	27.072
593.53	27.110
593.72	26.922
593.92	26.182
594.11	28.267
594.30	26.830
594.49	28.015
594.68	27.645
594.87	27.018
595.07	27.043
595.26	27.816
595.45	27.629
595.64	27.318
595.83	27.799
596.02	28.140
596.22	28.062
596.41	27.254
596.60	27.223
596.79	26.488
596.98	27.053
597.17	27.634
597.37	28.283
597.56	27.758
597.75	27.272
597.94	27.309
598.13	28.327
598.32	27.207
598.51	28.323
598.71	28.449
598.90	28.579
599.09	28.911
599.28	29.110
599.47	28.955
599.66	28.088
599.85	29.498
600.05	29.133
600.24	30.521
600.43	29.291
600.62	30.647
600.81	29.723
601.00	29.759
601.19	30.312
601.38	29.266
601.58	31.195
601.77	29.886
601.96	29.786
602.15	30.898
602.34	28.385
602.53	30.346
602.72	29.891
602.91	28.277
603.10	31.489
603.30	29.778
603.49	30.291
603.68	30.015
603.87	30.157
604.06	29.018
604.25	29.618
604.44	29.541
604.63	29.204
604.82	30.783
605.01	31.322
605.21	29.728
605.40	29.729
605.59	30.372
605.78	29.624
605.97	29.612
606.16	30.391
606.35	30.466
606.54	30.592
606.73	30.327
606.92	30.988
607.11	32.943
607.30	31.557
607.50	31.706
607.69	31.653
607.88	30.470
608.07	31.229
608.26	30.777
608.45	31.190
608.64	30.746
608.83	29.987
609.02	29.997
609.21	30.468
609.40	29.296
609.59	29.619
609.78	29.986
609.97	29.832
610.16	30.428
610.35	29.812
610.55	28.947
610.74	28.954
610.93	29.668
611.12	29.528
611.31	29.482
611.50	30.421
611.69	29.262
611.88	30.806
612.07	30.215
612.26	29.913
612.45	30.567
612.64	29.571
612.83	29.926
613.02	29.817
613.21	28.912
613.40	31.077
613.59	30.280
613.78	29.688
613.97	30.108
614.16	28.317
614.35	29.681
614.54	29.743
614.73	30.008
614.92	30.708
615.11	29.976
615.30	30.090
615.49	29.601
615.68	29.680
615.87	29.939
616.07	28.057
616.26	29.858
616.45	29.313
616.64	28.530
616.83	28.471
617.02	29.257
617.21	28.948
617.40	29.552
617.59	28.089
617.78	28.140
617.97	31.027
618.16	28.377
618.35	28.068
618.54	28.277
618.73	29.167
618.92	28.577
619.11	29.246
619.30	29.607
619.49	28.875
619.68	28.661
619.86	27.877
620.05	29.010
620.24	28.454
620.43	28.182
620.62	29.004
620.81	27.547
621.00	27.650
621.19	29.397
621.38	27.278
621.57	28.878
621.76	28.285
621.95	28.663
622.14	27.362
622.33	27.697
622.52	27.164
622.71	28.577
622.90	28.019
623.09	28.811
623.28	27.766
623.47	27.427
623.66	27.231
623.85	28.302
624.04	26.622
624.23	27.899
624.42	27.599
624.61	26.754
624.80	26.285
624.99	28.445
625.18	26.637
625.36	26.895
625.55	26.190
625.74	27.923
625.93	26.426
626.12	26.622
626.31	27.231
626.50	26.561
626.69	27.091
626.88	27.593
627.07	26.846
627.26	27.403
627.45	27.355
627.64	27.075
627.83	25.267
628.02	26.076
628.20	26.293
628.39	27.449
628.58	27.846
628.77	27.496
628.96	27.323
629.15	26.302
629.34	27.237
629.53	28.023
629.72	25.992
629.91	26.628
630.10	26.174
630.29	26.307
630.47	26.962
630.66	26.463
630.85	26.429
631.04	25.971
631.23	26.294
631.42	26.579
631.61	26.922
631.80	26.874
631.99	24.533
632.18	25.445
632.36	23.519
632.55	28.058
632.74	25.462
632.93	27.095
633.12	26.390
633.31	26.737
633.50	26.456
633.69	26.258
633.88	23.347
634.06	27.717
634.25	24.841
634.44	24.762
634.63	26.417
634.82	26.480
635.01	25.309
635.20	26.156
635.39	25.666
635.57	26.647
635.76	26.887
635.95	26.773
636.14	26.825
636.33	26.045
636.52	26.076
636.71	26.030
636.89	25.549
637.08	26.033
637.27	24.713
637.46	25.851
637.65	26.926
637.84	25.644
638.03	26.892
638.21	27.694
638.40	24.894
638.59	25.801
638.78	25.812
638.97	26.328
639.16	26.286
639.34	26.485
639.53	24.924
639.72	26.375
639.91	25.334
640.10	26.000
640.29	25.981
640.47	27.703
640.66	24.879
640.85	27.268
641.04	24.359
641.23	25.502
641.42	25.696
641.60	25.580
641.79	26.000
641.98	27.637
642.17	25.375
642.36	25.051
642.54	25.558
642.73	25.018
642.92	24.673
643.11	26.238
643.30	25.944
643.49	27.013
643.67	25.078
643.86	27.459
644.05	24.172
644.24	25.156
644.43	25.575
644.61	26.331
644.80	24.825
644.99	24.889
645.18	25.689
645.37	25.317
645.55	25.248
645.74	25.163
645.93	24.701
646.12	25.448
646.31	25.245
646.49	25.851
646.68	24.323
646.87	25.326
647.06	24.954
647.24	25.238
647.43	24.742
647.62	26.940
647.81	22.989
648.00	26.220
648.18	24.179
648.37	24.317
648.56	25.169
648.75	25.342
648.93	22.726
649.12	24.630
649.31	24.083
649.50	24.875
649.68	26.219
649.87	23.600
650.06	23.242
650.25	24.376
650.43	24.417
650.62	24.486
650.81	25.260
651.00	23.777
651.18	24.382
651.37	25.498
651.56	22.899
651.75	26.674
651.93	23.988
652.12	25.957
652.31	23.496
652.50	25.140
652.68	25.400
652.87	25.989
653.06	24.886
653.25	25.064
653.43	24.578
653.62	25.085
653.81	24.920
654.00	25.824
654.18	24.751
654.37	25.793
654.56	24.131
654.74	23.622
654.93	22.705
655.12	24.186
655.31	22.783
655.49	23.999
655.68	21.686
655.87	23.317
656.05	22.781
656.24	22.649
656.43	20.530
656.62	22.935
656.80	21.652
656.99	23.447
657.18	20.980
657.36	20.959
657.55	21.551
657.74	22.404
657.93	22.411
658.11	23.563
658.30	21.219
658.49	22.012
658.67	21.181
658.86	20.410
659.05	21.174
659.23	22.511
659.42	19.327
659.61	21.542
659.79	19.112
659.98	21.441
660.17	19.699
660.35	20.012
660.54	21.427
660.73	21.539
660.91	21.081
661.10	21.607
661.29	17.739
661.47	20.384
661.66	18.986
661.85	20.189
662.03	18.283
662.22	17.352
662.41	15.835
662.59	17.040
662.78	16.363
662.97	18.351
663.15	14.898
663.34	17.758
663.53	15.409
663.71	17.198
663.90	15.129
664.09	17.868
664.27	17.717
664.46	17.562
664.65	15.380
664.83	14.062
665.02	15.351
665.21	14.440
665.39	12.814
665.58	15.040
665.77	14.124
665.95	16.470
666.14	14.602
666.32	15.697
666.51	14.236
666.70	13.005
666.88	13.288
667.07	15.460
667.26	12.152
667.44	14.540
667.63	14.837
667.81	12.817
668.00	13.122
668.19	15.331
668.37	14.135
668.56	15.962
668.75	11.567
668.93	15.516
669.12	13.054
669.30	14.976
669.49	11.748
669.68	14.098
669.86	14.442
670.05	12.106
670.23	12.370
670.42	13.762
670.61	13.308
670.79	14.627
670.98	13.824
671.16	16.134
671.35	12.227
671.54	14.318
671.72	12.256
671.91	13.510
672.09	10.918
672.28	14.801
672.46	16.689
672.65	15.439
672.84	15.188
673.02	14.951
673.21	10.325
673.39	12.658
673.58	14.008
673.77	15.346
673.95	14.227
674.14	16.627
674.32	13.440
674.51	16.953
674.69	14.048
674.88	13.824
675.07	12.829
675.25	17.568
675.44	12.933
675.62	14.351
675.81	10.801
675.99	21.328
676.18	16.217
676.36	13.735
676.55	13.866
676.74	16.080
676.92	16.531
677.11	14.950
677.29	13.126
677.48	17.551
677.66	15.150
677.85	14.834
678.03	13.996
678.22	16.479
678.40	16.494
678.59	15.387
678.78	13.419
678.96	15.448
679.15	14.038
679.33	17.105
679.52	16.817
679.70	15.629
679.89	15.852
680.07	16.887
680.26	15.250
680.44	16.821
680.63	15.653
680.81	16.570
681.00	14.813
681.18	16.326
681.37	16.435
681.55	16.961
681.74	17.086
681.92	17.503
682.11	17.785
682.29	17.894
682.48	17.892
682.66	18.498
682.85	16.610
683.03	19.749
683.22	19.281
683.40	19.409
683.59	17.649
683.77	19.359
683.96	16.358
684.14	20.218
684.33	16.085
684.51	22.755
684.70	18.877
684.88	22.708
685.07	19.248
685.25	20.887
685.44	18.302
685.62	20.389
685.81	17.013
685.99	22.915
686.18	20.282
686.36	23.718
686.55	17.963
686.73	22.199
686.92	22.498
687.10	22.266
687.29	23.238
687.47	24.006
687.65	24.350
687.84	23.440
688.02	26.202
688.21	28.076
688.39	23.904
688.58	27.123
688.76	24.199
688.95	26.224
689.13	24.054
689.32	29.100
689.50	27.043
689.68	27.343
689.87	26.995
690.05	28.030
690.24	30.417
690.42	29.474
690.61	29.177
690.79	32.117
690.98	28.663
691.16	30.283
691.34	27.667
691.53	31.866
691.71	30.629
691.90	31.724
692.08	30.971
692.27	36.042
692.45	34.704
692.63	35.244
692.82	35.313
693.00	36.306
693.19	33.502
693.37	40.729
693.56	33.951
693.74	37.416
693.92	38.029
694.11	39.871
694.29	37.873
694.48	43.536
694.66	39.940
694.84	42.814
695.03	41.322
695.21	43.909
695.40	45.321
695.58	46.414
695.76	40.222
695.95	45.455
696.13	44.869
696.32	45.977
696.50	51.883
696.68	45.586
696.87	46.257
697.05	46.049
697.24	46.085
697.42	49.636
697.60	46.664
697.79	47.040
697.97	48.132
698.16	51.026
698.34	48.478
698.52	48.661
698.71	48.734
698.89	50.389
699.07	48.999
699.26	49.560
699.44	51.546
699.63	52.656
699.81	48.476
699.99	50.981
700.18	52.041
700.36	52.428
700.54	53.459
700.73	51.201
700.91	51.655
701.09	52.421
701.28	56.274
701.46	54.539
701.64	57.466
701.83	56.952
702.01	57.513
702.20	59.543
702.38	57.912
702.56	57.149
702.75	61.739
702.93	57.855
703.11	58.404
703.30	60.752
703.48	60.677
703.66	63.330
703.85	61.304
704.03	64.907
704.21	61.470
704.40	63.435
704.58	62.944
704.76	63.370
704.95	61.930
705.13	63.963
705.31	64.201
705.50	64.890
705.68	64.416
705.86	70.258
706.04	65.524
706.23	64.777
706.41	67.538
706.59	63.491
706.78	64.000
706.96	69.578
707.14	66.454
707.33	64.101
707.51	64.706
707.69	69.278
707.88	66.857
708.06	67.090
708.24	66.261
708.42	69.067
708.61	66.003
708.79	66.847
708.97	70.292
709.16	70.185
709.34	68.964
709.52	64.035
709.71	67.441
709.89	68.648
710.07	66.571
710.25	65.483
710.44	68.579
710.62	68.414
710.80	67.844
710.98	67.717
711.17	66.667
711.35	65.919
711.53	66.799
711.72	64.737
711.90	66.895
712.08	70.481
712.26	67.589
712.45	66.595
712.63	69.766
712.81	68.285
712.99	68.052
713.18	71.273
713.36	71.338
713.54	67.955
713.72	66.918
713.91	68.155
714.09	69.825
714.27	67.736
714.45	73.284
714.64	69.396
714.82	68.146
715.00	69.905
715.18	67.515
715.37	69.456
715.55	68.496
715.73	71.545
715.91	68.363
716.10	69.546
716.28	67.306
716.46	71.683
716.64	70.296
716.83	71.757
717.01	68.239
717.19	68.025
717.37	69.344
717.55	71.090
717.74	69.455
717.92	66.968
718.10	69.136
718.28	70.979
718.47	70.264
718.65	72.824
718.83	73.016
719.01	73.423
719.19	71.491
719.38	67.632
719.56	71.766
719.74	70.959
719.92	69.560
720.10	71.804
720.29	72.364
720.47	72.448
720.65	73.309
720.83	74.621
721.01	69.661
721.20	68.926
721.38	75.317
721.56	69.292
721.74	73.019
721.92	73.991
722.11	76.585
722.29	74.665
722.47	78.858
722.65	76.871
722.83	72.897
723.01	76.071
723.20	71.803
723.38	77.225
723.56	74.544
723.74	75.827
723.92	71.156
724.10	79.027
724.29	75.016
724.47	78.706
724.65	80.118
724.83	76.899
725.01	74.871
725.19	74.723
725.38	72.260
725.56	74.417
725.74	74.762
725.92	73.563
726.10	78.934
726.28	72.175
726.46	76.527
726.65	77.618
726.83	75.474
727.01	82.846
727.19	72.156
727.37	76.803
727.55	73.895
727.73	72.816
727.92	75.284
728.10	77.061
728.28	70.828
728.46	77.031
728.64	76.027
728.82	77.116
729.00	73.169
729.19	76.809
729.37	72.035
729.55	73.287
729.73	72.807
729.91	78.177
730.09	72.420
730.27	73.194
730.45	73.575
730.63	71.240
730.82	73.000
731.00	76.392
731.18	74.684
731.36	76.880
731.54	76.990
731.72	76.754
731.90	76.663
732.08	77.398
732.26	77.707
732.45	75.174
732.63	81.493
732.81	75.625
732.99	75.868
733.17	76.177
733.35	74.241
733.53	76.198
733.71	73.146
733.89	76.869
734.07	82.652
734.25	79.865
734.44	74.957
734.62	74.116
734.80	78.172
734.98	77.155
735.16	80.171
735.34	74.708
735.52	78.677
735.70	82.053
735.88	82.407
736.06	77.432
736.24	85.793
736.42	79.377
736.60	81.195
736.78	83.697
736.97	84.561
737.15	78.566
737.33	82.953
737.51	82.690
737.69	85.501
737.87	82.247
738.05	82.771
738.23	82.677
738.41	80.956
738.59	82.158
738.77	82.336
738.95	84.375
739.13	76.545
739.31	81.311
739.49	82.094
739.67	80.501
739.85	78.045
740.03	81.917
740.21	82.639
740.39	82.074
740.57	83.631
740.75	78.512
740.93	81.725
741.11	81.408
741.30	80.075
741.48	87.661
741.66	80.398
741.84	84.211
742.02	79.817
742.20	80.992
742.38	86.068
742.56	86.563
742.74	85.648
742.92	82.935
743.10	81.538
743.28	84.886
743.46	84.720
743.64	80.474
743.82	91.029
744.00	88.684
744.18	83.089
744.36	86.356
744.54	85.068
744.72	87.086
744.90	93.142
745.08	90.752
745.26	82.235
745.44	89.442
745.62	87.213
745.80	78.768
745.98	84.936
746.16	83.625
746.34	85.586
746.52	85.780
746.70	90.009
746.87	86.368
747.05	85.159
747.23	85.149
747.41	86.501
747.59	89.551
747.77	82.960
747.95	92.517
748.13	89.086
748.31	89.867
748.49	81.969
748.67	89.863
748.85	88.959
749.03	82.516
749.21	91.904
749.39	92.367
749.57	80.920
749.75	83.122
749.93	97.628
750.11	85.410
750.29	82.788
750.47	86.758
750.65	83.865
750.83	86.655
751.01	85.228
751.18	85.925
751.36	86.264
751.54	85.467
751.72	82.957
751.90	81.602
752.08	89.041
752.26	86.433
752.44	82.946
752.62	83.543
752.80	85.396
752.98	87.328
753.16	95.191
753.34	90.844
753.52	89.231
753.69	87.640
753.87	90.081
754.05	85.764
754.23	82.337
754.41	86.399
754.59	85.596
754.77	88.408
754.95	85.859
755.13	86.713
755.31	89.271
755.49	87.130
755.66	81.009
755.84	87.149
756.02	89.831
756.20	87.577
756.38	81.786
756.56	87.769
756.74	81.108
756.92	83.106
757.10	82.936
757.28	98.362
757.45	83.824
757.63	84.581
757.81	85.634
757.99	89.076
758.17	84.948
758.35	83.560
758.53	84.011
758.71	83.965
758.88	83.245
759.06	82.929
759.24	82.212
759.42	78.093
759.60	82.507
759.78	82.378
759.96	73.957
760.13	77.962
760.31	74.245
760.49	74.033
760.67	64.578
760.85	67.170
761.03	68.075
761.21	69.516
761.38	64.421
761.56	75.192
761.74	63.123
761.92	72.896
762.10	65.926
762.28	70.546
762.46	68.797
762.63	66.983
762.81	69.447
762.99	72.347
763.17	68.387
763.35	72.510
763.53	70.418
763.70	70.618
763.88	71.343
764.06	68.603
764.24	66.827
764.42	70.952
764.60	70.632
764.77	71.341
764.95	68.402
765.13	72.020
765.31	70.483
765.49	69.274
765.66	72.029
765.84	72.665
766.02	74.537
766.20	76.958
766.38	72.570
766.56	77.949
766.73	74.539
766.91	81.991
767.09	77.038
767.27	80.926
767.45	79.293
767.62	80.960
767.80	76.725
767.98	84.215
768.16	76.265
768.33	89.269
768.51	81.919
768.69	80.612
768.87	82.488
769.05	85.754
769.22	90.576
769.40	93.327
769.58	81.302
769.76	85.687
769.94	79.897
770.11	86.159
770.29	90.703
770.47	91.535
770.65	92.240
770.82	86.481
771.00	83.763
771.18	96.120
771.36	91.787
771.53	91.705
771.71	95.476
771.89	90.888
772.07	92.453
772.25	89.791
772.42	87.805
772.60	96.770
772.78	87.531
772.96	87.762
773.13	90.398
773.31	95.104
773.49	92.510
773.67	95.506
773.84	87.179
774.02	96.535
774.20	88.179
774.37	93.493
774.55	90.463
774.73	94.974
774.91	92.607
775.08	95.244
775.26	93.387
775.44	95.762
775.62	101.330
775.79	88.151
775.97	89.583
776.15	94.327
776.32	96.862
776.50	92.686
776.68	93.149
776.86	97.286
777.03	94.952
777.21	94.228
777.39	82.700
777.56	92.460
777.74	94.513
777.92	95.267
778.10	95.007
778.27	89.586
778.45	86.408
778.63	86.908
778.80	87.483
778.98	91.521
779.16	88.633
779.34	104.478
779.51	93.901
779.69	93.611
779.87	88.011
780.04	89.160
780.22	96.137
780.40	92.208
780.57	85.507
780.75	88.382
780.93	87.259
781.10	91.059
781.28	102.911
781.46	86.639
781.63	93.829
781.81	94.759
781.99	90.780
782.16	88.921
782.34	91.066
782.52	101.097
782.69	81.325
782.87	92.970
783.05	97.325
783.22	102.601
783.40	91.738
783.58	95.994
783.75	90.390
783.93	95.391
784.11	89.280
784.28	94.562
784.46	80.694
784.64	99.024
784.81	90.620
784.99	100.159
785.17	98.136
785.34	91.933
785.52	93.553
785.69	90.288
785.87	94.830
786.05	87.950
786.22	95.367
786.40	107.450
786.58	86.344
786.75	86.246
786.93	89.338
787.11	90.547
787.28	97.054
787.46	96.462
787.63	92.698
787.81	88.175
787.99	85.141
788.16	86.227
788.34	83.885
788.51	85.131
788.69	83.737
788.87	82.148
789.04	82.810
789.22	83.270
789.39	77.054
789.57	83.208
789.75	88.462
789.92	93.398
790.10	79.404
790.27	86.842
790.45	80.201
790.63	92.329
790.80	80.677
790.98	97.712
791.15	86.585
791.33	87.055
791.51	89.068
791.68	96.724
791.86	80.521
792.03	87.834
792.21	85.878
792.39	90.635
792.56	88.962
792.74	88.819
792.91	83.987
793.09	88.856
793.26	87.692
793.44	89.769
793.62	79.305
793.79	92.228
793.97	82.902
794.14	86.486
794.32	96.309
794.49	97.619
794.67	79.633
794.84	90.287
795.02	93.451
795.20	94.900
795.37	82.712
795.55	87.601
795.72	85.261
795.90	85.329
796.07	81.229
796.25	85.802
796.42	88.149
796.60	92.845
796.77	82.250
796.95	85.845
797.13	72.298
797.30	88.957
797.48	77.273
797.65	79.740
797.83	77.177
798.00	86.400
798.18	79.585
798.35	89.406
798.53	85.135
798.70	88.625
798.88	82.812
799.05	79.094
799.23	75.655
799.40	96.379
799.58	82.474
799.75	80.551
799.93	83.728
800.10	78.909
800.28	86.632
800.45	83.886
800.63	87.290
800.80	98.032
800.98	87.992
801.15	85.320
801.33	84.063
801.50	93.496
801.68	83.181
801.85	82.332
802.03	87.327
802.20	84.922
802.38	79.010
802.55	82.832
802.73	84.790
802.90	81.373
803.08	85.338
803.25	91.255
803.43	81.343
803.60	102.148
803.78	83.957
803.95	88.448
804.13	86.888
804.30	88.975
804.48	74.225
804.65	88.650
804.83	85.664
805.00	82.918
805.17	90.792
805.35	90.000
805.52	80.000
805.70	84.201
805.87	95.316
806.05	82.341
806.22	81.874
806.40	82.807
806.57	80.479
806.75	90.070
806.92	81.436
807.09	84.466
807.27	77.519
807.44	89.394
807.62	79.482
807.79	77.889
807.97	91.182
808.14	83.091
808.31	80.000
808.49	73.063
808.66	73.432
808.84	95.122
809.01	87.640
809.19	84.180
809.36	86.438
809.53	86.301
809.71	91.650
809.88	87.185
810.06	87.903
810.23	89.565
810.41	85.246
810.58	93.233
810.75	81.750
810.93	95.833
811.10	75.591
811.28	80.677
811.45	99.544
811.62	97.577
811.80	92.070
811.97	97.727
812.15	93.763
812.32	91.111
812.49	94.431
812.67	77.155
812.84	88.989
813.02	84.774
813.19	72.600
813.36	77.223
813.54	73.203
813.71	88.337
813.89	84.504
814.06	86.355
814.23	83.019
814.41	96.222
814.58	76.383
814.75	79.528
814.93	86.547
815.10	93.822
815.28	88.136
815.45	79.087
815.62	81.693
815.80	74.107
815.97	71.856
816.14	101.015
816.32	75.000
816.49	77.686
816.66	78.891
816.84	87.935
817.01	89.524
817.18	79.158
817.36	70.175
817.53	87.359
817.71	71.059
817.88	82.677
818.05	76.123
818.23	72.047
818.40	72.377
818.57	82.472
818.75	74.413
818.92	84.956
819.09	71.456
819.27	82.365
819.44	74.836
819.61	75.911
819.79	65.657
819.96	82.184
820.13	77.797
820.31	68.581
820.48	83.303
820.65	76.452
820.82	71.494
821.00	73.184
821.17	63.258
821.34	78.543
821.52	67.958
821.69	67.695
821.86	66.667
822.04	72.540
822.21	66.420
822.38	70.443
822.56	65.596
822.73	65.621
822.90	63.567
823.07	66.454
823.25	64.751
823.42	65.103
823.59	66.700
823.77	62.610
823.94	62.887
824.11	64.212
824.29	62.217
824.46	61.477
824.63	68.206
824.80	64.886
824.98	67.280
825.15	65.469
825.32	65.444
825.49	67.139
825.67	67.817
825.84	65.360
826.01	63.767
826.19	73.026
826.36	66.000
826.53	72.162
826.70	66.779
826.88	76.876
827.05	64.268
827.22	67.775
827.39	67.363
827.57	66.965
827.74	62.861
827.91	67.770
828.08	65.342
828.26	67.323
828.43	66.874
828.60	66.195
828.77	64.311
828.95	67.742
829.12	58.095
829.29	64.524
829.46	62.392
829.64	63.842
829.81	58.010
829.98	72.618
830.15	63.886
830.32	62.986
830.50	60.468
830.67	73.748
830.84	59.814
831.01	68.147
831.19	70.185
831.36	70.906
831.53	74.480
831.70	73.855
831.87	67.928
832.05	82.103
832.22	86.170
832.39	67.177
832.56	58.134
832.74	65.904
832.91	65.703
833.08	73.646
833.25	59.300
833.42	70.181
833.60	65.785
833.77	60.000
833.94	60.103
834.11	60.554
834.28	58.120
834.45	62.885
834.63	60.912
834.80	64.737
834.97	64.440
835.14	65.275
835.31	66.867
835.49	65.109
835.66	55.148
835.83	61.099
836.00	59.390
836.17	60.746
836.34	64.728
836.52	62.821
836.69	66.416
836.86	65.050
837.03	70.819
837.20	65.341
837.37	65.719
837.55	58.790
837.72	66.294
837.89	73.661
838.06	83.575
838.23	75.158
838.40	69.880
838.58	60.138
838.75	101.534
838.92	89.275
839.09	106.962
839.26	90.423
839.43	102.778
839.60	100.643
839.78	105.901
839.95	89.286
840.12	85.380
840.29	78.947
840.46	101.869
840.63	84.488
840.80	86.280
840.98	104.132
841.15	66.244
841.32	86.592
841.49	76.033
841.66	81.081
841.83	68.794
842.00	80.453
842.17	91.341
842.34	88.858
842.52	91.818
842.69	90.823
842.86	78.022
843.03	93.248
843.20	93.660
843.37	102.778
843.54	87.713
843.71	102.500
843.88	96.715
844.06	143.220
844.23	121.610
844.40	119.492
844.57	118.595
844.74	110.776
844.91	131.841
845.08	129.944
845.25	134.043
845.42	131.844
845.59	99.180
845.76	133.333
845.94	149.444
846.11	114.356
846.28	106.773
846.45	117.204
846.62	133.000
846.79	89.451
846.96	118.132
847.13	151.087
847.30	121.469
847.47	109.794
847.64	99.184
847.81	136.029
847.98	104.324
848.15	125.698
848.32	133.161
848.50	119.000
848.67	105.325
848.84	137.278
849.01	135.252
849.18	121.176
849.35	123.333
849.52	103.175
849.69	144.505
849.86	158.784
850.03	162.810
850.20	158.000
850.37	126.471
850.54	159.043
850.71	124.479
850.88	157.419
851.05	128.261
851.22	148.795
851.39	121.925
851.56	211.207
851.73	169.643
851.90	143.791
852.07	108.772
852.24	156.209
852.41	105.076
852.58	119.672
852.75	140.698
852.92	134.807
853.09	141.830
853.26	126.144
853.43	123.529
853.60	138.095
853.77	131.285
853.94	136.283
854.11	137.778
854.28	150.000
854.45	142.857
854.62	125.581
854.79	159.394
854.96	148.611
855.13	147.799
855.30	143.796
855.47	177.419
855.64	108.075
855.81	183.453
855.98	170.229
856.15	137.692
856.32	100.474
856.49	155.367
856.66	130.128
856.83	132.075
857.00	161.475
857.17	153.226
857.34	120.652
857.51	148.592
857.68	144.898
857.85	143.529
858.02	163.946
858.19	120.442
858.36	146.552
858.53	139.645
858.70	134.066
858.87	162.069
859.04	135.294
859.21	145.455
859.38	115.207
859.55	164.773
859.72	145.833
859.89	183.916
860.05	162.590
860.22	156.970
860.39	179.310
860.56	146.429
860.73	168.452
860.90	155.090
861.07	140.500
861.24	141.176
861.41	147.977
861.58	151.299
861.75	138.583
861.92	120.625
862.09	130.151
862.26	149.032
862.43	182.000
862.59	129.605
862.76	130.570
862.93	196.154
863.10	158.088
863.27	131.538
863.44	140.650
863.61	139.855
863.78	126.738
863.95	150.610
864.12	188.462
864.29	192.373
864.45	132.704
864.62	183.740
864.79	147.647
864.96	258.654
865.13	158.394
865.30	204.082
865.47	150.345
865.64	162.937
865.81	147.368
865.97	101.887
866.14	106.952
866.31	150.820
866.48	118.310
866.65	121.472
866.82	159.060
866.99	141.429
867.16	110.078
867.33	157.447
867.49	125.301
867.66	148.507
867.83	113.839
868.00	127.419
868.17	158.015
868.34	192.126
868.51	137.324
868.67	144.048
868.84	140.000
869.01	142.069
869.18	153.600
869.35	139.716
869.52	176.642
869.69	140.299
869.85	132.432
870.02	107.609
870.19	164.615
870.36	156.115
870.53	230.952
870.70	221.429
870.86	126.623
871.03	151.095
871.20	161.345
871.37	140.828
871.54	168.868
871.71	162.879
871.87	205.155
872.04	101.250
872.21	181.061
872.38	219.277
872.55	171.429
872.72	141.304
872.88	160.833
873.05	107.487
873.22	161.667
873.39	126.829
873.56	94.245
873.72	121.547
873.89	126.115
874.06	137.705
874.23	162.319
874.40	136.000
874.56	187.879
874.73	190.833
874.90	158.219
875.07	160.305
875.24	132.317
875.40	152.679
875.57	181.746
875.74	148.750
875.91	169.048
876.08	137.857
876.24	130.769
876.41	170.677
876.58	164.964
876.75	149.677
876.92	198.718
877.08	140.876
877.25	145.455
877.42	125.385
877.59	119.880
877.75	106.604
877.92	119.767
878.09	128.947
878.26	132.877
878.42	154.074
878.59	136.932
878.76	135.450
878.93	127.152
879.09	137.415
879.26	101.923
879.43	124.479
879.60	118.182
879.76	108.205
879.93	104.569
880.10	91.163
880.27	83.111
880.43	106.122
880.60	88.263
880.77	88.627
880.94	79.286
881.10	81.379
881.27	69.061
881.44	57.701
881.61	54.326
881.77	59.410
881.94	51.577
882.11	44.379
882.28	54.348
882.44	46.903
882.61	56.773
882.78	48.346
882.94	59.358
883.11	54.742
883.28	54.314
883.45	61.280
883.61	57.605
883.78	53.659
883.95	57.560
884.11	53.511
884.28	53.488
>>>>>End Processed Spectral Data<<<<<
