SpectraSuite Data File
++++++++++++++++++++++++++++++++++++
Date: Fri Sep 20 02:55:14 EST 2019
User: sgrac
Dark Spectrum Present: Yes
Reference Spectrum Present: Yes
Number of Sampled Component Spectra: 1
Spectrometers: USB4E01596
Integration Time (usec): 100000 (USB4E01596)
Spectra Averaged: 1 (USB4E01596)
Boxcar Smoothing: 0 (USB4E01596)
Correct for Electrical Dark: No (USB4E01596)
Strobe/Lamp Enabled: Yes (USB4E01596)
Correct for Detector Non-linearity: No (USB4E01596)
Correct for Stray Light: No (USB4E01596)
Number of Pixels in Processed Spectrum: 3648
>>>>>Begin Processed Spectral Data<<<<<
178.44	204.348
178.66	204.348
178.87	204.348
179.09	-275.000
179.30	46.667
179.52	378.571
179.74	1580.000
179.95	-162.857
180.17	-518.750
180.38	-356.250
180.60	-212.903
180.82	321.739
181.03	-1475.000
181.25	-730.000
181.46	-800.000
181.68	0.000
181.89	10300.000
182.11	925.000
182.33	676.923
182.54	-125.714
182.76	212.000
182.97	281.481
183.19	1033.333
183.40	-468.750
183.62	700.000
183.84	-262.500
184.05	0.000
184.27	5800.000
184.48	290.000
184.70	4700.000
184.91	846.154
185.13	290.909
185.34	190.741
185.56	-176.190
185.78	326.316
185.99	-3700.000
186.21	367.857
186.42	625.000
186.64	171.642
186.85	133.333
187.07	575.000
187.28	-62.162
187.50	-527.273
187.72	175.000
187.93	9100.000
188.15	372.727
188.36	173.077
188.58	400.000
188.79	1950.000
189.01	320.588
189.22	725.000
189.44	265.957
189.65	-560.000
189.87	285.714
190.09	255.556
190.30	-1420.000
190.52	380.488
190.73	403.704
190.95	-538.462
191.16	-500.000
191.38	-378.261
191.59	900.000
191.81	172.500
192.02	235.000
192.24	192.063
192.45	228.571
192.67	295.455
192.88	0.000
193.10	311.765
193.31	-520.000
193.53	195.455
193.74	205.263
193.96	890.000
194.18	197.101
194.39	198.000
194.61	356.667
194.82	317.241
195.04	666.667
195.25	182.979
195.47	389.474
195.68	-980.000
195.90	2300.000
196.11	2250.000
196.33	-344.444
196.54	410.345
196.76	84.444
196.97	461.111
197.19	-394.444
197.40	252.778
197.62	-221.429
197.83	646.667
198.05	315.789
198.26	236.364
198.48	666.667
198.69	291.429
198.91	957.143
199.12	272.500
199.34	203.077
199.55	-754.545
199.77	515.000
199.98	1020.000
200.20	300.000
200.41	330.303
200.63	-1520.000
200.84	392.683
201.06	-8200.000
201.27	417.647
201.49	188.525
201.70	623.529
201.91	681.250
202.13	340.000
202.34	2375.000
202.56	771.429
202.77	-1450.000
202.99	573.333
203.20	333.333
203.42	-235.714
203.63	348.387
203.85	-166.667
204.06	3266.667
204.28	-1800.000
204.49	928.571
204.71	187.500
204.92	922.222
205.14	0.000
205.35	346.667
205.56	275.000
205.78	317.949
205.99	232.432
206.21	248.276
206.42	2083.333
206.64	-190.244
206.85	586.667
207.07	661.538
207.28	276.667
207.50	-437.500
207.71	269.767
207.93	3250.000
208.14	-97.297
208.35	244.828
208.57	-225.000
208.78	237.931
209.00	205.263
209.21	0.000
209.43	430.435
209.64	204.651
209.86	971.429
210.07	672.727
210.28	396.429
210.50	1780.000
210.71	228.205
210.93	202.632
211.14	195.082
211.36	297.143
211.57	1287.500
211.78	-277.273
212.00	392.308
212.21	-289.474
212.43	322.581
212.64	407.143
212.86	360.714
213.07	217.857
213.29	190.789
213.50	-197.059
213.71	-7000.000
213.93	-755.556
214.14	593.333
214.36	-1400.000
214.57	144.186
214.78	320.000
215.00	-2500.000
215.21	-1583.333
215.43	-278.788
215.64	606.250
215.86	-1425.000
216.07	542.857
216.28	185.484
216.50	163.830
216.71	-2000.000
216.93	721.429
217.14	236.111
217.35	159.211
217.57	-400.000
217.78	800.000
218.00	238.636
218.21	145.902
218.42	220.408
218.64	286.667
218.85	167.241
219.07	208.000
219.28	438.095
219.49	-581.818
219.71	326.190
219.92	1650.000
220.14	2366.667
220.35	1200.000
220.56	400.000
220.78	192.063
220.99	1400.000
221.21	254.054
221.42	248.148
221.63	288.889
221.85	5600.000
222.06	196.552
222.28	325.000
222.49	9400.000
222.70	-2033.333
222.92	196.429
223.13	144.928
223.34	178.182
223.56	205.405
223.77	618.750
223.99	126.923
224.20	76.577
224.41	279.070
224.63	182.353
224.84	400.000
225.05	179.167
225.27	157.407
225.48	140.506
225.69	209.091
225.91	116.883
226.12	177.419
226.34	144.928
226.55	156.250
226.76	76.119
226.98	58.772
227.19	136.667
227.40	91.429
227.62	63.514
227.83	92.632
228.04	107.407
228.26	50.926
228.47	54.167
228.69	58.791
228.90	56.180
229.11	26.054
229.33	28.689
229.54	50.612
229.75	28.137
229.97	19.257
230.18	30.978
230.39	20.000
230.61	29.193
230.82	32.353
231.03	26.632
231.25	31.105
231.46	39.048
231.67	41.081
231.89	42.279
232.10	33.206
232.31	32.093
232.53	49.421
232.74	46.311
232.95	33.166
233.17	42.262
233.38	26.389
233.59	35.882
233.81	40.708
234.02	12.315
234.23	51.075
234.45	69.536
234.66	36.139
234.87	27.326
235.09	15.556
235.30	18.710
235.51	27.586
235.73	43.750
235.94	46.237
236.15	22.761
236.36	21.097
236.58	37.657
236.79	47.876
237.00	29.317
237.22	40.948
237.43	50.000
237.64	24.091
237.86	54.412
238.07	24.303
238.28	50.463
238.50	35.124
238.71	33.333
238.92	24.265
239.13	30.357
239.35	31.797
239.56	13.242
239.77	37.154
239.99	48.437
240.20	38.849
240.41	39.185
240.63	26.154
240.84	28.302
241.05	28.490
241.26	22.674
241.48	25.693
241.69	23.025
241.90	28.352
242.12	17.706
242.33	18.061
242.54	19.176
242.75	7.207
242.97	17.664
243.18	10.501
243.39	8.010
243.61	14.037
243.82	12.379
244.03	11.928
244.24	7.075
244.46	11.757
244.67	12.133
244.88	14.583
245.09	16.034
245.31	11.755
245.52	15.136
245.73	20.323
245.95	26.217
246.16	15.669
246.37	14.262
246.58	16.129
246.80	10.897
247.01	10.846
247.22	10.116
247.43	6.715
247.65	10.008
247.86	9.417
248.07	9.061
248.28	10.253
248.50	8.452
248.71	9.550
248.92	7.702
249.13	9.147
249.35	8.429
249.56	9.317
249.77	13.096
249.98	11.158
250.20	14.748
250.41	13.525
250.62	10.978
250.83	13.097
251.05	13.684
251.26	10.204
251.47	14.489
251.68	15.559
251.90	13.950
252.11	22.496
252.32	16.549
252.53	20.497
252.75	8.644
252.96	14.975
253.17	10.277
253.38	11.401
253.59	11.806
253.81	15.411
254.02	12.811
254.23	10.302
254.44	14.358
254.66	12.781
254.87	13.099
255.08	16.083
255.29	23.339
255.50	19.597
255.72	17.034
255.93	17.662
256.14	22.128
256.35	12.963
256.57	16.728
256.78	21.670
256.99	10.165
257.20	15.876
257.41	18.857
257.63	20.000
257.84	18.512
258.05	19.199
258.26	17.657
258.47	11.920
258.69	16.782
258.90	8.425
259.11	12.611
259.32	14.642
259.53	10.118
259.75	6.261
259.96	9.329
260.17	7.437
260.38	10.179
260.59	6.554
260.81	4.570
261.02	8.140
261.23	8.107
261.44	6.300
261.65	8.198
261.87	7.590
262.08	8.378
262.29	6.420
262.50	9.725
262.71	5.043
262.92	7.885
263.14	9.658
263.35	10.214
263.56	8.958
263.77	10.994
263.98	10.884
264.20	11.806
264.41	12.514
264.62	12.515
264.83	9.353
265.04	17.647
265.25	16.563
265.47	13.174
265.68	15.578
265.89	14.267
266.10	4.943
266.31	13.986
266.52	4.675
266.74	9.705
266.95	14.130
267.16	13.857
267.37	6.277
267.58	10.123
267.79	11.636
268.01	9.172
268.22	7.143
268.43	9.123
268.64	6.261
268.85	10.111
269.06	9.840
269.27	13.069
269.49	9.288
269.70	8.077
269.91	10.183
270.12	11.142
270.33	9.498
270.54	9.886
270.75	4.144
270.97	8.632
271.18	10.100
271.39	7.807
271.60	9.520
271.81	6.777
272.02	9.119
272.23	8.224
272.45	9.172
272.66	8.705
272.87	11.883
273.08	7.269
273.29	10.090
273.50	4.783
273.71	7.753
273.92	6.837
274.14	9.439
274.35	6.504
274.56	9.005
274.77	10.726
274.98	11.701
275.19	8.851
275.40	9.228
275.61	9.542
275.83	13.140
276.04	7.782
276.25	9.291
276.46	8.259
276.67	9.853
276.88	9.464
277.09	10.513
277.30	10.929
277.51	8.748
277.73	9.628
277.94	9.958
278.15	8.576
278.36	13.823
278.57	7.441
278.78	7.726
278.99	6.514
279.20	6.806
279.41	12.205
279.62	8.666
279.84	10.911
280.05	9.123
280.26	7.858
280.47	5.434
280.68	5.846
280.89	6.735
281.10	10.147
281.31	10.234
281.52	9.677
281.73	7.187
281.94	5.485
282.16	8.561
282.37	9.038
282.58	5.240
282.79	8.861
283.00	9.479
283.21	4.225
283.42	6.369
283.63	6.993
283.84	6.300
284.05	6.327
284.26	6.365
284.47	8.496
284.68	9.103
284.89	5.400
285.11	6.420
285.32	7.652
285.53	8.190
285.74	7.630
285.95	7.744
286.16	7.081
286.37	9.631
286.58	6.348
286.79	5.430
287.00	4.755
287.21	6.724
287.42	7.261
287.63	4.447
287.84	5.464
288.05	4.979
288.26	6.159
288.48	9.994
288.69	6.500
288.90	3.667
289.11	8.690
289.32	6.180
289.53	8.214
289.74	8.110
289.95	4.197
290.16	9.379
290.37	4.127
290.58	6.797
290.79	7.127
291.00	2.906
291.21	8.213
291.42	7.333
291.63	4.685
291.84	8.198
292.05	5.503
292.26	3.718
292.47	6.450
292.68	4.841
292.89	8.529
293.10	8.822
293.31	6.002
293.52	6.765
293.73	5.386
293.94	7.190
294.15	5.548
294.36	5.309
294.57	8.781
294.79	5.230
295.00	5.842
295.21	6.520
295.42	6.753
295.63	8.981
295.84	6.289
296.05	7.857
296.26	5.776
296.47	7.604
296.68	5.727
296.89	6.456
297.10	5.806
297.31	5.976
297.52	2.985
297.73	5.799
297.94	5.546
298.15	4.843
298.36	3.914
298.57	4.048
298.78	5.325
298.99	3.404
299.20	4.385
299.41	5.781
299.62	5.882
299.83	5.248
300.04	3.762
300.25	7.345
300.46	5.002
300.67	8.271
300.88	7.070
301.09	4.467
301.30	7.204
301.50	7.348
301.71	9.569
301.92	8.799
302.13	6.302
302.34	3.427
302.55	6.145
302.76	5.285
302.97	5.065
303.18	5.902
303.39	3.607
303.60	5.682
303.81	7.202
304.02	6.050
304.23	6.524
304.44	4.470
304.65	5.766
304.86	6.748
305.07	5.585
305.28	7.556
305.49	6.348
305.70	5.654
305.91	5.969
306.12	6.400
306.33	4.626
306.54	4.862
306.75	4.837
306.96	4.963
307.17	4.300
307.38	9.952
307.58	5.552
307.79	6.064
308.00	4.978
308.21	5.483
308.42	6.897
308.63	6.534
308.84	5.061
309.05	2.241
309.26	4.036
309.47	6.941
309.68	4.873
309.89	7.093
310.10	3.382
310.31	8.103
310.52	2.759
310.73	5.210
310.94	6.507
311.14	3.189
311.35	5.417
311.56	4.060
311.77	2.706
311.98	3.853
312.19	5.484
312.40	6.982
312.61	5.759
312.82	4.441
313.03	5.689
313.24	7.924
313.45	5.128
313.66	5.377
313.86	4.222
314.07	4.784
314.28	6.468
314.49	7.937
314.70	7.054
314.91	7.340
315.12	7.063
315.33	7.179
315.54	5.006
315.75	4.348
315.96	4.191
316.16	3.770
316.37	6.236
316.58	4.586
316.79	5.642
317.00	5.709
317.21	5.437
317.42	3.723
317.63	4.923
317.84	6.037
318.05	5.664
318.25	5.999
318.46	2.757
318.67	6.209
318.88	3.531
319.09	7.679
319.30	6.232
319.51	5.462
319.72	6.739
319.93	5.306
320.13	4.493
320.34	5.269
320.55	5.644
320.76	8.373
320.97	3.886
321.18	8.403
321.39	5.784
321.60	5.563
321.80	6.319
322.01	7.647
322.22	6.971
322.43	3.722
322.64	5.469
322.85	7.229
323.06	5.681
323.27	5.576
323.47	4.512
323.68	8.437
323.89	6.518
324.10	6.054
324.31	7.743
324.52	6.496
324.73	8.906
324.93	6.889
325.14	5.603
325.35	4.699
325.56	5.982
325.77	4.900
325.98	4.805
326.19	7.496
326.39	4.195
326.60	2.686
326.81	4.369
327.02	3.740
327.23	2.006
327.44	7.734
327.64	4.337
327.85	5.716
328.06	3.785
328.27	5.043
328.48	7.510
328.69	5.103
328.90	6.622
329.10	1.734
329.31	7.042
329.52	6.585
329.73	9.111
329.94	5.315
330.15	5.497
330.35	5.368
330.56	6.170
330.77	6.179
330.98	6.422
331.19	3.561
331.39	5.562
331.60	5.565
331.81	5.303
332.02	5.684
332.23	7.784
332.44	5.024
332.64	6.721
332.85	6.883
333.06	4.181
333.27	3.687
333.48	4.031
333.68	4.730
333.89	2.099
334.10	6.590
334.31	6.866
334.52	5.440
334.72	4.095
334.93	6.360
335.14	5.115
335.35	7.696
335.56	6.247
335.76	4.020
335.97	4.973
336.18	3.005
336.39	4.954
336.60	6.583
336.80	5.809
337.01	3.440
337.22	4.706
337.43	5.141
337.64	4.940
337.84	3.651
338.05	4.681
338.26	5.309
338.47	4.727
338.68	4.832
338.88	5.289
339.09	5.553
339.30	7.005
339.51	4.092
339.71	5.134
339.92	3.529
340.13	4.465
340.34	3.625
340.55	5.039
340.75	4.684
340.96	3.085
341.17	4.935
341.38	4.973
341.58	7.458
341.79	2.807
342.00	4.074
342.21	3.178
342.41	4.651
342.62	3.673
342.83	4.450
343.04	5.268
343.24	5.051
343.45	3.688
343.66	6.608
343.87	4.569
344.07	7.305
344.28	6.055
344.49	6.866
344.70	4.439
344.90	4.167
345.11	5.373
345.32	4.852
345.53	3.549
345.73	5.119
345.94	4.440
346.15	4.864
346.36	3.837
346.56	3.800
346.77	4.167
346.98	4.039
347.19	4.301
347.39	4.641
347.60	3.690
347.81	7.382
348.02	4.511
348.22	4.456
348.43	4.149
348.64	2.622
348.84	2.349
349.05	2.820
349.26	5.190
349.47	2.500
349.67	4.121
349.88	4.530
350.09	5.263
350.30	3.945
350.50	6.305
350.71	7.447
350.92	3.345
351.12	4.908
351.33	3.922
351.54	4.170
351.74	2.872
351.95	3.070
352.16	5.596
352.37	5.451
352.57	5.676
352.78	6.201
352.99	1.390
353.19	5.491
353.40	3.898
353.61	4.530
353.82	4.760
354.02	3.884
354.23	5.460
354.44	6.822
354.64	4.123
354.85	7.088
355.06	3.667
355.26	3.669
355.47	2.668
355.68	4.313
355.88	2.691
356.09	3.408
356.30	2.998
356.51	5.078
356.71	5.203
356.92	4.092
357.13	3.954
357.33	6.083
357.54	4.963
357.75	3.568
357.95	4.949
358.16	4.630
358.37	5.176
358.57	5.108
358.78	4.698
358.99	3.941
359.19	3.808
359.40	4.819
359.61	4.153
359.81	6.148
360.02	5.748
360.23	4.713
360.43	2.800
360.64	4.562
360.85	3.855
361.05	3.777
361.26	2.946
361.47	3.102
361.67	3.283
361.88	2.547
362.09	3.313
362.29	2.513
362.50	2.465
362.70	2.415
362.91	4.784
363.12	3.750
363.32	3.174
363.53	3.568
363.74	2.799
363.94	4.137
364.15	4.505
364.36	4.179
364.56	2.938
364.77	4.595
364.98	5.138
365.18	4.250
365.39	4.063
365.59	2.841
365.80	3.913
366.01	5.156
366.21	4.133
366.42	3.732
366.63	4.452
366.83	2.674
367.04	2.641
367.24	4.123
367.45	5.432
367.66	2.271
367.86	3.743
368.07	4.001
368.28	3.935
368.48	4.491
368.69	2.761
368.89	3.266
369.10	3.839
369.31	5.289
369.51	3.745
369.72	5.641
369.92	4.857
370.13	4.987
370.34	3.295
370.54	1.069
370.75	5.073
370.95	2.372
371.16	4.817
371.37	3.368
371.57	3.037
371.78	3.389
371.98	3.379
372.19	4.938
372.40	3.605
372.60	3.785
372.81	5.388
373.01	2.683
373.22	3.242
373.43	4.868
373.63	3.996
373.84	5.188
374.04	4.118
374.25	3.465
374.46	5.206
374.66	4.244
374.87	5.344
375.07	2.199
375.28	2.831
375.48	3.376
375.69	4.173
375.90	4.420
376.10	2.074
376.31	3.142
376.51	3.765
376.72	3.921
376.92	4.366
377.13	4.726
377.34	4.429
377.54	3.629
377.75	4.890
377.95	2.639
378.16	4.696
378.36	5.369
378.57	3.331
378.77	3.662
378.98	2.147
379.19	4.168
379.39	4.410
379.60	3.167
379.80	2.695
380.01	4.067
380.21	4.497
380.42	3.825
380.62	4.708
380.83	5.140
381.04	2.535
381.24	3.232
381.45	3.460
381.65	3.658
381.86	4.105
382.06	4.948
382.27	3.191
382.47	3.226
382.68	2.918
382.88	4.283
383.09	4.866
383.29	2.954
383.50	4.659
383.71	5.251
383.91	3.591
384.12	4.107
384.32	4.585
384.53	4.274
384.73	4.416
384.94	3.566
385.14	2.782
385.35	4.488
385.55	3.901
385.76	4.067
385.96	4.332
386.17	3.052
386.37	3.667
386.58	3.042
386.78	5.042
386.99	3.129
387.19	5.358
387.40	4.272
387.60	6.989
387.81	3.737
388.01	4.731
388.22	5.739
388.42	5.100
388.63	5.005
388.83	6.029
389.04	4.085
389.24	4.011
389.45	4.173
389.65	3.629
389.86	4.949
390.06	4.286
390.27	3.827
390.47	4.199
390.68	3.562
390.88	6.617
391.09	6.087
391.29	7.343
391.50	4.114
391.70	6.597
391.91	4.686
392.11	5.690
392.32	6.732
392.52	6.304
392.73	4.871
392.93	6.882
393.14	5.370
393.34	7.610
393.55	7.846
393.75	8.033
393.95	6.363
394.16	7.403
394.36	9.044
394.57	8.273
394.77	6.642
394.98	6.561
395.18	7.542
395.39	7.262
395.59	7.337
395.80	8.229
396.00	6.873
396.21	9.453
396.41	5.280
396.61	9.658
396.82	8.491
397.02	11.853
397.23	8.693
397.43	8.782
397.64	7.942
397.84	11.396
398.05	5.656
398.25	9.436
398.45	7.472
398.66	9.605
398.86	8.047
399.07	10.498
399.27	8.710
399.48	10.753
399.68	7.489
399.89	10.062
400.09	9.039
400.29	8.759
400.50	9.465
400.70	11.187
400.91	8.317
401.11	9.850
401.32	9.761
401.52	8.478
401.72	8.526
401.93	13.731
402.13	10.412
402.34	12.128
402.54	10.366
402.75	12.435
402.95	6.953
403.15	12.497
403.36	8.069
403.56	12.110
403.77	9.696
403.97	11.518
404.17	10.907
404.38	13.259
404.58	9.894
404.79	13.014
404.99	12.126
405.19	12.125
405.40	10.899
405.60	13.650
405.81	11.373
406.01	12.793
406.21	12.246
406.42	12.607
406.62	13.156
406.83	14.078
407.03	13.573
407.23	11.958
407.44	10.856
407.64	13.863
407.85	12.951
408.05	12.273
408.25	11.773
408.46	13.944
408.66	12.836
408.87	13.481
409.07	11.139
409.27	12.161
409.48	11.869
409.68	13.646
409.88	10.497
410.09	14.710
410.29	13.127
410.50	15.392
410.70	9.717
410.90	14.629
411.11	12.011
411.31	12.986
411.51	12.581
411.72	14.621
411.92	12.443
412.12	12.581
412.33	11.058
412.53	13.514
412.74	10.373
412.94	14.280
413.14	11.786
413.35	13.006
413.55	12.615
413.75	15.035
413.96	11.149
414.16	13.333
414.36	14.095
414.57	14.779
414.77	10.828
414.97	14.516
415.18	12.257
415.38	13.738
415.58	13.661
415.79	13.650
415.99	12.759
416.19	15.066
416.40	13.274
416.60	14.217
416.80	13.276
417.01	15.039
417.21	11.968
417.41	16.341
417.62	16.022
417.82	16.002
418.02	13.315
418.23	17.102
418.43	14.885
418.63	15.871
418.84	15.726
419.04	16.262
419.24	15.866
419.45	16.790
419.65	16.072
419.85	16.637
420.06	16.463
420.26	17.088
420.46	16.720
420.67	16.349
420.87	16.592
421.07	17.070
421.28	16.876
421.48	17.025
421.68	16.806
421.88	17.109
422.09	17.341
422.29	17.845
422.49	16.487
422.70	16.784
422.90	16.953
423.10	16.858
423.31	17.436
423.51	17.210
423.71	16.523
423.91	17.506
424.12	17.410
424.32	17.960
424.52	16.820
424.73	16.976
424.93	17.186
425.13	17.436
425.33	17.135
425.54	18.103
425.74	17.267
425.94	17.643
426.15	17.997
426.35	18.120
426.55	18.072
426.75	17.879
426.96	17.790
427.16	17.358
427.36	18.135
427.57	18.191
427.77	17.634
427.97	18.634
428.17	17.827
428.38	18.910
428.58	15.816
428.78	17.884
428.98	16.775
429.19	18.129
429.39	15.420
429.59	17.835
429.79	15.785
430.00	17.965
430.20	16.235
430.40	18.138
430.60	16.901
430.81	18.819
431.01	17.619
431.21	18.605
431.41	16.474
431.62	18.705
431.82	17.144
432.02	19.137
432.22	18.292
432.43	17.861
432.63	17.625
432.83	19.211
433.03	18.684
433.24	20.050
433.44	18.606
433.64	20.261
433.84	19.351
434.05	19.933
434.25	19.808
434.45	20.935
434.65	21.222
434.85	21.192
435.06	20.210
435.26	21.128
435.46	20.785
435.66	21.046
435.87	20.930
436.07	21.212
436.27	21.325
436.47	20.535
436.67	20.230
436.88	21.156
437.08	21.737
437.28	21.218
437.48	21.353
437.69	22.169
437.89	21.565
438.09	22.131
438.29	21.154
438.49	22.204
438.70	21.721
438.90	22.057
439.10	21.753
439.30	22.103
439.50	21.036
439.71	22.535
439.91	22.257
440.11	23.321
440.31	22.155
440.51	23.046
440.72	23.347
440.92	22.964
441.12	23.099
441.32	23.012
441.52	23.131
441.72	23.485
441.93	23.421
442.13	24.364
442.33	23.500
442.53	23.673
442.73	23.949
442.94	24.051
443.14	24.721
443.34	24.243
443.54	24.354
443.74	25.269
443.94	25.142
444.15	24.939
444.35	24.842
444.55	24.627
444.75	24.966
444.95	24.568
445.15	23.705
445.36	24.935
445.56	23.991
445.76	24.301
445.96	24.509
446.16	24.920
446.36	24.955
446.57	24.511
446.77	24.266
446.97	25.244
447.17	25.467
447.37	24.637
447.57	25.153
447.77	24.898
447.98	25.307
448.18	25.741
448.38	25.718
448.58	25.784
448.78	26.173
448.98	26.233
449.18	25.793
449.39	25.389
449.59	25.441
449.79	25.950
449.99	26.427
450.19	26.288
450.39	26.373
450.59	25.699
450.79	25.735
451.00	25.801
451.20	27.390
451.40	26.109
451.60	25.673
451.80	26.086
452.00	26.203
452.20	26.666
452.40	26.589
452.61	26.593
452.81	26.522
453.01	25.900
453.21	25.791
453.41	26.418
453.61	26.127
453.81	27.098
454.01	27.369
454.21	26.107
454.42	26.116
454.62	26.683
454.82	26.700
455.02	25.415
455.22	27.379
455.42	27.015
455.62	26.508
455.82	26.472
456.02	27.689
456.23	26.795
456.43	27.783
456.63	27.864
456.83	25.965
457.03	26.223
457.23	26.357
457.43	27.784
457.63	26.813
457.83	26.411
458.03	27.150
458.23	27.134
458.43	26.499
458.64	26.875
458.84	27.482
459.04	27.077
459.24	27.574
459.44	27.198
459.64	25.997
459.84	27.128
460.04	26.700
460.24	27.390
460.44	27.152
460.64	27.459
460.84	27.463
461.04	26.791
461.24	28.149
461.45	26.937
461.65	27.345
461.85	28.552
462.05	28.874
462.25	28.404
462.45	28.715
462.65	28.617
462.85	27.943
463.05	28.316
463.25	28.213
463.45	28.134
463.65	28.082
463.85	27.933
464.05	29.184
464.25	28.051
464.45	28.079
464.65	28.578
464.85	28.111
465.05	28.184
465.26	29.436
465.46	28.017
465.66	28.546
465.86	27.438
466.06	28.355
466.26	28.137
466.46	28.721
466.66	29.445
466.86	28.928
467.06	29.789
467.26	30.049
467.46	28.890
467.66	29.156
467.86	29.512
468.06	29.517
468.26	29.025
468.46	29.069
468.66	30.287
468.86	29.688
469.06	30.408
469.26	29.861
469.46	29.678
469.66	30.578
469.86	30.471
470.06	30.121
470.26	31.295
470.46	30.238
470.66	30.858
470.86	30.478
471.06	31.394
471.26	30.263
471.46	30.924
471.66	30.710
471.86	30.641
472.06	31.431
472.26	32.035
472.46	30.388
472.66	32.791
472.86	30.739
473.06	30.776
473.26	31.042
473.46	31.990
473.66	31.774
473.86	31.233
474.06	31.112
474.26	32.234
474.46	32.203
474.66	32.362
474.86	32.039
475.06	33.277
475.26	32.707
475.46	32.156
475.66	32.481
475.86	33.677
476.06	32.278
476.26	32.207
476.46	33.303
476.66	33.510
476.86	33.498
477.06	33.098
477.26	32.896
477.46	33.573
477.65	33.814
477.85	32.898
478.05	33.429
478.25	33.564
478.45	34.955
478.65	34.892
478.85	33.777
479.05	33.457
479.25	34.215
479.45	34.866
479.65	34.557
479.85	34.708
480.05	34.571
480.25	35.179
480.45	34.819
480.65	34.946
480.85	34.202
481.05	34.406
481.25	34.438
481.44	35.116
481.64	34.553
481.84	35.213
482.04	35.172
482.24	34.551
482.44	34.493
482.64	34.207
482.84	34.163
483.04	34.377
483.24	34.100
483.44	33.679
483.64	33.431
483.84	34.093
484.04	34.701
484.23	35.189
484.43	36.704
484.63	38.631
484.83	40.239
485.03	42.224
485.23	41.806
485.43	40.875
485.63	40.877
485.83	38.673
486.03	37.033
486.23	37.981
486.42	37.114
486.62	37.752
486.82	36.816
487.02	36.444
487.22	36.098
487.42	35.681
487.62	36.349
487.82	36.036
488.02	36.197
488.22	36.070
488.41	36.847
488.61	37.038
488.81	36.944
489.01	37.405
489.21	37.341
489.41	37.818
489.61	37.651
489.81	37.768
490.01	38.084
490.20	37.559
490.40	37.050
490.60	37.778
490.80	37.368
491.00	36.838
491.20	36.546
491.40	36.445
491.60	35.830
491.79	36.470
491.99	36.908
492.19	36.995
492.39	36.790
492.59	37.114
492.79	36.809
492.99	37.880
493.19	37.383
493.38	38.936
493.58	38.573
493.78	38.978
493.98	38.199
494.18	38.734
494.38	38.257
494.58	38.149
494.77	38.221
494.97	38.287
495.17	38.690
495.37	37.653
495.57	37.026
495.77	37.909
495.96	37.822
496.16	37.398
496.36	37.840
496.56	36.786
496.76	36.702
496.96	36.970
497.15	36.517
497.35	36.998
497.55	37.434
497.75	38.464
497.95	37.150
498.15	37.981
498.34	37.803
498.54	37.116
498.74	37.602
498.94	37.514
499.14	37.290
499.34	38.529
499.53	38.253
499.73	37.938
499.93	38.213
500.13	37.352
500.33	38.094
500.52	38.495
500.72	37.731
500.92	36.987
501.12	38.147
501.32	38.414
501.52	37.762
501.71	37.137
501.91	37.691
502.11	38.882
502.31	37.737
502.51	39.064
502.70	36.755
502.90	37.265
503.10	37.975
503.30	37.722
503.50	38.393
503.69	37.927
503.89	37.957
504.09	38.771
504.29	37.719
504.48	37.484
504.68	38.742
504.88	37.237
505.08	37.485
505.28	38.204
505.47	38.418
505.67	37.627
505.87	37.929
506.07	37.133
506.27	38.965
506.46	37.978
506.66	38.200
506.86	38.238
507.06	37.632
507.25	38.371
507.45	38.239
507.65	38.053
507.85	37.202
508.04	38.304
508.24	38.805
508.44	38.350
508.64	38.255
508.83	37.571
509.03	36.977
509.23	37.971
509.43	38.482
509.63	37.873
509.82	37.593
510.02	37.845
510.22	38.432
510.42	38.393
510.61	38.718
510.81	37.401
511.01	38.132
511.21	39.045
511.40	37.707
511.60	38.200
511.80	37.998
511.99	38.388
512.19	38.318
512.39	37.655
512.59	38.074
512.78	38.474
512.98	38.188
513.18	38.643
513.38	38.803
513.57	39.153
513.77	38.110
513.97	38.842
514.17	38.353
514.36	37.999
514.56	37.283
514.76	39.611
514.95	38.043
515.15	38.466
515.35	39.380
515.55	38.340
515.74	38.272
515.94	38.271
516.14	38.058
516.33	37.944
516.53	38.250
516.73	38.377
516.93	38.173
517.12	37.648
517.32	38.349
517.52	37.289
517.71	38.074
517.91	38.418
518.11	37.673
518.30	38.028
518.50	37.415
518.70	37.688
518.90	37.267
519.09	38.164
519.29	37.630
519.49	37.551
519.68	37.234
519.88	37.965
520.08	38.250
520.27	38.403
520.47	38.213
520.67	37.989
520.86	39.215
521.06	38.165
521.26	38.712
521.45	37.941
521.65	38.977
521.85	38.168
522.04	37.771
522.24	38.680
522.44	38.383
522.63	37.954
522.83	38.058
523.03	38.877
523.22	37.834
523.42	38.216
523.62	38.479
523.81	38.884
524.01	37.668
524.21	38.355
524.40	37.770
524.60	37.833
524.80	38.221
524.99	37.212
525.19	37.533
525.39	37.545
525.58	38.333
525.78	37.669
525.98	37.837
526.17	37.118
526.37	37.965
526.57	37.584
526.76	38.164
526.96	37.937
527.15	37.395
527.35	37.824
527.55	37.468
527.74	37.795
527.94	36.928
528.14	36.964
528.33	36.652
528.53	36.695
528.72	37.581
528.92	38.229
529.12	37.915
529.31	38.154
529.51	38.452
529.71	39.170
529.90	39.127
530.10	39.667
530.29	39.155
530.49	40.021
530.69	39.710
530.88	39.321
531.08	39.460
531.28	38.601
531.47	38.376
531.67	38.191
531.86	37.989
532.06	38.194
532.26	37.892
532.45	38.441
532.65	37.419
532.84	37.519
533.04	36.731
533.24	36.496
533.43	37.111
533.63	37.204
533.82	38.551
534.02	38.112
534.22	37.851
534.41	38.044
534.61	38.558
534.80	38.433
535.00	37.875
535.19	39.003
535.39	38.515
535.59	39.393
535.78	38.324
535.98	38.399
536.17	37.637
536.37	38.052
536.57	37.579
536.76	37.605
536.96	37.976
537.15	37.377
537.35	38.058
537.54	37.866
537.74	37.952
537.93	38.192
538.13	38.664
538.33	38.808
538.52	38.600
538.72	38.765
538.91	39.257
539.11	39.048
539.30	38.460
539.50	38.636
539.70	38.218
539.89	37.320
540.09	38.011
540.28	37.717
540.48	37.545
540.67	36.961
540.87	36.950
541.06	36.250
541.26	37.168
541.45	36.507
541.65	37.254
541.85	37.319
542.04	37.645
542.24	37.790
542.43	37.666
542.63	38.211
542.82	37.770
543.02	38.567
543.21	38.795
543.41	38.802
543.60	38.542
543.80	38.766
543.99	38.478
544.19	38.334
544.38	37.776
544.58	37.898
544.77	38.133
544.97	38.199
545.16	37.854
545.36	38.180
545.56	38.104
545.75	38.562
545.95	37.860
546.14	38.582
546.34	37.222
546.53	38.136
546.73	37.360
546.92	38.335
547.12	37.528
547.31	38.230
547.51	38.085
547.70	38.434
547.90	38.556
548.09	38.281
548.29	37.955
548.48	39.294
548.68	38.430
548.87	38.182
549.07	38.544
549.26	39.088
549.46	37.841
549.65	39.058
549.84	38.203
550.04	38.665
550.23	39.200
550.43	38.816
550.62	38.378
550.82	38.921
551.01	39.242
551.21	38.751
551.40	38.891
551.60	37.061
551.79	39.062
551.99	37.937
552.18	38.951
552.38	39.013
552.57	39.395
552.77	38.171
552.96	38.123
553.16	38.665
553.35	39.091
553.54	38.946
553.74	38.476
553.93	38.644
554.13	38.725
554.32	38.309
554.52	40.101
554.71	39.734
554.91	38.723
555.10	40.616
555.29	39.928
555.49	40.765
555.68	38.995
555.88	40.325
556.07	39.782
556.27	40.421
556.46	39.333
556.66	39.202
556.85	39.888
557.04	40.587
557.24	39.771
557.43	39.962
557.63	39.749
557.82	39.835
558.02	40.575
558.21	40.090
558.40	40.711
558.60	40.411
558.79	40.518
558.99	41.166
559.18	40.805
559.38	40.329
559.57	40.574
559.76	39.597
559.96	40.996
560.15	40.342
560.35	40.587
560.54	39.410
560.73	39.926
560.93	40.091
561.12	40.926
561.32	40.548
561.51	41.299
561.70	40.354
561.90	40.433
562.09	41.116
562.29	39.390
562.48	42.461
562.67	41.543
562.87	42.038
563.06	41.192
563.26	40.669
563.45	40.885
563.64	41.333
563.84	41.499
564.03	43.138
564.23	42.044
564.42	42.479
564.61	42.077
564.81	42.611
565.00	41.935
565.20	41.839
565.39	41.740
565.58	41.826
565.78	40.933
565.97	41.489
566.16	42.226
566.36	41.549
566.55	40.836
566.74	42.207
566.94	41.456
567.13	43.437
567.33	42.232
567.52	42.394
567.71	42.401
567.91	42.276
568.10	43.172
568.29	42.706
568.49	42.741
568.68	42.958
568.87	42.593
569.07	42.952
569.26	43.353
569.45	42.743
569.65	43.093
569.84	43.567
570.04	42.205
570.23	44.116
570.42	43.003
570.62	44.237
570.81	42.986
571.00	43.514
571.20	43.836
571.39	42.672
571.58	43.380
571.78	43.390
571.97	42.312
572.16	43.530
572.36	42.711
572.55	43.319
572.74	42.565
572.94	44.242
573.13	42.675
573.32	44.268
573.51	43.304
573.71	44.180
573.90	43.466
574.09	44.447
574.29	44.204
574.48	42.712
574.67	44.032
574.87	43.304
575.06	44.462
575.25	43.630
575.45	44.853
575.64	42.440
575.83	42.927
576.03	44.906
576.22	44.991
576.41	44.200
576.60	42.911
576.80	44.378
576.99	45.603
577.18	43.902
577.38	43.102
577.57	44.969
577.76	43.742
577.95	43.876
578.15	44.291
578.34	45.348
578.53	43.951
578.73	44.349
578.92	43.868
579.11	43.772
579.30	44.225
579.50	44.974
579.69	45.205
579.88	44.403
580.08	44.339
580.27	44.908
580.46	43.849
580.65	44.109
580.85	45.479
581.04	45.021
581.23	44.768
581.42	43.847
581.62	44.005
581.81	44.738
582.00	45.354
582.19	43.758
582.39	44.219
582.58	45.046
582.77	44.499
582.96	45.261
583.16	44.474
583.35	45.963
583.54	44.834
583.73	45.931
583.93	46.292
584.12	44.728
584.31	45.250
584.50	45.230
584.70	45.726
584.89	44.460
585.08	45.087
585.27	45.900
585.47	43.419
585.66	45.238
585.85	44.468
586.04	46.053
586.24	44.104
586.43	43.447
586.62	44.017
586.81	45.838
587.00	44.951
587.20	44.783
587.39	45.767
587.58	45.743
587.77	44.625
587.97	45.638
588.16	44.401
588.35	44.642
588.54	44.922
588.73	44.136
588.93	44.729
589.12	44.207
589.31	43.725
589.50	45.037
589.69	45.196
589.89	45.389
590.08	44.191
590.27	45.734
590.46	44.272
590.65	45.040
590.85	45.008
591.04	45.406
591.23	45.138
591.42	45.440
591.61	44.808
591.81	45.421
592.00	45.864
592.19	45.871
592.38	45.310
592.57	45.935
592.77	44.571
592.96	46.151
593.15	46.929
593.34	46.306
593.53	44.400
593.72	44.052
593.92	45.873
594.11	45.582
594.30	44.568
594.49	45.839
594.68	46.297
594.87	45.047
595.07	45.470
595.26	44.938
595.45	46.075
595.64	45.941
595.83	46.027
596.02	45.833
596.22	45.173
596.41	46.832
596.60	46.267
596.79	45.081
596.98	45.892
597.17	44.373
597.37	46.443
597.56	45.321
597.75	46.885
597.94	45.909
598.13	47.026
598.32	45.825
598.51	46.470
598.71	47.489
598.90	46.050
599.09	47.387
599.28	45.367
599.47	46.080
599.66	46.134
599.85	47.244
600.05	45.242
600.24	47.080
600.43	47.123
600.62	46.808
600.81	46.969
601.00	48.287
601.19	47.557
601.38	48.008
601.58	47.311
601.77	48.148
601.96	45.254
602.15	46.882
602.34	45.983
602.53	46.493
602.72	46.970
602.91	46.551
603.10	46.039
603.30	46.865
603.49	47.656
603.68	47.045
603.87	46.194
604.06	48.043
604.25	46.017
604.44	46.705
604.63	46.342
604.82	47.079
605.01	47.265
605.21	47.828
605.40	46.444
605.59	46.459
605.78	49.091
605.97	46.622
606.16	46.998
606.35	46.995
606.54	46.999
606.73	47.536
606.92	47.513
607.11	49.570
607.30	47.215
607.50	49.549
607.69	48.586
607.88	47.359
608.07	48.067
608.26	47.780
608.45	47.203
608.64	46.847
608.83	46.170
609.02	47.745
609.21	48.229
609.40	47.450
609.59	47.659
609.78	48.572
609.97	46.139
610.16	45.844
610.35	46.566
610.55	48.478
610.74	48.080
610.93	48.404
611.12	49.114
611.31	47.548
611.50	49.404
611.69	46.619
611.88	48.650
612.07	46.975
612.26	48.798
612.45	48.110
612.64	46.326
612.83	47.815
613.02	47.852
613.21	46.988
613.40	48.160
613.59	48.839
613.78	47.247
613.97	49.765
614.16	47.802
614.35	47.401
614.54	48.499
614.73	47.959
614.92	48.292
615.11	49.697
615.30	49.491
615.49	49.588
615.68	48.742
615.87	47.172
616.07	45.261
616.26	47.091
616.45	48.727
616.64	50.444
616.83	48.612
617.02	47.354
617.21	48.965
617.40	48.482
617.59	49.430
617.78	48.056
617.97	49.710
618.16	47.901
618.35	49.220
618.54	50.123
618.73	47.748
618.92	49.057
619.11	48.398
619.30	48.431
619.49	49.467
619.68	48.760
619.86	49.138
620.05	48.199
620.24	48.882
620.43	48.974
620.62	48.658
620.81	48.217
621.00	48.132
621.19	48.940
621.38	47.543
621.57	48.769
621.76	47.666
621.95	48.591
622.14	48.552
622.33	48.430
622.52	48.642
622.71	49.442
622.90	47.466
623.09	48.117
623.28	47.015
623.47	48.184
623.66	48.794
623.85	50.660
624.04	48.216
624.23	50.169
624.42	48.850
624.61	48.630
624.80	48.076
624.99	49.282
625.18	47.593
625.36	49.267
625.55	48.503
625.74	47.902
625.93	48.923
626.12	47.474
626.31	48.138
626.50	48.527
626.69	47.097
626.88	49.956
627.07	48.910
627.26	49.226
627.45	48.873
627.64	47.079
627.83	48.230
628.02	49.074
628.20	48.216
628.39	48.426
628.58	48.336
628.77	48.454
628.96	48.950
629.15	47.645
629.34	46.299
629.53	47.411
629.72	49.400
629.91	47.081
630.10	47.354
630.29	46.837
630.47	47.625
630.66	47.245
630.85	47.325
631.04	47.235
631.23	48.253
631.42	47.479
631.61	46.566
631.80	47.421
631.99	48.401
632.18	46.572
632.36	46.881
632.55	48.165
632.74	47.113
632.93	48.258
633.12	47.606
633.31	49.170
633.50	46.607
633.69	47.131
633.88	47.529
634.06	49.211
634.25	47.512
634.44	45.896
634.63	46.994
634.82	48.166
635.01	46.017
635.20	47.352
635.39	48.140
635.57	48.772
635.76	48.109
635.95	48.017
636.14	46.672
636.33	46.596
636.52	47.512
636.71	48.762
636.89	46.639
637.08	48.533
637.27	47.441
637.46	48.308
637.65	47.448
637.84	46.828
638.03	47.557
638.21	48.561
638.40	49.461
638.59	46.452
638.78	48.419
638.97	46.247
639.16	47.476
639.34	47.875
639.53	45.708
639.72	47.070
639.91	46.585
640.10	47.009
640.29	46.382
640.47	47.366
640.66	47.493
640.85	47.277
641.04	47.009
641.23	47.962
641.42	49.090
641.60	47.821
641.79	50.432
641.98	48.187
642.17	47.281
642.36	47.623
642.54	45.154
642.73	47.183
642.92	47.199
643.11	48.516
643.30	45.213
643.49	48.600
643.67	46.303
643.86	49.094
644.05	47.123
644.24	46.148
644.43	46.291
644.61	47.108
644.80	46.984
644.99	47.954
645.18	48.305
645.37	47.020
645.55	45.742
645.74	48.884
645.93	46.737
646.12	47.160
646.31	47.141
646.49	45.606
646.68	48.170
646.87	47.019
647.06	48.206
647.24	47.454
647.43	46.908
647.62	47.280
647.81	46.440
648.00	49.160
648.18	45.919
648.37	49.172
648.56	45.405
648.75	46.092
648.93	47.056
649.12	49.236
649.31	47.291
649.50	50.146
649.68	47.654
649.87	48.961
650.06	46.746
650.25	46.219
650.43	46.737
650.62	46.802
650.81	45.888
651.00	49.369
651.18	46.809
651.37	47.062
651.56	47.766
651.75	48.823
651.93	46.613
652.12	48.172
652.31	46.991
652.50	48.183
652.68	48.440
652.87	48.064
653.06	46.759
653.25	46.944
653.43	47.108
653.62	48.592
653.81	46.266
654.00	49.102
654.18	46.832
654.37	47.658
654.56	45.505
654.74	47.451
654.93	44.864
655.12	48.404
655.31	44.722
655.49	47.059
655.68	45.758
655.87	45.848
656.05	45.327
656.24	48.500
656.43	45.616
656.62	47.199
656.80	48.339
656.99	47.658
657.18	46.776
657.36	49.927
657.55	48.398
657.74	47.570
657.93	46.517
658.11	47.858
658.30	49.727
658.49	47.410
658.67	47.214
658.86	47.716
659.05	47.382
659.23	45.475
659.42	46.485
659.61	46.959
659.79	46.089
659.98	45.878
660.17	46.682
660.35	48.374
660.54	46.946
660.73	46.860
660.91	44.015
661.10	47.467
661.29	46.799
661.47	46.657
661.66	47.600
661.85	46.376
662.03	47.306
662.22	46.000
662.41	44.574
662.59	48.840
662.78	46.948
662.97	46.240
663.15	46.407
663.34	47.646
663.53	46.154
663.71	45.638
663.90	45.127
664.09	45.328
664.27	47.061
664.46	47.734
664.65	45.179
664.83	50.000
665.02	45.644
665.21	47.533
665.39	44.427
665.58	47.232
665.77	43.404
665.95	46.405
666.14	44.112
666.32	45.617
666.51	44.369
666.70	45.999
666.88	44.469
667.07	46.203
667.26	42.528
667.44	45.786
667.63	45.901
667.81	46.734
668.00	45.297
668.19	48.689
668.37	46.156
668.56	45.891
668.75	44.280
668.93	47.567
669.12	43.774
669.30	45.842
669.49	44.393
669.68	47.900
669.86	47.973
670.05	45.838
670.23	46.201
670.42	46.777
670.61	45.657
670.79	45.746
670.98	45.136
671.16	47.178
671.35	45.634
671.54	48.665
671.72	44.470
671.91	48.347
672.09	44.512
672.28	47.799
672.46	46.714
672.65	47.388
672.84	44.511
673.02	46.822
673.21	45.290
673.39	46.398
673.58	44.844
673.77	46.180
673.95	46.279
674.14	46.329
674.32	44.855
674.51	47.323
674.69	43.058
674.88	46.630
675.07	44.356
675.25	48.448
675.44	46.087
675.62	46.159
675.81	44.295
675.99	49.770
676.18	46.360
676.36	46.549
676.55	44.745
676.74	47.352
676.92	46.897
677.11	47.479
677.29	43.836
677.48	48.019
677.66	45.984
677.85	47.425
678.03	45.640
678.22	47.950
678.40	45.371
678.59	45.007
678.78	45.417
678.96	46.888
679.15	47.926
679.33	48.327
679.52	47.622
679.70	47.856
679.89	45.419
680.07	48.213
680.26	45.984
680.44	48.292
680.63	48.424
680.81	49.368
681.00	47.361
681.18	46.968
681.37	47.774
681.55	49.587
681.74	48.882
681.92	48.284
682.11	49.345
682.29	46.436
682.48	48.821
682.66	48.563
682.85	49.078
683.03	50.310
683.22	49.138
683.40	50.063
683.59	48.074
683.77	49.581
683.96	47.890
684.14	50.115
684.33	46.431
684.51	52.126
684.70	47.439
684.88	49.780
685.07	48.225
685.25	51.716
685.44	48.112
685.62	50.251
685.81	48.693
685.99	48.779
686.18	46.822
686.36	49.928
686.55	46.738
686.73	50.863
686.92	49.657
687.10	48.594
687.29	50.573
687.47	50.429
687.65	52.777
687.84	50.511
688.02	49.878
688.21	54.552
688.39	49.891
688.58	54.239
688.76	51.155
688.95	51.379
689.13	49.875
689.32	54.789
689.50	51.337
689.68	52.901
689.87	51.722
690.05	50.498
690.24	51.818
690.42	56.101
690.61	51.353
690.79	55.115
690.98	55.525
691.16	52.506
691.34	52.293
691.53	53.764
691.71	52.803
691.90	53.699
692.08	47.922
692.27	52.632
692.45	53.619
692.63	53.150
692.82	52.016
693.00	52.751
693.19	50.124
693.37	52.773
693.56	56.110
693.74	57.019
693.92	50.444
694.11	52.483
694.29	53.374
694.48	53.280
694.66	52.383
694.84	54.257
695.03	52.665
695.21	53.944
695.40	55.145
695.58	56.172
695.76	50.210
695.95	55.494
696.13	54.049
696.32	56.173
696.50	53.005
696.68	55.437
696.87	50.864
697.05	58.385
697.24	52.673
697.42	58.685
697.60	53.456
697.79	57.478
697.97	56.427
698.16	58.403
698.34	53.867
698.52	54.283
698.71	57.606
698.89	57.818
699.07	59.271
699.26	57.464
699.44	57.736
699.63	56.125
699.81	57.079
699.99	57.069
700.18	58.106
700.36	57.868
700.54	57.597
700.73	59.716
700.91	57.341
701.09	58.071
701.28	55.900
701.46	59.134
701.64	55.969
701.83	58.894
702.01	54.638
702.20	62.266
702.38	54.774
702.56	59.291
702.75	55.317
702.93	58.065
703.11	58.534
703.30	60.893
703.48	56.423
703.66	61.706
703.85	56.438
704.03	60.298
704.21	56.584
704.40	60.556
704.58	56.934
704.76	58.276
704.95	54.559
705.13	58.712
705.31	58.791
705.50	56.467
705.68	54.649
705.86	60.248
706.04	55.354
706.23	60.224
706.41	57.053
706.59	56.935
706.78	53.780
706.96	63.727
707.14	56.967
707.33	57.999
707.51	56.485
707.69	60.484
707.88	56.915
708.06	60.195
708.24	58.188
708.42	61.498
708.61	55.884
708.79	59.963
708.97	62.028
709.16	60.688
709.34	60.412
709.52	59.102
709.71	59.753
709.89	57.920
710.07	54.127
710.25	59.424
710.44	53.868
710.62	59.392
710.80	60.235
710.98	59.676
711.17	59.908
711.35	60.079
711.53	56.918
711.72	60.787
711.90	60.626
712.08	60.351
712.26	56.225
712.45	62.025
712.63	59.197
712.81	61.417
712.99	58.130
713.18	61.494
713.36	58.049
713.54	59.128
713.72	57.643
713.91	56.468
714.09	56.795
714.27	59.244
714.45	59.491
714.64	61.942
714.82	61.355
715.00	59.650
715.18	60.087
715.37	59.004
715.55	59.037
715.73	60.500
715.91	60.977
716.10	59.291
716.28	57.407
716.46	62.836
716.64	61.484
716.83	60.702
717.01	59.184
717.19	58.964
717.37	59.918
717.55	58.792
717.74	58.600
717.92	59.318
718.10	54.415
718.28	57.838
718.47	60.010
718.65	58.615
718.83	55.486
719.01	59.882
719.19	57.556
719.38	59.378
719.56	56.607
719.74	58.103
719.92	49.748
720.10	55.129
720.29	55.652
720.47	61.983
720.65	54.062
720.83	58.594
721.01	51.372
721.20	56.724
721.38	49.621
721.56	54.809
721.74	54.701
721.92	58.375
722.11	54.528
722.29	55.266
722.47	51.115
722.65	56.530
722.83	52.693
723.01	58.638
723.20	53.499
723.38	54.562
723.56	51.457
723.74	64.359
723.92	51.966
724.10	60.545
724.29	51.641
724.47	61.844
724.65	50.958
724.83	57.963
725.01	48.238
725.19	63.959
725.38	53.601
725.56	59.866
725.74	56.299
725.92	57.688
726.10	53.451
726.28	56.315
726.46	58.514
726.65	57.402
726.83	57.692
727.01	58.252
727.19	57.351
727.37	59.642
727.55	60.000
727.73	55.415
727.92	52.106
728.10	59.196
728.28	49.406
728.46	59.790
728.64	52.644
728.82	58.977
729.00	57.284
729.19	61.287
729.37	59.186
729.55	59.521
729.73	51.474
729.91	60.533
730.09	56.936
730.27	56.834
730.45	57.228
730.63	58.443
730.82	48.635
731.00	62.005
731.18	52.999
731.36	61.475
731.54	55.562
731.72	63.847
731.90	52.599
732.08	62.115
732.26	56.156
732.45	62.486
732.63	52.225
732.81	63.002
732.99	57.907
733.17	60.488
733.35	56.752
733.53	64.294
733.71	55.137
733.89	59.415
734.07	56.207
734.25	61.595
734.44	57.977
734.62	58.016
734.80	56.509
734.98	60.098
735.16	52.841
735.34	59.856
735.52	60.154
735.70	57.760
735.88	55.940
736.06	58.182
736.24	58.519
736.42	59.986
736.60	56.809
736.78	61.252
736.97	54.158
737.15	61.490
737.33	53.662
737.51	58.714
737.69	57.078
737.87	59.771
738.05	56.399
738.23	59.803
738.41	55.158
738.59	57.898
738.77	52.601
738.95	56.996
739.13	55.175
739.31	55.480
739.49	54.028
739.67	61.445
739.85	55.023
740.03	63.304
740.21	54.745
740.39	63.617
740.57	63.519
740.75	59.142
740.93	53.902
741.11	62.275
741.30	58.024
741.48	63.747
741.66	59.122
741.84	61.717
742.02	51.197
742.20	58.725
742.38	55.096
742.56	60.366
742.74	54.193
742.92	54.922
743.10	52.756
743.28	61.377
743.46	56.518
743.64	57.667
743.82	57.346
744.00	59.149
744.18	61.373
744.36	58.663
744.54	52.822
744.72	63.891
744.90	57.316
745.08	58.247
745.26	50.937
745.44	57.192
745.62	48.408
745.80	53.267
745.98	51.510
746.16	59.012
746.34	49.727
746.52	58.296
746.70	51.332
746.87	56.443
747.05	61.496
747.23	60.529
747.41	54.283
747.59	60.069
747.77	53.979
747.95	57.143
748.13	54.281
748.31	56.222
748.49	53.272
748.67	59.770
748.85	54.448
749.03	58.244
749.21	53.825
749.39	59.050
749.57	52.004
749.75	53.074
749.93	55.518
750.11	62.599
750.29	53.699
750.47	50.991
750.65	54.185
750.83	66.085
751.01	54.011
751.18	51.120
751.36	56.113
751.54	56.362
751.72	58.758
751.90	51.394
752.08	52.257
752.26	51.751
752.44	53.889
752.62	55.148
752.80	49.466
752.98	59.016
753.16	56.526
753.34	54.455
753.52	59.573
753.69	50.915
753.87	54.047
754.05	56.759
754.23	53.499
754.41	56.151
754.59	47.919
754.77	56.446
754.95	53.013
755.13	58.911
755.31	57.456
755.49	56.358
755.66	53.758
755.84	55.471
756.02	45.260
756.20	61.451
756.38	49.274
756.56	52.790
756.74	60.232
756.92	58.879
757.10	54.762
757.28	54.668
757.45	56.804
757.63	57.611
757.81	48.776
757.99	62.855
758.17	50.698
758.35	56.744
758.53	61.597
758.71	63.745
758.88	51.449
759.06	54.693
759.24	48.947
759.42	52.641
759.60	56.742
759.78	52.591
759.96	41.255
760.13	50.459
760.31	44.139
760.49	50.041
760.67	34.862
760.85	51.780
761.03	45.936
761.21	45.463
761.38	40.725
761.56	45.439
761.74	40.000
761.92	46.197
762.10	33.969
762.28	50.651
762.46	33.193
762.63	42.622
762.81	41.292
762.99	46.697
763.17	46.406
763.35	50.822
763.53	43.508
763.70	56.395
763.88	48.949
764.06	57.299
764.24	51.848
764.42	55.221
764.60	53.275
764.77	55.493
764.95	53.323
765.13	56.395
765.31	55.231
765.49	57.460
765.66	49.650
765.84	57.390
766.02	51.722
766.20	53.836
766.38	50.147
766.56	53.841
766.73	45.078
766.91	53.920
767.09	51.193
767.27	59.244
767.45	47.631
767.62	53.374
767.80	49.775
767.98	57.441
768.16	46.175
768.33	55.526
768.51	52.941
768.69	53.728
768.87	49.618
769.05	50.754
769.22	44.267
769.40	54.648
769.58	45.846
769.76	57.715
769.94	49.218
770.11	54.752
770.29	52.751
770.47	53.639
770.65	54.556
770.82	58.673
771.00	45.412
771.18	52.313
771.36	49.835
771.53	57.586
771.71	48.005
771.89	56.654
772.07	50.571
772.25	56.323
772.42	46.462
772.60	51.921
772.78	47.912
772.96	58.213
773.13	52.281
773.31	51.953
773.49	47.207
773.67	52.941
773.84	44.499
774.02	53.836
774.20	44.993
774.37	51.340
774.55	41.624
774.73	64.146
774.91	41.687
775.08	57.182
775.26	45.219
775.44	51.511
775.62	49.431
775.79	55.541
775.97	52.162
776.15	55.438
776.32	39.060
776.50	59.309
776.68	56.528
776.86	46.375
777.03	50.336
777.21	51.406
777.39	46.930
777.56	54.848
777.74	41.389
777.92	51.444
778.10	52.266
778.27	46.019
778.45	46.019
778.63	53.750
778.80	46.453
778.98	55.766
779.16	59.357
779.34	49.930
779.51	46.820
779.69	51.189
779.87	47.994
780.04	51.771
780.22	51.498
780.40	55.956
780.57	55.837
780.75	52.725
780.93	47.869
781.10	42.319
781.28	58.880
781.46	48.016
781.63	49.046
781.81	54.215
781.99	49.054
782.16	46.784
782.34	44.870
782.52	46.812
782.69	50.209
782.87	51.719
783.05	41.714
783.22	43.810
783.40	46.130
783.58	44.843
783.75	45.166
783.93	59.701
784.11	43.415
784.28	49.057
784.46	37.715
784.64	51.969
784.81	33.974
784.99	52.765
785.17	45.574
785.34	50.164
785.52	35.610
785.69	46.812
785.87	37.437
786.05	53.162
786.22	47.087
786.40	56.579
786.58	46.019
786.75	53.195
786.93	42.880
787.11	55.859
787.28	32.428
787.46	53.420
787.63	50.769
787.81	45.662
787.99	45.114
788.16	46.529
788.34	40.345
788.51	45.803
788.69	42.478
788.87	45.396
789.04	42.157
789.22	46.390
789.39	46.776
789.57	46.224
789.75	43.233
789.92	51.286
790.10	38.804
790.27	47.234
790.45	41.110
790.63	45.790
790.80	32.893
790.98	43.623
791.15	42.169
791.33	48.963
791.51	38.831
791.68	48.970
791.86	38.576
792.03	46.000
792.21	40.765
792.39	45.426
792.56	40.794
792.74	41.460
792.91	42.424
793.09	45.199
793.26	42.077
793.44	47.170
793.62	40.159
793.79	45.336
793.97	46.809
794.14	51.552
794.32	43.820
794.49	47.232
794.67	50.360
794.84	48.506
795.02	41.738
795.20	51.287
795.37	34.673
795.55	44.632
795.72	44.700
795.90	47.906
796.07	47.931
796.25	48.662
796.42	44.348
796.60	38.599
796.77	39.967
796.95	49.442
797.13	35.922
797.30	50.749
797.48	47.181
797.65	43.987
797.83	33.976
798.00	39.320
798.18	35.670
798.35	44.269
798.53	43.667
798.70	45.496
798.88	39.465
799.05	42.991
799.23	43.478
799.40	44.108
799.58	44.845
799.75	45.915
799.93	39.347
800.10	42.939
800.28	39.729
800.45	52.244
800.63	33.993
800.80	44.961
800.98	41.822
801.15	50.442
801.33	40.741
801.50	48.532
801.68	38.921
801.85	45.283
802.03	32.215
802.20	36.142
802.38	36.749
802.55	44.231
802.73	39.478
802.90	48.609
803.08	30.249
803.25	41.923
803.43	42.652
803.60	38.382
803.78	47.081
803.95	44.715
804.13	44.983
804.30	43.418
804.48	34.705
804.65	42.323
804.83	37.605
805.00	37.759
805.17	40.000
805.35	49.053
805.52	32.696
805.70	41.509
805.87	40.481
806.05	54.276
806.22	37.361
806.40	31.792
806.57	44.757
806.75	54.312
806.92	48.772
807.09	51.233
807.27	43.674
807.44	51.718
807.62	44.212
807.79	44.464
807.97	47.069
808.14	44.400
808.31	28.807
808.49	36.170
808.66	40.848
808.84	31.783
809.01	37.367
809.19	43.827
809.36	48.676
809.53	37.897
809.71	40.734
809.88	47.894
810.06	40.551
810.23	47.800
810.41	32.158
810.58	47.569
810.75	32.189
810.93	42.406
811.10	26.526
811.28	44.072
811.45	37.945
811.62	39.551
811.80	36.596
811.97	41.342
812.15	46.154
812.32	36.638
812.49	43.355
812.67	39.574
812.84	36.484
813.02	47.309
813.19	33.409
813.36	42.733
813.54	40.265
813.71	44.091
813.89	32.599
814.06	46.032
814.23	27.982
814.41	39.480
814.58	35.817
814.75	52.334
814.93	39.048
815.10	44.359
815.28	49.265
815.45	28.325
815.62	31.894
815.80	30.023
815.97	37.474
816.14	36.152
816.32	36.675
816.49	28.947
816.66	37.500
816.84	33.770
817.01	36.443
817.18	35.897
817.36	29.062
817.53	43.035
817.71	27.646
817.88	26.364
818.05	40.940
818.23	34.762
818.40	34.434
818.57	45.940
818.75	30.394
818.92	38.578
819.09	39.370
819.27	26.471
819.44	33.201
819.61	30.812
819.79	30.864
819.96	38.614
820.13	26.425
820.31	29.739
820.48	41.242
820.65	43.339
820.82	45.024
821.00	37.810
821.17	33.906
821.34	38.913
821.52	36.579
821.69	39.935
821.86	41.975
822.04	49.153
822.21	48.559
822.38	61.908
822.56	54.655
822.73	60.976
822.90	57.023
823.07	64.319
823.25	58.768
823.42	57.579
823.59	56.706
823.77	57.981
823.94	57.459
824.11	59.193
824.29	57.402
824.46	61.180
824.63	58.848
824.80	57.543
824.98	54.374
825.15	55.796
825.32	48.265
825.49	56.175
825.67	43.506
825.84	53.711
826.01	45.365
826.19	48.873
826.36	37.490
826.53	48.455
826.70	36.877
826.88	47.965
827.05	37.065
827.22	46.860
827.39	44.973
827.57	54.068
827.74	42.462
827.91	54.757
828.08	45.061
828.26	53.173
828.43	45.952
828.60	57.661
828.77	51.439
828.95	52.705
829.12	41.358
829.29	36.881
829.46	41.407
829.64	44.259
829.81	30.888
829.98	37.116
830.15	37.229
830.32	28.247
830.50	30.574
830.67	34.447
830.84	30.896
831.01	26.489
831.19	32.517
831.36	37.398
831.53	24.802
831.70	44.530
831.87	41.116
832.05	43.762
832.22	47.534
832.39	31.087
832.56	26.718
832.74	33.705
832.91	36.709
833.08	49.190
833.25	23.374
833.42	32.297
833.60	36.111
833.77	28.758
833.94	31.114
834.11	32.000
834.28	26.651
834.45	39.906
834.63	32.860
834.80	40.127
834.97	36.650
835.14	39.583
835.31	37.700
835.49	36.766
835.66	30.350
835.83	37.244
836.00	34.714
836.17	35.813
836.34	27.644
836.52	35.000
836.69	41.871
836.86	36.875
837.03	33.221
837.20	28.045
837.37	29.616
837.55	34.690
837.72	35.645
837.89	33.333
838.06	35.337
838.23	36.842
838.40	41.135
838.58	23.733
838.75	34.473
838.92	44.483
839.09	28.836
839.26	37.701
839.43	38.040
839.60	47.157
839.78	68.210
839.95	35.831
840.12	38.291
840.29	42.994
840.46	35.315
840.63	48.235
840.80	30.133
840.98	55.429
841.15	34.250
841.32	36.300
841.49	42.609
841.66	50.000
841.83	48.000
842.00	30.380
842.17	59.452
842.34	36.676
842.52	34.431
842.69	35.849
842.86	31.488
843.03	63.836
843.20	43.265
843.37	46.154
843.54	53.659
843.71	45.306
843.88	55.298
844.06	58.300
844.23	67.633
844.40	54.545
844.57	46.383
844.74	64.629
844.91	67.593
845.08	69.412
845.25	52.920
845.42	36.181
845.59	69.591
845.76	68.636
845.94	72.785
846.11	62.687
846.28	62.759
846.45	30.061
846.62	68.108
846.79	61.111
846.96	54.299
847.13	51.765
847.30	56.566
847.47	71.429
847.64	61.047
847.81	70.330
847.98	45.946
848.15	52.688
848.32	62.887
848.50	67.081
848.67	81.944
848.84	73.232
849.01	40.816
849.18	53.684
849.35	57.592
849.52	67.052
849.69	54.913
849.86	71.166
850.03	69.178
850.20	72.917
850.37	40.000
850.54	62.893
850.71	43.089
850.88	63.636
851.05	76.712
851.22	75.155
851.39	72.165
851.56	38.194
851.73	71.111
851.90	82.500
852.07	72.353
852.24	69.853
852.41	93.431
852.58	50.758
852.75	78.107
852.92	37.500
853.09	60.335
853.26	56.051
853.43	45.000
853.60	68.041
853.77	70.922
853.94	46.970
854.11	58.120
854.28	65.957
854.45	70.629
854.62	100.671
854.79	59.231
854.96	68.116
855.13	80.000
855.30	65.285
855.47	51.724
855.64	69.369
855.81	80.952
855.98	55.333
856.15	61.379
856.32	65.728
856.49	78.995
856.66	67.442
856.83	74.869
857.00	72.131
857.17	94.167
857.34	66.667
857.51	69.231
857.68	79.286
857.85	54.545
858.02	131.081
858.19	60.714
858.36	70.286
858.53	60.571
858.70	50.993
858.87	73.103
859.04	95.070
859.21	46.957
859.38	82.119
859.55	128.704
859.72	75.207
859.89	116.667
860.05	82.946
860.22	65.132
860.39	134.579
860.56	89.908
860.73	65.060
860.90	70.000
861.07	84.699
861.24	98.291
861.41	42.857
861.58	68.966
861.75	62.963
861.92	70.079
862.09	60.241
862.26	81.915
862.43	93.985
862.59	45.128
862.76	72.109
862.93	73.292
863.10	59.310
863.27	47.568
863.44	62.500
863.61	78.235
863.78	88.732
863.95	111.450
864.12	61.806
864.29	61.240
864.45	46.575
864.62	76.692
864.79	51.351
864.96	88.095
865.13	102.290
865.30	98.182
865.47	66.667
865.64	50.625
865.81	46.296
865.97	62.842
866.14	71.905
866.31	76.423
866.48	64.341
866.65	85.000
866.82	79.195
866.99	83.495
867.16	87.143
867.33	75.214
867.49	71.533
867.66	72.816
867.83	65.600
868.00	73.759
868.17	86.364
868.34	87.671
868.51	87.324
868.67	85.124
868.84	93.878
869.01	70.866
869.18	48.062
869.35	113.333
869.52	46.575
869.69	57.252
869.85	80.749
870.02	91.589
870.19	90.756
870.36	51.020
870.53	57.386
870.70	56.977
870.86	79.874
871.03	71.429
871.20	68.874
871.37	58.373
871.54	64.828
871.71	49.383
871.87	65.068
872.04	62.581
872.21	92.473
872.38	63.190
872.55	74.648
872.72	65.581
872.88	65.680
873.05	55.495
873.22	54.167
873.39	73.780
873.56	75.723
873.72	94.030
873.89	85.507
874.06	72.368
874.23	66.949
874.40	58.042
874.56	140.566
874.73	57.609
874.90	80.226
875.07	82.639
875.24	34.104
875.40	71.613
875.57	54.023
875.74	58.667
875.91	43.802
876.08	61.364
876.24	75.325
876.41	82.558
876.58	77.019
876.75	54.167
876.92	42.478
877.08	50.000
877.25	65.823
877.42	77.037
877.59	48.951
877.75	70.470
877.92	60.800
878.09	56.391
878.26	76.623
878.42	47.101
878.59	49.265
878.76	43.590
878.93	79.532
879.09	68.617
879.26	41.622
879.43	76.471
879.60	67.284
879.76	61.438
879.93	71.519
880.10	57.407
880.27	35.780
880.43	41.951
880.60	27.854
880.77	47.619
880.94	31.636
881.10	45.238
881.27	35.733
881.44	34.873
881.61	30.349
881.77	35.119
881.94	19.120
882.11	22.100
882.28	20.972
882.44	26.236
882.61	30.984
882.78	34.498
882.94	41.911
883.11	32.465
883.28	34.623
883.45	34.328
883.61	29.441
883.78	25.053
883.95	35.484
884.11	35.039
884.28	35.036
>>>>>End Processed Spectral Data<<<<<
