SpectraSuite Data File
++++++++++++++++++++++++++++++++++++
Date: Fri Sep 20 03:01:07 EST 2019
User: sgrac
Dark Spectrum Present: Yes
Reference Spectrum Present: Yes
Number of Sampled Component Spectra: 1
Spectrometers: USB4E01596
Integration Time (usec): 100000 (USB4E01596)
Spectra Averaged: 1 (USB4E01596)
Boxcar Smoothing: 0 (USB4E01596)
Correct for Electrical Dark: No (USB4E01596)
Strobe/Lamp Enabled: Yes (USB4E01596)
Correct for Detector Non-linearity: No (USB4E01596)
Correct for Stray Light: No (USB4E01596)
Number of Pixels in Processed Spectrum: 3648
>>>>>Begin Processed Spectral Data<<<<<
178.44	369.565
178.66	369.565
178.87	369.565
179.09	-365.000
179.30	216.667
179.52	410.714
179.74	1580.000
179.95	-254.286
180.17	-518.750
180.38	-556.250
180.60	-348.387
180.82	378.261
181.03	-2225.000
181.25	-1250.000
181.46	-1109.091
181.68	0.000
181.89	8600.000
182.11	1575.000
182.33	769.231
182.54	-211.429
182.76	260.000
182.97	466.667
183.19	1388.889
183.40	-675.000
183.62	892.857
183.84	-200.000
184.05	0.000
184.27	10700.000
184.48	520.000
184.70	5700.000
184.91	707.692
185.13	302.273
185.34	216.667
185.56	-276.190
185.78	621.053
185.99	-6500.000
186.21	325.000
186.42	716.667
186.64	152.239
186.85	166.667
187.07	450.000
187.28	-164.865
187.50	-490.909
187.72	165.625
187.93	10200.000
188.15	422.727
188.36	250.000
188.58	594.118
188.79	4800.000
189.01	355.882
189.22	708.333
189.44	253.191
189.65	-710.000
189.87	621.429
190.09	388.889
190.30	-2200.000
190.52	300.000
190.73	488.889
190.95	-792.308
191.16	-633.333
191.38	-447.826
191.59	688.889
191.81	320.000
192.02	377.500
192.24	176.190
192.45	331.429
192.67	563.636
192.88	0.000
193.10	294.118
193.31	-660.000
193.53	179.545
193.74	181.579
193.96	1140.000
194.18	185.507
194.39	182.000
194.61	476.667
194.82	486.207
195.04	566.667
195.25	161.702
195.47	631.579
195.68	-900.000
195.90	2400.000
196.11	3375.000
196.33	-518.519
196.54	434.483
196.76	197.778
196.97	394.444
197.19	-444.444
197.40	302.778
197.62	-542.857
197.83	873.333
198.05	315.789
198.26	486.364
198.48	1066.667
198.69	354.286
198.91	1142.857
199.12	347.500
199.34	206.154
199.55	-718.182
199.77	565.000
199.98	1780.000
200.20	909.091
200.41	433.333
200.63	-1220.000
200.84	353.659
201.06	-11500.000
201.27	570.588
201.49	265.574
201.70	788.235
201.91	712.500
202.13	600.000
202.34	3175.000
202.56	1585.714
202.77	-2150.000
202.99	773.333
203.20	380.952
203.42	-328.571
203.63	361.290
203.85	-358.333
204.06	3433.333
204.28	-2350.000
204.49	1128.571
204.71	208.333
204.92	1600.000
205.14	0.000
205.35	586.667
205.56	342.857
205.78	348.718
205.99	259.459
206.21	400.000
206.42	2216.667
206.64	-280.488
206.85	1000.000
207.07	784.615
207.28	366.667
207.50	-850.000
207.71	197.674
207.93	4800.000
208.14	-164.865
208.35	348.276
208.57	-781.250
208.78	468.966
209.00	239.474
209.21	0.000
209.43	452.174
209.64	265.116
209.86	1571.429
210.07	1072.727
210.28	496.429
210.50	1860.000
210.71	264.103
210.93	278.947
211.14	190.164
211.36	285.714
211.57	1525.000
211.78	-404.545
212.00	488.462
212.21	-489.474
212.43	348.387
212.64	347.619
212.86	403.571
213.07	417.857
213.29	164.474
213.50	-302.941
213.71	-6100.000
213.93	-1100.000
214.14	686.667
214.36	-1771.429
214.57	175.581
214.78	325.714
215.00	-2866.667
215.21	-1533.333
215.43	-236.364
215.64	693.750
215.86	-1100.000
216.07	647.619
216.28	216.129
216.50	274.468
216.71	-1840.000
216.93	857.143
217.14	241.667
217.35	185.526
217.57	-440.000
217.78	1354.545
218.00	259.091
218.21	183.607
218.42	238.776
218.64	344.444
218.85	224.138
219.07	230.000
219.28	495.238
219.49	-936.364
219.71	295.238
219.92	1566.667
220.14	3866.667
220.35	1000.000
220.56	526.667
220.78	192.063
220.99	1416.667
221.21	308.108
221.42	285.185
221.63	361.111
221.85	9200.000
222.06	310.345
222.28	585.000
222.49	10000.000
222.70	-2300.000
222.92	176.786
223.13	128.986
223.34	232.727
223.56	170.270
223.77	725.000
223.99	160.256
224.20	142.342
224.41	286.047
224.63	335.294
224.84	424.000
225.05	181.250
225.27	262.963
225.48	210.127
225.69	154.545
225.91	154.545
226.12	261.290
226.34	192.754
226.55	148.438
226.76	143.284
226.98	93.860
227.19	183.333
227.40	89.524
227.62	54.054
227.83	126.316
228.04	209.259
228.26	60.185
228.47	75.000
228.69	50.549
228.90	70.225
229.11	37.548
229.33	34.016
229.54	53.061
229.75	33.080
229.97	32.095
230.18	29.891
230.39	28.529
230.61	26.398
230.82	40.196
231.03	38.120
231.25	43.605
231.46	46.032
231.67	41.622
231.89	48.162
232.10	48.092
232.31	40.465
232.53	61.776
232.74	54.508
232.95	25.126
233.17	14.881
233.38	63.426
233.59	54.118
233.81	43.363
234.02	33.990
234.23	46.774
234.45	72.848
234.66	53.465
234.87	65.698
235.09	52.889
235.30	22.581
235.51	42.672
235.73	43.750
235.94	51.971
236.15	45.896
236.36	49.367
236.58	48.117
236.79	49.807
237.00	48.996
237.22	47.845
237.43	48.519
237.64	52.273
237.86	60.294
238.07	37.849
238.28	39.815
238.50	46.694
238.71	32.624
238.92	27.206
239.13	46.875
239.35	36.406
239.56	31.050
239.77	65.217
239.99	36.328
240.20	50.719
240.41	29.467
240.63	33.846
240.84	42.453
241.05	34.188
241.26	39.244
241.48	28.715
241.69	31.151
241.90	26.593
242.12	19.115
242.33	24.144
242.54	18.384
242.75	16.967
242.97	19.088
243.18	13.246
243.39	5.556
243.61	17.865
243.82	7.282
244.03	11.084
244.24	12.972
244.46	13.606
244.67	13.600
244.88	13.672
245.09	14.487
245.31	16.722
245.52	14.286
245.73	24.032
245.95	33.895
246.16	21.303
246.37	20.638
246.58	18.126
246.80	12.552
247.01	17.521
247.22	9.589
247.43	9.800
247.65	11.239
247.86	9.716
248.07	8.142
248.28	8.189
248.50	8.017
248.71	8.071
248.92	7.267
249.13	6.285
249.35	7.552
249.56	10.076
249.77	10.901
249.98	11.073
250.20	13.701
250.41	16.408
250.62	10.435
250.83	12.607
251.05	15.263
251.26	9.262
251.47	20.881
251.68	16.163
251.90	21.317
252.11	19.212
252.32	13.579
252.53	18.168
252.75	16.489
252.96	13.198
253.17	9.353
253.38	14.252
253.59	12.869
253.81	15.411
254.02	13.405
254.23	9.925
254.44	16.518
254.66	16.713
254.87	13.099
255.08	16.879
255.29	21.364
255.50	17.949
255.72	16.834
255.93	18.408
256.14	22.340
256.35	24.769
256.57	13.051
256.78	23.476
256.99	17.258
257.20	12.371
257.41	18.095
257.63	18.476
257.84	18.693
258.05	17.529
258.26	18.166
258.47	18.111
258.69	13.037
258.90	8.702
259.11	16.306
259.32	14.330
259.53	8.546
259.75	12.007
259.96	6.785
260.17	6.922
260.38	7.298
260.59	6.795
260.81	5.430
261.02	6.825
261.23	4.903
261.44	5.393
261.65	6.110
261.87	6.113
262.08	5.710
262.29	6.015
262.50	9.917
262.71	6.605
262.92	12.889
263.14	11.538
263.35	8.264
263.56	9.348
263.77	15.433
263.98	18.534
264.20	8.855
264.41	13.548
264.62	13.988
264.83	12.818
265.04	15.882
265.25	14.446
265.47	20.359
265.68	14.196
265.89	12.082
266.10	9.886
266.31	17.483
266.52	8.571
266.74	12.039
266.95	12.826
267.16	13.164
267.37	8.830
267.58	11.554
267.79	13.545
268.01	9.884
268.22	7.776
268.43	11.869
268.64	6.798
268.85	9.854
269.06	11.775
269.27	10.708
269.49	9.107
269.70	10.711
269.91	10.183
270.12	10.589
270.33	14.338
270.54	11.787
270.75	10.221
270.97	10.560
271.18	11.647
271.39	11.379
271.60	12.666
271.81	9.123
272.02	10.678
272.23	6.533
272.45	10.059
272.66	8.351
272.87	11.188
273.08	5.435
273.29	9.330
273.50	4.847
273.71	7.556
273.92	5.240
274.14	8.911
274.35	7.469
274.56	9.274
274.77	13.791
274.98	10.756
275.19	7.096
275.40	9.834
275.61	7.370
275.83	8.760
276.04	9.121
276.25	8.313
276.46	9.680
276.67	10.717
276.88	11.055
277.09	10.017
277.30	10.353
277.51	10.120
277.73	10.051
277.94	8.536
278.15	5.403
278.36	11.945
278.57	8.278
278.78	6.673
278.99	7.218
279.20	10.526
279.41	12.626
279.62	10.280
279.84	9.278
280.05	11.160
280.26	9.098
280.47	10.342
280.68	7.941
280.89	12.916
281.10	10.720
281.31	12.969
281.52	8.327
281.73	5.859
281.94	4.433
282.16	10.923
282.37	10.991
282.58	4.803
282.79	5.837
283.00	9.072
283.21	4.091
283.42	8.130
283.63	6.013
283.84	9.615
284.05	6.714
284.26	8.661
284.47	9.103
284.68	6.502
284.89	3.709
285.11	7.782
285.32	5.058
285.53	6.466
285.74	5.941
285.95	7.405
286.16	6.481
286.37	6.635
286.58	5.515
286.79	5.329
287.00	5.245
287.21	6.320
287.42	4.156
287.63	5.457
287.84	4.615
288.05	5.508
288.26	4.970
288.48	6.477
288.69	5.049
288.90	5.471
289.11	8.036
289.32	4.619
289.53	5.103
289.74	10.061
289.95	6.295
290.16	11.507
290.37	4.127
290.58	7.242
290.79	6.335
291.00	6.963
291.21	6.173
291.42	5.921
291.63	4.685
291.84	7.438
292.05	6.349
292.26	4.384
292.47	7.277
292.68	6.513
292.89	8.412
293.10	7.251
293.31	6.188
293.52	6.509
293.73	7.073
293.94	6.530
294.15	5.281
294.36	6.384
294.57	8.149
294.79	6.227
295.00	3.978
295.21	6.207
295.42	5.813
295.63	8.405
295.84	5.156
296.05	7.162
296.26	5.511
296.47	8.854
296.68	4.916
296.89	5.205
297.10	5.062
297.31	7.236
297.52	4.251
297.73	5.091
297.94	3.980
298.15	5.422
298.36	3.834
298.57	5.611
298.78	5.917
298.99	4.005
299.20	3.648
299.41	4.943
299.62	4.227
299.83	4.873
300.04	4.901
300.25	7.499
300.46	5.399
300.67	6.628
300.88	6.206
301.09	5.544
301.30	8.233
301.50	6.390
301.71	8.842
301.92	7.896
302.13	6.748
302.34	5.140
302.55	6.816
302.76	4.878
302.97	6.528
303.18	5.505
303.39	6.690
303.60	6.579
303.81	8.323
304.02	7.213
304.23	4.734
304.44	6.491
304.65	4.324
304.86	8.144
305.07	4.932
305.28	7.384
305.49	5.766
305.70	6.739
305.91	6.822
306.12	6.400
306.33	5.338
306.54	5.800
306.75	4.474
306.96	7.782
307.17	7.205
307.38	10.851
307.58	5.868
307.79	9.453
308.00	7.849
308.21	5.896
308.42	5.665
308.63	5.849
308.84	6.923
309.05	2.604
309.26	5.401
309.47	4.797
309.68	4.331
309.89	6.072
310.10	3.489
310.31	8.153
310.52	2.862
310.73	5.862
310.94	5.478
311.14	4.220
311.35	4.145
311.56	4.556
311.77	3.257
311.98	5.600
312.19	5.622
312.40	5.834
312.61	6.108
312.82	5.540
313.03	6.978
313.24	8.109
313.45	4.463
313.66	6.673
313.86	3.917
314.07	7.277
314.28	6.412
314.49	4.652
314.70	6.408
314.91	5.703
315.12	4.616
315.33	5.653
315.54	5.006
315.75	6.064
315.96	5.006
316.16	5.742
316.37	6.755
316.58	4.420
316.79	7.989
317.00	6.897
317.21	5.263
317.42	3.665
317.63	6.926
317.84	5.081
318.05	4.838
318.25	6.698
318.46	2.642
318.67	5.493
318.88	4.944
319.09	8.493
319.30	6.346
319.51	4.442
319.72	4.813
319.93	7.930
320.13	7.598
320.34	7.756
320.55	9.236
320.76	9.639
320.97	3.208
321.18	6.479
321.39	6.530
321.60	6.764
321.80	10.316
322.01	8.296
322.22	7.351
322.43	6.266
322.64	5.718
322.85	5.327
323.06	5.376
323.27	5.952
323.47	5.068
323.68	7.670
323.89	6.283
324.10	6.783
324.31	6.305
324.52	6.553
324.73	7.457
324.93	5.723
325.14	5.923
325.35	4.852
325.56	5.234
325.77	5.350
325.98	6.070
326.19	8.363
326.39	5.171
326.60	4.410
326.81	6.186
327.02	5.731
327.23	3.761
327.44	7.438
327.64	6.630
327.85	8.902
328.06	6.574
328.27	9.017
328.48	5.948
328.69	4.314
328.90	5.329
329.10	5.203
329.31	6.677
329.52	6.054
329.73	8.886
329.94	4.264
330.15	4.275
330.35	6.796
330.56	6.448
330.77	5.528
330.98	8.288
331.19	5.169
331.39	6.479
331.60	4.801
331.81	4.499
332.02	4.857
332.23	7.500
332.44	7.108
332.64	6.066
332.85	6.558
333.06	7.191
333.27	6.439
333.48	5.079
333.68	5.769
333.89	3.778
334.10	6.328
334.31	6.350
334.52	7.150
334.72	6.463
334.93	6.865
335.14	5.729
335.35	8.325
335.56	7.578
335.76	4.835
335.97	6.365
336.18	3.555
336.39	6.522
336.60	5.126
336.80	5.809
337.01	3.784
337.22	5.176
337.43	4.696
337.64	7.290
337.84	5.453
338.05	4.543
338.26	4.295
338.47	5.931
338.68	3.932
338.88	4.270
339.09	4.518
339.30	4.937
339.51	5.033
339.71	6.944
339.92	5.389
340.13	6.748
340.34	5.760
340.55	3.963
340.75	6.410
340.96	3.183
341.17	6.381
341.38	4.056
341.58	5.594
341.79	3.092
342.00	6.016
342.21	5.740
342.41	5.953
342.62	4.683
342.83	4.496
343.04	5.086
343.24	6.290
343.45	4.575
343.66	5.776
343.87	4.664
344.07	5.762
344.28	7.065
344.49	6.242
344.70	4.888
344.90	4.254
345.11	4.159
345.32	5.625
345.53	4.959
345.73	2.858
345.94	4.232
346.15	5.523
346.36	3.244
346.56	5.457
346.77	2.888
346.98	4.241
347.19	5.707
347.39	4.928
347.60	5.846
347.81	6.279
348.02	5.191
348.22	3.670
348.43	3.507
348.64	2.885
348.84	4.132
349.05	3.688
349.26	6.236
349.47	4.464
349.67	3.057
349.88	6.054
350.09	5.263
350.30	3.590
350.50	5.633
350.71	5.762
350.92	4.403
351.12	3.104
351.33	4.138
351.54	4.648
351.74	4.415
351.95	3.772
352.16	4.197
352.37	3.262
352.57	5.335
352.78	3.969
352.99	2.443
353.19	4.626
353.40	2.858
353.61	5.009
353.82	5.652
354.02	3.927
354.23	6.182
354.44	6.115
354.64	4.363
354.85	5.508
355.06	3.547
355.26	4.077
355.47	4.301
355.68	5.224
355.88	4.134
356.09	4.582
356.30	4.804
356.51	5.856
356.71	4.690
356.92	5.105
357.13	3.810
357.33	6.413
357.54	4.089
357.75	4.302
357.95	4.751
358.16	4.330
358.37	3.711
358.57	4.397
358.78	5.677
358.99	4.631
359.19	4.106
359.40	4.754
359.61	3.802
359.81	6.246
360.02	4.344
360.23	3.922
360.43	3.701
360.64	3.341
360.85	3.730
361.05	3.521
361.26	2.585
361.47	3.334
361.67	4.574
361.88	2.655
362.09	2.594
362.29	3.417
362.50	2.895
362.70	2.976
362.91	3.959
363.12	2.855
363.32	2.633
363.53	3.241
363.74	2.925
363.94	3.629
364.15	2.780
364.36	4.152
364.56	2.799
364.77	3.642
364.98	5.079
365.18	4.666
365.39	3.262
365.59	4.157
365.80	2.942
366.01	4.227
366.21	3.348
366.42	4.270
366.63	4.422
366.83	2.420
367.04	3.593
367.24	5.026
367.45	4.704
367.66	2.424
367.86	3.862
368.07	3.344
368.28	4.379
368.48	4.893
368.69	3.106
368.89	3.420
369.10	3.504
369.31	5.538
369.51	4.221
369.72	5.510
369.92	4.159
370.13	3.636
370.34	3.792
370.54	1.729
370.75	4.244
370.95	2.957
371.16	3.099
371.37	3.307
371.57	3.158
371.78	2.805
371.98	3.321
372.19	4.853
372.40	3.037
372.60	3.000
372.81	5.554
373.01	2.571
373.22	3.494
373.43	3.742
373.63	2.469
373.84	3.664
374.04	4.003
374.25	3.883
374.46	3.100
374.66	4.061
374.87	2.805
375.07	2.853
375.28	3.893
375.48	4.169
375.69	3.815
375.90	3.051
376.10	2.550
376.31	3.308
376.51	3.793
376.72	2.777
376.92	4.419
377.13	4.538
377.34	3.413
377.54	3.297
377.75	4.645
377.95	3.133
378.16	3.983
378.36	4.364
378.57	2.516
378.77	3.296
378.98	4.269
379.19	3.873
379.39	3.021
379.60	3.167
379.80	3.165
380.01	3.810
380.21	2.895
380.42	3.694
380.62	4.013
380.83	4.432
381.04	2.714
381.24	3.698
381.45	2.854
381.65	2.840
381.86	3.124
382.06	3.860
382.27	3.371
382.47	3.358
382.68	2.763
382.88	3.257
383.09	4.486
383.29	3.300
383.50	3.264
383.71	5.044
383.91	2.600
384.12	3.864
384.32	4.659
384.53	4.274
384.73	3.250
384.94	4.196
385.14	3.560
385.35	2.721
385.55	2.733
385.76	2.975
385.96	3.098
386.17	2.980
386.37	3.433
386.58	2.415
386.78	4.289
386.99	3.494
387.19	3.896
387.40	4.205
387.60	5.225
387.81	3.214
388.01	3.221
388.22	4.362
388.42	3.437
388.63	3.811
388.83	3.837
389.04	3.880
389.24	2.817
389.45	3.524
389.65	3.560
389.86	4.242
390.06	4.076
390.27	3.127
390.47	3.665
390.68	3.060
390.88	4.266
391.09	4.829
391.29	4.349
391.50	3.392
391.70	3.697
391.91	3.068
392.11	3.278
392.32	5.194
392.52	3.506
392.73	3.638
392.93	3.499
393.14	3.560
393.34	3.746
393.55	5.132
393.75	4.838
393.95	3.857
394.16	4.526
394.36	5.695
394.57	3.729
394.77	4.644
394.98	4.168
395.18	4.241
395.39	4.200
395.59	3.967
395.80	4.201
396.00	3.583
396.21	5.466
396.41	3.553
396.61	4.778
396.82	5.520
397.02	6.590
397.23	5.207
397.43	5.711
397.64	3.872
397.84	6.334
398.05	2.676
398.25	5.383
398.45	3.532
398.66	5.092
398.86	4.145
399.07	5.668
399.27	4.820
399.48	6.294
399.68	4.042
399.89	4.157
400.09	5.165
400.29	3.997
400.50	5.310
400.70	5.862
400.91	5.458
401.11	5.295
401.32	5.681
401.52	3.896
401.72	4.641
401.93	7.999
402.13	5.539
402.34	4.889
402.54	4.321
402.75	6.583
402.95	3.985
403.15	5.537
403.36	4.765
403.56	5.358
403.77	4.838
403.97	6.073
404.17	4.922
404.38	6.443
404.58	4.713
404.79	5.657
404.99	6.368
405.19	4.673
405.40	5.040
405.60	6.189
405.81	4.885
406.01	5.807
406.21	5.868
406.42	5.336
406.62	5.631
406.83	6.689
407.03	6.863
407.23	5.347
407.44	5.616
407.64	6.528
407.85	6.024
408.05	7.024
408.25	5.797
408.46	7.112
408.66	6.180
408.87	5.715
409.07	4.541
409.27	5.377
409.48	5.093
409.68	6.370
409.88	4.540
410.09	6.239
410.29	6.102
410.50	8.201
410.70	4.646
410.90	6.104
411.11	5.413
411.31	5.172
411.51	5.748
411.72	6.808
411.92	5.072
412.12	5.606
412.33	4.277
412.53	5.019
412.74	4.249
412.94	6.600
413.14	6.052
413.35	5.626
413.55	5.242
413.75	7.399
413.96	4.836
414.16	5.766
414.36	5.309
414.57	5.986
414.77	4.518
414.97	7.089
415.18	4.688
415.38	5.778
415.58	6.244
415.79	5.247
415.99	4.819
416.19	5.618
416.40	6.544
416.60	5.130
416.80	5.173
417.01	5.668
417.21	3.864
417.41	6.943
417.62	5.589
417.82	7.016
418.02	4.634
418.23	6.692
418.43	6.055
418.63	6.020
418.84	6.478
419.04	5.949
419.24	6.994
419.45	7.763
419.65	7.116
419.85	8.015
420.06	7.309
420.26	7.259
420.46	6.966
420.67	7.837
420.87	7.255
421.07	8.379
421.28	6.813
421.48	8.701
421.68	7.706
421.88	8.343
422.09	8.537
422.29	8.168
422.49	7.142
422.70	7.820
422.90	7.805
423.10	7.747
423.31	7.693
423.51	8.670
423.71	7.177
423.91	8.476
424.12	7.372
424.32	8.364
424.52	7.908
424.73	7.393
424.93	8.011
425.13	7.897
425.33	7.681
425.54	9.141
425.74	7.921
425.94	8.718
426.15	7.429
426.35	7.938
426.55	7.642
426.75	8.391
426.96	7.178
427.16	7.693
427.36	8.086
427.57	8.609
427.77	6.387
427.97	7.689
428.17	8.070
428.38	8.145
428.58	5.354
428.78	8.017
428.98	6.064
429.19	6.149
429.39	4.481
429.59	7.475
429.79	5.005
430.00	5.701
430.20	5.677
430.40	6.802
430.60	5.938
430.81	7.010
431.01	5.302
431.21	6.269
431.41	4.880
431.62	6.193
431.82	5.664
432.02	7.647
432.22	5.580
432.43	5.327
432.63	5.317
432.83	6.631
433.03	5.920
433.24	6.475
433.44	6.029
433.64	7.432
433.84	6.400
434.05	7.751
434.25	7.403
434.45	9.119
434.65	8.089
434.85	9.240
435.06	7.923
435.26	8.039
435.46	7.509
435.66	8.948
435.87	6.802
436.07	8.286
436.27	7.685
436.47	6.641
436.67	5.336
436.88	8.088
437.08	7.566
437.28	6.998
437.48	6.450
437.69	8.242
437.89	7.137
438.09	9.304
438.29	6.674
438.49	8.012
438.70	7.342
438.90	7.470
439.10	7.103
439.30	8.395
439.50	6.243
439.71	8.998
439.91	7.742
440.11	10.036
440.31	8.366
440.51	8.906
440.72	7.957
440.92	8.652
441.12	8.379
441.32	9.845
441.52	9.686
441.72	9.863
441.93	9.078
442.13	10.325
442.33	8.314
442.53	10.340
442.73	8.339
442.94	9.140
443.14	8.464
443.34	9.464
443.54	9.189
443.74	9.592
443.94	8.290
444.15	8.265
444.35	8.266
444.55	8.885
444.75	8.292
444.95	9.404
445.15	8.529
445.36	9.097
445.56	7.705
445.76	10.157
445.96	8.781
446.16	9.277
446.36	8.518
446.57	10.050
446.77	8.589
446.97	10.453
447.17	9.798
447.37	10.239
447.57	9.979
447.77	10.092
447.98	9.592
448.18	10.224
448.38	9.812
448.58	10.650
448.78	9.769
448.98	10.655
449.18	9.468
449.39	9.732
449.59	9.339
449.79	9.936
449.99	8.328
450.19	9.286
450.39	8.499
450.59	9.966
450.79	8.351
451.00	10.796
451.20	9.617
451.40	9.132
451.60	8.542
451.80	9.722
452.00	8.237
452.20	9.474
452.40	9.041
452.61	9.008
452.81	8.771
453.01	9.360
453.21	8.646
453.41	9.523
453.61	8.503
453.81	9.877
454.01	9.079
454.21	9.797
454.42	9.680
454.62	9.691
454.82	8.923
455.02	8.480
455.22	8.217
455.42	7.951
455.62	6.919
455.82	9.526
456.02	7.109
456.23	8.403
456.43	8.552
456.63	8.764
456.83	7.519
457.03	9.187
457.23	8.066
457.43	9.076
457.63	7.540
457.83	8.970
458.03	8.148
458.23	9.137
458.43	7.701
458.64	8.146
458.84	8.777
459.04	9.887
459.24	9.267
459.44	9.743
459.64	9.048
459.84	10.493
460.04	9.425
460.24	10.533
460.44	10.307
460.64	10.760
460.84	9.634
461.04	10.665
461.24	10.363
461.45	10.666
461.65	10.427
461.85	11.023
462.05	10.417
462.25	10.796
462.45	10.298
462.65	10.740
462.85	8.376
463.05	10.888
463.25	7.797
463.45	10.267
463.65	8.949
463.85	9.599
464.05	9.045
464.25	9.706
464.45	9.872
464.65	9.269
464.85	7.592
465.05	9.491
465.26	9.484
465.46	10.342
465.66	10.070
465.86	9.901
466.06	8.603
466.26	9.903
466.46	8.500
466.66	9.600
466.86	8.481
467.06	9.915
467.26	9.600
467.46	10.444
467.66	9.128
467.86	10.443
468.06	9.213
468.26	9.395
468.46	9.545
468.66	10.320
468.86	8.200
469.06	10.640
469.26	8.091
469.46	10.385
469.66	9.480
469.86	11.299
470.06	8.839
470.26	11.162
470.46	8.851
470.66	11.344
470.86	8.415
471.06	11.247
471.26	8.342
471.46	9.575
471.66	10.138
471.86	10.336
472.06	9.029
472.26	11.953
472.46	10.313
472.66	11.342
472.86	9.057
473.06	10.140
473.26	9.749
473.46	10.837
473.66	9.437
473.86	11.461
474.06	8.688
474.26	11.771
474.46	8.621
474.66	11.262
474.86	10.415
475.06	10.463
475.26	8.388
475.46	11.442
475.66	9.147
475.86	10.308
476.06	9.638
476.26	11.353
476.46	10.220
476.66	11.501
476.86	9.337
477.06	10.804
477.26	10.171
477.46	11.097
477.65	10.770
477.85	11.564
478.05	9.016
478.25	11.513
478.45	10.435
478.65	11.449
478.85	10.045
479.05	11.564
479.25	11.261
479.45	11.318
479.65	10.778
479.85	11.228
480.05	11.166
480.25	12.081
480.45	10.926
480.65	12.645
480.85	10.696
481.05	11.964
481.25	11.288
481.44	11.298
481.64	10.831
481.84	12.241
482.04	11.639
482.24	12.371
482.44	11.135
482.64	11.831
482.84	11.853
483.04	11.798
483.24	11.494
483.44	11.607
483.64	11.201
483.84	11.515
484.04	11.671
484.23	11.895
484.43	12.070
484.63	13.017
484.83	13.447
485.03	13.910
485.23	14.098
485.43	13.914
485.63	13.863
485.83	13.055
486.03	12.631
486.23	13.123
486.42	12.943
486.62	12.826
486.82	12.698
487.02	12.340
487.22	12.131
487.42	11.994
487.62	11.915
487.82	12.334
488.02	12.097
488.22	12.193
488.41	11.979
488.61	12.329
488.81	12.498
489.01	12.575
489.21	12.744
489.41	12.855
489.61	12.821
489.81	12.837
490.01	12.813
490.20	12.969
490.40	12.547
490.60	13.075
490.80	12.609
491.00	12.434
491.20	12.371
491.40	11.780
491.60	11.769
491.79	11.899
491.99	12.488
492.19	12.247
492.39	11.893
492.59	12.436
492.79	12.324
492.99	12.501
493.19	12.213
493.38	12.627
493.58	12.944
493.78	12.987
493.98	13.221
494.18	13.128
494.38	12.788
494.58	13.503
494.77	12.398
494.97	12.879
495.17	11.801
495.37	12.119
495.57	11.944
495.77	12.801
495.96	12.622
496.16	12.484
496.36	11.938
496.56	12.714
496.76	12.037
496.96	12.315
497.15	11.851
497.35	12.425
497.55	12.031
497.75	12.764
497.95	12.432
498.15	12.852
498.34	12.102
498.54	12.538
498.74	12.744
498.94	12.885
499.14	11.531
499.34	13.110
499.53	12.540
499.73	12.881
499.93	12.886
500.13	12.496
500.33	12.526
500.52	12.925
500.72	12.184
500.92	12.552
501.12	12.151
501.32	12.405
501.52	12.401
501.71	11.984
501.91	11.750
502.11	12.382
502.31	11.464
502.51	13.061
502.70	11.346
502.90	12.315
503.10	11.532
503.30	12.667
503.50	11.873
503.69	12.421
503.89	12.828
504.09	13.002
504.29	11.502
504.48	12.233
504.68	12.267
504.88	13.070
505.08	11.684
505.28	12.990
505.47	12.385
505.67	13.106
505.87	11.936
506.07	12.514
506.27	12.369
506.46	13.154
506.66	12.199
506.86	12.956
507.06	12.417
507.25	12.813
507.45	12.337
507.65	12.632
507.85	11.448
508.04	13.449
508.24	12.802
508.44	12.996
508.64	12.555
508.83	13.081
509.03	12.257
509.23	12.992
509.43	11.942
509.63	12.564
509.82	12.481
510.02	13.131
510.22	12.915
510.42	13.381
510.61	13.038
510.81	13.028
511.01	13.059
511.21	13.204
511.40	12.138
511.60	13.399
511.80	13.098
511.99	13.785
512.19	13.327
512.39	13.121
512.59	12.655
512.78	13.483
512.98	12.665
513.18	13.566
513.38	12.811
513.57	13.889
513.77	12.819
513.97	13.851
514.17	13.042
514.36	12.687
514.56	12.629
514.76	13.892
514.95	12.893
515.15	13.648
515.35	12.885
515.55	13.458
515.74	13.862
515.94	13.670
516.14	13.165
516.33	13.086
516.53	12.633
516.73	13.204
516.93	12.161
517.12	13.605
517.32	12.475
517.52	13.195
517.71	12.618
517.91	12.932
518.11	12.693
518.30	13.142
518.50	12.930
518.70	12.959
518.90	12.637
519.09	13.383
519.29	13.253
519.49	13.621
519.68	13.217
519.88	13.219
520.08	13.967
520.27	14.163
520.47	13.729
520.67	13.769
520.86	13.591
521.06	13.662
521.26	13.605
521.45	13.409
521.65	13.695
521.85	13.865
522.04	13.396
522.24	13.651
522.44	12.957
522.63	13.121
522.83	12.630
523.03	13.416
523.22	12.849
523.42	13.481
523.62	13.596
523.81	13.767
524.01	13.322
524.21	13.230
524.40	12.613
524.60	13.229
524.80	12.812
524.99	12.878
525.19	13.362
525.39	12.641
525.58	13.406
525.78	13.151
525.98	13.157
526.17	13.731
526.37	13.102
526.57	13.168
526.76	13.934
526.96	13.003
527.15	13.450
527.35	13.667
527.55	13.421
527.74	13.417
527.94	13.189
528.14	12.795
528.33	12.594
528.53	12.932
528.72	13.130
528.92	13.231
529.12	13.506
529.31	13.320
529.51	13.526
529.71	13.710
529.90	13.840
530.10	13.987
530.29	14.174
530.49	14.260
530.69	14.151
530.88	13.900
531.08	14.214
531.28	13.714
531.47	13.477
531.67	13.531
531.86	13.750
532.06	13.398
532.26	13.453
532.45	13.453
532.65	13.288
532.84	13.061
533.04	12.761
533.24	13.414
533.43	13.008
533.63	13.242
533.82	13.696
534.02	13.572
534.22	13.693
534.41	13.813
534.61	13.476
534.80	13.618
535.00	14.028
535.19	13.954
535.39	14.131
535.59	14.071
535.78	13.847
535.98	13.959
536.17	13.398
536.37	13.734
536.57	13.771
536.76	13.366
536.96	13.679
537.15	13.285
537.35	13.735
537.54	13.378
537.74	13.601
537.93	13.823
538.13	13.513
538.33	14.318
538.52	13.790
538.72	14.481
538.91	14.108
539.11	14.510
539.30	13.855
539.50	14.077
539.70	13.691
539.89	13.545
540.09	13.274
540.28	14.165
540.48	13.471
540.67	13.856
540.87	13.565
541.06	13.475
541.26	13.513
541.45	13.532
541.65	13.243
541.85	13.793
542.04	13.595
542.24	13.932
542.43	13.819
542.63	13.915
542.82	14.086
543.02	14.421
543.21	14.120
543.41	14.154
543.60	14.129
543.80	14.242
543.99	14.066
544.19	14.187
544.38	13.987
544.58	14.486
544.77	14.227
544.97	14.375
545.16	14.372
545.36	14.371
545.56	14.092
545.75	13.760
545.95	14.145
546.14	14.340
546.34	13.767
546.53	14.324
546.73	14.300
546.92	14.272
547.12	13.490
547.31	14.471
547.51	13.822
547.70	14.055
547.90	14.703
548.09	14.067
548.29	13.842
548.48	14.363
548.68	14.005
548.87	14.880
549.07	14.084
549.26	14.437
549.46	13.122
549.65	14.920
549.84	13.835
550.04	14.399
550.23	13.566
550.43	13.464
550.62	14.090
550.82	14.623
551.01	13.349
551.21	14.589
551.40	13.378
551.60	14.032
551.79	12.157
551.99	13.940
552.18	13.137
552.38	14.634
552.57	13.712
552.77	15.083
552.96	13.557
553.16	15.215
553.35	13.756
553.54	14.454
553.74	13.839
553.93	15.111
554.13	14.734
554.32	14.637
554.52	14.252
554.71	14.671
554.91	13.745
555.10	14.591
555.29	13.884
555.49	15.897
555.68	14.194
555.88	14.583
556.07	12.946
556.27	14.166
556.46	14.368
556.66	15.162
556.85	13.813
557.04	15.460
557.24	13.338
557.43	15.187
557.63	13.952
557.82	14.337
558.02	13.859
558.21	15.724
558.40	13.346
558.60	14.254
558.79	13.462
558.99	15.475
559.18	13.947
559.38	14.832
559.57	13.999
559.76	14.892
559.96	14.286
560.15	14.337
560.35	13.976
560.54	14.364
560.73	13.758
560.93	14.738
561.12	13.725
561.32	15.117
561.51	14.537
561.70	14.927
561.90	14.672
562.09	15.254
562.29	14.155
562.48	16.130
562.67	14.608
562.87	16.401
563.06	14.896
563.26	15.766
563.45	14.840
563.64	15.913
563.84	14.317
564.03	15.432
564.23	14.522
564.42	16.127
564.61	14.875
564.81	15.875
565.00	15.910
565.20	16.205
565.39	15.710
565.58	16.079
565.78	15.268
565.97	16.346
566.16	16.604
566.36	16.591
566.55	15.347
566.74	16.827
566.94	16.201
567.13	16.721
567.33	15.725
567.52	16.315
567.71	16.823
567.91	16.813
568.10	16.439
568.29	17.175
568.49	16.661
568.68	16.933
568.87	16.150
569.07	17.451
569.26	16.440
569.45	17.552
569.65	16.771
569.84	16.956
570.04	16.297
570.23	16.626
570.42	15.753
570.62	17.577
570.81	16.832
571.00	17.343
571.20	17.487
571.39	16.723
571.58	16.390
571.78	16.818
571.97	16.985
572.16	17.450
572.36	16.893
572.55	17.154
572.74	17.470
572.94	17.390
573.13	16.750
573.32	17.495
573.51	17.170
573.71	17.631
573.90	17.520
574.09	17.201
574.29	17.967
574.48	17.582
574.67	16.782
574.87	17.664
575.06	17.170
575.25	17.179
575.45	17.184
575.64	17.256
575.83	17.142
576.03	18.052
576.22	17.326
576.41	17.466
576.60	16.665
576.80	17.789
576.99	17.704
577.18	18.223
577.38	17.335
577.57	17.212
577.76	16.934
577.95	17.192
578.15	17.403
578.34	17.925
578.53	15.901
578.73	17.418
578.92	16.437
579.11	18.007
579.30	16.632
579.50	16.910
579.69	17.829
579.88	17.374
580.08	15.768
580.27	17.281
580.46	17.058
580.65	16.778
580.85	16.512
581.04	17.807
581.23	15.970
581.42	17.012
581.62	16.852
581.81	17.538
582.00	17.304
582.19	16.453
582.39	17.260
582.58	16.751
582.77	15.842
582.96	17.768
583.16	15.445
583.35	17.804
583.54	16.712
583.73	17.694
583.93	16.989
584.12	16.699
584.31	16.171
584.50	17.068
584.70	16.545
584.89	16.747
585.08	15.947
585.27	17.144
585.47	15.385
585.66	17.649
585.85	15.838
586.04	17.381
586.24	16.567
586.43	15.365
586.62	15.878
586.81	17.544
587.00	15.203
587.20	16.724
587.39	14.559
587.58	17.712
587.77	15.948
587.97	16.043
588.16	16.813
588.35	17.504
588.54	16.728
588.73	16.420
588.93	15.789
589.12	17.215
589.31	15.396
589.50	16.866
589.69	16.898
589.89	16.748
590.08	15.779
590.27	17.568
590.46	16.349
590.65	16.304
590.85	15.492
591.04	17.087
591.23	17.212
591.42	17.252
591.61	15.801
591.81	17.124
592.00	15.563
592.19	17.917
592.38	15.901
592.57	17.759
592.77	17.227
592.96	17.064
593.15	18.060
593.34	18.487
593.53	15.487
593.72	17.060
593.92	15.608
594.11	16.900
594.30	15.327
594.49	17.317
594.68	16.766
594.87	17.540
595.07	15.917
595.26	17.660
595.45	16.717
595.64	18.476
595.83	15.680
596.02	18.124
596.22	16.657
596.41	17.260
596.60	16.042
596.79	17.250
596.98	15.884
597.17	17.843
597.37	18.223
597.56	19.129
597.75	17.912
597.94	17.978
598.13	17.829
598.32	18.054
598.51	16.506
598.71	19.463
598.90	17.210
599.09	18.536
599.28	17.466
599.47	18.243
599.66	16.654
599.85	18.787
600.05	15.828
600.24	18.347
600.43	16.703
600.62	17.551
600.81	17.158
601.00	17.927
601.19	15.973
601.38	17.284
601.58	17.337
601.77	16.984
601.96	15.586
602.15	17.388
602.34	16.807
602.53	18.730
602.72	16.418
602.91	17.737
603.10	16.361
603.30	18.873
603.49	16.527
603.68	18.202
603.87	15.929
604.06	17.727
604.25	17.021
604.44	17.580
604.63	17.806
604.82	18.685
605.01	17.732
605.21	18.520
605.40	17.780
605.59	18.830
605.78	19.239
605.97	18.362
606.16	18.330
606.35	19.099
606.54	17.851
606.73	18.941
606.92	17.647
607.11	19.870
607.30	18.164
607.50	18.527
607.69	16.297
607.88	17.798
608.07	16.127
608.26	17.379
608.45	18.204
608.64	18.788
608.83	15.928
609.02	17.910
609.21	17.622
609.40	17.942
609.59	16.800
609.78	18.855
609.97	17.745
610.16	18.266
610.35	17.990
610.55	18.901
610.74	17.888
610.93	17.846
611.12	17.996
611.31	17.967
611.50	17.931
611.69	18.034
611.88	17.033
612.07	17.786
612.26	17.335
612.45	18.731
612.64	16.681
612.83	17.833
613.02	17.090
613.21	17.206
613.40	16.673
613.59	17.693
613.78	16.072
613.97	17.247
614.16	16.033
614.35	17.632
614.54	14.695
614.73	15.665
614.92	16.226
615.11	16.485
615.30	15.113
615.49	16.612
615.68	15.639
615.87	14.884
616.07	14.434
616.26	15.765
616.45	15.068
616.64	16.836
616.83	15.013
617.02	17.303
617.21	12.795
617.40	15.443
617.59	14.730
617.78	15.447
617.97	14.481
618.16	15.745
618.35	14.157
618.54	16.072
618.73	15.244
618.92	16.189
619.11	14.466
619.30	17.077
619.49	14.052
619.68	16.779
619.86	14.799
620.05	15.347
620.24	14.369
620.43	15.915
620.62	11.837
620.81	15.626
621.00	15.789
621.19	17.401
621.38	15.772
621.57	16.896
621.76	14.802
621.95	16.088
622.14	14.797
622.33	16.921
622.52	12.651
622.71	15.927
622.90	13.001
623.09	15.693
623.28	13.838
623.47	16.660
623.66	14.813
623.85	15.532
624.04	13.290
624.23	15.508
624.42	14.274
624.61	15.351
624.80	13.501
624.99	16.275
625.18	13.237
625.36	16.226
625.55	14.432
625.74	15.508
625.93	13.495
626.12	15.562
626.31	16.823
626.50	16.298
626.69	14.830
626.88	17.603
627.07	15.651
627.26	16.675
627.45	14.844
627.64	15.367
627.83	16.049
628.02	17.155
628.20	15.836
628.39	17.181
628.58	15.641
628.77	17.125
628.96	15.091
629.15	16.843
629.34	14.471
629.53	14.577
629.72	15.199
629.91	16.084
630.10	15.244
630.29	16.178
630.47	15.388
630.66	15.885
630.85	15.067
631.04	16.000
631.23	15.760
631.42	16.136
631.61	14.505
631.80	17.151
631.99	14.002
632.18	14.568
632.36	13.867
632.55	17.611
632.74	15.413
632.93	14.603
633.12	14.364
633.31	16.222
633.50	13.011
633.69	15.320
633.88	12.914
634.06	15.830
634.25	14.239
634.44	15.091
634.63	14.990
634.82	15.951
635.01	13.554
635.20	15.457
635.39	14.092
635.57	15.586
635.76	15.067
635.95	15.160
636.14	12.964
636.33	17.000
636.52	14.158
636.71	16.090
636.89	15.168
637.08	14.955
637.27	14.115
637.46	15.751
637.65	13.715
637.84	14.614
638.03	12.632
638.21	16.187
638.40	15.279
638.59	13.156
638.78	12.368
638.97	15.194
639.16	14.575
639.34	13.868
639.53	10.014
639.72	14.377
639.91	11.781
640.10	11.491
640.29	13.637
640.47	16.141
640.66	12.179
640.85	15.263
641.04	11.073
641.23	13.433
641.42	13.099
641.60	13.998
641.79	11.630
641.98	13.289
642.17	12.442
642.36	14.393
642.54	10.615
642.73	13.970
642.92	11.203
643.11	12.723
643.30	11.601
643.49	13.007
643.67	11.397
643.86	13.599
644.05	11.065
644.24	13.568
644.43	12.353
644.61	13.321
644.80	11.587
644.99	11.892
645.18	13.860
645.37	13.298
645.55	10.511
645.74	13.424
645.93	12.893
646.12	12.480
646.31	12.996
646.49	12.255
646.68	13.050
646.87	13.829
647.06	13.461
647.24	14.509
647.43	11.141
647.62	14.119
647.81	10.135
648.00	14.409
648.18	9.373
648.37	12.740
648.56	12.543
648.75	12.837
648.93	11.513
649.12	13.616
649.31	10.509
649.50	12.337
649.68	11.731
649.87	12.733
650.06	10.794
650.25	13.676
650.43	10.053
650.62	10.254
650.81	10.091
651.00	13.046
651.18	11.649
651.37	14.072
651.56	12.250
651.75	14.430
651.93	9.657
652.12	14.140
652.31	9.430
652.50	12.239
652.68	13.095
652.87	13.500
653.06	13.776
653.25	13.462
653.43	12.014
653.62	13.543
653.81	11.494
654.00	12.711
654.18	12.591
654.37	13.783
654.56	9.843
654.74	10.444
654.93	10.887
655.12	11.585
655.31	10.358
655.49	14.563
655.68	9.762
655.87	10.903
656.05	8.478
656.24	12.564
656.43	8.651
656.62	10.996
656.80	10.606
656.99	9.456
657.18	10.146
657.36	12.190
657.55	10.519
657.74	12.191
657.93	11.804
658.11	12.658
658.30	12.875
658.49	10.890
658.67	11.422
658.86	11.954
659.05	9.802
659.23	13.092
659.42	11.199
659.61	13.282
659.79	12.900
659.98	12.503
660.17	12.724
660.35	13.368
660.54	12.471
660.73	15.763
660.91	11.394
661.10	13.899
661.29	9.891
661.47	11.235
661.66	12.194
661.85	11.526
662.03	11.362
662.22	9.154
662.41	8.417
662.59	12.810
662.78	8.447
662.97	9.142
663.15	7.748
663.34	9.815
663.53	8.019
663.71	10.680
663.90	9.776
664.09	9.132
664.27	10.212
664.46	9.311
664.65	8.387
664.83	8.451
665.02	8.165
665.21	8.129
665.39	6.791
665.58	9.111
665.77	8.462
665.95	8.464
666.14	8.148
666.32	8.504
666.51	9.003
666.70	6.729
666.88	8.360
667.07	7.465
667.26	6.649
667.44	8.331
667.63	9.384
667.81	7.975
668.00	8.154
668.19	9.836
668.37	8.795
668.56	10.383
668.75	5.751
668.93	10.078
669.12	6.855
669.30	9.504
669.49	6.691
669.68	9.434
669.86	10.258
670.05	6.896
670.23	7.167
670.42	8.564
670.61	9.156
670.79	9.349
670.98	8.275
671.16	10.304
671.35	7.018
671.54	10.100
671.72	9.062
671.91	7.613
672.09	7.160
672.28	10.065
672.46	10.650
672.65	9.328
672.84	9.404
673.02	10.615
673.21	6.758
673.39	8.342
673.58	8.005
673.77	8.052
673.95	6.957
674.14	10.186
674.32	6.836
674.51	11.544
674.69	7.698
674.88	8.986
675.07	6.843
675.25	11.999
675.44	6.996
675.62	8.612
675.81	6.653
675.99	13.619
676.18	11.201
676.36	8.169
676.55	8.479
676.74	10.418
676.92	10.283
677.11	7.813
677.29	7.446
677.48	11.084
677.66	8.247
677.85	7.976
678.03	8.651
678.22	11.555
678.40	8.410
678.59	7.726
678.78	6.635
678.96	7.999
679.15	7.559
679.33	9.812
679.52	11.600
679.70	11.032
679.89	9.490
680.07	11.137
680.26	8.241
680.44	10.996
680.63	10.878
680.81	10.445
681.00	8.015
681.18	9.684
681.37	8.848
681.55	13.644
681.74	10.257
681.92	13.056
682.11	10.009
682.29	8.407
682.48	8.857
682.66	11.289
682.85	8.960
683.03	11.029
683.22	12.954
683.40	12.547
683.59	11.111
683.77	11.333
683.96	9.271
684.14	10.326
684.33	7.380
684.51	13.462
684.70	11.103
684.88	15.150
685.07	10.717
685.25	11.213
685.44	9.825
685.62	11.238
685.81	8.170
685.99	10.791
686.18	11.264
686.36	12.258
686.55	8.478
686.73	9.328
686.92	12.234
687.10	11.906
687.29	12.791
687.47	13.064
687.65	12.734
687.84	12.407
688.02	15.519
688.21	14.417
688.39	10.584
688.58	15.289
688.76	13.025
688.95	13.159
689.13	9.159
689.32	15.540
689.50	14.776
689.68	14.434
689.87	11.961
690.05	15.103
690.24	13.055
690.42	15.111
690.61	15.349
690.79	16.345
690.98	13.687
691.16	13.965
691.34	9.604
691.53	14.368
691.71	12.426
691.90	14.642
692.08	10.252
692.27	15.402
692.45	15.854
692.63	14.534
692.82	14.476
693.00	14.753
693.19	9.406
693.37	15.457
693.56	14.841
693.74	16.138
693.92	11.680
694.11	14.444
694.29	15.095
694.48	16.799
694.66	14.427
694.84	17.362
695.03	12.775
695.21	17.899
695.40	18.112
695.58	16.414
695.76	13.751
695.95	18.015
696.13	13.116
696.32	17.087
696.50	19.866
696.68	17.522
696.87	15.641
697.05	16.646
697.24	17.753
697.42	20.576
697.60	15.769
697.79	20.052
697.97	19.986
698.16	21.701
698.34	15.567
698.52	20.387
698.71	19.083
698.89	22.244
699.07	19.627
699.26	22.677
699.44	20.656
699.63	21.630
699.81	18.737
699.99	24.208
700.18	22.327
700.36	24.121
700.54	22.182
700.73	22.760
700.91	19.340
701.09	21.849
701.28	20.814
701.46	20.269
701.64	19.908
701.83	21.758
702.01	16.728
702.20	23.047
702.38	17.878
702.56	20.416
702.75	18.949
702.93	18.882
703.11	20.241
703.30	21.071
703.48	18.248
703.66	19.716
703.85	17.058
704.03	21.571
704.21	18.520
704.40	21.453
704.58	18.555
704.76	20.029
704.95	17.077
705.13	18.925
705.31	19.564
705.50	20.254
705.68	16.864
705.86	23.176
706.04	16.503
706.23	21.568
706.41	17.579
706.59	19.579
706.78	19.448
706.96	23.347
707.14	21.024
707.33	20.783
707.51	18.663
707.69	21.453
707.88	18.422
708.06	20.000
708.24	18.072
708.42	23.380
708.61	20.391
708.79	19.739
708.97	19.980
709.16	23.558
709.34	17.393
709.52	20.210
709.71	20.691
709.89	21.613
710.07	16.841
710.25	22.609
710.44	17.971
710.62	21.733
710.80	20.141
710.98	22.547
711.17	17.982
711.35	21.394
711.53	19.003
711.72	23.121
711.90	20.761
712.08	20.439
712.26	18.087
712.45	22.591
712.63	21.461
712.81	22.877
712.99	20.325
713.18	23.652
713.36	21.178
713.54	20.504
713.72	17.334
713.91	18.073
714.09	18.744
714.27	21.995
714.45	22.162
714.64	24.567
714.82	19.159
715.00	23.205
715.18	19.546
715.37	24.954
715.55	21.753
715.73	22.155
715.91	18.977
716.10	24.071
716.28	16.260
716.46	26.596
716.64	22.064
716.83	22.281
717.01	20.045
717.19	23.514
717.37	21.113
717.55	22.640
717.74	20.121
717.92	20.413
718.10	17.946
718.28	20.983
718.47	23.157
718.65	23.295
718.83	18.950
719.01	23.533
719.19	21.778
719.38	20.829
719.56	17.077
719.74	20.102
719.92	14.414
720.10	17.536
720.29	20.406
720.47	23.790
720.65	17.384
720.83	21.454
721.01	16.287
721.20	20.395
721.38	19.592
721.56	20.037
721.74	19.441
721.92	20.000
722.11	18.176
722.29	19.765
722.47	15.551
722.65	18.657
722.83	19.381
723.01	20.177
723.20	21.871
723.38	19.250
723.56	20.955
723.74	25.705
723.92	20.116
724.10	21.285
724.29	16.540
724.47	25.236
724.65	18.308
724.83	21.867
725.01	18.129
725.19	24.048
725.38	19.662
725.56	21.342
725.74	19.545
725.92	24.600
726.10	16.341
726.28	22.674
726.46	19.855
726.65	21.861
726.83	18.700
727.01	21.088
727.19	19.328
727.37	22.350
727.55	22.713
727.73	19.976
727.92	19.314
728.10	22.716
728.28	16.072
728.46	25.658
728.64	20.143
728.82	23.010
729.00	19.347
729.19	23.801
729.37	22.849
729.55	22.349
729.73	15.743
729.91	20.118
730.09	22.345
730.27	21.437
730.45	15.412
730.63	20.263
730.82	13.771
731.00	23.834
731.18	20.992
731.36	22.307
731.54	19.482
731.72	25.261
731.90	16.848
732.08	23.475
732.26	19.610
732.45	21.836
732.63	21.972
732.81	20.863
732.99	19.244
733.17	21.920
733.35	19.441
733.53	24.973
733.71	20.833
733.89	21.038
734.07	22.184
734.25	25.042
734.44	19.364
734.62	22.870
734.80	21.834
734.98	24.039
735.16	18.746
735.34	21.034
735.52	22.943
735.70	22.466
735.88	21.018
736.06	21.481
736.24	25.320
736.42	23.324
736.60	20.851
736.78	26.231
736.97	20.825
737.15	23.261
737.33	19.133
737.51	22.429
737.69	21.120
737.87	25.197
738.05	24.223
738.23	22.496
738.41	21.848
738.59	25.599
738.77	21.821
738.95	24.760
739.13	21.356
739.31	18.200
739.49	19.905
739.67	26.609
739.85	19.029
740.03	22.003
740.21	22.875
740.39	28.642
740.57	22.389
740.75	20.605
740.93	20.376
741.11	22.680
741.30	20.505
741.48	23.077
741.66	24.326
741.84	19.567
742.02	19.073
742.20	25.645
742.38	23.831
742.56	27.363
742.74	20.264
742.92	26.016
743.10	21.969
743.28	23.426
743.46	23.129
743.64	21.615
743.82	19.947
744.00	24.478
744.18	27.639
744.36	23.835
744.54	23.810
744.72	29.992
744.90	23.299
745.08	24.828
745.26	21.635
745.44	21.016
745.62	20.928
745.80	21.092
745.98	19.449
746.16	24.977
746.34	24.364
746.52	21.578
746.70	19.272
746.87	20.690
747.05	21.976
747.23	23.965
747.41	23.557
747.59	26.506
747.77	18.217
747.95	20.142
748.13	23.770
748.31	26.052
748.49	18.525
748.67	21.839
748.85	22.776
749.03	23.925
749.21	20.972
749.39	26.254
749.57	19.763
749.75	22.944
749.93	21.902
750.11	25.724
750.29	22.466
750.47	22.739
750.65	20.792
750.83	25.092
751.01	17.112
751.18	20.581
751.36	19.982
751.54	28.950
751.72	26.321
751.90	22.648
752.08	16.330
752.26	17.776
752.44	23.796
752.62	24.956
752.80	21.619
752.98	23.555
753.16	23.402
753.34	25.113
753.52	26.002
753.69	24.324
753.87	19.843
754.05	23.510
754.23	20.166
754.41	23.023
754.59	20.638
754.77	25.871
754.95	23.144
755.13	23.705
755.31	23.842
755.49	21.869
755.66	20.866
755.84	22.137
756.02	15.520
756.20	27.098
756.38	16.969
756.56	20.638
756.74	19.788
756.92	22.617
757.10	22.095
757.28	25.853
757.45	30.594
757.63	24.867
757.81	17.951
757.99	26.258
758.17	21.674
758.35	21.773
758.53	22.909
758.71	23.616
758.88	25.373
759.06	21.209
759.24	18.860
759.42	25.195
759.60	27.903
759.78	20.639
759.96	16.736
760.13	20.301
760.31	18.917
760.49	19.868
760.67	14.929
760.85	20.593
761.03	18.198
761.21	15.569
761.38	16.189
761.56	17.202
761.74	14.914
761.92	20.096
762.10	14.298
762.28	18.567
762.46	17.355
762.63	11.707
762.81	17.809
762.99	14.747
763.17	13.594
763.35	15.868
763.53	13.936
763.70	16.991
763.88	17.182
764.06	16.667
764.24	13.985
764.42	17.441
764.60	18.614
764.77	16.138
764.95	16.935
765.13	17.200
765.31	18.447
765.49	18.166
765.66	17.678
765.84	21.871
766.02	18.843
766.20	16.633
766.38	17.595
766.56	20.000
766.73	16.802
766.91	18.880
767.09	20.658
767.27	22.843
767.45	19.116
767.62	17.042
767.80	20.559
767.98	23.684
768.16	14.194
768.33	21.833
768.51	22.157
768.69	22.084
768.87	19.790
769.05	18.995
769.22	20.339
769.40	21.144
769.58	23.449
769.76	25.351
769.94	23.566
770.11	23.974
770.29	20.173
770.47	23.628
770.65	25.260
770.82	25.611
771.00	27.526
771.18	21.035
771.36	24.808
771.53	22.874
771.71	26.239
771.89	23.443
772.07	26.142
772.25	22.600
772.42	20.165
772.60	28.289
772.78	25.061
772.96	29.227
773.13	31.111
773.31	31.716
773.49	22.872
773.67	16.826
773.84	23.472
774.02	26.918
774.20	22.296
774.37	16.890
774.55	26.777
774.73	33.768
774.91	21.394
775.08	28.997
775.26	22.678
775.44	22.076
775.62	26.675
775.79	26.913
775.97	25.541
776.15	21.751
776.32	21.208
776.50	22.973
776.68	21.810
776.86	28.000
777.03	21.342
777.21	23.293
777.39	24.854
777.56	28.670
777.74	20.694
777.92	23.246
778.10	23.938
778.27	25.371
778.45	29.150
778.63	26.250
778.80	18.359
778.98	32.117
779.16	28.363
779.34	27.133
779.51	24.628
779.69	22.657
779.87	27.801
780.04	25.341
780.22	24.964
780.40	26.176
780.57	26.160
780.75	23.297
780.93	20.164
781.10	24.247
781.28	28.142
781.46	17.100
781.63	27.753
781.81	25.436
781.99	32.314
782.16	24.269
782.34	18.836
782.52	20.529
782.69	26.081
782.87	26.607
783.05	19.857
783.22	25.079
783.40	21.981
783.58	26.158
783.75	31.025
783.93	28.027
784.11	24.878
784.28	26.572
784.46	21.753
784.64	26.457
784.81	19.872
784.99	28.752
785.17	28.852
785.34	23.191
785.52	20.488
785.69	24.728
785.87	20.911
786.05	25.812
786.22	30.236
786.40	28.454
786.58	29.140
786.75	24.601
786.93	16.772
787.11	28.411
787.28	23.962
787.46	28.827
787.63	22.906
787.81	30.898
787.99	27.199
788.16	24.668
788.34	25.275
788.51	19.293
788.69	24.189
788.87	25.320
789.04	15.966
789.22	20.989
789.39	28.944
789.57	23.958
789.75	29.172
789.92	25.034
790.10	20.738
790.27	28.085
790.45	23.471
790.63	21.566
790.80	20.264
790.98	21.014
791.15	25.904
791.33	23.604
791.51	20.690
791.68	27.417
791.86	28.808
792.03	27.000
792.21	26.123
792.39	33.912
792.56	23.651
792.74	21.584
792.91	33.333
793.09	28.974
793.26	22.359
793.44	27.616
793.62	28.095
793.79	31.915
793.97	26.023
794.14	30.517
794.32	25.094
794.49	22.878
794.67	18.525
794.84	26.011
795.02	29.813
795.20	32.353
795.37	26.298
795.55	30.828
795.72	22.085
795.90	26.633
796.07	32.241
796.25	18.896
796.42	25.217
796.60	23.696
796.77	22.554
796.95	25.678
797.13	17.476
797.30	19.634
797.48	21.365
797.65	24.367
797.83	25.074
798.00	26.537
798.18	21.184
798.35	28.510
798.53	33.333
798.70	28.244
798.88	23.244
799.05	21.807
799.23	25.311
799.40	19.904
799.58	23.540
799.75	35.131
799.93	26.460
800.10	23.473
800.28	19.767
800.45	28.007
800.63	21.763
800.80	25.581
800.98	20.446
801.15	27.257
801.33	24.339
801.50	28.325
801.68	26.782
801.85	24.014
802.03	26.174
802.20	30.337
802.38	18.551
802.55	27.692
802.73	26.783
802.90	27.829
803.08	20.285
803.25	30.192
803.43	24.910
803.60	21.369
803.78	37.476
803.95	23.171
804.13	35.294
804.30	33.595
804.48	27.907
804.65	17.520
804.83	30.523
805.00	27.414
805.17	22.913
805.35	25.568
805.52	27.725
805.70	26.981
805.87	32.717
806.05	29.843
806.22	17.658
806.40	18.304
806.57	21.910
806.75	31.009
806.92	29.298
807.09	33.397
807.27	28.943
807.44	29.771
807.62	32.315
807.79	24.107
807.97	29.485
808.14	29.000
808.31	18.724
808.49	26.886
808.66	25.626
808.84	25.775
809.01	29.087
809.19	33.951
809.36	35.642
809.53	32.341
809.71	24.710
809.88	27.938
810.06	26.378
810.23	27.000
810.41	29.876
810.58	43.552
810.75	19.957
810.93	25.444
811.10	23.368
811.28	24.385
811.45	27.254
811.62	26.067
811.80	28.511
811.97	26.623
812.15	42.012
812.32	21.121
812.49	27.015
812.67	28.085
812.84	29.890
813.02	46.637
813.19	27.540
813.36	32.104
813.54	28.982
813.71	30.682
813.89	30.176
814.06	24.868
814.23	32.569
814.41	30.496
814.58	38.221
814.75	36.609
814.93	34.524
815.10	33.333
815.28	31.863
815.45	23.645
815.62	28.537
815.80	26.559
815.97	28.157
816.14	40.803
816.32	19.560
816.49	29.737
816.66	25.250
816.84	28.534
817.01	35.575
817.18	25.175
817.36	21.968
817.53	30.846
817.71	23.758
817.88	22.955
818.05	33.557
818.23	26.429
818.40	26.415
818.57	32.265
818.75	22.506
818.92	37.931
819.09	37.402
819.27	30.196
819.44	26.044
819.61	32.103
819.79	26.543
819.96	23.168
820.13	31.434
820.31	19.478
820.48	30.573
820.65	25.632
820.82	25.122
821.00	26.131
821.17	16.023
821.34	22.747
821.52	18.352
821.69	15.608
821.86	18.803
822.04	16.223
822.21	14.968
822.38	17.996
822.56	15.415
822.73	20.557
822.90	17.015
823.07	23.056
823.25	21.066
823.42	19.071
823.59	18.442
823.77	22.154
823.94	19.760
824.11	21.108
824.29	16.786
824.46	22.546
824.63	22.871
824.80	19.370
824.98	15.792
825.15	19.859
825.32	14.458
825.49	21.912
825.67	12.284
825.84	19.308
826.01	18.188
826.19	21.164
826.36	13.812
826.53	16.179
826.70	11.462
826.88	17.478
827.05	15.672
827.22	15.934
827.39	17.225
827.57	19.749
827.74	12.309
827.91	19.380
828.08	15.629
828.26	16.291
828.43	14.118
828.60	20.968
828.77	20.000
828.95	17.032
829.12	15.698
829.29	11.617
829.46	14.871
829.64	18.155
829.81	13.843
829.98	23.330
830.15	17.470
830.32	16.267
830.50	20.160
830.67	29.820
830.84	23.731
831.01	18.182
831.19	20.804
831.36	23.780
831.53	27.381
831.70	29.750
831.87	23.967
832.05	33.861
832.22	34.753
832.39	25.000
832.56	20.356
832.74	28.348
832.91	29.536
833.08	37.449
833.25	17.047
833.42	23.834
833.60	21.569
833.77	15.033
833.94	14.266
834.11	17.697
834.28	14.269
834.45	16.175
834.63	15.213
834.80	18.577
834.97	18.274
835.14	21.042
835.31	18.400
835.49	13.594
835.66	14.095
835.83	19.160
836.00	20.045
836.17	23.455
836.34	17.308
836.52	16.711
836.69	27.194
836.86	26.719
837.03	23.777
837.20	22.115
837.37	19.378
837.55	26.195
837.72	29.287
837.89	27.735
838.06	23.077
838.23	26.077
838.40	25.768
838.58	29.867
838.75	23.932
838.92	38.966
839.09	30.423
839.26	33.155
839.43	42.363
839.60	37.124
839.78	52.160
839.95	40.717
840.12	27.532
840.29	34.713
840.46	41.608
840.63	44.412
840.80	35.467
840.98	42.857
841.15	25.250
841.32	34.895
841.49	32.174
841.66	35.519
841.83	22.667
842.00	29.747
842.17	47.123
842.34	26.934
842.52	28.144
842.69	43.082
842.86	34.602
843.03	54.717
843.20	42.041
843.37	47.902
843.54	49.187
843.71	50.204
843.88	58.278
844.06	57.085
844.23	63.285
844.40	50.000
844.57	44.681
844.74	55.459
844.91	59.259
845.08	56.471
845.25	46.715
845.42	36.181
845.59	77.193
845.76	67.273
845.94	70.253
846.11	59.701
846.28	80.000
846.45	49.080
846.62	66.486
846.79	63.333
846.96	48.869
847.13	54.706
847.30	48.485
847.47	75.275
847.64	48.256
847.81	70.330
847.98	59.459
848.15	48.387
848.32	74.227
848.50	75.776
848.67	63.889
848.84	84.343
849.01	51.020
849.18	65.263
849.35	71.728
849.52	67.630
849.69	63.584
849.86	50.920
850.03	93.151
850.20	104.167
850.37	64.286
850.54	61.635
850.71	73.171
850.88	72.727
851.05	69.863
851.22	82.609
851.39	84.021
851.56	61.806
851.73	66.667
851.90	90.000
852.07	80.588
852.24	77.941
852.41	82.482
852.58	56.818
852.75	73.373
852.92	55.435
853.09	64.804
853.26	92.357
853.43	63.182
853.60	72.680
853.77	95.035
853.94	74.242
854.11	78.632
854.28	76.064
854.45	91.608
854.62	93.289
854.79	30.000
854.96	73.913
855.13	71.111
855.30	70.466
855.47	44.828
855.64	52.252
855.81	85.714
855.98	60.667
856.15	54.483
856.32	79.812
856.49	80.365
856.66	73.837
856.83	60.733
857.00	103.279
857.17	97.500
857.34	71.212
857.51	81.410
857.68	76.429
857.85	71.515
858.02	87.838
858.19	70.000
858.36	69.714
858.53	73.143
858.70	44.371
858.87	61.379
859.04	69.718
859.21	54.348
859.38	82.781
859.55	118.519
859.72	89.256
859.89	109.804
860.05	80.620
860.22	79.605
860.39	94.393
860.56	74.312
860.73	48.795
860.90	88.667
861.07	75.410
861.24	104.274
861.41	78.571
861.58	73.399
861.75	92.593
861.92	40.945
862.09	82.530
862.26	119.149
862.43	85.714
862.59	67.692
862.76	54.422
862.93	96.894
863.10	60.000
863.27	59.459
863.44	77.632
863.61	93.529
863.78	62.676
863.95	89.313
864.12	71.528
864.29	51.163
864.45	47.945
864.62	67.669
864.79	75.676
864.96	80.952
865.13	75.573
865.30	99.091
865.47	59.259
865.64	78.125
865.81	53.704
865.97	62.295
866.14	76.190
866.31	82.927
866.48	74.419
866.65	94.000
866.82	81.879
866.99	101.942
867.16	107.143
867.33	88.034
867.49	98.540
867.66	89.806
867.83	63.200
868.00	82.270
868.17	97.727
868.34	66.438
868.51	101.408
868.67	71.074
868.84	89.116
869.01	111.811
869.18	82.946
869.35	125.556
869.52	47.260
869.69	63.359
869.85	87.701
870.02	72.897
870.19	106.723
870.36	52.381
870.53	63.068
870.70	56.977
870.86	50.943
871.03	88.235
871.20	60.927
871.37	72.727
871.54	53.103
871.71	79.012
871.87	23.288
872.04	70.968
872.21	130.108
872.38	52.147
872.55	94.366
872.72	53.953
872.88	77.515
873.05	71.429
873.22	58.333
873.39	81.098
873.56	52.023
873.72	102.985
873.89	100.000
874.06	80.263
874.23	74.576
874.40	84.615
874.56	101.887
874.73	86.413
874.90	77.401
875.07	84.028
875.24	54.913
875.40	76.129
875.57	62.644
875.74	58.667
875.91	80.165
876.08	86.364
876.24	83.117
876.41	72.674
876.58	86.957
876.75	70.833
876.92	80.531
877.08	67.857
877.25	34.177
877.42	60.000
877.59	72.028
877.75	104.027
877.92	88.800
878.09	68.421
878.26	88.312
878.42	106.522
878.59	43.382
878.76	76.282
878.93	78.363
879.09	82.447
879.26	45.946
879.43	75.294
879.60	50.000
879.76	50.327
879.93	72.152
880.10	66.667
880.27	41.743
880.43	74.634
880.60	54.338
880.77	51.515
880.94	42.545
881.10	33.730
881.27	28.533
881.44	30.485
881.61	27.948
881.77	20.635
881.94	18.613
882.11	13.636
882.28	13.889
882.44	16.346
882.61	18.469
882.78	16.460
882.94	18.675
883.11	12.921
883.28	18.201
883.45	17.164
883.61	12.475
883.78	13.220
883.95	12.591
884.11	18.465
884.28	21.021
>>>>>End Processed Spectral Data<<<<<
