SpectraSuite Data File
++++++++++++++++++++++++++++++++++++
Date: Fri Sep 20 03:10:53 EST 2019
User: sgrac
Dark Spectrum Present: Yes
Reference Spectrum Present: Yes
Number of Sampled Component Spectra: 1
Spectrometers: USB4E01596
Integration Time (usec): 100000 (USB4E01596)
Spectra Averaged: 1 (USB4E01596)
Boxcar Smoothing: 0 (USB4E01596)
Correct for Electrical Dark: No (USB4E01596)
Strobe/Lamp Enabled: Yes (USB4E01596)
Correct for Detector Non-linearity: No (USB4E01596)
Correct for Stray Light: No (USB4E01596)
Number of Pixels in Processed Spectrum: 3648
>>>>>Begin Processed Spectral Data<<<<<
178.44	386.957
178.66	386.957
178.87	386.957
179.09	-475.000
179.30	213.333
179.52	525.000
179.74	2440.000
179.95	-340.000
180.17	-718.750
180.38	-693.750
180.60	-387.097
180.82	513.043
181.03	-1975.000
181.25	-1220.000
181.46	-1254.545
181.68	0.000
181.89	10900.000
182.11	1500.000
182.33	1015.385
182.54	-225.714
182.76	272.000
182.97	448.148
183.19	1577.778
183.40	-681.250
183.62	714.286
183.84	-280.000
184.05	0.000
184.27	13400.000
184.48	530.000
184.70	6000.000
184.91	900.000
185.13	363.636
185.34	275.926
185.56	-342.857
185.78	452.632
185.99	-8100.000
186.21	457.143
186.42	1108.333
186.64	214.925
186.85	227.160
187.07	516.667
187.28	-208.108
187.50	-459.091
187.72	287.500
187.93	17400.000
188.15	600.000
188.36	280.769
188.58	817.647
188.79	6950.000
189.01	497.059
189.22	950.000
189.44	246.809
189.65	-650.000
189.87	757.143
190.09	461.111
190.30	-3040.000
190.52	343.902
190.73	507.407
190.95	-1200.000
191.16	-908.333
191.38	-469.565
191.59	1177.778
191.81	297.500
192.02	352.500
192.24	311.111
192.45	348.571
192.67	554.545
192.88	0.000
193.10	423.529
193.31	-1000.000
193.53	204.545
193.74	350.000
193.96	1530.000
194.18	311.594
194.39	334.000
194.61	483.333
194.82	537.931
195.04	825.000
195.25	265.957
195.47	789.474
195.68	-1350.000
195.90	3500.000
196.11	3075.000
196.33	-459.259
196.54	468.966
196.76	268.889
196.97	833.333
197.19	-605.556
197.40	397.222
197.62	-814.286
197.83	700.000
198.05	392.105
198.26	545.455
198.48	1141.667
198.69	457.143
198.91	1842.857
199.12	307.500
199.34	283.077
199.55	-972.727
199.77	650.000
199.98	2160.000
200.20	1154.545
200.41	366.667
200.63	-2180.000
200.84	426.829
201.06	-8300.000
201.27	770.588
201.49	259.016
201.70	888.235
201.91	912.500
202.13	830.000
202.34	3550.000
202.56	1800.000
202.77	-2266.667
202.99	693.333
203.20	519.048
203.42	-300.000
203.63	454.839
203.85	-495.833
204.06	4300.000
204.28	-2325.000
204.49	1642.857
204.71	260.417
204.92	1233.333
205.14	0.000
205.35	880.000
205.56	400.000
205.78	451.282
205.99	378.378
206.21	486.207
206.42	1766.667
206.64	-275.610
206.85	926.667
207.07	923.077
207.28	426.667
207.50	-1700.000
207.71	309.302
207.93	5050.000
208.14	-194.595
208.35	410.345
208.57	-893.750
208.78	458.621
209.00	344.737
209.21	0.000
209.43	508.696
209.64	265.116
209.86	1542.857
210.07	709.091
210.28	550.000
210.50	2060.000
210.71	305.128
210.93	360.526
211.14	273.770
211.36	482.857
211.57	1587.500
211.78	-413.636
212.00	434.615
212.21	-668.421
212.43	464.516
212.64	390.476
212.86	403.571
213.07	571.429
213.29	213.158
213.50	-276.471
213.71	-10300.000
213.93	-1588.889
214.14	546.667
214.36	-1685.714
214.57	179.070
214.78	451.429
215.00	-2666.667
215.21	-1533.333
215.43	-415.152
215.64	762.500
215.86	-2700.000
216.07	580.952
216.28	314.516
216.50	251.064
216.71	-2280.000
216.93	1042.857
217.14	380.556
217.35	210.526
217.57	-706.667
217.78	1309.091
218.00	340.909
218.21	191.803
218.42	287.755
218.64	288.889
218.85	305.172
219.07	206.000
219.28	557.143
219.49	-1136.364
219.71	319.048
219.92	1450.000
220.14	3600.000
220.35	3633.333
220.56	1086.667
220.78	166.667
220.99	1866.667
221.21	313.514
221.42	403.704
221.63	400.000
221.85	12200.000
222.06	306.897
222.28	705.000
222.49	12700.000
222.70	-4033.333
222.92	267.857
223.13	178.261
223.34	236.364
223.56	337.838
223.77	731.250
223.99	188.462
224.20	153.153
224.41	346.512
224.63	417.647
224.84	508.000
225.05	272.917
225.27	231.481
225.48	173.418
225.69	329.545
225.91	197.403
226.12	212.903
226.34	153.623
226.55	173.437
226.76	147.761
226.98	125.439
227.19	310.000
227.40	94.286
227.62	144.595
227.83	143.158
228.04	216.667
228.26	78.704
228.47	134.375
228.69	67.582
228.90	65.730
229.11	40.613
229.33	56.148
229.54	50.612
229.75	30.798
229.97	45.270
230.18	44.293
230.39	40.294
230.61	31.988
230.82	44.118
231.03	39.948
231.25	44.477
231.46	48.889
231.67	49.459
231.89	54.779
232.10	43.893
232.31	47.442
232.53	55.985
232.74	34.426
232.95	59.296
233.17	38.690
233.38	57.407
233.59	90.000
233.81	71.681
234.02	44.828
234.23	76.344
234.45	76.821
234.66	62.871
234.87	84.302
235.09	56.444
235.30	39.355
235.51	52.155
235.73	49.479
235.94	52.330
236.15	43.657
236.36	54.008
236.58	61.925
236.79	66.023
237.00	56.225
237.22	70.690
237.43	52.593
237.64	66.364
237.86	50.490
238.07	49.004
238.28	57.407
238.50	57.025
238.71	43.617
238.92	62.132
239.13	37.500
239.35	34.101
239.56	35.616
239.77	67.589
239.99	56.641
240.20	65.827
240.41	39.812
240.63	43.077
240.84	55.660
241.05	31.054
241.26	39.535
241.48	43.073
241.69	25.734
241.90	29.011
242.12	26.761
242.33	19.962
242.54	22.662
242.75	22.072
242.97	20.513
243.18	15.990
243.39	14.083
243.61	19.026
243.82	20.874
244.03	18.916
244.24	14.151
244.46	13.342
244.67	18.800
244.88	19.401
245.09	15.331
245.31	19.702
245.52	13.946
245.73	25.484
245.95	35.955
246.16	24.824
246.37	21.812
246.58	18.126
246.80	22.207
247.01	18.236
247.22	12.118
247.43	10.345
247.65	11.731
247.86	11.211
248.07	8.995
248.28	9.454
248.50	9.385
248.71	9.673
248.92	7.702
249.13	9.708
249.35	8.361
249.56	10.490
249.77	12.945
249.98	12.095
250.20	17.222
250.41	17.738
250.62	11.304
250.83	19.217
251.05	19.605
251.26	16.641
251.47	23.153
251.68	16.012
251.90	23.824
252.11	18.719
252.32	19.802
252.53	21.429
252.75	14.628
252.96	16.244
253.17	16.744
253.38	16.390
253.59	20.661
253.81	17.922
254.02	14.353
254.23	9.673
254.44	22.618
254.66	21.067
254.87	18.530
255.08	19.108
255.29	32.316
255.50	27.473
255.72	24.248
255.93	23.383
256.14	26.170
256.35	31.250
256.57	26.103
256.78	30.700
256.99	23.168
257.20	23.505
257.41	24.571
257.63	23.429
257.84	20.871
258.05	30.384
258.26	28.014
258.47	18.266
258.69	20.527
258.90	17.127
259.11	11.338
259.32	16.407
259.53	14.145
259.75	12.007
259.96	11.796
260.17	8.395
260.38	10.051
260.59	7.877
260.81	6.882
261.02	7.482
261.23	6.990
261.44	8.619
261.65	7.790
261.87	8.304
262.08	8.485
262.29	9.312
262.50	9.213
262.71	8.523
262.92	10.614
263.14	12.564
263.35	12.442
263.56	14.508
263.77	15.645
263.98	16.918
264.20	11.452
264.41	17.222
264.62	13.374
264.83	14.434
265.04	18.353
265.25	17.684
265.47	18.204
265.68	14.070
265.89	22.237
266.10	10.646
266.31	17.343
266.52	9.870
266.74	9.337
266.95	14.239
267.16	13.626
267.37	12.660
267.58	13.395
267.79	13.545
268.01	12.734
268.22	11.664
268.43	13.286
268.64	6.887
268.85	14.310
269.06	13.541
269.27	12.310
269.49	13.616
269.70	12.555
269.91	15.321
270.12	11.234
270.33	14.703
270.54	14.734
270.75	10.405
270.97	11.387
271.18	11.920
271.39	13.870
271.60	11.755
271.81	9.731
272.02	11.535
272.23	9.224
272.45	10.503
272.66	8.776
272.87	12.161
273.08	7.793
273.29	8.777
273.50	6.441
273.71	7.950
273.92	7.987
274.14	9.571
274.35	11.204
274.56	7.325
274.77	13.191
274.98	10.320
275.19	7.096
275.40	9.607
275.61	9.853
275.83	13.967
276.04	13.389
276.25	13.121
276.46	7.904
276.67	14.866
276.88	12.228
277.09	14.156
277.30	13.887
277.51	11.407
277.73	9.713
277.94	12.050
278.15	11.063
278.36	12.372
278.57	10.786
278.78	8.692
278.99	6.690
279.20	10.708
279.41	15.236
279.62	10.195
279.84	11.082
280.05	11.692
280.26	9.264
280.47	13.322
280.68	10.297
280.89	12.361
281.10	13.175
281.31	11.016
281.52	12.453
281.73	10.547
281.94	8.565
282.16	11.808
282.37	12.798
282.58	7.787
282.79	9.212
283.00	12.864
283.21	5.298
283.42	10.434
283.63	9.608
283.84	10.942
284.05	9.038
284.26	7.940
284.47	10.452
284.68	6.697
284.89	9.369
285.11	11.219
285.32	9.987
285.53	10.037
285.74	9.610
285.95	8.819
286.16	8.606
286.37	8.347
286.58	7.128
286.79	6.637
287.00	5.735
287.21	9.151
287.42	6.510
287.63	5.407
287.84	6.525
288.05	6.780
288.26	7.023
288.48	8.040
288.69	6.094
288.90	5.995
289.11	8.155
289.32	7.428
289.53	8.774
289.74	9.573
289.95	6.775
290.16	10.644
290.37	8.084
290.58	7.242
290.79	9.106
291.00	7.840
291.21	8.749
291.42	5.812
291.63	6.039
291.84	8.143
292.05	6.931
292.26	6.382
292.47	8.434
292.68	5.476
292.89	8.647
293.10	10.151
293.31	8.292
293.52	8.615
293.73	8.112
293.94	9.103
294.15	9.091
294.36	7.661
294.57	10.171
294.79	8.219
295.00	5.966
295.21	8.527
295.42	8.514
295.63	10.593
295.84	7.082
296.05	6.841
296.26	6.730
296.47	9.323
296.68	6.944
296.89	6.907
297.10	8.189
297.31	7.983
297.52	5.925
297.73	5.888
297.94	4.530
298.15	6.043
298.36	4.553
298.57	4.970
298.78	5.759
298.99	4.926
299.20	4.385
299.41	5.907
299.62	5.577
299.83	6.092
300.04	6.139
300.25	8.937
300.46	7.826
300.67	8.749
300.88	6.530
301.09	6.243
301.30	6.575
301.50	8.573
301.71	10.185
301.92	10.603
302.13	6.748
302.34	6.682
302.55	9.888
302.76	8.537
302.97	5.853
303.18	6.073
303.39	5.294
303.60	7.596
303.81	10.153
304.02	8.261
304.23	6.813
304.44	5.695
304.65	7.327
304.86	9.191
305.07	8.140
305.28	6.812
305.49	8.328
305.70	8.738
305.91	7.789
306.12	5.622
306.33	6.406
306.54	7.909
306.75	8.041
306.96	11.336
307.17	6.159
307.38	8.753
307.58	5.615
307.79	11.712
308.00	9.445
308.21	6.840
308.42	7.266
308.63	7.778
308.84	8.959
309.05	6.481
309.26	5.104
309.47	9.312
309.68	5.956
309.89	7.523
310.10	3.543
310.31	7.700
310.52	3.679
310.73	5.711
310.94	8.287
311.14	5.299
311.35	6.453
311.56	5.819
311.77	4.633
311.98	3.853
312.19	4.570
312.40	7.120
312.61	7.199
312.82	6.960
313.03	6.311
313.24	9.036
313.45	4.748
313.66	5.761
313.86	5.290
314.07	6.158
314.28	8.679
314.49	7.937
314.70	8.831
314.91	8.244
315.12	7.397
315.33	7.575
315.54	5.308
315.75	7.838
315.96	6.228
316.16	6.845
316.37	7.044
316.58	5.304
316.79	7.542
317.00	10.345
317.21	7.345
317.42	5.759
317.63	6.010
317.84	7.233
318.05	9.676
318.25	8.037
318.46	5.284
318.67	9.075
318.88	8.652
319.09	8.668
319.30	8.005
319.51	6.783
319.72	9.326
319.93	8.222
320.13	7.321
320.34	10.065
320.55	8.495
320.76	11.566
320.97	3.825
321.18	8.210
321.39	6.468
321.60	5.499
321.80	10.251
322.01	8.555
322.22	8.302
322.43	7.382
322.64	7.893
322.85	10.019
323.06	9.041
323.27	8.396
323.47	7.355
323.68	9.794
323.89	5.813
324.10	6.895
324.31	9.679
324.52	8.376
324.73	8.745
324.93	8.426
325.14	7.150
325.35	5.465
325.56	6.580
325.77	8.750
325.98	6.323
326.19	8.822
326.39	7.073
326.60	4.916
326.81	7.315
327.02	4.808
327.23	3.661
327.44	8.621
327.64	4.935
327.85	6.474
328.06	6.723
328.27	7.896
328.48	8.871
328.69	6.102
328.90	7.656
329.10	4.607
329.31	9.598
329.52	8.816
329.73	11.642
329.94	7.535
330.15	5.775
330.35	7.938
330.56	7.671
330.77	6.721
330.98	8.836
331.19	5.342
331.39	9.002
331.60	8.074
331.81	6.267
332.02	9.272
332.23	9.489
332.44	8.017
332.64	6.230
332.85	8.347
333.06	9.420
333.27	7.650
333.48	6.754
333.68	7.380
333.89	3.987
334.10	6.851
334.31	8.209
334.52	5.596
334.72	8.633
334.93	8.884
335.14	7.059
335.35	10.419
335.56	9.012
335.76	5.751
335.97	8.652
336.18	4.807
336.39	7.381
336.60	7.789
336.80	7.498
337.01	5.700
337.22	5.600
337.43	6.080
337.64	7.770
337.84	6.828
338.05	5.691
338.26	7.625
338.47	6.719
338.68	5.874
338.88	6.647
339.09	7.576
339.30	5.642
339.51	8.420
339.71	6.308
339.92	5.675
340.13	8.118
340.34	7.646
340.55	5.871
340.75	7.150
340.96	6.905
341.17	6.381
341.38	4.153
341.58	6.330
341.79	4.139
342.00	5.921
342.21	6.214
342.41	8.000
342.62	7.071
342.83	6.885
343.04	6.812
343.24	4.637
343.45	6.349
343.66	6.932
343.87	7.044
344.07	7.033
344.28	8.337
344.49	7.222
344.70	5.964
344.90	5.175
345.11	5.936
345.32	5.754
345.53	6.499
345.73	5.290
345.94	7.510
346.15	7.461
346.36	6.131
346.56	4.729
346.77	5.611
346.98	6.139
347.19	5.997
347.39	7.351
347.60	6.758
347.81	6.746
348.02	6.936
348.22	5.810
348.43	6.843
348.64	3.934
348.84	5.307
349.05	7.115
349.26	8.330
349.47	6.250
349.67	5.361
349.88	9.059
350.09	6.299
350.30	7.358
350.50	6.389
350.71	10.195
350.92	5.885
351.12	6.586
351.33	7.457
351.54	6.342
351.74	5.744
351.95	6.316
352.16	6.825
352.37	6.438
352.57	7.597
352.78	7.730
352.99	6.024
353.19	6.528
353.40	6.236
353.61	8.406
353.82	7.650
354.02	6.517
354.23	7.547
354.44	10.150
354.64	6.485
354.85	8.343
355.06	6.457
355.26	6.645
355.47	7.328
355.68	8.310
355.88	6.942
356.09	7.876
356.30	5.534
356.51	8.154
356.71	8.135
356.92	8.333
357.13	6.470
357.33	9.674
357.54	7.690
357.75	4.897
357.95	8.545
358.16	6.729
358.37	7.878
358.57	7.307
358.78	9.103
358.99	7.159
359.19	5.364
359.40	8.824
359.61	8.147
359.81	10.670
360.02	8.132
360.23	7.152
360.43	7.660
360.64	7.581
360.85	6.963
361.05	4.834
361.26	7.184
361.47	6.408
361.67	8.502
361.88	5.283
362.09	5.675
362.29	4.799
362.50	5.360
362.70	4.757
362.91	7.259
363.12	5.831
363.32	5.361
363.53	6.910
363.74	7.237
363.94	5.457
364.15	7.851
364.36	6.901
364.56	5.405
364.77	6.301
364.98	9.953
365.18	8.291
365.39	7.800
365.59	6.848
365.80	5.975
366.01	8.303
366.21	6.486
366.42	7.017
366.63	8.147
366.83	5.476
367.04	4.515
367.24	8.125
367.45	9.074
367.66	5.370
367.86	7.425
368.07	7.286
368.28	6.953
368.48	7.433
368.69	5.805
368.89	7.702
369.10	6.581
369.31	9.023
369.51	7.109
369.72	8.445
369.92	8.444
370.13	4.698
370.34	6.994
370.54	3.427
370.75	8.711
370.95	5.232
371.16	8.377
371.37	5.400
371.57	6.073
371.78	6.573
371.98	7.768
372.19	7.844
372.40	6.699
372.60	6.476
372.81	7.019
373.01	4.863
373.22	5.869
373.43	7.597
373.63	6.743
373.84	8.001
374.04	7.149
374.25	6.601
374.46	7.049
374.66	7.084
374.87	7.824
375.07	4.666
375.28	5.780
375.48	7.193
375.69	6.975
375.90	5.418
376.10	4.232
376.31	5.366
376.51	5.717
376.72	6.398
376.92	6.286
377.13	7.787
377.34	6.357
377.54	6.006
377.75	8.435
377.95	6.907
378.16	7.327
378.36	7.919
378.57	6.590
378.77	6.128
378.98	6.441
379.19	6.913
379.39	5.945
379.60	6.908
379.80	6.157
380.01	6.770
380.21	6.358
380.42	7.309
380.62	7.036
380.83	7.448
381.04	5.173
381.24	6.749
381.45	6.365
381.65	5.705
381.86	6.223
382.06	8.161
382.27	5.610
382.47	6.187
382.68	6.896
382.88	5.412
383.09	6.538
383.29	5.881
383.50	7.133
383.71	5.535
383.91	6.464
384.12	5.759
384.32	7.585
384.53	7.139
384.73	6.227
384.94	5.105
385.14	6.555
385.35	5.753
385.55	6.424
385.76	6.461
385.96	6.173
386.17	6.465
386.37	6.352
386.58	5.504
386.78	7.849
386.99	6.166
387.19	8.368
387.40	5.976
387.60	8.927
387.81	6.165
388.01	6.826
388.22	6.703
388.42	7.526
388.63	8.540
388.83	8.112
389.04	6.047
389.24	6.354
389.45	6.840
389.65	5.880
389.86	7.353
390.06	5.870
390.27	5.461
390.47	6.240
390.68	5.846
390.88	8.278
391.09	8.064
391.29	8.064
391.50	6.499
391.70	7.782
391.91	5.568
392.11	6.267
392.32	7.271
392.52	7.492
392.73	5.922
392.93	7.154
393.14	7.335
393.34	7.590
393.55	7.331
393.75	7.846
393.95	6.074
394.16	7.584
394.36	9.505
394.57	7.749
394.77	6.481
394.98	6.175
395.18	7.401
395.39	7.112
395.59	6.239
395.80	7.921
396.00	6.367
396.21	9.025
396.41	5.554
396.61	7.808
396.82	8.250
397.02	10.013
397.23	6.275
397.43	7.355
397.64	6.416
397.84	9.248
398.05	4.525
398.25	8.492
398.45	5.673
398.66	8.595
398.86	6.614
399.07	9.103
399.27	6.268
399.48	7.980
399.68	6.258
399.89	6.630
400.09	7.004
400.29	6.488
400.50	6.467
400.70	8.524
400.91	7.667
401.11	6.990
401.32	8.431
401.52	6.251
401.72	6.367
401.93	9.612
402.13	6.505
402.34	7.218
402.54	5.683
402.75	9.122
402.95	6.065
403.15	8.470
403.36	5.170
403.56	7.726
403.77	6.205
403.97	8.063
404.17	6.757
404.38	8.147
404.58	6.140
404.79	8.013
404.99	8.427
405.19	6.311
405.40	7.260
405.60	7.255
405.81	6.255
406.01	7.218
406.21	7.703
406.42	7.428
406.62	7.724
406.83	7.880
407.03	8.398
407.23	6.413
407.44	6.747
407.64	7.853
407.85	7.633
408.05	7.156
408.25	7.510
408.46	8.884
408.66	7.834
408.87	6.810
409.07	6.684
409.27	6.825
409.48	6.797
409.68	7.841
409.88	6.060
410.09	8.172
410.29	7.507
410.50	8.855
410.70	5.381
410.90	7.718
411.11	6.144
411.31	6.419
411.51	7.068
411.72	7.031
411.92	5.814
412.12	6.420
412.33	5.741
412.53	5.058
412.74	6.044
412.94	6.973
413.14	6.610
413.35	6.821
413.55	6.454
413.75	7.300
413.96	5.888
414.16	7.848
414.36	6.605
414.57	6.044
414.77	5.394
414.97	7.985
415.18	5.999
415.38	6.506
415.58	6.263
415.79	5.956
415.99	5.829
416.19	6.889
416.40	6.729
416.60	6.461
416.80	5.893
417.01	6.209
417.21	4.682
417.41	8.116
417.62	6.406
417.82	7.044
418.02	5.890
418.23	7.314
418.43	6.653
418.63	6.881
418.84	8.094
419.04	6.338
419.24	7.771
419.45	8.210
419.65	7.675
419.85	7.959
420.06	8.010
420.26	7.733
420.46	7.166
420.67	8.422
420.87	7.940
421.07	9.088
421.28	7.371
421.48	8.647
421.68	8.043
421.88	9.120
422.09	8.821
422.29	8.424
422.49	7.515
422.70	8.185
422.90	8.122
423.10	8.386
423.31	8.208
423.51	8.894
423.71	7.332
423.91	8.669
424.12	8.126
424.32	8.804
424.52	8.271
424.73	7.843
424.93	8.148
425.13	7.905
425.33	7.548
425.54	9.206
425.74	8.253
425.94	8.983
426.15	7.744
426.35	8.180
426.55	8.247
426.75	8.457
426.96	7.875
427.16	8.176
427.36	8.065
427.57	8.414
427.77	6.933
427.97	8.403
428.17	8.589
428.38	8.008
428.58	5.341
428.78	6.875
428.98	6.175
429.19	6.715
429.39	4.763
429.59	8.347
429.79	4.877
430.00	6.153
430.20	5.549
430.40	6.207
430.60	5.807
430.81	7.125
431.01	5.587
431.21	6.930
431.41	5.714
431.62	6.808
431.82	5.761
432.02	7.647
432.22	6.068
432.43	5.883
432.63	5.541
432.83	6.759
433.03	6.220
433.24	6.174
433.44	6.113
433.64	7.802
433.84	5.832
434.05	7.675
434.25	6.834
434.45	8.507
434.65	8.078
434.85	8.568
435.06	7.393
435.26	8.161
435.46	7.024
435.66	8.096
435.87	7.053
436.07	7.801
436.27	7.150
436.47	7.229
436.67	5.410
436.88	7.846
437.08	7.230
437.28	7.272
437.48	6.843
437.69	8.156
437.89	6.819
438.09	8.355
438.29	5.708
438.49	7.205
438.70	7.130
438.90	6.711
439.10	6.506
439.30	7.952
439.50	5.668
439.71	7.491
439.91	7.092
440.11	8.709
440.31	7.319
440.51	7.650
440.72	7.223
440.92	8.029
441.12	8.010
441.32	8.764
441.52	8.615
441.72	9.246
441.93	8.160
442.13	9.120
442.33	7.727
442.53	9.375
442.73	7.252
442.94	8.229
443.14	8.098
443.34	9.485
443.54	8.561
443.74	8.927
443.94	8.028
444.15	7.998
444.35	7.224
444.55	8.580
444.75	7.271
444.95	8.210
445.15	8.031
445.36	8.518
445.56	7.063
445.76	9.033
445.96	7.892
446.16	8.037
446.36	7.969
446.57	8.855
446.77	7.745
446.97	8.920
447.17	9.236
447.37	9.162
447.57	9.173
447.77	9.035
447.98	8.850
448.18	9.752
448.38	8.879
448.58	9.873
448.78	9.028
448.98	9.752
449.18	8.678
449.39	9.621
449.59	8.558
449.79	8.619
449.99	8.426
450.19	9.464
450.39	8.958
450.59	9.399
450.79	8.714
451.00	10.117
451.20	9.231
451.40	9.064
451.60	7.786
451.80	9.476
452.00	7.937
452.20	7.948
452.40	8.332
452.61	8.810
452.81	8.550
453.01	9.202
453.21	7.898
453.41	9.424
453.61	7.961
453.81	9.208
454.01	8.527
454.21	9.083
454.42	9.680
454.62	9.523
454.82	9.116
455.02	8.432
455.22	8.194
455.42	8.694
455.62	7.028
455.82	9.514
456.02	9.354
456.23	8.896
456.43	8.943
456.63	9.157
456.83	8.679
457.03	9.677
457.23	8.457
457.43	9.379
457.63	7.989
457.83	9.306
458.03	9.066
458.23	9.691
458.43	8.127
458.64	9.174
458.84	9.126
459.04	9.483
459.24	9.247
459.44	9.664
459.64	9.989
459.84	10.297
460.04	9.353
460.24	10.264
460.44	9.699
460.64	11.322
460.84	10.145
461.04	10.608
461.24	10.679
461.45	10.813
461.65	10.405
461.85	10.926
462.05	11.024
462.25	10.735
462.45	11.621
462.65	11.292
462.85	9.556
463.05	10.795
463.25	8.730
463.45	11.234
463.65	9.372
463.85	11.208
464.05	9.968
464.25	10.623
464.45	10.943
464.65	10.755
464.85	9.161
465.05	10.511
465.26	10.876
465.46	11.454
465.66	10.287
465.86	11.304
466.06	10.374
466.26	10.394
466.46	9.070
466.66	10.800
466.86	10.434
467.06	11.516
467.26	11.101
467.46	12.053
467.66	10.009
467.86	11.230
468.06	10.833
468.26	10.811
468.46	10.571
468.66	11.686
468.86	9.568
469.06	12.360
469.26	10.080
469.46	11.469
469.66	10.065
469.86	11.866
470.06	10.960
470.26	12.522
470.46	9.993
470.66	12.413
470.86	10.594
471.06	11.779
471.26	10.080
471.46	11.592
471.66	12.061
471.86	12.042
472.06	10.999
472.26	12.600
472.46	11.646
472.66	12.518
472.86	10.250
473.06	12.164
473.26	11.744
473.46	12.569
473.66	10.539
473.86	12.361
474.06	10.548
474.26	12.481
474.46	10.810
474.66	12.462
474.86	11.649
475.06	12.743
475.26	10.430
475.46	13.301
475.66	11.494
475.86	12.017
476.06	11.605
476.26	13.455
476.46	11.304
476.66	12.842
476.86	11.447
477.06	12.218
477.26	11.691
477.46	12.402
477.65	12.377
477.85	13.012
478.05	10.813
478.25	12.687
478.45	12.144
478.65	13.053
478.85	11.643
479.05	13.032
479.25	12.823
479.45	13.190
479.65	11.969
479.85	12.359
480.05	12.761
480.25	13.096
480.45	12.483
480.65	13.153
480.85	12.234
481.05	13.128
481.25	12.338
481.44	12.703
481.64	11.697
481.84	13.768
482.04	12.115
482.24	12.780
482.44	12.125
482.64	12.376
482.84	12.198
483.04	12.436
483.24	11.553
483.44	11.752
483.64	11.183
483.84	11.048
484.04	11.175
484.23	11.262
484.43	11.733
484.63	12.237
484.83	12.727
485.03	13.186
485.23	13.226
485.43	13.142
485.63	13.208
485.83	12.440
486.03	11.986
486.23	12.581
486.42	12.777
486.62	12.459
486.82	12.676
487.02	12.043
487.22	11.783
487.42	11.835
487.62	11.813
487.82	11.974
488.02	11.924
488.22	11.788
488.41	11.930
488.61	12.002
488.81	12.055
489.01	12.167
489.21	12.380
489.41	12.387
489.61	12.574
489.81	13.098
490.01	13.158
490.20	12.945
490.40	12.871
490.60	12.760
490.80	12.569
491.00	12.585
491.20	12.326
491.40	12.316
491.60	12.059
491.79	11.709
491.99	12.124
492.19	11.983
492.39	12.029
492.59	11.912
492.79	11.816
492.99	12.240
493.19	12.565
493.38	12.267
493.58	12.968
493.78	12.840
493.98	13.123
494.18	13.395
494.38	12.993
494.58	14.131
494.77	13.050
494.97	13.468
495.17	13.020
495.37	13.305
495.57	13.225
495.77	13.454
495.96	13.123
496.16	13.803
496.36	13.309
496.56	13.519
496.76	12.786
496.96	13.140
497.15	12.470
497.35	13.332
497.55	12.752
497.75	13.130
497.95	12.584
498.15	13.358
498.34	12.946
498.54	12.673
498.74	13.055
498.94	13.143
499.14	12.978
499.34	13.541
499.53	12.773
499.73	14.240
499.93	13.028
500.13	13.390
500.33	13.181
500.52	13.723
500.72	13.516
500.92	13.347
501.12	13.073
501.32	14.088
501.52	13.268
501.71	12.959
501.91	13.142
502.11	13.691
502.31	12.536
502.51	14.124
502.70	12.893
502.90	13.958
503.10	13.306
503.30	14.381
503.50	13.219
503.69	13.899
503.89	13.701
504.09	13.808
504.29	13.611
504.48	13.480
504.68	14.071
504.88	13.863
505.08	12.729
505.28	14.034
505.47	13.373
505.67	13.350
505.87	13.011
506.07	13.963
506.27	13.230
506.46	13.867
506.66	13.871
506.86	14.392
507.06	14.113
507.25	13.381
507.45	13.809
507.65	13.915
507.85	12.666
508.04	14.255
508.24	14.010
508.44	14.310
508.64	13.655
508.83	13.921
509.03	13.486
509.23	13.558
509.43	12.972
509.63	13.931
509.82	12.696
510.02	14.132
510.22	12.981
510.42	14.367
510.61	13.816
510.81	13.733
511.01	13.524
511.21	13.994
511.40	12.617
511.60	13.903
511.80	13.910
511.99	13.927
512.19	14.059
512.39	14.200
512.59	13.725
512.78	14.085
512.98	14.019
513.18	14.535
513.38	14.159
513.57	14.627
513.77	13.485
513.97	14.494
514.17	14.493
514.36	13.329
514.56	13.613
514.76	14.348
514.95	13.702
515.15	14.195
515.35	14.128
515.55	14.685
515.74	14.986
515.94	14.832
516.14	13.479
516.33	14.635
516.53	14.161
516.73	14.393
516.93	13.469
517.12	14.147
517.32	13.145
517.52	13.859
517.71	14.077
517.91	13.748
518.11	13.179
518.30	14.239
518.50	13.467
518.70	13.452
518.90	13.425
519.09	13.470
519.29	13.669
519.49	14.326
519.68	14.047
519.88	14.002
520.08	13.793
520.27	13.886
520.47	13.956
520.67	14.021
520.86	14.240
521.06	14.235
521.26	14.516
521.45	14.332
521.65	14.536
521.85	14.480
522.04	14.575
522.24	14.319
522.44	14.139
522.63	13.946
522.83	14.032
523.03	14.795
523.22	14.094
523.42	14.586
523.62	15.020
523.81	14.541
524.01	14.150
524.21	14.505
524.40	14.486
524.60	14.291
524.80	13.940
524.99	14.037
525.19	13.873
525.39	13.632
525.58	13.826
525.78	13.589
525.98	13.532
526.17	13.649
526.37	13.645
526.57	13.851
526.76	13.898
526.96	13.921
527.15	13.729
527.35	13.518
527.55	13.364
527.74	14.125
527.94	13.509
528.14	13.533
528.33	13.125
528.53	13.203
528.72	12.998
528.92	13.162
529.12	13.395
529.31	13.171
529.51	13.701
529.71	13.665
529.90	13.850
530.10	13.850
530.29	14.210
530.49	14.957
530.69	14.397
530.88	14.559
531.08	14.507
531.28	14.316
531.47	14.546
531.67	14.380
531.86	14.597
532.06	14.293
532.26	14.205
532.45	14.231
532.65	13.821
532.84	13.615
533.04	13.486
533.24	13.772
533.43	13.392
533.63	13.598
533.82	14.047
534.02	14.266
534.22	14.148
534.41	13.881
534.61	14.756
534.80	13.943
535.00	14.374
535.19	14.622
535.39	14.916
535.59	14.748
535.78	14.670
535.98	14.223
536.17	14.383
536.37	13.652
536.57	14.786
536.76	13.905
536.96	14.151
537.15	14.311
537.35	14.328
537.54	14.095
537.74	14.362
537.93	14.607
538.13	14.797
538.33	15.412
538.52	14.469
538.72	14.978
538.91	15.085
539.11	15.106
539.30	15.224
539.50	14.988
539.70	14.815
539.89	14.557
540.09	14.625
540.28	14.893
540.48	14.069
540.67	14.321
540.87	14.138
541.06	13.925
541.26	13.707
541.45	13.820
541.65	14.282
541.85	13.934
542.04	14.081
542.24	14.823
542.43	14.549
542.63	14.412
542.82	14.818
543.02	14.661
543.21	14.948
543.41	14.849
543.60	15.140
543.80	14.901
543.99	15.142
544.19	14.687
544.38	14.977
544.58	14.928
544.77	14.819
544.97	15.234
545.16	15.229
545.36	14.736
545.56	14.755
545.75	15.470
545.95	15.679
546.14	15.533
546.34	14.658
546.53	15.116
546.73	14.813
546.92	15.374
547.12	14.805
547.31	15.893
547.51	15.321
547.70	14.921
547.90	15.388
548.09	15.741
548.29	15.799
548.48	15.817
548.68	15.587
548.87	15.947
549.07	16.531
549.26	15.953
549.46	15.496
549.65	15.794
549.84	15.590
550.04	15.793
550.23	15.818
550.43	15.810
550.62	15.284
550.82	16.199
551.01	16.044
551.21	16.006
551.40	15.523
551.60	15.566
551.79	15.656
551.99	15.712
552.18	14.812
552.38	16.576
552.57	15.765
552.77	16.192
552.96	16.128
553.16	17.153
553.35	16.409
553.54	16.088
553.74	16.269
553.93	16.762
554.13	16.916
554.32	16.577
554.52	16.733
554.71	16.745
554.91	15.626
555.10	16.855
555.29	15.994
555.49	17.172
555.68	16.487
555.88	17.039
556.07	16.562
556.27	17.044
556.46	16.040
556.66	17.043
556.85	16.701
557.04	17.886
557.24	16.313
557.43	17.163
557.63	16.807
557.82	17.063
558.02	16.277
558.21	17.128
558.40	16.860
558.60	17.416
558.79	15.515
558.99	17.457
559.18	17.205
559.38	18.029
559.57	16.924
559.76	17.319
559.96	17.767
560.15	17.821
560.35	15.863
560.54	17.513
560.73	15.518
560.93	17.252
561.12	17.388
561.32	17.768
561.51	17.570
561.70	18.033
561.90	17.629
562.09	17.616
562.29	17.330
562.48	17.904
562.67	17.176
562.87	18.883
563.06	17.410
563.26	18.018
563.45	18.606
563.64	18.135
563.84	18.558
564.03	19.331
564.23	17.382
564.42	18.937
564.61	17.881
564.81	18.512
565.00	19.148
565.20	18.485
565.39	18.695
565.58	18.603
565.78	18.256
565.97	18.423
566.16	18.267
566.36	18.633
566.55	18.911
566.74	18.647
566.94	18.744
567.13	19.420
567.33	18.504
567.52	18.838
567.71	19.397
567.91	19.097
568.10	19.594
568.29	19.330
568.49	18.714
568.68	19.690
568.87	19.356
569.07	19.846
569.26	19.971
569.45	19.793
569.65	19.573
569.84	20.190
570.04	19.005
570.23	19.930
570.42	18.554
570.62	20.804
570.81	19.540
571.00	19.349
571.20	20.378
571.39	19.825
571.58	19.074
571.78	19.751
571.97	19.611
572.16	19.399
572.36	19.714
572.55	19.608
572.74	19.286
572.94	19.281
573.13	20.104
573.32	20.156
573.51	19.768
573.71	20.848
573.90	19.820
574.09	20.410
574.29	20.549
574.48	20.512
574.67	20.662
574.87	20.192
575.06	20.677
575.25	20.011
575.45	20.422
575.64	19.490
575.83	19.938
576.03	20.888
576.22	20.413
576.41	20.349
576.60	20.906
576.80	20.738
576.99	20.230
577.18	20.552
577.38	20.099
577.57	19.676
577.76	21.039
577.95	19.874
578.15	20.207
578.34	20.274
578.53	18.812
578.73	20.629
578.92	19.152
579.11	19.537
579.30	20.734
579.50	19.344
579.69	21.186
579.88	20.208
580.08	21.088
580.27	19.432
580.46	20.691
580.65	20.621
580.85	19.774
581.04	20.098
581.23	20.012
581.42	20.180
581.62	19.146
581.81	20.892
582.00	19.991
582.19	19.002
582.39	20.473
582.58	19.723
582.77	19.576
582.96	19.697
583.16	19.447
583.35	20.162
583.54	19.870
583.73	20.991
583.93	19.650
584.12	19.840
584.31	19.032
584.50	19.113
584.70	20.243
584.89	19.244
585.08	18.653
585.27	19.424
585.47	18.327
585.66	19.576
585.85	18.380
586.04	19.410
586.24	18.648
586.43	19.981
586.62	18.754
586.81	20.639
587.00	18.778
587.20	19.623
587.39	18.297
587.58	20.556
587.77	18.330
587.97	18.185
588.16	19.263
588.35	20.048
588.54	18.343
588.73	19.707
588.93	19.282
589.12	19.959
589.31	19.590
589.50	19.041
589.69	20.096
589.89	18.702
590.08	18.702
590.27	19.501
590.46	19.512
590.65	20.380
590.85	18.859
591.04	20.465
591.23	19.251
591.42	20.159
591.61	18.201
591.81	20.022
592.00	19.364
592.19	19.682
592.38	18.168
592.57	20.834
592.77	19.752
592.96	19.561
593.15	21.586
593.34	19.515
593.53	18.927
593.72	19.753
593.92	17.196
594.11	20.224
594.30	17.646
594.49	21.235
594.68	20.548
594.87	18.968
595.07	19.330
595.26	20.110
595.45	20.036
595.64	19.979
595.83	18.329
596.02	20.976
596.22	18.833
596.41	20.327
596.60	20.150
596.79	19.067
596.98	20.112
597.17	19.221
597.37	20.068
597.56	20.208
597.75	20.922
597.94	20.460
598.13	20.393
598.32	20.691
598.51	19.943
598.71	21.764
598.90	20.365
599.09	20.397
599.28	20.313
599.47	20.085
599.66	19.308
599.85	20.929
600.05	19.609
600.24	21.226
600.43	20.904
600.62	20.229
600.81	19.589
601.00	20.114
601.19	18.563
601.38	21.758
601.58	18.677
601.77	20.141
601.96	19.034
602.15	20.723
602.34	19.216
602.53	21.345
602.72	19.584
602.91	21.138
603.10	19.855
603.30	20.390
603.49	20.603
603.68	20.884
603.87	19.951
604.06	20.262
604.25	21.176
604.44	20.740
604.63	20.149
604.82	20.978
605.01	21.351
605.21	21.325
605.40	21.144
605.59	20.689
605.78	21.166
605.97	21.385
606.16	21.235
606.35	21.897
606.54	21.529
606.73	21.500
606.92	21.526
607.11	22.539
607.30	20.500
607.50	21.775
607.69	19.045
607.88	21.111
608.07	20.159
608.26	20.067
608.45	22.017
608.64	20.336
608.83	18.646
609.02	20.831
609.21	21.226
609.40	20.822
609.59	19.733
609.78	21.394
609.97	19.724
610.16	19.907
610.35	20.399
610.55	20.917
610.74	21.125
610.93	20.291
611.12	21.441
611.31	20.213
611.50	20.600
611.69	20.764
611.88	20.016
612.07	21.159
612.26	20.424
612.45	19.895
612.64	18.582
612.83	21.634
613.02	19.430
613.21	18.998
613.40	18.623
613.59	20.764
613.78	18.709
613.97	20.341
614.16	17.088
614.35	19.668
614.54	17.021
614.73	18.681
614.92	18.239
615.11	19.131
615.30	17.895
615.49	18.361
615.68	18.316
615.87	18.745
616.07	17.101
616.26	18.124
616.45	19.015
616.64	19.903
616.83	17.325
617.02	18.856
617.21	15.342
617.40	18.601
617.59	18.231
617.78	18.879
617.97	17.178
618.16	17.400
618.35	15.490
618.54	18.409
618.73	17.261
618.92	19.344
619.11	16.303
619.30	17.712
619.49	15.690
619.68	19.156
619.86	17.262
620.05	17.728
620.24	17.164
620.43	17.666
620.62	16.018
620.81	18.738
621.00	18.266
621.19	18.316
621.38	17.898
621.57	18.753
621.76	16.800
621.95	18.109
622.14	16.599
622.33	19.194
622.52	15.970
622.71	18.641
622.90	14.677
623.09	18.746
623.28	16.397
623.47	19.186
623.66	15.880
623.85	17.383
624.04	15.961
624.23	18.072
624.42	14.913
624.61	16.876
624.80	15.332
624.99	17.586
625.18	14.689
625.36	18.913
625.55	17.467
625.74	17.186
625.93	16.518
626.12	17.887
626.31	18.217
626.50	18.729
626.69	16.358
626.88	19.680
627.07	18.495
627.26	18.104
627.45	16.747
627.64	17.753
627.83	17.803
628.02	18.925
628.20	17.662
628.39	18.535
628.58	17.038
628.77	19.045
628.96	16.807
629.15	19.034
629.34	17.358
629.53	17.445
629.72	16.286
629.91	18.115
630.10	16.176
630.29	16.921
630.47	16.138
630.66	17.247
630.85	15.893
631.04	16.843
631.23	17.547
631.42	16.828
631.61	14.040
631.80	17.540
631.99	15.674
632.18	15.056
632.36	15.010
632.55	19.202
632.74	16.037
632.93	16.429
633.12	15.204
633.31	15.444
633.50	15.418
633.69	15.628
633.88	14.623
634.06	17.348
634.25	15.214
634.44	16.475
634.63	15.992
634.82	17.520
635.01	16.029
635.20	16.261
635.39	14.643
635.57	16.331
635.76	13.969
635.95	15.643
636.14	14.108
636.33	16.673
636.52	14.949
636.71	16.336
636.89	16.324
637.08	16.487
637.27	13.940
637.46	14.829
637.65	14.336
637.84	15.609
638.03	14.704
638.21	18.401
638.40	15.875
638.59	14.350
638.78	14.687
638.97	15.699
639.16	16.840
639.34	15.308
639.53	11.914
639.72	16.038
639.91	13.870
640.10	12.821
640.29	15.357
640.47	15.179
640.66	14.820
640.85	16.947
641.04	12.432
641.23	15.864
641.42	14.381
641.60	15.068
641.79	14.220
641.98	14.862
642.17	15.316
642.36	15.433
642.54	12.897
642.73	15.796
642.92	13.330
643.11	15.819
643.30	14.210
643.49	16.043
643.67	13.173
643.86	14.676
644.05	12.601
644.24	15.146
644.43	14.221
644.61	15.677
644.80	15.493
644.99	13.842
645.18	16.484
645.37	14.649
645.55	13.092
645.74	15.125
645.93	14.343
646.12	15.034
646.31	15.167
646.49	14.293
646.68	14.271
646.87	14.930
647.06	13.434
647.24	14.881
647.43	12.473
647.62	16.036
647.81	12.292
648.00	16.247
648.18	12.507
648.37	14.103
648.56	14.349
648.75	14.248
648.93	13.784
649.12	15.687
649.31	13.976
649.50	15.123
649.68	12.748
649.87	15.026
650.06	11.878
650.25	14.704
650.43	11.989
650.62	12.870
650.81	14.397
651.00	13.388
651.18	12.553
651.37	15.876
651.56	13.144
651.75	15.412
651.93	12.362
652.12	15.316
652.31	11.539
652.50	14.326
652.68	14.169
652.87	16.480
653.06	14.799
653.25	15.174
653.43	12.645
653.62	16.117
653.81	12.526
654.00	15.215
654.18	13.966
654.37	16.734
654.56	11.685
654.74	12.676
654.93	12.091
655.12	13.365
655.31	12.514
655.49	14.563
655.68	9.413
655.87	10.232
656.05	10.073
656.24	14.177
656.43	9.816
656.62	12.647
656.80	12.413
656.99	11.580
657.18	11.493
657.36	11.111
657.55	11.483
657.74	11.858
657.93	13.566
658.11	13.948
658.30	14.757
658.49	12.244
658.67	12.312
658.86	12.254
659.05	11.164
659.23	14.619
659.42	11.672
659.61	13.414
659.79	13.548
659.98	13.093
660.17	13.019
660.35	12.760
660.54	12.957
660.73	15.806
660.91	12.121
661.10	14.119
661.29	10.562
661.47	12.117
661.66	11.978
661.85	11.971
662.03	11.286
662.22	9.615
662.41	7.517
662.59	12.098
662.78	9.837
662.97	10.148
663.15	8.647
663.34	9.986
663.53	8.197
663.71	10.271
663.90	9.776
664.09	9.982
664.27	10.182
664.46	9.218
664.65	7.499
664.83	9.126
665.02	7.875
665.21	9.929
665.39	7.175
665.58	8.890
665.77	8.912
665.95	8.856
666.14	8.052
666.32	7.950
666.51	6.873
666.70	6.696
666.88	6.752
667.07	7.143
667.26	7.637
667.44	9.209
667.63	8.528
667.81	7.089
668.00	7.448
668.19	9.213
668.37	8.542
668.56	9.912
668.75	6.380
668.93	10.424
669.12	6.918
669.30	9.839
669.49	6.691
669.68	8.795
669.86	10.074
670.05	6.258
670.23	7.782
670.42	7.366
670.61	8.749
670.79	8.414
670.98	8.528
671.16	8.751
671.35	7.685
671.54	9.746
671.72	7.288
671.91	9.249
672.09	6.552
672.28	9.826
672.46	9.639
672.65	8.752
672.84	9.438
673.02	9.703
673.21	6.758
673.39	7.618
673.58	8.887
673.77	8.018
673.95	5.884
674.14	9.589
674.32	6.871
674.51	10.049
674.69	5.086
674.88	8.407
675.07	7.642
675.25	11.371
675.44	7.645
675.62	7.957
675.81	6.239
675.99	11.638
676.18	10.177
676.36	7.958
676.55	8.123
676.74	9.826
676.92	10.577
677.11	6.570
677.29	5.550
677.48	11.779
677.66	10.175
677.85	8.548
678.03	7.820
678.22	9.929
678.40	7.915
678.59	7.389
678.78	7.387
678.96	8.166
679.15	8.495
679.33	9.493
679.52	10.283
679.70	11.187
679.89	8.445
680.07	9.394
680.26	6.629
680.44	8.814
680.63	9.372
680.81	10.500
681.00	7.735
681.18	10.288
681.37	7.485
681.55	10.943
681.74	11.263
681.92	11.823
682.11	9.252
682.29	8.577
682.48	8.918
682.66	10.637
682.85	10.483
683.03	10.316
683.22	11.323
683.40	11.069
683.59	10.417
683.77	9.820
683.96	8.248
684.14	12.003
684.33	6.965
684.51	14.001
684.70	11.963
684.88	13.561
685.07	9.986
685.25	11.921
685.44	10.175
685.62	10.165
685.81	9.985
685.99	13.051
686.18	10.028
686.36	10.824
686.55	8.551
686.73	11.421
686.92	13.100
687.10	9.545
687.29	11.608
687.47	12.849
687.65	14.079
687.84	11.209
688.02	13.876
688.21	14.240
688.39	9.088
688.58	14.934
688.76	13.901
688.95	13.473
689.13	11.377
689.32	15.757
689.50	13.909
689.68	14.756
689.87	13.411
690.05	14.641
690.24	12.655
690.42	16.774
690.61	14.637
690.79	15.271
690.98	15.200
691.16	16.691
691.34	12.152
691.53	16.049
691.71	14.269
691.90	15.485
692.08	13.126
692.27	17.841
692.45	17.388
692.63	17.820
692.82	17.177
693.00	16.547
693.19	13.325
693.37	15.946
693.56	17.294
693.74	19.926
693.92	13.923
694.11	17.973
694.29	18.036
694.48	18.471
694.66	14.212
694.84	20.618
695.03	16.836
695.21	21.251
695.40	20.153
695.58	22.564
695.76	18.419
695.95	23.978
696.13	17.254
696.32	19.137
696.50	24.917
696.68	22.528
696.87	21.592
697.05	21.384
697.24	21.576
697.42	25.933
697.60	21.191
697.79	25.112
697.97	24.329
698.16	28.576
698.34	22.267
698.52	25.023
698.71	25.037
698.89	26.434
699.07	25.974
699.26	26.145
699.44	26.395
699.63	27.063
699.81	27.053
699.99	29.822
700.18	27.442
700.36	27.109
700.54	27.348
700.73	30.526
700.91	26.032
701.09	28.288
701.28	27.731
701.46	26.992
701.64	25.399
701.83	28.420
702.01	22.425
702.20	31.758
702.38	25.344
702.56	26.976
702.75	23.997
702.93	25.677
703.11	26.452
703.30	31.205
703.48	25.738
703.66	26.114
703.85	24.671
704.03	29.940
704.21	26.850
704.40	28.864
704.58	24.658
704.76	28.110
704.95	27.931
705.13	28.267
705.31	27.043
705.50	28.648
705.68	25.767
705.86	28.288
706.04	25.884
706.23	32.522
706.41	27.579
706.59	27.241
706.78	25.155
706.96	27.756
707.14	29.099
707.33	28.420
707.51	28.317
707.69	30.218
707.88	27.459
708.06	30.219
708.24	28.101
708.42	32.405
708.61	27.013
708.79	30.891
708.97	30.517
709.16	32.768
709.34	31.602
709.52	31.820
709.71	29.284
709.89	30.200
710.07	27.087
710.25	31.801
710.44	26.123
710.62	29.220
710.80	32.723
710.98	31.773
711.17	28.991
711.35	29.863
711.53	27.314
711.72	33.731
711.90	33.781
712.08	33.026
712.26	29.489
712.45	30.195
712.63	32.056
712.81	31.632
712.99	32.249
713.18	32.582
713.36	31.879
713.54	27.338
713.72	28.162
713.91	31.972
714.09	27.741
714.27	31.922
714.45	31.017
714.64	31.495
714.82	27.664
715.00	32.899
715.18	29.054
715.37	35.192
715.55	32.879
715.73	31.869
715.91	33.209
716.10	32.455
716.28	27.913
716.46	32.497
716.64	31.479
716.83	31.404
717.01	29.569
717.19	34.414
717.37	28.409
717.55	29.843
717.74	30.088
717.92	30.980
718.10	24.520
718.28	30.123
718.47	32.567
718.65	33.148
718.83	30.761
719.01	33.603
719.19	29.722
719.38	30.262
719.56	30.459
719.74	29.757
719.92	20.247
720.10	26.877
720.29	27.710
720.47	31.641
720.65	28.017
720.83	30.950
721.01	23.993
721.20	30.720
721.38	27.755
721.56	29.963
721.74	27.382
721.92	31.937
722.11	27.551
722.29	33.271
722.47	28.084
722.65	30.846
722.83	28.359
723.01	28.184
723.20	28.398
723.38	29.563
723.56	26.658
723.74	37.179
723.92	29.852
724.10	33.744
724.29	24.116
724.47	36.474
724.65	28.817
724.83	33.616
725.01	27.226
725.19	32.741
725.38	31.371
725.56	28.591
725.74	29.805
725.92	32.472
726.10	27.669
726.28	31.547
726.46	30.375
726.65	32.105
726.83	28.515
727.01	31.112
727.19	29.468
727.37	29.885
727.55	31.420
727.73	31.227
727.92	31.408
728.10	31.912
728.28	25.806
728.46	34.892
728.64	30.838
728.82	35.328
729.00	30.245
729.19	33.216
729.37	32.907
729.55	34.265
729.73	28.420
729.91	32.604
730.09	32.908
730.27	31.717
730.45	31.541
730.63	31.196
730.82	24.404
731.00	32.168
731.18	31.776
731.36	31.733
731.54	27.840
731.72	37.022
731.90	27.698
732.08	33.411
732.26	28.858
732.45	34.835
732.63	28.056
732.81	33.038
732.99	31.977
733.17	32.741
733.35	32.305
733.53	35.871
733.71	31.621
733.89	31.364
734.07	30.287
734.25	33.689
734.44	31.387
734.62	32.455
734.80	31.420
734.98	34.167
735.16	31.810
735.34	32.452
735.52	36.825
735.70	33.041
735.88	32.898
736.06	34.949
736.24	37.306
736.42	38.757
736.60	32.128
736.78	34.880
736.97	33.058
737.15	38.370
737.33	30.045
737.51	33.214
737.69	29.220
737.87	33.644
738.05	31.887
738.23	33.992
738.41	31.877
738.59	35.614
738.77	32.298
738.95	36.488
739.13	31.414
739.31	30.920
739.49	32.498
739.67	37.124
739.85	32.069
740.03	38.231
740.21	32.649
740.39	37.509
740.57	37.625
740.75	36.076
740.93	30.202
741.11	37.949
741.30	33.581
741.48	39.375
741.66	34.103
741.84	33.720
742.02	30.193
742.20	36.191
742.38	32.950
742.56	38.796
742.74	33.540
742.92	35.547
743.10	26.929
743.28	33.165
743.46	33.978
743.64	35.400
743.82	34.996
744.00	37.721
744.18	38.627
744.36	35.092
744.54	34.215
744.72	38.658
744.90	35.228
745.08	35.653
745.26	29.642
745.44	32.730
745.62	30.209
745.80	34.905
745.98	31.883
746.16	35.133
746.34	37.000
746.52	34.905
746.70	36.146
746.87	35.027
747.05	36.011
747.23	36.211
747.41	35.382
747.59	36.317
747.77	31.927
747.95	33.185
748.13	32.605
748.31	34.915
748.49	35.023
748.67	37.356
748.85	36.477
749.03	39.606
749.21	29.523
749.39	36.828
749.57	27.231
749.75	35.758
749.93	34.720
750.11	35.206
750.29	32.329
750.47	38.071
750.65	37.354
750.83	35.754
751.01	32.531
751.18	31.867
751.36	32.299
751.54	39.283
751.72	36.423
751.90	29.617
752.08	31.604
752.26	33.012
752.44	36.852
752.62	34.817
752.80	35.142
752.98	36.066
753.16	33.033
753.34	35.374
753.52	39.893
753.69	33.391
753.87	34.987
754.05	33.249
754.23	33.978
754.41	32.865
754.59	31.444
754.77	32.230
754.95	33.100
755.13	34.328
755.31	37.574
755.49	34.200
755.66	32.714
755.84	34.012
756.02	34.201
756.20	37.063
756.38	28.494
756.56	32.152
756.74	33.398
756.92	40.467
757.10	32.000
757.28	37.792
757.45	45.753
757.63	38.673
757.81	28.286
757.99	38.518
758.17	33.023
758.35	33.911
758.53	34.221
758.71	35.886
758.88	34.241
759.06	33.394
759.24	32.018
759.42	33.680
759.60	29.682
759.78	33.420
759.96	29.038
760.13	29.323
760.31	24.600
760.49	28.359
760.67	25.021
760.85	28.390
761.03	23.322
761.21	22.954
761.38	23.777
761.56	22.155
761.74	20.086
761.92	26.982
762.10	20.364
762.28	28.583
762.46	19.629
762.63	21.434
762.81	23.325
762.99	22.811
763.17	21.719
763.35	22.087
763.53	20.598
763.70	26.492
763.88	26.823
764.06	26.954
764.24	24.446
764.42	27.556
764.60	26.910
764.77	26.501
764.95	24.973
765.13	29.107
765.31	27.258
765.49	27.847
765.66	26.196
765.84	32.539
766.02	27.031
766.20	31.093
766.38	28.372
766.56	27.681
766.73	26.869
766.91	28.640
767.09	30.123
767.27	31.882
767.45	29.558
767.62	25.519
767.80	31.560
767.98	34.574
768.16	28.018
768.33	34.232
768.51	27.255
768.69	33.939
768.87	34.034
769.05	30.151
769.22	32.104
769.40	34.219
769.58	33.649
769.76	34.870
769.94	32.430
770.11	32.397
770.29	38.511
770.47	32.699
770.65	38.062
770.82	34.575
771.00	33.798
771.18	31.167
771.36	29.638
771.53	30.575
771.71	33.495
771.89	38.339
772.07	36.644
772.25	39.344
772.42	33.608
772.60	40.861
772.78	37.592
772.96	43.599
773.13	42.456
773.31	37.160
773.49	32.580
773.67	34.473
773.84	32.396
774.02	36.730
774.20	28.972
774.37	33.110
774.55	37.183
774.73	43.416
774.91	33.741
775.08	39.295
775.26	40.574
775.44	37.845
775.62	35.777
775.79	37.995
775.97	34.595
776.15	36.074
776.32	29.933
776.50	37.087
776.68	44.362
776.86	38.500
777.03	36.779
777.21	36.680
777.39	34.357
777.56	43.490
777.74	40.854
777.92	39.615
778.10	35.694
778.27	41.565
778.45	41.296
778.63	40.833
778.80	36.857
778.98	39.124
779.16	37.427
779.34	36.084
779.51	37.618
779.69	39.720
779.87	38.866
780.04	37.057
780.22	36.662
780.40	34.169
780.57	39.944
780.75	35.967
780.93	33.934
781.10	33.584
781.28	36.612
781.46	29.959
781.63	39.648
781.81	41.279
781.99	46.143
782.16	34.064
782.34	27.259
782.52	36.392
782.69	41.283
782.87	41.405
783.05	34.000
783.22	35.238
783.40	37.307
783.58	32.138
783.75	39.971
783.93	46.766
784.11	32.033
784.28	38.836
784.46	32.551
784.64	37.323
784.81	30.128
784.99	36.335
785.17	37.377
785.34	34.539
785.52	25.854
785.69	31.882
785.87	35.919
786.05	36.752
786.22	37.638
786.40	41.776
786.58	36.306
786.75	37.859
786.93	29.272
787.11	36.276
787.28	36.901
787.46	44.788
787.63	39.829
787.81	41.553
787.99	38.925
788.16	33.678
788.34	30.926
788.51	32.842
788.69	36.578
788.87	40.537
789.04	29.272
789.22	37.166
789.39	34.431
789.57	31.380
789.75	32.326
789.92	36.130
790.10	27.481
790.27	35.603
790.45	34.993
790.63	38.257
790.80	28.194
790.98	35.797
791.15	30.271
791.33	37.640
791.51	38.081
791.68	35.658
791.86	40.728
792.03	41.667
792.21	36.772
792.39	44.637
792.56	33.810
792.74	36.801
792.91	37.077
793.09	35.762
793.26	32.923
793.44	38.422
793.62	41.905
793.79	34.043
793.97	35.025
794.14	43.621
794.32	32.959
794.49	46.494
794.67	28.957
794.84	35.501
795.02	42.419
795.20	40.441
795.37	32.496
795.55	34.202
795.72	34.629
795.90	36.683
796.07	39.828
796.25	38.462
796.42	37.043
796.60	39.791
796.77	26.036
796.95	43.062
797.13	27.023
797.30	38.769
797.48	36.795
797.65	29.114
797.83	34.570
798.00	34.790
798.18	32.555
798.35	36.819
798.53	34.500
798.70	37.099
798.88	38.462
799.05	32.866
799.23	40.062
799.40	35.828
799.58	35.395
799.75	42.647
799.93	28.522
800.10	44.084
800.28	36.047
800.45	41.293
800.63	37.050
800.80	32.364
800.98	27.138
801.15	36.283
801.33	39.330
801.50	38.860
801.68	36.031
801.85	36.021
802.03	31.544
802.20	38.015
802.38	34.452
802.55	45.385
802.73	37.913
802.90	34.508
803.08	33.808
803.25	37.692
803.43	40.681
803.60	40.041
803.78	38.795
803.95	43.089
804.13	44.464
804.30	35.560
804.48	35.420
804.65	38.780
804.83	33.558
805.00	28.448
805.17	34.951
805.35	39.394
805.52	31.931
805.70	30.189
805.87	35.305
806.05	43.455
806.22	30.297
806.40	36.031
806.57	35.955
806.75	41.284
806.92	44.737
807.09	42.884
807.27	35.875
807.44	39.885
807.62	38.907
807.79	39.464
807.97	43.694
808.14	35.200
808.31	38.889
808.49	38.685
808.66	40.270
808.84	34.496
809.01	39.278
809.19	51.235
809.36	45.418
809.53	36.905
809.71	35.135
809.88	37.916
810.06	42.913
810.23	41.000
810.41	38.797
810.58	43.763
810.75	35.408
810.93	47.929
811.10	33.053
811.28	43.400
811.45	34.801
811.62	38.876
811.80	45.745
811.97	43.290
812.15	44.970
812.32	39.440
812.49	45.752
812.67	40.851
812.84	37.802
813.02	51.794
813.19	30.474
813.36	53.145
813.54	50.221
813.71	39.545
813.89	46.916
814.06	40.476
814.23	31.422
814.41	41.371
814.58	43.029
814.75	49.140
814.93	48.333
815.10	41.282
815.28	48.529
815.45	36.946
815.62	32.854
815.80	27.483
815.97	42.029
816.14	42.495
816.32	33.252
816.49	33.684
816.66	32.000
816.84	41.099
817.01	45.770
817.18	35.198
817.36	33.867
817.53	45.025
817.71	31.102
817.88	32.273
818.05	36.913
818.23	38.333
818.40	37.972
818.57	42.308
818.75	36.427
818.92	38.362
819.09	38.386
819.27	36.667
819.44	26.839
819.61	34.871
819.79	32.510
819.96	40.198
820.13	41.623
820.31	29.913
820.48	33.280
820.65	33.390
820.82	28.874
821.00	35.474
821.17	25.179
821.34	26.753
821.52	25.094
821.69	22.067
821.86	25.356
822.04	25.585
822.21	26.283
822.38	27.475
822.56	23.874
822.73	31.533
822.90	26.630
823.07	33.603
823.25	28.952
823.42	28.823
823.59	27.383
823.77	31.280
823.94	27.429
824.11	30.237
824.29	25.949
824.46	31.318
824.63	28.130
824.80	28.028
824.98	26.059
825.15	30.091
825.32	21.293
825.49	30.165
825.67	22.649
825.84	31.635
826.01	27.739
826.19	28.218
826.36	23.441
826.53	23.577
826.70	23.588
826.88	27.215
827.05	24.378
827.22	24.254
827.39	24.708
827.57	25.518
827.74	22.433
827.91	27.837
828.08	22.666
828.26	28.068
828.43	20.761
828.60	28.696
828.77	23.930
828.95	26.316
829.12	23.547
829.29	20.959
829.46	22.084
829.64	25.613
829.81	19.938
829.98	29.586
830.15	24.458
830.32	26.103
830.50	23.632
830.67	37.275
830.84	29.552
831.01	26.646
831.19	29.895
831.36	36.585
831.53	34.127
831.70	42.226
831.87	39.876
832.05	42.970
832.22	47.982
832.39	33.043
832.56	37.150
832.74	41.964
832.91	33.333
833.08	37.247
833.25	36.731
833.42	36.097
833.60	31.373
833.77	24.510
833.94	24.457
834.11	27.394
834.28	20.047
834.45	21.606
834.63	22.718
834.80	23.992
834.97	24.975
835.14	27.083
835.31	27.000
835.49	20.700
835.66	21.091
835.83	24.973
836.00	21.165
836.17	28.752
836.34	25.481
836.52	24.211
836.69	32.230
836.86	31.563
837.03	38.954
837.20	28.205
837.37	28.885
837.55	35.044
837.72	40.270
837.89	39.186
838.06	30.769
838.23	35.407
838.40	44.208
838.58	33.600
838.75	35.328
838.92	46.897
839.09	56.349
839.26	47.861
839.43	48.703
839.60	39.799
839.78	60.185
839.95	47.231
840.12	44.304
840.29	54.140
840.46	58.392
840.63	55.882
840.80	45.067
840.98	54.286
841.15	41.750
841.32	28.806
841.49	42.319
841.66	50.546
841.83	33.867
842.00	47.468
842.17	43.288
842.34	42.980
842.52	45.509
842.69	48.742
842.86	51.903
843.03	64.780
843.20	55.918
843.37	49.650
843.54	61.382
843.71	42.449
843.88	68.212
844.06	85.425
844.23	85.990
844.40	71.591
844.57	60.426
844.74	51.092
844.91	87.963
845.08	74.902
845.25	74.818
845.42	51.759
845.59	114.620
845.76	72.273
845.94	95.570
846.11	73.134
846.28	84.828
846.45	57.669
846.62	91.892
846.79	86.111
846.96	70.588
847.13	101.765
847.30	62.121
847.47	82.418
847.64	72.093
847.81	79.670
847.98	92.973
848.15	86.022
848.32	98.454
848.50	70.186
848.67	93.056
848.84	91.919
849.01	59.184
849.18	71.053
849.35	81.675
849.52	98.266
849.69	77.457
849.86	76.687
850.03	91.096
850.20	90.972
850.37	72.857
850.54	97.484
850.71	109.756
850.88	83.916
851.05	98.630
851.22	108.075
851.39	91.237
851.56	63.194
851.73	77.778
851.90	86.875
852.07	95.882
852.24	115.441
852.41	98.540
852.58	87.121
852.75	71.006
852.92	87.500
853.09	96.089
853.26	85.987
853.43	70.909
853.60	97.423
853.77	123.404
853.94	66.667
854.11	98.291
854.28	90.426
854.45	81.818
854.62	95.302
854.79	76.154
854.96	106.522
855.13	90.000
855.30	106.736
855.47	104.828
855.64	91.892
855.81	86.508
855.98	90.667
856.15	71.034
856.32	83.568
856.49	102.740
856.66	85.465
856.83	78.010
857.00	115.574
857.17	133.333
857.34	89.394
857.51	95.513
857.68	127.143
857.85	81.818
858.02	135.135
858.19	84.286
858.36	68.571
858.53	88.000
858.70	57.616
858.87	126.207
859.04	116.197
859.21	72.174
859.38	107.285
859.55	162.037
859.72	119.008
859.89	142.157
860.05	96.124
860.22	110.526
860.39	101.869
860.56	120.183
860.73	89.759
860.90	100.667
861.07	93.989
861.24	105.128
861.41	102.143
861.58	104.926
861.75	106.481
861.92	85.827
862.09	104.217
862.26	135.106
862.43	98.496
862.59	63.590
862.76	63.946
862.93	108.696
863.10	91.724
863.27	87.027
863.44	77.632
863.61	87.059
863.78	100.000
863.95	113.740
864.12	89.583
864.29	82.946
864.45	124.658
864.62	81.955
864.79	74.324
864.96	111.111
865.13	101.527
865.30	114.545
865.47	112.963
865.64	82.500
865.81	74.074
865.97	77.049
866.14	69.524
866.31	78.049
866.48	115.504
866.65	97.000
866.82	104.027
866.99	185.437
867.16	138.571
867.33	100.000
867.49	109.489
867.66	89.320
867.83	57.600
868.00	102.837
868.17	108.333
868.34	117.123
868.51	78.169
868.67	117.355
868.84	96.599
869.01	118.898
869.18	82.946
869.35	137.778
869.52	65.753
869.69	77.099
869.85	85.027
870.02	123.364
870.19	121.849
870.36	87.755
870.53	82.955
870.70	69.767
870.86	86.164
871.03	129.412
871.20	66.225
871.37	96.172
871.54	43.448
871.71	90.123
871.87	73.973
872.04	82.581
872.21	112.903
872.38	90.184
872.55	95.070
872.72	61.395
872.88	82.249
873.05	63.736
873.22	80.357
873.39	104.268
873.56	70.520
873.72	129.851
873.89	92.754
874.06	108.553
874.23	131.356
874.40	79.021
874.56	112.264
874.73	111.413
874.90	88.136
875.07	89.583
875.24	68.208
875.40	89.677
875.57	84.483
875.74	89.333
875.91	114.050
876.08	90.152
876.24	92.208
876.41	84.302
876.58	78.882
876.75	76.786
876.92	115.929
877.08	79.464
877.25	93.671
877.42	105.185
877.59	110.490
877.75	105.369
877.92	104.800
878.09	113.534
878.26	92.208
878.42	94.928
878.59	120.588
878.76	96.795
878.93	83.041
879.09	103.191
879.26	70.270
879.43	108.235
879.60	83.951
879.76	82.353
879.93	77.215
880.10	74.074
880.27	44.495
880.43	77.561
880.60	63.470
880.77	63.636
880.94	48.000
881.10	45.635
881.27	30.133
881.44	36.490
881.61	34.498
881.77	32.143
881.94	17.766
882.11	24.138
882.28	21.944
882.44	23.077
882.61	25.152
882.78	20.293
882.94	22.693
883.11	22.584
883.28	20.084
883.45	21.855
883.61	19.162
883.78	18.230
883.95	24.870
884.11	24.694
884.28	23.278
>>>>>End Processed Spectral Data<<<<<
