SpectraSuite Data File
++++++++++++++++++++++++++++++++++++
Date: Fri Sep 20 03:18:21 EST 2019
User: sgrac
Dark Spectrum Present: Yes
Reference Spectrum Present: Yes
Number of Sampled Component Spectra: 1
Spectrometers: USB4E01596
Integration Time (usec): 100000 (USB4E01596)
Spectra Averaged: 1 (USB4E01596)
Boxcar Smoothing: 0 (USB4E01596)
Correct for Electrical Dark: No (USB4E01596)
Strobe/Lamp Enabled: Yes (USB4E01596)
Correct for Detector Non-linearity: No (USB4E01596)
Correct for Stray Light: No (USB4E01596)
Number of Pixels in Processed Spectrum: 3648
>>>>>Begin Processed Spectral Data<<<<<
178.44	530.435
178.66	530.435
178.87	530.435
179.09	-370.000
179.30	233.333
179.52	492.857
179.74	3220.000
179.95	-448.571
180.17	-568.750
180.38	-725.000
180.60	-490.323
180.82	617.391
181.03	-2225.000
181.25	-1430.000
181.46	-1045.455
181.68	0.000
181.89	11400.000
182.11	1800.000
182.33	1184.615
182.54	-374.286
182.76	284.000
182.97	459.259
183.19	1588.889
183.40	-993.750
183.62	1092.857
183.84	-245.000
184.05	0.000
184.27	14200.000
184.48	700.000
184.70	5600.000
184.91	1030.769
185.13	427.273
185.34	342.593
185.56	-666.667
185.78	721.053
185.99	-7450.000
186.21	471.429
186.42	700.000
186.64	180.597
186.85	246.914
187.07	658.333
187.28	-327.027
187.50	-550.000
187.72	239.063
187.93	15600.000
188.15	722.727
188.36	223.077
188.58	664.706
188.79	7500.000
189.01	402.941
189.22	1083.333
189.44	312.766
189.65	-730.000
189.87	657.143
190.09	380.556
190.30	-2880.000
190.52	414.634
190.73	529.630
190.95	-1069.231
191.16	-841.667
191.38	-486.957
191.59	1566.667
191.81	402.500
192.02	375.000
192.24	257.143
192.45	485.714
192.67	668.182
192.88	0.000
193.10	388.235
193.31	-1040.000
193.53	356.818
193.74	307.895
193.96	1930.000
194.18	286.957
194.39	240.000
194.61	516.667
194.82	468.966
195.04	1191.667
195.25	268.085
195.47	915.789
195.68	-1180.000
195.90	3525.000
196.11	3275.000
196.33	-381.481
196.54	610.345
196.76	271.111
196.97	877.778
197.19	-566.667
197.40	433.333
197.62	-721.429
197.83	993.333
198.05	378.947
198.26	681.818
198.48	1475.000
198.69	440.000
198.91	1900.000
199.12	357.500
199.34	286.154
199.55	-1063.636
199.77	760.000
199.98	2340.000
200.20	1345.455
200.41	515.152
200.63	-2620.000
200.84	460.976
201.06	-12500.000
201.27	823.529
201.49	301.639
201.70	852.941
201.91	962.500
202.13	720.000
202.34	3675.000
202.56	1742.857
202.77	-2250.000
202.99	1026.667
203.20	628.571
203.42	-389.286
203.63	490.323
203.85	-620.833
204.06	3066.667
204.28	-2200.000
204.49	2185.714
204.71	220.833
204.92	1500.000
205.14	0.000
205.35	900.000
205.56	489.286
205.78	523.077
205.99	362.162
206.21	510.345
206.42	2366.667
206.64	-378.049
206.85	866.667
207.07	800.000
207.28	463.333
207.50	-1250.000
207.71	432.558
207.93	7700.000
208.14	-291.892
208.35	520.690
208.57	-856.250
208.78	489.655
209.00	284.211
209.21	0.000
209.43	569.565
209.64	383.721
209.86	1942.857
210.07	963.636
210.28	478.571
210.50	3080.000
210.71	361.538
210.93	384.211
211.14	303.279
211.36	385.714
211.57	2112.500
211.78	-563.636
212.00	530.769
212.21	-657.895
212.43	506.452
212.64	314.286
212.86	467.857
213.07	521.429
213.29	256.579
213.50	-335.294
213.71	-10600.000
213.93	-1577.778
214.14	773.333
214.36	-2314.286
214.57	217.442
214.78	348.571
215.00	-4933.333
215.21	-1566.667
215.43	-390.909
215.64	768.750
215.86	-3275.000
216.07	657.143
216.28	266.129
216.50	365.957
216.71	-2680.000
216.93	1114.286
217.14	419.444
217.35	257.895
217.57	-740.000
217.78	1463.636
218.00	350.000
218.21	237.705
218.42	300.000
218.64	331.111
218.85	324.138
219.07	322.000
219.28	728.571
219.49	-1118.182
219.71	457.143
219.92	2133.333
220.14	5366.667
220.35	4000.000
220.56	860.000
220.78	242.857
220.99	2550.000
221.21	443.243
221.42	433.333
221.63	450.000
221.85	9000.000
222.06	448.276
222.28	780.000
222.49	10200.000
222.70	-3533.333
222.92	323.214
223.13	169.565
223.34	260.000
223.56	289.189
223.77	875.000
223.99	196.154
224.20	153.153
224.41	374.419
224.63	341.176
224.84	440.000
225.05	239.583
225.27	296.296
225.48	241.772
225.69	281.818
225.91	190.909
226.12	304.839
226.34	202.899
226.55	206.250
226.76	180.597
226.98	160.526
227.19	390.000
227.40	142.857
227.62	152.703
227.83	193.684
228.04	214.815
228.26	79.630
228.47	95.833
228.69	68.681
228.90	73.596
229.11	55.172
229.33	53.689
229.54	70.204
229.75	58.935
229.97	39.865
230.18	38.043
230.39	45.000
230.61	43.789
230.82	43.464
231.03	35.770
231.25	47.965
231.46	48.254
231.67	52.432
231.89	59.559
232.10	58.015
232.31	53.023
232.53	77.220
232.74	50.820
232.95	64.322
233.17	52.381
233.38	52.315
233.59	78.235
233.81	77.434
234.02	52.217
234.23	74.731
234.45	83.444
234.66	56.931
234.87	96.512
235.09	54.222
235.30	64.516
235.51	74.138
235.73	57.812
235.94	62.724
236.15	59.701
236.36	62.447
236.58	58.996
236.79	56.757
237.00	61.446
237.22	70.690
237.43	69.259
237.64	87.727
237.86	76.961
238.07	51.394
238.28	52.778
238.50	50.413
238.71	47.872
238.92	62.132
239.13	50.893
239.35	62.673
239.56	32.420
239.77	81.423
239.99	60.938
240.20	68.705
240.41	46.708
240.63	41.231
240.84	39.308
241.05	40.171
241.26	43.314
241.48	39.043
241.69	27.540
241.90	40.000
242.12	26.358
242.33	29.848
242.54	22.504
242.75	24.474
242.97	24.929
243.18	16.348
243.39	16.408
243.61	22.042
243.82	17.718
244.03	14.578
244.24	14.269
244.46	13.738
244.67	22.933
244.88	22.526
245.09	22.504
245.31	20.695
245.52	21.259
245.73	30.000
245.95	35.393
246.16	25.528
246.37	21.477
246.58	21.352
246.80	24.414
247.01	14.779
247.22	11.591
247.43	15.245
247.65	13.208
247.86	11.061
248.07	10.900
248.28	10.386
248.50	10.566
248.71	11.768
248.92	6.584
249.13	9.147
249.35	10.317
249.56	12.698
249.77	16.124
249.98	15.588
250.20	18.554
250.41	15.521
250.62	16.739
250.83	16.279
251.05	19.868
251.26	16.797
251.47	23.153
251.68	18.278
251.90	24.922
252.11	25.123
252.32	20.226
252.53	27.019
252.75	14.229
252.96	20.051
253.17	15.473
253.38	21.378
253.59	17.473
253.81	19.749
254.02	16.845
254.23	19.095
254.44	18.043
254.66	16.011
254.87	18.051
255.08	31.369
255.29	28.905
255.50	23.626
255.72	29.860
255.93	31.095
256.14	26.596
256.35	29.398
256.57	26.838
256.78	30.248
256.99	21.277
257.20	28.660
257.41	30.476
257.63	23.810
257.84	25.408
258.05	26.878
258.26	21.562
258.47	25.851
258.69	21.775
258.90	14.917
259.11	11.465
259.32	21.807
259.53	13.065
259.75	15.952
259.96	13.030
260.17	11.487
260.38	9.091
260.59	8.960
260.81	8.333
261.02	8.645
261.23	5.485
261.44	8.619
261.65	8.503
261.87	7.998
262.08	9.552
262.29	11.278
262.50	10.365
262.71	8.523
262.92	13.116
263.14	11.026
263.35	14.485
263.56	15.871
263.77	12.791
263.98	16.487
264.20	15.112
264.41	19.403
264.62	17.546
264.83	17.667
265.04	22.941
265.25	19.178
265.47	21.317
265.68	20.226
265.89	19.409
266.10	16.603
266.31	17.483
266.52	12.078
266.74	8.722
266.95	18.804
267.16	16.397
267.37	10.426
267.58	16.871
267.79	14.545
268.01	10.329
268.22	12.206
268.43	13.729
268.64	11.360
268.85	19.195
269.06	16.232
269.27	13.744
269.49	10.460
269.70	16.155
269.91	13.486
270.12	11.326
270.33	14.521
270.54	10.932
270.75	11.602
270.97	13.223
271.18	14.741
271.39	14.369
271.60	12.417
271.81	9.470
272.02	11.458
272.23	9.224
272.45	8.506
272.66	11.607
272.87	12.578
273.08	8.644
273.29	8.846
273.50	8.610
273.71	10.184
273.92	6.454
274.14	12.343
274.35	11.140
274.56	11.290
274.77	13.724
274.98	10.610
275.19	9.217
275.40	12.632
275.61	10.085
275.83	14.959
276.04	10.126
276.25	13.529
276.46	12.522
276.67	12.965
276.88	10.302
277.09	16.556
277.30	12.572
277.51	14.751
277.73	12.584
277.94	11.381
278.15	9.434
278.36	13.823
278.57	10.786
278.78	7.024
278.99	10.739
279.20	13.612
279.41	14.226
279.62	14.613
279.84	13.316
280.05	13.198
280.26	13.565
280.47	13.146
280.68	10.646
280.89	13.629
281.10	13.584
281.31	10.313
281.52	12.903
281.73	10.625
281.94	6.461
282.16	15.203
282.37	13.738
282.58	10.480
282.79	9.494
283.00	11.781
283.21	6.774
283.42	9.553
283.63	9.216
283.84	11.870
284.05	8.263
284.26	9.908
284.47	11.126
284.68	10.858
284.89	8.393
285.11	9.728
285.32	11.933
285.53	8.436
285.74	10.309
285.95	7.631
286.16	6.754
286.37	8.240
286.58	6.972
286.79	6.787
287.00	6.225
287.21	9.353
287.42	5.658
287.63	6.872
287.84	8.064
288.05	8.581
288.26	8.482
288.48	10.329
288.69	7.255
288.90	8.789
289.11	12.262
289.32	8.302
289.53	8.276
289.74	10.671
289.95	10.911
290.16	10.817
290.37	8.140
290.58	8.301
290.79	7.692
291.00	8.607
291.21	8.964
291.42	6.844
291.63	8.433
291.84	7.003
292.05	8.466
292.26	6.104
292.47	7.607
292.68	6.974
292.89	8.412
293.10	9.063
293.31	6.188
293.52	8.615
293.73	8.631
293.94	7.718
294.15	8.088
294.36	10.013
294.57	9.349
294.79	8.095
295.00	9.571
295.21	9.467
295.42	7.634
295.63	11.687
295.84	7.422
296.05	10.529
296.26	6.942
296.47	7.448
296.68	6.133
296.89	8.659
297.10	9.032
297.31	6.396
297.52	5.337
297.73	5.710
297.94	6.012
298.15	6.747
298.36	5.072
298.57	5.050
298.78	7.101
298.99	5.366
299.20	4.713
299.41	6.535
299.62	6.536
299.83	7.310
300.04	5.297
300.25	9.194
300.46	7.628
300.67	8.696
300.88	6.854
301.09	5.544
301.30	9.034
301.50	8.360
301.71	8.394
301.92	10.773
302.13	7.529
302.34	7.995
302.55	7.933
302.76	7.433
302.97	7.597
303.18	9.364
303.39	7.272
303.60	8.373
303.81	9.740
304.02	8.086
304.23	9.296
304.44	6.124
304.65	6.306
304.86	10.122
305.07	7.962
305.28	9.616
305.49	9.785
305.70	9.366
305.91	7.504
306.12	7.835
306.33	5.219
306.54	8.143
306.75	10.097
306.96	11.397
307.17	7.089
307.38	10.612
307.58	7.823
307.79	13.258
308.00	8.870
308.21	6.604
308.42	6.527
308.63	7.281
308.84	9.250
309.05	7.874
309.26	6.884
309.47	10.666
309.68	7.472
309.89	9.887
310.10	5.797
310.31	9.411
310.52	4.599
310.73	6.814
310.94	8.006
311.14	3.533
311.35	5.699
311.56	5.503
311.77	6.193
311.98	5.466
312.19	5.439
312.40	5.191
312.61	7.417
312.82	7.326
313.03	9.022
313.24	11.260
313.45	5.176
313.66	7.249
313.86	6.562
314.07	8.142
314.28	5.749
314.49	7.991
314.70	7.270
314.91	10.164
315.12	6.730
315.33	10.854
315.54	6.152
315.75	8.181
315.96	7.392
316.16	7.715
316.37	7.390
316.58	8.398
316.79	9.106
317.00	10.684
317.21	6.883
317.42	5.701
317.63	10.475
317.84	6.934
318.05	6.667
318.25	10.309
318.46	7.869
318.67	8.836
318.88	8.829
319.09	7.737
319.30	9.548
319.51	8.103
319.72	10.048
319.93	11.137
320.13	9.318
320.34	8.407
320.55	9.179
320.76	11.566
320.97	4.195
321.18	8.595
321.39	7.400
321.60	8.091
321.80	11.090
322.01	8.101
322.22	7.161
322.43	7.382
322.64	10.006
322.85	7.609
323.06	8.919
323.27	7.143
323.47	9.147
323.68	11.563
323.89	5.813
324.10	9.641
324.31	9.181
324.52	8.946
324.73	8.530
324.93	8.691
325.14	8.164
325.35	7.508
325.56	7.378
325.77	7.550
325.98	7.031
326.19	10.454
326.39	5.561
326.60	7.045
326.81	7.069
327.02	8.694
327.23	5.416
327.44	8.227
327.64	7.029
327.85	7.537
328.06	7.221
328.27	10.087
328.48	8.216
328.69	5.313
328.90	5.794
329.10	6.558
329.31	9.285
329.52	8.072
329.73	7.930
329.94	6.484
330.15	7.218
330.35	10.680
330.56	8.338
330.77	7.534
330.98	8.288
331.19	6.605
331.39	6.938
331.60	8.183
331.81	5.624
332.02	8.278
332.23	9.148
332.44	7.376
332.64	8.033
332.85	8.293
333.06	7.079
333.27	9.081
333.48	7.801
333.68	7.536
333.89	6.453
334.10	7.218
334.31	8.312
334.52	6.477
334.72	7.449
334.93	8.077
335.14	7.621
335.35	9.843
335.56	7.476
335.76	4.733
335.97	6.116
336.18	6.209
336.39	6.471
336.60	7.236
336.80	8.093
337.01	4.717
337.22	7.529
337.43	8.156
337.64	7.290
337.84	7.729
338.05	8.031
338.26	9.363
338.47	8.943
338.68	7.911
338.88	7.084
339.09	6.918
339.30	8.228
339.51	6.632
339.71	7.775
339.92	7.487
340.13	7.154
340.34	6.455
340.55	6.800
340.75	8.925
340.96	5.730
341.17	6.082
341.38	5.408
341.58	7.262
341.79	2.854
342.00	6.821
342.21	4.886
342.41	6.326
342.62	8.173
342.83	3.653
343.04	5.949
343.24	6.933
343.45	7.003
343.66	7.440
343.87	5.616
344.07	7.123
344.28	7.065
344.49	8.382
344.70	6.682
344.90	5.351
345.11	5.459
345.32	6.312
345.53	6.541
345.73	4.138
345.94	8.340
346.15	7.749
346.36	6.290
346.56	6.103
346.77	4.249
346.98	6.502
347.19	6.824
347.39	5.996
347.60	7.255
347.81	6.746
348.02	4.426
348.22	6.597
348.43	6.843
348.64	3.715
348.84	5.002
349.05	5.466
349.26	7.632
349.47	6.027
349.67	6.424
349.88	8.841
350.09	6.687
350.30	5.541
350.50	7.062
350.71	6.516
350.92	6.012
351.12	6.586
351.33	6.121
351.54	6.560
351.74	6.644
351.95	5.570
352.16	6.486
352.37	6.524
352.57	7.298
352.78	6.780
352.99	4.086
353.19	6.528
353.40	6.236
353.61	7.361
353.82	6.502
354.02	4.014
354.23	6.303
354.44	7.529
354.64	5.564
354.85	6.602
355.06	5.460
355.26	5.422
355.47	4.859
355.68	5.144
355.88	4.797
356.09	4.998
356.30	6.303
356.51	6.338
356.71	5.020
356.92	5.931
357.13	4.817
357.33	6.266
357.54	5.907
357.75	5.631
357.95	7.192
358.16	5.363
358.37	5.990
358.57	4.947
358.78	5.644
358.99	5.517
359.19	3.974
359.40	5.210
359.61	5.112
359.81	7.352
360.02	5.552
360.23	5.142
360.43	5.504
360.64	3.855
360.85	5.284
361.05	4.321
361.26	3.817
361.47	4.262
361.67	4.377
361.88	3.793
362.09	3.621
362.29	3.342
362.50	2.895
362.70	3.342
362.91	5.091
363.12	4.331
363.32	3.692
363.53	3.266
363.74	3.253
363.94	3.807
364.15	4.221
364.36	5.334
364.56	4.656
364.77	5.491
364.98	5.285
365.18	5.646
365.39	6.406
365.59	4.456
365.80	3.185
366.01	5.246
366.21	4.585
366.42	4.718
366.63	5.663
366.83	5.030
367.04	3.501
367.24	6.229
367.45	5.250
367.66	3.866
367.86	4.701
368.07	4.957
368.28	4.822
368.48	4.212
368.69	4.612
368.89	6.007
369.10	4.570
369.31	5.974
369.51	4.729
369.72	6.814
369.92	6.413
370.13	4.472
370.34	4.787
370.54	2.169
370.75	5.616
370.95	5.135
371.16	5.523
371.37	5.067
371.57	3.826
371.78	4.061
371.98	5.082
372.19	5.192
372.40	4.343
372.60	4.009
372.81	5.443
373.01	3.885
373.22	3.913
373.43	4.783
373.63	3.801
373.84	5.070
374.04	4.747
374.25	5.824
374.46	3.978
374.66	5.588
374.87	5.019
375.07	3.477
375.28	4.070
375.48	5.255
375.69	4.352
375.90	4.135
376.10	3.139
376.31	4.087
376.51	5.382
376.72	3.730
376.92	4.787
377.13	5.532
377.34	4.612
377.54	3.884
377.75	5.330
377.95	4.169
378.16	5.704
378.36	5.026
378.57	4.505
378.77	3.979
378.98	4.121
379.19	4.609
379.39	4.532
379.60	4.913
379.80	4.970
380.01	4.144
380.21	4.497
380.42	4.663
380.62	4.361
380.83	4.275
381.04	3.329
381.24	4.913
381.45	3.309
381.65	3.940
381.86	4.054
382.06	5.026
382.27	4.349
382.47	3.490
382.68	5.269
382.88	4.463
383.09	4.638
383.29	4.497
383.50	5.133
383.71	5.225
383.91	3.938
384.12	4.690
384.32	5.122
384.53	4.743
384.73	4.887
384.94	3.963
385.14	4.291
385.35	3.867
385.55	3.434
385.76	3.974
385.96	3.749
386.17	3.989
386.37	4.087
386.58	3.321
386.78	5.772
386.99	4.065
387.19	4.804
387.40	4.892
387.60	6.053
387.81	3.832
388.01	4.100
388.22	4.132
388.42	5.100
388.63	5.303
388.83	5.284
389.04	3.788
389.24	4.935
389.45	5.240
389.65	4.111
389.86	5.326
390.06	5.055
390.27	4.154
390.47	4.199
390.68	3.882
390.88	5.972
391.09	5.234
391.29	6.053
391.50	4.945
391.70	5.719
391.91	5.064
392.11	4.844
392.32	5.633
392.52	5.058
392.73	4.749
392.93	4.977
393.14	5.311
393.34	6.084
393.55	6.836
393.75	6.688
393.95	5.264
394.16	5.552
394.36	7.921
394.57	6.700
394.77	5.936
394.98	4.959
395.18	5.661
395.39	6.403
395.59	5.816
395.80	6.514
396.00	5.919
396.21	8.033
396.41	5.967
396.61	7.117
396.82	7.908
397.02	9.927
397.23	7.059
397.43	7.809
397.64	6.018
397.84	9.774
398.05	5.612
398.25	7.806
398.45	6.144
398.66	8.315
398.86	7.738
399.07	9.339
399.27	7.543
399.48	8.982
399.68	6.524
399.89	6.971
400.09	8.470
400.29	7.296
400.50	7.388
400.70	9.577
400.91	6.931
401.11	8.113
401.32	9.265
401.52	6.465
401.72	7.900
401.93	10.353
402.13	9.038
402.34	9.043
402.54	7.216
402.75	10.843
402.95	6.238
403.15	10.134
403.36	7.957
403.56	9.520
403.77	7.777
403.97	9.173
404.17	8.363
404.38	9.009
404.58	6.707
404.79	9.345
404.99	8.522
405.19	8.353
405.40	8.279
405.60	9.558
405.81	9.355
406.01	9.934
406.21	9.375
406.42	9.747
406.62	9.637
406.83	10.121
407.03	9.972
407.23	7.677
407.44	8.424
407.64	10.733
407.85	8.870
408.05	9.724
408.25	8.944
408.46	11.235
408.66	9.219
408.87	9.737
409.07	8.699
409.27	9.266
409.48	9.141
409.68	9.373
409.88	7.087
410.09	10.285
410.29	9.354
410.50	11.688
410.70	7.782
410.90	9.918
411.11	8.060
411.31	9.321
411.51	9.038
411.72	10.138
411.92	8.332
412.12	8.677
412.33	7.821
412.53	8.900
412.74	6.762
412.94	8.682
413.14	8.561
413.35	8.998
413.55	9.896
413.75	10.682
413.96	8.357
414.16	9.870
414.36	8.724
414.57	10.119
414.77	7.342
414.97	10.494
415.18	8.164
415.38	9.178
415.58	9.253
415.79	9.005
415.99	9.060
416.19	9.603
416.40	9.135
416.60	8.844
416.80	9.124
417.01	9.731
417.21	7.957
417.41	11.024
417.62	9.791
417.82	10.436
418.02	7.648
418.23	10.991
418.43	10.424
418.63	10.833
418.84	11.108
419.04	9.628
419.24	10.473
419.45	10.717
419.65	10.488
419.85	10.767
420.06	10.936
420.26	10.767
420.46	9.874
420.67	10.943
420.87	10.212
421.07	11.576
421.28	10.896
421.48	11.587
421.68	10.973
421.88	11.210
422.09	11.724
422.29	11.700
422.49	10.175
422.70	10.755
422.90	10.845
423.10	11.319
423.31	11.095
423.51	11.542
423.71	10.756
423.91	11.521
424.12	10.892
424.32	11.266
424.52	11.225
424.73	10.653
424.93	10.864
425.13	10.470
425.33	10.473
425.54	11.378
425.74	10.730
425.94	11.637
426.15	10.943
426.35	11.619
426.55	11.146
426.75	11.645
426.96	10.632
427.16	11.288
427.36	10.913
427.57	11.998
427.77	10.713
427.97	11.539
428.17	11.078
428.38	11.729
428.58	9.145
428.78	10.689
428.98	8.922
429.19	10.529
429.39	7.887
429.59	10.755
429.79	8.356
430.00	9.455
430.20	7.769
430.40	9.607
430.60	8.950
430.81	10.272
431.01	9.446
431.21	10.525
431.41	7.952
431.62	10.471
431.82	9.440
432.02	10.843
432.22	9.548
432.43	9.500
432.63	8.404
432.83	9.201
433.03	9.435
433.24	10.219
433.44	9.484
433.64	11.662
433.84	9.542
434.05	11.071
434.25	10.773
434.45	12.220
434.65	11.249
434.85	12.034
435.06	11.609
435.26	11.752
435.46	10.674
435.66	11.859
435.87	10.886
436.07	11.364
436.27	11.613
436.47	10.868
436.67	9.608
436.88	12.084
437.08	11.259
437.28	10.634
437.48	10.303
437.69	12.558
437.89	11.471
438.09	12.302
438.29	10.571
438.49	11.782
438.70	11.385
438.90	10.935
439.10	10.660
439.30	12.011
439.50	10.285
439.71	12.031
439.91	11.283
440.11	12.550
440.31	11.665
440.51	12.315
440.72	11.688
440.92	11.548
441.12	11.865
441.32	13.141
441.52	12.728
441.72	13.153
441.93	12.053
442.13	13.250
442.33	11.999
442.53	13.459
442.73	12.328
442.94	12.946
443.14	12.020
443.34	12.987
443.54	12.800
443.74	13.490
443.94	12.533
444.15	13.215
444.35	12.366
444.55	12.892
444.75	12.976
444.95	12.776
445.15	12.407
445.36	13.196
445.56	12.200
445.76	13.076
445.96	12.413
446.16	12.292
446.36	12.173
446.57	13.080
446.77	11.955
446.97	12.992
447.17	13.011
447.37	12.985
447.57	13.278
447.77	13.061
447.98	13.252
448.18	13.182
448.38	13.165
448.58	13.756
448.78	13.593
448.98	13.798
449.18	13.447
449.39	13.741
449.59	13.275
449.79	13.991
449.99	13.639
450.19	14.374
450.39	13.427
450.59	13.597
450.79	14.035
451.00	14.575
451.20	15.140
451.40	14.005
451.60	12.795
451.80	13.857
452.00	12.626
452.20	13.436
452.40	13.794
452.61	13.453
452.81	13.592
453.01	13.594
453.21	12.548
453.41	14.109
453.61	12.532
453.81	13.426
454.01	13.784
454.21	14.003
454.42	14.332
454.62	13.208
454.82	13.940
455.02	13.662
455.22	14.190
455.42	13.843
455.62	12.488
455.82	13.402
456.02	14.110
456.23	13.691
456.43	13.506
456.63	14.503
456.83	13.628
457.03	13.504
457.23	13.355
457.43	14.486
457.63	13.531
457.83	13.878
458.03	13.355
458.23	13.844
458.43	12.907
458.64	13.726
458.84	13.747
459.04	13.898
459.24	13.307
459.44	13.748
459.64	13.168
459.84	14.177
460.04	13.338
460.24	14.063
460.44	13.907
460.64	14.184
460.84	14.129
461.04	14.237
461.24	14.442
461.45	14.539
461.65	13.936
461.85	14.945
462.05	14.948
462.25	15.083
462.45	15.310
462.65	15.350
462.85	14.525
463.05	15.093
463.25	13.804
463.45	15.018
463.65	14.897
463.85	14.722
464.05	14.233
464.25	14.525
464.45	14.971
464.65	15.799
464.85	14.013
465.05	14.590
465.26	14.970
465.46	15.371
465.66	15.666
465.86	15.053
466.06	14.102
466.26	15.033
466.46	13.326
466.66	15.161
466.86	14.544
467.06	15.358
467.26	15.112
467.46	15.283
467.66	15.100
467.86	15.282
468.06	14.958
468.26	14.983
468.46	14.466
468.66	14.558
468.86	14.215
469.06	16.579
469.26	14.540
469.46	15.672
469.66	14.879
469.86	15.871
470.06	14.382
470.26	16.187
470.46	14.748
470.66	16.408
470.86	15.297
471.06	16.865
471.26	14.564
471.46	15.150
471.66	15.954
471.86	15.960
472.06	16.125
472.26	16.161
472.46	15.872
472.66	16.948
472.86	15.752
473.06	16.000
473.26	15.989
473.46	15.955
473.66	16.027
473.86	16.412
474.06	15.374
474.26	16.123
474.46	16.073
474.66	16.331
474.86	16.427
475.06	16.790
475.26	15.037
475.46	16.915
475.66	15.333
475.86	16.776
476.06	15.935
476.26	16.663
476.46	15.212
476.66	16.879
476.86	15.868
477.06	16.483
477.26	16.240
477.46	16.567
477.65	16.078
477.85	16.551
478.05	15.448
478.25	16.851
478.45	16.970
478.65	17.847
478.85	16.129
479.05	17.076
479.25	17.155
479.45	17.040
479.65	16.624
479.85	16.647
480.05	17.024
480.25	17.338
480.45	16.670
480.65	17.530
480.85	17.342
481.05	16.659
481.25	16.685
481.44	17.129
481.64	16.344
481.84	17.188
482.04	16.507
482.24	16.842
482.44	16.819
482.64	16.123
482.84	16.159
483.04	15.939
483.24	15.770
483.44	15.472
483.64	15.115
483.84	14.690
484.04	15.321
484.23	15.370
484.43	16.036
484.63	16.988
484.83	17.631
485.03	18.295
485.23	18.431
485.43	18.167
485.63	17.960
485.83	17.475
486.03	16.912
486.23	17.485
486.42	17.419
486.62	17.085
486.82	17.431
487.02	16.368
487.22	16.431
487.42	15.831
487.62	16.024
487.82	16.320
488.02	15.815
488.22	16.174
488.41	16.411
488.61	15.976
488.81	16.233
489.01	16.289
489.21	16.895
489.41	17.015
489.61	17.397
489.81	16.815
490.01	17.715
490.20	17.556
490.40	17.315
490.60	17.509
490.80	17.429
491.00	16.805
491.20	16.343
491.40	16.359
491.60	16.062
491.79	16.265
491.99	16.375
492.19	16.529
492.39	16.183
492.59	16.412
492.79	16.765
492.99	16.567
493.19	16.772
493.38	17.021
493.58	17.572
493.78	17.519
493.98	18.268
494.18	17.628
494.38	17.591
494.58	18.084
494.77	17.937
494.97	18.272
495.17	17.264
495.37	17.229
495.57	17.275
495.77	17.521
495.96	18.234
496.16	17.847
496.36	18.253
496.56	17.155
496.76	17.594
496.96	17.191
497.15	16.900
497.35	17.501
497.55	17.392
497.75	17.343
497.95	17.381
498.15	17.878
498.34	17.834
498.54	17.291
498.74	17.607
498.94	17.615
499.14	17.376
499.34	18.153
499.53	17.662
499.73	17.851
499.93	17.731
500.13	17.428
500.33	17.881
500.52	17.827
500.72	17.713
500.92	18.137
501.12	18.445
501.32	17.296
501.52	17.851
501.71	17.890
501.91	17.973
502.11	18.648
502.31	18.233
502.51	18.176
502.70	17.217
502.90	17.826
503.10	18.160
503.30	18.567
503.50	18.182
503.69	17.609
503.89	17.961
504.09	18.025
504.29	17.849
504.48	18.239
504.68	18.674
504.88	18.321
505.08	17.882
505.28	18.715
505.47	18.264
505.67	17.897
505.87	17.971
506.07	18.347
506.27	18.921
506.46	18.088
506.66	18.449
506.86	18.430
507.06	19.096
507.25	18.412
507.45	19.261
507.65	18.093
507.85	18.011
508.04	19.016
508.24	18.413
508.44	18.636
508.64	17.843
508.83	17.876
509.03	18.065
509.23	18.365
509.43	17.991
509.63	17.870
509.82	18.288
510.02	18.575
510.22	18.286
510.42	18.433
510.61	19.190
510.81	18.543
511.01	17.933
511.21	18.550
511.40	18.396
511.60	18.084
511.80	18.927
511.99	18.149
512.19	18.925
512.39	18.234
512.59	18.258
512.78	18.928
512.98	18.199
513.18	18.294
513.38	18.685
513.57	18.868
513.77	18.127
513.97	18.954
514.17	19.284
514.36	19.121
514.56	18.925
514.76	18.961
514.95	18.631
515.15	19.114
515.35	19.601
515.55	18.849
515.74	19.377
515.94	18.789
516.14	18.791
516.33	19.019
516.53	18.366
516.73	18.987
516.93	18.071
517.12	18.498
517.32	18.695
517.52	18.461
517.71	19.253
517.91	18.473
518.11	18.594
518.30	18.659
518.50	17.561
518.70	17.961
518.90	18.089
519.09	17.962
519.29	18.322
519.49	17.747
519.68	18.265
519.88	18.581
520.08	18.572
520.27	18.856
520.47	18.989
520.67	18.141
520.86	19.478
521.06	18.861
521.26	18.994
521.45	18.640
521.65	19.366
521.85	18.792
522.04	19.492
522.24	18.630
522.44	18.472
522.63	18.934
522.83	18.645
523.03	19.039
523.22	18.342
523.42	18.419
523.62	18.877
523.81	19.024
524.01	19.072
524.21	18.950
524.40	18.455
524.60	18.613
524.80	18.798
524.99	18.341
525.19	18.586
525.39	18.158
525.58	18.500
525.78	17.494
525.98	18.406
526.17	18.201
526.37	17.965
526.57	18.140
526.76	17.751
526.96	18.040
527.15	17.980
527.35	18.274
527.55	18.476
527.74	17.947
527.94	17.806
528.14	17.614
528.33	17.290
528.53	17.007
528.72	17.358
528.92	17.334
529.12	17.879
529.31	17.448
529.51	18.035
529.71	17.953
529.90	18.456
530.10	18.727
530.29	18.888
530.49	18.997
530.69	19.389
530.88	19.263
531.08	19.282
531.28	18.591
531.47	19.051
531.67	18.887
531.86	18.873
532.06	18.538
532.26	18.470
532.45	18.914
532.65	18.310
532.84	17.784
533.04	17.756
533.24	17.417
533.43	17.801
533.63	17.332
533.82	18.516
534.02	18.104
534.22	18.386
534.41	18.529
534.61	19.018
534.80	18.397
535.00	18.515
535.19	19.235
535.39	19.728
535.59	18.991
535.78	18.876
535.98	18.467
536.17	18.468
536.37	18.270
536.57	18.469
536.76	18.298
536.96	18.628
537.15	18.367
537.35	18.476
537.54	18.269
537.74	18.760
537.93	18.565
538.13	19.172
538.33	18.927
538.52	19.157
538.72	19.431
538.91	19.944
539.11	19.467
539.30	19.362
539.50	19.310
539.70	19.384
539.89	18.588
540.09	19.170
540.28	18.751
540.48	18.288
540.67	18.295
540.87	18.400
541.06	17.526
541.26	17.928
541.45	18.044
541.65	18.392
541.85	17.875
542.04	18.605
542.24	18.746
542.43	18.661
542.63	18.292
542.82	18.926
543.02	18.886
543.21	19.950
543.41	19.280
543.60	19.566
543.80	19.247
543.99	19.401
544.19	19.077
544.38	19.539
544.58	18.704
544.77	18.869
544.97	19.574
545.16	19.298
545.36	18.925
545.56	19.095
545.75	19.494
545.95	19.530
546.14	19.272
546.34	19.247
546.53	19.019
546.73	19.642
546.92	19.130
547.12	19.737
547.31	19.079
547.51	19.428
547.70	19.251
547.90	20.043
548.09	19.691
548.29	19.698
548.48	19.667
548.68	20.118
548.87	20.265
549.07	20.663
549.26	19.926
549.46	19.932
549.65	19.708
549.84	20.125
550.04	20.061
550.23	20.507
550.43	20.480
550.62	19.791
550.82	20.456
551.01	19.510
551.21	20.503
551.40	20.026
551.60	19.402
551.79	19.578
551.99	20.054
552.18	20.560
552.38	20.483
552.57	20.138
552.77	19.849
552.96	19.758
553.16	19.754
553.35	20.356
553.54	20.392
553.74	20.027
553.93	20.538
554.13	21.089
554.32	21.608
554.52	20.941
554.71	20.224
554.91	20.938
555.10	20.761
555.29	20.949
555.49	20.856
555.68	20.501
555.88	20.120
556.07	20.375
556.27	20.831
556.46	20.384
556.66	21.558
556.85	21.432
557.04	21.583
557.24	20.819
557.43	21.520
557.63	21.341
557.82	21.615
558.02	21.529
558.21	21.661
558.40	20.530
558.60	21.581
558.79	20.766
558.99	20.840
559.18	21.177
559.38	22.008
559.57	21.550
559.76	21.774
559.96	22.091
560.15	21.986
560.35	21.257
560.54	22.004
560.73	21.061
560.93	21.633
561.12	22.648
561.32	21.319
561.51	22.115
561.70	22.448
561.90	22.371
562.09	22.709
562.29	21.872
562.48	22.947
562.67	22.476
562.87	22.820
563.06	22.105
563.26	22.046
563.45	22.280
563.64	21.609
563.84	21.580
564.03	22.933
564.23	21.133
564.42	22.310
564.61	21.583
564.81	22.650
565.00	23.097
565.20	21.654
565.39	21.958
565.58	21.894
565.78	22.847
565.97	22.926
566.16	22.754
566.36	22.206
566.55	22.389
566.74	23.303
566.94	22.396
567.13	23.131
567.33	23.467
567.52	22.783
567.71	23.500
567.91	23.454
568.10	23.011
568.29	24.005
568.49	23.226
568.68	23.315
568.87	23.379
569.07	23.367
569.26	23.478
569.45	24.333
569.65	23.581
569.84	23.645
570.04	23.579
570.23	23.427
570.42	23.284
570.62	24.141
570.81	23.086
571.00	23.505
571.20	23.634
571.39	23.597
571.58	23.646
571.78	23.728
571.97	23.004
572.16	23.645
572.36	23.103
572.55	23.089
572.74	23.919
572.94	23.327
573.13	23.387
573.32	23.879
573.51	23.525
573.71	23.879
573.90	23.858
574.09	24.649
574.29	23.955
574.48	23.508
574.67	24.115
574.87	24.158
575.06	24.761
575.25	24.680
575.45	24.665
575.64	23.547
575.83	23.961
576.03	25.316
576.22	24.345
576.41	24.459
576.60	23.881
576.80	24.975
576.99	24.397
577.18	24.672
577.38	24.544
577.57	23.868
577.76	24.531
577.95	24.373
578.15	24.299
578.34	24.339
578.53	23.690
578.73	23.972
578.92	24.203
579.11	24.533
579.30	23.478
579.50	24.814
579.69	25.327
579.88	24.523
580.08	23.829
580.27	25.402
580.46	25.166
580.65	24.272
580.85	25.050
581.04	24.893
581.23	23.887
581.42	24.612
581.62	24.343
581.81	24.385
582.00	24.613
582.19	23.428
582.39	24.867
582.58	24.756
582.77	23.125
582.96	25.131
583.16	24.965
583.35	24.020
583.54	24.710
583.73	25.800
583.93	24.658
584.12	24.599
584.31	24.835
584.50	24.802
584.70	25.531
584.89	25.056
585.08	23.776
585.27	24.115
585.47	23.797
585.66	24.827
585.85	24.312
586.04	24.452
586.24	25.924
586.43	23.079
586.62	23.932
586.81	24.743
587.00	22.945
587.20	24.062
587.39	23.699
587.58	25.593
587.77	24.397
587.97	24.640
588.16	24.635
588.35	24.547
588.54	25.028
588.73	24.012
588.93	23.518
589.12	24.092
589.31	24.273
589.50	24.602
589.69	24.930
589.89	22.916
590.08	24.131
590.27	24.034
590.46	25.115
590.65	23.959
590.85	22.946
591.04	24.985
591.23	25.126
591.42	24.646
591.61	24.313
591.81	26.112
592.00	24.755
592.19	24.614
592.38	24.593
592.57	25.326
592.77	25.076
592.96	24.205
593.15	26.602
593.34	25.345
593.53	25.075
593.72	24.157
593.92	24.779
594.11	25.075
594.30	24.238
594.49	24.181
594.68	25.418
594.87	25.388
595.07	25.314
595.26	24.828
595.45	24.598
595.64	25.015
595.83	25.246
596.02	25.636
596.22	23.882
596.41	24.479
596.60	24.202
596.79	25.457
596.98	24.553
597.17	24.656
597.37	24.959
597.56	26.066
597.75	25.381
597.94	25.027
598.13	25.266
598.32	25.732
598.51	24.403
598.71	26.109
598.90	25.072
599.09	24.761
599.28	25.737
599.47	25.523
599.66	24.295
599.85	25.795
600.05	24.928
600.24	26.274
600.43	24.481
600.62	25.467
600.81	25.017
601.00	25.710
601.19	25.022
601.38	25.778
601.58	24.978
601.77	25.538
601.96	25.521
602.15	25.482
602.34	24.325
602.53	25.709
602.72	26.286
602.91	24.507
603.10	25.620
603.30	25.530
603.49	25.470
603.68	25.380
603.87	25.280
604.06	25.651
604.25	24.987
604.44	25.642
604.63	25.601
604.82	25.430
605.01	25.212
605.21	25.859
605.40	25.336
605.59	25.343
605.78	25.241
605.97	25.605
606.16	25.751
606.35	25.838
606.54	26.534
606.73	26.835
606.92	26.755
607.11	26.498
607.30	25.756
607.50	26.422
607.69	25.915
607.88	25.224
608.07	25.303
608.26	24.958
608.45	26.853
608.64	24.279
608.83	24.395
609.02	25.453
609.21	25.909
609.40	24.767
609.59	26.178
609.78	26.645
609.97	25.174
610.16	25.882
610.35	24.831
610.55	25.666
610.74	25.034
610.93	25.261
611.12	26.186
611.31	25.103
611.50	26.376
611.69	25.349
611.88	24.882
612.07	26.513
612.26	25.451
612.45	26.190
612.64	25.364
612.83	25.133
613.02	24.730
613.21	25.167
613.40	25.230
613.59	26.444
613.78	25.378
613.97	25.724
614.16	24.110
614.35	26.092
614.54	25.592
614.73	24.734
614.92	25.946
615.11	25.172
615.30	25.223
615.49	26.369
615.68	25.680
615.87	26.115
616.07	23.912
616.26	24.552
616.45	24.660
616.64	26.354
616.83	25.189
617.02	24.025
617.21	23.043
617.40	24.733
617.59	24.259
617.78	24.959
617.97	23.880
618.16	25.091
618.35	22.712
618.54	25.851
618.73	24.394
618.92	25.471
619.11	24.138
619.30	24.484
619.49	24.498
619.68	25.097
619.86	24.364
620.05	24.893
620.24	23.954
620.43	25.352
620.62	23.507
620.81	24.799
621.00	23.922
621.19	25.468
621.38	23.988
621.57	26.095
621.76	24.790
621.95	25.010
622.14	23.654
622.33	24.938
622.52	23.470
622.71	24.784
622.90	22.842
623.09	23.204
623.28	23.070
623.47	25.073
623.66	24.525
623.85	24.936
624.04	24.119
624.23	25.657
624.42	23.796
624.61	24.232
624.80	23.528
624.99	25.307
625.18	22.573
625.36	25.977
625.55	22.995
625.74	25.340
625.93	23.612
626.12	24.496
626.31	25.377
626.50	24.622
626.69	23.836
626.88	25.224
627.07	24.796
627.26	25.200
627.45	24.295
627.64	24.284
627.83	24.835
628.02	24.480
628.20	25.950
628.39	24.800
628.58	24.842
628.77	25.025
628.96	23.880
629.15	23.483
629.34	23.920
629.53	24.752
629.72	23.557
629.91	24.794
630.10	23.854
630.29	23.495
630.47	23.678
630.66	23.944
630.85	22.640
631.04	23.529
631.23	24.176
631.42	23.354
631.61	23.657
631.80	24.478
631.99	22.863
632.18	23.398
632.36	22.931
632.55	24.867
632.74	22.995
632.93	23.877
633.12	23.499
633.31	24.291
633.50	23.407
633.69	23.915
633.88	22.473
634.06	23.947
634.25	22.344
634.44	23.338
634.63	23.707
634.82	23.838
635.01	22.699
635.20	22.636
635.39	24.090
635.57	23.782
635.76	21.533
635.95	22.931
636.14	21.886
636.33	24.195
636.52	22.840
636.71	24.115
636.89	23.361
637.08	24.363
637.27	22.566
637.46	25.286
637.65	22.503
637.84	23.533
638.03	23.418
638.21	24.734
638.40	23.767
638.59	22.888
638.78	21.926
638.97	24.375
639.16	24.080
639.34	23.902
639.53	20.802
639.72	23.962
639.91	21.450
640.10	22.745
640.29	23.692
640.47	24.705
640.66	23.037
640.85	25.568
641.04	20.440
641.23	23.576
641.42	22.763
641.60	24.209
641.79	22.930
641.98	23.256
642.17	21.729
642.36	22.655
642.54	21.821
642.73	24.878
642.92	21.914
643.11	22.632
643.30	19.580
643.49	23.397
643.67	20.991
643.86	23.156
644.05	20.359
644.24	22.982
644.43	20.491
644.61	23.606
644.80	22.030
644.99	21.972
645.18	21.542
645.37	21.642
645.55	21.261
645.74	23.844
645.93	22.509
646.12	22.876
646.31	22.313
646.49	22.022
646.68	22.653
646.87	22.959
647.06	21.068
647.24	24.005
647.43	19.776
647.62	24.093
647.81	19.595
648.00	22.861
648.18	19.642
648.37	21.581
648.56	22.440
648.75	22.719
648.93	21.627
649.12	21.978
649.31	22.671
649.50	23.216
649.68	20.907
649.87	22.093
650.06	22.143
650.25	22.661
650.43	21.167
650.62	21.485
650.81	20.026
651.00	22.830
651.18	21.330
651.37	23.351
651.56	22.319
651.75	22.757
651.93	20.809
652.12	23.754
652.31	20.005
652.50	22.365
652.68	22.762
652.87	23.688
653.06	22.881
653.25	21.839
653.43	20.741
653.62	23.518
653.81	21.319
654.00	23.979
654.18	20.221
654.37	23.206
654.56	20.594
654.74	19.730
654.93	20.235
655.12	21.786
655.31	20.743
655.49	23.215
655.68	19.349
655.87	19.346
656.05	18.914
656.24	19.864
656.43	18.177
656.62	21.521
656.80	20.455
656.99	21.152
657.18	17.398
657.36	20.677
657.55	20.329
657.74	21.605
657.93	21.399
658.11	22.021
658.30	21.904
658.49	20.558
658.67	20.504
658.86	19.990
659.05	19.268
659.23	21.626
659.42	20.370
659.61	22.239
659.79	19.425
659.98	19.566
660.17	20.181
660.35	22.434
660.54	21.644
660.73	22.194
660.91	20.308
661.10	21.476
661.29	18.234
661.47	19.893
661.66	18.915
661.85	19.911
662.03	18.836
662.22	19.000
662.41	15.987
662.59	19.030
662.78	16.757
662.97	17.780
663.15	17.294
663.34	17.917
663.53	15.979
663.71	17.917
663.90	15.711
664.09	18.295
664.27	16.848
664.46	17.412
664.65	16.100
664.83	16.388
665.02	14.979
665.21	16.351
665.39	13.773
665.58	17.052
665.77	14.929
665.95	17.092
666.14	14.768
666.32	15.314
666.51	14.424
666.70	13.860
666.88	13.923
667.07	14.028
667.26	12.804
667.44	16.206
667.63	15.212
667.81	14.703
668.00	15.859
668.19	17.180
668.37	14.204
668.56	16.186
668.75	12.791
668.93	17.551
669.12	12.296
669.30	16.509
669.49	11.896
669.68	15.825
669.86	15.172
670.05	15.128
670.23	13.565
670.42	16.114
670.61	13.860
670.79	15.955
670.98	13.392
671.16	15.948
671.35	13.338
671.54	15.857
671.72	12.577
671.91	16.361
672.09	13.982
672.28	15.558
672.46	18.032
672.65	16.452
672.84	14.424
673.02	15.010
673.21	12.594
673.39	15.202
673.58	14.586
673.77	15.657
673.95	13.361
674.14	16.087
674.32	14.301
674.51	17.316
674.69	12.440
674.88	14.432
675.07	14.137
675.25	18.103
675.44	12.333
675.62	15.708
675.81	13.030
675.99	23.134
676.18	16.290
676.36	14.930
676.55	13.716
676.74	15.819
676.92	16.232
677.11	13.530
677.29	12.364
677.48	18.033
677.66	16.316
677.85	16.059
678.03	16.747
678.22	17.147
678.40	14.099
678.59	14.676
678.78	13.988
678.96	15.763
679.15	15.753
679.33	18.063
679.52	17.352
679.70	16.998
679.89	17.129
680.07	18.050
680.26	15.826
680.44	18.289
680.63	17.836
680.81	18.362
681.00	15.359
681.18	18.052
681.37	17.446
681.55	19.515
681.74	17.999
681.92	19.088
682.11	19.436
682.29	17.978
682.48	16.233
682.66	19.881
682.85	18.624
683.03	20.322
683.22	19.169
683.40	21.792
683.59	18.750
683.77	18.480
683.96	18.350
684.14	20.520
684.33	14.449
684.51	22.233
684.70	20.385
684.88	22.895
685.07	18.650
685.25	22.002
685.44	18.217
685.62	20.079
685.81	18.773
685.99	21.692
686.18	18.256
686.36	21.541
686.55	17.840
686.73	22.145
686.92	22.627
687.10	21.902
687.29	21.442
687.47	22.262
687.65	22.922
687.84	22.806
688.02	25.935
688.21	24.761
688.39	19.124
688.58	25.789
688.76	22.444
688.95	24.956
689.13	19.857
689.32	27.683
689.50	24.458
689.68	26.003
689.87	23.632
690.05	23.916
690.24	24.109
690.42	28.372
690.61	25.249
690.79	27.354
690.98	25.979
691.16	28.371
691.34	23.167
691.53	28.353
691.71	23.912
691.90	26.102
692.08	23.845
692.27	27.670
692.45	27.931
692.63	28.643
692.82	28.710
693.00	28.270
693.19	23.432
693.37	28.140
693.56	27.780
693.74	30.836
693.92	25.222
694.11	27.534
694.29	28.763
694.48	29.962
694.66	28.510
694.84	32.888
695.03	26.565
695.21	31.835
695.40	32.568
695.58	31.356
695.76	28.848
695.95	31.474
696.13	29.005
696.32	30.543
696.50	33.806
696.68	32.786
696.87	27.181
697.05	32.880
697.24	32.891
697.42	33.726
697.60	27.644
697.79	33.668
697.97	32.556
698.16	33.021
698.34	31.767
698.52	33.743
698.71	31.527
698.89	32.340
699.07	34.048
699.26	34.056
699.44	33.721
699.63	34.675
699.81	34.211
699.99	37.420
700.18	34.668
700.36	35.520
700.54	33.674
700.73	35.619
700.91	33.432
701.09	35.490
701.28	34.147
701.46	34.208
701.64	33.581
701.83	35.861
702.01	32.396
702.20	38.438
702.38	31.906
702.56	35.249
702.75	32.892
702.93	36.086
703.11	36.372
703.30	37.054
703.48	35.089
703.66	38.246
703.85	33.553
704.03	38.029
704.21	34.388
704.40	38.323
704.58	33.789
704.76	37.218
704.95	33.960
705.13	35.963
705.31	33.234
705.50	36.310
705.68	34.965
705.86	40.844
706.04	33.448
706.23	39.192
706.41	36.421
706.59	35.103
706.78	34.855
706.96	37.675
707.14	35.746
707.33	37.071
707.51	38.119
707.69	39.467
707.88	38.293
708.06	37.421
708.24	36.870
708.42	38.166
708.61	36.017
708.79	38.404
708.97	38.817
709.16	38.585
709.34	40.960
709.52	39.178
709.71	38.864
709.89	36.450
710.07	36.006
710.25	37.094
710.44	33.395
710.62	38.475
710.80	39.765
710.98	39.739
711.17	40.321
711.35	38.024
711.53	36.792
711.72	40.053
711.90	40.805
712.08	38.947
712.26	37.047
712.45	37.401
712.63	36.835
712.81	41.531
712.99	37.037
713.18	40.981
713.36	38.354
713.54	37.545
713.72	35.714
713.91	37.569
714.09	35.239
714.27	39.663
714.45	38.011
714.64	40.839
714.82	36.916
715.00	38.779
715.18	39.044
715.37	40.631
715.55	38.510
715.73	39.547
715.91	39.628
716.10	38.418
716.28	34.146
716.46	40.159
716.64	41.940
716.83	39.912
717.01	37.551
717.19	39.820
717.37	36.890
717.55	37.897
717.74	35.559
717.92	37.848
718.10	35.509
718.28	38.182
718.47	40.617
718.65	41.536
718.83	39.790
719.01	38.826
719.19	37.333
719.38	37.132
719.56	37.626
719.74	37.888
719.92	30.903
720.10	37.708
720.29	36.464
720.47	39.138
720.65	37.814
720.83	39.123
721.01	37.186
721.20	39.707
721.38	36.152
721.56	40.012
721.74	36.658
721.92	37.875
722.11	37.564
722.29	39.467
722.47	38.320
722.65	39.303
722.83	39.319
723.01	39.975
723.20	38.493
723.38	36.500
723.56	36.950
723.74	38.269
723.92	40.039
724.10	39.195
724.29	33.649
724.47	42.530
724.65	37.806
724.83	41.319
725.01	36.131
725.19	41.688
725.38	35.567
725.56	40.738
725.74	40.390
725.92	43.358
726.10	36.654
726.28	40.789
726.46	38.790
726.65	38.538
726.83	37.865
727.01	38.936
727.19	38.340
727.37	40.805
727.55	39.811
727.73	38.628
727.92	36.883
728.10	39.464
728.28	34.012
728.46	40.152
728.64	38.859
728.82	39.512
729.00	39.510
729.19	42.047
729.37	38.547
729.55	39.054
729.73	40.389
729.91	39.112
730.09	42.078
730.27	42.582
730.45	39.606
730.63	40.355
730.82	32.830
731.00	45.396
731.18	40.427
731.36	38.232
731.54	37.493
731.72	44.902
731.90	40.720
732.08	43.637
732.26	38.552
732.45	43.158
732.63	39.324
732.81	43.262
732.99	37.093
733.17	41.065
733.35	40.570
733.53	41.238
733.71	41.781
733.89	43.346
734.07	43.908
734.25	44.133
734.44	40.520
734.62	40.303
734.80	40.355
734.98	46.126
735.16	39.016
735.34	43.329
735.52	41.774
735.70	41.302
735.88	41.253
736.06	41.886
736.24	42.761
736.42	46.718
736.60	45.745
736.78	46.484
736.97	39.931
737.15	44.202
737.33	43.348
737.51	45.500
737.69	46.858
737.87	43.593
738.05	40.926
738.23	41.961
738.41	42.980
738.59	43.230
738.77	42.558
738.95	45.885
739.13	42.638
739.31	38.701
739.49	41.300
739.67	46.996
739.85	43.513
740.03	41.959
740.21	44.972
740.39	48.909
740.57	42.632
740.75	42.124
740.93	40.824
741.11	43.787
741.30	46.508
741.48	48.058
741.66	45.804
741.84	42.537
742.02	42.317
742.20	47.344
742.38	40.690
742.56	50.076
742.74	44.565
742.92	47.344
743.10	41.654
743.28	43.409
743.46	45.164
743.64	48.858
743.82	43.277
744.00	45.586
744.18	49.099
744.36	47.581
744.54	46.032
744.72	47.154
744.90	45.480
745.08	44.931
745.26	44.037
745.44	45.995
745.62	44.950
745.80	45.906
745.98	47.513
746.16	46.295
746.34	44.818
746.52	49.229
746.70	38.899
746.87	47.641
747.05	45.245
747.23	50.573
747.41	46.276
747.59	45.525
747.77	41.707
747.95	46.584
748.13	45.264
748.31	48.433
748.49	46.912
748.67	46.743
748.85	47.242
749.03	47.491
749.21	42.664
749.39	47.222
749.57	41.439
749.75	47.532
749.93	44.482
750.11	44.425
750.29	44.201
750.47	48.751
750.65	41.224
750.83	49.724
751.01	38.948
751.18	45.975
751.36	47.536
751.54	49.360
751.72	50.139
751.90	41.028
752.08	46.206
752.26	42.820
752.44	43.889
752.62	46.335
752.80	45.107
752.98	49.353
753.16	44.374
753.34	47.075
753.52	46.839
753.69	45.772
753.87	43.429
754.05	42.737
754.23	49.355
754.41	47.540
754.59	42.073
754.77	43.118
754.95	44.192
755.13	43.196
755.31	47.009
755.49	44.701
755.66	39.523
755.84	45.038
756.02	43.216
756.20	47.028
756.38	40.472
756.56	44.641
756.74	47.104
756.92	47.103
757.10	44.286
757.28	47.666
757.45	54.521
757.63	51.858
757.81	45.150
757.99	49.131
758.17	45.674
758.35	44.701
758.53	44.487
758.71	53.044
758.88	43.371
759.06	44.856
759.24	43.070
759.42	42.684
759.60	42.041
759.78	41.537
759.96	34.812
760.13	38.012
760.31	33.481
760.49	36.686
760.67	26.689
760.85	36.441
761.03	27.739
761.21	26.779
761.38	28.668
761.56	32.320
761.74	25.086
761.92	31.225
762.10	30.416
762.28	35.912
762.46	24.853
762.63	27.205
762.81	29.314
762.99	29.570
763.17	28.750
763.35	28.520
763.53	24.745
763.70	32.156
763.88	31.953
764.06	34.195
764.24	29.449
764.42	35.156
764.60	36.408
764.77	34.485
764.95	30.922
765.13	36.604
765.31	36.729
765.49	36.503
765.66	35.531
765.84	35.221
766.02	35.348
766.20	37.271
766.38	36.877
766.56	41.087
766.73	34.123
766.91	42.720
767.09	40.494
767.27	37.880
767.45	40.402
767.62	42.820
767.80	44.094
767.98	46.098
768.16	40.276
768.33	45.553
768.51	39.314
768.69	44.073
768.87	38.910
769.05	44.020
769.22	44.167
769.40	48.825
769.58	42.902
769.76	47.896
769.94	43.066
770.11	42.981
770.29	47.141
770.47	44.121
770.65	52.249
770.82	45.634
771.00	49.245
771.18	47.357
771.36	43.359
771.53	47.701
771.71	49.093
771.89	54.823
772.07	42.466
772.25	48.829
772.42	44.104
772.60	49.709
772.78	46.683
772.96	51.208
773.13	50.994
773.31	48.521
773.49	46.543
773.67	45.144
773.84	44.010
774.02	54.465
774.20	42.190
774.37	45.576
774.55	52.284
774.73	55.802
774.91	43.888
775.08	51.220
775.26	43.579
775.44	49.277
775.62	49.178
775.79	50.660
775.97	46.622
776.15	47.878
776.32	46.040
776.50	54.655
776.68	61.721
776.86	50.375
777.03	42.282
777.21	51.941
777.39	47.661
777.56	49.723
777.74	47.931
777.92	46.492
778.10	47.592
778.27	47.233
778.45	51.012
778.63	52.361
778.80	46.036
778.98	53.869
779.16	56.140
779.34	49.231
779.51	43.843
779.69	49.231
779.87	48.548
780.04	45.368
780.22	54.779
780.40	50.940
780.57	54.430
780.75	49.455
780.93	49.672
781.10	43.072
781.28	55.601
781.46	41.724
781.63	49.339
781.81	50.436
781.99	47.889
782.16	48.246
782.34	40.888
782.52	49.300
782.69	49.372
782.87	51.271
783.05	44.143
783.22	52.063
783.40	47.833
783.58	55.306
783.75	54.257
783.93	52.405
784.11	47.480
784.28	47.956
784.46	41.628
784.64	52.126
784.81	49.359
784.99	51.501
785.17	55.574
785.34	50.658
785.52	42.927
785.69	49.300
785.87	47.218
786.05	51.966
786.22	45.354
786.40	57.730
786.58	59.873
786.75	50.639
786.93	37.500
787.11	47.833
787.28	43.131
787.46	51.140
787.63	57.094
787.81	51.598
787.99	50.000
788.16	46.086
788.34	40.031
788.51	45.214
788.69	43.510
788.87	47.570
789.04	39.916
789.22	47.460
789.39	45.953
789.57	44.531
789.75	42.050
789.92	49.391
790.10	39.059
790.27	53.475
790.45	46.515
790.63	47.415
790.80	39.941
790.98	51.884
791.15	46.386
791.33	46.730
791.51	47.076
791.68	52.932
791.86	48.675
792.03	54.500
792.21	45.424
792.39	52.997
792.56	48.730
792.74	43.634
792.91	54.011
793.09	40.232
793.26	62.500
793.44	43.053
793.62	49.365
793.79	51.555
793.97	48.609
794.14	50.172
794.32	52.809
794.49	51.845
794.67	45.863
794.84	36.907
795.02	55.366
795.20	49.265
795.37	48.074
795.55	47.699
795.72	44.346
795.90	50.921
796.07	52.241
796.25	46.488
796.42	44.696
796.60	46.945
796.77	48.093
796.95	51.037
797.13	37.217
797.30	52.579
797.48	38.427
797.65	43.829
797.83	47.478
798.00	43.689
798.18	39.875
798.35	48.997
798.53	44.667
798.70	49.924
798.88	44.649
799.05	45.171
799.23	46.584
799.40	44.586
799.58	46.907
799.75	53.268
799.93	38.488
800.10	56.679
800.28	51.357
800.45	51.526
800.63	34.532
800.80	51.163
800.98	46.840
801.15	47.257
801.33	45.855
801.50	50.432
801.68	49.711
801.85	43.568
802.03	46.477
802.20	51.685
802.38	41.696
802.55	51.154
802.73	49.565
802.90	53.432
803.08	39.858
803.25	53.846
803.43	49.462
803.60	56.639
803.78	47.458
803.95	56.911
804.13	53.979
804.30	48.330
804.48	51.163
804.65	36.417
804.83	44.857
805.00	45.345
805.17	46.214
805.35	44.886
805.52	43.595
805.70	46.604
805.87	51.941
806.05	49.040
806.22	40.706
806.40	43.545
806.57	41.760
806.75	51.376
806.92	47.719
807.09	50.854
807.27	44.541
807.44	56.870
807.62	50.965
807.79	45.179
807.97	47.247
808.14	50.200
808.31	42.387
808.49	49.710
808.66	46.435
808.84	40.698
809.01	51.168
809.19	53.909
809.36	61.711
809.53	49.802
809.71	50.579
809.88	58.537
810.06	57.283
810.23	53.400
810.41	49.585
810.58	55.603
810.75	42.060
810.93	52.663
811.10	39.579
811.28	54.362
811.45	46.122
811.62	57.079
811.80	47.660
811.97	55.411
812.15	52.663
812.32	49.784
812.49	48.802
812.67	49.149
812.84	46.154
813.02	56.726
813.19	42.438
813.36	48.807
813.54	47.566
813.71	53.182
813.89	55.947
814.06	53.175
814.23	46.789
814.41	45.154
814.58	44.471
814.75	59.705
814.93	56.429
815.10	49.487
815.28	53.676
815.45	43.103
815.62	49.161
815.80	45.727
815.97	48.033
816.14	44.397
816.32	38.631
816.49	44.737
816.66	45.000
816.84	42.670
817.01	51.627
817.18	38.228
817.36	38.673
817.53	59.453
817.71	34.989
817.88	41.818
818.05	44.966
818.23	46.429
818.40	49.057
818.57	49.786
818.75	47.564
818.92	51.509
819.09	45.669
819.27	34.314
819.44	45.924
819.61	42.804
819.79	39.095
819.96	46.139
820.13	40.933
820.31	38.087
820.48	41.401
820.65	47.386
820.82	34.747
821.00	36.642
821.17	34.907
821.34	35.193
821.52	28.589
821.69	29.602
821.86	31.624
822.04	34.463
822.21	30.991
822.38	35.453
822.56	29.079
822.73	36.063
822.90	32.776
823.07	36.605
823.25	31.509
823.42	31.808
823.59	30.736
823.77	33.280
823.94	31.849
824.11	36.003
824.29	31.966
824.46	36.506
824.63	35.100
824.80	33.931
824.98	31.308
825.15	32.359
825.32	27.182
825.49	34.832
825.67	29.687
825.84	36.981
826.01	28.301
826.19	34.836
826.36	30.150
826.53	29.919
826.70	32.143
826.88	36.472
827.05	28.358
827.22	30.377
827.39	28.605
827.57	31.583
827.74	27.968
827.91	34.602
828.08	29.702
828.26	32.087
828.43	27.682
828.60	34.341
828.77	29.895
828.95	30.702
829.12	28.302
829.29	25.995
829.46	31.523
829.64	32.679
829.81	28.409
829.98	36.055
830.15	35.904
830.32	31.904
830.50	31.776
830.67	41.774
830.84	38.209
831.01	36.050
831.19	32.343
831.36	42.276
831.53	43.651
831.70	52.207
831.87	43.802
832.05	46.931
832.22	43.722
832.39	43.261
832.56	33.588
832.74	41.071
832.91	44.937
833.08	49.393
833.25	32.513
833.42	39.033
833.60	31.863
833.77	23.366
833.94	29.755
834.11	35.515
834.28	26.533
834.45	33.412
834.63	28.093
834.80	30.679
834.97	27.614
835.14	36.354
835.31	31.300
835.49	29.763
835.66	25.617
835.83	30.140
836.00	27.212
836.17	34.426
836.34	29.567
836.52	30.263
836.69	36.547
836.86	34.063
837.03	41.653
837.20	34.936
837.37	42.413
837.55	38.938
837.72	42.004
837.89	43.766
838.06	44.952
838.23	50.957
838.40	44.444
838.58	53.867
838.75	48.433
838.92	52.069
839.09	55.556
839.26	55.348
839.43	52.738
839.60	68.896
839.78	71.914
839.95	50.489
840.12	55.380
840.29	76.752
840.46	61.888
840.63	56.471
840.80	48.267
840.98	67.429
841.15	41.500
841.32	47.307
841.49	50.435
841.66	58.470
841.83	45.600
842.00	53.165
842.17	59.452
842.34	51.576
842.52	59.880
842.69	61.321
842.86	64.014
843.03	83.648
843.20	79.184
843.37	73.776
843.54	67.073
843.71	64.082
843.88	81.457
844.06	80.972
844.23	104.348
844.40	85.985
844.57	68.511
844.74	78.166
844.91	95.370
845.08	74.510
845.25	68.613
845.42	69.347
845.59	97.076
845.76	80.909
845.94	129.747
846.11	80.597
846.28	91.724
846.45	88.344
846.62	79.459
846.79	103.333
846.96	82.353
847.13	108.235
847.30	89.899
847.47	96.703
847.64	69.186
847.81	96.154
847.98	102.703
848.15	83.333
848.32	92.784
848.50	103.727
848.67	119.444
848.84	108.081
849.01	91.837
849.18	83.684
849.35	100.524
849.52	115.029
849.69	89.595
849.86	104.908
850.03	104.110
850.20	93.056
850.37	90.000
850.54	122.013
850.71	136.585
850.88	88.112
851.05	108.904
851.22	116.149
851.39	102.577
851.56	93.750
851.73	118.333
851.90	106.875
852.07	110.000
852.24	139.706
852.41	111.679
852.58	73.485
852.75	99.408
852.92	102.717
853.09	100.559
853.26	100.000
853.43	81.818
853.60	101.546
853.77	93.617
853.94	87.121
854.11	137.607
854.28	100.532
854.45	87.413
854.62	101.342
854.79	87.692
854.96	132.609
855.13	105.556
855.30	100.518
855.47	116.552
855.64	151.351
855.81	121.429
855.98	112.667
856.15	101.379
856.32	75.587
856.49	94.064
856.66	115.116
856.83	94.241
857.00	142.623
857.17	124.167
857.34	97.727
857.51	115.385
857.68	119.286
857.85	107.879
858.02	206.757
858.19	107.857
858.36	110.286
858.53	105.143
858.70	92.715
858.87	163.448
859.04	126.761
859.21	83.043
859.38	84.106
859.55	160.185
859.72	95.041
859.89	181.373
860.05	96.899
860.22	127.632
860.39	128.037
860.56	175.229
860.73	80.723
860.90	104.667
861.07	95.082
861.24	135.897
861.41	108.571
861.58	97.537
861.75	141.667
861.92	115.748
862.09	96.386
862.26	148.936
862.43	100.000
862.59	87.179
862.76	88.435
862.93	136.025
863.10	88.276
863.27	98.919
863.44	82.895
863.61	120.000
863.78	131.690
863.95	119.084
864.12	103.472
864.29	115.504
864.45	124.658
864.62	109.774
864.79	97.973
864.96	106.349
865.13	124.427
865.30	135.455
865.47	157.407
865.64	97.500
865.81	88.272
865.97	73.224
866.14	96.190
866.31	104.065
866.48	126.357
866.65	127.000
866.82	111.409
866.99	161.165
867.16	178.571
867.33	100.000
867.49	137.226
867.66	112.621
867.83	119.200
868.00	102.837
868.17	91.667
868.34	128.082
868.51	106.338
868.67	127.273
868.84	121.769
869.01	151.969
869.18	124.031
869.35	182.222
869.52	97.260
869.69	93.893
869.85	86.096
870.02	118.692
870.19	160.504
870.36	97.959
870.53	85.227
870.70	97.093
870.86	84.906
871.03	173.109
871.20	112.583
871.37	86.603
871.54	85.517
871.71	111.111
871.87	101.370
872.04	125.161
872.21	177.419
872.38	88.957
872.55	137.324
872.72	99.070
872.88	94.083
873.05	94.505
873.22	95.833
873.39	96.951
873.56	94.798
873.72	138.060
873.89	120.290
874.06	119.079
874.23	134.746
874.40	104.196
874.56	150.000
874.73	103.804
874.90	84.746
875.07	125.694
875.24	53.757
875.40	83.226
875.57	118.391
875.74	92.000
875.91	120.661
876.08	111.364
876.24	120.779
876.41	94.186
876.58	90.683
876.75	95.833
876.92	126.549
877.08	130.357
877.25	97.468
877.42	111.852
877.59	100.699
877.75	112.752
877.92	111.200
878.09	91.729
878.26	120.130
878.42	107.971
878.59	116.912
878.76	91.026
878.93	94.152
879.09	87.234
879.26	85.946
879.43	115.882
879.60	86.420
879.76	109.150
879.93	88.608
880.10	85.185
880.27	73.394
880.43	89.756
880.60	70.320
880.77	62.771
880.94	62.545
881.10	63.889
881.27	49.600
881.44	51.270
881.61	44.760
881.77	39.881
881.94	18.443
882.11	26.646
882.28	27.639
882.44	21.566
882.61	28.190
882.78	24.352
882.94	29.533
883.11	26.384
883.28	24.477
883.45	26.759
883.61	25.349
883.78	24.627
883.95	30.593
884.11	26.251
884.28	29.929
>>>>>End Processed Spectral Data<<<<<
