SpectraSuite Data File
++++++++++++++++++++++++++++++++++++
Date: Fri Sep 20 03:26:07 EST 2019
User: sgrac
Dark Spectrum Present: Yes
Reference Spectrum Present: Yes
Number of Sampled Component Spectra: 1
Spectrometers: USB4E01596
Integration Time (usec): 100000 (USB4E01596)
Spectra Averaged: 1 (USB4E01596)
Boxcar Smoothing: 0 (USB4E01596)
Correct for Electrical Dark: No (USB4E01596)
Strobe/Lamp Enabled: Yes (USB4E01596)
Correct for Detector Non-linearity: No (USB4E01596)
Correct for Stray Light: No (USB4E01596)
Number of Pixels in Processed Spectrum: 3648
>>>>>Begin Processed Spectral Data<<<<<
178.44	421.739
178.66	421.739
178.87	421.739
179.09	-460.000
179.30	326.667
179.52	603.571
179.74	3420.000
179.95	-454.286
180.17	-606.250
180.38	-968.750
180.60	-551.613
180.82	700.000
181.03	-2700.000
181.25	-1480.000
181.46	-1327.273
181.68	0.000
181.89	15000.000
182.11	1512.500
182.33	1215.385
182.54	-357.143
182.76	404.000
182.97	607.407
183.19	1400.000
183.40	-1031.250
183.62	1057.143
183.84	-262.500
184.05	0.000
184.27	17200.000
184.48	770.000
184.70	7150.000
184.91	938.462
185.13	434.091
185.34	331.481
185.56	-666.667
185.78	815.789
185.99	-7600.000
186.21	450.000
186.42	908.333
186.64	243.284
186.85	228.395
187.07	783.333
187.28	-327.027
187.50	-472.727
187.72	276.563
187.93	17600.000
188.15	677.273
188.36	296.154
188.58	735.294
188.79	6200.000
189.01	573.529
189.22	1350.000
189.44	365.957
189.65	-815.000
189.87	864.286
190.09	472.222
190.30	-2640.000
190.52	443.902
190.73	666.667
190.95	-1246.154
191.16	-1108.333
191.38	-586.957
191.59	1622.222
191.81	375.000
192.02	377.500
192.24	268.254
192.45	408.571
192.67	640.909
192.88	0.000
193.10	508.824
193.31	-1300.000
193.53	402.273
193.74	400.000
193.96	1810.000
194.18	298.551
194.39	288.000
194.61	633.333
194.82	551.724
195.04	1191.667
195.25	412.766
195.47	952.632
195.68	-1240.000
195.90	3775.000
196.11	3475.000
196.33	-477.778
196.54	620.690
196.76	242.222
196.97	811.111
197.19	-755.556
197.40	441.667
197.62	-871.429
197.83	886.667
198.05	423.684
198.26	618.182
198.48	1225.000
198.69	494.286
198.91	1942.857
199.12	427.500
199.34	293.846
199.55	-1236.364
199.77	610.000
199.98	2720.000
200.20	1345.455
200.41	451.515
200.63	-1800.000
200.84	443.902
201.06	-13000.000
201.27	1082.353
201.49	278.689
201.70	1064.706
201.91	1037.500
202.13	990.000
202.34	4375.000
202.56	1928.571
202.77	-2766.667
202.99	1000.000
203.20	509.524
203.42	-535.714
203.63	541.935
203.85	-462.500
204.06	4433.333
204.28	-3025.000
204.49	2171.429
204.71	304.167
204.92	1277.778
205.14	0.000
205.35	1020.000
205.56	639.286
205.78	443.590
205.99	448.649
206.21	655.172
206.42	2500.000
206.64	-358.537
206.85	1180.000
207.07	1330.769
207.28	480.000
207.50	-1625.000
207.71	400.000
207.93	5350.000
208.14	-381.081
208.35	393.103
208.57	-950.000
208.78	489.655
209.00	373.684
209.21	0.000
209.43	604.348
209.64	332.558
209.86	1728.571
210.07	1000.000
210.28	667.857
210.50	2940.000
210.71	456.410
210.93	363.158
211.14	303.279
211.36	462.857
211.57	1900.000
211.78	-463.636
212.00	580.769
212.21	-668.421
212.43	567.742
212.64	366.667
212.86	475.000
213.07	632.143
213.29	288.158
213.50	-447.059
213.71	-8400.000
213.93	-1488.889
214.14	873.333
214.36	-2557.143
214.57	238.372
214.78	422.857
215.00	-3733.333
215.21	-1883.333
215.43	-490.909
215.64	737.500
215.86	-3050.000
216.07	647.619
216.28	253.226
216.50	287.234
216.71	-3040.000
216.93	1135.714
217.14	422.222
217.35	218.421
217.57	-926.667
217.78	1363.636
218.00	443.182
218.21	242.623
218.42	346.939
218.64	340.000
218.85	305.172
219.07	298.000
219.28	561.905
219.49	-1227.273
219.71	397.619
219.92	2316.667
220.14	5900.000
220.35	4500.000
220.56	966.667
220.78	258.730
220.99	2716.667
221.21	491.892
221.42	592.593
221.63	383.333
221.85	12600.000
222.06	451.724
222.28	755.000
222.49	14700.000
222.70	-3233.333
222.92	367.857
223.13	281.159
223.34	301.818
223.56	378.378
223.77	1043.750
223.99	230.769
224.20	151.351
224.41	416.279
224.63	326.471
224.84	504.000
225.05	279.167
225.27	290.741
225.48	220.253
225.69	336.364
225.91	207.792
226.12	303.226
226.34	256.522
226.55	154.688
226.76	174.627
226.98	187.719
227.19	443.333
227.40	154.286
227.62	150.000
227.83	157.895
228.04	203.704
228.26	141.667
228.47	123.958
228.69	74.176
228.90	70.225
229.11	64.751
229.33	61.475
229.54	71.837
229.75	44.106
229.97	54.054
230.18	47.826
230.39	45.000
230.61	46.273
230.82	59.150
231.03	37.859
231.25	49.709
231.46	53.968
231.67	48.919
231.89	62.868
232.10	80.534
232.31	74.419
232.53	69.884
232.74	68.443
232.95	63.317
233.17	79.762
233.38	59.722
233.59	92.353
233.81	92.478
234.02	56.158
234.23	98.387
234.45	125.828
234.66	67.822
234.87	94.767
235.09	71.556
235.30	63.226
235.51	53.448
235.73	47.396
235.94	70.609
236.15	66.045
236.36	62.025
236.58	57.741
236.79	86.100
237.00	57.831
237.22	56.034
237.43	59.630
237.64	66.818
237.86	81.373
238.07	64.143
238.28	62.037
238.50	68.182
238.71	64.894
238.92	66.544
239.13	57.143
239.35	70.046
239.56	56.164
239.77	75.494
239.99	67.187
240.20	68.345
240.41	57.053
240.63	49.538
240.84	57.547
241.05	43.020
241.26	41.860
241.48	50.378
241.69	28.217
241.90	34.945
242.12	30.382
242.33	35.171
242.54	32.805
242.75	26.727
242.97	28.348
243.18	21.122
243.39	15.116
243.61	26.450
243.82	27.670
244.03	24.699
244.24	17.807
244.46	26.684
244.67	30.933
244.88	28.125
245.09	20.816
245.31	29.305
245.52	30.272
245.73	29.194
245.95	41.573
246.16	27.289
246.37	25.671
246.58	21.352
246.80	26.897
247.01	20.501
247.22	16.754
247.43	19.056
247.65	21.083
247.86	18.460
248.07	12.869
248.28	16.045
248.50	14.854
248.71	16.451
248.92	16.522
249.13	16.553
249.35	18.746
249.56	17.736
249.77	21.423
249.98	17.717
250.20	27.593
250.41	25.499
250.62	23.043
250.83	22.399
251.05	28.421
251.26	24.647
251.47	30.824
251.68	29.305
251.90	26.489
252.11	24.795
252.32	26.450
252.53	32.764
252.75	22.207
252.96	24.492
253.17	19.400
253.38	18.409
253.59	23.377
253.81	21.804
254.02	22.657
254.23	28.015
254.44	25.286
254.66	24.579
254.87	27.636
255.08	29.936
255.29	35.548
255.50	31.136
255.72	26.253
255.93	42.289
256.14	37.660
256.35	32.407
256.57	32.169
256.78	32.957
256.99	24.586
257.20	37.938
257.41	20.190
257.63	28.381
257.84	33.212
258.05	37.563
258.26	28.693
258.47	24.768
258.69	27.323
258.90	13.536
259.11	23.439
259.32	23.572
259.53	17.780
259.75	13.722
259.96	13.878
260.17	11.782
260.38	15.237
260.59	12.748
260.81	11.882
261.02	14.712
261.23	13.495
261.44	14.869
261.65	18.686
261.87	15.130
262.08	18.623
262.29	16.426
262.50	12.796
262.71	13.636
262.92	19.484
263.14	20.085
263.35	15.320
263.56	21.811
263.77	23.996
263.98	21.659
264.20	21.488
264.41	21.240
264.62	16.933
264.83	15.473
265.04	30.235
265.25	24.035
265.47	22.754
265.68	21.985
265.89	19.666
266.10	21.420
266.31	23.217
266.52	19.351
266.74	17.199
266.95	19.891
267.16	19.861
267.37	16.064
267.58	16.360
267.79	19.545
268.01	19.323
268.22	16.546
268.43	18.246
268.64	13.506
268.85	18.766
269.06	17.914
269.27	17.285
269.49	20.018
269.70	17.559
269.91	15.872
270.12	16.114
270.33	19.178
270.54	17.776
270.75	16.759
270.97	16.162
271.18	16.106
271.39	15.698
271.60	18.957
271.81	16.855
272.02	19.096
272.23	16.372
272.45	15.902
272.66	14.296
272.87	15.358
273.08	13.032
273.29	13.753
273.50	12.755
273.71	13.863
273.92	11.693
274.14	16.172
274.35	17.257
274.56	13.508
274.77	17.855
274.98	17.733
275.19	13.826
275.40	12.557
275.61	15.904
275.83	22.231
276.04	16.485
276.25	16.870
276.46	16.607
276.67	23.596
276.88	17.337
277.09	18.543
277.30	22.925
277.51	21.184
277.73	18.750
277.94	17.071
278.15	16.552
278.36	22.099
278.57	16.555
278.78	15.628
278.99	14.437
279.20	15.245
279.41	25.253
279.62	15.888
279.84	16.151
280.05	18.866
280.26	13.978
280.47	17.616
280.68	15.969
280.89	18.384
281.10	17.840
281.31	20.234
281.52	18.230
281.73	11.953
281.94	13.749
282.16	16.458
282.37	19.234
282.58	11.645
282.79	16.807
283.00	18.619
283.21	10.664
283.42	14.499
283.63	15.490
283.84	14.589
284.05	14.784
284.26	15.682
284.47	18.476
284.68	14.759
284.89	14.964
285.11	15.305
285.32	16.472
285.53	15.333
285.74	16.016
285.95	13.963
286.16	13.834
286.37	13.483
286.58	12.955
286.79	12.117
287.00	11.814
287.21	14.156
287.42	11.868
287.63	9.955
287.84	13.422
288.05	13.453
288.26	12.156
288.48	14.740
288.69	12.130
288.90	12.747
289.11	14.881
289.32	14.544
289.53	15.059
289.74	14.329
289.95	10.851
290.16	18.239
290.37	10.910
290.58	12.423
290.79	13.179
291.00	11.404
291.21	14.707
291.42	12.656
291.63	13.014
291.84	15.147
292.05	11.376
292.26	12.153
292.47	13.506
292.68	9.049
292.89	14.529
293.10	15.287
293.31	14.233
293.52	12.444
293.73	12.654
293.94	14.314
294.15	12.099
294.36	16.868
294.57	13.961
294.79	10.772
295.00	11.125
295.21	14.796
295.42	12.801
295.63	16.005
295.84	12.011
296.05	13.255
296.26	12.136
296.47	12.344
296.68	10.897
296.89	13.614
297.10	14.293
297.31	14.286
297.52	10.493
297.73	11.510
297.94	11.600
298.15	12.334
298.36	10.783
298.57	9.579
298.78	13.688
298.99	8.771
299.20	11.844
299.41	10.473
299.62	10.893
299.83	10.122
300.04	11.634
300.25	16.384
300.46	11.937
300.67	12.248
300.88	12.035
301.09	7.696
301.30	14.637
301.50	12.407
301.71	16.676
301.92	17.033
302.13	13.330
302.34	8.509
302.55	12.067
302.76	11.847
302.97	12.999
303.18	7.889
303.39	10.413
303.60	10.287
303.81	12.692
304.02	10.704
304.23	9.584
304.44	9.186
304.65	8.949
304.86	11.751
305.07	10.636
305.28	11.963
305.49	11.998
305.70	12.336
305.91	10.745
306.12	9.330
306.33	8.778
306.54	14.353
306.75	10.701
306.96	16.544
307.17	10.808
307.38	13.729
307.58	13.312
307.79	14.031
308.00	12.444
308.21	9.965
308.42	11.084
308.63	10.268
308.84	11.518
309.05	9.509
309.26	10.445
309.47	12.302
309.68	8.771
309.89	12.520
310.10	7.407
310.31	12.884
310.52	9.096
310.73	12.174
310.94	9.223
311.14	9.715
311.35	9.656
311.56	9.066
311.77	9.771
311.98	8.378
312.19	11.197
312.40	8.957
312.61	8.464
312.82	11.630
313.03	11.333
313.24	12.929
313.45	10.684
313.66	11.522
313.86	9.563
314.07	11.908
314.28	12.769
314.49	10.454
314.70	11.578
314.91	16.770
315.12	10.901
315.33	12.041
315.54	8.685
315.75	10.069
315.96	10.012
316.16	11.079
316.37	9.469
316.58	8.895
316.79	10.670
317.00	11.702
317.21	8.444
317.42	9.250
317.63	10.361
317.84	10.580
318.05	11.740
318.25	10.192
318.46	8.845
318.67	10.448
318.88	12.360
319.09	12.856
319.30	11.664
319.51	11.765
319.72	10.830
319.93	10.904
320.13	12.424
320.34	12.137
320.55	12.030
320.76	12.289
320.97	7.773
321.18	13.342
321.39	9.453
321.60	10.683
321.80	13.217
322.01	9.138
322.22	10.710
322.43	8.871
322.64	11.374
322.85	10.970
323.06	12.706
323.27	13.659
323.47	8.900
323.68	13.451
323.89	11.274
324.10	11.043
324.31	9.569
324.52	12.308
324.73	12.232
324.93	9.062
325.14	9.498
325.35	8.733
325.56	11.167
325.77	12.250
325.98	9.813
326.19	11.882
326.39	8.244
326.60	10.998
326.81	10.555
327.02	6.557
327.23	8.325
327.44	14.335
327.64	7.228
327.85	10.420
328.06	10.807
328.27	14.519
328.48	13.609
328.69	8.259
328.90	9.984
329.10	9.268
329.31	12.728
329.52	12.215
329.73	11.361
329.94	8.470
330.15	9.217
330.35	11.022
330.56	10.172
330.77	10.623
330.98	11.800
331.19	10.569
331.39	9.748
331.60	9.274
331.81	11.944
332.02	11.534
332.23	10.284
332.44	9.941
332.64	12.186
332.85	11.707
333.06	12.319
333.27	10.622
333.48	10.419
333.68	8.888
333.89	9.024
334.10	10.408
334.31	11.719
334.52	10.933
334.72	9.817
334.93	11.661
335.14	7.417
335.35	11.780
335.56	13.620
335.76	8.295
335.97	11.437
336.18	7.611
336.39	11.729
336.60	11.759
336.80	12.016
337.01	7.518
337.22	9.553
337.43	10.232
337.64	13.333
337.84	11.807
338.05	10.555
338.26	12.838
338.47	13.068
338.68	7.437
338.88	9.170
339.09	11.435
339.30	12.318
339.51	12.135
339.71	11.883
339.92	9.680
340.13	11.872
340.34	11.519
340.55	11.155
340.75	12.475
340.96	9.158
341.17	12.662
341.38	9.609
341.58	10.893
341.79	10.990
342.00	9.427
342.21	10.579
342.41	9.163
342.62	10.376
342.83	11.616
343.04	9.264
343.24	13.407
343.45	12.045
343.66	11.691
343.87	11.851
344.07	10.390
344.28	14.524
344.49	13.018
344.70	14.574
344.90	10.570
345.11	11.179
345.32	10.520
345.53	10.902
345.73	10.282
345.94	15.062
346.15	14.798
346.36	11.590
346.56	11.196
346.77	12.541
346.98	10.824
347.19	13.317
347.39	12.813
347.60	13.184
347.81	12.728
348.02	12.553
348.22	11.402
348.43	12.746
348.64	8.392
348.84	13.136
349.05	11.887
349.26	15.918
349.47	9.375
349.67	10.323
349.88	14.329
350.09	14.021
350.30	13.608
350.50	12.863
350.71	15.514
350.92	12.828
351.12	11.703
351.33	14.052
351.54	12.989
351.74	14.659
351.95	11.096
352.16	13.735
352.37	12.961
352.57	14.426
352.78	11.864
352.99	12.932
353.19	12.365
353.40	13.686
353.61	16.768
353.82	14.280
354.02	12.128
354.23	15.335
354.44	16.930
354.64	13.891
354.85	16.444
355.06	12.794
355.26	12.719
355.47	14.337
355.68	18.916
355.88	17.239
356.09	14.502
356.30	13.912
356.51	16.605
356.71	16.306
356.92	13.739
357.13	16.715
357.33	19.348
357.54	15.624
357.75	13.116
357.95	17.024
358.16	14.490
358.37	19.043
358.57	13.482
358.78	20.196
358.99	14.154
359.19	17.318
359.40	17.714
359.61	17.061
359.81	18.966
360.02	19.268
360.23	12.096
360.43	15.932
360.64	15.162
360.85	16.661
361.05	14.245
361.26	18.756
361.47	15.715
361.67	19.304
361.88	12.111
362.09	18.310
362.29	13.116
362.50	15.865
362.70	14.101
362.91	20.339
363.12	14.977
363.32	17.517
363.53	17.990
363.74	19.087
363.94	14.467
364.15	19.923
364.36	16.937
364.56	15.521
364.77	15.723
364.98	22.137
365.18	18.158
365.39	19.276
365.59	14.055
365.80	16.379
366.01	17.596
366.21	16.350
366.42	14.362
366.63	17.929
366.83	14.486
367.04	12.162
367.24	18.929
367.45	14.810
367.66	11.998
367.86	15.988
368.07	14.512
368.28	17.160
368.48	15.980
368.69	14.967
368.89	14.787
369.10	17.246
369.31	15.961
369.51	16.661
369.72	18.911
369.92	20.159
370.13	12.001
370.34	17.718
370.54	9.211
370.75	17.167
370.95	12.350
371.16	17.828
371.37	13.865
371.57	16.581
371.78	14.519
371.98	16.431
372.19	17.466
372.40	18.195
372.60	17.830
372.81	18.320
373.01	14.170
373.22	16.210
373.43	19.162
373.63	17.259
373.84	17.819
374.04	18.273
374.25	15.084
374.46	18.163
374.66	16.092
374.87	17.567
375.07	11.798
375.28	15.217
375.48	16.530
375.69	18.897
375.90	12.404
376.10	13.649
376.31	14.901
376.51	16.258
376.72	14.920
376.92	14.887
377.13	17.669
377.34	18.734
377.54	16.790
377.75	19.169
377.95	15.269
378.16	20.064
378.36	19.956
378.57	18.907
378.77	16.284
378.98	17.103
379.19	18.264
379.39	17.739
379.60	16.584
379.80	19.214
380.01	17.349
380.21	18.093
380.42	18.051
380.62	19.021
380.83	18.280
381.04	16.569
381.24	16.783
381.45	19.096
381.65	15.272
381.86	18.978
382.06	18.212
382.27	15.517
382.47	16.843
382.68	19.654
382.88	16.466
383.09	17.055
383.29	16.844
383.50	19.979
383.71	18.210
383.91	19.069
384.12	16.646
384.32	20.610
384.53	17.540
384.73	16.919
384.94	16.224
385.14	17.402
385.35	16.854
385.55	18.430
385.76	18.592
385.96	20.359
386.17	18.457
386.37	20.458
386.58	18.068
386.78	22.063
386.99	15.871
387.19	21.231
387.40	18.570
387.60	22.948
387.81	19.138
388.01	20.815
388.22	20.386
388.42	23.815
388.63	22.314
388.83	22.364
389.04	17.937
389.24	21.158
389.45	18.989
389.65	20.487
389.86	19.750
390.06	20.918
390.27	19.487
390.47	21.805
390.68	17.881
390.88	23.841
391.09	21.721
391.29	23.383
391.50	20.394
391.70	22.896
391.91	20.235
392.11	22.119
392.32	22.453
392.52	22.705
392.73	21.847
392.93	23.814
393.14	20.953
393.34	23.623
393.55	24.113
393.75	24.043
393.95	22.619
394.16	22.993
394.36	23.902
394.57	24.432
394.77	22.088
394.98	22.617
395.18	23.845
395.39	23.950
395.59	23.493
395.80	24.725
396.00	22.352
396.21	25.384
396.41	22.061
396.61	26.271
396.82	23.826
397.02	26.893
397.23	22.919
397.43	25.287
397.64	21.327
397.84	26.386
398.05	20.274
398.25	24.298
398.45	21.237
398.66	24.517
398.86	23.236
399.07	26.191
399.27	23.882
399.48	25.155
399.68	22.446
399.89	24.835
400.09	23.222
400.29	23.853
400.50	25.182
400.70	25.965
400.91	23.500
401.11	24.275
401.32	24.729
401.52	23.914
401.72	23.980
401.93	26.962
402.13	23.250
402.34	25.745
402.54	23.499
402.75	25.215
402.95	20.663
403.15	24.798
403.36	21.578
403.56	25.858
403.77	23.086
403.97	25.466
404.17	23.921
404.38	25.304
404.58	22.272
404.79	24.870
404.99	25.987
405.19	25.060
405.40	23.908
405.60	24.669
405.81	23.504
406.01	24.567
406.21	23.910
406.42	25.248
406.62	24.851
406.83	24.969
407.03	26.237
407.23	25.307
407.44	23.351
407.64	25.538
407.85	24.941
408.05	25.548
408.25	23.765
408.46	25.598
408.66	24.452
408.87	26.025
409.07	24.973
409.27	24.695
409.48	24.441
409.68	26.063
409.88	21.385
410.09	26.071
410.29	24.127
410.50	24.544
410.70	22.997
410.90	26.159
411.11	23.291
411.31	24.856
411.51	24.168
411.72	24.368
411.92	23.257
412.12	24.144
412.33	23.271
412.53	24.981
412.74	23.758
412.94	24.101
413.14	24.487
413.35	24.123
413.55	23.724
413.75	25.816
413.96	22.380
414.16	24.925
414.36	23.025
414.57	24.995
414.77	23.466
414.97	23.975
415.18	23.361
415.38	24.469
415.58	23.027
415.79	24.322
415.99	22.613
416.19	24.618
416.40	23.015
416.60	23.476
416.80	23.589
417.01	23.329
417.21	22.823
417.41	24.410
417.62	24.194
417.82	24.206
418.02	23.336
418.23	24.471
418.43	23.490
418.63	23.429
418.84	23.794
419.04	23.459
419.24	22.477
419.45	23.201
419.65	23.593
419.85	23.480
420.06	23.448
420.26	23.023
420.46	22.986
420.67	23.127
420.87	22.202
421.07	22.971
421.28	23.496
421.48	22.094
421.68	23.242
421.88	23.128
422.09	22.666
422.29	23.258
422.49	23.062
422.70	22.589
422.90	23.677
423.10	23.121
423.31	23.061
423.51	22.904
423.71	23.755
423.91	23.464
424.12	23.399
424.32	23.571
424.52	22.726
424.73	22.485
424.93	22.969
425.13	23.087
425.33	23.011
425.54	23.333
425.74	23.399
425.94	23.349
426.15	23.739
426.35	23.660
426.55	23.438
426.75	24.189
426.96	23.604
427.16	23.562
427.36	23.885
427.57	24.213
427.77	23.179
427.97	24.579
428.17	24.552
428.38	24.336
428.58	23.554
428.78	24.830
428.98	24.240
429.19	24.430
429.39	22.078
429.59	24.001
429.79	23.000
430.00	24.118
430.20	23.805
430.40	23.976
430.60	22.723
430.81	23.574
431.01	23.021
431.21	23.063
431.41	22.452
431.62	24.158
431.82	21.899
432.02	22.832
432.22	22.936
432.43	23.334
432.63	23.311
432.83	22.244
433.03	22.934
433.24	24.070
433.44	23.052
433.64	23.601
433.84	23.246
434.05	23.743
434.25	23.241
434.45	24.320
434.65	24.287
434.85	24.483
435.06	24.192
435.26	24.016
435.46	24.203
435.66	24.275
435.87	24.161
436.07	25.237
436.27	24.559
436.47	24.375
436.67	24.019
436.88	25.735
437.08	23.938
437.28	24.555
437.48	23.698
437.69	24.260
437.89	24.012
438.09	24.279
438.29	24.336
438.49	23.380
438.70	23.925
438.90	23.861
439.10	23.087
439.30	23.378
439.50	23.019
439.71	23.683
439.91	24.229
440.11	24.477
440.31	23.252
440.51	23.742
440.72	24.044
440.92	23.526
441.12	23.590
441.32	23.298
441.52	24.600
441.72	24.518
441.93	23.804
442.13	25.055
442.33	24.764
442.53	24.808
442.73	24.465
442.94	24.829
443.14	24.680
443.34	24.408
443.54	25.296
443.74	25.565
443.94	24.727
444.15	24.861
444.35	25.418
444.55	24.248
444.75	24.353
444.95	24.285
445.15	24.275
445.36	23.924
445.56	24.010
445.76	24.405
445.96	23.919
446.16	23.508
446.36	24.114
446.57	23.836
446.77	23.950
446.97	23.955
447.17	24.438
447.37	23.956
447.57	24.130
447.77	24.754
447.98	24.587
448.18	24.540
448.38	24.983
448.58	24.849
448.78	25.151
448.98	25.594
449.18	25.340
449.39	25.675
449.59	26.107
449.79	25.019
449.99	25.754
450.19	25.660
450.39	25.934
450.59	25.162
450.79	25.768
451.00	26.253
451.20	26.290
451.40	26.188
451.60	25.343
451.80	26.391
452.00	25.373
452.20	25.575
452.40	25.044
452.61	25.316
452.81	25.569
453.01	24.794
453.21	24.940
453.41	25.540
453.61	25.563
453.81	25.379
454.01	25.602
454.21	25.546
454.42	25.640
454.62	24.986
454.82	25.497
455.02	25.533
455.22	26.528
455.42	25.554
455.62	25.948
455.82	25.770
456.02	26.313
456.23	25.385
456.43	25.618
456.63	25.873
456.83	25.117
457.03	24.985
457.23	25.335
457.43	26.204
457.63	26.339
457.83	25.103
458.03	25.668
458.23	25.123
458.43	25.115
458.64	24.240
458.84	24.945
459.04	24.842
459.24	24.868
459.44	24.631
459.64	24.078
459.84	24.163
460.04	23.821
460.24	24.509
460.44	24.452
460.64	25.085
460.84	24.897
461.04	24.310
461.24	24.930
461.45	25.536
461.65	25.280
461.85	25.908
462.05	25.964
462.25	25.965
462.45	27.241
462.65	25.644
462.85	25.789
463.05	25.816
463.25	26.041
463.45	26.027
463.65	25.870
463.85	25.832
464.05	26.237
464.25	25.903
464.45	25.204
464.65	26.156
464.85	25.733
465.05	25.043
465.26	25.774
465.46	24.770
465.66	25.965
465.86	26.035
466.06	25.368
466.26	26.085
466.46	25.291
466.66	25.499
466.86	25.568
467.06	26.267
467.26	26.707
467.46	25.671
467.66	25.054
467.86	26.343
468.06	25.564
468.26	26.259
468.46	25.354
468.66	26.352
468.86	26.300
469.06	27.427
469.26	26.241
469.46	26.023
469.66	26.102
469.86	26.421
470.06	26.825
470.26	26.664
470.46	25.694
470.66	26.018
470.86	25.890
471.06	26.201
471.26	26.289
471.46	26.708
471.66	26.626
471.86	26.008
472.06	26.388
472.26	28.018
472.46	26.402
472.66	26.983
472.86	26.998
473.06	25.773
473.26	26.306
473.46	26.928
473.66	27.106
473.86	25.919
474.06	26.220
474.26	27.196
474.46	26.577
474.66	26.203
474.86	26.775
475.06	26.593
475.26	26.558
475.46	27.272
475.66	25.960
475.86	26.614
476.06	27.401
476.26	26.819
476.46	26.448
476.66	27.929
476.86	26.911
477.06	26.646
477.26	26.531
477.46	27.289
477.65	27.252
477.85	26.729
478.05	26.547
478.25	26.805
478.45	27.657
478.65	27.899
478.85	27.037
479.05	27.426
479.25	27.842
479.45	27.320
479.65	27.154
479.85	27.641
480.05	26.837
480.25	27.564
480.45	27.596
480.65	27.694
480.85	26.895
481.05	26.512
481.25	26.521
481.44	27.167
481.64	27.078
481.84	26.990
482.04	26.660
482.24	26.868
482.44	26.582
482.64	26.066
482.84	26.049
483.04	25.575
483.24	25.153
483.44	24.865
483.64	24.620
483.84	24.617
484.04	25.067
484.23	25.785
484.43	26.735
484.63	28.651
484.83	29.632
485.03	30.664
485.23	31.297
485.43	30.409
485.63	31.041
485.83	29.052
486.03	28.013
486.23	28.882
486.42	28.528
486.62	27.917
486.82	28.008
487.02	27.085
487.22	26.527
487.42	26.689
487.62	26.061
487.82	26.411
488.02	26.673
488.22	26.616
488.41	26.612
488.61	26.923
488.81	27.537
489.01	27.764
489.21	28.208
489.41	27.987
489.61	28.276
489.81	28.031
490.01	28.634
490.20	28.429
490.40	28.116
490.60	28.612
490.80	27.892
491.00	27.376
491.20	26.801
491.40	26.204
491.60	26.155
491.79	26.326
491.99	26.935
492.19	26.742
492.39	26.805
492.59	27.479
492.79	26.992
492.99	27.256
493.19	27.910
493.38	28.242
493.58	28.422
493.78	28.427
493.98	29.309
494.18	28.662
494.38	28.784
494.58	28.931
494.77	28.589
494.97	29.250
495.17	28.035
495.37	27.873
495.57	28.129
495.77	27.896
495.96	27.927
496.16	27.894
496.36	27.697
496.56	26.682
496.76	27.735
496.96	27.889
497.15	27.561
497.35	27.786
497.55	27.409
497.75	27.907
497.95	27.646
498.15	28.297
498.34	27.556
498.54	27.843
498.74	28.709
498.94	28.991
499.14	28.345
499.34	28.457
499.53	28.834
499.73	27.899
499.93	28.068
500.13	28.449
500.33	28.747
500.52	27.999
500.72	28.690
500.92	27.842
501.12	28.501
501.32	28.362
501.52	28.577
501.71	27.829
501.91	28.518
502.11	29.404
502.31	28.774
502.51	29.201
502.70	28.603
502.90	28.968
503.10	28.506
503.30	28.413
503.50	27.916
503.69	28.929
503.89	29.091
504.09	28.845
504.29	28.055
504.48	28.504
504.68	29.449
504.88	28.718
505.08	28.681
505.28	27.825
505.47	28.569
505.67	28.326
505.87	29.239
506.07	28.098
506.27	29.002
506.46	28.766
506.66	29.452
506.86	29.493
507.06	29.394
507.25	28.397
507.45	29.052
507.65	29.181
507.85	28.371
508.04	29.025
508.24	29.004
508.44	29.406
508.64	27.866
508.83	28.874
509.03	28.010
509.23	28.941
509.43	29.387
509.63	28.646
509.82	28.259
510.02	28.653
510.22	28.756
510.42	28.290
510.61	29.243
510.81	28.413
511.01	28.659
511.21	28.927
511.40	28.316
511.60	29.351
511.80	28.826
511.99	28.649
512.19	29.601
512.39	28.293
512.59	29.623
512.78	29.157
512.98	29.644
513.18	29.037
513.38	29.102
513.57	29.497
513.77	28.802
513.97	29.846
514.17	29.767
514.36	29.090
514.56	28.805
514.76	29.875
514.95	29.887
515.15	29.974
515.35	29.585
515.55	29.891
515.74	29.915
515.94	29.749
516.14	29.186
516.33	29.563
516.53	29.641
516.73	28.327
516.93	29.156
517.12	30.175
517.32	29.241
517.52	29.072
517.71	29.003
517.91	28.672
518.11	28.253
518.30	28.656
518.50	28.153
518.70	27.972
518.90	28.274
519.09	28.177
519.29	28.918
519.49	29.030
519.68	28.785
519.88	29.186
520.08	29.761
520.27	29.152
520.47	29.310
520.67	29.109
520.86	30.061
521.06	29.550
521.26	29.181
521.45	29.818
521.65	29.929
521.85	29.239
522.04	30.064
522.24	29.332
522.44	30.025
522.63	29.175
522.83	29.291
523.03	30.179
523.22	29.146
523.42	29.769
523.62	29.146
523.81	29.240
524.01	29.770
524.21	29.666
524.40	29.461
524.60	28.699
524.80	28.991
524.99	27.976
525.19	28.798
525.39	28.663
525.58	28.652
525.78	28.457
525.98	28.591
526.17	28.629
526.37	28.908
526.57	29.109
526.76	28.931
526.96	28.753
527.15	29.212
527.35	29.038
527.55	28.511
527.74	28.902
527.94	28.116
528.14	27.322
528.33	26.872
528.53	27.446
528.72	28.343
528.92	28.026
529.12	28.695
529.31	28.384
529.51	29.255
529.71	29.790
529.90	29.719
530.10	29.833
530.29	30.521
530.49	30.584
530.69	30.723
530.88	30.513
531.08	29.871
531.28	29.754
531.47	29.523
531.67	29.727
531.86	29.345
532.06	29.375
532.26	29.616
532.45	28.970
532.65	29.043
532.84	28.322
533.04	28.591
533.24	28.168
533.43	28.353
533.63	28.308
533.82	29.210
534.02	29.048
534.22	29.088
534.41	28.865
534.61	29.389
534.80	29.683
535.00	29.742
535.19	30.340
535.39	30.417
535.59	30.400
535.78	29.953
535.98	29.468
536.17	29.783
536.37	29.358
536.57	29.154
536.76	28.880
536.96	29.606
537.15	28.798
537.35	29.150
537.54	29.052
537.74	29.035
537.93	29.292
538.13	29.884
538.33	29.338
538.52	29.964
538.72	31.349
538.91	31.748
539.11	30.106
539.30	29.490
539.50	29.573
539.70	30.147
539.89	29.296
540.09	28.969
540.28	29.565
540.48	28.998
540.67	28.308
540.87	28.364
541.06	27.649
541.26	28.259
541.45	28.518
541.65	28.937
541.85	29.097
542.04	28.447
542.24	29.398
542.43	29.567
542.63	29.162
542.82	29.731
543.02	30.494
543.21	30.573
543.41	29.859
543.60	30.882
543.80	30.321
543.99	30.256
544.19	29.650
544.38	30.149
544.58	29.892
544.77	29.810
544.97	30.618
545.16	29.835
545.36	30.594
545.56	29.983
545.75	31.006
545.95	30.934
546.14	30.101
546.34	29.962
546.53	30.284
546.73	29.573
546.92	30.245
547.12	30.293
547.31	30.021
547.51	30.414
547.70	29.663
547.90	30.585
548.09	29.974
548.29	30.658
548.48	30.823
548.68	31.464
548.87	30.999
549.07	31.639
549.26	30.633
549.46	30.835
549.65	31.251
549.84	31.661
550.04	30.752
550.23	30.848
550.43	31.844
550.62	30.997
550.82	31.443
551.01	32.194
551.21	31.728
551.40	32.042
551.60	31.190
551.79	31.535
551.99	31.260
552.18	31.230
552.38	30.910
552.57	32.478
552.77	30.823
552.96	31.771
553.16	30.936
553.35	31.565
553.54	31.611
553.74	31.219
553.93	31.955
554.13	31.829
554.32	32.085
554.52	32.398
554.71	32.525
554.91	31.972
555.10	32.284
555.29	32.292
555.49	32.565
555.68	33.306
555.88	32.490
556.07	33.064
556.27	32.723
556.46	32.181
556.66	32.807
556.85	33.643
557.04	32.825
557.24	32.265
557.43	31.742
557.63	33.045
557.82	33.368
558.02	34.373
558.21	32.350
558.40	33.953
558.60	33.098
558.79	32.504
558.99	33.554
559.18	33.333
559.38	32.794
559.57	33.821
559.76	32.966
559.96	32.816
560.15	33.267
560.35	33.692
560.54	32.355
560.73	32.412
560.93	33.610
561.12	33.887
561.32	33.995
561.51	34.069
561.70	34.449
561.90	33.703
562.09	34.389
562.29	34.070
562.48	34.529
562.67	34.377
562.87	36.005
563.06	35.156
563.26	34.170
563.45	34.524
563.64	34.591
563.84	33.575
564.03	36.188
564.23	35.629
564.42	35.988
564.61	34.712
564.81	35.157
565.00	34.761
565.20	34.780
565.39	35.290
565.58	34.244
565.78	34.495
565.97	34.792
566.16	34.699
566.36	34.502
566.55	33.805
566.74	34.703
566.94	34.544
567.13	36.120
567.33	34.813
567.52	35.483
567.71	35.534
567.91	35.825
568.10	36.022
568.29	35.301
568.49	35.860
568.68	35.858
568.87	36.252
569.07	35.827
569.26	36.760
569.45	36.106
569.65	36.066
569.84	36.743
570.04	35.131
570.23	35.520
570.42	35.023
570.62	36.780
570.81	36.336
571.00	35.467
571.20	36.397
571.39	35.151
571.58	36.090
571.78	35.537
571.97	36.121
572.16	34.932
572.36	35.680
572.55	36.120
572.74	36.085
572.94	35.935
573.13	36.049
573.32	37.074
573.51	35.862
573.71	35.736
573.90	36.216
574.09	36.935
574.29	37.015
574.48	35.969
574.67	36.446
574.87	36.493
575.06	36.437
575.25	36.763
575.45	36.679
575.64	37.061
575.83	36.538
576.03	37.380
576.22	37.261
576.41	36.721
576.60	36.272
576.80	36.913
576.99	37.486
577.18	36.868
577.38	37.175
577.57	37.758
577.76	37.610
577.95	36.930
578.15	36.929
578.34	38.082
578.53	36.512
578.73	36.681
578.92	36.791
579.11	37.991
579.30	37.085
579.50	38.373
579.69	37.983
579.88	38.095
580.08	38.886
580.27	37.679
580.46	38.222
580.65	37.517
580.85	38.619
581.04	37.172
581.23	38.026
581.42	36.674
581.62	36.955
581.81	37.738
582.00	38.779
582.19	36.645
582.39	37.824
582.58	37.889
582.77	37.308
582.96	37.882
583.16	37.127
583.35	37.311
583.54	39.089
583.73	39.019
583.93	38.293
584.12	36.907
584.31	38.531
584.50	36.846
584.70	38.248
584.89	37.704
585.08	37.935
585.27	38.460
585.47	37.134
585.66	37.257
585.85	37.380
586.04	37.774
586.24	37.312
586.43	36.798
586.62	37.656
586.81	38.215
587.00	37.424
587.20	37.559
587.39	37.072
587.58	38.333
587.77	36.981
587.97	37.073
588.16	37.066
588.35	37.870
588.54	36.143
588.73	35.417
588.93	37.221
589.12	37.783
589.31	37.190
589.50	36.857
589.69	37.473
589.89	37.160
590.08	36.793
590.27	38.005
590.46	36.541
590.65	37.560
590.85	38.333
591.04	37.493
591.23	37.848
591.42	37.692
591.61	36.704
591.81	38.292
592.00	36.657
592.19	38.182
592.38	37.633
592.57	37.788
592.77	37.800
592.96	38.566
593.15	40.010
593.34	36.412
593.53	37.188
593.72	36.512
593.92	37.717
594.11	37.092
594.30	36.753
594.49	38.097
594.68	37.819
594.87	37.444
595.07	37.787
595.26	37.402
595.45	37.527
595.64	37.959
595.83	36.340
596.02	38.204
596.22	37.208
596.41	37.211
596.60	37.885
596.79	36.529
596.98	37.570
597.17	36.630
597.37	37.874
597.56	38.347
597.75	37.978
597.94	37.667
598.13	38.332
598.32	38.245
598.51	38.735
598.71	39.003
598.90	38.031
599.09	38.290
599.28	38.292
599.47	38.270
599.66	38.859
599.85	38.567
600.05	37.552
600.24	38.440
600.43	39.261
600.62	38.420
600.81	38.527
601.00	39.194
601.19	38.698
601.38	39.689
601.58	39.339
601.77	39.400
601.96	37.726
602.15	38.475
602.34	38.035
602.53	40.092
602.72	38.846
602.91	37.873
603.10	38.680
603.30	38.055
603.49	37.698
603.68	37.524
603.87	37.978
604.06	38.365
604.25	38.237
604.44	37.779
604.63	38.182
604.82	38.005
605.01	37.945
605.21	38.138
605.40	37.710
605.59	37.103
605.78	39.002
605.97	37.541
606.16	40.212
606.35	39.352
606.54	40.011
606.73	39.385
606.92	39.528
607.11	39.353
607.30	39.039
607.50	39.897
607.69	38.856
607.88	38.764
608.07	38.925
608.26	38.564
608.45	39.412
608.64	38.846
608.83	38.379
609.02	38.068
609.21	38.278
609.40	37.579
609.59	38.281
609.78	38.474
609.97	37.873
610.16	37.490
610.35	37.866
610.55	38.506
610.74	39.616
610.93	37.906
611.12	38.551
611.31	37.754
611.50	39.074
611.69	38.844
611.88	38.666
612.07	38.676
612.26	39.429
612.45	39.504
612.64	38.174
612.83	38.810
613.02	37.525
613.21	37.561
613.40	38.922
613.59	39.052
613.78	38.096
613.97	38.939
614.16	38.989
614.35	40.028
614.54	38.914
614.73	38.789
614.92	38.552
615.11	38.525
615.30	37.928
615.49	39.358
615.68	38.682
615.87	38.852
616.07	36.117
616.26	38.507
616.45	39.219
616.64	40.292
616.83	39.613
617.02	38.161
617.21	37.391
617.40	37.018
617.59	39.093
617.78	37.924
617.97	38.506
618.16	37.202
618.35	37.115
618.54	39.196
618.73	39.270
618.92	39.324
619.11	36.727
619.30	38.860
619.49	38.447
619.68	38.701
619.86	39.388
620.05	38.734
620.24	38.364
620.43	38.913
620.62	39.318
620.81	38.652
621.00	39.278
621.19	39.958
621.38	36.643
621.57	38.840
621.76	38.793
621.95	37.771
622.14	38.516
622.33	38.781
622.52	37.134
622.71	38.712
622.90	37.943
623.09	37.757
623.28	37.996
623.47	38.288
623.66	37.097
623.85	38.319
624.04	36.825
624.23	38.157
624.42	38.389
624.61	37.977
624.80	36.967
624.99	38.065
625.18	36.929
625.36	38.314
625.55	36.261
625.74	37.690
625.93	36.870
626.12	37.310
626.31	38.094
626.50	36.888
626.69	36.887
626.88	37.423
627.07	37.262
627.26	37.247
627.45	38.354
627.64	36.594
627.83	37.856
628.02	36.605
628.20	37.823
628.39	36.319
628.58	36.639
628.77	38.906
628.96	38.375
629.15	37.146
629.34	35.311
629.53	36.984
629.72	37.762
629.91	35.883
630.10	36.433
630.29	36.490
630.47	37.488
630.66	36.305
630.85	37.097
631.04	37.804
631.23	37.356
631.42	36.682
631.61	36.404
631.80	37.393
631.99	36.928
632.18	36.012
632.36	36.653
632.55	37.068
632.74	36.311
632.93	37.768
633.12	38.765
633.31	37.823
633.50	36.418
633.69	36.048
633.88	36.770
634.06	38.117
634.25	37.152
634.44	36.323
634.63	36.854
634.82	36.983
635.01	35.480
635.20	35.426
635.39	36.646
635.57	37.253
635.76	35.990
635.95	36.259
636.14	36.831
636.33	36.078
636.52	36.144
636.71	37.912
636.89	36.155
637.08	37.290
637.27	35.918
637.46	37.478
637.65	36.751
637.84	37.735
638.03	37.919
638.21	38.995
638.40	38.036
638.59	36.044
638.78	37.784
638.97	36.906
639.16	36.675
639.34	36.190
639.53	34.686
639.72	36.773
639.91	36.259
640.10	36.182
640.29	35.371
640.47	37.118
640.66	36.366
640.85	38.071
641.04	35.764
641.23	37.525
641.42	37.119
641.60	37.210
641.79	36.618
641.98	38.017
642.17	37.481
642.36	38.374
642.54	36.974
642.73	36.918
642.92	36.515
643.11	37.626
643.30	34.676
643.49	38.864
643.67	35.701
643.86	38.908
644.05	36.423
644.24	36.918
644.43	35.566
644.61	36.221
644.80	35.371
644.99	37.325
645.18	35.785
645.37	36.344
645.55	34.806
645.74	36.948
645.93	36.530
646.12	36.790
646.31	35.177
646.49	35.204
646.68	37.109
646.87	37.621
647.06	37.793
647.24	36.472
647.43	35.821
647.62	36.399
647.81	34.979
648.00	36.929
648.18	33.992
648.37	36.512
648.56	36.606
648.75	35.556
648.93	35.490
649.12	36.371
649.31	36.105
649.50	36.694
649.68	35.584
649.87	37.497
650.06	36.349
650.25	36.680
650.43	37.772
650.62	35.201
650.81	35.901
651.00	35.508
651.18	35.638
651.37	36.005
651.56	35.883
651.75	35.738
651.93	35.437
652.12	36.691
652.31	34.410
652.50	37.310
652.68	36.573
652.87	35.762
653.06	37.208
653.25	35.590
653.43	35.936
653.62	36.337
653.81	34.905
654.00	36.935
654.18	34.888
654.37	37.801
654.56	35.139
654.74	36.236
654.93	34.201
655.12	35.519
655.31	33.768
655.49	36.950
655.68	32.772
655.87	34.470
656.05	32.233
656.24	35.201
656.43	33.178
656.62	34.611
656.80	33.159
656.99	35.031
657.18	33.104
657.36	35.696
657.55	36.093
657.74	35.657
657.93	35.692
658.11	36.024
658.30	35.870
658.49	35.883
658.67	33.757
658.86	34.365
659.05	33.278
659.23	35.863
659.42	32.965
659.61	33.875
659.79	33.384
659.98	33.650
660.17	33.116
660.35	34.145
660.54	34.242
660.73	35.204
660.91	33.583
661.10	34.251
661.29	34.527
661.47	32.544
661.66	32.453
661.85	32.525
662.03	33.528
662.22	32.231
662.41	30.466
662.59	33.658
662.78	31.144
662.97	33.464
663.15	31.303
663.34	32.439
663.53	28.928
663.71	33.528
663.90	29.532
664.09	31.432
664.27	30.939
664.46	32.557
664.65	30.119
664.83	32.037
665.02	29.283
665.21	30.251
665.39	28.700
665.58	30.592
665.77	30.405
665.95	31.144
666.14	28.390
666.32	32.063
666.51	27.267
666.70	30.934
666.88	26.399
667.07	28.958
667.26	28.802
667.44	31.500
667.63	29.635
667.81	29.997
668.00	28.539
668.19	31.934
668.37	29.611
668.56	33.218
668.75	26.398
668.93	30.204
669.12	25.943
669.30	31.191
669.49	27.478
669.68	30.128
669.86	31.265
670.05	29.253
670.23	29.591
670.42	30.847
670.61	31.358
670.79	29.043
670.98	28.016
671.16	32.752
671.35	27.564
671.54	32.197
671.72	29.668
671.91	31.553
672.09	27.592
672.28	33.197
672.46	30.974
672.65	31.106
672.84	30.422
673.02	31.880
673.21	26.109
673.39	33.058
673.58	33.548
673.77	31.762
673.95	27.830
674.14	32.842
674.32	27.485
674.51	35.396
674.69	26.426
674.88	31.246
675.07	28.725
675.25	35.368
675.44	28.922
675.62	32.346
675.81	28.335
675.99	36.081
676.18	33.322
676.36	32.254
676.55	30.958
676.74	33.624
676.92	33.089
677.11	33.487
677.29	30.839
677.48	34.225
677.66	34.381
677.85	34.192
678.03	33.045
678.22	34.598
678.40	33.852
678.59	31.646
678.78	31.327
678.96	36.714
679.15	32.107
679.33	36.381
679.52	33.837
679.70	36.762
679.89	34.229
680.07	36.809
680.26	33.741
680.44	36.865
680.63	35.160
680.81	35.844
681.00	33.510
681.18	37.202
681.37	35.782
681.55	35.557
681.74	35.634
681.92	37.239
682.11	34.827
682.29	35.104
682.48	35.429
682.66	37.719
682.85	35.081
683.03	38.011
683.22	39.569
683.40	39.371
683.59	36.237
683.77	39.440
683.96	37.468
684.14	39.559
684.33	37.214
684.51	40.385
684.70	40.220
684.88	41.427
685.07	39.666
685.25	42.448
685.44	38.007
685.62	43.092
685.81	40.850
685.99	43.638
686.18	40.184
686.36	43.477
686.55	38.703
686.73	43.775
686.92	40.599
687.10	39.917
687.29	42.292
687.47	41.553
687.65	42.023
687.84	44.307
688.02	42.992
688.21	42.898
688.39	41.058
688.58	44.945
688.76	45.133
688.95	44.607
689.13	41.288
689.32	46.693
689.50	45.303
689.68	45.021
689.87	43.385
690.05	45.451
690.24	43.673
690.42	47.223
690.61	44.266
690.79	48.147
690.98	47.421
691.16	48.526
691.34	45.120
691.53	48.643
691.71	46.335
691.90	47.030
692.08	44.350
692.27	47.407
692.45	49.803
692.63	49.942
692.82	47.823
693.00	49.960
693.19	47.236
693.37	49.470
693.56	47.907
693.74	51.256
693.92	49.556
694.11	50.759
694.29	50.433
694.48	49.645
694.66	50.494
694.84	51.503
695.03	47.462
695.21	51.410
695.40	49.915
695.58	53.486
695.76	49.579
695.95	51.405
696.13	49.780
696.32	53.012
696.50	51.669
696.68	51.662
696.87	50.543
697.05	53.688
697.24	51.892
697.42	54.140
697.60	48.988
697.79	50.670
697.97	51.907
698.16	52.674
698.34	50.767
698.52	49.647
698.71	48.973
698.89	49.213
699.07	50.696
699.26	50.853
699.44	49.749
699.63	48.078
699.81	50.868
699.99	50.682
700.18	52.287
700.36	50.780
700.54	51.022
700.73	51.465
700.91	52.093
701.09	53.372
701.28	51.111
701.46	51.427
701.64	52.285
701.83	52.374
702.01	50.402
702.20	55.078
702.38	50.334
702.56	53.504
702.75	52.379
702.93	53.634
703.11	54.200
703.30	55.491
703.48	51.521
703.66	55.782
703.85	53.853
704.03	54.905
704.21	54.677
704.40	55.680
704.58	54.199
704.76	57.395
704.95	53.594
705.13	54.598
705.31	56.959
705.50	56.857
705.68	54.204
705.86	59.801
706.04	53.536
706.23	58.569
706.41	56.526
706.59	58.888
706.78	54.066
706.96	55.611
707.14	58.001
707.33	55.921
707.51	54.851
707.69	55.448
707.88	55.617
708.06	56.156
708.24	57.219
708.42	56.553
708.61	54.883
708.79	56.930
708.97	58.101
709.16	58.313
709.34	58.746
709.52	57.047
709.71	58.420
709.89	57.968
710.07	55.550
710.25	56.314
710.44	54.238
710.62	55.581
710.80	56.667
710.98	54.905
711.17	54.725
711.35	55.712
711.53	55.750
711.72	55.836
711.90	56.421
712.08	57.412
712.26	53.954
712.45	56.366
712.63	55.455
712.81	57.413
712.99	54.155
713.18	56.543
713.36	55.980
713.54	53.013
713.72	55.187
713.91	56.743
714.09	56.139
714.27	58.060
714.45	59.491
714.64	55.834
714.82	54.579
715.00	55.162
715.18	56.708
715.37	56.216
715.55	56.721
715.73	55.180
715.91	53.674
716.10	56.050
716.28	54.607
716.46	60.722
716.64	57.727
716.83	54.211
717.01	55.782
717.19	55.225
717.37	53.306
717.55	53.154
717.74	56.096
717.92	55.956
718.10	51.823
718.28	57.789
718.47	59.122
718.65	58.363
718.83	56.535
719.01	57.243
719.19	54.667
719.38	54.798
719.56	55.711
719.74	55.392
719.92	49.523
720.10	54.613
720.29	54.319
720.47	58.973
720.65	57.049
720.83	63.041
721.01	51.255
721.20	60.994
721.38	53.761
721.56	61.221
721.74	58.386
721.92	63.750
722.11	57.717
722.29	60.533
722.47	59.055
722.65	57.463
722.83	53.127
723.01	58.575
723.20	56.258
723.38	57.188
723.56	53.689
723.74	61.731
723.92	58.801
724.10	55.159
724.29	51.705
724.47	65.949
724.65	56.510
724.83	58.029
725.01	56.951
725.19	59.137
725.38	56.857
725.56	60.537
725.74	57.597
725.92	59.902
726.10	54.688
726.28	56.808
726.46	59.369
726.65	61.711
726.83	56.233
727.01	56.418
727.19	58.365
727.37	60.792
727.55	58.360
727.73	58.724
727.92	55.776
728.10	55.786
728.28	54.556
728.46	61.251
728.64	61.081
728.82	59.152
729.00	58.450
729.19	60.117
729.37	59.884
729.55	59.692
729.73	55.483
729.91	56.568
730.09	59.663
730.27	61.799
730.45	59.976
730.63	59.588
730.82	53.922
731.00	61.480
731.18	57.728
731.36	58.138
731.54	55.091
731.72	63.268
731.90	56.882
732.08	62.464
732.26	57.214
732.45	63.227
732.63	55.437
732.81	60.402
732.99	60.988
733.17	59.767
733.35	58.615
733.53	60.296
733.71	61.530
733.89	58.034
734.07	58.391
734.25	60.696
734.44	60.462
734.62	55.661
734.80	60.296
734.98	67.175
735.16	58.407
735.34	60.998
735.52	63.946
735.70	59.887
735.88	60.052
736.06	60.202
736.24	65.253
736.42	61.941
736.60	62.908
736.78	63.291
736.97	59.381
737.15	62.193
737.33	60.463
737.51	65.071
737.69	61.847
737.87	66.500
738.05	61.967
738.23	63.399
738.41	62.393
738.59	62.130
738.77	62.211
738.95	60.562
739.13	66.108
739.31	60.081
739.49	57.955
739.67	63.519
739.85	60.812
740.03	64.912
740.21	62.535
740.39	65.376
740.57	63.305
740.75	65.260
740.93	58.671
741.11	64.895
741.30	62.110
741.48	65.118
741.66	66.359
741.84	62.336
742.02	59.382
742.20	65.478
742.38	60.307
742.56	64.863
742.74	60.093
742.92	65.078
743.10	60.945
743.28	64.148
743.46	63.415
743.64	65.171
743.82	61.888
744.00	64.767
744.18	65.923
744.36	68.865
744.54	66.755
744.72	69.159
744.90	67.474
745.08	68.900
745.26	63.714
745.44	71.059
745.62	61.965
745.80	62.283
745.98	63.854
746.16	65.508
746.34	67.364
746.52	67.452
746.70	63.499
746.87	64.519
747.05	66.574
747.23	65.374
747.41	65.549
747.59	64.028
747.77	66.059
747.95	60.692
748.13	63.843
748.31	71.979
748.49	64.793
748.67	69.253
748.85	62.544
749.03	69.265
749.21	62.196
749.39	69.713
749.57	62.386
749.75	66.234
749.93	63.413
750.11	66.462
750.29	64.475
750.47	63.480
750.65	65.977
750.83	67.555
751.01	65.508
751.18	61.909
751.36	63.047
751.54	65.841
751.72	68.860
751.90	64.024
752.08	63.977
752.26	63.310
752.44	63.981
752.62	61.344
752.80	61.477
752.98	65.919
753.16	63.546
753.34	61.566
753.52	65.984
753.69	63.383
753.87	63.185
754.05	65.239
754.23	64.733
754.41	67.047
754.59	64.482
754.77	65.331
754.95	64.891
755.13	68.130
755.31	65.880
755.49	66.474
755.66	62.069
755.84	62.341
756.02	59.387
756.20	64.248
756.38	62.886
756.56	65.190
756.74	63.320
756.92	67.383
757.10	66.571
757.28	66.517
757.45	68.767
757.63	62.478
757.81	61.106
757.99	63.495
758.17	60.372
758.35	68.593
758.53	68.441
758.71	68.173
758.88	60.755
759.06	61.191
759.24	60.789
759.42	62.684
759.60	60.393
759.78	59.326
759.96	51.130
760.13	55.806
760.31	50.799
760.49	48.640
760.67	41.535
760.85	49.322
761.03	46.113
761.21	45.285
761.38	45.194
761.56	49.348
761.74	43.621
761.92	44.916
762.10	44.454
762.28	50.733
762.46	44.819
762.63	46.414
762.81	46.809
762.99	44.163
763.17	47.891
763.35	50.536
763.53	44.120
763.70	47.747
763.88	49.938
764.06	50.690
764.24	43.036
764.42	53.034
764.60	49.563
764.77	53.624
764.95	48.017
765.13	52.040
765.31	50.716
765.49	53.759
765.66	50.175
765.84	53.516
766.02	54.061
766.20	56.687
766.38	54.545
766.56	54.710
766.73	51.962
766.91	55.520
767.09	59.342
767.27	60.148
767.45	57.751
767.62	62.197
767.80	57.890
767.98	61.343
768.16	54.194
768.33	59.928
768.51	63.137
768.69	63.002
768.87	58.509
769.05	62.915
769.22	59.422
769.40	65.986
769.58	62.566
769.76	60.922
769.94	64.546
770.11	62.635
770.29	59.439
770.47	63.606
770.65	66.205
770.82	62.864
771.00	67.015
771.18	62.115
771.36	62.569
771.53	67.931
771.71	70.979
771.89	73.626
772.07	57.078
772.25	71.780
772.42	64.741
772.60	66.007
772.78	67.813
772.96	70.531
773.13	70.292
773.31	66.509
773.49	67.420
773.67	72.230
773.84	66.381
774.02	73.836
774.20	67.690
774.37	69.035
774.55	68.782
774.73	76.271
774.91	56.112
775.08	72.629
775.26	62.432
775.44	67.017
775.62	69.785
775.79	67.150
775.97	66.351
776.15	64.854
776.32	65.101
776.50	70.270
776.68	74.332
776.86	67.125
777.03	64.430
777.21	65.730
777.39	65.351
777.56	69.806
777.74	63.418
777.92	67.125
778.10	69.830
778.27	67.206
778.45	65.722
778.63	71.528
778.80	67.177
778.98	72.701
779.16	77.339
779.34	67.273
779.51	67.388
779.69	66.573
779.87	64.592
780.04	65.804
780.22	70.756
780.40	75.705
780.57	65.260
780.75	69.482
780.93	72.787
781.10	67.922
781.28	67.623
781.46	61.149
781.63	69.750
781.81	70.349
781.99	68.122
782.16	69.298
782.34	57.427
782.52	63.453
782.69	62.762
782.87	71.749
783.05	61.000
783.22	69.524
783.40	67.492
783.58	66.517
783.75	63.636
783.93	78.109
784.11	66.829
784.28	67.610
784.46	66.823
784.64	68.346
784.81	66.506
784.99	73.460
785.17	68.197
785.34	68.257
785.52	60.976
785.69	65.163
785.87	60.708
786.05	73.846
786.22	70.079
786.40	80.921
786.58	65.127
786.75	65.655
786.93	55.538
787.11	65.490
787.28	60.543
787.46	64.495
787.63	68.718
787.81	73.059
787.99	69.870
788.16	63.663
788.34	54.945
788.51	68.630
788.69	63.569
788.87	60.230
789.04	55.882
789.22	63.904
789.39	59.808
789.57	61.458
789.75	61.104
789.92	65.900
790.10	53.562
790.27	69.929
790.45	55.334
790.63	59.232
790.80	54.772
790.98	65.942
791.15	59.639
791.33	64.753
791.51	62.519
791.68	65.293
791.86	66.060
792.03	65.667
792.21	62.063
792.39	64.353
792.56	59.206
792.74	63.820
792.91	67.736
793.09	65.728
793.26	61.796
793.44	68.954
793.62	59.683
793.79	61.866
793.97	61.047
794.14	61.207
794.32	70.599
794.49	71.218
794.67	60.612
794.84	63.796
795.02	66.951
795.20	70.221
795.37	59.631
795.55	59.816
795.72	75.088
795.90	57.119
796.07	67.931
796.25	66.054
796.42	65.043
796.60	62.444
796.77	60.199
796.95	68.102
797.13	60.680
797.30	66.889
797.48	54.599
797.65	58.070
797.83	56.380
798.00	60.032
798.18	56.231
798.35	59.599
798.53	58.000
798.70	58.015
798.88	54.013
799.05	57.321
799.23	59.938
799.40	63.376
799.58	63.230
799.75	65.850
799.93	61.512
800.10	65.267
800.28	66.473
800.45	70.197
800.63	60.432
800.80	78.295
800.98	63.383
801.15	60.000
801.33	56.790
801.50	65.285
801.68	64.740
801.85	61.063
802.03	50.168
802.20	63.483
802.38	54.240
802.55	69.231
802.73	61.391
802.90	67.904
803.08	53.203
803.25	67.308
803.43	64.337
803.60	75.934
803.78	64.407
803.95	68.902
804.13	63.322
804.30	62.672
804.48	63.327
804.65	65.157
804.83	56.830
805.00	63.621
805.17	61.942
805.35	69.886
805.52	54.685
805.70	65.660
805.87	58.226
806.05	68.237
806.22	50.743
806.40	61.464
806.57	52.247
806.75	67.523
806.92	60.526
807.09	72.865
807.27	57.366
807.44	64.695
807.62	57.556
807.79	66.607
807.97	58.259
808.14	69.800
808.31	55.144
808.49	67.698
808.66	58.574
808.84	59.496
809.01	66.879
809.19	66.872
809.36	71.894
809.53	65.675
809.71	60.232
809.88	67.627
810.06	69.291
810.23	66.800
810.41	60.788
810.58	70.825
810.75	56.009
810.93	64.694
811.10	54.105
811.28	60.850
811.45	62.264
811.62	63.146
811.80	60.851
811.97	68.398
812.15	72.387
812.32	64.009
812.49	68.410
812.67	57.872
812.84	60.440
813.02	73.543
813.19	61.400
813.36	66.594
813.54	57.965
813.71	70.227
813.89	61.894
814.06	71.958
814.23	61.009
814.41	73.995
814.58	63.221
814.75	67.322
814.93	67.857
815.10	65.641
815.28	79.167
815.45	57.389
815.62	63.070
815.80	53.811
815.97	54.451
816.14	65.116
816.32	51.100
816.49	60.000
816.66	50.250
816.84	58.639
817.01	61.605
817.18	52.681
817.36	52.860
817.53	70.149
817.71	50.108
817.88	55.455
818.05	58.389
818.23	60.238
818.40	60.849
818.57	65.812
818.75	61.949
818.92	57.543
819.09	64.567
819.27	59.020
819.44	46.322
819.61	49.631
819.79	49.383
819.96	57.822
820.13	56.304
820.31	56.174
820.48	54.777
820.65	55.143
820.82	54.160
821.00	53.139
821.17	40.916
821.34	57.654
821.52	44.569
821.69	48.870
821.86	48.623
822.04	46.247
822.21	48.419
822.38	49.550
822.56	47.698
822.73	50.784
822.90	51.380
823.07	52.694
823.25	47.749
823.42	49.917
823.59	47.403
823.77	48.952
823.94	46.084
824.11	46.124
824.29	45.231
824.46	50.803
824.63	47.371
824.80	49.147
824.98	43.462
825.15	48.488
825.32	41.115
825.49	49.972
825.67	39.219
825.84	49.560
826.01	45.997
826.19	48.655
826.36	38.595
826.53	43.659
826.70	41.030
826.88	45.890
827.05	39.303
827.22	46.546
827.39	44.817
827.57	51.701
827.74	43.773
827.91	50.458
828.08	43.775
828.26	44.993
828.43	42.837
828.60	51.680
828.77	48.211
828.95	46.637
829.12	41.736
829.29	37.124
829.46	43.455
829.64	49.362
829.81	37.500
829.98	46.554
830.15	45.060
830.32	45.523
830.50	36.048
830.67	48.715
830.84	45.522
831.01	40.909
831.19	43.881
831.36	58.130
831.53	51.786
831.70	61.228
831.87	45.868
832.05	53.267
832.22	62.556
832.39	51.522
832.56	57.761
832.74	57.813
832.91	57.595
833.08	63.563
833.25	44.815
833.42	57.168
833.60	41.830
833.77	42.320
833.94	42.663
834.11	40.727
834.28	39.033
834.45	42.385
834.63	38.844
834.80	41.826
834.97	40.812
835.14	49.479
835.31	40.800
835.49	37.075
835.66	35.905
835.83	42.304
836.00	37.178
836.17	45.523
836.34	35.337
836.52	42.763
836.69	55.827
836.86	45.625
837.03	50.422
837.20	42.468
837.37	49.726
837.55	45.664
837.72	49.711
837.89	55.725
838.06	63.702
838.23	55.502
838.40	51.537
838.58	52.267
838.75	62.108
838.92	70.690
839.09	66.402
839.26	69.251
839.43	73.199
839.60	66.555
839.78	77.469
839.95	61.889
840.12	69.620
840.29	60.191
840.46	68.182
840.63	71.176
840.80	68.000
840.98	71.714
841.15	44.500
841.32	52.693
841.49	56.522
841.66	75.137
841.83	57.867
842.00	63.291
842.17	71.233
842.34	48.138
842.52	73.952
842.69	68.553
842.86	61.938
843.03	97.484
843.20	105.306
843.37	83.217
843.54	78.455
843.71	87.347
843.88	84.106
844.06	96.356
844.23	104.831
844.40	80.303
844.57	87.660
844.74	95.633
844.91	96.759
845.08	92.549
845.25	91.606
845.42	86.432
845.59	129.825
845.76	100.000
845.94	124.684
846.11	99.005
846.28	126.207
846.45	106.135
846.62	101.081
846.79	96.111
846.96	84.163
847.13	116.471
847.30	94.949
847.47	86.264
847.64	97.674
847.81	99.451
847.98	101.622
848.15	107.527
848.32	91.237
848.50	100.621
848.67	150.694
848.84	101.515
849.01	95.238
849.18	104.737
849.35	121.466
849.52	116.763
849.69	114.451
849.86	123.926
850.03	130.822
850.20	132.639
850.37	109.286
850.54	128.931
850.71	130.081
850.88	119.580
851.05	113.699
851.22	135.404
851.39	104.124
851.56	125.694
851.73	110.556
851.90	96.875
852.07	107.647
852.24	115.441
852.41	144.526
852.58	109.091
852.75	120.710
852.92	102.717
853.09	115.642
853.26	119.745
853.43	91.364
853.60	92.268
853.77	123.404
853.94	92.424
854.11	154.701
854.28	124.468
854.45	132.168
854.62	116.779
854.79	100.769
854.96	126.812
855.13	98.333
855.30	121.244
855.47	120.000
855.64	121.622
855.81	150.794
855.98	92.000
856.15	112.414
856.32	94.836
856.49	106.393
856.66	139.535
856.83	109.948
857.00	145.902
857.17	142.500
857.34	93.182
857.51	141.667
857.68	140.714
857.85	118.788
858.02	201.351
858.19	119.286
858.36	106.286
858.53	124.571
858.70	84.106
858.87	108.276
859.04	110.563
859.21	82.174
859.38	116.556
859.55	186.111
859.72	132.231
859.89	187.255
860.05	134.109
860.22	145.395
860.39	164.486
860.56	169.725
860.73	106.627
860.90	134.000
861.07	116.940
861.24	167.521
861.41	160.000
861.58	97.044
861.75	142.593
861.92	114.173
862.09	111.446
862.26	169.149
862.43	133.083
862.59	101.538
862.76	97.279
862.93	146.584
863.10	126.207
863.27	102.703
863.44	103.289
863.61	122.353
863.78	130.986
863.95	171.756
864.12	109.028
864.29	130.233
864.45	152.055
864.62	106.767
864.79	107.432
864.96	126.984
865.13	125.954
865.30	160.000
865.47	144.444
865.64	114.375
865.81	80.247
865.97	96.175
866.14	103.810
866.31	157.724
866.48	117.829
866.65	114.000
866.82	121.477
866.99	200.971
867.16	188.571
867.33	145.299
867.49	149.635
867.66	116.019
867.83	95.200
868.00	118.440
868.17	123.485
868.34	114.384
868.51	142.254
868.67	171.074
868.84	147.619
869.01	150.394
869.18	116.279
869.35	193.333
869.52	120.548
869.69	98.473
869.85	105.348
870.02	179.439
870.19	155.462
870.36	100.680
870.53	76.705
870.70	98.837
870.86	107.547
871.03	157.983
871.20	109.272
871.37	100.000
871.54	88.276
871.71	87.037
871.87	93.151
872.04	92.903
872.21	207.527
872.38	95.706
872.55	127.465
872.72	91.163
872.88	126.627
873.05	97.253
873.22	109.524
873.39	116.463
873.56	109.827
873.72	150.746
873.89	118.841
874.06	120.395
874.23	159.322
874.40	101.399
874.56	198.113
874.73	105.435
874.90	124.859
875.07	121.528
875.24	67.630
875.40	98.065
875.57	116.667
875.74	103.333
875.91	122.314
876.08	106.818
876.24	138.312
876.41	104.070
876.58	96.273
876.75	116.071
876.92	123.009
877.08	129.464
877.25	90.506
877.42	117.778
877.59	90.909
877.75	135.570
877.92	103.200
878.09	96.992
878.26	119.481
878.42	128.261
878.59	120.588
878.76	79.487
878.93	106.433
879.09	98.404
879.26	97.838
879.43	93.529
879.60	95.679
879.76	104.575
879.93	100.633
880.10	85.185
880.27	74.771
880.43	100.000
880.60	70.776
880.77	95.238
880.94	61.455
881.10	76.587
881.27	57.600
881.44	49.423
881.61	46.943
881.77	52.579
881.94	36.887
882.11	35.580
882.28	32.222
882.44	36.126
882.61	29.162
882.78	34.724
882.94	39.631
883.11	34.636
883.28	35.460
883.45	38.593
883.61	30.539
883.78	32.196
883.95	38.502
884.11	35.706
884.28	39.192
>>>>>End Processed Spectral Data<<<<<
