SpectraSuite Data File
++++++++++++++++++++++++++++++++++++
Date: Fri Sep 20 03:37:54 EST 2019
User: sgrac
Dark Spectrum Present: Yes
Reference Spectrum Present: Yes
Number of Sampled Component Spectra: 1
Spectrometers: USB4E01596
Integration Time (usec): 100000 (USB4E01596)
Spectra Averaged: 1 (USB4E01596)
Boxcar Smoothing: 0 (USB4E01596)
Correct for Electrical Dark: No (USB4E01596)
Strobe/Lamp Enabled: Yes (USB4E01596)
Correct for Detector Non-linearity: No (USB4E01596)
Correct for Stray Light: No (USB4E01596)
Number of Pixels in Processed Spectrum: 3648
>>>>>Begin Processed Spectral Data<<<<<
178.44	482.609
178.66	482.609
178.87	482.609
179.09	-600.000
179.30	360.000
179.52	660.714
179.74	3260.000
179.95	-408.571
180.17	-618.750
180.38	-981.250
180.60	-593.548
180.82	800.000
181.03	-3700.000
181.25	-1580.000
181.46	-1345.455
181.68	0.000
181.89	18900.000
182.11	1800.000
182.33	1338.462
182.54	-431.429
182.76	324.000
182.97	659.259
183.19	1922.222
183.40	-918.750
183.62	1300.000
183.84	-370.000
184.05	0.000
184.27	14600.000
184.48	880.000
184.70	8450.000
184.91	1269.231
185.13	384.091
185.34	361.111
185.56	-738.095
185.78	747.368
185.99	-8000.000
186.21	492.857
186.42	1283.333
186.64	258.209
186.85	258.025
187.07	600.000
187.28	-316.216
187.50	-722.727
187.72	259.375
187.93	18600.000
188.15	736.364
188.36	328.846
188.58	800.000
188.79	6900.000
189.01	576.471
189.22	1366.667
189.44	457.447
189.65	-760.000
189.87	685.714
190.09	483.333
190.30	-3160.000
190.52	485.366
190.73	781.481
190.95	-1184.615
191.16	-1008.333
191.38	-708.696
191.59	1544.444
191.81	415.000
192.02	402.500
192.24	249.206
192.45	422.857
192.67	822.727
192.88	0.000
193.10	488.235
193.31	-1240.000
193.53	340.909
193.74	465.789
193.96	1670.000
194.18	289.855
194.39	338.000
194.61	586.667
194.82	603.448
195.04	1266.667
195.25	389.362
195.47	1010.526
195.68	-1460.000
195.90	4200.000
196.11	4125.000
196.33	-581.481
196.54	606.897
196.76	273.333
196.97	1066.667
197.19	-794.444
197.40	452.778
197.62	-878.571
197.83	900.000
198.05	481.579
198.26	672.727
198.48	1466.667
198.69	557.143
198.91	1842.857
199.12	455.000
199.34	312.308
199.55	-1218.182
199.77	790.000
199.98	3020.000
200.20	1309.091
200.41	554.545
200.63	-2780.000
200.84	575.610
201.06	-16300.000
201.27	923.529
201.49	278.689
201.70	1111.765
201.91	1250.000
202.13	815.000
202.34	3700.000
202.56	1857.143
202.77	-2650.000
202.99	993.333
203.20	661.905
203.42	-421.429
203.63	525.806
203.85	-558.333
204.06	4733.333
204.28	-3500.000
204.49	2171.429
204.71	381.250
204.92	1900.000
205.14	0.000
205.35	906.667
205.56	496.429
205.78	530.769
205.99	351.351
206.21	596.552
206.42	2700.000
206.64	-402.439
206.85	1093.333
207.07	1107.692
207.28	566.667
207.50	-1775.000
207.71	413.953
207.93	9450.000
208.14	-278.378
208.35	482.759
208.57	-825.000
208.78	465.517
209.00	292.105
209.21	0.000
209.43	808.696
209.64	290.698
209.86	2228.571
210.07	1200.000
210.28	617.857
210.50	2760.000
210.71	364.103
210.93	323.684
211.14	339.344
211.36	420.000
211.57	2237.500
211.78	-645.455
212.00	453.846
212.21	-673.684
212.43	529.032
212.64	433.333
212.86	478.571
213.07	639.286
213.29	246.053
213.50	-473.529
213.71	-11600.000
213.93	-1722.222
214.14	1173.333
214.36	-2400.000
214.57	203.488
214.78	382.857
215.00	-5266.667
215.21	-1600.000
215.43	-360.606
215.64	1043.750
215.86	-4025.000
216.07	633.333
216.28	304.839
216.50	325.532
216.71	-3160.000
216.93	1328.571
217.14	461.111
217.35	234.211
217.57	-726.667
217.78	1672.727
218.00	393.182
218.21	278.689
218.42	379.592
218.64	326.667
218.85	350.000
219.07	358.000
219.28	852.381
219.49	-1145.455
219.71	507.143
219.92	2750.000
220.14	6200.000
220.35	3333.333
220.56	1046.667
220.78	296.825
220.99	2650.000
221.21	432.432
221.42	459.259
221.63	411.111
221.85	16000.000
222.06	372.414
222.28	845.000
222.49	14700.000
222.70	-4033.333
222.92	276.786
223.13	281.159
223.34	312.727
223.56	424.324
223.77	937.500
223.99	250.000
224.20	164.865
224.41	318.605
224.63	426.471
224.84	580.000
225.05	343.750
225.27	303.704
225.48	208.861
225.69	368.182
225.91	232.468
226.12	354.839
226.34	244.928
226.55	253.125
226.76	208.955
226.98	135.965
227.19	400.000
227.40	125.714
227.62	141.892
227.83	181.053
228.04	309.259
228.26	131.481
228.47	129.167
228.69	75.275
228.90	84.270
229.11	63.602
229.33	61.475
229.54	70.204
229.75	49.049
229.97	53.041
230.18	52.989
230.39	46.176
230.61	49.689
230.82	59.804
231.03	39.948
231.25	44.477
231.46	63.492
231.67	48.919
231.89	65.809
232.10	56.489
232.31	73.488
232.53	65.637
232.74	65.574
232.95	76.382
233.17	74.405
233.38	69.444
233.59	87.059
233.81	92.478
234.02	69.458
234.23	95.161
234.45	70.199
234.66	76.733
234.87	104.651
235.09	81.333
235.30	66.452
235.51	74.138
235.73	65.104
235.94	73.477
236.15	71.269
236.36	66.245
236.58	73.222
236.79	74.903
237.00	75.904
237.22	71.552
237.43	64.444
237.64	78.182
237.86	89.216
238.07	61.753
238.28	87.037
238.50	63.223
238.71	58.865
238.92	56.250
239.13	75.000
239.35	49.770
239.56	43.836
239.77	66.403
239.99	63.672
240.20	71.223
240.41	62.696
240.63	50.462
240.84	52.516
241.05	42.450
241.26	59.593
241.48	45.592
241.69	36.569
241.90	44.835
242.12	34.205
242.33	30.228
242.54	23.138
242.75	21.772
242.97	27.920
243.18	23.986
243.39	16.021
243.61	23.318
243.82	25.364
244.03	16.506
244.24	16.156
244.46	25.363
244.67	27.067
244.88	25.911
245.09	25.879
245.31	30.298
245.52	24.490
245.73	35.645
245.95	51.685
246.16	29.754
246.37	27.517
246.58	25.346
246.80	22.207
247.01	24.553
247.22	16.649
247.43	19.964
247.65	13.454
247.86	14.499
248.07	11.819
248.28	12.783
248.50	12.119
248.71	13.494
248.92	11.677
249.13	11.512
249.35	15.981
249.56	14.355
249.77	16.048
249.98	17.802
250.20	20.362
250.41	24.945
250.62	19.783
250.83	22.277
251.05	29.474
251.26	20.094
251.47	30.824
251.68	25.831
251.90	33.856
252.11	26.437
252.32	25.035
252.53	24.379
252.75	21.676
252.96	24.112
253.17	21.132
253.38	21.021
253.59	21.724
253.81	18.151
254.02	20.641
254.23	21.106
254.44	24.015
254.66	21.770
254.87	21.885
255.08	27.548
255.29	38.241
255.50	29.853
255.72	30.060
255.93	35.821
256.14	41.702
256.35	32.639
256.57	26.103
256.78	36.117
256.99	29.314
257.20	22.680
257.41	42.667
257.63	36.571
257.84	27.768
258.05	27.880
258.26	20.204
258.47	27.709
258.69	26.491
258.90	17.265
259.11	18.344
259.32	23.053
259.53	14.440
259.75	18.182
259.96	15.883
260.17	14.433
260.38	11.332
260.59	10.463
260.81	9.731
261.02	10.819
261.23	11.408
261.44	10.635
261.65	10.947
261.87	10.036
262.08	11.900
262.29	13.418
262.50	12.668
262.71	10.227
262.92	15.997
263.14	15.043
263.35	17.456
263.56	18.598
263.77	18.710
263.98	22.414
264.20	19.244
264.41	21.699
264.62	17.546
264.83	17.898
265.04	24.588
265.25	22.416
265.47	25.150
265.68	25.879
265.89	22.622
266.10	19.772
266.31	21.259
266.52	21.558
266.74	15.479
266.95	13.804
267.16	17.783
267.37	13.511
267.58	17.894
267.79	17.000
268.01	15.049
268.22	15.642
268.43	20.372
268.64	13.864
268.85	18.081
269.06	15.055
269.27	18.465
269.49	15.419
269.70	18.437
269.91	17.890
270.12	14.641
270.33	16.895
270.54	16.825
270.75	13.444
270.97	16.070
271.18	15.287
271.39	16.030
271.60	18.543
271.81	14.770
272.02	17.225
272.23	14.297
272.45	13.166
272.66	12.385
272.87	14.177
273.08	8.251
273.29	13.545
273.50	10.714
273.71	12.155
273.92	11.118
274.14	14.323
274.35	14.295
274.56	11.828
274.77	14.457
274.98	13.372
275.19	14.045
275.40	13.691
275.61	15.050
275.83	17.851
276.04	13.640
276.25	14.099
276.46	15.009
276.67	20.052
276.88	13.484
277.09	16.474
277.30	21.364
277.51	15.523
277.73	16.047
277.94	13.724
278.15	16.381
278.36	16.724
278.57	15.803
278.78	14.047
278.99	8.451
279.20	16.788
279.41	19.108
279.62	13.424
279.84	17.182
280.05	16.032
280.26	17.370
280.47	14.899
280.68	14.921
280.89	12.678
281.10	16.776
281.31	17.109
281.52	16.354
281.73	12.500
281.94	12.772
282.16	15.498
282.37	15.257
282.58	9.534
282.79	14.416
283.00	16.046
283.21	10.262
283.42	10.840
283.63	12.745
283.84	11.737
284.05	10.781
284.26	12.927
284.47	12.744
284.68	13.719
284.89	10.020
285.11	12.970
285.32	9.857
285.53	10.837
285.74	12.172
285.95	12.210
286.16	12.745
286.37	11.557
286.58	8.481
286.79	8.597
287.00	9.216
287.21	9.252
287.42	8.863
287.63	7.226
287.84	9.814
288.05	10.805
288.26	9.400
288.48	12.842
288.69	9.402
288.90	10.128
289.11	12.560
289.32	11.860
289.53	10.952
289.74	11.646
289.95	9.412
290.16	12.543
290.37	10.062
290.58	9.192
290.79	10.860
291.00	9.923
291.21	12.399
291.42	9.071
291.63	9.735
291.84	11.889
292.05	9.312
292.26	11.154
292.47	10.419
292.68	8.588
292.89	12.647
293.10	12.689
293.31	9.715
293.52	9.764
293.73	12.719
293.94	11.807
294.15	11.832
294.36	11.492
294.57	11.434
294.79	12.080
295.00	9.820
295.21	8.150
295.42	7.927
295.63	11.744
295.84	10.708
296.05	11.438
296.26	8.903
296.47	11.875
296.68	7.957
296.89	10.561
297.10	9.727
297.31	10.224
297.52	8.322
297.73	8.455
297.94	9.229
298.15	7.988
298.36	6.789
298.57	6.493
298.78	9.112
298.99	6.368
299.20	8.443
299.41	9.384
299.62	8.627
299.83	8.482
300.04	8.119
300.25	10.324
300.46	9.163
300.67	11.718
300.88	8.581
301.09	9.580
301.30	9.663
301.50	10.011
301.71	12.087
301.92	15.116
302.13	11.935
302.34	10.394
302.55	9.888
302.76	10.046
302.97	9.342
303.18	10.159
303.39	8.959
303.60	9.749
303.81	9.445
304.02	10.122
304.23	9.007
304.44	10.043
304.65	9.249
304.86	11.169
305.07	9.447
305.28	11.276
305.49	12.405
305.70	10.680
305.91	10.858
306.12	9.330
306.33	7.592
306.54	8.612
306.75	8.585
306.96	13.113
307.17	10.517
307.38	14.928
307.58	9.274
307.79	12.842
308.00	11.040
308.21	9.493
308.42	9.975
308.63	9.956
308.84	10.064
309.05	7.813
309.26	7.953
309.47	13.318
309.68	8.121
309.89	8.329
310.10	7.354
310.31	7.901
310.52	6.438
310.73	10.721
310.94	8.848
311.14	7.507
311.35	8.337
311.56	8.390
311.77	7.706
311.98	5.869
312.19	8.090
312.40	9.417
312.61	9.599
312.82	9.386
313.03	9.511
313.24	10.519
313.45	6.980
313.66	9.698
313.86	7.731
314.07	8.906
314.28	10.614
314.49	11.111
314.70	9.855
314.91	10.615
315.12	8.120
315.33	11.532
315.54	8.142
315.75	8.924
315.96	5.646
316.16	9.455
316.37	9.122
316.58	9.613
316.79	9.665
317.00	9.723
317.21	5.842
317.42	11.693
317.63	8.014
317.84	9.384
318.05	11.740
318.25	10.367
318.46	6.605
318.67	9.910
318.88	10.948
319.09	8.784
319.30	11.149
319.51	12.785
319.72	11.011
319.93	11.137
320.13	12.313
320.34	9.177
320.55	12.543
320.76	12.651
320.97	7.156
321.18	12.572
321.39	9.888
321.60	8.597
321.80	13.153
322.01	12.573
322.22	10.266
322.43	10.608
322.64	10.690
322.85	11.921
323.06	11.484
323.27	11.028
323.47	8.653
323.68	10.973
323.89	9.454
324.10	10.146
324.31	9.237
324.52	9.288
324.73	10.139
324.93	8.532
325.14	8.324
325.35	8.938
325.56	11.466
325.77	10.700
325.98	8.700
326.19	12.086
326.39	10.585
326.60	8.768
326.81	8.984
327.02	8.791
327.23	6.720
327.44	11.281
327.64	7.478
327.85	9.560
328.06	8.167
328.27	9.221
328.48	10.333
328.69	7.207
328.90	9.726
329.10	9.431
329.31	10.068
329.52	9.719
329.73	12.373
329.94	9.638
330.15	7.274
330.35	13.307
330.56	10.450
330.77	10.894
330.98	10.703
331.19	9.592
331.39	10.264
331.60	9.711
331.81	7.284
332.02	11.589
332.23	11.193
332.44	9.941
332.64	10.437
332.85	11.274
333.06	8.138
333.27	6.824
333.48	7.382
333.68	9.096
333.89	8.132
334.10	7.897
334.31	10.274
334.52	7.461
334.72	7.400
334.93	9.995
335.14	8.593
335.35	12.199
335.56	10.036
335.76	6.565
335.97	9.846
336.18	9.765
336.39	8.948
336.60	9.397
336.80	10.477
337.01	7.813
337.22	8.141
337.43	11.616
337.64	9.065
337.84	12.186
338.05	7.985
338.26	11.583
338.47	9.870
338.68	8.622
338.88	10.529
339.09	7.200
339.30	7.193
339.51	7.949
339.71	10.465
339.92	8.345
340.13	9.589
340.34	9.881
340.55	9.247
340.75	7.249
340.96	6.317
341.17	9.023
341.38	6.808
341.58	10.500
341.79	6.422
342.00	7.769
342.21	8.349
342.41	8.930
342.62	9.366
342.83	6.745
343.04	7.266
343.24	8.999
343.45	7.843
343.66	9.843
343.87	7.758
344.07	9.483
344.28	9.697
344.49	9.006
344.70	7.399
344.90	7.412
345.11	8.492
345.32	8.115
345.53	8.935
345.73	6.869
345.94	7.759
346.15	9.233
346.36	7.555
346.56	8.812
346.77	7.632
346.98	7.391
347.19	9.057
347.39	8.871
347.60	8.250
347.81	7.976
348.02	9.106
348.22	8.038
348.43	10.222
348.64	4.983
348.84	7.351
349.05	7.549
349.26	10.292
349.47	7.589
349.67	5.937
349.88	10.279
350.09	7.550
350.30	9.530
350.50	8.869
350.71	8.865
350.92	8.510
351.12	7.173
351.33	8.836
351.54	9.861
351.74	8.658
351.95	7.807
352.16	9.072
352.37	8.712
352.57	9.859
352.78	8.847
352.99	6.950
353.19	7.825
353.40	8.618
353.61	9.756
353.82	8.117
354.02	6.776
354.23	9.835
354.44	13.519
354.64	9.047
354.85	9.599
355.06	9.406
355.26	9.050
355.47	9.000
355.68	11.159
355.88	10.452
356.09	10.716
356.30	9.915
356.51	13.232
356.71	10.590
356.92	9.009
357.13	11.071
357.33	13.961
357.54	11.150
357.75	8.360
357.95	12.339
358.16	10.093
358.37	13.281
358.57	10.540
358.78	15.041
358.99	11.691
359.19	11.159
359.40	12.374
359.61	10.863
359.81	14.639
360.02	13.619
360.23	11.701
360.43	12.037
360.64	11.468
360.85	13.304
361.05	9.923
361.26	14.848
361.47	12.003
361.67	14.394
361.88	10.268
362.09	13.431
362.29	10.678
362.50	10.744
362.70	9.393
362.91	14.989
363.12	11.469
363.32	12.438
363.53	13.769
363.74	15.456
363.94	10.381
364.15	15.367
364.36	13.968
364.56	13.359
364.77	13.555
364.98	17.293
365.18	14.532
365.39	17.171
365.59	11.394
365.80	11.859
366.01	15.198
366.21	13.183
366.42	12.870
366.63	17.293
366.83	13.945
367.04	10.596
367.24	15.799
367.45	13.596
367.66	9.635
367.86	14.820
368.07	12.123
368.28	14.112
368.48	12.914
368.69	11.296
368.89	12.415
369.10	13.285
369.31	15.121
369.51	15.931
369.72	16.107
369.92	17.206
370.13	9.299
370.34	15.138
370.54	8.299
370.75	15.380
370.95	10.985
371.16	15.526
371.37	12.409
371.57	13.514
371.78	12.767
371.98	14.929
372.19	14.249
372.40	15.101
372.60	13.709
372.81	15.888
373.01	10.145
373.22	12.102
373.43	13.731
373.63	14.068
373.84	13.570
374.04	13.955
374.25	12.873
374.46	14.917
374.66	12.855
374.87	14.999
375.07	9.302
375.28	12.710
375.48	12.918
375.69	15.887
375.90	9.952
376.10	10.650
376.31	12.093
376.51	12.047
376.72	11.408
376.92	11.836
377.13	14.232
377.34	16.232
377.54	11.781
377.75	16.186
377.95	12.778
378.16	15.736
378.36	14.097
378.57	14.474
378.77	11.963
378.98	13.672
379.19	13.778
379.39	12.963
379.60	12.993
379.80	14.985
380.01	14.492
380.21	12.148
380.42	13.309
380.62	14.794
380.83	14.319
381.04	12.881
381.24	14.094
381.45	14.903
381.65	11.742
381.86	13.426
382.06	14.611
382.27	11.503
382.47	11.079
382.68	15.108
382.88	10.875
383.09	13.330
383.29	12.400
383.50	15.609
383.71	12.131
383.91	11.838
384.12	11.665
384.32	14.366
384.53	12.698
384.73	12.181
384.94	10.816
385.14	13.299
385.35	10.886
385.55	13.548
385.76	12.363
385.96	14.658
386.17	12.978
386.37	14.152
386.58	11.356
386.78	13.256
386.99	10.002
387.19	15.807
387.40	12.572
387.60	16.351
387.81	11.426
388.01	13.674
388.22	11.478
388.42	16.019
388.63	13.866
388.83	16.816
389.04	10.361
389.24	12.731
389.45	13.448
389.65	12.288
389.86	12.397
390.06	11.903
390.27	10.805
390.47	13.060
390.68	11.555
390.88	16.094
391.09	13.275
391.29	14.379
391.50	12.538
391.70	14.726
391.91	13.322
392.11	14.657
392.32	14.183
392.52	15.731
392.73	12.530
392.93	14.541
393.14	13.054
393.34	14.804
393.55	14.464
393.75	14.889
393.95	13.479
394.16	14.544
394.36	15.059
394.57	14.935
394.77	13.083
394.98	13.778
395.18	14.323
395.39	14.355
395.59	14.443
395.80	13.278
396.00	12.656
396.21	15.872
396.41	10.697
396.61	15.758
396.82	13.830
397.02	17.180
397.23	14.662
397.43	15.834
397.64	12.323
397.84	17.028
398.05	10.594
398.25	15.398
398.45	11.454
398.66	15.449
398.86	12.257
399.07	17.089
399.27	12.859
399.48	15.724
399.68	11.469
399.89	13.025
400.09	14.161
400.29	12.779
400.50	13.148
400.70	16.017
400.91	12.562
401.11	14.277
401.32	13.188
401.52	12.653
401.72	13.382
401.93	16.761
402.13	13.375
402.34	14.582
402.54	12.154
402.75	15.146
402.95	10.028
403.15	15.343
403.36	11.149
403.56	13.992
403.77	12.023
403.97	15.812
404.17	12.471
404.38	15.727
404.58	10.188
404.79	14.404
404.99	14.452
405.19	13.726
405.40	13.319
405.60	15.111
405.81	12.743
406.01	14.418
406.21	14.081
406.42	14.839
406.62	12.453
406.83	15.444
407.03	14.730
407.23	13.710
407.44	13.475
407.64	14.689
407.85	13.422
408.05	13.406
408.25	12.948
408.46	14.880
408.66	13.373
408.87	13.102
409.07	12.752
409.27	12.347
409.48	12.892
409.68	13.425
409.88	11.154
410.09	13.693
410.29	12.505
410.50	15.749
410.70	10.008
410.90	14.152
411.11	11.814
411.31	14.009
411.51	12.364
411.72	14.137
411.92	12.407
412.12	11.545
412.33	10.846
412.53	13.166
412.74	10.433
412.94	13.219
413.14	13.199
413.35	13.006
413.55	12.674
413.75	14.520
413.96	11.554
414.16	12.853
414.36	12.984
414.57	13.063
414.77	10.166
414.97	14.636
415.18	12.376
415.38	13.050
415.58	12.185
415.79	12.498
415.99	10.666
416.19	13.211
416.40	11.978
416.60	12.524
416.80	12.690
417.01	12.910
417.21	10.838
417.41	14.574
417.62	11.411
417.82	13.799
418.02	10.761
418.23	14.586
418.43	12.336
418.63	13.378
418.84	13.327
419.04	13.495
419.24	12.924
419.45	13.966
419.65	13.663
419.85	14.360
420.06	13.441
420.26	14.131
420.46	12.972
420.67	14.201
420.87	13.464
421.07	14.233
421.28	13.314
421.48	14.211
421.68	13.636
421.88	14.293
422.09	13.510
422.29	14.260
422.49	13.802
422.70	14.197
422.90	13.767
423.10	14.408
423.31	13.947
423.51	14.777
423.71	13.283
423.91	14.399
424.12	13.783
424.32	14.318
424.52	13.399
424.73	14.040
424.93	13.417
425.13	14.083
425.33	13.006
425.54	14.647
425.74	13.473
425.94	14.399
426.15	13.399
426.35	14.564
426.55	13.623
426.75	14.994
426.96	13.619
427.16	14.513
427.36	13.857
427.57	15.031
427.77	12.830
427.97	14.711
428.17	14.512
428.38	14.662
428.58	11.699
428.78	14.113
428.98	11.780
429.19	13.555
429.39	10.191
429.59	13.598
429.79	10.908
430.00	12.080
430.20	10.828
430.40	13.249
430.60	11.253
430.81	13.805
431.01	11.332
431.21	13.314
431.41	10.677
431.62	12.946
431.82	12.169
432.02	13.756
432.22	11.260
432.43	11.978
432.63	10.858
432.83	12.914
433.03	11.841
433.24	12.987
433.44	12.142
433.64	13.835
433.84	11.606
434.05	12.911
434.25	12.384
434.45	13.935
434.65	13.506
434.85	14.963
435.06	13.230
435.26	14.071
435.46	12.383
435.66	14.679
435.87	12.399
436.07	14.063
436.27	13.458
436.47	13.482
436.67	11.242
436.88	13.809
437.08	13.232
437.28	12.738
437.48	12.191
437.69	14.001
437.89	12.516
438.09	13.476
438.29	12.668
438.49	12.439
438.70	12.127
438.90	12.420
439.10	12.251
439.30	13.386
439.50	11.347
439.71	13.784
439.91	12.552
440.11	14.129
440.31	12.080
440.51	13.387
440.72	12.756
440.92	13.426
441.12	12.858
441.32	13.738
441.52	13.402
441.72	14.152
441.93	13.060
442.13	14.810
442.33	13.085
442.53	14.883
442.73	12.491
442.94	14.142
443.14	12.812
443.34	14.305
443.54	13.386
443.74	14.726
443.94	12.969
444.15	14.038
444.35	13.053
444.55	13.796
444.75	13.578
444.95	14.043
445.15	12.936
445.36	13.516
445.56	12.170
445.76	14.361
445.96	12.563
446.16	12.930
446.36	12.559
446.57	13.437
446.77	12.758
446.97	13.731
447.17	13.515
447.37	13.740
447.57	13.271
447.77	13.522
447.98	13.517
448.18	14.406
448.38	13.639
448.58	14.532
448.78	13.517
448.98	15.391
449.18	13.483
449.39	15.031
449.59	12.996
449.79	14.170
449.99	13.579
450.19	14.332
450.39	13.239
450.59	13.659
450.79	13.507
451.00	14.949
451.20	14.192
451.40	14.206
451.60	12.866
451.80	14.138
452.00	12.542
452.20	13.303
452.40	13.051
452.61	13.732
452.81	12.860
453.01	14.147
453.21	12.340
453.41	14.010
453.61	12.847
453.81	14.330
454.01	13.817
454.21	13.937
454.42	13.656
454.62	13.688
454.82	12.862
455.02	13.355
455.22	12.706
455.42	13.280
455.62	12.451
455.82	14.223
456.02	12.963
456.23	13.656
456.43	12.234
456.63	13.938
456.83	12.074
457.03	13.529
457.23	12.598
457.43	13.854
457.63	13.357
457.83	13.878
458.03	12.387
458.23	13.326
458.43	11.925
458.64	12.964
458.84	12.653
459.04	13.059
459.24	12.954
459.44	13.262
459.64	12.237
459.84	13.307
460.04	12.670
460.24	13.881
460.44	13.391
460.64	13.948
460.84	13.377
461.04	14.158
461.24	13.803
461.45	14.422
461.65	13.676
461.85	14.492
462.05	13.851
462.25	14.510
462.45	14.400
462.65	14.807
462.85	13.179
463.05	14.421
463.25	12.321
463.45	14.449
463.65	13.519
463.85	13.671
464.05	12.999
464.25	13.665
464.45	12.841
464.65	13.868
464.85	12.154
465.05	13.408
465.26	13.193
465.46	13.736
465.66	13.917
465.86	14.248
466.06	12.319
466.26	13.973
466.46	12.070
466.66	14.284
466.86	13.329
467.06	14.166
467.26	13.633
467.46	14.029
467.66	13.490
467.86	14.442
468.06	13.058
468.26	14.419
468.46	13.788
468.66	14.233
468.86	11.765
469.06	15.713
469.26	13.299
469.46	15.068
469.66	13.079
469.86	14.453
470.06	13.583
470.26	15.366
470.46	13.077
470.66	14.765
470.86	12.922
471.06	15.307
471.26	13.208
471.46	14.776
471.66	14.150
471.86	14.301
472.06	14.191
472.26	16.101
472.46	14.564
472.66	15.487
472.86	14.258
473.06	14.765
473.26	14.540
473.46	15.264
473.66	13.666
473.86	14.821
474.06	14.322
474.26	16.180
474.46	13.566
474.66	15.108
474.86	14.955
475.06	15.717
475.26	14.027
475.46	16.199
475.66	14.003
475.86	15.709
476.06	14.888
476.26	15.680
476.46	14.399
476.66	15.808
476.86	14.308
477.06	15.776
477.26	14.643
477.46	15.816
477.65	15.082
477.85	15.735
478.05	14.213
478.25	15.627
478.45	15.311
478.65	16.411
478.85	15.434
479.05	16.175
479.25	15.210
479.45	16.526
479.65	15.224
479.85	16.072
480.05	15.410
480.25	16.681
480.45	15.345
480.65	16.505
480.85	15.227
481.05	15.722
481.25	15.626
481.44	15.751
481.64	15.187
481.84	15.892
482.04	15.275
482.24	16.063
482.44	15.102
482.64	14.896
482.84	14.749
483.04	15.027
483.24	14.166
483.44	14.612
483.64	13.242
483.84	13.852
484.04	13.845
484.23	14.570
484.43	14.069
484.63	16.058
484.83	15.491
485.03	17.663
485.23	16.272
485.43	17.868
485.63	16.319
485.83	16.736
486.03	14.953
486.23	17.144
486.42	15.708
486.62	16.844
486.82	15.063
487.02	15.942
487.22	14.352
487.42	15.391
487.62	14.074
487.82	15.251
488.02	14.171
488.22	15.606
488.41	14.802
488.61	15.776
488.81	14.497
489.01	15.986
489.21	15.179
489.41	16.355
489.61	15.426
489.81	16.665
490.01	15.853
490.20	16.672
490.40	15.187
490.60	16.542
490.80	15.504
491.00	16.103
491.20	14.783
491.40	15.276
491.60	14.126
491.79	15.026
491.99	14.555
492.19	15.474
492.39	14.117
492.59	15.378
492.79	14.408
492.99	15.770
493.19	15.323
493.38	16.207
493.58	15.747
493.78	16.933
493.98	15.865
494.18	16.841
494.38	15.804
494.58	16.844
494.77	15.539
494.97	16.840
495.17	15.764
495.37	16.636
495.57	15.640
495.77	16.559
495.96	15.868
496.16	16.808
496.36	16.298
496.56	15.977
496.76	15.198
496.96	15.982
497.15	15.147
497.35	16.140
497.55	15.037
497.75	16.472
497.95	15.458
498.15	16.174
498.34	15.439
498.54	15.839
498.74	15.740
498.94	16.294
499.14	15.889
499.34	15.931
499.53	15.610
499.73	16.369
499.93	15.627
500.13	16.105
500.33	15.758
500.52	15.986
500.72	16.218
500.92	16.591
501.12	15.912
501.32	16.385
501.52	16.686
501.71	16.284
501.91	15.749
502.11	17.260
502.31	15.335
502.51	17.561
502.70	16.116
502.90	16.683
503.10	16.266
503.30	16.733
503.50	16.303
503.69	16.617
503.89	16.164
504.09	16.216
504.29	15.401
504.48	15.946
504.68	17.036
504.88	16.338
505.08	16.057
505.28	16.440
505.47	16.393
505.67	16.300
505.87	16.189
506.07	17.070
506.27	16.163
506.46	17.163
506.66	16.252
506.86	17.265
507.06	16.399
507.25	16.699
507.45	16.598
507.65	16.859
507.85	16.210
508.04	17.320
508.24	16.407
508.44	16.848
508.64	16.072
508.83	16.371
509.03	15.866
509.23	16.844
509.43	16.243
509.63	16.312
509.82	15.786
510.02	16.771
510.22	15.890
510.42	16.486
510.61	16.478
510.81	16.761
511.01	15.799
511.21	17.003
511.40	15.691
511.60	16.993
511.80	16.846
511.99	17.204
512.19	16.360
512.39	17.321
512.59	15.932
512.78	17.121
512.98	16.878
513.18	17.476
513.38	17.151
513.57	17.762
513.77	16.388
513.97	17.230
514.17	17.550
514.36	16.638
514.56	17.116
514.76	18.120
514.95	16.576
515.15	17.684
515.35	17.594
515.55	17.344
515.74	17.904
515.94	18.273
516.14	17.182
516.33	17.555
516.53	17.416
516.73	17.790
516.93	17.032
517.12	17.195
517.32	17.726
517.52	17.623
517.71	17.463
517.91	17.523
518.11	16.683
518.30	17.098
518.50	16.076
518.70	16.758
518.90	16.658
519.09	17.628
519.29	16.994
519.49	17.510
519.68	16.604
519.88	18.114
520.08	17.600
520.27	17.477
520.47	17.305
520.67	18.291
520.86	17.516
521.06	19.195
521.26	18.069
521.45	18.271
521.65	17.946
521.85	17.954
522.04	17.939
522.24	17.886
522.44	17.770
522.63	18.390
522.83	17.843
523.03	18.485
523.22	17.576
523.42	18.156
523.62	18.310
523.81	18.602
524.01	18.429
524.21	18.051
524.40	18.283
524.60	17.821
524.80	17.563
524.99	17.581
525.19	17.031
525.39	17.682
525.58	16.681
525.78	17.446
525.98	16.465
526.17	18.150
526.37	16.985
526.57	17.880
526.76	17.276
526.96	17.786
527.15	16.766
527.35	17.960
527.55	17.084
527.74	18.282
527.94	16.793
528.14	17.373
528.33	15.892
528.53	16.616
528.72	16.359
528.92	17.421
529.12	16.778
529.31	17.388
529.51	16.720
529.71	18.506
529.90	17.163
530.10	18.733
530.29	17.578
530.49	19.373
530.69	18.404
530.88	19.455
531.08	18.058
531.28	19.206
531.47	17.943
531.67	18.933
531.86	17.881
532.06	18.605
532.26	17.741
532.45	18.499
532.65	17.232
532.84	17.546
533.04	16.340
533.24	17.571
533.43	16.909
533.63	17.636
533.82	17.205
534.02	18.230
534.22	17.425
534.41	18.188
534.61	17.624
534.80	18.731
535.00	17.957
535.19	19.039
535.39	18.545
535.59	19.310
535.78	17.965
535.98	18.565
536.17	17.660
536.37	18.824
536.57	17.745
536.76	18.298
536.96	17.467
537.15	18.519
537.35	17.958
537.54	18.479
537.74	17.688
537.93	18.996
538.13	17.806
538.33	19.319
538.52	18.318
538.72	19.305
538.91	19.474
539.11	19.754
539.30	18.989
539.50	20.011
539.70	18.284
539.89	18.652
540.09	18.528
540.28	18.728
540.48	17.783
540.67	18.528
540.87	16.934
541.06	17.794
541.26	17.643
541.45	18.327
541.65	17.167
541.85	18.351
542.04	17.610
542.24	19.234
542.43	17.827
542.63	18.716
542.82	18.047
543.02	19.629
543.21	18.677
543.41	19.800
543.60	18.820
543.80	19.896
543.99	19.302
544.19	19.999
544.38	18.549
544.58	19.515
544.77	18.888
544.97	20.010
545.16	19.133
545.36	19.858
545.56	18.899
545.75	19.882
545.95	18.911
546.14	18.968
546.34	19.361
546.53	19.810
546.73	19.303
546.92	19.448
547.12	19.106
547.31	19.910
547.51	19.156
547.70	19.773
547.90	19.282
548.09	20.271
548.29	19.549
548.48	21.122
548.68	19.223
548.87	20.815
549.07	20.219
549.26	20.679
549.46	19.678
549.65	21.109
549.84	20.711
550.04	19.861
550.23	20.453
550.43	21.240
550.62	19.803
550.82	21.434
551.01	19.755
551.21	21.069
551.40	20.465
551.60	20.286
551.79	19.920
551.99	20.875
552.18	19.837
552.38	21.281
552.57	20.663
552.77	20.075
552.96	19.672
553.16	20.617
553.35	20.440
553.54	21.841
553.74	20.982
553.93	21.420
554.13	20.294
554.32	21.338
554.52	21.049
554.71	21.442
554.91	21.403
555.10	21.712
555.29	20.937
555.49	22.108
555.68	20.382
555.88	21.684
556.07	20.767
556.27	21.077
556.46	21.820
556.66	22.862
556.85	21.394
557.04	21.697
557.24	21.643
557.43	21.419
557.63	21.431
557.82	22.001
558.02	22.218
558.21	22.692
558.40	22.390
558.60	22.147
558.79	21.621
558.99	23.272
559.18	22.388
559.38	22.871
559.57	22.321
559.76	22.093
559.96	23.270
560.15	23.295
560.35	22.001
560.54	22.455
560.73	22.424
560.93	22.307
561.12	21.994
561.32	23.068
561.51	23.380
561.70	22.258
561.90	23.314
562.09	22.556
562.29	23.228
562.48	23.023
562.67	23.014
562.87	24.222
563.06	23.291
563.26	23.205
563.45	23.410
563.64	23.624
563.84	23.084
564.03	24.412
564.23	22.629
564.42	24.491
564.61	22.463
564.81	23.381
565.00	23.755
565.20	24.243
565.39	23.779
565.58	23.723
565.78	22.568
565.97	23.813
566.16	23.144
566.36	22.606
566.55	22.551
566.74	23.389
566.94	22.660
567.13	24.122
567.33	23.509
567.52	24.050
567.71	24.154
567.91	23.231
568.10	23.786
568.29	24.525
568.49	23.801
568.68	24.392
568.87	24.124
569.07	24.410
569.26	24.467
569.45	24.345
569.65	23.533
569.84	24.634
570.04	23.847
570.23	23.897
570.42	23.102
570.62	24.618
570.81	24.488
571.00	24.574
571.20	23.411
571.39	24.165
571.58	22.816
571.78	24.084
571.97	22.777
572.16	24.005
572.36	24.061
572.55	24.259
572.74	23.310
572.94	24.604
573.13	23.754
573.32	24.669
573.51	23.380
573.71	24.807
573.90	23.773
574.09	24.262
574.29	24.170
574.48	24.521
574.67	23.698
574.87	24.975
575.06	24.273
575.25	24.133
575.45	24.922
575.64	24.469
575.83	23.674
576.03	25.098
576.22	23.767
576.41	24.934
576.60	23.859
576.80	25.367
576.99	24.650
577.18	24.941
577.38	23.886
577.57	25.100
577.76	25.119
577.95	24.991
578.15	24.400
578.34	25.165
578.53	25.023
578.73	25.723
578.92	24.352
579.11	24.831
579.30	24.500
579.50	24.255
579.69	25.356
579.88	24.252
580.08	24.229
580.27	24.481
580.46	24.694
580.65	24.642
580.85	24.089
581.04	25.443
581.23	24.192
581.42	24.779
581.62	24.160
581.81	24.431
582.00	25.691
582.19	24.634
582.39	24.776
582.58	25.039
582.77	23.494
582.96	26.011
583.16	24.371
583.35	25.566
583.54	24.933
583.73	26.485
583.93	25.587
584.12	24.696
584.31	25.768
584.50	24.897
584.70	25.596
584.89	24.832
585.08	24.001
585.27	24.729
585.47	23.493
585.66	25.245
585.85	23.855
586.04	24.919
586.24	23.939
586.43	24.193
586.62	25.230
586.81	25.102
587.00	23.423
587.20	24.848
587.39	23.831
587.58	24.894
587.77	24.815
587.97	24.561
588.16	24.554
588.35	24.229
588.54	24.388
588.73	24.614
588.93	23.692
589.12	24.700
589.31	23.952
589.50	23.376
589.69	24.915
589.89	25.053
590.08	24.280
590.27	24.837
590.46	23.518
590.65	24.091
590.85	23.963
591.04	25.207
591.23	25.004
591.42	25.044
591.61	24.434
591.81	25.306
592.00	23.898
592.19	25.418
592.38	24.500
592.57	25.358
592.77	25.527
592.96	25.334
593.15	26.254
593.34	25.667
593.53	25.008
593.72	25.107
593.92	24.959
594.11	24.618
594.30	24.952
594.49	25.827
594.68	24.850
594.87	24.712
595.07	24.181
595.26	26.007
595.45	24.356
595.64	26.233
595.83	25.216
596.02	26.327
596.22	25.200
596.41	25.593
596.60	26.006
596.79	24.317
596.98	25.047
597.17	25.115
597.37	25.717
597.56	26.468
597.75	25.170
597.94	25.871
598.13	25.266
598.32	26.196
598.51	25.678
598.71	26.837
598.90	25.763
599.09	26.512
599.28	25.167
599.47	27.719
599.66	25.377
599.85	27.339
600.05	26.145
600.24	27.504
600.43	26.810
600.62	26.832
600.81	26.592
601.00	28.276
601.19	26.092
601.38	26.459
601.58	26.562
601.77	27.302
601.96	25.640
602.15	28.001
602.34	25.821
602.53	26.949
602.72	26.947
602.91	27.797
603.10	26.232
603.30	27.171
603.49	26.680
603.68	26.618
603.87	27.047
604.06	26.584
604.25	25.637
604.44	26.183
604.63	26.772
604.82	27.101
605.01	25.890
605.21	27.279
605.40	26.526
605.59	27.037
605.78	26.863
605.97	26.849
606.16	26.214
606.35	27.720
606.54	28.162
606.73	28.744
606.92	28.190
607.11	28.737
607.30	27.014
607.50	27.992
607.69	27.608
607.88	27.561
608.07	25.568
608.26	27.028
608.45	27.942
608.64	27.408
608.83	26.717
609.02	26.240
609.21	25.986
609.40	26.658
609.59	25.881
609.78	27.770
609.97	25.439
610.16	25.896
610.35	26.841
610.55	26.965
610.74	25.706
610.93	26.810
611.12	26.815
611.31	26.866
611.50	26.904
611.69	27.082
611.88	26.421
612.07	27.875
612.26	26.303
612.45	27.624
612.64	26.254
612.83	28.117
613.02	27.399
613.21	25.764
613.40	26.040
613.59	27.442
613.78	27.123
613.97	27.467
614.16	27.432
614.35	26.903
614.54	25.174
614.73	26.181
614.92	25.661
615.11	26.465
615.30	26.157
615.49	27.830
615.68	26.694
615.87	27.993
616.07	23.828
616.26	25.285
616.45	26.868
616.64	27.898
616.83	26.514
617.02	26.721
617.21	24.638
617.40	25.841
617.59	25.565
617.78	25.165
617.97	25.477
618.16	26.484
618.35	24.087
618.54	26.917
618.73	25.290
618.92	25.984
619.11	24.709
619.30	25.755
619.49	24.211
619.68	26.593
619.86	25.185
620.05	25.097
620.24	26.708
620.43	25.553
620.62	24.610
620.81	25.603
621.00	25.160
621.19	26.549
621.38	24.711
621.57	25.741
621.76	24.411
621.95	25.378
622.14	25.263
622.33	24.690
622.52	24.677
622.71	26.615
622.90	24.836
623.09	26.013
623.28	23.518
623.47	25.616
623.66	24.760
623.85	24.532
624.04	24.661
624.23	24.894
624.42	23.924
624.61	25.242
624.80	23.195
624.99	25.203
625.18	22.780
625.36	26.079
625.55	25.106
625.74	25.560
625.93	24.699
626.12	24.476
626.31	24.709
626.50	25.193
626.69	23.980
626.88	25.647
627.07	25.272
627.26	26.051
627.45	24.428
627.64	24.412
627.83	24.173
628.02	24.955
628.20	24.207
628.39	24.506
628.58	23.810
628.77	25.739
628.96	25.158
629.15	25.535
629.34	24.199
629.53	25.401
629.72	24.457
629.91	24.209
630.10	24.078
630.29	23.952
630.47	23.505
630.66	24.236
630.85	23.839
631.04	24.765
631.23	25.923
631.42	24.224
631.61	23.879
631.80	24.028
631.99	24.117
632.18	23.866
632.36	23.971
632.55	25.398
632.74	23.639
632.93	24.759
633.12	23.436
633.31	24.942
633.50	23.034
633.69	22.805
633.88	23.531
634.06	24.271
634.25	23.949
634.44	23.689
634.63	23.587
634.82	23.681
635.01	23.821
635.20	22.185
635.39	24.287
635.57	25.211
635.76	23.912
635.95	24.019
636.14	22.703
636.33	24.338
636.52	23.652
636.71	25.384
636.89	23.992
637.08	24.622
637.27	22.413
637.46	25.945
637.65	22.659
637.84	23.252
638.03	23.238
638.21	25.310
638.40	24.019
638.59	23.789
638.78	23.495
638.97	22.424
639.16	24.811
639.34	22.950
639.53	21.811
639.72	23.559
639.91	22.366
640.10	24.074
640.29	23.262
640.47	25.066
640.66	22.646
640.85	25.592
641.04	22.763
641.23	22.888
641.42	22.533
641.60	24.857
641.79	21.737
641.98	23.079
642.17	22.909
642.36	24.526
642.54	21.179
642.73	24.723
642.92	21.914
643.11	24.232
643.30	21.302
643.49	24.392
643.67	23.085
643.86	24.600
644.05	20.854
644.24	22.693
644.43	21.131
644.61	23.240
644.80	21.286
644.99	23.263
645.18	23.783
645.37	21.934
645.55	22.219
645.74	24.428
645.93	22.938
646.12	23.345
646.31	22.208
646.49	22.843
646.68	22.838
646.87	23.416
647.06	21.931
647.24	24.748
647.43	20.362
647.62	23.238
647.81	20.348
648.00	24.856
648.18	20.853
648.37	24.573
648.56	23.147
648.75	22.797
648.93	23.185
649.12	24.644
649.31	22.562
649.50	22.473
649.68	23.279
649.87	22.201
650.06	21.296
650.25	22.819
650.43	21.671
650.62	21.882
650.81	19.637
651.00	22.699
651.18	21.995
651.37	24.227
651.56	21.951
651.75	23.196
651.93	20.680
652.12	24.367
652.31	20.630
652.50	23.654
652.68	24.604
652.87	22.593
653.06	23.406
653.25	24.183
653.43	20.163
653.62	23.679
653.81	21.213
654.00	23.462
654.18	20.733
654.37	23.883
654.56	20.924
654.74	21.025
654.93	19.927
655.12	22.464
655.31	19.694
655.49	22.159
655.68	19.582
655.87	19.542
656.05	19.110
656.24	20.656
656.43	18.788
656.62	21.050
656.80	20.513
656.99	19.901
657.18	18.773
657.36	21.697
657.55	19.677
657.74	21.022
657.93	19.944
658.11	21.746
658.30	20.213
658.49	19.575
658.67	19.690
658.86	19.940
659.05	19.029
659.23	21.267
659.42	18.184
659.61	19.276
659.79	18.734
659.98	19.861
660.17	19.381
660.35	19.454
660.54	18.897
660.73	20.903
660.91	17.208
661.10	20.859
661.29	17.795
661.47	18.825
661.66	17.955
661.85	19.119
662.03	15.608
662.22	17.641
662.41	14.134
662.59	19.636
662.78	15.395
662.97	17.221
663.15	14.262
663.34	14.836
663.53	13.543
663.71	16.924
663.90	15.479
664.09	15.928
664.27	17.758
664.46	15.767
664.65	12.335
664.83	13.175
665.02	13.436
665.21	16.010
665.39	12.172
665.58	15.312
665.77	14.640
665.95	14.706
666.14	13.272
666.32	15.705
666.51	13.811
666.70	13.693
666.88	12.830
667.07	12.548
667.26	10.961
667.44	13.017
667.63	14.192
667.81	12.570
668.00	11.974
668.19	15.902
668.37	14.616
668.56	16.092
668.75	11.094
668.93	15.604
669.12	11.667
669.30	15.169
669.49	9.727
669.68	13.573
669.86	13.821
670.05	12.303
670.23	11.596
670.42	11.878
670.61	13.954
670.79	13.213
670.98	11.781
671.16	13.602
671.35	11.146
671.54	14.024
671.72	12.931
671.91	12.888
672.09	12.867
672.28	13.784
672.46	14.425
672.65	12.856
672.84	13.722
673.02	15.652
673.21	10.751
673.39	12.720
673.58	13.094
673.77	12.285
673.95	10.315
674.14	14.577
674.32	11.545
674.51	16.273
674.69	10.584
674.88	12.423
675.07	10.663
675.25	16.917
675.44	12.333
675.62	11.884
675.81	12.547
675.99	18.182
676.18	13.286
676.36	13.944
676.55	12.219
676.74	14.808
676.92	15.167
677.11	12.287
677.29	10.151
677.48	16.539
677.66	13.924
677.85	11.910
678.03	13.633
678.22	15.723
678.40	11.661
678.59	12.146
678.78	10.670
678.96	14.123
679.15	13.913
679.33	15.260
679.52	15.456
679.70	13.860
679.89	14.175
680.07	15.451
680.26	11.526
680.44	15.245
680.63	13.462
680.81	14.651
681.00	11.840
681.18	15.802
681.37	15.192
681.55	17.062
681.74	16.210
681.92	16.032
682.11	15.479
682.29	13.661
682.48	13.331
682.66	15.289
682.85	15.637
683.03	16.945
683.22	16.708
683.40	17.138
683.59	16.319
683.77	16.388
683.96	15.058
684.14	17.067
684.33	13.895
684.51	18.252
684.70	16.879
684.88	18.904
685.07	16.458
685.25	19.420
685.44	16.049
685.62	17.108
685.81	14.561
685.99	18.812
686.18	16.914
686.36	19.068
686.55	12.975
686.73	18.546
686.92	18.658
687.10	19.715
687.29	17.375
687.47	18.933
687.65	19.066
687.84	19.915
688.02	21.356
688.21	22.175
688.39	16.314
688.58	22.384
688.76	21.534
688.95	21.082
689.13	18.283
689.32	22.985
689.50	21.171
689.68	23.854
689.87	20.478
690.05	23.134
690.24	23.855
690.42	25.009
690.61	23.041
690.79	25.649
690.98	26.406
691.16	24.797
691.34	19.483
691.53	26.557
691.71	23.403
691.90	24.722
692.08	24.000
692.27	26.780
692.45	25.177
692.63	28.721
692.82	26.935
693.00	26.077
693.19	25.578
693.37	27.325
693.56	29.049
693.74	30.918
693.92	27.380
694.11	30.324
694.29	27.811
694.48	31.968
694.66	29.626
694.84	32.805
695.03	28.511
695.21	31.671
695.40	30.570
695.58	33.261
695.76	30.908
695.95	35.136
696.13	30.018
696.32	33.960
696.50	36.102
696.68	32.827
696.87	34.700
697.05	34.734
697.24	34.803
697.42	40.950
697.60	34.822
697.79	37.054
697.97	36.935
698.16	38.819
698.34	35.033
698.52	38.502
698.71	34.802
698.89	37.064
699.07	36.776
699.26	36.440
699.44	36.604
699.63	37.442
699.81	35.947
699.99	38.578
700.18	37.754
700.36	38.667
700.54	38.232
700.73	42.077
700.91	37.500
701.09	38.724
701.28	37.277
701.46	42.014
701.64	38.966
701.83	41.176
702.01	39.153
702.20	43.555
702.38	40.196
702.56	40.750
702.75	41.663
702.93	42.409
703.11	42.940
703.30	43.437
703.48	42.533
703.66	47.867
703.85	42.246
704.03	46.258
704.21	45.370
704.40	46.368
704.58	42.285
704.76	44.613
704.95	42.161
705.13	44.579
705.31	42.546
705.50	45.095
705.68	44.164
705.86	47.940
706.04	44.303
706.23	49.026
706.41	46.842
706.59	45.518
706.78	44.983
706.96	46.192
707.14	46.135
707.33	45.626
707.51	46.584
707.69	47.022
707.88	43.884
708.06	46.813
708.24	47.335
708.42	47.528
708.61	44.212
708.79	49.230
708.97	48.857
709.16	48.619
709.34	50.416
709.52	51.266
709.71	47.704
709.89	51.193
710.07	46.917
710.25	47.864
710.44	43.539
710.62	47.822
710.80	50.000
710.98	46.940
711.17	48.578
711.35	49.360
711.53	46.047
711.72	49.779
711.90	47.472
712.08	48.465
712.26	45.042
712.45	48.143
712.63	48.332
712.81	48.306
712.99	48.871
713.18	51.105
713.36	47.707
713.54	45.549
713.72	46.542
713.91	49.633
714.09	47.563
714.27	48.770
714.45	48.592
714.64	48.086
714.82	47.757
715.00	47.397
715.18	49.180
715.37	47.989
715.55	48.592
715.73	50.231
715.91	50.419
716.10	48.531
716.28	46.341
716.46	52.048
716.64	48.169
716.83	49.781
717.01	48.299
717.19	49.099
717.37	49.658
717.55	46.711
717.74	47.520
717.92	46.926
718.10	43.954
718.28	48.796
718.47	51.438
718.65	49.116
718.83	45.932
719.01	52.827
719.19	46.944
719.38	48.909
719.56	48.376
719.74	47.261
719.92	45.036
720.10	44.413
720.29	47.130
720.47	50.354
720.65	48.566
720.83	52.825
721.01	48.978
721.20	52.900
721.38	47.347
721.56	50.308
721.74	50.127
721.92	53.125
722.11	49.617
722.29	49.442
722.47	51.050
722.65	53.296
722.83	53.375
723.01	53.026
723.20	52.894
723.38	55.062
723.56	50.589
723.74	51.474
723.92	49.645
724.10	49.254
724.29	47.980
724.47	53.096
724.65	49.438
724.83	53.655
725.01	49.904
725.19	53.299
725.38	47.965
725.56	53.691
725.74	52.662
725.92	52.583
726.10	48.242
726.28	53.050
726.46	53.517
726.65	48.844
726.83	52.387
727.01	54.829
727.19	51.965
727.37	52.810
727.55	49.968
727.73	52.708
727.92	50.120
728.10	53.106
728.28	46.293
728.46	52.133
728.64	52.763
728.82	51.830
729.00	51.515
729.19	49.415
729.37	53.488
729.55	51.881
729.73	50.059
729.91	53.787
730.09	53.221
730.27	51.519
730.45	54.958
730.63	52.719
730.82	47.879
731.00	57.634
731.18	54.614
731.36	54.391
731.54	49.500
731.72	58.864
731.90	52.599
732.08	55.549
732.26	49.972
732.45	56.328
732.63	49.577
732.81	54.965
732.99	50.058
733.17	50.555
733.35	51.863
733.53	52.519
733.71	52.397
733.89	55.273
734.07	50.460
734.25	53.229
734.44	54.509
734.62	51.906
734.80	55.680
734.98	57.047
735.16	52.373
735.34	59.075
735.52	55.656
735.70	54.631
735.88	57.702
736.06	58.384
736.24	57.576
736.42	63.478
736.60	53.688
736.78	57.314
736.97	53.814
737.15	58.327
737.33	56.876
737.51	58.286
737.69	62.301
737.87	55.834
738.05	56.399
738.23	58.533
738.41	55.802
738.59	56.488
738.77	56.864
738.95	54.870
739.13	59.038
739.31	51.624
739.49	53.351
739.67	59.084
739.85	59.747
740.03	59.576
740.21	55.170
740.39	58.973
740.57	60.372
740.75	58.790
740.93	56.286
741.11	55.763
741.30	60.475
741.48	59.558
741.66	62.048
741.84	56.767
742.02	55.753
742.20	61.533
742.38	57.165
742.56	59.985
742.74	56.211
742.92	60.312
743.10	53.701
743.28	60.873
743.46	60.050
743.64	60.359
743.82	56.634
744.00	58.668
744.18	64.206
744.36	62.181
744.54	61.993
744.72	64.146
744.90	64.492
745.08	60.137
745.26	59.710
745.44	59.862
745.62	60.601
745.80	57.734
745.98	63.588
746.16	63.129
746.34	62.182
746.52	62.647
746.70	58.703
746.87	63.430
747.05	62.789
747.23	63.260
747.41	60.521
747.59	66.179
747.77	64.813
747.95	59.184
748.13	55.100
748.31	67.681
748.49	62.581
748.67	69.540
748.85	61.833
749.03	64.964
749.21	60.756
749.39	64.606
749.57	60.109
749.75	63.550
749.93	64.177
750.11	61.809
750.29	60.274
750.47	64.341
750.65	61.116
750.83	65.349
751.01	61.141
751.18	57.925
751.36	63.504
751.54	61.059
751.72	63.577
751.90	58.711
752.08	61.287
752.26	59.807
752.44	60.185
752.62	60.908
752.80	62.989
752.98	61.432
753.16	61.116
753.34	66.427
753.52	65.004
753.69	65.562
753.87	59.704
754.05	63.056
754.23	65.654
754.41	61.687
754.59	55.979
754.77	62.195
754.95	59.476
755.13	64.004
755.31	61.163
755.49	63.776
755.66	60.477
755.84	61.578
756.02	59.387
756.20	66.259
756.38	60.345
756.56	60.673
756.74	60.521
756.92	61.682
757.10	64.762
757.28	59.695
757.45	68.219
757.63	59.912
757.81	60.381
757.99	62.123
758.17	61.488
758.35	62.717
758.53	65.494
758.71	65.498
758.88	61.545
759.06	61.462
759.24	54.386
759.42	58.701
759.60	55.524
759.78	56.822
759.96	44.854
760.13	52.464
760.31	44.938
760.49	44.765
760.67	43.786
760.85	49.068
761.03	42.138
761.21	41.904
761.38	39.966
761.56	43.875
761.74	39.397
761.92	45.236
762.10	41.854
762.28	46.010
762.46	38.248
762.63	44.847
762.81	39.243
762.99	43.241
763.17	44.688
763.35	42.316
763.53	41.808
763.70	43.179
763.88	44.067
764.06	43.851
764.24	38.772
764.42	43.904
764.60	44.487
764.77	47.169
764.95	43.623
765.13	43.164
765.31	45.044
765.49	48.007
765.66	46.499
765.84	51.669
766.02	47.368
766.20	51.595
766.38	54.032
766.56	51.159
766.73	51.813
766.91	53.600
767.09	53.086
767.27	57.272
767.45	53.092
767.62	54.931
767.80	56.988
767.98	61.615
768.16	56.129
768.33	59.569
768.51	56.471
768.69	60.421
768.87	61.759
769.05	61.809
769.22	56.530
769.40	60.266
769.58	59.937
769.76	62.725
769.94	65.485
770.11	61.339
770.29	60.949
770.47	67.861
770.65	67.820
770.82	67.055
771.00	65.041
771.18	66.740
771.36	61.910
771.53	63.333
771.71	71.342
771.89	66.300
772.07	62.215
772.25	63.700
772.42	62.736
772.60	66.822
772.78	64.619
772.96	67.391
773.13	65.614
773.31	73.254
773.49	70.346
773.67	64.159
773.84	63.325
774.02	69.434
774.20	68.892
774.37	67.962
774.55	68.655
774.73	75.228
774.91	63.936
775.08	68.293
775.26	72.951
775.44	70.565
775.62	67.762
775.79	72.559
775.97	63.378
776.15	69.231
776.32	65.369
776.50	84.384
776.68	77.003
776.86	68.625
777.03	64.564
777.21	63.588
777.39	72.661
777.56	76.731
777.74	64.352
777.92	72.627
778.10	68.555
778.27	67.881
778.45	74.629
778.63	71.111
778.80	62.865
778.98	69.343
779.16	76.170
779.34	69.371
779.51	68.471
779.69	66.014
779.87	68.880
780.04	68.529
780.22	67.190
780.40	77.273
780.57	70.886
780.75	69.210
780.93	74.262
781.10	72.741
781.28	67.623
781.46	66.347
781.63	73.862
781.81	80.087
781.99	62.737
782.16	62.281
782.34	71.363
782.52	66.096
782.69	66.388
782.87	65.919
783.05	61.429
783.22	64.762
783.40	66.409
783.58	68.759
783.75	65.657
783.93	80.597
784.11	63.740
784.28	72.013
784.46	69.327
784.64	72.441
784.81	70.192
784.99	64.929
785.17	66.885
785.34	70.724
785.52	59.837
785.69	61.431
785.87	71.164
786.05	72.308
786.22	72.283
786.40	81.908
786.58	73.248
786.75	62.939
786.93	63.133
787.11	70.465
787.28	70.767
787.46	74.756
787.63	64.444
787.81	68.645
787.99	69.544
788.16	64.697
788.34	65.306
788.51	65.538
788.69	65.929
788.87	63.555
789.04	57.843
789.22	67.781
789.39	62.003
789.57	57.812
789.75	55.059
789.92	62.382
790.10	50.000
790.27	68.511
790.45	59.317
790.63	59.527
790.80	66.667
790.98	62.754
791.15	57.229
791.33	74.163
791.51	61.169
791.68	69.889
791.86	63.576
792.03	62.500
792.21	59.567
792.39	62.461
792.56	61.270
792.74	58.230
792.91	64.884
793.09	65.397
793.26	64.437
793.44	68.611
793.62	66.508
793.79	66.612
793.97	70.213
794.14	69.138
794.32	69.288
794.49	69.926
794.67	68.165
794.84	62.917
795.02	66.951
795.20	73.346
795.37	66.834
795.55	68.252
795.72	66.608
795.90	66.834
796.07	66.207
796.25	61.706
796.42	62.783
796.60	63.934
796.77	60.862
796.95	67.624
797.13	53.398
797.30	68.386
797.48	60.682
797.65	66.139
797.83	59.792
798.00	69.094
798.18	55.296
798.35	66.189
798.53	65.333
798.70	61.985
798.88	67.057
799.05	61.838
799.23	67.081
799.40	61.624
799.58	68.385
799.75	67.647
799.93	58.247
800.10	68.702
800.28	70.543
800.45	71.634
800.63	68.345
800.80	76.938
800.98	62.082
801.15	64.602
801.33	58.554
801.50	54.922
801.68	59.345
801.85	68.439
802.03	55.705
802.20	69.850
802.38	54.947
802.55	67.885
802.73	65.217
802.90	67.532
803.08	54.093
803.25	70.000
803.43	56.093
803.60	69.087
803.78	67.608
803.95	69.512
804.13	63.668
804.30	66.798
804.48	61.896
804.65	66.929
804.83	63.744
805.00	60.345
805.17	66.019
805.35	65.909
805.52	68.834
805.70	62.264
805.87	60.444
806.05	72.077
806.22	61.896
806.40	58.382
806.57	60.861
806.75	66.972
806.92	65.088
807.09	73.624
807.27	58.579
807.44	68.511
807.62	59.003
807.79	69.286
807.97	71.403
808.14	65.800
808.31	61.728
808.49	65.377
808.66	65.703
808.84	62.016
809.01	71.550
809.19	77.778
809.36	75.153
809.53	67.460
809.71	52.896
809.88	63.415
810.06	66.535
810.23	68.000
810.41	60.788
810.58	72.939
810.75	60.086
810.93	65.286
811.10	56.632
811.28	60.626
811.45	53.249
811.62	62.247
811.80	62.128
811.97	67.532
812.15	69.231
812.32	57.759
812.49	66.231
812.67	67.660
812.84	56.264
813.02	76.457
813.19	58.691
813.36	69.631
813.54	64.823
813.71	64.318
813.89	66.520
814.06	66.667
814.23	69.266
814.41	66.194
814.58	63.942
814.75	83.047
814.93	63.333
815.10	70.513
815.28	66.422
815.45	50.000
815.62	57.074
815.80	54.273
815.97	51.346
816.14	58.562
816.32	60.636
816.49	68.947
816.66	51.250
816.84	62.304
817.01	65.510
817.18	58.275
817.36	57.437
817.53	76.866
817.71	44.060
817.88	53.409
818.05	66.890
818.23	48.810
818.40	54.717
818.57	60.684
818.75	58.237
818.92	56.250
819.09	56.693
819.27	58.039
819.44	55.865
819.61	52.768
819.79	53.498
819.96	54.653
820.13	57.340
820.31	53.913
820.48	55.255
820.65	58.010
820.82	51.713
821.00	52.263
821.17	47.353
821.34	53.219
821.52	44.444
821.69	41.442
821.86	44.444
822.04	42.534
822.21	38.440
822.38	45.411
822.56	41.091
822.73	43.728
822.90	41.555
823.07	42.148
823.25	41.808
823.42	40.232
823.59	41.453
823.77	41.535
823.94	40.039
824.11	40.487
824.29	40.786
824.46	44.084
824.63	44.407
824.80	42.982
824.98	43.600
825.15	45.363
825.32	39.642
825.49	46.727
825.67	38.388
825.84	46.918
826.01	43.188
826.19	44.582
826.36	38.753
826.53	45.935
826.70	41.694
826.88	46.129
827.05	41.128
827.22	44.819
827.39	41.309
827.57	48.003
827.74	39.913
827.91	41.156
828.08	39.716
828.26	38.646
828.43	38.616
828.60	44.758
828.77	42.246
828.95	42.032
829.12	36.604
829.29	39.155
829.46	39.893
829.64	44.652
829.81	36.467
829.98	47.296
830.15	44.217
830.32	48.424
830.50	43.391
830.67	49.357
830.84	46.567
831.01	43.730
831.19	48.252
831.36	63.008
831.53	46.032
831.70	59.309
831.87	54.959
832.05	56.832
832.22	70.179
832.39	51.522
832.56	48.601
832.74	49.330
832.91	61.814
833.08	59.919
833.25	47.452
833.42	55.786
833.60	44.118
833.77	42.810
833.94	39.674
834.11	43.394
834.28	35.142
834.45	37.190
834.63	35.091
834.80	44.586
834.97	41.320
835.14	42.812
835.31	40.800
835.49	38.105
835.66	40.844
835.83	39.505
836.00	40.538
836.17	42.749
836.34	39.423
836.52	41.447
836.69	53.669
836.86	43.594
837.03	57.167
837.20	43.429
837.37	50.091
837.55	51.327
837.72	50.289
837.89	61.578
838.06	57.452
838.23	54.785
838.40	63.593
838.58	54.133
838.75	55.840
838.92	77.586
839.09	71.958
839.26	68.449
839.43	70.029
839.60	65.217
839.78	85.494
839.95	68.078
840.12	75.633
840.29	83.121
840.46	81.469
840.63	77.647
840.80	56.800
840.98	78.857
841.15	57.250
841.32	57.845
841.49	64.928
841.66	67.486
841.83	64.800
842.00	55.696
842.17	74.521
842.34	50.430
842.52	76.647
842.69	79.874
842.86	57.093
843.03	83.648
843.20	85.714
843.37	81.818
843.54	74.390
843.71	83.265
843.88	98.675
844.06	93.522
844.23	111.111
844.40	85.606
844.57	85.957
844.74	89.520
844.91	117.130
845.08	98.824
845.25	89.781
845.42	91.457
845.59	139.766
845.76	92.727
845.94	142.405
846.11	110.945
846.28	104.138
846.45	116.564
846.62	118.919
846.79	123.333
846.96	95.928
847.13	127.059
847.30	114.141
847.47	115.934
847.64	106.395
847.81	114.835
847.98	100.541
848.15	118.280
848.32	117.526
848.50	124.845
848.67	156.944
848.84	114.646
849.01	126.531
849.18	103.158
849.35	108.377
849.52	131.792
849.69	100.578
849.86	123.926
850.03	128.082
850.20	143.750
850.37	124.286
850.54	147.170
850.71	144.715
850.88	123.776
851.05	127.397
851.22	136.025
851.39	126.804
851.56	101.389
851.73	128.333
851.90	136.250
852.07	125.294
852.24	123.529
852.41	162.774
852.58	104.545
852.75	120.710
852.92	93.478
853.09	117.318
853.26	129.299
853.43	81.818
853.60	120.103
853.77	129.787
853.94	107.576
854.11	144.444
854.28	155.319
854.45	125.175
854.62	122.819
854.79	141.538
854.96	131.884
855.13	115.556
855.30	111.917
855.47	117.931
855.64	166.667
855.81	157.143
855.98	127.333
856.15	100.000
856.32	107.981
856.49	110.959
856.66	127.326
856.83	125.131
857.00	169.672
857.17	160.000
857.34	128.030
857.51	112.179
857.68	131.429
857.85	133.939
858.02	244.595
858.19	142.857
858.36	125.143
858.53	130.857
858.70	118.543
858.87	153.793
859.04	146.479
859.21	101.739
859.38	100.000
859.55	194.444
859.72	160.331
859.89	174.510
860.05	144.961
860.22	146.711
860.39	166.355
860.56	162.385
860.73	128.916
860.90	126.667
861.07	128.962
861.24	141.880
861.41	150.000
861.58	100.000
861.75	148.148
861.92	131.496
862.09	137.349
862.26	214.894
862.43	142.857
862.59	98.462
862.76	122.449
862.93	173.913
863.10	127.586
863.27	124.324
863.44	110.526
863.61	151.176
863.78	142.958
863.95	180.153
864.12	115.278
864.29	128.682
864.45	171.233
864.62	135.338
864.79	106.757
864.96	149.206
865.13	181.679
865.30	190.909
865.47	175.000
865.64	100.625
865.81	111.111
865.97	101.639
866.14	106.190
866.31	139.837
866.48	127.907
866.65	137.000
866.82	144.966
866.99	181.553
867.16	177.143
867.33	145.299
867.49	148.905
867.66	145.631
867.83	154.400
868.00	129.787
868.17	150.758
868.34	143.151
868.51	116.197
868.67	177.686
868.84	143.537
869.01	148.031
869.18	126.357
869.35	162.222
869.52	142.466
869.69	96.947
869.85	104.278
870.02	115.888
870.19	205.882
870.36	110.884
870.53	86.932
870.70	93.023
870.86	95.597
871.03	151.261
871.20	113.245
871.37	106.699
871.54	119.310
871.71	91.358
871.87	121.918
872.04	102.581
872.21	211.828
872.38	104.908
872.55	142.254
872.72	98.605
872.88	97.041
873.05	82.418
873.22	125.595
873.39	107.927
873.56	112.717
873.72	142.537
873.89	117.391
874.06	125.658
874.23	176.271
874.40	142.657
874.56	176.415
874.73	118.478
874.90	122.599
875.07	121.528
875.24	72.254
875.40	85.806
875.57	116.667
875.74	104.000
875.91	119.835
876.08	131.061
876.24	140.260
876.41	130.233
876.58	136.646
876.75	92.262
876.92	121.239
877.08	118.750
877.25	112.658
877.42	103.704
877.59	106.294
877.75	124.832
877.92	136.000
878.09	112.782
878.26	141.558
878.42	115.217
878.59	116.176
878.76	125.000
878.93	122.807
879.09	108.511
879.26	88.108
879.43	105.294
879.60	122.840
879.76	111.765
879.93	98.734
880.10	81.481
880.27	78.899
880.43	104.390
880.60	87.671
880.77	82.684
880.94	65.455
881.10	71.032
881.27	54.133
881.44	50.115
881.61	47.380
881.77	49.405
881.94	34.856
882.11	29.781
882.28	35.417
882.44	37.363
882.61	36.695
882.78	36.866
882.94	41.368
883.11	35.505
883.28	32.636
883.45	35.075
883.61	33.234
883.78	32.303
883.95	39.646
884.11	35.484
884.28	40.380
>>>>>End Processed Spectral Data<<<<<
