SpectraSuite Data File
++++++++++++++++++++++++++++++++++++
Date: Fri Sep 20 03:45:01 EST 2019
User: sgrac
Dark Spectrum Present: Yes
Reference Spectrum Present: Yes
Number of Sampled Component Spectra: 1
Spectrometers: USB4E01596
Integration Time (usec): 100000 (USB4E01596)
Spectra Averaged: 1 (USB4E01596)
Boxcar Smoothing: 0 (USB4E01596)
Correct for Electrical Dark: No (USB4E01596)
Strobe/Lamp Enabled: Yes (USB4E01596)
Correct for Detector Non-linearity: No (USB4E01596)
Correct for Stray Light: No (USB4E01596)
Number of Pixels in Processed Spectrum: 3648
>>>>>Begin Processed Spectral Data<<<<<
178.44	578.261
178.66	578.261
178.87	578.261
179.09	-500.000
179.30	393.333
179.52	610.714
179.74	2960.000
179.95	-382.857
180.17	-831.250
180.38	-962.500
180.60	-503.226
180.82	721.739
181.03	-3425.000
181.25	-2020.000
181.46	-1309.091
181.68	0.000
181.89	15200.000
182.11	1575.000
182.33	1507.692
182.54	-394.286
182.76	368.000
182.97	588.889
183.19	1811.111
183.40	-937.500
183.62	928.571
183.84	-320.000
184.05	0.000
184.27	10700.000
184.48	700.000
184.70	7250.000
184.91	1169.231
185.13	479.545
185.34	287.037
185.56	-738.095
185.78	836.842
185.99	-8350.000
186.21	650.000
186.42	1100.000
186.64	217.910
186.85	249.383
187.07	808.333
187.28	-202.703
187.50	-659.091
187.72	268.750
187.93	20800.000
188.15	781.818
188.36	348.077
188.58	847.059
188.79	9000.000
189.01	497.059
189.22	1333.333
189.44	419.149
189.65	-910.000
189.87	985.714
190.09	505.556
190.30	-2860.000
190.52	387.805
190.73	777.778
190.95	-1023.077
191.16	-1025.000
191.38	-708.696
191.59	1377.778
191.81	425.000
192.02	417.500
192.24	295.238
192.45	508.571
192.67	754.545
192.88	0.000
193.10	600.000
193.31	-920.000
193.53	327.273
193.74	413.158
193.96	1880.000
194.18	297.101
194.39	360.000
194.61	573.333
194.82	593.103
195.04	1391.667
195.25	348.936
195.47	1126.316
195.68	-1180.000
195.90	4075.000
196.11	3850.000
196.33	-544.444
196.54	617.241
196.76	264.444
196.97	883.333
197.19	-861.111
197.40	447.222
197.62	-871.429
197.83	1073.333
198.05	536.842
198.26	522.727
198.48	1366.667
198.69	611.429
198.91	2085.714
199.12	507.500
199.34	286.154
199.55	-1118.182
199.77	895.000
199.98	3840.000
200.20	1345.455
200.41	572.727
200.63	-2900.000
200.84	507.317
201.06	-16200.000
201.27	923.529
201.49	291.803
201.70	1123.529
201.91	1081.250
202.13	820.000
202.34	3375.000
202.56	2114.286
202.77	-3183.333
202.99	1293.333
203.20	571.429
203.42	-425.000
203.63	603.226
203.85	-645.833
204.06	4500.000
204.28	-3750.000
204.49	1557.143
204.71	331.250
204.92	1911.111
205.14	0.000
205.35	1126.667
205.56	539.286
205.78	569.231
205.99	467.568
206.21	589.655
206.42	2966.667
206.64	-304.878
206.85	1086.667
207.07	1246.154
207.28	520.000
207.50	-1925.000
207.71	460.465
207.93	9150.000
208.14	-318.919
208.35	534.483
208.57	-781.250
208.78	703.448
209.00	381.579
209.21	0.000
209.43	834.783
209.64	425.581
209.86	2114.286
210.07	1400.000
210.28	657.143
210.50	3580.000
210.71	407.692
210.93	376.316
211.14	359.016
211.36	457.143
211.57	2587.500
211.78	-736.364
212.00	553.846
212.21	-831.579
212.43	535.484
212.64	414.286
212.86	653.571
213.07	564.286
213.29	238.158
213.50	-402.941
213.71	-13800.000
213.93	-2022.222
214.14	1133.333
214.36	-2071.429
214.57	251.163
214.78	431.429
215.00	-5733.333
215.21	-2400.000
215.43	-475.758
215.64	1000.000
215.86	-3325.000
216.07	733.333
216.28	314.516
216.50	331.915
216.71	-3000.000
216.93	1121.429
217.14	502.778
217.35	268.421
217.57	-933.333
217.78	1345.455
218.00	356.818
218.21	257.377
218.42	381.633
218.64	368.889
218.85	301.724
219.07	366.000
219.28	814.286
219.49	-1336.364
219.71	521.429
219.92	2816.667
220.14	6766.667
220.35	3300.000
220.56	900.000
220.78	284.127
220.99	2933.333
221.21	389.189
221.42	611.111
221.63	552.778
221.85	16600.000
222.06	427.586
222.28	790.000
222.49	20400.000
222.70	-5466.667
222.92	332.143
223.13	231.884
223.34	274.545
223.56	410.811
223.77	943.750
223.99	205.128
224.20	177.477
224.41	320.930
224.63	500.000
224.84	588.000
225.05	425.000
225.27	374.074
225.48	274.684
225.69	322.727
225.91	242.857
226.12	319.355
226.34	218.841
226.55	250.000
226.76	162.687
226.98	170.175
227.19	326.667
227.40	159.048
227.62	159.459
227.83	193.684
228.04	231.481
228.26	125.000
228.47	166.667
228.69	97.253
228.90	74.719
229.11	47.893
229.33	55.738
229.54	71.429
229.75	67.300
229.97	48.311
230.18	46.467
230.39	47.353
230.61	44.410
230.82	61.111
231.03	46.736
231.25	45.640
231.46	65.714
231.67	53.243
231.89	67.647
232.10	63.359
232.31	78.140
232.53	76.448
232.74	70.902
232.95	82.412
233.17	98.214
233.38	66.204
233.59	81.765
233.81	111.062
234.02	61.084
234.23	84.409
234.45	90.728
234.66	67.822
234.87	96.512
235.09	74.222
235.30	72.903
235.51	55.603
235.73	78.646
235.94	64.875
236.15	70.149
236.36	66.667
236.58	67.364
236.79	72.973
237.00	68.273
237.22	75.000
237.43	78.889
237.64	75.000
237.86	79.902
238.07	62.948
238.28	84.722
238.50	73.967
238.71	54.965
238.92	73.897
239.13	65.179
239.35	66.820
239.56	42.466
239.77	83.004
239.99	48.828
240.20	71.583
240.41	59.561
240.63	56.000
240.84	62.893
241.05	52.137
241.26	46.221
241.48	48.111
241.69	43.792
241.90	46.154
242.12	33.803
242.33	30.608
242.54	24.406
242.75	22.973
242.97	25.356
243.18	23.270
243.39	18.734
243.61	22.970
243.82	22.816
244.03	19.036
244.24	15.094
244.46	26.288
244.67	23.067
244.88	23.958
245.09	27.989
245.31	26.987
245.52	21.429
245.73	28.548
245.95	46.816
246.16	37.500
246.37	27.013
246.58	28.418
246.80	22.207
247.01	24.076
247.22	20.653
247.43	15.971
247.65	19.114
247.86	15.022
248.07	11.950
248.28	13.981
248.50	12.057
248.71	12.015
248.92	10.994
249.13	13.690
249.35	13.823
249.56	13.803
249.77	19.682
249.98	19.336
250.20	22.835
250.41	23.836
250.62	22.717
250.83	26.561
251.05	27.368
251.26	24.490
251.47	24.006
251.68	27.341
251.90	29.624
252.11	30.870
252.32	25.318
252.53	34.317
252.75	16.223
252.96	21.574
253.17	23.788
253.38	22.922
253.59	21.251
253.81	22.032
254.02	24.318
254.23	18.719
254.44	19.949
254.66	24.017
254.87	19.169
255.08	29.936
255.29	32.855
255.50	31.319
255.72	31.864
255.93	37.065
256.14	35.745
256.35	32.407
256.57	31.618
256.78	40.181
256.99	20.095
257.20	37.938
257.41	36.571
257.63	27.238
257.84	30.309
258.05	36.728
258.26	21.732
258.47	31.889
258.69	29.126
258.90	20.166
259.11	21.656
259.32	23.364
259.53	13.261
259.75	14.751
259.96	14.418
260.17	14.286
260.38	13.636
260.59	10.704
260.81	8.871
261.02	11.476
261.23	8.058
261.44	11.996
261.65	10.642
261.87	9.119
262.08	12.487
262.29	13.071
262.50	11.260
262.71	12.429
262.92	14.708
263.14	18.718
263.35	18.292
263.56	18.500
263.77	16.173
263.98	21.228
264.20	17.828
264.41	15.385
264.62	21.104
264.83	11.547
265.04	24.471
265.25	17.186
265.47	23.713
265.68	18.593
265.89	19.152
266.10	20.152
266.31	25.455
266.52	21.039
266.74	19.656
266.95	21.413
267.16	18.476
267.37	17.021
267.58	19.121
267.79	16.455
268.01	16.296
268.22	13.110
268.43	17.626
268.64	13.417
268.85	18.680
269.06	17.914
269.27	19.140
269.49	18.846
269.70	17.823
269.91	15.963
270.12	14.457
270.33	16.256
270.54	16.635
270.75	12.983
270.97	17.815
271.18	13.376
271.39	16.196
271.60	16.391
271.81	12.511
272.02	15.355
272.23	14.450
272.45	13.018
272.66	11.253
272.87	14.941
273.08	10.806
273.29	11.403
273.50	11.224
273.71	12.943
273.92	10.288
274.14	13.795
274.35	11.912
274.56	12.970
274.77	13.324
274.98	13.953
275.19	12.509
275.40	11.573
275.61	11.404
275.83	19.174
276.04	15.816
276.25	15.729
276.46	15.187
276.67	19.533
276.88	15.494
277.09	18.295
277.30	18.159
277.51	13.379
277.73	16.470
277.94	17.490
278.15	10.463
278.36	19.454
278.57	13.127
278.78	12.906
278.99	11.796
279.20	16.969
279.41	20.623
279.62	12.829
279.84	15.893
280.05	15.766
280.26	15.881
280.47	13.585
280.68	14.921
280.89	17.512
281.10	15.712
281.31	16.797
281.52	13.653
281.73	12.969
281.94	10.143
282.16	16.531
282.37	17.860
282.58	12.373
282.79	14.698
283.00	15.775
283.21	10.664
283.42	11.179
283.63	11.961
283.84	12.533
284.05	11.620
284.26	12.073
284.47	13.891
284.68	11.899
284.89	10.670
285.11	9.533
285.32	12.970
285.53	12.131
285.74	12.580
285.95	11.532
286.16	10.022
286.37	10.861
286.58	10.458
286.79	8.999
287.00	10.539
287.21	10.111
287.42	8.863
287.63	10.056
287.84	10.557
288.05	10.222
288.26	10.373
288.48	12.730
288.69	9.925
288.90	9.139
289.11	13.810
289.32	9.551
289.53	10.516
289.74	12.744
289.95	10.671
290.16	13.694
290.37	10.401
290.58	10.306
290.79	9.729
291.00	10.691
291.21	10.789
291.42	11.353
291.63	8.902
291.84	12.052
292.05	8.624
292.26	5.605
292.47	9.923
292.68	8.012
292.89	11.529
293.10	13.293
293.31	9.406
293.52	13.338
293.73	11.097
293.94	11.082
294.15	10.829
294.36	12.769
294.57	13.834
294.79	11.706
295.00	12.057
295.21	11.348
295.42	11.333
295.63	12.953
295.84	11.161
296.05	11.758
296.26	10.758
296.47	8.698
296.68	6.741
296.89	11.161
297.10	11.811
297.31	9.150
297.52	6.151
297.73	7.747
297.94	8.002
298.15	9.147
298.36	7.708
298.57	6.092
298.78	8.600
298.99	7.209
299.20	6.189
299.41	8.630
299.62	9.150
299.83	6.607
300.04	8.614
300.25	10.324
300.46	7.727
300.67	11.188
300.88	11.549
301.09	7.589
301.30	10.577
301.50	8.946
301.71	13.206
301.92	13.198
302.13	9.091
302.34	8.338
302.55	13.184
302.76	10.627
302.97	10.242
303.18	9.818
303.39	6.399
303.60	9.330
303.81	12.043
304.02	9.540
304.23	8.776
304.44	9.920
304.65	8.408
304.86	11.751
305.07	8.972
305.28	9.674
305.49	9.202
305.70	9.937
305.91	8.755
306.12	9.390
306.33	8.541
306.54	8.787
306.75	9.129
306.96	11.397
307.17	8.483
307.38	13.129
307.58	8.391
307.79	10.523
308.00	12.955
308.21	11.026
308.42	10.222
308.63	9.894
308.84	10.180
309.05	8.419
309.26	8.012
309.47	11.343
309.68	8.879
309.89	10.639
310.10	7.998
310.31	10.065
310.52	7.614
310.73	8.116
310.94	9.270
311.14	5.054
311.35	6.736
311.56	6.946
311.77	8.257
311.98	6.676
312.19	9.324
312.40	9.371
312.61	8.202
312.82	9.066
313.03	9.067
313.24	11.863
313.45	6.885
313.66	9.890
313.86	7.782
314.07	10.992
314.28	10.890
314.49	6.732
314.70	10.716
314.91	10.107
315.12	8.009
315.33	9.045
315.54	9.168
315.75	8.524
315.96	7.451
316.16	8.295
316.37	10.624
316.58	9.227
316.79	9.330
317.00	12.380
317.21	7.924
317.42	8.784
317.63	10.246
317.84	8.189
318.05	12.507
318.25	11.182
318.46	8.960
318.67	11.463
318.88	10.418
319.09	11.518
319.30	10.006
319.51	11.285
319.72	9.988
319.93	11.895
320.13	9.983
320.34	10.598
320.55	10.433
320.76	14.096
320.97	8.390
321.18	10.199
321.39	10.883
321.60	9.166
321.80	12.573
322.01	10.953
322.22	8.492
322.43	9.491
322.64	10.690
322.85	10.209
323.06	9.896
323.27	10.276
323.47	7.540
323.68	13.628
323.89	10.041
324.10	10.482
324.31	9.569
324.52	10.142
324.73	10.837
324.93	10.122
325.14	8.858
325.35	9.040
325.56	8.375
325.77	10.850
325.98	8.194
326.19	11.066
326.39	8.293
326.60	7.045
326.81	8.984
327.02	7.576
327.23	6.670
327.44	9.655
327.64	7.827
327.85	7.486
328.06	9.363
328.27	10.902
328.48	10.282
328.69	7.365
328.90	9.829
329.10	8.076
329.31	10.433
329.52	9.825
329.73	11.586
329.94	8.061
330.15	8.440
330.35	10.565
330.56	9.783
330.77	10.840
330.98	10.263
331.19	7.122
331.39	11.583
331.60	10.584
331.81	7.124
332.02	11.369
332.23	10.795
332.44	9.727
332.64	9.945
332.85	9.485
333.06	8.974
333.27	9.026
333.48	8.586
333.68	9.200
333.89	6.768
334.10	7.374
334.31	9.448
334.52	9.689
334.72	9.669
334.93	9.894
335.14	7.826
335.35	10.052
335.56	9.985
335.76	8.855
335.97	9.547
336.18	6.510
336.39	10.566
336.60	9.950
336.80	10.079
337.01	8.059
337.22	7.529
337.43	7.761
337.64	10.168
337.84	10.194
338.05	9.087
338.26	9.025
338.47	9.129
338.68	9.806
338.88	6.453
339.09	7.906
339.30	9.168
339.51	9.266
339.71	10.709
339.92	6.962
340.13	9.183
340.34	8.044
340.55	7.583
340.75	9.221
340.96	6.954
341.17	8.624
341.38	7.726
341.58	8.881
341.79	6.232
342.00	8.669
342.21	7.732
342.41	7.535
342.62	7.438
342.83	9.368
343.04	8.583
343.24	9.320
343.45	6.396
343.66	8.410
343.87	7.853
344.07	8.621
344.28	10.048
344.49	10.076
344.70	8.879
344.90	7.149
345.11	7.929
345.32	6.312
345.53	8.935
345.73	6.570
345.94	8.423
346.15	8.574
346.36	7.872
346.56	7.559
346.77	8.127
346.98	7.068
347.19	7.816
347.39	8.049
347.60	7.338
347.81	9.843
348.02	8.511
348.22	6.728
348.43	6.202
348.64	6.381
348.84	7.786
349.05	7.028
349.26	10.249
349.47	6.161
349.67	7.488
349.88	9.625
350.09	9.448
350.30	9.176
350.50	7.692
350.71	10.683
350.92	8.467
351.12	8.767
351.33	7.371
351.54	9.296
351.74	8.101
351.95	6.930
352.16	7.461
352.37	10.730
352.57	8.707
352.78	10.128
352.99	8.340
353.19	10.419
353.40	10.264
353.61	12.761
353.82	9.690
354.02	10.488
354.23	10.678
354.44	12.812
354.64	10.328
354.85	12.920
355.06	9.127
355.26	9.172
355.47	9.638
355.68	13.138
355.88	12.051
356.09	11.435
356.30	11.337
356.51	13.714
356.71	12.605
356.92	10.811
357.13	13.372
357.33	15.830
357.54	14.470
357.75	9.969
357.95	15.605
358.16	12.225
358.37	16.797
358.57	13.062
358.78	16.411
358.99	13.859
359.19	14.702
359.40	16.412
359.61	15.367
359.81	20.007
360.02	18.387
360.23	13.019
360.43	16.704
360.64	15.066
360.85	16.226
361.05	13.604
361.26	18.515
361.47	15.222
361.67	18.883
361.88	13.330
362.09	18.618
362.29	14.472
362.50	16.056
362.70	14.369
362.91	20.646
363.12	16.937
363.32	17.305
363.53	18.568
363.74	20.575
363.94	16.066
364.15	22.033
364.36	20.099
364.56	19.568
364.77	20.405
364.98	22.930
365.18	18.366
365.39	22.924
365.59	15.401
365.80	20.534
366.01	20.773
366.21	18.793
366.42	18.244
366.63	22.804
366.83	17.001
367.04	15.663
367.24	21.848
367.45	19.818
367.66	18.349
367.86	21.617
368.07	19.498
368.28	20.740
368.48	18.705
368.69	19.925
368.89	20.425
369.10	21.907
369.31	21.033
369.51	21.961
369.72	23.410
369.92	24.698
370.13	18.758
370.34	23.220
370.54	14.870
370.75	22.559
370.95	19.305
371.16	23.995
371.37	18.750
371.57	22.229
371.78	19.223
371.98	24.805
372.19	23.730
372.40	24.184
372.60	23.101
372.81	24.206
373.01	19.396
373.22	23.449
373.43	24.451
373.63	25.555
373.84	25.469
374.04	24.450
374.25	24.134
374.46	26.879
374.66	24.458
374.87	26.395
375.07	19.703
375.28	24.477
375.48	25.837
375.69	26.528
375.90	22.812
376.10	23.515
376.31	23.937
376.51	26.436
376.72	23.305
376.92	25.723
377.13	26.692
377.34	28.452
377.54	24.610
377.75	29.487
377.95	26.098
378.16	28.940
378.36	29.640
378.57	29.763
378.77	28.198
378.98	29.146
379.19	28.536
379.39	29.288
379.60	28.678
379.80	30.292
380.01	30.682
380.21	30.964
380.42	32.565
380.62	31.380
380.83	30.789
381.04	30.166
381.24	31.368
381.45	31.599
381.65	29.240
381.86	33.204
382.06	32.953
382.27	32.270
382.47	31.756
382.68	33.523
382.88	31.700
383.09	34.136
383.29	32.278
383.50	34.246
383.71	32.773
383.91	33.210
384.12	33.439
384.32	35.244
384.53	34.758
384.73	34.830
384.94	33.823
385.14	34.119
385.35	34.161
385.55	38.122
385.76	37.346
385.96	37.778
386.17	36.986
386.37	37.436
386.58	35.787
386.78	38.330
386.99	36.858
387.19	39.008
387.40	38.048
387.60	39.952
387.81	38.776
388.01	40.527
388.22	40.748
388.42	40.283
388.63	41.781
388.83	41.416
389.04	41.191
389.24	41.483
389.45	41.595
389.65	41.870
389.86	41.551
390.06	41.742
390.27	43.057
390.47	43.865
390.68	43.275
390.88	44.247
391.09	44.587
391.29	44.056
391.50	43.479
391.70	44.036
391.91	42.929
392.11	43.682
392.32	45.226
392.52	43.246
392.73	45.695
392.93	44.362
393.14	45.953
393.34	46.988
393.55	47.672
393.75	47.039
393.95	46.915
394.16	46.852
394.36	46.461
394.57	46.009
394.77	47.547
394.98	45.426
395.18	47.229
395.39	46.108
395.59	46.524
395.80	48.487
396.00	47.800
396.21	48.454
396.41	48.342
396.61	49.797
396.82	51.084
397.02	51.733
397.23	52.244
397.43	52.260
397.64	51.261
397.84	51.589
398.05	48.901
398.25	50.225
398.45	49.261
398.66	50.752
398.86	50.617
399.07	51.288
399.27	50.249
399.48	50.373
399.68	50.082
399.89	49.606
400.09	50.317
400.29	50.896
400.50	50.321
400.70	50.279
400.91	50.921
401.11	51.049
401.32	52.570
401.52	50.096
401.72	52.579
401.93	51.831
402.13	51.632
402.34	51.259
402.54	51.235
402.75	50.796
402.95	50.617
403.15	52.659
403.36	51.630
403.56	51.184
403.77	49.337
403.97	50.094
404.17	51.929
404.38	47.650
404.58	49.003
404.79	48.291
404.99	50.048
405.19	49.218
405.40	49.818
405.60	51.057
405.81	50.180
406.01	50.634
406.21	51.036
406.42	51.160
406.62	50.587
406.83	51.024
407.03	51.393
407.23	49.332
407.44	50.999
407.64	50.096
407.85	51.256
408.05	49.906
408.25	51.494
408.46	49.821
408.66	51.922
408.87	50.836
409.07	51.666
409.27	50.238
409.48	48.199
409.68	50.030
409.88	50.431
410.09	49.133
410.29	48.595
410.50	49.148
410.70	48.606
410.90	47.681
411.11	49.131
411.31	48.577
411.51	47.722
411.72	47.805
411.92	47.908
412.12	48.363
412.33	47.891
412.53	47.645
412.74	51.446
412.94	48.753
413.14	49.074
413.35	48.863
413.55	47.839
413.75	48.289
413.96	48.523
414.16	48.589
414.36	46.811
414.57	48.411
414.77	46.894
414.97	48.009
415.18	48.311
415.38	47.720
415.58	46.831
415.79	46.162
415.99	46.977
416.19	45.456
416.40	45.172
416.60	45.811
416.80	46.275
417.01	43.988
417.21	44.401
417.41	44.738
417.62	44.039
417.82	45.007
418.02	44.131
418.23	45.127
418.43	44.682
418.63	44.086
418.84	43.766
419.04	43.870
419.24	44.225
419.45	42.368
419.65	43.617
419.85	43.047
420.06	43.819
420.26	43.795
420.46	42.495
420.67	43.157
420.87	42.740
421.07	42.453
421.28	43.979
421.48	42.427
421.68	42.614
421.88	41.644
422.09	43.932
422.29	43.082
422.49	43.675
422.70	42.599
422.90	43.715
423.10	43.111
423.31	43.428
423.51	43.521
423.71	43.418
423.91	42.537
424.12	43.064
424.32	42.480
424.52	42.465
424.73	41.524
424.93	42.949
425.13	42.066
425.33	41.976
425.54	42.567
425.74	43.044
425.94	43.124
426.15	43.825
426.35	43.665
426.55	44.409
426.75	45.000
426.96	43.086
427.16	43.488
427.36	44.837
427.57	44.144
427.77	44.638
427.97	45.078
428.17	45.021
428.38	43.960
428.58	45.154
428.78	44.649
428.98	45.317
429.19	43.747
429.39	43.307
429.59	44.046
429.79	43.904
430.00	43.339
430.20	44.152
430.40	44.169
430.60	43.157
430.81	44.117
431.01	44.341
431.21	43.825
431.41	43.250
431.62	43.492
431.82	44.625
432.02	44.761
432.22	45.571
432.43	43.752
432.63	43.483
432.83	42.521
433.03	43.537
433.24	44.133
433.44	44.243
433.64	44.048
433.84	44.093
434.05	43.512
434.25	43.576
434.45	44.403
434.65	45.189
434.85	44.091
435.06	45.027
435.26	45.668
435.46	46.080
435.66	45.969
435.87	46.115
436.07	46.212
436.27	45.224
436.47	46.698
436.67	46.255
436.88	46.187
437.08	45.796
437.28	45.922
437.48	45.888
437.69	45.659
437.89	45.730
438.09	44.861
438.29	44.798
438.49	44.801
438.70	44.396
438.90	44.312
439.10	45.319
439.30	45.481
439.50	44.131
439.71	44.774
439.91	45.825
440.11	45.193
440.31	44.143
440.51	44.625
440.72	44.671
440.92	44.946
441.12	45.389
441.32	44.113
441.52	46.513
441.72	45.338
441.93	45.657
442.13	46.654
442.33	45.603
442.53	46.750
442.73	46.963
442.94	47.418
443.14	48.110
443.34	48.404
443.54	47.996
443.74	48.236
443.94	48.146
444.15	46.452
444.35	47.867
444.55	45.699
444.75	46.892
444.95	45.994
445.15	45.802
445.36	45.958
445.56	44.956
445.76	45.777
445.96	45.525
446.16	44.603
446.36	45.955
446.57	44.764
446.77	45.109
446.97	45.677
447.17	45.736
447.37	45.781
447.57	46.044
447.77	46.321
447.98	46.363
448.18	46.460
448.38	47.026
448.58	46.759
448.78	47.730
448.98	48.624
449.18	48.663
449.39	47.940
449.59	47.545
449.79	47.215
449.99	48.106
450.19	47.582
450.39	48.392
450.59	47.374
450.79	48.452
451.00	49.100
451.20	51.433
451.40	47.424
451.60	48.381
451.80	48.776
452.00	47.210
452.20	47.953
452.40	47.170
452.61	47.638
452.81	47.154
453.01	46.235
453.21	46.487
453.41	47.471
453.61	47.205
453.81	47.734
454.01	47.592
454.21	47.589
454.42	48.278
454.62	47.873
454.82	48.439
455.02	47.450
455.22	48.579
455.42	47.982
455.62	48.517
455.82	47.865
456.02	49.234
456.23	47.773
456.43	48.348
456.63	48.623
456.83	46.778
457.03	46.707
457.23	48.157
457.43	48.553
457.63	46.873
457.83	47.452
458.03	47.709
458.23	47.081
458.43	47.309
458.64	46.285
458.84	45.990
459.04	46.163
459.24	46.313
459.44	44.623
459.64	44.573
459.84	44.900
460.04	45.128
460.24	45.679
460.44	45.943
460.64	45.762
460.84	46.399
461.04	46.396
461.24	47.450
461.45	47.366
461.65	48.227
461.85	47.887
462.05	49.227
462.25	48.494
462.45	49.873
462.65	48.208
462.85	48.835
463.05	49.174
463.25	47.611
463.45	47.205
463.65	47.515
463.85	47.253
464.05	49.551
464.25	46.685
464.45	47.753
464.65	47.466
464.85	47.664
465.05	46.854
465.26	47.815
465.46	46.191
465.66	46.611
465.86	47.459
466.06	47.065
466.26	47.597
466.46	46.616
466.66	46.014
466.86	46.730
467.06	46.693
467.26	48.066
467.46	47.658
467.66	47.628
467.86	47.208
468.06	48.072
468.26	47.228
468.46	46.942
468.66	48.119
468.86	47.666
469.06	49.112
469.26	48.089
469.46	47.552
469.66	46.851
469.86	47.657
470.06	47.502
470.26	48.415
470.46	47.446
470.66	47.963
470.86	46.882
471.06	47.917
471.26	47.457
471.46	47.943
471.66	47.543
471.86	47.373
472.06	49.086
472.26	47.488
472.46	47.761
472.66	48.064
472.86	48.158
473.06	47.031
473.26	48.680
473.46	48.081
473.66	47.070
473.86	48.117
474.06	46.453
474.26	47.418
474.46	48.367
474.66	47.738
474.86	49.134
475.06	47.966
475.26	47.917
475.46	47.350
475.66	47.745
475.86	46.979
476.06	47.131
476.26	46.114
476.46	47.284
476.66	47.525
476.86	46.718
477.06	47.536
477.26	47.758
477.46	46.539
477.65	47.859
477.85	46.512
478.05	46.620
478.25	47.011
478.45	47.130
478.65	45.934
478.85	46.511
479.05	46.568
479.25	48.112
479.45	47.813
479.65	47.281
479.85	47.281
480.05	47.254
480.25	47.879
480.45	47.641
480.65	47.610
480.85	46.795
481.05	46.616
481.25	46.256
481.44	46.304
481.64	46.126
481.84	46.865
482.04	45.719
482.24	46.223
482.44	45.351
482.64	44.963
482.84	44.848
483.04	44.183
483.24	43.100
483.44	42.493
483.64	42.074
483.84	42.031
484.04	42.716
484.23	43.997
484.43	46.117
484.63	49.247
484.83	51.282
485.03	53.146
485.23	53.520
485.43	53.328
485.63	53.455
485.83	50.546
486.03	48.583
486.23	50.478
486.42	49.950
486.62	49.168
486.82	47.640
487.02	46.837
487.22	46.310
487.42	44.975
487.62	45.264
487.82	44.690
488.02	45.147
488.22	45.410
488.41	45.894
488.61	45.852
488.81	46.831
489.01	47.131
489.21	48.164
489.41	48.584
489.61	48.947
489.81	49.014
490.01	49.730
490.20	48.505
490.40	48.510
490.60	48.517
490.80	47.270
491.00	46.886
491.20	45.635
491.40	43.995
491.60	44.100
491.79	44.858
491.99	44.715
492.19	45.255
492.39	45.171
492.59	45.912
492.79	45.965
492.99	46.483
493.19	47.822
493.38	48.196
493.58	48.958
493.78	49.364
493.98	49.544
494.18	49.470
494.38	48.333
494.58	48.707
494.77	48.722
494.97	48.556
495.17	47.474
495.37	46.907
495.57	46.495
495.77	46.908
495.96	47.190
496.16	46.361
496.36	46.542
496.56	45.372
496.76	45.595
496.96	45.953
497.15	46.326
497.35	46.408
497.55	46.243
497.75	46.339
497.95	45.567
498.15	46.950
498.34	47.282
498.54	45.886
498.74	47.701
498.94	48.100
499.14	47.177
499.34	47.922
499.53	48.198
499.73	46.921
499.93	47.267
500.13	46.880
500.33	47.353
500.52	47.545
500.72	47.213
500.92	47.045
501.12	47.737
501.32	47.387
501.52	48.305
501.71	46.732
501.91	47.354
502.11	47.824
502.31	47.285
502.51	47.308
502.70	47.149
502.90	47.625
503.10	46.606
503.30	46.851
503.50	47.283
503.69	46.905
503.89	47.280
504.09	46.319
504.29	47.190
504.48	47.002
504.68	47.392
504.88	45.349
505.08	46.354
505.28	45.981
505.47	46.994
505.67	46.120
505.87	47.404
506.07	47.265
506.27	47.639
506.46	46.728
506.66	47.794
506.86	47.661
507.06	47.882
507.25	47.612
507.45	47.806
507.65	46.759
507.85	45.528
508.04	46.467
508.24	47.222
508.44	46.646
508.64	45.834
508.83	47.283
509.03	46.810
509.23	45.650
509.43	46.565
509.63	46.474
509.82	45.523
510.02	46.856
510.22	46.736
510.42	46.287
510.61	47.656
510.81	46.470
511.01	46.733
511.21	47.568
511.40	47.358
511.60	47.704
511.80	48.211
511.99	47.191
512.19	47.648
512.39	46.103
512.59	47.140
512.78	47.616
512.98	46.865
513.18	47.949
513.38	47.476
513.57	47.712
513.77	47.173
513.97	48.533
514.17	48.622
514.36	47.690
514.56	47.251
514.76	48.909
514.95	47.654
515.15	48.715
515.35	49.289
515.55	47.960
515.74	47.960
515.94	48.631
516.14	47.311
516.33	48.498
516.53	48.235
516.73	47.034
516.93	47.078
517.12	47.673
517.32	47.538
517.52	46.782
517.71	46.907
517.91	47.591
518.11	45.971
518.30	46.017
518.50	45.560
518.70	46.644
518.90	46.890
519.09	47.630
519.29	47.419
519.49	47.258
519.68	47.421
519.88	47.275
520.08	48.747
520.27	48.227
520.47	49.114
520.67	48.344
520.86	49.834
521.06	48.687
521.26	49.571
521.45	49.696
521.65	49.144
521.85	48.958
522.04	48.626
522.24	48.647
522.44	49.388
522.63	48.084
522.83	48.871
523.03	49.306
523.22	48.020
523.42	47.917
523.62	50.155
523.81	49.029
524.01	49.238
524.21	48.494
524.40	48.879
524.60	47.438
524.80	47.847
524.99	47.485
525.19	47.133
525.39	47.342
525.58	47.964
525.78	46.471
525.98	47.325
526.17	47.356
526.37	47.797
526.57	47.762
526.76	48.575
526.96	48.269
527.15	48.098
527.35	47.893
527.55	48.248
527.74	47.785
527.94	46.967
528.14	45.959
528.33	45.145
528.53	44.828
528.72	46.477
528.92	46.358
529.12	48.035
529.31	47.343
529.51	48.178
529.71	48.834
529.90	49.234
530.10	50.139
530.29	50.742
530.49	51.017
530.69	51.354
530.88	51.754
531.08	51.472
531.28	50.841
531.47	49.926
531.67	49.891
531.86	49.555
532.06	48.791
532.26	48.258
532.45	48.790
532.65	47.932
532.84	47.339
533.04	47.182
533.24	45.943
533.43	46.757
533.63	46.851
533.82	48.827
534.02	47.460
534.22	48.480
534.41	48.030
534.61	49.051
534.80	49.700
535.00	50.010
535.19	50.907
535.39	51.678
535.59	51.388
535.78	50.063
535.98	49.865
536.17	48.838
536.37	49.001
536.57	48.384
536.76	48.280
536.96	48.109
537.15	48.531
537.35	48.972
537.54	48.882
537.74	48.745
537.93	48.610
538.13	50.604
538.33	50.458
538.52	50.772
538.72	50.662
538.91	51.633
539.11	50.404
539.30	50.875
539.50	50.754
539.70	50.008
539.89	48.299
540.09	49.127
540.28	48.459
540.48	48.030
540.67	47.308
540.87	47.160
541.06	45.394
541.26	46.700
541.45	46.954
541.65	47.935
541.85	47.688
542.04	47.906
542.24	48.322
542.43	48.955
542.63	49.000
542.82	49.502
543.02	50.092
543.21	51.119
543.41	51.064
543.60	50.909
543.80	50.987
543.99	51.342
544.19	49.722
544.38	51.055
544.58	49.946
544.77	50.500
544.97	50.700
545.16	50.552
545.36	50.937
545.56	49.865
545.75	50.411
545.95	49.830
546.14	49.624
546.34	50.320
546.53	48.889
546.73	49.283
546.92	49.368
547.12	49.584
547.31	49.967
547.51	49.827
547.70	49.869
547.90	50.574
548.09	49.687
548.29	51.139
548.48	51.326
548.68	51.764
548.87	51.084
549.07	53.299
549.26	51.581
549.46	51.881
549.65	51.535
549.84	52.999
550.04	51.521
550.23	53.192
550.43	51.743
550.62	52.317
550.82	51.427
551.01	50.817
551.21	51.948
551.40	51.689
551.60	49.581
551.79	51.043
551.99	51.279
552.18	51.342
552.38	52.017
552.57	51.121
552.77	49.467
552.96	51.399
553.16	50.890
553.35	51.542
553.54	51.120
553.74	51.246
553.93	52.154
554.13	51.636
554.32	51.867
554.52	52.810
554.71	52.727
554.91	51.350
555.10	53.147
555.29	52.576
555.49	51.421
555.68	52.892
555.88	52.964
556.07	52.262
556.27	51.586
556.46	52.665
556.66	52.395
556.85	52.989
557.04	52.401
557.24	53.096
557.43	52.932
557.63	53.107
557.82	52.642
558.02	54.134
558.21	52.840
558.40	53.579
558.60	52.648
558.79	54.191
558.99	53.139
559.18	53.029
559.38	53.038
559.57	52.273
559.76	53.627
559.96	53.876
560.15	54.025
560.35	53.620
560.54	53.016
560.73	54.081
560.93	52.249
561.12	52.205
561.32	52.507
561.51	52.401
561.70	52.265
561.90	54.519
562.09	52.796
562.29	53.545
562.48	54.105
562.67	52.706
562.87	54.901
563.06	54.656
563.26	53.990
563.45	53.532
563.64	53.901
563.84	52.834
564.03	54.228
564.23	53.588
564.42	54.135
564.61	52.934
564.81	53.538
565.00	54.632
565.20	54.206
565.39	54.364
565.58	53.042
565.78	54.403
565.97	53.296
566.16	53.746
566.36	52.569
566.55	52.641
566.74	53.458
566.94	54.206
567.13	54.697
567.33	54.488
567.52	53.816
567.71	54.066
567.91	54.214
568.10	54.503
568.29	54.620
568.49	55.341
568.68	54.123
568.87	54.035
569.07	53.954
569.26	54.068
569.45	53.861
569.65	54.950
569.84	54.285
570.04	53.916
570.23	54.461
570.42	54.038
570.62	55.458
570.81	53.468
571.00	55.429
571.20	54.448
571.39	52.772
571.58	53.810
571.78	53.377
571.97	53.279
572.16	53.452
572.36	53.900
572.55	54.009
572.74	54.215
572.94	53.121
573.13	54.001
573.32	54.245
573.51	55.423
573.71	54.727
573.90	55.029
574.09	54.813
574.29	55.025
574.48	55.044
574.67	54.390
574.87	54.146
575.06	54.795
575.25	54.861
575.45	55.594
575.64	54.317
575.83	54.620
576.03	54.908
576.22	54.287
576.41	54.397
576.60	54.413
576.80	53.862
576.99	55.465
577.18	55.712
577.38	54.910
577.57	54.717
577.76	55.432
577.95	55.172
578.15	55.140
578.34	55.052
578.53	54.988
578.73	55.360
578.92	55.227
579.11	55.077
579.30	55.789
579.50	55.398
579.69	56.176
579.88	55.169
580.08	56.669
580.27	55.531
580.46	56.122
580.65	54.146
580.85	55.862
581.04	56.185
581.23	55.705
581.42	55.940
581.62	55.356
581.81	55.877
582.00	56.177
582.19	55.006
582.39	54.963
582.58	56.386
582.77	55.224
582.96	56.514
583.16	55.807
583.35	55.864
583.54	55.912
583.73	57.143
583.93	56.070
584.12	55.737
584.31	56.309
584.50	55.578
584.70	56.869
584.89	56.436
585.08	55.912
585.27	54.456
585.47	53.942
585.66	55.356
585.85	55.842
586.04	56.089
586.24	55.315
586.43	54.648
586.62	55.605
586.81	55.221
587.00	54.802
587.20	55.774
587.39	55.204
587.58	55.622
587.77	54.796
587.97	54.986
588.16	56.913
588.35	55.087
588.54	56.149
588.73	52.670
588.93	55.018
589.12	54.421
589.31	55.188
589.50	53.922
589.69	55.360
589.89	55.130
590.08	54.556
590.27	53.641
590.46	54.324
590.65	54.405
590.85	54.887
591.04	54.446
591.23	56.125
591.42	54.501
591.61	54.211
591.81	55.184
592.00	54.853
592.19	56.650
592.38	53.893
592.57	56.464
592.77	54.946
592.96	55.344
593.15	56.266
593.34	54.433
593.53	56.348
593.72	54.348
593.92	55.929
594.11	55.426
594.30	54.368
594.49	55.383
594.68	54.412
594.87	55.414
595.07	54.775
595.26	55.368
595.45	55.835
595.64	56.149
595.83	54.866
596.02	55.711
596.22	55.360
596.41	55.367
596.60	54.011
596.79	53.076
596.98	55.401
597.17	53.133
597.37	55.681
597.56	54.691
597.75	55.692
597.94	54.296
598.13	56.100
598.32	54.468
598.51	56.229
598.71	57.355
598.90	56.193
599.09	56.662
599.28	56.043
599.47	57.560
599.66	57.237
599.85	58.047
600.05	57.802
600.24	56.706
600.43	57.145
600.62	56.139
600.81	56.096
601.00	57.551
601.19	56.156
601.38	56.361
601.58	56.989
601.77	56.667
601.96	55.685
602.15	57.860
602.34	56.098
602.53	56.105
602.72	58.666
602.91	54.704
603.10	57.262
603.30	55.380
603.49	55.808
603.68	55.402
603.87	55.990
604.06	55.159
604.25	54.819
604.44	55.101
604.63	55.421
604.82	54.836
605.01	56.500
605.21	56.492
605.40	56.583
605.59	54.962
605.78	55.203
605.97	55.844
606.16	56.969
606.35	56.205
606.54	57.586
606.73	56.526
606.92	57.758
607.11	58.215
607.30	56.529
607.50	56.823
607.69	57.421
607.88	58.003
608.07	55.567
608.26	56.711
608.45	57.963
608.64	55.760
608.83	55.213
609.02	55.320
609.21	55.699
609.40	55.116
609.59	55.096
609.78	56.420
609.97	55.381
610.16	55.264
610.35	55.540
610.55	56.028
610.74	55.830
610.93	55.385
611.12	57.619
611.31	56.034
611.50	57.714
611.69	56.816
611.88	58.760
612.07	57.396
612.26	56.713
612.45	56.666
612.64	55.215
612.83	57.425
613.02	57.595
613.21	54.985
613.40	55.613
613.59	59.298
613.78	58.065
613.97	58.790
614.16	56.216
614.35	56.138
614.54	56.651
614.73	56.284
614.92	59.028
615.11	56.970
615.30	58.522
615.49	57.246
615.68	56.450
615.87	56.090
616.07	56.197
616.26	54.414
616.45	57.874
616.64	58.101
616.83	58.495
617.02	56.772
617.21	55.631
617.40	56.296
617.59	56.950
617.78	54.301
617.97	56.618
618.16	56.904
618.35	56.278
618.54	58.221
618.73	57.204
618.92	55.553
619.11	56.091
619.30	55.620
619.49	56.985
619.68	57.591
619.86	56.034
620.05	57.134
620.24	57.826
620.43	56.620
620.62	56.522
620.81	55.597
621.00	56.801
621.19	56.715
621.38	55.491
621.57	58.531
621.76	55.656
621.95	55.655
622.14	56.852
622.33	55.455
622.52	57.349
622.71	57.416
622.90	55.376
623.09	53.572
623.28	54.584
623.47	56.514
623.66	55.582
623.85	56.617
624.04	56.103
624.23	56.992
624.42	56.647
624.61	55.677
624.80	56.106
624.99	55.151
625.18	54.896
625.36	54.723
625.55	53.990
625.74	55.835
625.93	56.728
626.12	55.543
626.31	53.867
626.50	55.783
626.69	54.791
626.88	55.254
627.07	53.321
627.26	55.096
627.45	54.216
627.64	53.290
627.83	54.897
628.02	55.841
628.20	54.037
628.39	54.006
628.58	54.626
628.77	55.250
628.96	56.548
629.15	55.015
629.34	53.648
629.53	54.158
629.72	56.072
629.91	54.346
630.10	55.535
630.29	54.611
630.47	55.049
630.66	55.207
630.85	55.153
631.04	54.686
631.23	56.610
631.42	54.716
631.61	55.758
631.80	54.953
631.99	55.758
632.18	55.849
632.36	55.218
632.55	57.119
632.74	56.564
632.93	54.868
633.12	54.935
633.31	56.461
633.50	54.659
633.69	54.534
633.88	54.952
634.06	55.000
634.25	55.738
634.44	53.051
634.63	55.130
634.82	54.562
635.01	52.726
635.20	54.413
635.39	56.209
635.57	54.954
635.76	55.795
635.95	54.560
636.14	54.798
636.33	55.952
636.52	54.674
636.71	54.739
636.89	54.853
637.08	54.834
637.27	52.930
637.46	55.316
637.65	54.505
637.84	53.410
638.03	56.023
638.21	56.200
638.40	55.953
638.59	55.012
638.78	56.032
638.97	55.038
639.16	57.052
639.34	53.380
639.53	53.776
639.72	55.611
639.91	53.884
640.10	53.015
640.29	54.908
640.47	55.641
640.66	55.246
640.85	56.020
641.04	55.264
641.23	55.083
641.42	56.627
641.60	55.143
641.79	55.688
641.98	55.060
642.17	55.798
642.36	57.392
642.54	56.487
642.73	57.268
642.92	57.106
643.11	55.639
643.30	53.040
643.49	55.954
643.67	55.765
643.86	57.732
644.05	54.699
644.24	54.746
644.43	54.082
644.61	55.352
644.80	55.807
644.99	57.264
645.18	56.397
645.37	55.444
645.55	55.056
645.74	55.848
645.93	56.003
646.12	54.794
646.31	56.723
646.49	56.617
646.68	55.252
646.87	54.404
647.06	55.166
647.24	55.915
647.43	55.597
647.62	54.845
647.81	55.068
648.00	56.142
648.18	54.186
648.37	54.140
648.56	55.748
648.75	54.353
648.93	55.057
649.12	55.268
649.31	55.525
649.50	55.532
649.68	55.370
649.87	56.407
650.06	55.317
650.25	55.204
650.43	55.889
650.62	54.202
650.81	55.149
651.00	55.418
651.18	55.638
651.37	55.928
651.56	54.653
651.75	55.469
651.93	55.550
652.12	55.050
652.31	53.321
652.50	55.785
652.68	54.450
652.87	56.495
653.06	55.235
653.25	56.059
653.43	56.546
653.62	56.208
653.81	55.614
654.00	56.315
654.18	54.112
654.37	56.187
654.56	54.770
654.74	53.431
654.93	55.695
655.12	53.320
655.31	54.455
655.49	55.283
655.68	56.827
655.87	52.642
656.05	52.210
656.24	53.905
656.43	53.335
656.62	55.012
656.80	55.478
656.99	54.117
657.18	53.912
657.36	55.556
657.55	53.530
657.74	54.485
657.93	54.070
658.11	52.938
658.30	55.592
658.49	54.794
658.67	52.989
658.86	52.808
659.05	51.781
659.23	51.201
659.42	51.667
659.61	51.175
659.79	50.519
659.98	51.803
660.17	49.273
660.35	51.626
660.54	51.237
660.73	52.194
660.91	49.359
661.10	51.762
661.29	51.028
661.47	51.416
661.66	50.600
661.85	51.768
662.03	51.373
662.22	51.769
662.41	50.715
662.59	52.478
662.78	50.054
662.97	50.321
663.15	49.298
663.34	50.442
663.53	52.777
663.71	51.503
663.90	49.898
664.09	50.546
664.27	51.727
664.46	50.093
664.65	51.240
664.83	53.085
665.02	49.084
665.21	50.388
665.39	50.929
665.58	49.889
665.77	49.485
665.95	50.588
666.14	48.250
666.32	50.668
666.51	48.596
666.70	50.485
666.88	48.778
667.07	49.968
667.26	48.091
667.44	49.333
667.63	51.004
667.81	50.082
668.00	49.149
668.19	51.541
668.37	50.459
668.56	48.620
668.75	49.026
668.93	50.141
669.12	46.667
669.30	50.137
669.49	47.646
669.68	47.596
669.86	49.416
670.05	46.689
670.23	50.200
670.42	49.908
670.61	48.071
670.79	48.052
670.98	49.716
671.16	49.873
671.35	46.904
671.54	48.762
671.72	47.243
671.91	48.080
672.09	48.396
672.28	48.925
672.46	48.129
672.65	49.593
672.84	48.862
673.02	49.155
673.21	46.724
673.39	50.776
673.58	50.678
673.77	48.142
673.95	48.667
674.14	48.086
674.32	45.692
674.51	51.495
674.69	45.017
674.88	48.162
675.07	48.524
675.25	49.250
675.44	49.153
675.62	45.160
675.81	46.846
675.99	51.609
676.18	48.869
676.36	49.331
676.55	45.529
676.74	47.456
676.92	49.321
677.11	46.413
677.29	46.856
677.48	50.695
677.66	51.053
677.85	49.392
678.03	48.097
678.22	47.238
678.40	48.763
678.59	48.448
678.78	48.906
678.96	49.197
679.15	49.365
679.33	48.710
679.52	48.297
679.70	49.223
679.89	46.344
680.07	48.863
680.26	46.701
680.44	49.699
680.63	48.651
680.81	47.361
681.00	47.724
681.18	48.642
681.37	48.386
681.55	47.767
681.74	47.149
681.92	49.035
682.11	50.276
682.29	47.174
682.48	50.091
682.66	48.059
682.85	48.433
683.03	50.960
683.22	48.585
683.40	50.503
683.59	50.158
683.77	51.578
683.96	50.799
684.14	51.069
684.33	49.827
684.51	51.147
684.70	52.527
684.88	50.659
685.07	51.287
685.25	53.979
685.44	51.993
685.62	52.470
685.81	51.816
685.99	54.612
686.18	51.165
686.36	52.975
686.55	48.249
686.73	53.948
686.92	52.003
687.10	50.399
687.29	56.414
687.47	55.047
687.65	55.041
687.84	51.463
688.02	53.583
688.21	54.623
688.39	55.109
688.58	54.913
688.76	54.937
688.95	55.497
689.13	55.349
689.32	57.608
689.50	54.805
689.68	56.841
689.87	57.303
690.05	55.579
690.24	55.491
690.42	58.141
690.61	54.879
690.79	57.821
690.98	58.472
691.16	56.890
691.34	57.860
691.53	60.183
691.71	59.349
691.90	57.148
692.08	57.553
692.27	58.669
692.45	59.402
692.63	60.186
692.82	59.395
693.00	61.204
693.19	62.376
693.37	60.767
693.56	61.903
693.74	63.071
693.92	59.712
694.11	62.495
694.29	61.808
694.48	60.552
694.66	63.332
694.84	62.437
695.03	59.645
695.21	63.343
695.40	65.009
695.58	64.227
695.76	60.345
695.95	65.375
696.13	64.129
696.32	63.691
696.50	67.529
696.68	65.696
696.87	64.576
697.05	66.255
697.24	66.172
697.42	69.724
697.60	62.848
697.79	65.662
697.97	65.007
698.16	64.236
698.34	63.367
698.52	61.590
698.71	62.548
698.89	61.474
699.07	63.948
699.26	64.319
699.44	62.391
699.63	62.558
699.81	64.211
699.99	65.413
700.18	64.411
700.36	65.274
700.54	64.834
700.73	66.686
700.91	65.153
701.09	64.083
701.28	65.196
701.46	64.743
701.64	68.580
701.83	66.690
702.01	65.121
702.20	71.211
702.38	67.623
702.56	69.315
702.75	67.646
702.93	68.172
703.11	73.592
703.30	70.268
703.48	71.448
703.66	73.460
703.85	71.429
704.03	74.152
704.21	71.987
704.40	71.624
704.58	72.656
704.76	75.759
704.95	69.947
705.13	70.039
705.31	73.749
705.50	73.841
705.68	70.722
705.86	76.675
706.04	73.183
706.23	72.882
706.41	76.789
706.59	74.962
706.78	71.850
706.96	75.551
707.14	74.446
707.33	75.834
707.51	75.545
707.69	75.787
707.88	75.287
708.06	75.085
708.24	75.436
708.42	77.532
708.61	73.749
708.79	75.828
708.97	75.646
709.16	71.983
709.34	77.168
709.52	75.012
709.71	81.827
709.89	74.332
710.07	69.260
710.25	74.188
710.44	70.774
710.62	75.091
710.80	75.869
710.98	74.032
711.17	75.183
711.35	73.401
711.53	73.046
711.72	77.586
711.90	76.107
712.08	76.053
712.26	71.953
712.45	74.005
712.63	76.961
712.81	77.959
712.99	77.507
713.18	75.243
713.36	75.585
713.54	72.347
713.72	73.749
713.91	75.000
714.09	75.961
714.27	75.364
714.45	74.478
714.64	75.889
714.82	75.374
715.00	74.910
715.18	75.772
715.37	76.143
715.55	74.614
715.73	77.336
715.91	75.814
716.10	75.151
716.28	73.577
716.46	76.046
716.64	78.745
716.83	73.991
717.01	76.463
717.19	74.144
717.37	75.559
717.55	72.438
717.74	73.064
717.92	73.247
718.10	71.881
718.28	76.658
718.47	78.829
718.65	74.937
718.83	72.966
719.01	77.114
719.19	74.556
719.38	75.136
719.56	77.324
719.74	77.866
719.92	69.434
720.10	75.587
720.29	75.014
720.47	78.099
720.65	75.329
720.83	77.224
721.01	75.073
721.20	82.154
721.38	75.569
721.56	78.360
721.74	79.733
721.92	76.812
722.11	82.462
722.29	77.695
722.47	78.478
722.65	77.985
722.83	81.981
723.01	78.310
723.20	78.937
723.38	78.375
723.56	76.565
723.74	79.744
723.92	77.692
724.10	79.299
724.29	76.263
724.47	85.330
724.65	82.419
724.83	79.308
725.01	79.180
725.19	76.713
725.38	76.393
725.56	81.879
725.74	79.416
725.92	83.395
726.10	77.148
726.28	80.222
726.46	78.172
726.65	77.014
726.83	84.085
727.01	77.812
727.19	77.503
727.37	81.098
727.55	81.451
727.73	77.978
727.92	75.391
728.10	81.730
728.28	74.137
728.46	76.037
728.64	78.669
728.82	77.397
729.00	79.895
729.19	78.246
729.37	80.988
729.55	78.962
729.73	75.118
729.91	76.272
730.09	80.557
730.27	79.381
730.45	79.331
730.63	79.450
730.82	76.177
731.00	82.110
731.18	77.451
731.36	81.148
731.54	78.458
731.72	82.387
731.90	79.041
732.08	79.895
732.26	73.370
732.45	79.361
732.63	77.972
732.81	82.920
732.99	79.244
733.17	79.745
733.35	82.363
733.53	81.216
733.71	77.968
733.89	78.299
734.07	80.632
734.25	81.920
734.44	77.399
734.62	77.691
734.80	81.598
734.98	81.757
735.16	77.329
735.34	80.349
735.52	81.491
735.70	81.101
735.88	82.898
736.06	83.569
736.24	89.091
736.42	89.246
736.60	84.894
736.78	86.639
736.97	81.443
737.15	86.788
737.33	85.725
737.51	85.643
737.69	86.450
737.87	86.399
738.05	82.574
738.23	81.594
738.41	86.461
738.59	83.921
738.77	85.694
738.95	80.316
739.13	87.828
739.31	81.529
739.49	84.970
739.67	87.697
739.85	82.102
740.03	86.257
740.21	86.686
740.39	88.670
740.57	88.126
740.75	85.443
740.93	83.815
741.11	83.159
741.30	90.119
741.48	90.708
741.66	91.070
741.84	87.858
742.02	85.714
742.20	85.964
742.38	88.046
742.56	81.936
742.74	86.491
742.92	88.594
743.10	85.039
743.28	93.115
743.46	88.310
743.64	85.400
743.82	91.897
744.00	90.128
744.18	95.107
744.36	90.501
744.54	93.739
744.72	86.916
744.90	95.340
745.08	89.433
745.26	86.201
745.44	88.803
745.62	96.542
745.80	84.367
745.98	88.988
746.16	94.236
746.34	92.818
746.52	89.030
746.70	88.899
746.87	89.292
747.05	93.813
747.23	88.018
747.41	95.903
747.59	89.329
747.77	91.850
747.95	90.506
748.13	87.887
748.31	99.910
748.49	90.968
748.67	94.828
748.85	92.705
749.03	92.115
749.21	86.409
749.39	89.964
749.57	87.158
749.75	91.429
749.93	91.511
750.11	90.606
750.29	86.119
750.47	92.679
750.65	88.119
750.83	95.313
751.01	90.107
751.18	85.145
751.36	91.423
751.54	91.887
751.72	92.586
751.90	84.495
752.08	89.914
752.26	88.179
752.44	94.259
752.62	85.864
752.80	90.747
752.98	89.991
753.16	90.819
753.34	91.539
753.52	93.321
753.69	92.153
753.87	90.513
754.05	90.260
754.23	95.856
754.41	94.991
754.59	87.777
754.77	91.289
754.95	92.838
755.13	90.694
755.31	87.953
755.49	95.857
755.66	83.201
755.84	83.376
756.02	89.684
756.20	93.007
756.38	88.566
756.56	86.182
756.74	93.340
756.92	96.449
757.10	95.905
757.28	92.729
757.45	99.087
757.63	93.540
757.81	92.203
757.99	97.255
758.17	95.163
758.35	98.651
758.53	94.582
758.71	96.863
758.88	95.874
759.06	90.343
759.24	83.070
759.42	81.299
759.60	88.951
759.78	83.333
759.96	76.318
760.13	77.945
760.31	77.353
760.49	73.372
760.67	68.807
760.85	76.695
761.03	73.587
761.21	71.085
761.38	68.297
761.56	74.891
761.74	68.362
761.92	73.098
762.10	71.317
762.28	74.919
762.46	70.093
762.63	74.196
762.81	68.716
762.99	71.352
763.17	70.312
763.35	76.698
763.53	71.856
763.70	69.245
763.88	71.384
764.06	72.241
764.24	69.244
764.42	72.772
764.60	75.328
764.77	76.048
764.95	72.830
765.13	73.098
765.31	73.733
765.49	75.456
765.66	71.120
765.84	73.778
766.02	71.735
766.20	75.221
766.38	82.405
766.56	79.058
766.73	76.980
766.91	82.720
767.09	86.667
767.27	83.895
767.45	81.767
767.62	88.841
767.80	85.392
767.98	86.388
768.16	83.410
768.33	90.656
768.51	86.471
768.69	87.189
768.87	82.696
769.05	89.548
769.22	86.142
769.40	94.280
769.58	91.272
769.76	90.080
769.94	93.326
770.11	89.633
770.29	85.545
770.47	100.896
770.65	99.308
770.82	100.815
771.00	89.082
771.18	98.018
771.36	87.267
771.53	93.678
771.71	100.363
771.89	99.634
772.07	93.493
772.25	92.857
772.42	92.689
772.60	95.925
772.78	98.280
772.96	101.329
773.13	92.515
773.31	94.083
773.49	96.809
773.67	100.821
773.84	87.286
774.02	100.000
774.20	91.455
774.37	95.979
774.55	102.665
774.73	107.823
774.91	88.998
775.08	99.187
775.26	103.005
775.44	98.555
775.62	96.966
775.79	102.507
775.97	98.784
776.15	99.735
776.32	91.141
776.50	105.556
776.68	105.045
776.86	90.875
777.03	94.631
777.21	91.299
777.39	98.830
777.56	101.801
777.74	94.259
777.92	95.873
778.10	101.841
778.27	93.117
778.45	98.785
778.63	103.333
778.80	91.655
778.98	104.526
779.16	109.357
779.34	98.741
779.51	92.558
779.69	94.266
779.87	99.447
780.04	91.281
780.22	95.150
780.40	112.069
780.57	95.359
780.75	99.591
780.93	104.426
781.10	99.247
781.28	99.454
781.46	90.561
781.63	92.952
781.81	99.128
781.99	99.418
782.16	89.327
782.34	94.181
782.52	101.244
782.69	93.305
782.87	89.238
783.05	91.429
783.22	103.333
783.40	98.297
783.58	98.505
783.75	89.466
783.93	108.624
784.11	98.862
784.28	97.956
784.46	93.114
784.64	102.992
784.81	98.397
784.99	102.528
785.17	100.000
785.34	99.342
785.52	87.480
785.69	95.179
785.87	100.506
786.05	96.239
786.22	94.016
786.40	107.566
786.58	96.338
786.75	108.466
786.93	89.399
787.11	95.024
787.28	92.173
787.46	102.117
787.63	106.496
787.81	93.455
787.99	103.257
788.16	96.898
788.34	91.523
788.51	96.465
788.69	103.540
788.87	87.340
789.04	90.896
789.22	94.786
789.39	95.199
789.57	91.536
789.75	85.677
789.92	96.211
790.10	76.845
790.27	92.340
790.45	90.043
790.63	99.114
790.80	91.483
790.98	96.377
791.15	88.404
791.33	99.362
791.51	86.357
791.68	93.819
791.86	89.073
792.03	97.500
792.21	94.010
792.39	98.107
792.56	88.413
792.74	90.373
792.91	100.178
793.09	94.868
793.26	92.254
793.44	97.256
793.62	82.381
793.79	97.545
793.97	89.198
794.14	92.414
794.32	100.187
794.49	99.262
794.67	91.547
794.84	86.819
795.02	89.267
795.20	102.574
795.37	84.422
795.55	88.804
795.72	95.583
795.90	93.300
796.07	92.414
796.25	98.495
796.42	85.565
796.60	90.909
796.77	93.035
796.95	100.159
797.13	83.657
797.30	96.839
797.48	83.680
797.65	92.405
797.83	87.982
798.00	97.896
798.18	83.645
798.35	85.244
798.53	92.833
798.70	85.954
798.88	85.786
799.05	88.785
799.23	79.658
799.40	87.102
799.58	92.268
799.75	101.471
799.93	85.052
800.10	102.672
800.28	108.140
800.45	96.948
800.63	85.971
800.80	95.930
800.98	97.584
801.15	91.681
801.33	94.533
801.50	91.537
801.68	100.193
801.85	89.880
802.03	82.886
802.20	98.315
802.38	84.276
802.55	92.885
802.73	86.783
802.90	92.579
803.08	82.384
803.25	85.000
803.43	92.294
803.60	106.224
803.78	93.409
803.95	114.634
804.13	93.080
804.30	97.250
804.48	90.519
804.65	85.236
804.83	83.811
805.00	85.172
805.17	91.262
805.35	89.205
805.52	87.189
805.70	101.132
805.87	85.767
806.05	97.557
806.22	92.193
806.40	87.476
806.57	84.457
806.75	92.477
806.92	88.596
807.09	102.087
807.27	86.308
807.44	95.420
807.62	86.013
807.79	88.393
807.97	89.698
808.14	96.000
808.31	87.654
808.49	85.687
808.66	86.127
808.84	88.566
809.01	98.089
809.19	107.819
809.36	104.277
809.53	95.040
809.71	75.097
809.88	102.217
810.06	95.866
810.23	88.200
810.41	91.079
810.58	101.691
810.75	84.335
810.93	90.927
811.10	75.579
811.28	102.237
811.45	79.245
811.62	98.876
811.80	90.851
811.97	87.662
812.15	95.069
812.32	87.716
812.49	84.532
812.67	91.915
812.84	85.275
813.02	98.655
813.19	80.135
813.36	93.926
813.54	85.398
813.71	94.091
813.89	85.022
814.06	98.677
814.23	90.596
814.41	88.652
814.58	80.048
814.75	95.332
814.93	82.381
815.10	90.000
815.28	92.892
815.45	81.527
815.62	80.815
815.80	76.674
815.97	72.878
816.14	86.681
816.32	78.484
816.49	87.632
816.66	69.750
816.84	90.314
817.01	88.720
817.18	85.548
817.36	70.481
817.53	90.796
817.71	72.570
817.88	76.818
818.05	74.497
818.23	82.857
818.40	83.491
818.57	81.624
818.75	84.919
818.92	92.457
819.09	80.118
819.27	77.059
819.44	74.553
819.61	72.140
819.79	77.778
819.96	88.317
820.13	73.057
820.31	74.261
820.48	72.452
820.65	88.702
820.82	76.346
821.00	79.562
821.17	70.100
821.34	74.106
821.52	68.040
821.69	72.013
821.86	71.225
822.04	73.769
822.21	71.890
822.38	74.985
822.56	69.119
822.73	67.334
822.90	70.025
823.07	71.209
823.25	67.843
823.42	66.534
823.59	65.976
823.77	65.173
823.94	65.486
824.11	65.727
824.29	65.744
824.46	68.944
824.63	70.409
824.80	73.153
824.98	68.554
825.15	73.387
825.32	64.826
825.49	77.405
825.67	72.489
825.84	73.711
826.01	71.419
826.19	76.509
826.36	72.928
826.53	74.553
826.70	72.425
826.88	73.504
827.05	66.252
827.22	72.763
827.39	72.564
827.57	73.743
827.74	66.642
827.91	75.335
828.08	67.321
828.26	72.073
828.43	66.782
828.60	75.067
828.77	69.544
828.95	73.538
829.12	66.415
829.29	65.881
829.46	69.190
829.64	76.938
829.81	62.087
829.98	70.838
830.15	71.325
830.32	73.518
830.50	69.292
830.67	71.722
830.84	65.224
831.01	65.047
831.19	66.958
831.36	93.089
831.53	74.603
831.70	84.453
831.87	71.694
832.05	80.198
832.22	92.601
832.39	80.870
832.56	78.117
832.74	78.795
832.91	73.629
833.08	86.235
833.25	53.779
833.42	64.076
833.60	65.686
833.77	66.340
833.94	62.364
834.11	66.667
834.28	59.906
834.45	69.421
834.63	61.663
834.80	65.817
834.97	64.467
835.14	70.104
835.31	67.400
835.49	66.426
835.66	61.214
835.83	65.447
836.00	64.166
836.17	71.879
836.34	63.942
836.52	65.395
836.69	73.669
836.86	69.844
837.03	75.548
837.20	66.346
837.37	66.910
837.55	75.398
837.72	76.301
837.89	75.573
838.06	77.163
838.23	82.057
838.40	82.506
838.58	77.600
838.75	74.074
838.92	91.724
839.09	84.392
839.26	88.503
839.43	89.625
839.60	105.017
839.78	114.506
839.95	95.440
840.12	83.861
840.29	95.860
840.46	85.664
840.63	84.118
840.80	80.533
840.98	106.286
841.15	80.750
841.32	70.960
841.49	78.551
841.66	85.246
841.83	77.067
842.00	77.215
842.17	87.123
842.34	83.954
842.52	89.820
842.69	95.912
842.86	79.931
843.03	122.956
843.20	104.082
843.37	100.699
843.54	106.098
843.71	111.837
843.88	114.570
844.06	118.219
844.23	130.918
844.40	96.591
844.57	110.638
844.74	109.607
844.91	112.037
845.08	106.275
845.25	123.358
845.42	118.593
845.59	138.012
845.76	102.273
845.94	146.835
846.11	115.423
846.28	146.207
846.45	131.288
846.62	139.459
846.79	142.222
846.96	104.072
847.13	122.353
847.30	114.646
847.47	119.231
847.64	126.744
847.81	131.319
847.98	112.432
848.15	144.624
848.32	129.381
848.50	146.584
848.67	179.167
848.84	152.525
849.01	120.408
849.18	123.158
849.35	107.853
849.52	147.977
849.69	127.746
849.86	155.828
850.03	148.630
850.20	147.917
850.37	137.143
850.54	152.201
850.71	180.488
850.88	135.664
851.05	163.014
851.22	138.509
851.39	128.866
851.56	133.333
851.73	145.000
851.90	136.875
852.07	161.765
852.24	163.971
852.41	167.153
852.58	138.636
852.75	135.503
852.92	115.761
853.09	139.665
853.26	134.395
853.43	122.273
853.60	121.649
853.77	154.610
853.94	125.000
854.11	199.145
854.28	137.766
854.45	160.140
854.62	165.772
854.79	146.154
854.96	142.754
855.13	119.444
855.30	128.497
855.47	144.828
855.64	174.775
855.81	183.333
855.98	121.333
856.15	107.586
856.32	112.207
856.49	117.808
856.66	127.907
856.83	116.230
857.00	177.049
857.17	199.167
857.34	147.727
857.51	149.359
857.68	183.571
857.85	140.000
858.02	289.189
858.19	154.286
858.36	138.286
858.53	134.857
858.70	139.073
858.87	174.483
859.04	161.972
859.21	109.130
859.38	168.212
859.55	225.000
859.72	165.289
859.89	224.510
860.05	172.093
860.22	155.921
860.39	174.766
860.56	199.083
860.73	134.337
860.90	120.667
861.07	148.634
861.24	179.487
861.41	172.143
861.58	116.749
861.75	165.741
861.92	151.181
862.09	121.084
862.26	196.809
862.43	166.165
862.59	104.103
862.76	151.020
862.93	176.398
863.10	127.586
863.27	108.649
863.44	140.789
863.61	145.294
863.78	140.845
863.95	150.382
864.12	121.528
864.29	151.163
864.45	239.726
864.62	166.917
864.79	128.378
864.96	171.429
865.13	139.695
865.30	183.636
865.47	171.296
865.64	141.250
865.81	123.457
865.97	111.475
866.14	124.762
866.31	155.285
866.48	165.116
866.65	149.000
866.82	164.430
866.99	233.981
867.16	210.000
867.33	152.137
867.49	156.934
867.66	124.272
867.83	141.600
868.00	124.113
868.17	147.727
868.34	175.342
868.51	112.676
868.67	178.512
868.84	153.061
869.01	170.866
869.18	155.814
869.35	226.667
869.52	132.192
869.69	150.382
869.85	113.904
870.02	149.533
870.19	189.916
870.36	135.374
870.53	121.023
870.70	108.140
870.86	95.597
871.03	164.706
871.20	135.762
871.37	121.531
871.54	120.000
871.71	116.049
871.87	144.521
872.04	110.323
872.21	191.398
872.38	123.313
872.55	171.127
872.72	116.279
872.88	135.503
873.05	117.033
873.22	123.810
873.39	142.073
873.56	124.855
873.72	186.567
873.89	118.841
874.06	135.526
874.23	162.712
874.40	149.650
874.56	233.019
874.73	137.500
874.90	124.859
875.07	159.028
875.24	97.688
875.40	102.581
875.57	125.862
875.74	125.333
875.91	157.025
876.08	121.970
876.24	146.753
876.41	139.535
876.58	100.621
876.75	101.190
876.92	137.168
877.08	145.536
877.25	125.949
877.42	154.815
877.59	137.063
877.75	154.362
877.92	136.000
878.09	141.353
878.26	134.416
878.42	151.449
878.59	142.647
878.76	129.487
878.93	125.146
879.09	92.021
879.26	84.865
879.43	138.824
879.60	120.370
879.76	111.111
879.93	129.114
880.10	104.321
880.27	82.569
880.43	101.951
880.60	93.607
880.77	92.208
880.94	74.909
881.10	83.333
881.27	66.933
881.44	54.965
881.61	75.328
881.77	61.706
881.94	53.299
882.11	47.806
882.28	52.222
882.44	51.511
882.61	60.996
882.78	60.654
882.94	61.564
883.11	54.180
883.28	53.870
883.45	55.437
883.61	58.184
883.78	49.254
883.95	55.983
884.11	59.844
884.28	58.551
>>>>>End Processed Spectral Data<<<<<
