SpectraSuite Data File
++++++++++++++++++++++++++++++++++++
Date: Fri Sep 20 03:52:07 EST 2019
User: sgrac
Dark Spectrum Present: Yes
Reference Spectrum Present: Yes
Number of Sampled Component Spectra: 1
Spectrometers: USB4E01596
Integration Time (usec): 100000 (USB4E01596)
Spectra Averaged: 1 (USB4E01596)
Boxcar Smoothing: 0 (USB4E01596)
Correct for Electrical Dark: No (USB4E01596)
Strobe/Lamp Enabled: Yes (USB4E01596)
Correct for Detector Non-linearity: No (USB4E01596)
Correct for Stray Light: No (USB4E01596)
Number of Pixels in Processed Spectrum: 3648
>>>>>Begin Processed Spectral Data<<<<<
178.44	513.043
178.66	513.043
178.87	513.043
179.09	-570.000
179.30	370.000
179.52	667.857
179.74	3100.000
179.95	-474.286
180.17	-881.250
180.38	-1018.750
180.60	-506.452
180.82	791.304
181.03	-3575.000
181.25	-1770.000
181.46	-1418.182
181.68	0.000
181.89	14600.000
182.11	1750.000
182.33	1776.923
182.54	-491.429
182.76	368.000
182.97	566.667
183.19	2000.000
183.40	-1018.750
183.62	950.000
183.84	-392.500
184.05	0.000
184.27	12900.000
184.48	765.000
184.70	7100.000
184.91	1200.000
185.13	343.182
185.34	294.444
185.56	-742.857
185.78	742.105
185.99	-9450.000
186.21	575.000
186.42	1008.333
186.64	234.328
186.85	251.852
187.07	704.167
187.28	-356.757
187.50	-450.000
187.72	278.125
187.93	17200.000
188.15	722.727
188.36	346.154
188.58	988.235
188.79	7000.000
189.01	517.647
189.22	1183.333
189.44	395.745
189.65	-910.000
189.87	1000.000
190.09	616.667
190.30	-3680.000
190.52	382.927
190.73	488.889
190.95	-1330.769
191.16	-1000.000
191.38	-621.739
191.59	1688.889
191.81	450.000
192.02	427.500
192.24	293.651
192.45	451.429
192.67	659.091
192.88	0.000
193.10	423.529
193.31	-1040.000
193.53	447.727
193.74	428.947
193.96	1770.000
194.18	281.159
194.39	380.000
194.61	696.667
194.82	703.448
195.04	1258.333
195.25	412.766
195.47	873.684
195.68	-1060.000
195.90	5100.000
196.11	4325.000
196.33	-481.481
196.54	658.621
196.76	322.222
196.97	800.000
197.19	-922.222
197.40	519.444
197.62	-950.000
197.83	1020.000
198.05	518.421
198.26	731.818
198.48	1558.333
198.69	548.571
198.91	2185.714
199.12	472.500
199.34	344.615
199.55	-1336.364
199.77	625.000
199.98	3260.000
200.20	1145.455
200.41	539.394
200.63	-2720.000
200.84	485.366
201.06	-12100.000
201.27	1052.941
201.49	313.115
201.70	1005.882
201.91	1218.750
202.13	1025.000
202.34	4850.000
202.56	2742.857
202.77	-2466.667
202.99	1173.333
203.20	647.619
203.42	-400.000
203.63	541.935
203.85	-712.500
204.06	4933.333
204.28	-3900.000
204.49	2071.429
204.71	304.167
204.92	1666.667
205.14	0.000
205.35	1000.000
205.56	600.000
205.78	558.974
205.99	418.919
206.21	579.310
206.42	2416.667
206.64	-441.463
206.85	1180.000
207.07	1269.231
207.28	590.000
207.50	-2000.000
207.71	397.674
207.93	6750.000
208.14	-337.838
208.35	482.759
208.57	-856.250
208.78	620.690
209.00	428.947
209.21	0.000
209.43	713.043
209.64	406.977
209.86	2457.143
210.07	1263.636
210.28	539.286
210.50	2380.000
210.71	461.538
210.93	486.842
211.14	281.967
211.36	502.857
211.57	1950.000
211.78	-781.818
212.00	657.692
212.21	-594.737
212.43	593.548
212.64	461.905
212.86	610.714
213.07	610.714
213.29	303.947
213.50	-438.235
213.71	-14600.000
213.93	-1600.000
214.14	1113.333
214.36	-2085.714
214.57	208.140
214.78	451.429
215.00	-6333.333
215.21	-2883.333
215.43	-430.303
215.64	1062.500
215.86	-3475.000
216.07	785.714
216.28	274.194
216.50	327.660
216.71	-3160.000
216.93	1228.571
217.14	416.667
217.35	298.684
217.57	-846.667
217.78	1509.091
218.00	418.182
218.21	245.902
218.42	385.714
218.64	340.000
218.85	303.448
219.07	340.000
219.28	685.714
219.49	-1327.273
219.71	419.048
219.92	2183.333
220.14	6100.000
220.35	4300.000
220.56	986.667
220.78	284.127
220.99	2633.333
221.21	459.459
221.42	518.519
221.63	530.556
221.85	15600.000
222.06	486.207
222.28	625.000
222.49	13800.000
222.70	-5233.333
222.92	219.643
223.13	226.087
223.34	360.000
223.56	389.189
223.77	887.500
223.99	279.487
224.20	166.667
224.41	402.326
224.63	429.412
224.84	548.000
225.05	308.333
225.27	298.148
225.48	269.620
225.69	359.091
225.91	216.883
226.12	345.161
226.34	321.739
226.55	250.000
226.76	255.224
226.98	150.877
227.19	443.333
227.40	172.381
227.62	122.973
227.83	215.789
228.04	288.889
228.26	142.593
228.47	180.208
228.69	67.582
228.90	101.124
229.11	74.330
229.33	72.131
229.54	75.918
229.75	83.270
229.97	62.500
230.18	64.946
230.39	59.706
230.61	66.770
230.82	82.680
231.03	49.869
231.25	66.570
231.46	63.492
231.67	76.757
231.89	91.544
232.10	82.061
232.31	103.256
232.53	105.405
232.74	78.279
232.95	61.307
233.17	85.119
233.38	79.630
233.59	110.000
233.81	88.938
234.02	70.443
234.23	69.355
234.45	124.503
234.66	77.723
234.87	91.860
235.09	91.111
235.30	93.548
235.51	87.931
235.73	85.938
235.94	74.194
236.15	82.090
236.36	90.295
236.58	78.243
236.79	86.873
237.00	48.996
237.22	87.500
237.43	88.519
237.64	95.909
237.86	90.686
238.07	77.689
238.28	96.296
238.50	81.818
238.71	59.574
238.92	78.309
239.13	91.964
239.35	73.733
239.56	47.032
239.77	96.838
239.99	70.703
240.20	85.252
240.41	80.251
240.63	58.462
240.84	69.182
241.05	47.578
241.26	50.872
241.48	57.431
241.69	46.050
241.90	43.077
242.12	40.040
242.33	54.943
242.54	48.653
242.75	37.688
242.97	57.265
243.18	42.959
243.39	33.204
243.61	45.824
243.82	63.471
244.03	49.398
244.24	48.939
244.46	52.048
244.67	65.333
244.88	54.427
245.09	55.556
245.31	50.497
245.52	48.810
245.73	50.000
245.95	83.146
246.16	51.937
246.37	53.356
246.58	48.080
246.80	44.690
247.01	46.603
247.22	41.939
247.43	48.820
247.65	54.389
247.86	50.000
248.07	47.209
248.28	52.064
248.50	59.354
248.71	55.083
248.92	60.124
249.13	58.867
249.35	65.273
249.56	58.799
249.77	63.891
249.98	56.303
250.20	68.316
250.41	65.854
250.62	62.717
250.83	49.939
251.05	49.605
251.26	33.124
251.47	53.693
251.68	42.900
251.90	44.357
252.11	45.484
252.32	43.140
252.53	58.851
252.75	38.431
252.96	45.558
253.17	46.305
253.38	39.074
253.59	48.524
253.81	35.274
254.02	40.332
254.23	44.347
254.44	43.583
254.66	42.556
254.87	43.770
255.08	48.885
255.29	64.991
255.50	40.659
255.72	52.305
255.93	53.234
256.14	57.447
256.35	53.704
256.57	40.441
256.78	42.212
256.99	37.352
257.20	48.454
257.41	43.619
257.63	43.429
257.84	51.180
258.05	47.078
258.26	47.029
258.47	40.248
258.69	42.164
258.90	22.099
259.11	38.981
259.32	35.929
259.53	34.872
259.75	34.220
259.96	37.625
260.17	35.346
260.38	43.086
260.59	44.498
260.81	48.011
261.02	47.927
261.23	53.010
261.44	50.454
261.65	57.536
261.87	52.012
262.08	55.550
262.29	54.367
262.50	54.766
262.71	43.324
262.92	57.998
263.14	42.906
263.35	46.982
263.56	41.675
263.77	50.000
263.98	40.302
264.20	50.177
264.41	32.377
264.62	37.669
264.83	27.367
265.04	54.588
265.25	38.232
265.47	44.431
265.68	39.447
265.89	33.290
266.10	24.461
266.31	49.790
266.52	35.455
266.74	35.627
266.95	31.522
267.16	41.570
267.37	34.362
267.58	39.366
267.79	33.455
268.01	38.646
268.22	37.884
268.43	43.578
268.64	38.909
268.85	38.903
269.06	34.735
269.27	49.831
269.49	37.962
269.70	41.879
269.91	42.844
270.12	40.331
270.33	40.000
270.54	43.061
270.75	31.308
270.97	37.190
271.18	34.122
271.39	33.887
271.60	41.639
271.81	40.834
272.02	34.762
272.23	44.043
272.45	35.651
272.66	40.481
272.87	42.321
273.08	39.555
273.29	48.998
273.50	43.941
273.71	39.882
273.92	40.639
274.14	39.208
274.35	43.400
274.56	43.817
274.77	49.967
274.98	40.988
275.19	41.990
275.40	31.316
275.61	40.264
275.83	45.289
276.04	43.849
276.25	46.618
276.46	44.316
276.67	46.067
276.88	48.827
277.09	41.060
277.30	49.630
277.51	37.050
277.73	44.257
277.94	33.305
278.15	45.626
278.36	49.061
278.57	34.866
278.78	37.928
278.99	39.789
279.20	40.109
279.41	49.327
279.62	30.416
279.84	37.113
280.05	31.975
280.26	31.100
280.47	40.228
280.68	35.689
280.89	31.854
281.10	39.853
281.31	34.609
281.52	40.360
281.73	27.031
281.94	31.931
282.16	37.196
282.37	38.756
282.58	27.147
282.79	44.023
283.00	42.857
283.21	37.089
283.42	39.905
283.63	43.595
283.84	34.814
284.05	38.993
284.26	33.596
284.47	44.437
284.68	36.216
284.89	37.736
285.11	34.176
285.32	39.235
285.53	35.283
285.74	43.098
285.95	38.949
286.16	40.686
286.37	34.724
286.58	38.345
286.79	34.087
287.00	41.373
287.21	37.867
287.42	41.813
287.63	35.574
287.84	45.146
288.05	40.572
288.26	40.140
288.48	40.536
288.69	36.738
288.90	37.136
289.11	44.940
289.32	37.328
289.53	35.096
289.74	28.171
289.95	34.892
290.16	36.421
290.37	33.522
290.58	28.412
290.79	33.993
291.00	32.511
291.21	35.695
291.42	31.559
291.63	35.659
291.84	39.197
292.05	32.487
292.26	32.131
292.47	32.415
292.68	32.450
292.89	37.235
293.10	34.622
293.31	33.849
293.52	22.527
293.73	30.824
293.94	26.517
294.15	29.746
294.36	26.949
294.57	33.986
294.79	27.709
295.00	24.984
295.21	31.975
295.42	32.120
295.63	31.434
295.84	28.555
296.05	25.762
296.26	29.624
296.47	28.802
296.68	30.664
296.89	32.833
297.10	36.873
297.31	32.026
297.52	29.760
297.73	33.776
297.94	34.378
298.15	31.912
298.36	33.466
298.57	30.902
298.78	37.436
298.99	29.596
299.20	36.352
299.41	35.107
299.62	36.122
299.83	29.850
300.04	35.941
300.25	35.799
300.46	34.076
300.67	35.101
300.88	35.240
301.09	19.968
301.30	34.248
301.50	24.121
301.71	38.556
301.92	33.503
302.13	28.054
302.34	26.499
302.55	27.318
302.76	29.094
302.97	27.968
303.18	26.504
303.39	25.131
303.60	24.402
303.81	32.468
304.02	23.967
304.23	29.215
304.44	24.372
304.65	25.826
304.86	26.527
305.07	26.857
305.28	23.412
305.49	31.858
305.70	27.470
305.91	25.981
306.12	23.445
306.33	25.267
306.54	26.889
306.75	26.844
306.96	30.515
307.17	24.695
307.38	23.441
307.58	25.047
307.79	25.386
308.00	27.888
308.21	20.401
308.42	27.340
308.63	19.664
308.84	26.702
309.05	21.442
309.26	22.967
309.47	28.837
309.68	24.580
309.89	29.178
310.10	24.799
310.31	23.251
310.52	22.637
310.73	28.958
310.94	25.468
311.14	23.896
311.35	28.497
311.56	24.718
311.77	27.018
311.98	22.491
312.19	29.845
312.40	22.784
312.61	30.105
312.82	27.289
313.03	28.667
313.24	28.777
313.45	31.054
313.66	23.764
313.86	27.569
314.07	27.532
314.28	32.338
314.49	24.357
314.70	27.302
314.91	30.999
315.12	27.642
315.33	26.286
315.54	22.738
315.75	19.451
315.96	20.547
316.16	16.995
316.37	27.309
316.58	20.166
316.79	25.642
317.00	26.908
317.21	22.614
317.42	22.513
317.63	27.189
317.84	21.040
318.05	24.543
318.25	22.656
318.46	22.516
318.67	23.343
318.88	27.428
319.09	27.574
319.30	19.039
319.51	22.209
319.72	25.391
319.93	22.799
320.13	21.631
320.34	20.841
320.55	20.582
320.76	23.675
320.97	21.530
321.18	26.235
321.39	23.072
321.60	16.688
321.80	31.850
322.01	22.878
322.22	25.475
322.43	19.417
322.64	18.707
322.85	24.984
323.06	25.290
323.27	25.188
323.47	23.177
323.68	21.475
323.89	24.369
324.10	22.814
324.31	20.852
324.52	24.387
324.73	25.000
324.93	19.343
325.14	23.959
325.35	25.485
325.56	24.826
325.77	23.750
325.98	24.178
326.19	25.446
326.39	17.463
326.60	22.859
326.81	24.006
327.02	15.444
327.23	21.063
327.44	28.227
327.64	18.544
327.85	20.890
328.06	25.349
328.27	30.565
328.48	27.722
328.69	17.938
328.90	22.711
329.10	18.482
329.31	26.604
329.52	21.721
329.73	28.459
329.94	18.575
330.15	25.597
330.35	23.358
330.56	24.347
330.77	23.686
330.98	20.307
331.19	19.070
331.39	20.700
331.60	19.749
331.81	21.371
332.02	24.393
332.23	24.034
332.44	17.638
332.64	26.120
332.85	21.518
333.06	25.697
333.27	15.300
333.48	24.084
333.68	18.763
333.89	20.724
334.10	19.038
334.31	25.400
334.52	20.674
334.72	23.039
334.93	21.605
335.14	18.875
335.35	21.152
335.56	26.318
335.76	16.539
335.97	24.217
336.18	15.824
336.39	26.795
336.60	22.663
336.80	22.691
337.01	18.821
337.22	19.529
337.43	21.898
337.64	25.180
337.84	25.652
338.05	20.743
338.26	23.552
338.47	27.062
338.68	15.490
338.88	22.902
339.09	20.424
339.30	23.695
339.51	23.189
339.71	27.677
339.92	17.740
340.13	22.933
340.34	20.904
340.55	23.924
340.75	18.491
340.96	18.217
341.17	22.931
341.38	16.900
341.58	20.658
341.79	20.932
342.00	19.090
342.21	22.343
342.41	17.116
342.62	23.691
342.83	22.529
343.04	17.348
343.24	22.773
343.45	24.697
343.66	18.207
343.87	21.323
344.07	18.648
344.28	23.431
344.49	22.381
344.70	25.785
344.90	19.605
345.11	19.064
345.32	19.622
345.53	21.719
345.73	22.312
345.94	24.398
346.15	24.073
346.36	21.835
346.56	21.625
346.77	27.847
346.98	21.446
347.19	22.994
347.39	20.986
347.60	21.517
347.81	21.044
348.02	24.638
348.22	19.091
348.43	21.215
348.64	15.035
348.84	22.706
349.05	21.432
349.26	27.431
349.47	16.518
349.67	19.894
349.88	22.866
350.09	21.700
350.30	23.183
350.50	22.615
350.71	25.089
350.92	23.158
351.12	19.715
351.33	21.810
351.54	20.026
351.74	23.018
351.95	18.158
352.16	23.103
352.37	22.103
352.57	22.236
352.78	19.636
352.99	19.082
353.19	20.450
353.40	21.698
353.61	25.610
353.82	24.734
354.02	22.356
354.23	23.926
354.44	26.872
354.64	21.777
354.85	24.625
355.06	22.599
355.26	20.791
355.47	24.134
355.68	26.316
355.88	25.897
356.09	25.256
356.30	22.829
356.51	27.242
356.71	23.782
356.92	20.983
357.13	27.247
357.33	32.136
357.54	28.347
357.75	22.141
357.95	28.835
358.16	24.917
358.37	30.469
358.57	25.251
358.78	32.985
358.99	26.601
359.19	28.510
359.40	30.316
359.61	28.690
359.81	32.010
360.02	32.691
360.23	25.873
360.43	27.808
360.64	27.690
360.85	30.525
361.05	26.152
361.26	31.710
361.47	27.689
361.67	31.958
361.88	26.280
362.09	31.150
362.29	28.568
362.50	30.677
362.70	26.689
362.91	32.713
363.12	30.148
363.32	32.542
363.53	30.528
363.74	33.157
363.94	29.239
364.15	34.080
364.36	32.829
364.56	31.541
364.77	32.139
364.98	34.792
365.18	32.065
365.39	34.816
365.59	28.289
365.80	30.786
366.01	34.532
366.21	30.920
366.42	30.308
366.63	34.252
366.83	29.481
367.04	27.119
367.24	32.862
367.45	31.806
367.66	26.235
367.86	33.323
368.07	29.681
368.28	31.095
368.48	32.146
368.69	30.217
368.89	31.577
369.10	33.394
369.31	31.612
369.51	34.116
369.72	34.920
369.92	35.937
370.13	29.472
370.34	32.795
370.54	23.640
370.75	34.461
370.95	27.884
371.16	32.955
371.37	30.522
371.57	32.797
371.78	32.106
371.98	33.815
372.19	33.578
372.40	34.289
372.60	32.128
372.81	34.153
373.01	30.939
373.22	34.852
373.43	33.033
373.63	35.072
373.84	33.792
374.04	34.086
374.25	32.019
374.46	36.853
374.66	31.847
374.87	37.349
375.07	29.331
375.28	33.913
375.48	34.557
375.69	35.887
375.90	32.022
376.10	33.268
376.31	32.472
376.51	35.416
376.72	33.488
376.92	33.246
377.13	35.338
377.34	36.712
377.54	34.705
377.75	34.939
377.95	34.706
378.16	35.554
378.36	36.896
378.57	35.442
378.77	36.353
378.98	37.586
379.19	37.362
379.39	36.769
379.60	36.733
379.80	37.512
380.01	37.580
380.21	39.261
380.42	38.564
380.62	39.620
380.83	39.156
381.04	37.106
381.24	38.635
381.45	38.394
381.65	37.887
381.86	38.575
382.06	39.352
382.27	38.703
382.47	38.789
382.68	40.005
382.88	37.984
383.09	40.775
383.29	39.782
383.50	39.510
383.71	39.110
383.91	39.525
384.12	39.976
384.32	40.610
384.53	39.427
384.73	40.883
384.94	40.047
385.14	40.486
385.35	41.466
385.55	42.210
385.76	40.576
385.96	43.030
386.17	44.773
386.37	43.531
386.58	42.638
386.78	44.627
386.99	43.503
387.19	44.144
387.40	42.607
387.60	45.569
387.81	42.918
388.01	45.731
388.22	46.671
388.42	47.001
388.63	46.396
388.83	45.319
389.04	46.577
389.24	46.598
389.45	48.273
389.65	47.313
389.86	46.901
390.06	48.870
390.27	47.328
390.47	49.385
390.68	46.449
390.88	49.089
391.09	49.843
391.29	49.301
391.50	48.228
391.70	46.181
391.91	48.561
392.11	50.134
392.32	52.797
392.52	48.266
392.73	51.213
392.93	51.439
393.14	49.747
393.34	53.409
393.55	51.318
393.75	52.868
393.95	52.642
394.16	52.726
394.36	54.722
394.57	52.457
394.77	54.936
394.98	52.702
395.18	54.851
395.39	53.239
395.59	54.650
395.80	53.980
396.00	54.459
396.21	55.359
396.41	54.367
396.61	55.998
396.82	57.708
397.02	58.173
397.23	58.017
397.43	58.339
397.64	58.142
397.84	59.435
398.05	57.342
398.25	56.916
398.45	55.920
398.66	59.282
398.86	58.510
399.07	57.235
399.27	58.051
399.48	58.140
399.68	57.386
399.89	59.028
400.09	56.993
400.29	59.131
400.50	57.473
400.70	59.690
400.91	60.061
401.11	58.865
401.32	60.347
401.52	58.596
401.72	59.875
401.93	59.895
402.13	59.940
402.34	60.323
402.54	57.918
402.75	59.703
402.95	58.566
403.15	59.838
403.36	58.013
403.56	59.951
403.77	58.359
403.97	59.560
404.17	60.688
404.38	58.500
404.58	57.802
404.79	59.510
404.99	59.676
405.19	59.540
405.40	59.061
405.60	59.360
405.81	57.985
406.01	59.550
406.21	59.139
406.42	59.547
406.62	61.541
406.83	59.744
407.03	60.550
407.23	58.797
407.44	59.084
407.64	59.620
407.85	60.184
408.05	59.517
408.25	59.502
408.46	60.598
408.66	59.074
408.87	61.111
409.07	61.362
409.27	59.752
409.48	59.834
409.68	58.295
409.88	58.546
410.09	59.856
410.29	56.082
410.50	57.765
410.70	56.098
410.90	57.507
411.11	57.961
411.31	57.079
411.51	57.339
411.72	55.841
411.92	58.287
412.12	58.816
412.33	57.812
412.53	57.181
412.74	59.645
412.94	59.006
413.14	59.048
413.35	58.170
413.55	58.439
413.75	58.932
413.96	57.568
414.16	56.657
414.36	57.551
414.57	58.257
414.77	56.709
414.97	57.308
415.18	58.224
415.38	56.761
415.58	57.673
415.79	56.054
415.99	54.485
416.19	55.781
416.40	53.869
416.60	55.847
416.80	56.086
417.01	54.112
417.21	54.355
417.41	56.091
417.62	55.042
417.82	54.269
418.02	54.599
418.23	55.786
418.43	53.725
418.63	53.766
418.84	53.374
419.04	55.338
419.24	53.467
419.45	53.543
419.65	54.116
419.85	54.333
420.06	54.399
420.26	55.632
420.46	53.898
420.67	54.009
420.87	53.352
421.07	52.601
421.28	53.145
421.48	52.602
421.68	53.098
421.88	53.459
422.09	52.942
422.29	53.581
422.49	53.503
422.70	53.653
422.90	54.833
423.10	53.766
423.31	54.156
423.51	54.762
423.71	53.753
423.91	54.031
424.12	52.734
424.32	53.483
424.52	53.871
424.73	53.281
424.93	52.382
425.13	52.502
425.33	53.402
425.54	52.619
425.74	53.012
425.94	53.791
426.15	54.042
426.35	56.200
426.55	54.123
426.75	55.018
426.96	54.047
427.16	54.745
427.36	55.803
427.57	56.978
427.77	54.372
427.97	55.152
428.17	54.035
428.38	54.925
428.58	55.055
428.78	54.836
428.98	53.295
429.19	53.738
429.39	52.509
429.59	54.265
429.79	55.098
430.00	54.036
430.20	53.073
430.40	52.997
430.60	52.397
430.81	53.771
431.01	55.845
431.21	52.437
431.41	52.009
431.62	53.222
431.82	53.321
432.02	51.450
432.22	53.250
432.43	53.041
432.63	53.522
432.83	51.349
433.03	51.116
433.24	52.774
433.44	51.710
433.64	52.959
433.84	52.429
434.05	52.787
434.25	51.316
434.45	52.430
434.65	53.512
434.85	54.387
435.06	52.463
435.26	54.019
435.46	54.515
435.66	54.235
435.87	54.078
436.07	55.587
436.27	53.308
436.47	54.540
436.67	52.990
436.88	54.639
437.08	52.027
437.28	52.447
437.48	52.896
437.69	53.656
437.89	52.485
438.09	54.165
438.29	51.615
438.49	52.306
438.70	51.738
438.90	51.738
439.10	52.914
439.30	52.168
439.50	50.504
439.71	51.629
439.91	52.799
440.11	51.720
440.31	50.998
440.51	52.738
440.72	51.331
440.92	52.080
441.12	52.204
441.32	52.479
441.52	52.061
441.72	52.214
441.93	52.009
442.13	54.143
442.33	52.555
442.53	54.034
442.73	52.728
442.94	54.935
443.14	54.440
443.34	54.542
443.54	53.333
443.74	53.962
443.94	54.788
444.15	55.239
444.35	53.064
444.55	53.113
444.75	52.666
444.95	53.095
445.15	50.656
445.36	51.399
445.56	51.338
445.76	51.927
445.96	51.620
446.16	50.848
446.36	51.188
446.57	50.297
446.77	51.525
446.97	51.479
447.17	51.409
447.37	51.355
447.57	52.650
447.77	52.946
447.98	52.978
448.18	53.930
448.38	52.017
448.58	53.914
448.78	54.740
448.98	54.467
449.18	54.969
449.39	53.838
449.59	53.787
449.79	53.999
449.99	54.920
450.19	56.009
450.39	54.354
450.59	54.101
450.79	53.509
451.00	54.136
451.20	55.212
451.40	54.588
451.60	54.241
451.80	54.375
452.00	51.960
452.20	52.605
452.40	53.039
452.61	52.687
452.81	52.184
453.01	52.027
453.21	51.988
453.41	54.021
453.61	52.416
453.81	53.103
454.01	52.927
454.21	54.300
454.42	53.073
454.62	52.975
454.82	53.082
455.02	53.775
455.22	53.205
455.42	53.419
455.62	52.894
455.82	53.359
456.02	54.375
456.23	53.414
456.43	53.377
456.63	53.564
456.83	51.297
457.03	52.680
457.23	53.560
457.43	54.443
457.63	53.164
457.83	53.731
458.03	52.475
458.23	53.088
458.43	53.567
458.64	51.092
458.84	51.682
459.04	52.093
459.24	51.873
459.44	51.442
459.64	49.304
459.84	50.457
460.04	49.519
460.24	51.068
460.44	50.935
460.64	52.174
460.84	52.382
461.04	51.593
461.24	52.940
461.45	53.536
461.65	52.524
461.85	53.829
462.05	54.697
462.25	55.220
462.45	55.665
462.65	54.687
462.85	54.343
463.05	54.473
463.25	53.629
463.45	52.150
463.65	52.229
463.85	52.288
464.05	53.360
464.25	51.933
464.45	51.478
464.65	51.492
464.85	52.468
465.05	51.420
465.26	53.794
465.46	53.093
465.66	53.051
465.86	51.748
466.06	52.426
466.26	51.400
466.46	51.674
466.66	52.683
466.86	52.010
467.06	51.971
467.26	53.282
467.46	51.154
467.66	51.643
467.86	52.919
468.06	52.932
468.26	52.252
468.46	52.963
468.66	53.593
468.86	51.937
469.06	54.306
469.26	52.492
469.46	52.817
469.66	52.575
469.86	53.466
470.06	52.258
470.26	53.968
470.46	52.225
470.66	52.735
470.86	52.519
471.06	53.818
471.26	51.883
471.46	51.603
471.66	53.288
471.86	52.673
472.06	52.895
472.26	54.286
472.46	52.743
472.66	54.632
472.86	52.316
473.06	52.046
473.26	51.833
473.46	53.414
473.66	52.851
473.86	52.322
474.06	53.027
474.26	52.548
474.46	53.119
474.66	52.385
474.86	54.081
475.06	54.371
475.26	51.677
475.46	53.389
475.66	53.053
475.86	52.460
476.06	53.463
476.26	52.587
476.46	52.287
476.66	54.347
476.86	52.329
477.06	52.331
477.26	52.318
477.46	53.054
477.65	51.674
477.85	52.121
478.05	51.419
478.25	51.717
478.45	52.518
478.65	53.194
478.85	52.199
479.05	53.726
479.25	54.112
479.45	54.204
479.65	52.987
479.85	53.324
480.05	52.610
480.25	54.750
480.45	52.727
480.65	53.061
480.85	52.318
481.05	52.712
481.25	52.237
481.44	53.504
481.64	51.789
481.84	52.367
482.04	51.334
482.24	51.955
482.44	51.687
482.64	49.909
482.84	50.356
483.04	50.446
483.24	49.375
483.44	48.343
483.64	47.204
483.84	47.796
484.04	49.187
484.23	50.716
484.43	52.270
484.63	56.373
484.83	58.376
485.03	61.816
485.23	60.957
485.43	61.041
485.63	60.345
485.83	57.610
486.03	55.372
486.23	57.390
486.42	56.356
486.62	55.991
486.82	53.405
487.02	53.367
487.22	51.732
487.42	51.819
487.62	50.669
487.82	51.131
488.02	51.430
488.22	52.157
488.41	52.373
488.61	52.858
488.81	52.964
489.01	53.946
489.21	54.065
489.41	55.254
489.61	55.209
489.81	55.158
490.01	55.041
490.20	55.476
490.40	55.683
490.60	55.441
490.80	53.183
491.00	53.178
491.20	50.802
491.40	50.617
491.60	49.656
491.79	50.727
491.99	51.183
492.19	51.656
492.39	51.727
492.59	52.990
492.79	52.266
492.99	53.252
493.19	53.742
493.38	55.183
493.58	56.159
493.78	56.586
493.98	55.956
494.18	55.489
494.38	54.465
494.58	54.211
494.77	54.928
494.97	55.008
495.17	54.363
495.37	53.568
495.57	52.666
495.77	53.957
495.96	52.151
496.16	52.459
496.36	52.503
496.56	52.221
496.76	51.776
496.96	52.005
497.15	51.672
497.35	53.090
497.55	51.945
497.75	53.568
497.95	52.289
498.15	53.441
498.34	53.052
498.54	53.497
498.74	53.801
498.94	53.917
499.14	53.053
499.34	53.229
499.53	54.972
499.73	52.882
499.93	53.571
500.13	53.659
500.33	53.974
500.52	53.867
500.72	54.552
500.92	53.985
501.12	53.911
501.32	54.677
501.52	53.437
501.71	53.679
501.91	53.538
502.11	54.238
502.31	53.747
502.51	53.268
502.70	52.960
502.90	53.838
503.10	53.464
503.30	53.797
503.50	54.877
503.69	52.421
503.89	54.071
504.09	54.162
504.29	53.081
504.48	53.209
504.68	53.691
504.88	52.942
505.08	53.094
505.28	54.047
505.47	53.747
505.67	55.120
505.87	55.202
506.07	54.699
506.27	54.689
506.46	53.869
506.66	55.025
506.86	55.017
507.06	54.659
507.25	55.364
507.45	54.710
507.65	53.338
507.85	53.375
508.04	54.883
508.24	55.574
508.44	54.778
508.64	54.541
508.83	54.003
509.03	54.350
509.23	54.502
509.43	55.547
509.63	54.614
509.82	53.246
510.02	55.875
510.22	54.404
510.42	55.569
510.61	55.560
510.81	55.093
511.01	54.197
511.21	55.525
511.40	53.885
511.60	55.008
511.80	55.335
511.99	56.103
512.19	55.428
512.39	54.843
512.59	55.177
512.78	56.658
512.98	54.949
513.18	56.353
513.38	56.637
513.57	57.024
513.77	56.236
513.97	56.904
514.17	56.341
514.36	57.112
514.56	56.882
514.76	56.599
514.95	56.037
515.15	55.703
515.35	56.607
515.55	57.199
515.74	56.431
515.94	57.088
516.14	57.420
516.33	57.370
516.53	55.998
516.73	56.513
516.93	55.696
517.12	56.743
517.32	56.582
517.52	56.048
517.71	55.910
517.91	56.268
518.11	55.208
518.30	56.131
518.50	53.793
518.70	56.008
518.90	55.075
519.09	56.896
519.29	56.897
519.49	56.920
519.68	56.324
519.88	56.736
520.08	57.094
520.27	57.317
520.47	58.439
520.67	57.619
520.86	58.383
521.06	57.817
521.26	57.825
521.45	58.143
521.65	57.661
521.85	57.408
522.04	57.205
522.24	58.087
522.44	56.813
522.63	56.837
522.83	57.832
523.03	59.120
523.22	57.648
523.42	57.679
523.62	57.302
523.81	57.960
524.01	57.832
524.21	57.977
524.40	56.689
524.60	56.867
524.80	56.212
524.99	56.876
525.19	55.884
525.39	55.293
525.58	56.717
525.78	56.504
525.98	56.987
526.17	57.107
526.37	56.773
526.57	56.720
526.76	56.288
526.96	57.246
527.15	56.618
527.35	57.312
527.55	56.620
527.74	57.263
527.94	55.592
528.14	54.984
528.33	53.324
528.53	53.981
528.72	54.409
528.92	55.846
529.12	56.615
529.31	57.582
529.51	57.693
529.71	58.561
529.90	58.639
530.10	59.437
530.29	59.805
530.49	61.537
530.69	61.248
530.88	61.450
531.08	60.324
531.28	60.286
531.47	59.207
531.67	59.632
531.86	58.722
532.06	58.533
532.26	57.768
532.45	58.033
532.65	56.377
532.84	56.757
533.04	55.118
533.24	54.680
533.43	55.440
533.63	55.766
533.82	57.470
534.02	57.910
534.22	57.028
534.41	58.158
534.61	58.379
534.80	58.929
535.00	59.771
535.19	60.670
535.39	61.168
535.59	61.296
535.78	59.137
535.98	59.537
536.17	57.716
536.37	57.368
536.57	56.879
536.76	57.778
536.96	57.690
537.15	57.662
537.35	58.071
537.54	57.989
537.74	57.991
537.93	58.341
538.13	59.347
538.33	59.688
538.52	58.603
538.72	62.160
538.91	60.699
539.11	61.126
539.30	59.837
539.50	59.687
539.70	58.604
539.89	58.067
540.09	58.663
540.28	58.164
540.48	57.756
540.67	55.584
540.87	55.480
541.06	55.324
541.26	54.264
541.45	55.676
541.65	56.871
541.85	57.148
542.04	57.481
542.24	58.668
542.43	58.222
542.63	58.949
542.82	58.989
543.02	59.943
543.21	60.559
543.41	61.061
543.60	60.432
543.80	61.836
543.99	59.887
544.19	60.255
544.38	59.607
544.58	59.851
544.77	58.925
544.97	60.741
545.16	59.223
545.36	60.206
545.56	59.551
545.75	59.758
545.95	59.890
546.14	59.655
546.34	59.117
546.53	58.586
546.73	59.116
546.92	58.574
547.12	59.233
547.31	59.167
547.51	59.012
547.70	59.289
547.90	60.326
548.09	60.422
548.29	60.730
548.48	61.927
548.68	60.999
548.87	61.818
549.07	61.446
549.26	61.219
549.46	60.752
549.65	62.332
549.84	61.129
550.04	61.557
550.23	61.237
550.43	62.179
550.62	60.881
550.82	61.447
551.01	61.004
551.21	61.768
551.40	61.595
551.60	60.160
551.79	61.008
551.99	61.265
552.18	59.695
552.38	61.796
552.57	59.668
552.77	60.151
552.96	61.111
553.16	60.240
553.35	60.320
553.54	61.722
553.74	60.351
553.93	61.664
554.13	62.006
554.32	61.483
554.52	62.952
554.71	62.921
554.91	60.956
555.10	63.539
555.29	61.378
555.49	62.031
555.68	61.789
555.88	61.301
556.07	61.959
556.27	61.645
556.46	61.728
556.66	63.506
556.85	62.440
557.04	64.812
557.24	62.663
557.43	61.330
557.63	62.150
557.82	62.248
558.02	62.767
558.21	62.653
558.40	62.339
558.60	63.111
558.79	62.271
558.99	63.962
559.18	63.597
559.38	63.518
559.57	62.630
559.76	62.724
559.96	63.195
560.15	63.316
560.35	62.960
560.54	63.314
560.73	61.847
560.93	62.074
561.12	62.083
561.32	62.755
561.51	61.929
561.70	64.278
561.90	63.238
562.09	63.212
562.29	63.546
562.48	63.976
562.67	62.804
562.87	64.034
563.06	64.560
563.26	63.385
563.45	64.607
563.64	63.446
563.84	63.883
564.03	65.237
564.23	62.889
564.42	64.668
564.61	63.673
564.81	62.206
565.00	63.755
565.20	63.880
565.39	63.155
565.58	62.806
565.78	62.590
565.97	63.470
566.16	62.375
566.36	63.156
566.55	62.361
566.74	63.348
566.94	63.536
567.13	64.776
567.33	63.170
567.52	64.105
567.71	64.930
567.91	63.255
568.10	63.508
568.29	65.329
568.49	64.546
568.68	65.149
568.87	65.133
569.07	63.723
569.26	65.168
569.45	63.549
569.65	63.390
569.84	64.771
570.04	63.540
570.23	63.311
570.42	62.843
570.62	64.295
570.81	62.573
571.00	63.584
571.20	64.367
571.39	63.486
571.58	62.739
571.78	63.008
571.97	62.647
572.16	63.405
572.36	63.730
572.55	63.507
572.74	62.883
572.94	64.402
573.13	63.788
573.32	65.253
573.51	64.096
573.71	65.069
573.90	63.370
574.09	64.846
574.29	63.692
574.48	64.641
574.67	64.124
574.87	64.226
575.06	64.140
575.25	64.779
575.45	63.924
575.64	63.688
575.83	64.545
576.03	65.260
576.22	64.394
576.41	63.168
576.60	63.517
576.80	64.107
576.99	64.237
577.18	65.379
577.38	64.801
577.57	65.455
577.76	64.819
577.95	64.096
578.15	64.031
578.34	65.428
578.53	62.156
578.73	65.243
578.92	64.546
579.11	63.742
579.30	65.365
579.50	64.318
579.69	65.882
579.88	64.255
580.08	65.041
580.27	65.086
580.46	64.821
580.65	63.651
580.85	65.254
581.04	64.340
581.23	64.658
581.42	64.895
581.62	64.610
581.81	63.677
582.00	65.016
582.19	62.882
582.39	64.237
582.58	65.461
582.77	63.752
582.96	66.579
583.16	65.734
583.35	65.688
583.54	65.751
583.73	66.539
583.93	64.557
584.12	66.122
584.31	66.677
584.50	64.945
584.70	64.655
584.89	64.361
585.08	64.691
585.27	64.742
585.47	63.170
585.66	64.686
585.85	65.195
586.04	64.659
586.24	63.833
586.43	62.605
586.62	64.070
586.81	65.336
587.00	63.597
587.20	64.423
587.39	64.888
587.58	65.177
587.77	62.665
587.97	63.311
588.16	64.476
588.35	64.261
588.54	64.753
588.73	63.503
588.93	63.490
589.12	63.324
589.31	62.718
589.50	64.445
589.69	63.207
589.89	64.412
590.08	63.594
590.27	63.600
590.46	62.557
590.65	65.347
590.85	64.736
591.04	62.833
591.23	63.689
591.42	64.566
591.61	63.734
591.81	64.916
592.00	65.322
592.19	65.663
592.38	63.540
592.57	65.078
592.77	64.581
592.96	64.631
593.15	64.973
593.34	64.825
593.53	64.789
593.72	62.775
593.92	64.903
594.11	64.593
594.30	63.358
594.49	64.426
594.68	64.403
594.87	63.231
595.07	64.386
595.26	64.834
595.45	65.626
595.64	64.883
595.83	63.281
596.02	64.604
596.22	64.273
596.41	64.771
596.60	63.683
596.79	62.981
596.98	63.710
597.17	63.196
597.37	64.375
597.56	65.705
597.75	66.543
597.94	63.743
598.13	64.306
598.32	65.601
598.51	65.513
598.71	66.569
598.90	64.198
599.09	65.800
599.28	64.883
599.47	65.974
599.66	65.045
599.85	66.693
600.05	66.037
600.24	66.332
600.43	66.155
600.62	66.717
600.81	65.068
601.00	66.644
601.19	65.481
601.38	66.865
601.58	67.450
601.77	65.855
601.96	64.339
602.15	66.684
602.34	65.612
602.53	65.920
602.72	66.249
602.91	64.797
603.10	64.573
603.30	64.251
603.49	65.811
603.68	64.643
603.87	64.507
604.06	64.866
604.25	64.365
604.44	64.956
604.63	65.156
604.82	65.191
605.01	63.314
605.21	66.050
605.40	65.173
605.59	66.781
605.78	66.085
605.97	65.624
606.16	65.768
606.35	66.821
606.54	67.595
606.73	66.626
606.92	67.860
607.11	68.609
607.30	67.131
607.50	66.226
607.69	67.103
607.88	66.197
608.07	65.638
608.26	65.426
608.45	66.744
608.64	65.390
608.83	65.953
609.02	65.254
609.21	65.573
609.40	64.791
609.59	66.326
609.78	66.417
609.97	65.180
610.16	63.919
610.35	65.038
610.55	67.244
610.74	66.214
610.93	66.182
611.12	66.424
611.31	65.302
611.50	68.240
611.69	68.149
611.88	65.557
612.07	65.315
612.26	66.550
612.45	66.672
612.64	64.891
612.83	67.957
613.02	65.893
613.21	64.610
613.40	65.440
613.59	66.398
613.78	67.119
613.97	67.522
614.16	66.322
614.35	65.369
614.54	65.043
614.73	64.870
614.92	65.535
615.11	67.152
615.30	67.096
615.49	65.644
615.68	66.957
615.87	65.834
616.07	64.653
616.26	64.626
616.45	66.744
616.64	68.464
616.83	66.947
617.02	65.271
617.21	64.534
617.40	65.669
617.59	65.362
617.78	65.550
617.97	65.311
618.16	65.180
618.35	64.444
618.54	66.380
618.73	65.559
618.92	65.430
619.11	64.987
619.30	64.793
619.49	65.690
619.68	66.195
619.86	66.215
620.05	65.642
620.24	65.859
620.43	64.869
620.62	66.258
620.81	66.419
621.00	65.593
621.19	66.258
621.38	65.999
621.57	66.583
621.76	66.590
621.95	64.700
622.14	65.773
622.33	64.628
622.52	65.302
622.71	65.264
622.90	65.578
623.09	64.848
623.28	64.627
623.47	64.154
623.66	64.418
623.85	65.574
624.04	64.219
624.23	66.059
624.42	66.404
624.61	63.734
624.80	65.051
624.99	65.036
625.18	63.610
625.36	65.126
625.55	64.302
625.74	63.429
625.93	64.118
626.12	64.438
626.31	65.515
626.50	66.354
626.69	62.988
626.88	65.534
627.07	63.913
627.26	64.591
627.45	63.750
627.64	63.038
627.83	65.635
628.02	63.756
628.20	64.940
628.39	63.665
628.58	63.161
628.77	65.426
628.96	65.126
629.15	64.314
629.34	62.135
629.53	63.918
629.72	65.892
629.91	63.806
630.10	63.381
630.29	63.491
630.47	62.974
630.66	65.408
630.85	63.906
631.04	64.059
631.23	64.629
631.42	62.547
631.61	63.212
631.80	63.262
631.99	64.410
632.18	64.619
632.36	64.116
632.55	66.752
632.74	64.396
632.93	65.757
633.12	64.952
633.31	64.614
633.50	63.374
633.69	63.274
633.88	63.189
634.06	65.121
634.25	63.863
634.44	62.644
634.63	63.246
634.82	63.155
635.01	63.109
635.20	62.534
635.39	64.003
635.57	64.962
635.76	63.298
635.95	63.157
636.14	63.067
636.33	63.534
636.52	63.252
636.71	64.667
636.89	64.391
637.08	65.580
637.27	65.628
637.46	64.653
637.65	64.048
637.84	63.564
638.03	66.044
638.21	65.456
638.40	64.556
638.59	64.046
638.78	65.308
638.97	65.917
639.16	64.340
639.34	63.089
639.53	63.532
639.72	63.962
639.91	64.140
640.10	64.910
640.29	64.246
640.47	64.975
640.66	64.661
640.85	65.128
641.04	64.483
641.23	65.398
641.42	66.086
641.60	65.330
641.79	65.135
641.98	65.306
642.17	63.545
642.36	65.991
642.54	65.564
642.73	65.886
642.92	65.093
643.11	65.677
643.30	61.196
643.49	66.658
643.67	67.400
643.86	65.555
644.05	64.905
644.24	66.263
644.43	65.688
644.61	63.936
644.80	64.975
644.99	66.026
645.18	66.594
645.37	64.768
645.55	64.981
645.74	64.939
645.93	64.625
646.12	63.861
646.31	66.305
646.49	65.034
646.68	64.430
646.87	65.602
647.06	65.983
647.24	64.536
647.43	64.606
647.62	64.585
647.81	65.567
648.00	65.171
648.18	64.982
648.37	65.304
648.56	62.608
648.75	63.216
648.93	64.880
649.12	64.898
649.31	66.658
649.50	66.171
649.68	64.572
649.87	66.280
650.06	64.497
650.25	64.032
650.43	63.554
650.62	64.508
650.81	62.672
651.00	65.755
651.18	63.723
651.37	61.778
651.56	64.984
651.75	62.814
651.93	63.791
652.12	63.948
652.31	62.751
652.50	63.540
652.68	63.120
652.87	65.257
653.06	64.498
653.25	64.015
653.43	63.197
653.62	64.521
653.81	65.413
654.00	66.331
654.18	63.980
654.37	65.773
654.56	63.706
654.74	62.441
654.93	64.232
655.12	63.634
655.31	64.359
655.49	64.335
655.68	66.095
655.87	63.014
656.05	60.940
656.24	64.601
656.43	62.715
656.62	66.097
656.80	63.869
656.99	64.737
657.18	63.887
657.36	64.538
657.55	62.915
657.74	61.316
657.93	63.552
658.11	63.921
658.30	64.484
658.49	63.214
658.67	62.249
658.86	62.166
659.05	61.535
659.23	60.296
659.42	60.455
659.61	60.241
659.79	59.723
659.98	60.363
660.17	59.343
660.35	59.748
660.54	60.262
660.73	62.989
660.91	58.807
661.10	60.947
661.29	60.573
661.47	60.121
661.66	59.818
661.85	61.959
662.03	60.117
662.22	60.590
662.41	59.132
662.59	58.830
662.78	60.872
662.97	59.407
663.15	57.917
663.34	60.856
663.53	58.271
663.71	59.498
663.90	58.045
664.09	58.434
664.27	60.545
664.46	59.839
664.65	57.239
664.83	59.640
665.02	57.570
665.21	59.944
665.39	58.905
665.58	58.652
665.77	56.113
665.95	60.425
666.14	57.257
666.32	58.944
666.51	57.051
666.70	59.792
666.88	56.785
667.07	55.920
667.26	57.110
667.44	58.021
667.63	57.392
667.81	59.665
668.00	56.950
668.19	59.377
668.37	57.767
668.56	55.803
668.75	57.668
668.93	56.735
669.12	55.849
669.30	57.051
669.49	55.266
669.68	56.178
669.86	57.156
670.05	56.349
670.23	58.843
670.42	59.331
670.61	55.942
670.79	57.245
670.98	57.802
671.16	56.056
671.35	58.272
671.54	58.668
671.72	56.659
671.91	56.694
672.09	59.777
672.28	58.581
672.46	57.162
672.65	57.802
672.84	57.631
673.02	57.606
673.21	58.225
673.39	57.566
673.58	58.345
673.77	57.158
673.95	57.182
674.14	57.043
674.32	58.179
674.51	59.318
674.69	57.113
674.88	57.216
675.07	54.185
675.25	58.598
675.44	55.752
675.62	59.352
675.81	56.532
675.99	59.604
676.18	56.749
676.36	57.042
676.55	59.031
676.74	58.920
676.92	58.685
677.11	57.386
677.29	54.092
677.48	59.416
677.66	57.551
677.85	60.980
678.03	57.647
678.22	60.081
678.40	59.364
678.59	57.625
678.78	59.644
678.96	57.262
679.15	58.161
679.33	56.419
679.52	59.865
679.70	57.427
679.89	57.147
680.07	58.139
680.26	57.181
680.44	59.345
680.63	56.717
680.81	55.470
681.00	56.465
681.18	57.997
681.37	57.902
681.55	57.773
681.74	59.083
681.92	56.890
682.11	58.307
682.29	57.995
682.48	59.432
682.66	59.763
682.85	58.243
683.03	60.409
683.22	61.508
683.40	60.849
683.59	59.659
683.77	63.361
683.96	59.847
684.14	61.197
684.33	60.707
684.51	63.057
684.70	60.743
684.88	62.361
685.07	62.735
685.25	65.865
685.44	61.713
685.62	62.062
685.81	61.583
685.99	64.236
686.18	63.312
686.36	64.982
686.55	62.624
686.73	64.488
686.92	65.861
687.10	61.055
687.29	64.288
687.47	64.746
687.65	64.025
687.84	64.575
688.02	64.663
688.21	70.032
688.39	66.204
688.58	65.697
688.76	67.157
688.95	64.782
689.13	67.156
689.32	68.666
689.50	67.919
689.68	68.302
689.87	67.126
690.05	66.986
690.24	67.964
690.42	71.062
690.61	68.519
690.79	72.165
690.98	73.090
691.16	69.971
691.34	72.129
691.53	73.099
691.71	72.168
691.90	70.793
692.08	71.184
692.27	68.460
692.45	70.653
692.63	71.318
692.82	70.524
693.00	71.531
693.19	70.710
693.37	70.555
693.56	76.913
693.74	75.504
693.92	74.185
694.11	73.574
694.29	74.438
694.48	72.754
694.66	78.059
694.84	74.165
695.03	74.196
695.21	74.949
695.40	77.849
695.58	78.129
695.76	74.474
695.95	77.215
696.13	79.798
696.32	77.659
696.50	78.297
696.68	77.760
696.87	77.000
697.05	78.410
697.24	77.214
697.42	80.073
697.60	76.174
697.79	75.670
697.97	75.883
698.16	77.083
698.34	75.467
698.52	75.867
698.71	75.409
698.89	75.591
699.07	74.610
699.26	75.914
699.44	76.435
699.63	75.577
699.81	77.316
699.99	76.513
700.18	75.968
700.36	75.985
700.54	78.343
700.73	77.866
700.91	77.123
701.09	77.388
701.28	75.399
701.46	76.353
701.64	79.384
701.83	81.361
702.01	77.575
702.20	81.797
702.38	79.057
702.56	79.136
702.75	79.561
702.93	78.065
703.11	85.165
703.30	83.125
703.48	82.615
703.66	85.261
703.85	83.224
704.03	84.658
704.21	83.806
704.40	86.104
704.58	87.988
704.76	85.211
704.95	83.743
705.13	84.318
705.31	87.667
705.50	81.991
705.68	87.933
705.86	88.734
706.04	84.185
706.23	88.169
706.41	88.474
706.59	85.979
706.78	83.405
706.96	86.222
707.14	87.198
707.33	83.519
707.51	86.337
707.69	85.569
707.88	85.072
708.06	87.640
708.24	86.192
708.42	88.286
708.61	83.135
708.79	83.994
708.97	88.718
709.16	88.124
709.34	91.671
709.52	88.485
709.71	85.975
709.89	85.830
710.07	85.247
710.25	84.958
710.44	83.789
710.62	86.797
710.80	86.150
710.98	84.923
711.17	87.064
711.35	85.179
711.53	82.615
711.72	87.179
711.90	84.519
712.08	84.386
712.26	83.355
712.45	84.615
712.63	85.798
712.81	85.394
712.99	86.043
713.18	86.561
713.36	87.455
713.54	82.824
713.72	83.394
713.91	85.872
714.09	84.067
714.27	87.568
714.45	86.649
714.64	86.372
714.82	87.570
715.00	84.829
715.18	92.519
715.37	89.717
715.55	83.015
715.73	87.650
715.91	87.442
716.10	84.831
716.28	84.914
716.46	85.249
716.64	90.870
716.83	86.491
717.01	86.168
717.19	85.991
717.37	84.861
717.55	84.295
717.74	88.966
717.92	86.023
718.10	81.670
718.28	85.455
718.47	90.748
718.65	86.963
718.83	86.667
719.01	88.691
719.19	88.389
719.38	86.205
719.56	89.082
719.74	85.319
719.92	81.548
720.10	86.074
720.29	84.522
720.47	86.600
720.65	90.681
720.83	88.822
721.01	86.748
721.20	91.906
721.38	86.181
721.56	89.149
721.74	94.600
721.92	93.562
722.11	91.263
722.29	88.662
722.47	90.748
722.65	93.532
722.83	89.659
723.01	91.362
723.20	92.867
723.38	88.438
723.56	88.965
723.74	93.910
723.92	92.585
724.10	89.877
724.29	93.434
724.47	97.712
724.65	89.755
724.83	93.603
725.01	90.391
725.19	88.769
725.38	84.408
725.56	93.423
725.74	94.675
725.92	92.066
726.10	88.737
726.28	86.445
726.46	90.861
726.65	92.755
726.83	94.629
727.01	87.897
727.19	90.431
727.37	90.294
727.55	91.483
727.73	89.832
727.92	91.937
728.10	92.570
728.28	87.040
728.46	90.240
728.64	90.434
728.82	90.703
729.00	89.627
729.19	90.643
729.37	91.453
729.55	91.847
729.73	92.866
729.91	89.408
730.09	92.919
730.27	92.407
730.45	91.756
730.63	90.956
730.82	87.740
731.00	94.056
731.18	90.542
731.36	89.637
731.54	89.641
731.72	91.889
731.90	91.776
732.08	94.538
732.26	88.635
732.45	94.755
732.63	89.690
732.81	94.681
732.99	91.453
733.17	89.234
733.35	92.491
733.53	90.635
733.71	91.210
733.89	92.490
734.07	91.092
734.25	91.409
734.44	92.370
734.62	88.285
734.80	93.195
734.98	97.315
735.16	92.033
735.34	93.089
735.52	96.208
735.70	91.740
735.88	94.321
736.06	91.785
736.24	95.758
736.42	98.603
736.60	100.851
736.78	97.398
736.97	89.072
737.15	92.902
737.33	101.570
737.51	99.357
737.69	100.681
737.87	97.065
738.05	97.686
738.23	97.109
738.41	99.570
738.59	98.449
738.77	100.795
738.95	94.650
739.13	97.959
739.31	93.505
739.49	94.042
739.67	97.425
739.85	94.877
740.03	102.778
740.21	100.000
740.39	97.678
740.57	99.428
740.75	99.367
740.93	93.064
741.11	99.701
741.30	104.012
741.48	103.199
741.66	101.771
741.84	97.448
742.02	99.459
742.20	93.854
742.38	100.996
742.56	103.735
742.74	101.398
742.92	103.125
743.10	98.740
743.28	102.267
743.46	104.458
743.64	102.855
743.82	103.740
744.00	100.241
744.18	102.318
744.36	101.759
744.54	104.674
744.72	101.699
744.90	108.295
745.08	99.570
745.26	97.445
745.44	95.780
745.62	104.459
745.80	94.706
745.98	104.973
746.16	103.934
746.34	102.636
746.52	106.165
746.70	100.533
746.87	104.719
747.05	101.754
747.23	106.608
747.41	105.121
747.59	103.787
747.77	106.807
747.95	106.921
748.13	102.004
748.31	111.638
748.49	103.502
748.67	107.471
748.85	105.605
749.03	108.602
749.21	106.481
749.39	104.570
749.57	99.362
749.75	103.203
749.93	101.952
750.11	100.000
750.29	103.836
750.47	103.359
750.65	100.900
750.83	111.397
751.01	96.257
751.18	95.104
751.36	100.274
751.54	100.939
751.72	103.151
751.90	93.902
752.08	107.012
752.26	102.189
752.44	100.741
752.62	98.778
752.80	98.221
752.98	100.086
753.16	101.440
753.34	104.050
753.52	108.727
753.69	98.954
753.87	100.435
754.05	102.183
754.23	105.157
754.41	102.724
754.59	101.771
754.77	100.174
754.95	102.795
755.13	100.176
755.31	99.158
755.49	111.561
755.66	97.966
755.84	99.491
756.02	99.814
756.20	104.895
756.38	96.733
756.56	98.583
756.74	108.012
756.92	106.636
757.10	109.429
757.28	102.603
757.45	108.676
757.63	100.973
757.81	96.374
757.99	104.209
758.17	106.140
758.35	107.418
758.53	103.992
758.71	105.812
758.88	96.400
759.06	96.480
759.24	95.000
759.42	95.844
759.60	96.536
759.78	92.314
759.96	88.368
760.13	89.223
760.31	84.991
760.49	88.953
760.67	78.315
760.85	87.119
761.03	83.746
761.21	85.498
761.38	83.895
761.56	87.315
761.74	78.793
761.92	79.744
762.10	83.102
762.28	85.668
762.46	86.352
762.63	86.068
762.81	85.894
762.99	85.177
763.17	86.250
763.35	84.632
763.53	79.878
763.70	78.015
763.88	89.370
764.06	86.552
764.24	83.115
764.42	79.552
764.60	84.170
764.77	85.051
764.95	80.922
765.13	87.762
765.31	83.425
765.49	84.112
765.66	84.247
765.84	83.909
766.02	88.174
766.20	91.310
766.38	93.695
766.56	90.362
766.73	86.751
766.91	98.000
767.09	95.885
767.27	91.947
767.45	94.378
767.62	95.069
767.80	94.500
767.98	99.546
768.16	101.475
768.33	94.699
768.51	97.745
768.69	103.920
768.87	96.272
769.05	109.749
769.22	100.299
769.40	102.451
769.58	100.210
769.76	102.906
769.94	105.005
770.11	99.568
770.29	102.050
770.47	110.862
770.65	111.534
770.82	105.471
771.00	110.105
771.18	104.956
771.36	101.098
771.53	105.172
771.71	111.729
771.89	116.606
772.07	101.484
772.25	104.333
772.42	101.769
772.60	107.683
772.78	108.845
772.96	109.058
773.13	106.316
773.31	103.787
773.49	109.176
773.67	115.869
773.84	108.313
774.02	114.843
774.20	109.613
774.37	114.075
774.55	108.756
774.73	110.691
774.91	100.611
775.08	111.653
775.26	105.328
775.44	113.535
775.62	106.827
775.79	113.984
775.97	112.703
776.15	113.263
776.32	106.443
776.50	118.318
776.68	121.365
776.86	102.500
777.03	105.906
777.21	103.347
777.39	119.006
777.56	112.327
777.74	106.142
777.92	108.666
778.10	105.807
778.27	114.305
778.45	109.042
778.63	110.972
778.80	105.702
778.98	115.182
779.16	113.596
779.34	112.867
779.51	106.225
779.69	110.490
779.87	112.725
780.04	105.722
780.22	114.551
780.40	127.273
780.57	109.564
780.75	109.128
780.93	116.066
781.10	115.964
781.28	108.333
781.46	106.293
781.63	103.231
781.81	112.355
781.99	111.354
782.16	109.649
782.34	114.395
782.52	113.841
782.69	105.439
782.87	110.912
783.05	102.143
783.22	111.111
783.40	108.824
783.58	109.417
783.75	114.141
783.93	124.544
784.11	118.049
784.28	111.792
784.46	110.798
784.64	107.717
784.81	111.058
784.99	118.009
785.17	112.459
785.34	104.934
785.52	102.276
785.69	107.621
785.87	107.926
786.05	118.462
786.22	106.929
786.40	120.888
786.58	105.732
786.75	111.661
786.93	105.063
787.11	115.088
787.28	106.390
787.46	117.427
787.63	109.402
787.81	105.175
787.99	117.752
788.16	114.032
788.34	99.215
788.51	111.782
788.69	102.655
788.87	106.777
789.04	98.739
789.22	106.283
789.39	96.433
789.57	97.526
789.75	97.766
789.92	107.984
790.10	94.148
790.27	105.816
790.45	98.293
790.63	104.874
790.80	100.881
790.98	102.609
791.15	105.723
791.33	104.944
791.51	104.948
791.68	104.120
791.86	112.748
792.03	105.333
792.21	101.997
792.39	105.678
792.56	90.000
792.74	98.758
792.91	112.656
793.09	105.464
793.26	113.028
793.44	101.201
793.62	97.619
793.79	106.710
793.97	103.601
794.14	105.345
794.32	116.105
794.49	117.528
794.67	106.295
794.84	105.624
795.02	102.726
795.20	119.485
795.37	96.817
795.55	101.227
795.72	103.534
795.90	102.848
796.07	112.241
796.25	117.057
796.42	104.870
796.60	100.447
796.77	104.312
796.95	116.587
797.13	100.647
797.30	103.161
797.48	99.258
797.65	98.892
797.83	105.341
798.00	103.236
798.18	96.885
798.35	103.725
798.53	108.833
798.70	102.443
798.88	95.652
799.05	99.221
799.23	96.118
799.40	103.662
799.58	108.763
799.75	105.065
799.93	100.687
800.10	117.939
800.28	109.690
800.45	109.336
800.63	96.763
800.80	120.543
800.98	104.833
801.15	102.655
801.33	104.762
801.50	101.554
801.68	113.102
801.85	90.566
802.03	86.913
802.20	108.614
802.38	93.286
802.55	108.269
802.73	94.783
802.90	120.594
803.08	93.416
803.25	118.462
803.43	99.104
803.60	121.162
803.78	92.467
803.95	103.049
804.13	100.346
804.30	106.483
804.48	95.707
804.65	111.614
804.83	92.917
805.00	95.862
805.17	100.971
805.35	99.053
805.52	94.455
805.70	104.906
805.87	107.579
806.05	112.914
806.22	99.814
806.40	103.083
806.57	99.438
806.75	103.303
806.92	97.895
807.09	109.108
807.27	92.374
807.44	105.725
807.62	92.605
807.79	99.464
807.97	98.046
808.14	105.800
808.31	95.062
808.49	107.544
808.66	100.193
808.84	100.969
809.01	101.699
809.19	109.877
809.36	105.906
809.53	101.786
809.71	89.382
809.88	113.082
810.06	106.299
810.23	104.400
810.41	97.925
810.58	115.222
810.75	99.142
810.93	97.239
811.10	86.105
811.28	113.870
811.45	97.065
811.62	103.371
811.80	98.298
811.97	109.740
812.15	102.170
812.32	103.664
812.49	102.397
812.67	104.681
812.84	95.385
813.02	113.229
813.19	96.163
813.36	102.603
813.54	96.681
813.71	98.182
813.89	104.626
814.06	128.571
814.23	90.826
814.41	100.946
814.58	97.115
814.75	113.022
814.93	99.762
815.10	110.256
815.28	101.716
815.45	87.438
815.62	81.775
815.80	92.610
815.97	85.714
816.14	100.211
816.32	94.377
816.49	108.158
816.66	92.250
816.84	99.476
817.01	86.551
817.18	95.804
817.36	89.931
817.53	115.174
817.71	73.434
817.88	89.091
818.05	86.130
818.23	89.762
818.40	92.925
818.57	84.402
818.75	84.919
818.92	94.397
819.09	87.795
819.27	90.196
819.44	80.318
819.61	89.114
819.79	87.243
819.96	99.010
820.13	83.074
820.31	82.261
820.48	93.312
820.65	98.145
820.82	86.460
821.00	95.912
821.17	72.389
821.34	87.411
821.52	85.893
821.69	80.947
821.86	84.805
822.04	87.328
822.21	80.112
822.38	89.142
822.56	83.584
822.73	82.274
822.90	81.229
823.07	81.216
823.25	80.555
823.42	74.362
823.59	76.824
823.77	75.427
823.94	74.326
824.11	72.934
824.29	75.043
824.46	78.649
824.63	81.260
824.80	79.537
824.98	76.657
825.15	78.679
825.32	77.392
825.49	80.706
825.67	79.782
825.84	80.943
826.01	74.438
826.19	83.855
826.36	76.085
826.53	82.195
826.70	74.419
826.88	83.480
827.05	81.426
827.22	84.223
827.39	83.164
827.57	85.725
827.74	81.937
827.91	81.677
828.08	78.011
828.26	83.709
828.43	77.093
828.60	81.855
828.77	79.368
828.95	79.240
829.12	73.887
829.29	77.498
829.46	81.211
829.64	82.336
829.81	71.384
829.98	79.003
830.15	73.373
830.32	81.211
830.50	70.494
830.67	74.679
830.84	73.134
831.01	77.429
831.19	76.748
831.36	91.463
831.53	79.762
831.70	90.019
831.87	86.157
832.05	92.871
832.22	102.018
832.39	89.130
832.56	87.786
832.74	94.196
832.91	83.122
833.08	93.725
833.25	68.366
833.42	80.829
833.60	78.922
833.77	83.497
833.94	76.766
834.11	75.879
834.28	71.344
834.45	79.221
834.63	71.704
834.80	78.556
834.97	76.447
835.14	81.250
835.31	77.200
835.49	75.901
835.66	71.091
835.83	76.857
836.00	74.804
836.17	84.868
836.34	71.875
836.52	76.053
836.69	88.058
836.86	75.000
837.03	78.583
837.20	75.641
837.37	78.611
837.55	77.168
837.72	82.852
837.89	93.893
838.06	79.087
838.23	92.584
838.40	86.052
838.58	86.667
838.75	92.877
838.92	108.966
839.09	105.820
839.26	96.257
839.43	93.084
839.60	103.010
839.78	117.593
839.95	114.332
840.12	90.506
840.29	112.420
840.46	115.734
840.63	107.941
840.80	88.800
840.98	125.143
841.15	83.750
841.32	88.056
841.49	82.029
841.66	103.825
841.83	82.667
842.00	105.696
842.17	99.726
842.34	81.662
842.52	96.108
842.69	105.346
842.86	100.000
843.03	124.843
843.20	104.898
843.37	121.678
843.54	107.317
843.71	111.837
843.88	108.940
844.06	120.243
844.23	137.198
844.40	107.576
844.57	115.319
844.74	120.087
844.91	137.037
845.08	116.078
845.25	99.635
845.42	116.583
845.59	146.784
845.76	125.909
845.94	170.886
846.11	120.398
846.28	143.448
846.45	144.785
846.62	128.649
846.79	138.889
846.96	97.738
847.13	135.294
847.30	109.091
847.47	128.022
847.64	114.535
847.81	132.418
847.98	125.405
848.15	125.806
848.32	156.186
848.50	151.553
848.67	185.417
848.84	140.404
849.01	132.653
849.18	132.105
849.35	137.173
849.52	142.775
849.69	116.763
849.86	150.307
850.03	166.438
850.20	176.389
850.37	142.143
850.54	175.472
850.71	187.805
850.88	149.650
851.05	141.096
851.22	181.366
851.39	137.629
851.56	137.500
851.73	145.000
851.90	138.125
852.07	139.412
852.24	130.147
852.41	156.204
852.58	141.667
852.75	123.669
852.92	150.543
853.09	146.369
853.26	172.611
853.43	112.273
853.60	135.567
853.77	149.645
853.94	154.545
854.11	194.872
854.28	153.191
854.45	130.769
854.62	170.470
854.79	159.231
854.96	164.493
855.13	127.778
855.30	127.461
855.47	153.103
855.64	174.775
855.81	152.381
855.98	145.333
856.15	128.966
856.32	127.230
856.49	129.680
856.66	152.326
856.83	134.031
857.00	172.951
857.17	191.667
857.34	140.909
857.51	130.769
857.68	187.857
857.85	127.879
858.02	300.000
858.19	157.857
858.36	124.000
858.53	138.857
858.70	117.219
858.87	193.793
859.04	154.225
859.21	100.000
859.38	137.086
859.55	242.593
859.72	204.959
859.89	216.667
860.05	173.643
860.22	173.026
860.39	205.607
860.56	166.055
860.73	131.928
860.90	148.000
861.07	153.005
861.24	199.145
861.41	147.143
861.58	121.675
861.75	189.815
861.92	148.819
862.09	135.542
862.26	237.234
862.43	164.662
862.59	125.128
862.76	158.503
862.93	157.764
863.10	140.000
863.27	131.892
863.44	122.368
863.61	139.412
863.78	169.718
863.95	170.992
864.12	129.861
864.29	150.388
864.45	198.630
864.62	151.880
864.79	161.486
864.96	156.349
865.13	174.809
865.30	210.909
865.47	175.000
865.64	149.375
865.81	124.691
865.97	125.683
866.14	148.095
866.31	180.488
866.48	168.992
866.65	155.000
866.82	140.940
866.99	216.505
867.16	252.857
867.33	196.581
867.49	178.102
867.66	152.427
867.83	151.200
868.00	128.369
868.17	137.121
868.34	162.329
868.51	110.563
868.67	171.074
868.84	125.850
869.01	194.488
869.18	142.636
869.35	225.556
869.52	157.534
869.69	136.641
869.85	139.572
870.02	142.056
870.19	191.597
870.36	142.857
870.53	105.682
870.70	95.349
870.86	134.591
871.03	177.311
871.20	119.868
871.37	124.880
871.54	142.759
871.71	125.926
871.87	136.986
872.04	130.323
872.21	244.086
872.38	111.043
872.55	161.972
872.72	109.767
872.88	155.621
873.05	119.780
873.22	116.667
873.39	151.220
873.56	127.746
873.72	179.104
873.89	131.884
874.06	144.079
874.23	193.220
874.40	159.441
874.56	208.491
874.73	146.196
874.90	128.814
875.07	160.417
875.24	98.844
875.40	136.129
875.57	140.805
875.74	130.667
875.91	134.711
876.08	142.424
876.24	153.896
876.41	143.023
876.58	142.857
876.75	109.524
876.92	153.097
877.08	150.893
877.25	136.076
877.42	139.259
877.59	136.364
877.75	159.060
877.92	164.000
878.09	181.203
878.26	151.948
878.42	148.551
878.59	166.912
878.76	112.179
878.93	133.333
879.09	82.447
879.26	115.676
879.43	140.588
879.60	118.519
879.76	132.026
879.93	143.671
880.10	132.099
880.27	95.872
880.43	101.463
880.60	98.174
880.77	105.195
880.94	93.091
881.10	91.667
881.27	77.600
881.44	69.746
881.61	69.651
881.77	69.246
881.94	64.805
882.11	56.270
882.28	58.333
882.44	68.956
882.61	68.287
882.78	67.869
882.94	75.353
883.11	70.033
883.28	63.075
883.45	66.205
883.61	63.373
883.78	61.301
883.95	67.846
884.11	64.961
884.28	61.876
>>>>>End Processed Spectral Data<<<<<
