SpectraSuite Data File
++++++++++++++++++++++++++++++++++++
Date: Fri Sep 20 03:59:39 EST 2019
User: sgrac
Dark Spectrum Present: Yes
Reference Spectrum Present: Yes
Number of Sampled Component Spectra: 1
Spectrometers: USB4E01596
Integration Time (usec): 100000 (USB4E01596)
Spectra Averaged: 1 (USB4E01596)
Boxcar Smoothing: 0 (USB4E01596)
Correct for Electrical Dark: No (USB4E01596)
Strobe/Lamp Enabled: Yes (USB4E01596)
Correct for Detector Non-linearity: No (USB4E01596)
Correct for Stray Light: No (USB4E01596)
Number of Pixels in Processed Spectrum: 3648
>>>>>Begin Processed Spectral Data<<<<<
178.44	643.478
178.66	643.478
178.87	643.478
179.09	-565.000
179.30	373.333
179.52	582.143
179.74	2820.000
179.95	-440.000
180.17	-787.500
180.38	-925.000
180.60	-519.355
180.82	626.087
181.03	-2750.000
181.25	-2020.000
181.46	-1572.727
181.68	0.000
181.89	15900.000
182.11	2187.500
182.33	1538.462
182.54	-422.857
182.76	326.000
182.97	555.556
183.19	2144.444
183.40	-900.000
183.62	1100.000
183.84	-215.000
184.05	0.000
184.27	16600.000
184.48	790.000
184.70	7650.000
184.91	1192.308
185.13	461.364
185.34	325.926
185.56	-695.238
185.78	742.105
185.99	-8000.000
186.21	485.714
186.42	1200.000
186.64	252.239
186.85	223.457
187.07	875.000
187.28	-348.649
187.50	-695.455
187.72	271.875
187.93	16100.000
188.15	722.727
188.36	303.846
188.58	864.706
188.79	7000.000
189.01	582.353
189.22	1341.667
189.44	391.489
189.65	-910.000
189.87	1200.000
190.09	513.889
190.30	-3360.000
190.52	504.878
190.73	755.556
190.95	-1453.846
191.16	-1125.000
191.38	-634.783
191.59	1888.889
191.81	370.000
192.02	412.500
192.24	323.810
192.45	422.857
192.67	686.364
192.88	0.000
193.10	497.059
193.31	-1470.000
193.53	365.909
193.74	489.474
193.96	2050.000
194.18	286.957
194.39	312.000
194.61	670.000
194.82	634.483
195.04	1325.000
195.25	444.681
195.47	910.526
195.68	-1430.000
195.90	3150.000
196.11	4500.000
196.33	-525.926
196.54	631.034
196.76	328.889
196.97	950.000
197.19	-927.778
197.40	636.111
197.62	-950.000
197.83	1026.667
198.05	568.421
198.26	440.909
198.48	1650.000
198.69	548.571
198.91	2100.000
199.12	445.000
199.34	298.462
199.55	-1081.818
199.77	840.000
199.98	2480.000
200.20	1518.182
200.41	433.333
200.63	-2800.000
200.84	446.341
201.06	-14000.000
201.27	1064.706
201.49	300.000
201.70	1064.706
201.91	1506.250
202.13	990.000
202.34	4225.000
202.56	1871.429
202.77	-2850.000
202.99	1120.000
203.20	885.714
203.42	-407.143
203.63	561.290
203.85	-729.167
204.06	5966.667
204.28	-2975.000
204.49	2614.286
204.71	368.750
204.92	1822.222
205.14	0.000
205.35	1026.667
205.56	589.286
205.78	546.154
205.99	394.595
206.21	665.517
206.42	2466.667
206.64	-360.976
206.85	1293.333
207.07	1261.538
207.28	573.333
207.50	-2100.000
207.71	469.767
207.93	7600.000
208.14	-364.865
208.35	541.379
208.57	-1087.500
208.78	555.172
209.00	457.895
209.21	0.000
209.43	704.348
209.64	309.302
209.86	2200.000
210.07	1400.000
210.28	628.571
210.50	3120.000
210.71	376.923
210.93	513.158
211.14	340.984
211.36	420.000
211.57	2275.000
211.78	-868.182
212.00	650.000
212.21	-852.632
212.43	458.065
212.64	414.286
212.86	578.571
213.07	664.286
213.29	286.842
213.50	-402.941
213.71	-13100.000
213.93	-1911.111
214.14	720.000
214.36	-2771.429
214.57	194.186
214.78	531.429
215.00	-5200.000
215.21	-2150.000
215.43	-403.030
215.64	1093.750
215.86	-3375.000
216.07	657.143
216.28	275.806
216.50	325.532
216.71	-2940.000
216.93	1435.714
217.14	461.111
217.35	211.842
217.57	-920.000
217.78	1754.545
218.00	263.636
218.21	280.328
218.42	332.653
218.64	351.111
218.85	353.448
219.07	380.000
219.28	700.000
219.49	-1390.909
219.71	435.714
219.92	3083.333
220.14	6100.000
220.35	5300.000
220.56	1146.667
220.78	282.540
220.99	2133.333
221.21	448.649
221.42	700.000
221.63	483.333
221.85	16200.000
222.06	462.069
222.28	785.000
222.49	15400.000
222.70	-5466.667
222.92	350.000
223.13	230.435
223.34	358.182
223.56	394.595
223.77	750.000
223.99	255.128
224.20	172.072
224.41	386.047
224.63	497.059
224.84	552.000
225.05	285.417
225.27	274.074
225.48	236.709
225.69	318.182
225.91	235.065
226.12	304.839
226.34	263.768
226.55	170.312
226.76	235.821
226.98	190.351
227.19	430.000
227.40	149.524
227.62	155.405
227.83	174.737
228.04	229.630
228.26	150.926
228.47	120.833
228.69	83.516
228.90	88.764
229.11	62.069
229.33	58.197
229.54	86.531
229.75	48.289
229.97	43.919
230.18	50.543
230.39	47.353
230.61	49.689
230.82	67.647
231.03	47.258
231.25	60.174
231.46	54.603
231.67	62.703
231.89	84.926
232.10	83.206
232.31	71.628
232.53	67.181
232.74	64.344
232.95	71.357
233.17	82.143
233.38	71.759
233.59	82.353
233.81	86.283
234.02	52.709
234.23	88.710
234.45	104.636
234.66	67.822
234.87	114.535
235.09	83.111
235.30	63.226
235.51	74.138
235.73	50.521
235.94	67.025
236.15	77.239
236.36	81.857
236.58	66.946
236.79	82.625
237.00	67.470
237.22	85.345
237.43	74.815
237.64	77.273
237.86	89.706
238.07	70.518
238.28	77.778
238.50	69.835
238.71	61.702
238.92	77.941
239.13	58.929
239.35	83.871
239.56	68.950
239.77	82.609
239.99	47.656
240.20	64.748
240.41	63.323
240.63	47.692
240.84	60.377
241.05	43.590
241.26	49.128
241.48	51.385
241.69	43.567
241.90	38.901
242.12	29.779
242.33	34.030
242.54	24.881
242.75	23.423
242.97	28.490
243.18	19.570
243.39	19.897
243.61	26.682
243.82	20.874
244.03	21.205
244.24	16.156
244.46	23.250
244.67	17.733
244.88	22.656
245.09	28.411
245.31	28.974
245.52	25.510
245.73	30.323
245.95	53.933
246.16	27.817
246.37	27.349
246.58	23.810
246.80	21.517
247.01	18.713
247.22	16.333
247.43	17.423
247.65	16.325
247.86	14.275
248.07	11.293
248.28	12.450
248.50	11.809
248.71	12.569
248.92	7.391
249.13	12.632
249.35	11.800
249.56	13.112
249.77	14.383
249.98	18.825
250.20	18.649
250.41	25.166
250.62	17.391
250.83	24.602
251.05	23.421
251.26	19.937
251.47	25.142
251.68	23.112
251.90	31.034
252.11	21.182
252.32	27.298
252.53	25.932
252.75	17.154
252.96	23.223
253.17	23.326
253.38	19.596
253.59	20.071
253.81	25.342
254.02	22.539
254.23	22.111
254.44	23.634
254.66	23.174
254.87	23.003
255.08	32.643
255.29	36.984
255.50	30.220
255.72	31.864
255.93	46.269
256.14	40.851
256.35	29.861
256.57	28.309
256.78	36.795
256.99	34.279
257.20	29.691
257.41	32.762
257.63	24.952
257.84	28.494
258.05	36.227
258.26	24.958
258.47	21.827
258.69	28.849
258.90	20.166
259.11	18.854
259.32	22.222
259.53	15.226
259.75	16.638
259.96	16.268
260.17	8.910
260.38	12.356
260.59	9.982
260.81	7.473
261.02	9.606
261.23	7.816
261.44	10.635
261.65	10.234
261.87	9.577
262.08	10.406
262.29	13.592
262.50	13.820
262.71	11.009
262.92	13.950
263.14	15.043
263.35	15.785
263.56	18.695
263.77	20.402
263.98	22.198
264.20	23.022
264.41	18.944
264.62	16.933
264.83	17.436
265.04	22.824
265.25	21.918
265.47	22.156
265.68	27.261
265.89	15.039
266.10	19.772
266.31	21.399
266.52	19.870
266.74	19.410
266.95	14.457
267.16	19.400
267.37	14.255
267.58	17.485
267.79	20.545
268.01	12.378
268.22	15.280
268.43	15.589
268.64	10.733
268.85	19.023
269.06	13.204
269.27	17.960
269.49	12.173
269.70	15.716
269.91	14.037
270.12	14.733
270.33	15.068
270.54	17.015
270.75	15.285
270.97	17.264
271.18	14.832
271.39	18.688
271.60	17.384
271.81	15.812
272.02	14.575
272.23	13.912
272.45	12.204
272.66	11.607
272.87	14.524
273.08	12.050
273.29	9.468
273.50	9.247
273.71	13.338
273.92	8.690
274.14	13.795
274.35	12.363
274.56	11.694
274.77	12.858
274.98	11.337
275.19	9.802
275.40	16.717
275.61	12.645
275.83	17.521
276.04	12.803
276.25	15.892
276.46	13.588
276.67	20.311
276.88	12.814
277.09	19.702
277.30	17.995
277.51	17.067
277.73	15.794
277.94	15.900
278.15	14.408
278.36	15.017
278.57	15.134
278.78	11.589
278.99	12.148
279.20	12.704
279.41	17.761
279.62	15.378
279.84	15.808
280.05	12.578
280.26	15.385
280.47	15.074
280.68	13.962
280.89	13.946
281.10	13.175
281.31	11.875
281.52	13.503
281.73	11.094
281.94	13.449
282.16	14.908
282.37	15.835
282.58	11.135
282.79	10.970
283.00	15.369
283.21	6.103
283.42	11.518
283.63	11.438
283.84	11.605
284.05	12.782
284.26	9.318
284.47	10.654
284.68	11.378
284.89	10.475
285.11	12.062
285.32	9.987
285.53	11.515
285.74	8.561
285.95	10.627
286.16	10.566
286.37	9.631
286.58	10.146
286.79	9.754
287.00	9.167
287.21	8.595
287.42	8.713
287.63	7.175
287.84	10.345
288.05	8.051
288.26	8.968
288.48	11.055
288.69	9.867
288.90	8.847
289.11	11.310
289.32	9.863
289.53	9.521
289.74	12.439
289.95	10.911
290.16	12.428
290.37	9.045
290.58	9.471
290.79	8.484
291.00	10.581
291.21	11.326
291.42	9.669
291.63	9.526
291.84	10.369
292.05	9.259
292.26	9.156
292.47	8.820
292.68	9.107
292.89	11.529
293.10	14.139
293.31	7.488
293.52	10.147
293.73	11.162
293.94	11.544
294.15	10.428
294.36	11.559
294.57	10.865
294.79	9.838
295.00	10.379
295.21	10.094
295.42	9.513
295.63	13.587
295.84	7.989
296.05	10.048
296.26	8.638
296.47	9.115
296.68	6.386
296.89	9.760
297.10	8.586
297.31	8.824
297.52	7.372
297.73	8.101
297.94	6.097
298.15	6.167
298.36	5.591
298.57	5.972
298.78	7.377
298.99	6.007
299.20	5.861
299.41	7.792
299.62	8.845
299.83	8.716
300.04	6.881
300.25	11.145
300.46	7.132
300.67	9.544
300.88	10.038
301.09	8.988
301.30	10.863
301.50	10.383
301.71	12.647
301.92	12.860
302.13	8.868
302.34	8.167
302.55	10.000
302.76	9.930
302.97	9.173
303.18	11.180
303.39	6.864
303.60	9.689
303.81	11.806
304.02	10.937
304.23	8.372
304.44	10.349
304.65	9.009
304.86	10.704
305.07	7.487
305.28	12.135
305.49	8.620
305.70	10.565
305.91	10.006
306.12	6.818
306.33	8.660
306.54	10.603
306.75	10.762
306.96	11.765
307.17	9.123
307.38	13.249
307.58	10.662
307.79	11.474
308.00	10.019
308.21	10.613
308.42	11.022
308.63	8.525
308.84	10.471
309.05	7.511
309.26	8.249
309.47	11.287
309.68	9.637
309.89	9.189
310.10	5.690
310.31	9.663
310.52	4.497
310.73	8.116
310.94	8.848
311.14	7.409
311.35	6.783
311.56	6.631
311.77	6.927
311.98	7.213
312.19	8.729
312.40	8.544
312.61	9.250
312.82	7.967
313.03	9.244
313.24	11.492
313.45	7.692
313.66	9.938
313.86	9.156
314.07	7.684
314.28	10.337
314.49	11.385
314.70	10.393
314.91	12.535
315.12	9.900
315.33	11.815
315.54	9.228
315.75	10.069
315.96	9.604
316.16	8.295
316.37	9.180
316.58	10.939
316.79	8.603
317.00	10.627
317.21	9.196
317.42	7.330
317.63	9.559
317.84	8.428
318.05	11.740
318.25	12.405
318.46	8.616
318.67	11.642
318.88	9.653
319.09	10.413
319.30	10.692
319.51	9.844
319.72	9.206
319.93	10.787
320.13	11.980
320.34	12.256
320.55	9.350
320.76	11.446
320.97	7.218
321.18	10.776
321.39	8.396
321.60	10.177
321.80	13.540
322.01	13.091
322.22	11.027
322.43	10.298
322.64	10.938
322.85	11.160
323.06	10.018
323.27	11.466
323.47	10.507
323.68	12.861
323.89	9.630
324.10	9.137
324.31	9.292
324.52	9.744
324.73	11.642
324.93	6.889
325.14	8.965
325.35	8.325
325.56	9.073
325.77	9.900
325.98	7.183
326.19	11.015
326.39	6.878
326.60	9.072
326.81	8.198
327.02	7.819
327.23	7.773
327.44	8.818
327.64	8.923
327.85	7.688
328.06	7.918
328.27	10.545
328.48	9.274
328.69	6.786
328.90	8.691
329.10	6.558
329.31	7.407
329.52	8.763
329.73	13.048
329.94	8.820
330.15	8.273
330.35	11.308
330.56	9.450
330.77	10.894
330.98	11.800
331.19	7.524
331.39	10.952
331.60	9.656
331.81	8.034
332.02	9.327
332.23	11.364
332.44	9.086
332.64	9.180
332.85	9.593
333.06	9.197
333.27	7.815
333.48	9.058
333.68	9.719
333.89	8.290
334.10	9.257
334.31	11.358
334.52	8.238
334.72	8.239
334.93	9.944
335.14	7.468
335.35	11.518
335.56	11.009
335.76	9.160
335.97	10.343
336.18	7.661
336.39	9.707
336.60	7.538
336.80	8.143
337.01	7.469
337.22	5.600
337.43	9.392
337.64	9.305
337.84	9.578
338.05	8.077
338.26	8.880
338.47	9.407
338.68	9.000
338.88	7.181
339.09	9.882
339.30	7.381
339.51	8.090
339.71	9.242
339.92	7.535
340.13	9.285
340.34	7.944
340.55	9.834
340.75	10.897
340.96	6.121
341.17	9.172
341.38	6.808
341.58	7.066
341.79	7.755
342.00	7.342
342.21	6.641
342.41	8.186
342.62	8.310
342.83	7.541
343.04	8.719
343.24	7.851
343.45	7.843
343.66	9.288
343.87	7.187
344.07	8.212
344.28	9.215
344.49	10.343
344.70	8.296
344.90	7.807
345.11	8.969
345.32	7.213
345.53	7.183
345.73	5.973
345.94	6.432
346.15	8.244
346.36	6.092
346.56	6.912
346.77	6.229
346.98	6.058
347.19	6.907
347.39	5.667
347.60	7.421
347.81	7.976
348.02	7.872
348.22	6.684
348.43	7.399
348.64	5.463
348.84	6.916
349.05	7.072
349.26	9.725
349.47	6.161
349.67	6.735
349.88	8.145
350.09	6.773
350.30	7.846
350.50	8.365
350.71	8.067
350.92	7.536
351.12	7.886
351.33	7.371
351.54	7.863
351.74	6.172
351.95	5.877
352.16	5.977
352.37	5.880
352.57	8.323
352.78	6.904
352.99	6.192
353.19	6.874
353.40	6.453
353.61	7.883
353.82	7.012
354.02	6.344
354.23	7.587
354.44	9.027
354.64	7.206
354.85	8.060
355.06	5.460
355.26	5.830
355.47	6.053
355.68	8.073
355.88	6.123
356.09	6.248
356.30	6.572
356.51	7.191
356.71	6.449
356.92	5.781
357.13	5.248
357.33	8.208
357.54	6.991
357.75	5.911
357.95	6.829
358.16	6.462
358.37	6.250
358.57	6.078
358.78	7.210
358.99	4.433
359.19	5.861
359.40	8.336
359.61	6.166
359.81	7.547
360.02	7.446
360.23	5.339
360.43	5.729
360.64	5.911
360.85	5.005
361.05	4.770
361.26	4.719
361.47	3.943
361.67	5.247
361.88	4.633
362.09	4.982
362.29	4.673
362.50	4.331
362.70	4.343
362.91	5.704
363.12	4.186
363.32	3.880
363.53	4.724
363.74	4.715
363.94	4.594
364.15	4.582
364.36	5.142
364.56	4.213
364.77	5.838
364.98	6.665
365.18	6.330
365.39	5.694
365.59	5.054
365.80	4.337
366.01	5.665
366.21	4.977
366.42	5.643
366.63	6.299
366.83	4.521
367.04	4.975
367.24	6.289
367.45	6.009
367.66	2.762
367.86	5.958
368.07	6.002
368.28	5.059
368.48	6.039
368.69	3.985
368.89	5.453
369.10	5.210
369.31	7.405
369.51	5.903
369.72	7.956
369.92	6.540
370.13	4.891
370.34	5.813
370.54	3.521
370.75	6.860
370.95	4.907
371.16	5.646
371.37	6.129
371.57	5.132
371.78	5.638
371.98	6.930
372.19	6.574
372.40	4.286
372.60	4.878
372.81	6.051
373.01	4.444
373.22	5.254
373.43	5.796
373.63	4.856
373.84	6.125
374.04	5.605
374.25	5.167
374.46	6.084
374.66	4.672
374.87	6.230
375.07	5.676
375.28	5.574
375.48	5.872
375.69	4.232
375.90	5.845
376.10	4.456
376.31	4.893
376.51	5.298
376.72	4.519
376.92	5.366
377.13	5.156
377.34	4.716
377.54	4.038
377.75	5.550
377.95	5.328
378.16	4.991
378.36	5.320
378.57	3.858
378.77	4.175
378.98	3.998
379.19	5.884
379.39	4.800
379.60	5.486
379.80	4.500
380.01	4.247
380.21	5.118
380.42	5.973
380.62	5.778
380.83	5.717
381.04	4.072
381.24	5.870
381.45	5.178
381.65	4.221
381.86	4.957
382.06	6.114
382.27	5.430
382.47	5.500
382.68	5.139
382.88	5.078
383.09	5.297
383.29	5.082
383.50	4.922
383.71	6.699
383.91	4.235
384.12	5.419
384.32	6.220
384.53	6.349
384.73	4.341
384.94	4.289
385.14	4.952
385.35	4.392
385.55	4.835
385.76	5.670
385.96	4.422
386.17	4.831
386.37	6.189
386.58	4.018
386.78	6.343
386.99	4.499
387.19	5.623
387.40	4.626
387.60	6.619
387.81	5.308
388.01	5.136
388.22	5.579
388.42	5.617
388.63	5.923
388.83	7.038
389.04	5.774
389.24	5.746
389.45	5.889
389.65	5.007
389.86	6.387
390.06	5.311
390.27	5.881
390.47	5.405
390.68	4.613
390.88	7.401
391.09	6.020
391.29	6.731
391.50	5.142
391.70	6.250
391.91	5.190
392.11	6.432
392.32	6.912
392.52	6.649
392.73	6.164
392.93	5.851
393.14	6.323
393.34	6.500
393.55	7.807
393.75	7.753
393.95	6.922
394.16	6.739
394.36	7.981
394.57	7.924
394.77	8.015
394.98	7.102
395.18	7.842
395.39	7.112
395.59	7.972
395.80	8.576
396.00	7.593
396.21	9.648
396.41	6.261
396.61	9.130
396.82	8.812
397.02	10.976
397.23	8.932
397.43	8.761
397.64	7.367
397.84	11.528
398.05	6.504
398.25	10.251
398.45	7.729
398.66	9.905
398.86	9.480
399.07	11.078
399.27	8.321
399.48	12.012
399.68	8.207
399.89	9.316
400.09	9.083
400.29	8.344
400.50	9.486
400.70	11.207
400.91	9.703
401.11	10.231
401.32	10.370
401.52	8.414
401.72	8.850
401.93	12.903
402.13	9.747
402.34	9.316
402.54	10.196
402.75	12.027
402.95	7.906
403.15	11.753
403.36	8.272
403.56	10.693
403.77	9.430
403.97	9.969
404.17	9.927
404.38	11.692
404.58	8.623
404.79	11.798
404.99	10.543
405.19	10.322
405.40	8.333
405.60	10.435
405.81	8.472
406.01	10.881
406.21	10.120
406.42	10.392
406.62	10.576
406.83	11.837
407.03	11.242
407.23	10.585
407.44	9.631
407.64	11.886
407.85	11.224
408.05	10.668
408.25	10.418
408.46	11.912
408.66	10.666
408.87	10.812
409.07	9.590
409.27	10.031
409.48	9.269
409.68	10.925
409.88	9.059
410.09	12.418
410.29	10.157
410.50	11.648
410.70	9.117
410.90	11.146
411.11	9.403
411.31	10.419
411.51	8.839
411.72	10.789
411.92	9.201
412.12	8.936
412.33	8.457
412.53	9.788
412.74	8.418
412.94	10.725
413.14	9.616
413.35	9.229
413.55	10.366
413.75	11.691
413.96	9.288
414.16	10.390
414.36	9.033
414.57	9.573
414.77	8.685
414.97	11.031
415.18	9.495
415.38	9.847
415.58	9.404
415.79	8.828
415.99	8.988
416.19	9.534
416.40	8.631
416.60	9.276
416.80	9.108
417.01	9.535
417.21	7.957
417.41	11.540
417.62	8.726
417.82	10.320
418.02	7.872
418.23	11.268
418.43	9.149
418.63	9.600
418.84	9.761
419.04	9.628
419.24	10.234
419.45	10.696
419.65	9.656
419.85	10.745
420.06	10.267
420.26	10.601
420.46	9.884
420.67	10.792
420.87	9.632
421.07	11.292
421.28	10.695
421.48	11.137
421.68	10.218
421.88	10.709
422.09	10.727
422.29	11.152
422.49	10.048
422.70	10.565
422.90	10.028
423.10	10.732
423.31	10.606
423.51	11.741
423.71	9.859
423.91	11.327
424.12	10.245
424.32	10.800
424.52	9.943
424.73	10.008
424.93	10.255
425.13	10.210
425.33	9.855
425.54	10.678
425.74	10.142
425.94	11.389
426.15	10.576
426.35	10.515
426.55	9.935
426.75	11.418
426.96	10.055
427.16	10.374
427.36	10.689
427.57	11.402
427.77	10.155
427.97	11.248
428.17	10.571
428.38	11.065
428.58	8.416
428.78	10.731
428.98	9.075
429.19	9.963
429.39	7.307
429.59	11.219
429.79	7.329
430.00	9.032
430.20	8.452
430.40	9.650
430.60	8.747
430.81	10.257
431.01	7.931
431.21	9.619
431.41	8.049
431.62	9.632
431.82	8.917
432.02	10.856
432.22	8.930
432.43	8.904
432.63	8.311
432.83	9.573
433.03	7.890
433.24	9.631
433.44	8.989
433.64	10.437
433.84	8.383
434.05	10.483
434.25	9.467
434.45	11.019
434.65	10.270
434.85	11.486
435.06	9.935
435.26	10.971
435.46	9.968
435.66	11.359
435.87	10.329
436.07	10.926
436.27	10.475
436.47	10.018
436.67	8.914
436.88	11.100
437.08	9.636
437.28	10.198
437.48	9.162
437.69	10.993
437.89	10.043
438.09	11.715
438.29	9.141
438.49	10.676
438.70	10.407
438.90	10.033
439.10	9.548
439.30	10.480
439.50	8.670
439.71	10.812
439.91	9.566
440.11	11.605
440.31	10.194
440.51	11.195
440.72	9.932
440.92	10.486
441.12	10.891
441.32	10.927
441.52	11.501
441.72	11.782
441.93	10.842
442.13	11.602
442.33	11.136
442.53	11.981
442.73	10.887
442.94	11.674
443.14	11.451
443.34	12.225
443.54	11.136
443.74	11.821
443.94	10.340
444.15	11.224
444.35	10.715
444.55	11.861
444.75	10.969
444.95	11.478
445.15	10.850
445.36	11.626
445.56	9.904
445.76	11.310
445.96	11.028
446.16	11.095
446.36	10.895
446.57	11.366
446.77	10.349
446.97	11.383
447.17	11.638
447.37	11.564
447.57	11.367
447.77	11.898
447.98	11.373
448.18	12.544
448.38	11.825
448.58	12.258
448.78	12.231
448.98	12.682
449.18	11.715
449.39	12.275
449.59	11.934
449.79	12.138
449.99	11.453
450.19	11.872
450.39	12.184
450.59	12.267
450.79	11.160
451.00	12.018
451.20	12.250
451.40	12.172
451.60	11.425
451.80	11.936
452.00	10.666
452.20	11.316
452.40	11.098
452.61	12.026
452.81	11.036
453.01	11.934
453.21	10.555
453.41	11.936
453.61	10.908
453.81	12.578
454.01	11.199
454.21	11.697
454.42	12.283
454.62	11.823
454.82	11.500
455.02	11.636
455.22	10.485
455.42	11.615
455.62	10.311
455.82	11.666
456.02	10.742
456.23	12.399
456.43	10.839
456.63	12.021
456.83	9.492
457.03	11.211
457.23	10.881
457.43	11.756
457.63	11.160
457.83	11.187
458.03	10.475
458.23	11.316
458.43	10.079
458.64	11.670
458.84	10.476
459.04	11.424
459.24	10.757
459.44	11.230
459.64	11.456
459.84	11.753
460.04	11.302
460.24	11.871
460.44	11.268
460.64	12.084
460.84	11.818
461.04	11.884
461.24	11.936
461.45	12.397
461.65	12.535
461.85	12.798
462.05	12.488
462.25	12.827
462.45	13.057
462.65	12.686
462.85	11.450
463.05	12.831
463.25	11.029
463.45	12.277
463.65	11.329
463.85	11.975
464.05	11.801
464.25	11.645
464.45	12.282
464.65	11.726
464.85	10.501
465.05	11.299
465.26	12.173
465.46	11.999
465.66	11.855
465.86	12.316
466.06	11.254
466.26	11.587
466.46	10.849
466.66	11.803
466.86	11.512
467.06	12.300
467.26	12.077
467.46	12.453
467.66	11.804
467.86	11.954
468.06	12.150
468.26	11.984
468.46	12.000
468.66	12.206
468.86	10.849
469.06	12.886
469.26	10.427
469.46	12.520
469.66	12.045
469.86	12.433
470.06	11.394
470.26	13.152
470.46	11.664
470.66	12.953
470.86	11.839
471.06	12.534
471.26	10.138
471.46	11.909
471.66	12.607
471.86	12.388
472.06	12.340
472.26	13.416
472.46	11.826
472.66	13.314
472.86	12.208
473.06	12.464
473.26	12.234
473.46	11.992
473.66	12.023
473.86	12.625
474.06	11.865
474.26	13.157
474.46	12.012
474.66	13.508
474.86	12.374
475.06	13.213
475.26	11.254
475.46	13.359
475.66	11.691
475.86	12.246
476.06	12.327
476.26	13.172
476.46	12.208
476.66	13.575
476.86	12.255
477.06	13.102
477.26	12.817
477.46	13.530
477.65	13.237
477.85	13.818
478.05	11.425
478.25	13.112
478.45	13.130
478.65	14.182
478.85	12.596
479.05	13.346
479.25	13.034
479.45	14.344
479.65	12.882
479.85	13.275
480.05	12.945
480.25	14.265
480.45	13.373
480.65	13.948
480.85	12.876
481.05	13.460
481.25	13.379
481.44	13.214
481.64	13.261
481.84	14.126
482.04	12.879
482.24	13.197
482.44	12.747
482.64	12.819
482.84	13.062
483.04	12.807
483.24	12.409
483.44	12.570
483.64	12.203
483.84	12.131
484.04	12.283
484.23	12.651
484.43	13.238
484.63	14.179
484.83	14.364
485.03	15.240
485.23	15.174
485.43	15.538
485.63	15.240
485.83	14.803
486.03	14.160
486.23	15.091
486.42	14.492
486.62	14.732
486.82	13.903
487.02	14.115
487.22	13.395
487.42	13.498
487.62	13.147
487.82	13.013
488.02	12.864
488.22	13.081
488.41	13.129
488.61	13.631
488.81	13.212
489.01	13.860
489.21	13.925
489.41	14.046
489.61	14.342
489.81	14.367
490.01	14.303
490.20	14.737
490.40	13.896
490.60	14.118
490.80	13.578
491.00	13.752
491.20	13.544
491.40	13.174
491.60	13.133
491.79	13.003
491.99	13.225
492.19	12.810
492.39	12.793
492.59	13.414
492.79	13.423
492.99	14.005
493.19	13.790
493.38	14.342
493.58	14.045
493.78	14.517
493.98	14.637
494.18	14.715
494.38	14.964
494.58	14.730
494.77	14.722
494.97	15.114
495.17	14.133
495.37	14.144
495.57	14.151
495.77	14.460
495.96	14.425
496.16	14.624
496.36	14.370
496.56	14.452
496.76	13.601
496.96	14.194
497.15	13.716
497.35	14.732
497.55	14.030
497.75	14.964
497.95	13.998
498.15	15.016
498.34	14.481
498.54	14.275
498.74	15.000
498.94	14.762
499.14	14.410
499.34	15.132
499.53	14.942
499.73	15.231
499.93	14.655
500.13	14.637
500.33	14.719
500.52	14.960
500.72	14.786
500.92	14.486
501.12	14.832
501.32	15.008
501.52	15.338
501.71	14.975
501.91	15.180
502.11	15.515
502.31	14.571
502.51	15.554
502.70	14.738
502.90	14.579
503.10	14.662
503.30	15.258
503.50	14.857
503.69	15.169
503.89	15.528
504.09	15.469
504.29	15.662
504.48	15.648
504.68	15.641
504.88	15.393
505.08	15.201
505.28	16.244
505.47	15.500
505.67	15.934
505.87	15.065
506.07	15.993
506.27	15.938
506.46	15.785
506.66	16.028
506.86	16.819
507.06	16.614
507.25	16.024
507.45	16.452
507.65	16.908
507.85	15.601
508.04	17.001
508.24	16.825
508.44	17.085
508.64	16.143
508.83	17.018
509.03	16.264
509.23	16.253
509.43	16.710
509.63	16.321
509.82	16.265
510.02	17.127
510.22	16.882
510.42	17.143
510.61	17.966
510.81	16.510
511.01	16.746
511.21	17.669
511.40	17.253
511.60	17.421
511.80	17.320
511.99	17.999
512.19	17.485
512.39	17.728
512.59	17.162
512.78	17.690
512.98	17.815
513.18	17.877
513.38	17.944
513.57	18.173
513.77	18.177
513.97	18.002
514.17	18.829
514.36	18.097
514.56	17.861
514.76	19.006
514.95	18.794
515.15	18.604
515.35	19.488
515.55	18.887
515.74	18.971
515.94	19.145
516.14	18.306
516.33	18.736
516.53	18.337
516.73	19.062
516.93	17.922
517.12	19.012
517.32	18.495
517.52	18.426
517.71	18.345
517.91	18.355
518.11	18.196
518.30	18.721
518.50	17.995
518.70	18.735
518.90	17.959
519.09	18.731
519.29	18.732
519.49	19.195
519.68	19.135
519.88	19.320
520.08	19.044
520.27	19.469
520.47	19.390
520.67	19.780
520.86	19.896
521.06	20.326
521.26	19.666
521.45	19.932
521.65	20.309
521.85	19.304
522.04	20.040
522.24	19.891
522.44	19.620
522.63	19.963
522.83	19.995
523.03	20.322
523.22	20.110
523.42	19.674
523.62	20.442
523.81	19.833
524.01	20.287
524.21	20.828
524.40	20.259
524.60	19.523
524.80	19.975
524.99	19.998
525.19	19.537
525.39	19.141
525.58	20.232
525.78	19.224
525.98	19.431
526.17	19.951
526.37	19.744
526.57	19.777
526.76	19.818
526.96	20.255
527.15	19.339
527.35	19.745
527.55	19.464
527.74	20.070
527.94	19.416
528.14	19.541
528.33	18.434
528.53	18.714
528.72	18.804
528.92	19.592
529.12	19.569
529.31	19.831
529.51	19.791
529.71	20.804
529.90	20.517
530.10	20.704
530.29	21.003
530.49	21.906
530.69	21.750
530.88	21.865
531.08	21.441
531.28	21.531
531.47	21.316
531.67	21.471
531.86	21.095
532.06	21.100
532.26	20.479
532.45	21.223
532.65	20.540
532.84	20.307
533.04	20.083
533.24	20.270
533.43	19.410
533.63	20.253
533.82	20.444
534.02	20.677
534.22	20.676
534.41	21.041
534.61	21.156
534.80	21.169
535.00	21.527
535.19	22.255
535.39	22.820
535.59	22.307
535.78	21.516
535.98	22.002
536.17	21.379
536.37	21.685
536.57	21.491
536.76	21.343
536.96	21.503
537.15	21.694
537.35	21.773
537.54	21.792
537.74	21.696
537.93	22.092
538.13	21.727
538.33	22.264
538.52	22.227
538.72	23.038
538.91	23.438
539.11	22.855
539.30	22.917
539.50	23.196
539.70	22.635
539.89	22.827
540.09	22.365
540.28	22.491
540.48	21.778
540.67	22.095
540.87	21.926
541.06	20.828
541.26	21.037
541.45	21.354
541.65	21.781
541.85	21.949
542.04	21.648
542.24	22.408
542.43	21.969
542.63	22.562
542.82	22.529
543.02	23.194
543.21	23.147
543.41	23.806
543.60	23.862
543.80	23.881
543.99	23.687
544.19	23.900
544.38	23.040
544.58	23.478
544.77	23.301
544.97	24.130
545.16	23.516
545.36	23.718
545.56	23.319
545.75	23.914
545.95	24.311
546.14	23.908
546.34	23.950
546.53	23.841
546.73	23.219
546.92	23.671
547.12	24.127
547.31	24.123
547.51	23.903
547.70	24.170
547.90	24.652
548.09	24.945
548.29	24.481
548.48	25.277
548.68	25.219
548.87	25.099
549.07	25.911
549.26	25.488
549.46	25.071
549.65	25.579
549.84	26.186
550.04	25.597
550.23	26.137
550.43	26.045
550.62	26.211
550.82	25.725
551.01	25.543
551.21	26.452
551.40	26.484
551.60	24.518
551.79	25.527
551.99	26.484
552.18	25.356
552.38	27.234
552.57	26.130
552.77	26.735
552.96	26.142
553.16	26.756
553.35	26.997
553.54	26.546
553.74	25.426
553.93	27.185
554.13	27.052
554.32	26.950
554.52	27.489
554.71	27.236
554.91	27.069
555.10	27.643
555.29	27.046
555.49	27.606
555.68	28.056
555.88	28.212
556.07	27.853
556.27	28.123
556.46	27.600
556.66	28.004
556.85	28.708
557.04	28.608
557.24	28.866
557.43	28.068
557.63	28.343
557.82	28.199
558.02	28.120
558.21	28.719
558.40	28.915
558.60	29.961
558.79	28.504
558.99	29.245
559.18	29.712
559.38	28.960
559.57	29.899
559.76	30.102
559.96	30.084
560.15	29.756
560.35	29.534
560.54	29.365
560.73	28.443
560.93	29.747
561.12	29.046
561.32	30.209
561.51	30.364
561.70	30.504
561.90	30.172
562.09	30.227
562.29	29.866
562.48	31.336
562.67	29.942
562.87	31.721
563.06	32.177
563.26	31.416
563.45	30.109
563.64	30.780
563.84	30.502
564.03	31.832
564.23	30.710
564.42	32.829
564.61	31.036
564.81	32.363
565.00	31.652
565.20	31.483
565.39	31.407
565.58	31.379
565.78	31.811
565.97	31.618
566.16	30.866
566.36	31.484
566.55	30.878
566.74	31.610
566.94	31.240
567.13	32.367
567.33	31.961
567.52	32.537
567.71	32.444
567.91	32.875
568.10	32.125
568.29	32.504
568.49	32.487
568.68	32.627
568.87	32.549
569.07	33.159
569.26	32.626
569.45	33.139
569.65	31.719
569.84	33.374
570.04	32.105
570.23	32.879
570.42	31.615
570.62	33.199
570.81	31.520
571.00	33.497
571.20	32.330
571.39	32.652
571.58	32.575
571.78	31.726
571.97	32.393
572.16	32.200
572.36	32.397
572.55	33.665
572.74	32.154
572.94	32.155
573.13	32.236
573.32	33.391
573.51	33.016
573.71	32.993
573.90	33.609
574.09	32.707
574.29	33.233
574.48	33.235
574.67	33.881
574.87	32.821
575.06	33.108
575.25	33.636
575.45	32.481
575.64	33.243
575.83	33.090
576.03	34.293
576.22	33.452
576.41	33.274
576.60	32.819
576.80	32.911
576.99	33.444
577.18	34.129
577.38	33.294
577.57	33.325
577.76	34.944
577.95	33.877
578.15	33.468
578.34	33.656
578.53	32.669
578.73	33.192
578.92	32.739
579.11	33.875
579.30	34.705
579.50	33.906
579.69	34.874
579.88	33.765
580.08	35.640
580.27	34.021
580.46	33.481
580.65	34.989
580.85	34.411
581.04	35.308
581.23	34.655
581.42	34.344
581.62	33.490
581.81	33.692
582.00	35.671
582.19	32.921
582.39	33.960
582.58	34.838
582.77	31.945
582.96	34.563
583.16	33.391
583.35	34.890
583.54	34.407
583.73	35.244
583.93	33.884
584.12	34.071
584.31	34.400
584.50	32.536
584.70	33.755
584.89	33.638
585.08	33.344
585.27	34.870
585.47	32.033
585.66	34.286
585.85	33.893
586.04	34.262
586.24	34.360
586.43	33.150
586.62	33.268
586.81	34.647
587.00	32.070
587.20	33.645
587.39	34.190
587.58	34.498
587.77	32.877
587.97	32.470
588.16	33.431
588.35	33.196
588.54	33.360
588.73	33.071
588.93	32.622
589.12	33.167
589.31	32.935
589.50	32.675
589.69	34.476
589.89	33.267
590.08	32.632
590.27	33.606
590.46	32.668
590.65	32.783
590.85	33.288
591.04	33.254
591.23	33.450
591.42	32.704
591.61	31.618
591.81	33.194
592.00	33.494
592.19	33.344
592.38	32.473
592.57	34.004
592.77	33.762
592.96	34.781
593.15	35.027
593.34	33.842
593.53	34.031
593.72	32.203
593.92	32.362
594.11	32.808
594.30	33.227
594.49	33.208
594.68	33.265
594.87	32.530
595.07	33.012
595.26	33.910
595.45	34.041
595.64	33.734
595.83	33.116
596.02	33.515
596.22	34.143
596.41	33.811
596.60	32.626
596.79	32.936
596.98	33.129
597.17	32.163
597.37	33.274
597.56	34.207
597.75	33.098
597.94	32.980
598.13	32.666
598.32	33.594
598.51	33.937
598.71	35.157
598.90	34.055
599.09	35.144
599.28	34.149
599.47	34.542
599.66	33.018
599.85	34.016
600.05	34.957
600.24	34.978
600.43	35.364
600.62	35.708
600.81	35.839
601.00	35.492
601.19	33.811
601.38	35.844
601.58	35.213
601.77	35.414
601.96	33.851
602.15	35.175
602.34	33.821
602.53	35.609
602.72	35.342
602.91	34.536
603.10	34.767
603.30	35.191
603.49	35.369
603.68	35.608
603.87	34.674
604.06	34.382
604.25	33.802
604.44	33.007
604.63	34.429
604.82	34.736
605.01	33.709
605.21	33.592
605.40	34.707
605.59	34.711
605.78	33.707
605.97	34.922
606.16	34.806
606.35	36.366
606.54	36.254
606.73	36.447
606.92	36.132
607.11	36.595
607.30	35.100
607.50	35.779
607.69	35.117
607.88	34.603
608.07	33.881
608.26	35.776
608.45	36.013
608.64	34.708
608.83	33.866
609.02	34.569
609.21	34.026
609.40	34.968
609.59	33.970
609.78	33.872
609.97	33.970
610.16	33.101
610.35	34.054
610.55	34.393
610.74	34.705
610.93	34.442
611.12	35.678
611.31	34.769
611.50	34.836
611.69	35.332
611.88	35.039
612.07	35.445
612.26	34.653
612.45	33.834
612.64	34.372
612.83	33.872
613.02	34.016
613.21	33.454
613.40	33.456
613.59	33.832
613.78	34.064
613.97	33.692
614.16	33.260
614.35	34.770
614.54	33.426
614.73	33.682
614.92	33.774
615.11	34.566
615.30	33.486
615.49	35.117
615.68	34.726
615.87	33.691
616.07	31.848
616.26	33.096
616.45	35.187
616.64	35.131
616.83	34.062
617.02	33.258
617.21	32.050
617.40	34.044
617.59	32.505
617.78	32.858
617.97	33.942
618.16	33.286
618.35	33.217
618.54	33.907
618.73	33.707
618.92	33.627
619.11	32.748
619.30	31.374
619.49	32.364
619.68	34.214
619.86	31.507
620.05	32.831
620.24	32.050
620.43	31.791
620.62	33.534
620.81	32.096
621.00	32.012
621.19	34.200
621.38	33.650
621.57	33.333
621.76	32.653
621.95	31.523
622.14	32.383
622.33	33.244
622.52	31.358
622.71	34.042
622.90	31.898
623.09	32.322
623.28	32.324
623.47	31.399
623.66	32.914
623.85	32.213
624.04	30.899
624.23	32.097
624.42	32.765
624.61	32.846
624.80	30.892
624.99	32.112
625.18	30.768
625.36	32.533
625.55	32.241
625.74	30.316
625.93	31.377
626.12	30.317
626.31	30.514
626.50	32.983
626.69	30.289
626.88	32.547
627.07	31.914
627.26	31.326
627.45	31.140
627.64	30.703
627.83	31.502
628.02	31.198
628.20	30.883
628.39	31.424
628.58	29.933
628.77	32.756
628.96	32.073
629.15	31.027
629.34	31.181
629.53	31.842
629.72	31.597
629.91	31.693
630.10	30.619
630.29	30.907
630.47	31.198
630.66	30.971
630.85	30.645
631.04	31.863
631.23	32.255
631.42	32.292
631.61	30.485
631.80	31.785
631.99	31.327
632.18	30.031
632.36	30.769
632.55	31.530
632.74	30.827
632.93	31.662
633.12	30.806
633.31	31.393
633.50	29.965
633.69	30.311
633.88	30.364
634.06	31.660
634.25	30.246
634.44	30.883
634.63	30.481
634.82	30.332
635.01	30.027
635.20	29.619
635.39	31.096
635.57	31.796
635.76	30.968
635.95	29.535
636.14	30.318
636.33	30.697
636.52	30.668
636.71	31.443
636.89	30.840
637.08	30.319
637.27	31.366
637.46	31.832
637.65	30.981
637.84	30.634
638.03	31.299
638.21	31.909
638.40	31.269
638.59	30.660
638.78	30.101
638.97	30.411
639.16	31.321
639.34	30.987
639.53	29.174
639.72	31.269
639.91	31.213
640.10	29.060
640.29	30.499
640.47	31.633
640.66	31.108
640.85	32.063
641.04	30.079
641.23	29.740
641.42	30.095
641.60	31.482
641.79	30.168
641.98	31.245
642.17	30.349
642.36	31.489
642.54	29.615
642.73	31.515
642.92	31.380
643.11	31.535
643.30	29.661
643.49	32.164
643.67	31.672
643.86	31.977
644.05	28.821
644.24	31.975
644.43	31.190
644.61	30.463
644.80	30.747
644.99	29.662
645.18	30.973
645.37	31.550
645.55	31.080
645.74	30.675
645.93	31.185
646.12	30.485
646.31	31.525
646.49	29.619
646.68	29.841
646.87	31.176
647.06	31.913
647.24	29.814
647.43	28.571
647.62	32.513
647.81	29.912
648.00	30.656
648.18	28.304
648.37	30.903
648.56	30.191
648.75	29.752
648.93	30.499
649.12	30.857
649.31	28.819
649.50	31.494
649.68	29.171
649.87	31.427
650.06	29.048
650.25	32.174
650.43	29.788
650.62	29.810
650.81	28.353
651.00	31.352
651.18	29.468
651.37	30.103
651.56	30.626
651.75	31.342
651.93	27.711
652.12	31.424
652.31	27.924
652.50	30.611
652.68	30.972
652.87	30.209
653.06	30.569
653.25	30.717
653.43	28.970
653.62	31.403
653.81	28.575
654.00	31.737
654.18	27.501
654.37	31.167
654.56	27.413
654.74	30.284
654.93	29.023
655.12	29.811
655.31	28.774
655.49	30.354
655.68	28.995
655.87	27.677
656.05	25.126
656.24	28.580
656.43	25.575
656.62	29.393
656.80	26.836
656.99	27.204
657.18	25.193
657.36	28.609
657.55	25.943
657.74	27.242
657.93	25.259
658.11	27.265
658.30	27.632
658.49	26.640
658.67	26.151
658.86	26.803
659.05	25.388
659.23	25.758
659.42	24.042
659.61	24.610
659.79	25.086
659.98	24.752
660.17	24.099
660.35	24.428
660.54	24.752
660.73	27.785
660.91	24.113
661.10	25.308
661.29	23.388
661.47	24.188
661.66	24.172
661.85	25.031
662.03	22.852
662.22	21.872
662.41	20.196
662.59	24.354
662.78	20.545
662.97	21.918
663.15	19.708
663.34	20.827
663.53	17.879
663.71	21.535
663.90	19.552
664.09	20.631
664.27	21.697
664.46	21.570
664.65	18.274
664.83	21.594
665.02	17.840
665.21	20.323
665.39	19.475
665.58	19.741
665.77	16.699
665.95	20.229
666.14	16.550
666.32	19.225
666.51	17.038
666.70	16.538
666.88	17.781
667.07	16.441
667.26	16.162
667.44	18.353
667.63	19.921
667.81	17.919
668.00	16.116
668.19	20.164
668.37	16.862
668.56	19.166
668.75	15.336
668.93	19.906
669.12	13.208
669.30	18.611
669.49	15.768
669.68	16.951
669.86	16.615
670.05	17.041
670.23	14.795
670.42	18.386
670.61	16.965
670.79	17.389
670.98	16.804
671.16	19.658
671.35	15.370
671.54	19.138
671.72	15.511
671.91	16.661
672.09	16.380
672.28	19.652
672.46	19.616
672.65	18.351
672.84	18.440
673.02	19.811
673.21	15.631
673.39	16.822
673.58	18.114
673.77	17.963
673.95	16.407
674.14	20.478
674.32	16.672
674.51	20.271
674.69	14.296
674.88	18.448
675.07	16.221
675.25	22.637
675.44	17.670
675.62	17.534
675.81	18.166
675.99	24.761
676.18	19.717
676.36	18.592
676.55	18.988
676.74	20.871
676.92	20.749
677.11	18.040
677.29	15.279
677.48	20.431
677.66	20.386
677.85	17.275
678.03	19.412
678.22	22.603
678.40	19.152
678.59	18.286
678.78	17.134
678.96	17.938
679.15	18.462
679.33	20.548
679.52	20.951
679.70	21.908
679.89	18.204
680.07	21.979
680.26	17.498
680.44	21.390
680.63	19.682
680.81	21.028
681.00	18.710
681.18	21.454
681.37	19.393
681.55	23.071
681.74	20.738
681.92	21.957
682.11	21.181
682.29	20.420
682.48	22.279
682.66	22.785
682.85	23.221
683.03	23.575
683.22	23.631
683.40	25.126
683.59	22.064
683.77	24.147
683.96	21.419
684.14	26.472
684.33	23.077
684.51	27.834
684.70	26.470
684.88	28.779
685.07	23.765
685.25	29.395
685.44	24.930
685.62	25.268
685.81	24.691
685.99	27.415
686.18	27.119
686.36	30.036
686.55	24.180
686.73	30.518
686.92	28.329
687.10	27.976
687.29	29.723
687.47	29.707
687.65	30.032
687.84	29.503
688.02	30.374
688.21	33.262
688.39	29.927
688.58	34.019
688.76	33.508
688.95	32.949
689.13	32.343
689.32	36.827
689.50	32.009
689.68	37.070
689.87	34.179
690.05	36.389
690.24	34.145
690.42	39.743
690.61	36.111
690.79	38.658
690.98	40.132
691.16	40.125
691.34	35.672
691.53	41.536
691.71	38.965
691.90	40.514
692.08	37.592
692.27	41.912
692.45	41.935
692.63	42.520
692.82	40.363
693.00	45.654
693.19	41.089
693.37	42.251
693.56	43.002
693.74	45.286
693.92	43.292
694.11	46.902
694.29	46.713
694.48	47.597
694.66	45.084
694.84	47.245
695.03	44.416
695.21	46.792
695.40	49.915
695.58	50.541
695.76	48.696
695.95	50.809
696.13	48.195
696.32	49.551
696.50	52.963
696.68	50.185
696.87	51.548
697.05	52.946
697.24	51.346
697.42	54.545
697.60	51.623
697.79	51.637
697.97	51.095
698.16	52.639
698.34	50.700
698.52	51.888
698.71	49.658
698.89	51.040
699.07	51.253
699.26	50.772
699.44	50.516
699.63	49.385
699.81	52.947
699.99	53.412
700.18	52.314
700.36	53.134
700.54	52.514
700.73	51.465
700.91	52.683
701.09	55.478
701.28	51.362
701.46	55.526
701.64	56.394
701.83	57.193
702.01	52.557
702.20	57.109
702.38	55.010
702.56	57.172
702.75	59.288
702.93	58.839
703.11	57.819
703.30	59.196
703.48	60.418
703.66	63.507
703.85	59.492
704.03	62.483
704.21	60.540
704.40	64.944
704.58	60.254
704.76	63.516
704.95	62.615
705.13	60.745
705.31	60.376
705.50	62.323
705.68	63.353
705.86	62.481
706.04	58.448
706.23	66.212
706.41	66.211
706.59	63.645
706.78	59.724
706.96	62.525
707.14	63.762
707.33	62.929
707.51	64.901
707.69	65.521
707.88	66.350
708.06	61.703
708.24	65.455
708.42	65.146
708.61	62.601
708.79	66.449
708.97	68.887
709.16	67.571
709.34	68.006
709.52	66.603
709.71	64.247
709.89	66.412
710.07	64.137
710.25	66.574
710.44	65.308
710.62	64.247
710.80	66.385
710.98	63.411
711.17	62.982
711.35	62.726
711.53	62.579
711.72	63.882
711.90	65.324
712.08	63.202
712.26	63.084
712.45	64.898
712.63	64.833
712.81	64.452
712.99	66.396
713.18	65.959
713.36	66.097
713.54	63.624
713.72	64.832
713.91	64.312
714.09	66.026
714.27	64.390
714.45	62.625
714.64	64.403
714.82	66.075
715.00	64.138
715.18	67.133
715.37	66.956
715.55	65.350
715.73	66.790
715.91	66.279
716.10	62.100
716.28	62.285
716.46	67.944
716.64	67.190
716.83	63.421
717.01	64.535
717.19	66.441
717.37	66.165
717.55	63.669
717.74	63.561
717.92	64.265
718.10	63.436
718.28	62.998
718.47	70.047
718.65	66.599
718.83	64.147
719.01	67.851
719.19	67.444
719.38	65.158
719.56	65.957
719.74	69.113
719.92	63.769
720.10	64.470
720.29	68.464
720.47	65.821
720.65	68.100
720.83	72.236
721.01	63.106
721.20	72.403
721.38	65.131
721.56	68.866
721.74	69.060
721.92	71.312
722.11	70.599
722.29	69.331
722.47	70.801
722.65	71.020
722.83	67.554
723.01	70.366
723.20	73.890
723.38	68.062
723.56	65.096
723.74	74.231
723.92	72.663
724.10	70.409
724.29	65.783
724.47	80.081
724.65	70.522
724.83	67.298
725.01	68.738
725.19	70.495
725.38	65.498
725.56	70.872
725.74	70.974
725.92	68.696
726.10	69.987
726.28	67.591
726.46	69.428
726.65	67.333
726.83	75.398
727.01	69.743
727.19	70.596
727.37	70.051
727.55	71.356
727.73	67.509
727.92	68.171
728.10	71.559
728.28	65.082
728.46	72.297
728.64	67.855
728.82	69.553
729.00	68.648
729.19	69.123
729.37	70.872
729.55	69.498
729.73	68.455
729.91	71.834
730.09	74.463
730.27	68.692
730.45	68.100
730.63	72.868
730.82	67.054
731.00	72.611
731.18	70.473
731.36	75.176
731.54	69.570
731.72	71.379
731.90	68.475
732.08	72.632
732.26	68.301
732.45	71.779
732.63	68.225
732.81	70.390
732.99	72.733
733.17	70.144
733.35	73.399
733.53	72.892
733.71	67.979
733.89	70.458
734.07	71.667
734.25	72.768
734.44	72.197
734.62	69.283
734.80	74.852
734.98	74.131
735.16	71.470
735.34	74.459
735.52	76.285
735.70	73.279
735.88	74.543
736.06	75.758
736.24	76.700
736.42	77.095
736.60	75.957
736.78	79.044
736.97	74.364
737.15	76.458
737.33	82.810
737.51	81.143
737.69	80.696
737.87	77.953
738.05	79.682
738.23	80.113
738.41	80.086
738.59	75.952
738.77	76.662
738.95	77.298
739.13	78.134
739.31	74.560
739.49	76.506
739.67	80.544
739.85	73.653
740.03	76.608
740.21	76.062
740.39	80.507
740.57	76.109
740.75	74.754
740.93	76.806
741.11	81.362
741.30	77.563
741.48	76.390
741.66	78.445
741.84	79.969
742.02	76.757
742.20	81.184
742.38	77.854
742.56	81.784
742.74	80.280
742.92	76.719
743.10	73.858
743.28	81.024
743.46	85.029
743.64	79.935
743.82	78.540
744.00	80.337
744.18	80.343
744.36	85.752
744.54	84.392
744.72	81.223
744.90	84.809
745.08	82.560
745.26	81.772
745.44	71.490
745.62	82.348
745.80	83.127
745.98	83.748
746.16	86.276
746.34	84.182
746.52	86.219
746.70	80.107
746.87	83.031
747.05	85.965
747.23	82.996
747.41	84.358
747.59	83.046
747.77	86.098
747.95	80.568
748.13	82.149
748.31	90.779
748.49	83.871
748.67	87.931
748.85	82.295
749.03	84.050
749.21	85.059
749.39	82.527
749.57	74.954
749.75	80.952
749.93	78.947
750.11	82.704
750.29	83.014
750.47	79.242
750.65	80.018
750.83	84.559
751.01	77.273
751.18	78.091
751.36	86.223
751.54	85.312
751.72	87.396
751.90	78.223
752.08	86.744
752.26	79.772
752.44	85.370
752.62	79.930
752.80	79.715
752.98	82.140
753.16	83.438
753.34	81.818
753.52	85.574
753.69	79.861
753.87	86.075
754.05	80.101
754.23	87.017
754.41	83.919
754.59	73.074
754.77	84.756
754.95	83.930
755.13	87.270
755.31	82.898
755.49	83.911
755.66	77.984
755.84	81.679
756.02	81.877
756.20	78.934
756.38	86.479
756.56	81.045
756.74	90.154
756.92	80.841
757.10	86.762
757.28	82.316
757.45	87.306
757.63	85.398
757.81	83.046
757.99	88.747
758.17	84.651
758.35	84.008
758.53	90.209
758.71	87.546
758.88	77.875
759.06	77.708
759.24	65.702
759.42	76.017
759.60	77.528
759.78	77.461
759.96	68.285
760.13	69.841
760.31	69.272
760.49	65.128
760.67	57.214
760.85	67.712
761.03	64.488
761.21	64.413
761.38	57.083
761.56	62.989
761.74	59.138
761.92	57.886
762.10	61.005
762.28	67.182
762.46	61.415
762.63	63.644
762.81	60.914
762.99	61.214
763.17	61.406
763.35	61.758
763.53	60.027
763.70	61.876
763.88	62.052
764.06	61.724
764.24	60.432
764.42	60.689
764.60	62.664
764.77	66.535
764.95	60.772
765.13	63.837
765.31	65.584
765.49	65.661
765.66	62.019
765.84	66.806
766.02	65.887
766.20	70.401
766.38	71.554
766.56	68.043
766.73	71.132
766.91	73.200
767.09	75.144
767.27	74.528
767.45	75.663
767.62	73.962
767.80	78.269
767.98	80.490
768.16	77.512
768.33	77.808
768.51	78.627
768.69	81.644
768.87	78.489
769.05	79.497
769.22	83.749
769.40	85.700
769.58	77.603
769.76	83.968
769.94	83.107
770.11	85.853
770.29	82.956
770.47	82.531
770.65	91.234
770.82	85.099
771.00	80.952
771.18	80.507
771.36	86.059
771.53	86.207
771.71	85.369
771.89	92.796
772.07	75.000
772.25	87.588
772.42	82.901
772.60	87.427
772.78	86.486
772.96	93.237
773.13	89.942
773.31	85.562
773.49	94.016
773.67	96.854
773.84	84.597
774.02	91.321
774.20	82.109
774.37	86.997
774.55	88.706
774.73	93.481
774.91	80.807
775.08	87.263
775.26	90.027
775.44	88.568
775.62	85.209
775.79	88.391
775.97	92.568
776.15	88.329
776.32	88.725
776.50	94.595
776.68	99.258
776.86	86.250
777.03	88.322
777.21	90.495
777.39	86.988
777.56	89.751
777.74	89.186
777.92	93.810
778.10	86.686
778.27	90.823
778.45	91.363
778.63	92.500
778.80	91.794
778.98	89.781
779.16	94.883
779.34	93.566
779.51	87.415
779.69	93.427
779.87	88.243
780.04	86.921
780.22	87.874
780.40	96.238
780.57	85.935
780.75	88.692
780.93	93.607
781.10	90.211
781.28	91.940
781.46	83.447
781.63	94.860
781.81	97.384
781.99	94.760
782.16	79.240
782.34	84.992
782.52	87.869
782.69	89.679
782.87	93.871
783.05	81.000
783.22	87.460
783.40	93.189
783.58	92.676
783.75	90.765
783.93	109.287
784.11	83.415
784.28	92.453
784.46	79.186
784.64	96.850
784.81	84.615
784.99	98.262
785.17	94.426
785.34	94.408
785.52	89.919
785.69	91.602
785.87	81.282
786.05	104.103
786.22	83.937
786.40	89.145
786.58	90.924
786.75	90.735
786.93	77.690
787.11	84.751
787.28	90.735
787.46	91.857
787.63	88.889
787.81	92.694
787.99	90.391
788.16	77.400
788.34	78.179
788.51	86.451
788.69	85.988
788.87	86.701
789.04	81.653
789.22	82.754
789.39	87.106
789.57	74.609
789.75	80.683
789.92	86.468
790.10	71.883
790.27	91.631
790.45	84.353
790.63	83.752
790.80	75.037
790.98	86.232
791.15	86.145
791.33	84.848
791.51	74.963
791.68	87.322
791.86	89.073
792.03	91.833
792.21	80.532
792.39	83.754
792.56	81.429
792.74	82.143
792.91	87.344
793.09	88.245
793.26	86.092
793.44	88.679
793.62	79.048
793.79	89.853
793.97	86.743
794.14	87.241
794.32	83.333
794.49	100.738
794.67	90.108
794.84	84.359
795.02	86.031
795.20	94.485
795.37	80.235
795.55	87.270
795.72	86.572
795.90	88.610
796.07	89.483
796.25	89.632
796.42	81.913
796.60	85.544
796.77	82.753
796.95	86.124
797.13	77.346
797.30	85.691
797.48	75.964
797.65	81.013
797.83	78.932
798.00	87.540
798.18	73.053
798.35	77.507
798.53	83.667
798.70	78.626
798.88	82.274
799.05	77.414
799.23	77.640
799.40	79.618
799.58	83.505
799.75	93.627
799.93	81.443
800.10	93.702
800.28	95.736
800.45	94.794
800.63	79.317
800.80	95.543
800.98	81.970
801.15	87.965
801.33	90.123
801.50	78.584
801.68	93.256
801.85	80.446
802.03	81.040
802.20	85.581
802.38	79.505
802.55	87.115
802.73	82.609
802.90	94.249
803.08	77.758
803.25	93.846
803.43	72.222
803.60	94.606
803.78	85.122
803.95	96.951
804.13	88.062
804.30	82.908
804.48	79.249
804.65	84.646
804.83	76.054
805.00	76.724
805.17	79.223
805.35	87.879
805.52	84.895
805.70	82.453
805.87	82.625
806.05	89.180
806.22	73.420
806.40	77.842
806.57	74.719
806.75	91.743
806.92	83.684
807.09	93.169
807.27	77.470
807.44	92.176
807.62	75.563
807.79	86.607
807.97	84.014
808.14	87.200
808.31	75.926
808.49	84.139
808.66	79.576
808.84	89.922
809.01	83.652
809.19	86.831
809.36	92.464
809.53	90.873
809.71	81.853
809.88	95.122
810.06	90.551
810.23	91.800
810.41	84.647
810.58	83.510
810.75	74.249
810.93	82.249
811.10	79.789
811.28	86.577
811.45	86.373
811.62	86.067
811.80	87.234
811.97	87.446
812.15	83.826
812.32	88.147
812.49	81.264
812.67	81.915
812.84	83.077
813.02	84.529
813.19	79.910
813.36	82.213
813.54	89.381
813.71	83.182
813.89	77.093
814.06	89.947
814.23	82.798
814.41	84.870
814.58	85.096
814.75	90.663
814.93	79.762
815.10	87.436
815.28	87.990
815.45	75.862
815.62	72.182
815.80	75.289
815.97	71.636
816.14	72.093
816.32	78.240
816.49	72.632
816.66	73.750
816.84	79.843
817.01	75.488
817.18	81.818
817.36	71.396
817.53	76.866
817.71	57.883
817.88	78.864
818.05	77.629
818.23	85.952
818.40	75.000
818.57	71.581
818.75	83.295
818.92	82.112
819.09	73.819
819.27	67.843
819.44	69.980
819.61	63.284
819.79	70.370
819.96	73.069
820.13	64.249
820.31	69.217
820.48	64.490
820.65	72.513
820.82	72.431
821.00	69.927
821.17	65.093
821.34	69.385
821.52	61.548
821.69	64.478
821.86	60.589
822.04	65.617
822.21	58.257
822.38	59.148
822.56	55.856
822.73	60.976
822.90	55.895
823.07	59.700
823.25	57.832
823.42	53.798
823.59	54.076
823.77	54.982
823.94	56.614
824.11	54.164
824.29	55.624
824.46	57.820
824.63	57.429
824.80	58.155
824.98	56.584
825.15	61.694
825.32	53.785
825.49	67.160
825.67	59.565
825.84	61.384
826.01	60.253
826.19	61.527
826.36	55.485
826.53	61.951
826.70	56.894
826.88	62.011
827.05	56.882
827.22	60.832
827.39	59.236
827.57	57.840
827.74	57.028
827.91	60.888
828.08	56.225
828.26	60.014
828.43	57.163
828.60	61.492
828.77	60.211
828.95	65.132
829.12	57.887
829.29	56.052
829.46	55.209
829.64	64.082
829.81	60.227
829.98	62.460
830.15	65.542
830.32	59.269
830.50	57.276
830.67	66.452
830.84	64.627
831.01	60.345
831.19	56.993
831.36	76.829
831.53	71.429
831.70	82.726
831.87	70.868
832.05	71.683
832.22	87.668
832.39	71.739
832.56	80.153
832.74	72.545
832.91	73.629
833.08	84.615
833.25	55.712
833.42	67.012
833.60	59.477
833.77	58.170
833.94	52.582
834.11	54.424
834.28	47.288
834.45	58.087
834.63	47.972
834.80	56.582
834.97	53.909
835.14	61.146
835.31	54.600
835.49	50.360
835.66	51.337
835.83	60.710
836.00	52.968
836.17	63.304
836.34	51.683
836.52	59.342
836.69	61.007
836.86	65.469
837.03	67.791
837.20	58.814
837.37	57.952
837.55	68.496
837.72	63.584
837.89	73.282
838.06	73.317
838.23	84.928
838.40	77.069
838.58	64.533
838.75	77.778
838.92	93.448
839.09	95.238
839.26	78.610
839.43	87.032
839.60	95.318
839.78	98.148
839.95	79.153
840.12	85.127
840.29	91.401
840.46	100.350
840.63	96.471
840.80	86.667
840.98	99.714
841.15	77.000
841.32	65.808
841.49	75.072
841.66	92.896
841.83	73.867
842.00	85.759
842.17	88.219
842.34	70.774
842.52	89.222
842.69	102.201
842.86	75.779
843.03	103.145
843.20	124.898
843.37	108.741
843.54	114.228
843.71	100.408
843.88	110.927
844.06	136.437
844.23	128.986
844.40	103.409
844.57	109.787
844.74	104.367
844.91	142.593
845.08	107.843
845.25	101.825
845.42	119.598
845.59	152.632
845.76	100.000
845.94	162.025
846.11	130.846
846.28	160.690
846.45	111.043
846.62	118.378
846.79	149.444
846.96	103.620
847.13	136.471
847.30	108.586
847.47	138.462
847.64	105.233
847.81	132.967
847.98	126.486
848.15	127.419
848.32	131.443
848.50	168.944
848.67	166.667
848.84	145.455
849.01	116.327
849.18	127.895
849.35	139.267
849.52	134.104
849.69	125.434
849.86	150.920
850.03	161.644
850.20	175.694
850.37	143.571
850.54	159.119
850.71	185.366
850.88	127.273
851.05	163.699
851.22	134.783
851.39	157.216
851.56	136.806
851.73	123.889
851.90	171.250
852.07	152.353
852.24	144.118
852.41	178.102
852.58	148.485
852.75	133.728
852.92	134.783
853.09	156.983
853.26	166.242
853.43	96.364
853.60	120.619
853.77	173.759
853.94	146.212
854.11	196.581
854.28	138.298
854.45	151.748
854.62	155.705
854.79	168.462
854.96	157.246
855.13	124.444
855.30	124.352
855.47	119.310
855.64	175.676
855.81	180.952
855.98	142.000
856.15	148.276
856.32	106.103
856.49	135.160
856.66	127.907
856.83	119.372
857.00	153.279
857.17	198.333
857.34	139.394
857.51	146.154
857.68	154.286
857.85	138.182
858.02	224.324
858.19	156.429
858.36	146.857
858.53	125.714
858.70	113.245
858.87	162.069
859.04	158.451
859.21	111.739
859.38	164.238
859.55	222.222
859.72	164.463
859.89	212.745
860.05	166.667
860.22	153.289
860.39	193.458
860.56	215.596
860.73	143.976
860.90	152.000
861.07	140.437
861.24	179.487
861.41	180.000
861.58	125.616
861.75	236.111
861.92	146.457
862.09	138.554
862.26	238.298
862.43	176.692
862.59	89.231
862.76	150.340
862.93	160.248
863.10	142.759
863.27	114.595
863.44	148.684
863.61	137.059
863.78	157.042
863.95	208.397
864.12	145.833
864.29	140.310
864.45	282.192
864.62	153.383
864.79	132.432
864.96	173.016
865.13	161.832
865.30	209.091
865.47	188.889
865.64	139.375
865.81	121.605
865.97	110.929
866.14	131.905
866.31	169.919
866.48	164.341
866.65	142.000
866.82	157.047
866.99	193.204
867.16	222.857
867.33	198.291
867.49	170.073
867.66	144.660
867.83	156.800
868.00	135.461
868.17	164.394
868.34	158.219
868.51	117.606
868.67	175.207
868.84	160.544
869.01	164.567
869.18	144.186
869.35	213.333
869.52	132.877
869.69	154.962
869.85	118.182
870.02	183.178
870.19	164.706
870.36	138.095
870.53	106.250
870.70	118.605
870.86	130.189
871.03	172.269
871.20	127.152
871.37	113.876
871.54	109.655
871.71	137.037
871.87	124.658
872.04	126.452
872.21	239.785
872.38	139.264
872.55	161.268
872.72	94.884
872.88	127.219
873.05	135.714
873.22	120.238
873.39	127.439
873.56	128.324
873.72	173.134
873.89	124.638
874.06	161.184
874.23	189.831
874.40	142.657
874.56	234.906
874.73	138.043
874.90	133.898
875.07	152.083
875.24	107.514
875.40	118.065
875.57	122.414
875.74	131.333
875.91	173.554
876.08	141.667
876.24	144.156
876.41	161.628
876.58	121.739
876.75	130.357
876.92	153.097
877.08	165.179
877.25	127.215
877.42	156.296
877.59	129.371
877.75	171.141
877.92	126.400
878.09	149.624
878.26	164.935
878.42	121.739
878.59	165.441
878.76	116.667
878.93	132.749
879.09	111.702
879.26	109.730
879.43	138.824
879.60	130.247
879.76	136.601
879.93	117.722
880.10	109.877
880.27	89.450
880.43	100.000
880.60	75.342
880.77	83.550
880.94	85.818
881.10	90.079
881.27	64.267
881.44	54.042
881.61	63.100
881.77	60.913
881.94	39.594
882.11	43.730
882.28	45.972
882.44	46.566
882.61	43.864
882.78	43.968
882.94	56.243
883.11	50.054
883.28	43.515
883.45	48.934
883.61	44.311
883.78	44.456
883.95	51.509
884.11	46.941
884.28	53.325
>>>>>End Processed Spectral Data<<<<<
