SpectraSuite Data File
++++++++++++++++++++++++++++++++++++
Date: Wed Sep 18 03:25:45 EST 2019
User: sgrac
Dark Spectrum Present: Yes
Reference Spectrum Present: Yes
Number of Sampled Component Spectra: 1
Spectrometers: USB4E01596
Integration Time (usec): 100000 (USB4E01596)
Spectra Averaged: 3 (USB4E01596)
Boxcar Smoothing: 0 (USB4E01596)
Correct for Electrical Dark: No (USB4E01596)
Strobe/Lamp Enabled: Yes (USB4E01596)
Correct for Detector Non-linearity: No (USB4E01596)
Correct for Stray Light: No (USB4E01596)
Number of Pixels in Processed Spectrum: 3648
>>>>>Begin Processed Spectral Data<<<<<
178.44	-108.065
178.66	-108.065
178.87	-108.065
179.09	-130.000
179.30	191.304
179.52	639.474
179.74	-805.556
179.95	-1153.333
180.17	388.372
180.38	-563.333
180.60	291.429
180.82	1387.500
181.03	320.930
181.25	-1457.143
181.46	-520.000
181.68	-248.837
181.89	518.367
182.11	395.000
182.33	401.961
182.54	410.526
182.76	717.391
182.97	1328.571
183.19	204.348
183.40	214.773
183.62	309.615
183.84	214.516
184.05	333.333
184.27	370.492
184.48	2850.000
184.70	636.111
184.91	413.043
185.13	-337.500
185.34	-198.333
185.56	-530.303
185.78	922.222
185.99	337.705
186.21	365.854
186.42	-1320.000
186.64	195.455
186.85	1468.750
187.07	278.571
187.28	383.333
187.50	-405.882
187.72	358.000
187.93	273.494
188.15	439.706
188.36	-1223.529
188.58	258.442
188.79	-5650.000
189.01	189.116
189.22	264.935
189.44	858.333
189.65	219.101
189.87	290.789
190.09	322.340
190.30	740.000
190.52	925.000
190.73	233.735
190.95	831.818
191.16	235.821
191.38	-21700.000
191.59	521.739
191.81	285.714
192.02	-423.077
192.24	358.065
192.45	257.778
192.67	290.909
192.88	203.125
193.10	290.909
193.31	278.571
193.53	279.032
193.74	463.636
193.96	238.983
194.18	-513.043
194.39	362.745
194.61	696.552
194.82	830.769
195.04	328.889
195.25	275.410
195.47	-4325.000
195.68	173.239
195.90	191.209
196.11	410.417
196.33	1082.353
196.54	451.163
196.76	-676.000
196.97	199.000
197.19	815.000
197.40	190.977
197.62	-469.697
197.83	400.000
198.05	144.966
198.26	-692.000
198.48	425.000
198.69	204.587
198.91	298.551
199.12	-1250.000
199.34	908.000
199.55	13200.000
199.77	290.789
199.98	3366.667
200.20	564.706
200.41	267.606
200.63	270.370
200.84	852.381
201.06	567.742
201.27	318.519
201.49	365.625
201.70	404.918
201.91	393.182
202.13	1140.000
202.34	-631.429
202.56	448.333
202.77	-127.907
202.99	331.707
203.20	540.426
203.42	298.571
203.63	154.128
203.85	-686.207
204.06	568.182
204.28	1366.667
204.49	416.279
204.71	236.975
204.92	623.077
205.14	842.105
205.35	3975.000
205.56	381.690
205.78	281.481
205.99	169.466
206.21	218.182
206.42	463.043
206.64	579.412
206.85	267.778
207.07	382.857
207.28	157.955
207.50	800.000
207.71	409.302
207.93	412.500
208.14	383.721
208.35	352.542
208.57	344.000
208.78	344.681
209.00	266.667
209.21	197.183
209.43	269.444
209.64	696.154
209.86	1154.545
210.07	302.532
210.28	251.807
210.50	279.710
210.71	286.364
210.93	356.364
211.14	382.500
211.36	557.143
211.57	168.333
211.78	896.154
212.00	545.946
212.21	1900.000
212.43	1769.231
212.64	696.875
212.86	230.909
213.07	482.692
213.29	245.918
213.50	381.667
213.71	193.750
213.93	282.022
214.14	631.250
214.36	543.902
214.57	305.952
214.78	4450.000
215.00	201.220
215.21	482.222
215.43	-3340.000
215.64	267.143
215.86	264.706
216.07	243.836
216.28	412.000
216.50	308.000
216.71	1053.333
216.93	-15200.000
217.14	1089.474
217.35	-235.593
217.57	256.818
217.78	537.931
218.00	223.810
218.21	382.353
218.42	-4100.000
218.64	717.857
218.85	310.294
219.07	432.558
219.28	287.500
219.49	-7350.000
219.71	265.672
219.92	326.316
220.14	-13300.000
220.35	204.110
220.56	236.957
220.78	278.049
220.99	-353.333
221.21	249.398
221.42	184.868
221.63	800.000
221.85	-446.667
222.06	147.475
222.28	-242.857
222.49	370.175
222.70	213.793
222.92	347.368
223.13	121.918
223.34	1416.667
223.56	170.085
223.77	202.469
223.99	204.040
224.20	232.143
224.41	180.000
224.63	137.500
224.84	204.032
225.05	163.934
225.27	449.091
225.48	262.195
225.69	290.625
225.91	266.154
226.12	244.000
226.34	226.471
226.55	179.245
226.76	120.155
226.98	261.538
227.19	97.857
227.40	126.056
227.62	77.949
227.83	84.286
228.04	95.676
228.26	127.027
228.47	48.558
228.69	39.672
228.90	41.417
229.11	33.989
229.33	27.640
229.54	28.378
229.75	29.803
229.97	31.472
230.18	26.858
230.39	28.912
230.61	18.367
230.82	40.571
231.03	17.672
231.25	24.128
231.46	30.615
231.67	36.307
231.89	33.390
232.10	30.849
232.31	40.189
232.53	52.444
232.74	46.386
232.95	40.198
233.17	36.645
233.38	31.915
233.59	40.397
233.81	44.776
234.02	23.055
234.23	42.448
234.45	46.648
234.66	45.545
234.87	43.596
235.09	33.971
235.30	45.980
235.51	36.591
235.73	40.143
235.94	40.546
236.15	28.571
236.36	31.236
236.58	36.742
236.79	30.970
237.00	38.920
237.22	40.331
237.43	33.753
237.64	28.427
237.86	37.805
238.07	34.967
238.28	29.828
238.50	33.538
238.71	54.231
238.92	41.230
239.13	33.547
239.35	44.712
239.56	49.682
239.77	57.031
239.99	30.380
240.20	43.542
240.41	23.625
240.63	32.721
240.84	34.158
241.05	34.074
241.26	29.250
241.48	21.552
241.69	32.473
241.90	16.460
242.12	25.475
242.33	19.500
242.54	21.077
242.75	13.221
242.97	19.478
243.18	10.680
243.39	14.123
243.61	10.926
243.82	11.356
244.03	13.330
244.24	11.926
244.46	12.914
244.67	13.676
244.88	11.713
245.09	10.027
245.31	14.445
245.52	7.522
245.73	18.919
245.95	28.814
246.16	18.189
246.37	17.286
246.58	17.284
246.80	18.467
247.01	16.273
247.22	13.473
247.43	9.257
247.65	10.091
247.86	8.128
248.07	8.585
248.28	7.291
248.50	7.458
248.71	8.239
248.92	6.424
249.13	7.653
249.35	5.505
249.56	7.838
249.77	5.909
249.98	5.501
250.20	8.783
250.41	13.712
250.62	11.198
250.83	12.563
251.05	16.459
251.26	14.527
251.47	16.885
251.68	11.955
251.90	15.351
252.11	12.641
252.32	17.488
252.53	17.551
252.75	7.098
252.96	13.055
253.17	14.338
253.38	9.360
253.59	9.006
253.81	15.553
254.02	11.581
254.23	7.542
254.44	15.174
254.66	11.133
254.87	11.436
255.08	8.839
255.29	18.035
255.50	15.450
255.72	6.290
255.93	19.234
256.14	19.981
256.35	13.977
256.57	10.747
256.78	22.078
256.99	18.076
257.20	13.623
257.41	14.390
257.63	8.171
257.84	18.998
258.05	12.510
258.26	14.580
258.47	13.575
258.69	17.670
258.90	9.418
259.11	11.228
259.32	9.556
259.53	11.340
259.75	4.046
259.96	8.038
260.17	7.216
260.38	7.651
260.59	4.723
260.81	8.060
261.02	5.449
261.23	5.288
261.44	5.944
261.65	4.936
261.87	6.719
262.08	5.075
262.29	7.489
262.50	6.910
262.71	6.154
262.92	6.074
263.14	5.634
263.35	5.401
263.56	9.210
263.77	8.972
263.98	7.242
264.20	11.475
264.41	15.454
264.62	9.821
264.83	5.602
265.04	14.125
265.25	10.066
265.47	11.824
265.68	10.151
265.89	11.151
266.10	10.309
266.31	14.452
266.52	10.299
266.74	13.444
266.95	14.286
267.16	10.811
267.37	12.964
267.58	8.885
267.79	7.952
268.01	8.638
268.22	4.720
268.43	9.125
268.64	8.073
268.85	10.477
269.06	8.442
269.27	8.727
269.49	5.690
269.70	10.616
269.91	7.763
270.12	10.116
270.33	11.694
270.54	6.974
270.75	7.193
270.97	10.070
271.18	6.461
271.39	8.229
271.60	10.004
271.81	3.854
272.02	9.297
272.23	5.681
272.45	5.749
272.66	5.768
272.87	5.723
273.08	8.639
273.29	7.819
273.50	3.890
273.71	5.415
273.92	5.164
274.14	7.127
274.35	7.262
274.56	8.545
274.77	6.220
274.98	7.145
275.19	7.585
275.40	10.165
275.61	6.359
275.83	5.971
276.04	6.750
276.25	9.721
276.46	9.060
276.67	7.589
276.88	8.330
277.09	7.494
277.30	11.026
277.51	8.986
277.73	5.984
277.94	9.676
278.15	8.378
278.36	9.169
278.57	6.342
278.78	10.870
278.99	6.968
279.20	8.866
279.41	10.572
279.62	6.505
279.84	10.772
280.05	5.281
280.26	9.581
280.47	8.714
280.68	3.899
280.89	4.962
281.10	9.762
281.31	8.003
281.52	9.363
281.73	4.162
281.94	5.554
282.16	6.870
282.37	8.497
282.58	8.030
282.79	6.209
283.00	6.128
283.21	6.204
283.42	5.000
283.63	7.774
283.84	5.082
284.05	5.219
284.26	6.402
284.47	7.692
284.68	4.889
284.89	5.092
285.11	5.907
285.32	7.166
285.53	7.778
285.74	6.678
285.95	4.375
286.16	6.488
286.37	3.943
286.58	5.362
286.79	3.992
287.00	5.030
287.21	3.670
287.42	4.278
287.63	5.774
287.84	4.820
288.05	3.516
288.26	4.805
288.48	4.797
288.69	5.322
288.90	6.116
289.11	6.409
289.32	4.825
289.53	8.276
289.74	6.438
289.95	5.598
290.16	5.999
290.37	6.949
290.58	4.336
290.79	3.606
291.00	5.774
291.21	7.046
291.42	5.517
291.63	4.169
291.84	4.608
292.05	4.834
292.26	4.208
292.47	5.031
292.68	2.803
292.89	5.805
293.10	7.261
293.31	5.977
293.52	4.958
293.73	4.873
293.94	6.637
294.15	3.923
294.36	6.063
294.57	5.123
294.79	6.127
295.00	4.270
295.21	6.644
295.42	5.553
295.63	7.365
295.84	2.980
296.05	4.017
296.26	3.248
296.47	5.831
296.68	5.189
296.89	6.521
297.10	4.734
297.31	4.734
297.52	3.950
297.73	4.579
297.94	3.878
298.15	3.482
298.36	2.617
298.57	2.675
298.78	3.477
298.99	4.061
299.20	2.887
299.41	2.932
299.62	2.179
299.83	4.034
300.04	4.627
300.25	4.145
300.46	5.156
300.67	5.847
300.88	5.200
301.09	1.247
301.30	5.899
301.50	4.860
301.71	4.782
301.92	6.502
302.13	4.779
302.34	3.379
302.55	5.162
302.76	4.577
302.97	3.649
303.18	4.137
303.39	7.671
303.60	4.073
303.81	6.598
304.02	4.057
304.23	6.649
304.44	5.267
304.65	2.394
304.86	5.228
305.07	4.382
305.28	6.355
305.49	7.035
305.70	5.528
305.91	4.808
306.12	3.158
306.33	4.434
306.54	5.301
306.75	6.531
306.96	7.452
307.17	3.850
307.38	4.587
307.58	4.583
307.79	4.882
308.00	5.944
308.21	4.304
308.42	2.353
308.63	7.985
308.84	6.880
309.05	7.127
309.26	4.375
309.47	4.405
309.68	4.375
309.89	5.382
310.10	4.082
310.31	5.119
310.52	3.914
310.73	5.372
310.94	3.298
311.14	4.354
311.35	4.094
311.56	4.145
311.77	3.841
311.98	2.912
312.19	5.300
312.40	3.430
312.61	3.734
312.82	5.311
313.03	5.543
313.24	4.325
313.45	5.098
313.66	4.952
313.86	4.959
314.07	3.602
314.28	5.092
314.49	2.204
314.70	4.029
314.91	3.580
315.12	4.956
315.33	5.075
315.54	5.684
315.75	5.206
315.96	4.994
316.16	6.047
316.37	5.863
316.58	6.258
316.79	4.982
317.00	6.959
317.21	5.916
317.42	7.820
317.63	3.775
317.84	4.556
318.05	5.693
318.25	6.512
318.46	4.583
318.67	4.170
318.88	5.714
319.09	5.613
319.30	5.844
319.51	6.572
319.72	5.953
319.93	5.859
320.13	6.130
320.34	5.732
320.55	2.141
320.76	5.250
320.97	6.389
321.18	7.574
321.39	4.761
321.60	5.921
321.80	5.720
322.01	6.318
322.22	7.600
322.43	4.067
322.64	6.448
322.85	5.770
323.06	5.120
323.27	7.472
323.47	6.875
323.68	6.243
323.89	5.939
324.10	3.486
324.31	5.938
324.52	5.194
324.73	4.157
324.93	5.984
325.14	4.082
325.35	5.243
325.56	5.347
325.77	4.752
325.98	3.284
326.19	6.097
326.39	3.473
326.60	6.019
326.81	2.969
327.02	3.771
327.23	5.743
327.44	5.745
327.64	4.195
327.85	4.651
328.06	3.485
328.27	6.837
328.48	5.975
328.69	2.910
328.90	5.590
329.10	5.858
329.31	5.153
329.52	5.604
329.73	6.061
329.94	6.280
330.15	5.837
330.35	7.617
330.56	5.807
330.77	6.737
330.98	4.947
331.19	4.213
331.39	4.869
331.60	4.892
331.81	2.868
332.02	5.359
332.23	5.665
332.44	6.966
332.64	4.936
332.85	4.682
333.06	7.619
333.27	4.108
333.48	3.960
333.68	5.297
333.89	4.813
334.10	4.029
334.31	5.456
334.52	5.573
334.72	5.409
334.93	4.837
335.14	2.947
335.35	6.165
335.56	7.170
335.76	5.419
335.97	4.122
336.18	4.276
336.39	4.950
336.60	5.233
336.80	3.371
337.01	4.636
337.22	4.655
337.43	5.861
337.64	5.978
337.84	3.907
338.05	4.241
338.26	6.169
338.47	6.051
338.68	4.256
338.88	4.931
339.09	5.918
339.30	4.579
339.51	2.759
339.71	6.689
339.92	4.874
340.13	5.517
340.34	4.945
340.55	3.457
340.75	4.815
340.96	4.387
341.17	4.490
341.38	4.307
341.58	5.574
341.79	5.400
342.00	2.981
342.21	4.103
342.41	4.863
342.62	4.873
342.83	3.896
343.04	3.707
343.24	4.840
343.45	5.513
343.66	3.860
343.87	3.321
344.07	5.201
344.28	6.741
344.49	6.380
344.70	5.412
344.90	3.533
345.11	1.975
345.32	6.286
345.53	4.839
345.73	5.638
345.94	4.319
346.15	4.831
346.36	5.092
346.56	4.063
346.77	5.050
346.98	6.141
347.19	5.049
347.39	4.507
347.60	4.794
347.81	6.036
348.02	5.351
348.22	4.276
348.43	2.876
348.64	4.648
348.84	5.983
349.05	4.642
349.26	5.482
349.47	3.899
349.67	4.067
349.88	5.626
350.09	3.818
350.30	6.579
350.50	5.334
350.71	6.265
350.92	5.198
351.12	6.706
351.33	5.232
351.54	4.587
351.74	4.783
351.95	4.163
352.16	6.924
352.37	5.943
352.57	5.271
352.78	4.839
352.99	4.646
353.19	6.205
353.40	6.669
353.61	5.957
353.82	6.502
354.02	6.477
354.23	4.635
354.44	6.627
354.64	5.547
354.85	6.810
355.06	4.450
355.26	5.533
355.47	6.750
355.68	7.202
355.88	5.731
356.09	4.835
356.30	4.214
356.51	5.208
356.71	5.243
356.92	6.161
357.13	5.324
357.33	5.455
357.54	5.175
357.75	5.096
357.95	5.199
358.16	5.644
358.37	7.910
358.57	3.448
358.78	6.935
358.99	6.332
359.19	4.983
359.40	6.384
359.61	6.269
359.81	6.391
360.02	7.557
360.23	5.451
360.43	5.166
360.64	5.710
360.85	5.033
361.05	5.510
361.26	7.101
361.47	5.057
361.67	5.598
361.88	4.399
362.09	6.423
362.29	4.607
362.50	4.613
362.70	3.371
362.91	5.698
363.12	4.471
363.32	4.773
363.53	6.069
363.74	6.578
363.94	3.078
364.15	6.874
364.36	5.960
364.56	4.602
364.77	6.694
364.98	7.952
365.18	5.687
365.39	7.027
365.59	4.450
365.80	5.932
366.01	5.672
366.21	6.185
366.42	5.238
366.63	6.418
366.83	5.859
367.04	5.050
367.24	6.641
367.45	4.746
367.66	4.813
367.86	5.168
368.07	5.980
368.28	4.940
368.48	4.805
368.69	4.312
368.89	6.458
369.10	4.987
369.31	6.268
369.51	6.709
369.72	7.090
369.92	9.202
370.13	4.562
370.34	6.641
370.54	3.963
370.75	6.219
370.95	4.803
371.16	6.407
371.37	5.203
371.57	6.111
371.78	4.697
371.98	6.516
372.19	6.768
372.40	7.614
372.60	7.749
372.81	6.419
373.01	5.683
373.22	5.219
373.43	7.329
373.63	7.265
373.84	6.717
374.04	5.863
374.25	7.906
374.46	7.086
374.66	7.543
374.87	7.078
375.07	5.017
375.28	5.944
375.48	7.324
375.69	9.195
375.90	4.965
376.10	3.652
376.31	5.626
376.51	5.115
376.72	6.701
376.92	5.499
377.13	8.509
377.34	7.774
377.54	5.764
377.75	8.347
377.95	6.337
378.16	7.790
378.36	7.582
378.57	9.138
378.77	6.759
378.98	7.582
379.19	6.737
379.39	6.331
379.60	6.535
379.80	8.034
380.01	8.075
380.21	7.181
380.42	7.740
380.62	8.250
380.83	8.776
381.04	7.368
381.24	8.686
381.45	6.925
381.65	7.183
381.86	8.843
382.06	9.877
382.27	7.448
382.47	7.218
382.68	9.487
382.88	7.381
383.09	7.187
383.29	8.603
383.50	9.592
383.71	8.808
383.91	9.519
384.12	8.277
384.32	10.131
384.53	10.074
384.73	8.050
384.94	9.337
385.14	9.729
385.35	8.351
385.55	10.927
385.76	9.669
385.96	9.827
386.17	12.160
386.37	11.571
386.58	10.815
386.78	12.855
386.99	11.166
387.19	12.586
387.40	10.415
387.60	13.743
387.81	11.808
388.01	11.818
388.22	13.499
388.42	14.600
388.63	13.636
388.83	15.022
389.04	11.667
389.24	13.515
389.45	13.217
389.65	12.877
389.86	13.099
390.06	12.913
390.27	13.188
390.47	14.794
390.68	13.901
390.88	16.400
391.09	15.467
391.29	16.511
391.50	15.130
391.70	16.741
391.91	14.632
392.11	16.368
392.32	16.581
392.52	17.021
392.73	16.056
392.93	17.646
393.14	16.339
393.34	17.042
393.55	18.696
393.75	17.905
393.95	17.767
394.16	18.167
394.36	18.574
394.57	19.340
394.77	18.589
394.98	18.428
395.18	18.884
395.39	18.866
395.59	18.133
395.80	20.922
396.00	19.289
396.21	20.868
396.41	18.231
396.61	20.235
396.82	19.816
397.02	21.587
397.23	19.469
397.43	20.014
397.64	18.961
397.84	21.098
398.05	18.716
398.25	21.531
398.45	19.909
398.66	20.867
398.86	19.447
399.07	22.494
399.27	20.121
399.48	21.568
399.68	19.819
399.89	20.904
400.09	20.491
400.29	20.358
400.50	21.170
400.70	22.353
400.91	20.297
401.11	21.195
401.32	21.766
401.52	19.726
401.72	20.734
401.93	23.294
402.13	20.837
402.34	21.865
402.54	19.730
402.75	23.617
402.95	18.999
403.15	22.044
403.36	20.402
403.56	21.399
403.77	19.443
403.97	21.239
404.17	19.739
404.38	21.970
404.58	21.281
404.79	21.179
404.99	21.901
405.19	21.122
405.40	21.587
405.60	21.508
405.81	21.084
406.01	22.215
406.21	21.300
406.42	21.355
406.62	21.812
406.83	22.466
407.03	21.902
407.23	20.732
407.44	20.719
407.64	21.465
407.85	21.518
408.05	21.749
408.25	20.967
408.46	22.165
408.66	20.926
408.87	20.912
409.07	20.574
409.27	20.161
409.48	20.844
409.68	20.998
409.88	18.615
410.09	21.172
410.29	20.778
410.50	22.296
410.70	19.488
410.90	20.919
411.11	20.252
411.31	21.020
411.51	20.850
411.72	20.738
411.92	20.671
412.12	20.739
412.33	19.186
412.53	21.396
412.74	18.336
412.94	21.061
413.14	20.190
413.35	20.865
413.55	19.930
413.75	20.903
413.96	19.429
414.16	20.547
414.36	20.355
414.57	20.719
414.77	19.504
414.97	20.113
415.18	20.200
415.38	20.216
415.58	20.385
415.79	19.870
415.99	19.340
416.19	20.332
416.40	18.934
416.60	20.429
416.80	19.645
417.01	20.047
417.21	19.173
417.41	21.469
417.62	20.009
417.82	20.134
418.02	19.231
418.23	19.882
418.43	19.564
418.63	20.761
418.84	19.800
419.04	19.333
419.24	19.661
419.45	20.239
419.65	20.500
419.85	20.128
420.06	19.641
420.26	20.300
420.46	19.764
420.67	19.796
420.87	19.916
421.07	20.127
421.28	19.319
421.48	19.500
421.68	19.520
421.88	20.010
422.09	19.836
422.29	19.794
422.49	19.317
422.70	19.612
422.90	19.670
423.10	19.647
423.31	19.866
423.51	19.730
423.71	19.422
423.91	19.414
424.12	19.683
424.32	19.607
424.52	18.796
424.73	19.323
424.93	19.039
425.13	19.823
425.33	18.630
425.54	18.961
425.74	19.215
425.94	19.599
426.15	19.359
426.35	19.433
426.55	19.434
426.75	19.614
426.96	18.798
427.16	19.428
427.36	19.724
427.57	19.507
427.77	19.554
427.97	19.899
428.17	19.512
428.38	19.682
428.58	18.092
428.78	20.416
428.98	18.038
429.19	19.004
429.39	18.376
429.59	19.242
429.79	18.334
430.00	18.222
430.20	17.604
430.40	18.871
430.60	17.571
430.81	18.808
431.01	18.351
431.21	18.440
431.41	17.610
431.62	18.660
431.82	17.330
432.02	18.720
432.22	17.670
432.43	18.146
432.63	17.972
432.83	18.533
433.03	17.841
433.24	17.960
433.44	18.039
433.64	19.084
433.84	18.026
434.05	18.250
434.25	17.766
434.45	18.996
434.65	18.408
434.85	18.569
435.06	18.253
435.26	18.463
435.46	18.759
435.66	18.952
435.87	17.926
436.07	18.756
436.27	18.128
436.47	18.788
436.67	17.805
436.88	18.835
437.08	17.863
437.28	18.706
437.48	18.150
437.69	18.119
437.89	18.220
438.09	18.569
438.29	18.364
438.49	17.864
438.70	18.180
438.90	18.385
439.10	17.853
439.30	18.360
439.50	17.937
439.71	18.190
439.91	18.260
440.11	18.761
440.31	18.066
440.51	18.608
440.72	17.877
440.92	18.308
441.12	17.942
441.32	18.228
441.52	18.460
441.72	18.482
441.93	18.235
442.13	18.563
442.33	18.594
442.53	18.437
442.73	18.070
442.94	18.548
443.14	18.471
443.34	19.094
443.54	18.661
443.74	19.098
443.94	18.488
444.15	18.534
444.35	18.334
444.55	18.723
444.75	18.969
444.95	18.636
445.15	18.395
445.36	18.290
445.56	18.223
445.76	18.178
445.96	18.068
446.16	18.280
446.36	18.090
446.57	18.452
446.77	18.076
446.97	18.523
447.17	18.556
447.37	18.265
447.57	18.079
447.77	18.228
447.98	18.387
448.18	18.362
448.38	18.598
448.58	19.152
448.78	18.691
448.98	18.438
449.18	18.381
449.39	18.853
449.59	18.749
449.79	18.862
449.99	18.814
450.19	18.958
450.39	19.017
450.59	18.681
450.79	18.943
451.00	18.801
451.20	19.326
451.40	19.055
451.60	18.858
451.80	18.598
452.00	18.725
452.20	19.059
452.40	18.492
452.61	18.343
452.81	18.153
453.01	18.740
453.21	18.386
453.41	18.294
453.61	18.140
453.81	18.300
454.01	18.339
454.21	18.875
454.42	18.440
454.62	18.671
454.82	18.849
455.02	18.218
455.22	18.540
455.42	18.620
455.62	17.649
455.82	18.296
456.02	18.179
456.23	18.458
456.43	18.607
456.63	18.262
456.83	17.658
457.03	18.254
457.23	18.412
457.43	18.715
457.63	17.593
457.83	18.675
458.03	17.881
458.23	18.943
458.43	17.474
458.64	17.894
458.84	17.896
459.04	18.461
459.24	18.033
459.44	18.049
459.64	17.706
459.84	17.973
460.04	18.047
460.24	17.663
460.44	17.548
460.64	18.129
460.84	17.771
461.04	18.031
461.24	17.988
461.45	17.889
461.65	18.347
461.85	18.147
462.05	18.279
462.25	18.382
462.45	18.679
462.65	18.788
462.85	17.837
463.05	18.737
463.25	17.711
463.45	18.050
463.65	18.467
463.85	18.014
464.05	18.411
464.25	18.130
464.45	18.450
464.65	18.234
464.85	17.758
465.05	17.753
465.26	18.069
465.46	18.233
465.66	17.832
465.86	18.024
466.06	18.201
466.26	17.856
466.46	17.784
466.66	18.375
466.86	18.064
467.06	17.763
467.26	17.932
467.46	18.431
467.66	17.419
467.86	17.784
468.06	17.678
468.26	17.838
468.46	17.887
468.66	18.372
468.86	18.053
469.06	18.660
469.26	18.256
469.46	18.538
469.66	17.455
469.86	18.272
470.06	17.406
470.26	18.662
470.46	17.774
470.66	18.089
470.86	17.570
471.06	18.015
471.26	17.397
471.46	17.977
471.66	18.301
471.86	18.228
472.06	18.029
472.26	18.552
472.46	18.325
472.66	18.007
472.86	18.367
473.06	18.112
473.26	18.079
473.46	18.785
473.66	18.427
473.86	18.520
474.06	18.169
474.26	18.406
474.46	18.385
474.66	18.757
474.86	18.660
475.06	18.864
475.26	18.315
475.46	18.544
475.66	17.999
475.86	18.835
476.06	19.034
476.26	19.222
476.46	18.514
476.66	18.929
476.86	18.211
477.06	18.719
477.26	18.250
477.46	18.807
477.65	18.462
477.85	19.415
478.05	18.519
478.25	18.749
478.45	18.662
478.65	18.840
478.85	18.755
479.05	19.259
479.25	19.002
479.45	18.205
479.65	18.569
479.85	19.068
480.05	19.208
480.25	18.762
480.45	18.777
480.65	19.128
480.85	19.690
481.05	19.057
481.25	18.955
481.44	18.953
481.64	18.502
481.84	18.963
482.04	19.171
482.24	18.963
482.44	18.621
482.64	18.538
482.84	18.732
483.04	18.557
483.24	18.030
483.44	18.728
483.64	18.099
483.84	17.978
484.04	18.230
484.23	18.386
484.43	18.592
484.63	18.546
484.83	19.010
485.03	18.978
485.23	19.305
485.43	19.228
485.63	19.467
485.83	19.471
486.03	19.740
486.23	19.678
486.42	19.756
486.62	19.586
486.82	19.250
487.02	19.239
487.22	19.124
487.42	18.930
487.62	18.869
487.82	18.616
488.02	18.767
488.22	18.818
488.41	18.657
488.61	18.499
488.81	18.750
489.01	18.969
489.21	19.069
489.41	19.190
489.61	19.367
489.81	19.343
490.01	19.475
490.20	19.247
490.40	19.619
490.60	19.649
490.80	19.330
491.00	19.819
491.20	19.050
491.40	18.786
491.60	18.759
491.79	18.628
491.99	18.737
492.19	18.678
492.39	18.890
492.59	18.772
492.79	18.738
492.99	18.811
493.19	19.264
493.38	19.041
493.58	19.031
493.78	19.818
493.98	19.692
494.18	19.829
494.38	19.613
494.58	19.819
494.77	19.570
494.97	19.459
495.17	19.617
495.37	19.500
495.57	19.584
495.77	19.214
495.96	19.841
496.16	19.222
496.36	19.075
496.56	19.108
496.76	19.144
496.96	19.091
497.15	19.195
497.35	19.276
497.55	19.246
497.75	19.434
497.95	19.212
498.15	19.101
498.34	19.205
498.54	19.454
498.74	19.566
498.94	19.476
499.14	19.463
499.34	19.207
499.53	19.629
499.73	19.695
499.93	19.388
500.13	19.524
500.33	19.609
500.52	19.833
500.72	19.690
500.92	20.233
501.12	19.862
501.32	19.934
501.52	20.048
501.71	20.416
501.91	19.946
502.11	20.326
502.31	20.058
502.51	20.133
502.70	19.785
502.90	20.174
503.10	20.214
503.30	20.414
503.50	20.371
503.69	20.717
503.89	20.059
504.09	20.323
504.29	20.233
504.48	20.517
504.68	20.333
504.88	20.307
505.08	20.353
505.28	20.423
505.47	20.672
505.67	20.338
505.87	20.981
506.07	19.960
506.27	20.457
506.46	20.727
506.66	20.413
506.86	21.242
507.06	21.066
507.25	20.409
507.45	21.277
507.65	20.559
507.85	21.010
508.04	20.842
508.24	21.060
508.44	20.996
508.64	20.428
508.83	20.842
509.03	20.522
509.23	20.737
509.43	21.061
509.63	20.866
509.82	21.176
510.02	20.871
510.22	20.471
510.42	21.195
510.61	21.350
510.81	21.274
511.01	21.254
511.21	20.915
511.40	21.615
511.60	21.328
511.80	21.347
511.99	21.311
512.19	21.526
512.39	20.922
512.59	21.120
512.78	21.429
512.98	21.378
513.18	21.364
513.38	21.524
513.57	21.555
513.77	21.550
513.97	21.379
514.17	21.756
514.36	21.913
514.56	22.055
514.76	22.103
514.95	22.045
515.15	22.499
515.35	22.219
515.55	21.816
515.74	21.531
515.94	22.411
516.14	21.988
516.33	22.338
516.53	21.982
516.73	22.143
516.93	22.289
517.12	21.911
517.32	21.563
517.52	22.156
517.71	21.735
517.91	21.659
518.11	21.644
518.30	22.067
518.50	21.714
518.70	21.654
518.90	21.535
519.09	21.600
519.29	21.858
519.49	21.924
519.68	21.691
519.88	21.998
520.08	21.801
520.27	22.037
520.47	22.691
520.67	21.994
520.86	22.512
521.06	22.405
521.26	22.469
521.45	22.621
521.65	22.613
521.85	22.527
522.04	22.167
522.24	22.469
522.44	22.474
522.63	22.505
522.83	22.338
523.03	22.299
523.22	22.088
523.42	22.431
523.62	22.856
523.81	22.148
524.01	22.357
524.21	22.550
524.40	22.609
524.60	22.327
524.80	22.703
524.99	22.685
525.19	22.523
525.39	22.022
525.58	22.263
525.78	21.979
525.98	22.127
526.17	22.321
526.37	21.931
526.57	22.351
526.76	22.251
526.96	21.992
527.15	21.968
527.35	22.771
527.55	22.243
527.74	22.541
527.94	22.188
528.14	21.832
528.33	21.569
528.53	21.574
528.72	22.019
528.92	21.831
529.12	22.156
529.31	21.960
529.51	22.200
529.71	22.148
529.90	22.410
530.10	22.532
530.29	22.610
530.49	22.738
530.69	22.983
530.88	23.161
531.08	22.705
531.28	22.832
531.47	22.660
531.67	22.949
531.86	22.712
532.06	22.537
532.26	22.853
532.45	22.753
532.65	22.735
532.84	22.228
533.04	22.372
533.24	22.325
533.43	21.881
533.63	22.453
533.82	22.358
534.02	22.708
534.22	22.073
534.41	22.510
534.61	22.683
534.80	22.464
535.00	22.844
535.19	23.020
535.39	23.222
535.59	23.060
535.78	22.926
535.98	22.897
536.17	22.478
536.37	22.788
536.57	22.550
536.76	22.774
536.96	22.843
537.15	22.696
537.35	22.296
537.54	23.183
537.74	23.325
537.93	23.492
538.13	23.071
538.33	23.184
538.52	23.180
538.72	23.441
538.91	23.669
539.11	23.153
539.30	23.385
539.50	23.343
539.70	22.864
539.89	23.200
540.09	22.989
540.28	22.974
540.48	23.461
540.67	23.001
540.87	22.765
541.06	22.915
541.26	22.600
541.45	22.956
541.65	22.545
541.85	23.058
542.04	23.007
542.24	23.053
542.43	23.190
542.63	23.038
542.82	23.458
543.02	23.543
543.21	23.590
543.41	23.807
543.60	23.955
543.80	24.029
543.99	23.863
544.19	23.775
544.38	23.946
544.58	23.869
544.77	23.781
544.97	23.964
545.16	23.985
545.36	23.978
545.56	23.964
545.75	24.123
545.95	23.886
546.14	24.313
546.34	23.981
546.53	24.089
546.73	23.692
546.92	24.087
547.12	23.934
547.31	23.942
547.51	24.237
547.70	24.111
547.90	24.298
548.09	24.389
548.29	25.066
548.48	24.269
548.68	24.212
548.87	24.546
549.07	24.988
549.26	24.935
549.46	25.442
549.65	24.920
549.84	24.764
550.04	25.037
550.23	25.369
550.43	25.070
550.62	25.216
550.82	25.131
551.01	25.157
551.21	24.993
551.40	25.543
551.60	25.242
551.79	25.453
551.99	25.509
552.18	25.190
552.38	25.475
552.57	25.412
552.77	25.262
552.96	25.760
553.16	25.345
553.35	25.280
553.54	25.255
553.74	25.752
553.93	25.483
554.13	25.359
554.32	25.441
554.52	25.898
554.71	26.046
554.91	26.024
555.10	26.134
555.29	25.713
555.49	26.659
555.68	25.917
555.88	26.737
556.07	26.226
556.27	25.788
556.46	25.832
556.66	26.227
556.85	26.534
557.04	26.228
557.24	26.036
557.43	26.884
557.63	26.814
557.82	26.782
558.02	26.773
558.21	26.501
558.40	27.162
558.60	26.716
558.79	27.128
558.99	26.436
559.18	26.727
559.38	26.431
559.57	26.998
559.76	26.414
559.96	27.035
560.15	26.974
560.35	27.104
560.54	27.585
560.73	25.866
560.93	27.309
561.12	26.958
561.32	26.763
561.51	26.317
561.70	27.065
561.90	27.476
562.09	26.631
562.29	26.872
562.48	27.623
562.67	27.447
562.87	26.910
563.06	26.918
563.26	27.775
563.45	27.526
563.64	27.493
563.84	27.816
564.03	27.244
564.23	27.210
564.42	27.941
564.61	27.742
564.81	27.834
565.00	27.510
565.20	27.238
565.39	27.731
565.58	26.986
565.78	26.968
565.97	27.250
566.16	28.129
566.36	27.056
566.55	27.473
566.74	26.982
566.94	27.473
567.13	26.965
567.33	27.462
567.52	27.794
567.71	27.656
567.91	27.887
568.10	27.725
568.29	27.910
568.49	28.253
568.68	28.253
568.87	28.352
569.07	27.742
569.26	27.916
569.45	27.608
569.65	27.248
569.84	27.980
570.04	28.245
570.23	27.647
570.42	27.737
570.62	27.728
570.81	27.737
571.00	27.616
571.20	27.656
571.39	27.351
571.58	27.540
571.78	27.752
571.97	27.321
572.16	27.517
572.36	27.214
572.55	27.360
572.74	27.980
572.94	27.174
573.13	27.704
573.32	27.841
573.51	28.422
573.71	28.120
573.90	27.890
574.09	27.665
574.29	27.736
574.48	27.993
574.67	27.308
574.87	27.868
575.06	27.668
575.25	27.538
575.45	27.994
575.64	27.706
575.83	27.237
576.03	28.619
576.22	27.878
576.41	27.552
576.60	27.877
576.80	27.780
576.99	27.869
577.18	27.989
577.38	27.677
577.57	27.975
577.76	27.603
577.95	28.588
578.15	27.871
578.34	28.663
578.53	27.691
578.73	27.619
578.92	27.793
579.11	28.085
579.30	28.257
579.50	27.393
579.69	28.099
579.88	27.480
580.08	28.092
580.27	28.098
580.46	27.612
580.65	28.274
580.85	27.591
581.04	27.576
581.23	27.182
581.42	27.819
581.62	28.377
581.81	28.054
582.00	28.663
582.19	27.884
582.39	28.048
582.58	27.649
582.77	28.721
582.96	27.916
583.16	28.361
583.35	27.873
583.54	27.764
583.73	27.283
583.93	27.764
584.12	28.066
584.31	27.528
584.50	28.060
584.70	27.970
584.89	28.552
585.08	27.814
585.27	28.082
585.47	27.491
585.66	28.391
585.85	28.503
586.04	27.568
586.24	28.337
586.43	27.264
586.62	27.732
586.81	27.375
587.00	27.865
587.20	27.947
587.39	27.939
587.58	28.248
587.77	28.321
587.97	27.949
588.16	28.071
588.35	28.071
588.54	27.327
588.73	27.736
588.93	27.623
589.12	27.568
589.31	29.733
589.50	27.159
589.69	27.598
589.89	27.633
590.08	27.574
590.27	28.281
590.46	27.363
590.65	27.735
590.85	27.126
591.04	27.641
591.23	28.568
591.42	27.403
591.61	28.059
591.81	28.109
592.00	27.779
592.19	27.836
592.38	28.109
592.57	28.340
592.77	28.192
592.96	28.084
593.15	27.838
593.34	28.300
593.53	28.155
593.72	28.626
593.92	27.952
594.11	28.021
594.30	28.362
594.49	28.333
594.68	27.676
594.87	28.095
595.07	28.226
595.26	28.508
595.45	28.561
595.64	28.144
595.83	29.132
596.02	28.470
596.22	28.682
596.41	28.299
596.60	28.973
596.79	28.553
596.98	28.020
597.17	28.678
597.37	28.176
597.56	28.190
597.75	27.966
597.94	28.496
598.13	29.212
598.32	28.769
598.51	28.860
598.71	29.191
598.90	28.809
599.09	29.271
599.28	29.365
599.47	29.490
599.66	29.755
599.85	29.480
600.05	29.425
600.24	29.786
600.43	30.349
600.62	29.408
600.81	30.037
601.00	30.347
601.19	29.905
601.38	29.930
601.58	29.790
601.77	29.869
601.96	30.257
602.15	30.847
602.34	29.709
602.53	30.668
602.72	29.632
602.91	29.807
603.10	30.187
603.30	30.460
603.49	29.949
603.68	30.487
603.87	29.533
604.06	29.215
604.25	29.721
604.44	29.800
604.63	29.546
604.82	29.827
605.01	29.968
605.21	30.121
605.40	29.363
605.59	30.060
605.78	30.172
605.97	29.823
606.16	29.943
606.35	30.057
606.54	30.562
606.73	30.574
606.92	30.544
607.11	30.295
607.30	30.744
607.50	30.969
607.69	30.543
607.88	30.517
608.07	31.455
608.26	30.551
608.45	30.741
608.64	30.850
608.83	30.347
609.02	31.653
609.21	30.241
609.40	30.371
609.59	29.641
609.78	30.326
609.97	29.992
610.16	30.396
610.35	30.571
610.55	30.273
610.74	30.338
610.93	30.316
611.12	30.417
611.31	30.498
611.50	30.486
611.69	30.608
611.88	30.270
612.07	30.880
612.26	31.419
612.45	31.322
612.64	30.886
612.83	31.165
613.02	30.764
613.21	30.855
613.40	31.282
613.59	30.821
613.78	31.080
613.97	31.216
614.16	30.486
614.35	30.572
614.54	30.029
614.73	31.703
614.92	30.430
615.11	30.918
615.30	31.131
615.49	30.697
615.68	29.901
615.87	30.219
616.07	30.188
616.26	30.964
616.45	30.624
616.64	30.263
616.83	29.646
617.02	30.192
617.21	29.678
617.40	30.939
617.59	30.364
617.78	30.391
617.97	30.146
618.16	30.377
618.35	29.294
618.54	29.158
618.73	29.863
618.92	30.208
619.11	29.739
619.30	30.168
619.49	29.052
619.68	30.040
619.86	29.866
620.05	29.918
620.24	29.709
620.43	29.345
620.62	28.881
620.81	29.759
621.00	30.578
621.19	29.740
621.38	29.807
621.57	29.809
621.76	30.097
621.95	30.221
622.14	29.683
622.33	30.137
622.52	28.642
622.71	30.047
622.90	28.974
623.09	29.738
623.28	28.136
623.47	29.938
623.66	29.180
623.85	28.557
624.04	28.917
624.23	29.766
624.42	28.980
624.61	29.736
624.80	29.351
624.99	28.998
625.18	29.303
625.36	30.194
625.55	28.665
625.74	30.027
625.93	29.567
626.12	28.473
626.31	29.327
626.50	29.492
626.69	29.135
626.88	29.050
627.07	29.373
627.26	28.819
627.45	28.680
627.64	28.335
627.83	28.989
628.02	28.406
628.20	28.946
628.39	29.030
628.58	28.734
628.77	28.974
628.96	28.060
629.15	28.907
629.34	28.238
629.53	29.665
629.72	28.406
629.91	28.981
630.10	29.053
630.29	29.139
630.47	28.842
630.66	28.303
630.85	30.230
631.04	29.015
631.23	29.082
631.42	29.548
631.61	29.442
631.80	29.588
631.99	28.827
632.18	28.729
632.36	28.493
632.55	29.968
632.74	28.642
632.93	28.795
633.12	28.634
633.31	29.335
633.50	28.620
633.69	29.083
633.88	29.343
634.06	29.532
634.25	28.563
634.44	28.670
634.63	28.622
634.82	29.713
635.01	28.671
635.20	28.116
635.39	29.069
635.57	28.519
635.76	29.163
635.95	29.170
636.14	28.147
636.33	29.005
636.52	28.980
636.71	28.757
636.89	28.407
637.08	29.439
637.27	28.245
637.46	29.570
637.65	28.082
637.84	29.623
638.03	27.999
638.21	28.832
638.40	28.299
638.59	28.987
638.78	28.640
638.97	27.878
639.16	28.650
639.34	29.316
639.53	28.135
639.72	29.125
639.91	28.373
640.10	28.400
640.29	28.225
640.47	28.636
640.66	28.061
640.85	29.207
641.04	27.202
641.23	28.498
641.42	28.339
641.60	28.401
641.79	27.937
641.98	29.269
642.17	28.078
642.36	27.890
642.54	27.479
642.73	28.247
642.92	28.352
643.11	28.531
643.30	27.763
643.49	28.595
643.67	27.132
643.86	28.449
644.05	27.902
644.24	27.427
644.43	27.711
644.61	28.865
644.80	28.176
644.99	29.507
645.18	28.816
645.37	28.768
645.55	27.511
645.74	28.893
645.93	28.614
646.12	27.553
646.31	28.971
646.49	28.431
646.68	27.545
646.87	28.537
647.06	28.799
647.24	28.165
647.43	26.822
647.62	28.641
647.81	28.265
648.00	27.538
648.18	27.402
648.37	28.245
648.56	28.338
648.75	28.270
648.93	27.653
649.12	28.425
649.31	27.934
649.50	28.252
649.68	26.541
649.87	26.691
650.06	27.187
650.25	27.494
650.43	27.611
650.62	29.161
650.81	27.850
651.00	27.512
651.18	26.493
651.37	28.604
651.56	27.094
651.75	27.967
651.93	26.971
652.12	28.216
652.31	26.870
652.50	28.346
652.68	27.058
652.87	29.181
653.06	26.253
653.25	28.387
653.43	27.134
653.62	26.362
653.81	27.066
654.00	28.235
654.18	26.209
654.37	27.670
654.56	26.568
654.74	27.073
654.93	26.868
655.12	27.381
655.31	25.932
655.49	27.674
655.68	26.682
655.87	25.506
656.05	25.236
656.24	26.525
656.43	25.541
656.62	26.645
656.80	25.957
656.99	26.365
657.18	25.936
657.36	26.521
657.55	25.107
657.74	25.591
657.93	26.120
658.11	26.680
658.30	25.889
658.49	25.341
658.67	26.021
658.86	24.632
659.05	24.816
659.23	24.917
659.42	23.408
659.61	25.370
659.79	24.198
659.98	25.171
660.17	24.591
660.35	24.792
660.54	24.933
660.73	25.489
660.91	24.032
661.10	25.033
661.29	23.427
661.47	23.341
661.66	23.846
661.85	25.556
662.03	23.989
662.22	23.239
662.41	22.576
662.59	23.029
662.78	21.250
662.97	23.945
663.15	21.614
663.34	22.814
663.53	21.978
663.71	23.285
663.90	21.935
664.09	22.568
664.27	22.069
664.46	21.991
664.65	20.421
664.83	20.765
665.02	20.398
665.21	21.109
665.39	18.069
665.58	21.866
665.77	18.885
665.95	20.820
666.14	18.174
666.32	20.828
666.51	19.119
666.70	20.246
666.88	17.673
667.07	20.146
667.26	17.390
667.44	19.257
667.63	18.436
667.81	18.613
668.00	18.427
668.19	20.808
668.37	17.971
668.56	19.733
668.75	16.012
668.93	20.298
669.12	18.160
669.30	20.044
669.49	17.836
669.68	19.121
669.86	17.460
670.05	18.227
670.23	17.364
670.42	18.099
670.61	17.012
670.79	18.934
670.98	18.285
671.16	19.402
671.35	18.005
671.54	18.327
671.72	17.519
671.91	19.681
672.09	16.536
672.28	18.837
672.46	18.403
672.65	18.535
672.84	18.512
673.02	20.243
673.21	16.408
673.39	17.483
673.58	17.732
673.77	20.094
673.95	17.322
674.14	19.745
674.32	16.781
674.51	19.410
674.69	18.160
674.88	19.064
675.07	17.838
675.25	21.793
675.44	18.490
675.62	18.560
675.81	18.449
675.99	23.425
676.18	19.789
676.36	18.655
676.55	18.479
676.74	21.028
676.92	20.206
677.11	20.444
677.29	18.177
677.48	20.463
677.66	20.783
677.85	20.422
678.03	18.615
678.22	20.443
678.40	21.088
678.59	19.403
678.78	18.076
678.96	19.762
679.15	18.266
679.33	22.236
679.52	20.717
679.70	20.667
679.89	20.651
680.07	20.803
680.26	19.753
680.44	21.399
680.63	21.674
680.81	21.343
681.00	18.043
681.18	22.073
681.37	20.153
681.55	23.028
681.74	22.046
681.92	22.724
682.11	22.217
682.29	22.280
682.48	22.182
682.66	24.284
682.85	23.413
683.03	23.720
683.22	23.007
683.40	23.995
683.59	23.648
683.77	24.600
683.96	22.284
684.14	24.274
684.33	20.369
684.51	25.811
684.70	23.516
684.88	26.482
685.07	23.822
685.25	26.049
685.44	24.061
685.62	25.633
685.81	23.965
685.99	25.964
686.18	24.002
686.36	26.292
686.55	24.206
686.73	27.410
686.92	26.148
687.10	26.023
687.29	27.883
687.47	27.228
687.65	27.096
687.84	27.694
688.02	28.207
688.21	28.934
688.39	26.333
688.58	30.535
688.76	26.209
688.95	27.247
689.13	28.337
689.32	29.217
689.50	27.885
689.68	31.024
689.87	28.100
690.05	31.262
690.24	29.057
690.42	30.605
690.61	31.295
690.79	32.167
690.98	32.293
691.16	32.563
691.34	30.729
691.53	32.857
691.71	31.631
691.90	32.308
692.08	30.282
692.27	32.538
692.45	33.206
692.63	31.572
692.82	34.399
693.00	33.179
693.19	32.146
693.37	33.971
693.56	30.881
693.74	34.946
693.92	33.197
694.11	34.406
694.29	31.875
694.48	36.032
694.66	36.050
694.84	36.547
695.03	32.979
695.21	35.631
695.40	34.810
695.58	35.997
695.76	34.822
695.95	37.046
696.13	33.870
696.32	37.123
696.50	38.026
696.68	36.156
696.87	35.759
697.05	37.358
697.24	36.314
697.42	37.288
697.60	35.994
697.79	37.012
697.97	36.952
698.16	36.912
698.34	36.732
698.52	35.479
698.71	36.768
698.89	36.522
699.07	37.659
699.26	38.004
699.44	36.013
699.63	36.157
699.81	36.170
699.99	37.236
700.18	36.562
700.36	37.497
700.54	37.857
700.73	38.736
700.91	37.116
701.09	38.758
701.28	38.565
701.46	39.824
701.64	38.871
701.83	38.992
702.01	39.377
702.20	39.730
702.38	39.723
702.56	38.904
702.75	37.838
702.93	40.148
703.11	40.061
703.30	42.468
703.48	40.657
703.66	40.959
703.85	37.444
704.03	41.295
704.21	40.357
704.40	42.969
704.58	38.589
704.76	41.091
704.95	39.234
705.13	39.449
705.31	39.559
705.50	42.869
705.68	36.676
705.86	41.525
706.04	40.008
706.23	40.880
706.41	40.454
706.59	40.489
706.78	40.705
706.96	40.642
707.14	41.543
707.33	41.081
707.51	39.409
707.69	40.559
707.88	39.615
708.06	41.386
708.24	41.257
708.42	42.264
708.61	41.650
708.79	40.874
708.97	41.978
709.16	40.996
709.34	41.961
709.52	41.835
709.71	41.037
709.89	41.513
710.07	38.486
710.25	41.211
710.44	42.572
710.62	41.528
710.80	42.023
710.98	41.031
711.17	42.641
711.35	43.135
711.53	41.720
711.72	40.589
711.90	42.055
712.08	41.178
712.26	39.191
712.45	41.295
712.63	40.349
712.81	42.548
712.99	40.208
713.18	41.284
713.36	40.924
713.54	41.783
713.72	41.159
713.91	43.079
714.09	38.971
714.27	41.759
714.45	39.477
714.64	42.161
714.82	38.563
715.00	42.078
715.18	40.848
715.37	40.451
715.55	41.007
715.73	42.467
715.91	39.611
716.10	42.212
716.28	38.456
716.46	39.733
716.64	38.299
716.83	40.681
717.01	41.200
717.19	40.247
717.37	38.380
717.55	39.488
717.74	40.753
717.92	39.101
718.10	37.964
718.28	38.447
718.47	38.760
718.65	42.442
718.83	41.907
719.01	41.883
719.19	37.281
719.38	39.387
719.56	38.804
719.74	39.099
719.92	37.668
720.10	38.562
720.29	40.414
720.47	40.941
720.65	40.779
720.83	40.539
721.01	36.427
721.20	40.705
721.38	38.977
721.56	41.669
721.74	40.511
721.92	41.692
722.11	39.755
722.29	41.446
722.47	40.719
722.65	43.328
722.83	43.646
723.01	42.531
723.20	41.239
723.38	40.300
723.56	40.541
723.74	42.305
723.92	40.685
724.10	41.296
724.29	39.964
724.47	40.769
724.65	39.361
724.83	42.853
725.01	38.854
725.19	42.781
725.38	40.778
725.56	42.676
725.74	42.046
725.92	45.136
726.10	41.037
726.28	41.974
726.46	42.093
726.65	42.872
726.83	39.196
727.01	41.989
727.19	38.562
727.37	43.416
727.55	40.332
727.73	41.304
727.92	41.997
728.10	39.713
728.28	36.466
728.46	41.984
728.64	40.223
728.82	43.653
729.00	40.390
729.19	41.366
729.37	39.675
729.55	42.927
729.73	40.009
729.91	40.339
730.09	38.259
730.27	40.846
730.45	40.262
730.63	42.945
730.82	38.204
731.00	41.401
731.18	38.877
731.36	43.029
731.54	40.758
731.72	41.556
731.90	41.552
732.08	41.778
732.26	38.991
732.45	42.825
732.63	42.136
732.81	41.200
732.99	43.806
733.17	44.980
733.35	39.515
733.53	42.857
733.71	42.051
733.89	44.200
734.07	41.397
734.25	44.372
734.44	42.083
734.62	43.993
734.80	38.794
734.98	44.759
735.16	41.839
735.34	41.215
735.52	40.630
735.70	44.608
735.88	43.058
736.06	42.857
736.24	43.245
736.42	44.941
736.60	43.267
736.78	44.912
736.97	43.706
737.15	43.489
737.33	42.407
737.51	44.516
737.69	41.101
737.87	43.211
738.05	43.864
738.23	43.945
738.41	43.596
738.59	43.576
738.77	44.943
738.95	43.753
739.13	41.767
739.31	44.475
739.49	47.047
739.67	46.016
739.85	43.328
740.03	45.220
740.21	43.697
740.39	46.799
740.57	43.129
740.75	43.754
740.93	43.627
741.11	43.867
741.30	40.803
741.48	44.974
741.66	44.680
741.84	45.610
742.02	42.417
742.20	44.957
742.38	41.419
742.56	45.839
742.74	43.219
742.92	43.291
743.10	41.812
743.28	46.179
743.46	45.082
743.64	44.540
743.82	42.559
744.00	47.235
744.18	43.057
744.36	43.940
744.54	43.415
744.72	44.339
744.90	44.308
745.08	44.958
745.26	42.381
745.44	45.120
745.62	43.329
745.80	45.653
745.98	44.121
746.16	44.934
746.34	43.858
746.52	43.317
746.70	42.391
746.87	44.147
747.05	45.112
747.23	44.699
747.41	44.615
747.59	47.609
747.77	41.062
747.95	44.136
748.13	43.362
748.31	45.296
748.49	42.228
748.67	46.013
748.85	40.965
749.03	46.851
749.21	42.832
749.39	45.232
749.57	40.798
749.75	44.598
749.93	43.772
750.11	43.332
750.29	43.376
750.47	45.097
750.65	45.832
750.83	44.752
751.01	43.060
751.18	43.308
751.36	41.755
751.54	45.588
751.72	46.375
751.90	42.402
752.08	41.739
752.26	45.702
752.44	42.492
752.62	47.797
752.80	43.028
752.98	46.880
753.16	44.110
753.34	43.261
753.52	42.651
753.69	44.907
753.87	44.876
754.05	42.592
754.23	43.830
754.41	44.566
754.59	43.325
754.77	45.033
754.95	43.414
755.13	42.914
755.31	46.198
755.49	40.742
755.66	43.373
755.84	44.096
756.02	42.955
756.20	47.417
756.38	43.983
756.56	43.772
756.74	44.341
756.92	46.330
757.10	42.034
757.28	44.602
757.45	50.785
757.63	49.501
757.81	44.832
757.99	47.860
758.17	45.628
758.35	43.712
758.53	45.278
758.71	44.257
758.88	43.533
759.06	42.244
759.24	42.047
759.42	39.476
759.60	38.569
759.78	40.028
759.96	33.426
760.13	38.118
760.31	34.510
760.49	37.037
760.67	31.786
760.85	35.517
761.03	31.652
761.21	35.213
761.38	29.090
761.56	34.404
761.74	33.072
761.92	35.231
762.10	31.337
762.28	33.803
762.46	30.515
762.63	30.802
762.81	33.671
762.99	34.193
763.17	32.947
763.35	37.128
763.53	32.467
763.70	37.171
763.88	34.899
764.06	36.419
764.24	35.473
764.42	37.658
764.60	36.819
764.77	37.208
764.95	37.891
765.13	40.034
765.31	37.028
765.49	37.580
765.66	35.320
765.84	39.114
766.02	38.173
766.20	39.349
766.38	37.655
766.56	37.808
766.73	37.799
766.91	43.440
767.09	41.230
767.27	42.401
767.45	40.352
767.62	43.073
767.80	41.363
767.98	42.522
768.16	38.288
768.33	45.567
768.51	39.110
768.69	44.122
768.87	41.511
769.05	44.330
769.22	44.632
769.40	45.517
769.58	43.136
769.76	46.502
769.94	43.345
770.11	44.601
770.29	43.489
770.47	45.030
770.65	41.645
770.82	47.314
771.00	44.233
771.18	44.624
771.36	40.913
771.53	44.969
771.71	44.080
771.89	49.507
772.07	42.154
772.25	45.666
772.42	41.674
772.60	44.853
772.78	41.683
772.96	45.349
773.13	43.476
773.31	47.021
773.49	42.100
773.67	45.331
773.84	42.704
774.02	46.720
774.20	41.021
774.37	46.694
774.55	43.403
774.73	46.690
774.91	46.321
775.08	48.852
775.26	45.344
775.44	47.433
775.62	45.628
775.79	45.690
775.97	42.385
776.15	44.958
776.32	39.536
776.50	47.624
776.68	42.192
776.86	48.352
777.03	41.289
777.21	48.504
777.39	42.271
777.56	45.475
777.74	43.333
777.92	43.883
778.10	41.154
778.27	47.414
778.45	47.791
778.63	41.732
778.80	42.742
778.98	48.949
779.16	45.273
779.34	43.858
779.51	41.212
779.69	42.013
779.87	45.515
780.04	46.884
780.22	40.154
780.40	45.470
780.57	40.631
780.75	41.526
780.93	43.205
781.10	44.734
781.28	51.229
781.46	46.391
781.63	45.133
781.81	49.153
781.99	42.204
782.16	43.717
782.34	38.680
782.52	47.804
782.69	46.225
782.87	49.143
783.05	42.426
783.22	42.464
783.40	46.505
783.58	49.875
783.75	39.795
783.93	46.485
784.11	44.145
784.28	49.312
784.46	40.923
784.64	49.687
784.81	40.781
784.99	49.217
785.17	44.041
785.34	40.757
785.52	42.180
785.69	43.671
785.87	36.106
786.05	46.735
786.22	43.861
786.40	53.302
786.58	45.600
786.75	45.709
786.93	45.295
787.11	44.040
787.28	43.431
787.46	46.533
787.63	40.126
787.81	43.757
787.99	40.950
788.16	38.991
788.34	41.276
788.51	40.504
788.69	43.301
788.87	38.067
789.04	41.850
789.22	43.968
789.39	39.517
789.57	37.809
789.75	39.033
789.92	42.842
790.10	38.659
790.27	43.787
790.45	40.526
790.63	46.210
790.80	39.038
790.98	43.309
791.15	42.521
791.33	41.311
791.51	38.372
791.68	41.112
791.86	41.016
792.03	43.774
792.21	32.922
792.39	43.583
792.56	42.374
792.74	43.068
792.91	46.482
793.09	41.184
793.26	36.446
793.44	44.351
793.62	36.644
793.79	45.800
793.97	41.136
794.14	42.620
794.32	45.098
794.49	40.571
794.67	38.072
794.84	36.265
795.02	38.493
795.20	44.751
795.37	37.845
795.55	39.402
795.72	37.092
795.90	42.906
796.07	42.541
796.25	41.960
796.42	41.294
796.60	42.517
796.77	39.671
796.95	44.601
797.13	39.605
797.30	46.578
797.48	41.618
797.65	41.614
797.83	37.485
798.00	36.131
798.18	33.632
798.35	44.523
798.53	39.266
798.70	37.215
798.88	37.608
799.05	44.663
799.23	42.829
799.40	40.421
799.58	39.885
799.75	44.334
799.93	42.099
800.10	48.654
800.28	32.994
800.45	39.959
800.63	42.820
800.80	46.089
800.98	40.583
801.15	37.108
801.33	37.147
801.50	39.319
801.68	37.770
801.85	37.917
802.03	33.660
802.20	42.594
802.38	40.193
802.55	40.071
802.73	35.004
802.90	41.898
803.08	34.591
803.25	46.483
803.43	39.348
803.60	41.843
803.78	45.633
803.95	40.260
804.13	38.226
804.30	41.893
804.48	35.613
804.65	42.136
804.83	38.967
805.00	42.468
805.17	45.658
805.35	43.918
805.52	39.114
805.70	38.127
805.87	41.749
806.05	42.726
806.22	40.087
806.40	35.872
806.57	32.468
806.75	43.664
806.92	44.009
807.09	38.210
807.27	37.460
807.44	36.091
807.62	37.072
807.79	37.446
807.97	38.719
808.14	46.068
808.31	39.663
808.49	43.650
808.66	32.178
808.84	44.794
809.01	45.948
809.19	38.382
809.36	46.334
809.53	32.918
809.71	39.522
809.88	37.636
810.06	38.245
810.23	40.508
810.41	41.839
810.58	42.235
810.75	40.386
810.93	40.936
811.10	48.631
811.28	38.032
811.45	38.989
811.62	42.110
811.80	37.140
811.97	39.183
812.15	42.061
812.32	32.907
812.49	41.492
812.67	35.249
812.84	42.067
813.02	44.454
813.19	38.268
813.36	37.305
813.54	28.839
813.71	39.474
813.89	40.424
814.06	38.889
814.23	36.470
814.41	43.083
814.58	41.015
814.75	43.148
814.93	29.990
815.10	33.709
815.28	29.630
815.45	33.072
815.62	36.486
815.80	31.359
815.97	31.569
816.14	39.738
816.32	31.656
816.49	30.906
816.66	37.639
816.84	38.270
817.01	33.396
817.18	36.435
817.36	36.597
817.53	40.504
817.71	26.339
817.88	37.603
818.05	31.339
818.23	39.203
818.40	34.194
818.57	34.029
818.75	36.761
818.92	32.074
819.09	30.718
819.27	35.536
819.44	36.786
819.61	35.877
819.79	30.960
819.96	40.942
820.13	30.747
820.31	36.256
820.48	39.127
820.65	31.282
820.82	32.934
821.00	33.198
821.17	28.929
821.34	31.861
821.52	33.179
821.69	31.315
821.86	32.598
822.04	33.522
822.21	36.173
822.38	34.662
822.56	33.422
822.73	37.956
822.90	34.999
823.07	37.058
823.25	36.483
823.42	36.212
823.59	36.057
823.77	37.706
823.94	36.175
824.11	37.857
824.29	36.435
824.46	37.378
824.63	37.979
824.80	37.116
824.98	37.364
825.15	34.939
825.32	35.844
825.49	35.867
825.67	33.733
825.84	36.052
826.01	32.188
826.19	37.275
826.36	32.671
826.53	37.877
826.70	35.187
826.88	35.045
827.05	33.468
827.22	35.653
827.39	32.686
827.57	33.133
827.74	31.766
827.91	34.896
828.08	32.172
828.26	33.802
828.43	31.290
828.60	36.077
828.77	31.433
828.95	35.239
829.12	29.517
829.29	28.716
829.46	30.810
829.64	31.228
829.81	30.529
829.98	33.081
830.15	34.128
830.32	34.584
830.50	29.861
830.67	38.339
830.84	27.817
831.01	23.785
831.19	27.249
831.36	32.158
831.53	28.093
831.70	40.265
831.87	30.312
832.05	34.296
832.22	30.906
832.39	36.672
832.56	30.944
832.74	24.561
832.91	26.793
833.08	30.391
833.25	27.438
833.42	31.198
833.60	28.810
833.77	23.365
833.94	24.825
834.11	29.220
834.28	27.846
834.45	30.844
834.63	28.855
834.80	29.515
834.97	25.989
835.14	29.110
835.31	29.155
835.49	29.939
835.66	30.605
835.83	32.871
836.00	27.990
836.17	28.148
836.34	31.280
836.52	31.913
836.69	35.333
836.86	32.051
837.03	27.930
837.20	31.522
837.37	28.333
837.55	24.276
837.72	30.885
837.89	36.426
838.06	39.716
838.23	43.033
838.40	36.128
838.58	33.537
838.75	36.241
838.92	37.401
839.09	46.579
839.26	38.657
839.43	44.656
839.60	50.636
839.78	48.493
839.95	38.389
840.12	38.397
840.29	45.312
840.46	35.633
840.63	39.501
840.80	34.468
840.98	40.914
841.15	35.313
841.32	39.148
841.49	34.410
841.66	33.876
841.83	30.279
842.00	41.417
842.17	46.568
842.34	40.258
842.52	40.000
842.69	32.677
842.86	43.717
843.03	57.433
843.20	46.748
843.37	49.921
843.54	49.321
843.71	51.739
843.88	54.120
844.06	57.321
844.23	41.964
844.40	54.434
844.57	46.500
844.74	44.096
844.91	41.314
845.08	51.499
845.25	54.280
845.42	53.728
845.59	51.667
845.76	47.969
845.94	55.314
846.11	52.766
846.28	63.859
846.45	59.557
846.62	64.804
846.79	47.431
846.96	35.628
847.13	62.452
847.30	54.274
847.47	44.208
847.64	58.650
847.81	73.638
847.98	64.909
848.15	54.569
848.32	67.048
848.50	70.755
848.67	61.605
848.84	61.314
849.01	58.838
849.18	78.182
849.35	68.281
849.52	72.301
849.69	57.778
849.86	75.545
850.03	59.588
850.20	77.533
850.37	63.793
850.54	50.244
850.71	69.492
850.88	45.428
851.05	60.766
851.22	81.188
851.39	64.147
851.56	58.663
851.73	85.795
851.90	45.875
852.07	68.912
852.24	70.548
852.41	61.752
852.58	59.162
852.75	65.604
852.92	55.087
853.09	53.034
853.26	70.476
853.43	69.343
853.60	63.953
853.77	57.494
853.94	62.940
854.11	71.074
854.28	68.798
854.45	50.429
854.62	67.339
854.79	80.110
854.96	72.120
855.13	77.218
855.30	51.598
855.47	80.488
855.64	47.352
855.81	52.550
855.98	63.889
856.15	66.406
856.32	70.034
856.49	61.538
856.66	54.808
856.83	65.937
857.00	34.973
857.17	63.172
857.34	71.011
857.51	67.204
857.68	65.325
857.85	77.937
858.02	64.055
858.19	51.923
858.36	64.368
858.53	56.287
858.70	58.290
858.87	82.407
859.04	50.833
859.21	65.130
859.38	77.938
859.55	76.289
859.72	103.591
859.89	60.335
860.05	58.477
860.22	68.910
860.39	71.037
860.56	73.252
860.73	56.941
860.90	54.232
861.07	66.761
861.24	61.337
861.41	65.684
861.58	53.186
861.75	59.434
861.92	72.222
862.09	73.834
862.26	69.617
862.43	63.594
862.59	76.344
862.76	50.000
862.93	84.595
863.10	57.971
863.27	63.390
863.44	50.711
863.61	76.687
863.78	70.270
863.95	67.801
864.12	37.471
864.29	65.014
864.45	51.562
864.62	64.987
864.79	65.039
864.96	66.102
865.13	50.000
865.30	68.395
865.47	47.639
865.64	72.368
865.81	47.185
865.97	38.486
866.14	71.579
866.31	60.937
866.48	80.494
866.65	43.307
866.82	74.707
866.99	56.716
867.16	57.341
867.33	94.984
867.49	62.041
867.66	42.078
867.83	54.717
868.00	59.012
868.17	49.747
868.34	83.883
868.51	52.878
868.67	58.944
868.84	66.138
869.01	70.323
869.18	49.169
869.35	49.194
869.52	51.811
869.69	58.166
869.85	53.886
870.02	63.087
870.19	79.553
870.36	60.000
870.53	47.183
870.70	66.391
870.86	58.788
871.03	66.033
871.20	74.863
871.37	105.696
871.54	48.851
871.71	46.929
871.87	65.312
872.04	52.446
872.21	51.149
872.38	71.131
872.55	78.873
872.72	29.428
872.88	58.809
873.05	50.000
873.22	47.234
873.39	73.529
873.56	80.290
873.72	65.707
873.89	65.584
874.06	47.801
874.23	55.894
874.40	47.239
874.56	70.659
874.73	77.330
874.90	58.568
875.07	56.566
875.24	62.025
875.40	41.553
875.57	51.404
875.74	62.254
875.91	55.474
876.08	62.985
876.24	88.618
876.41	69.122
876.58	69.643
876.75	81.408
876.92	81.046
877.08	67.920
877.25	51.015
877.42	71.633
877.59	50.742
877.75	81.792
877.92	60.372
878.09	51.436
878.26	85.379
878.42	51.765
878.59	66.313
878.76	49.377
878.93	69.492
879.09	48.831
879.26	35.870
879.43	68.018
879.60	60.000
879.76	49.105
879.93	56.180
880.10	58.130
880.27	39.771
880.43	43.642
880.60	40.922
880.77	29.062
880.94	33.121
881.10	28.607
881.27	31.766
881.44	26.004
881.61	30.782
881.77	35.950
881.94	29.205
882.11	24.136
882.28	18.795
882.44	23.073
882.61	24.822
882.78	27.512
882.94	34.290
883.11	27.413
883.28	29.519
883.45	25.379
883.61	27.027
883.78	25.308
883.95	26.352
884.11	28.611
884.28	28.585
>>>>>End Processed Spectral Data<<<<<
