SpectraSuite Data File
++++++++++++++++++++++++++++++++++++
Date: Fri Sep 20 04:05:42 EST 2019
User: sgrac
Dark Spectrum Present: Yes
Reference Spectrum Present: Yes
Number of Sampled Component Spectra: 1
Spectrometers: USB4E01596
Integration Time (usec): 100000 (USB4E01596)
Spectra Averaged: 1 (USB4E01596)
Boxcar Smoothing: 0 (USB4E01596)
Correct for Electrical Dark: No (USB4E01596)
Strobe/Lamp Enabled: Yes (USB4E01596)
Correct for Detector Non-linearity: No (USB4E01596)
Correct for Stray Light: No (USB4E01596)
Number of Pixels in Processed Spectrum: 3648
>>>>>Begin Processed Spectral Data<<<<<
178.44	595.652
178.66	595.652
178.87	595.652
179.09	-625.000
179.30	330.000
179.52	578.571
179.74	3100.000
179.95	-500.000
180.17	-981.250
180.38	-1300.000
180.60	-587.097
180.82	686.957
181.03	-3225.000
181.25	-1470.000
181.46	-1563.636
181.68	0.000
181.89	15700.000
182.11	1600.000
182.33	1400.000
182.54	-442.857
182.76	340.000
182.97	625.926
183.19	1966.667
183.40	-1025.000
183.62	1192.857
183.84	-310.000
184.05	0.000
184.27	16800.000
184.48	810.000
184.70	8850.000
184.91	1484.615
185.13	402.273
185.34	348.148
185.56	-752.381
185.78	836.842
185.99	-8450.000
186.21	514.286
186.42	1333.333
186.64	204.478
186.85	244.444
187.07	729.167
187.28	-372.973
187.50	-586.364
187.72	309.375
187.93	20200.000
188.15	827.273
188.36	348.077
188.58	794.118
188.79	8100.000
189.01	617.647
189.22	1475.000
189.44	423.404
189.65	-920.000
189.87	1471.429
190.09	497.222
190.30	-3680.000
190.52	470.732
190.73	588.889
190.95	-1138.462
191.16	-1100.000
191.38	-639.130
191.59	2111.111
191.81	425.000
192.02	427.500
192.24	315.873
192.45	497.143
192.67	854.545
192.88	0.000
193.10	550.000
193.31	-1260.000
193.53	372.727
193.74	494.737
193.96	1960.000
194.18	340.580
194.39	342.000
194.61	663.333
194.82	524.138
195.04	1475.000
195.25	351.064
195.47	1021.053
195.68	-1390.000
195.90	4325.000
196.11	4000.000
196.33	-588.889
196.54	720.690
196.76	326.667
196.97	927.778
197.19	-827.778
197.40	536.111
197.62	-1050.000
197.83	1086.667
198.05	534.211
198.26	690.909
198.48	1583.333
198.69	611.429
198.91	1685.714
199.12	387.500
199.34	307.692
199.55	-1118.182
199.77	900.000
199.98	2820.000
200.20	1309.091
200.41	557.576
200.63	-3200.000
200.84	500.000
201.06	-13900.000
201.27	1011.765
201.49	354.098
201.70	1223.529
201.91	1118.750
202.13	950.000
202.34	5075.000
202.56	2128.571
202.77	-2283.333
202.99	1026.667
203.20	738.095
203.42	-542.857
203.63	593.548
203.85	-545.833
204.06	4633.333
204.28	-4475.000
204.49	2114.286
204.71	306.250
204.92	1788.889
205.14	0.000
205.35	1146.667
205.56	585.714
205.78	456.410
205.99	416.216
206.21	631.034
206.42	2883.333
206.64	-397.561
206.85	1253.333
207.07	1223.077
207.28	610.000
207.50	-2225.000
207.71	437.209
207.93	9050.000
208.14	-313.514
208.35	551.724
208.57	-968.750
208.78	731.034
209.00	397.368
209.21	0.000
209.43	852.174
209.64	360.465
209.86	2000.000
210.07	1300.000
210.28	621.429
210.50	3460.000
210.71	397.436
210.93	465.789
211.14	345.902
211.36	500.000
211.57	2512.500
211.78	-736.364
212.00	611.538
212.21	-652.632
212.43	603.226
212.64	478.571
212.86	578.571
213.07	732.143
213.29	296.053
213.50	-358.824
213.71	-17000.000
213.93	-1722.222
214.14	666.667
214.36	-2614.286
214.57	229.070
214.78	474.286
215.00	-5600.000
215.21	-2766.667
215.43	-418.182
215.64	975.000
215.86	-3400.000
216.07	704.762
216.28	269.355
216.50	389.362
216.71	-3720.000
216.93	1342.857
217.14	500.000
217.35	313.158
217.57	-900.000
217.78	1490.909
218.00	377.273
218.21	231.148
218.42	365.306
218.64	513.333
218.85	315.517
219.07	398.000
219.28	704.762
219.49	-1754.545
219.71	480.952
219.92	2316.667
220.14	6133.333
220.35	4033.333
220.56	1133.333
220.78	284.127
220.99	2616.667
221.21	437.838
221.42	496.296
221.63	541.667
221.85	16800.000
222.06	458.621
222.28	690.000
222.49	15000.000
222.70	-4400.000
222.92	337.500
223.13	234.783
223.34	298.182
223.56	429.730
223.77	1168.750
223.99	255.128
224.20	189.189
224.41	390.698
224.63	438.235
224.84	668.000
225.05	379.167
225.27	329.630
225.48	269.620
225.69	304.545
225.91	245.455
226.12	293.548
226.34	249.275
226.55	235.938
226.76	231.343
226.98	185.088
227.19	533.333
227.40	164.762
227.62	127.027
227.83	187.368
228.04	274.074
228.26	152.778
228.47	169.792
228.69	103.297
228.90	93.820
229.11	62.069
229.33	68.443
229.54	74.694
229.75	58.175
229.97	55.068
230.18	65.217
230.39	47.941
230.61	63.043
230.82	105.556
231.03	56.658
231.25	66.570
231.46	67.937
231.67	72.973
231.89	103.309
232.10	78.244
232.31	84.186
232.53	102.317
232.74	91.393
232.95	87.437
233.17	102.381
233.38	94.907
233.59	107.647
233.81	98.673
234.02	66.010
234.23	83.333
234.45	140.397
234.66	79.703
234.87	107.558
235.09	86.222
235.30	87.097
235.51	82.328
235.73	82.292
235.94	69.892
236.15	86.194
236.36	73.418
236.58	83.264
236.79	92.664
237.00	72.691
237.22	84.052
237.43	86.296
237.64	87.727
237.86	95.588
238.07	79.283
238.28	78.704
238.50	81.405
238.71	74.113
238.92	57.353
239.13	82.143
239.35	64.055
239.56	60.731
239.77	95.257
239.99	77.734
240.20	71.223
240.41	61.755
240.63	56.308
240.84	67.610
241.05	46.439
241.26	66.279
241.48	63.476
241.69	45.824
241.90	45.275
242.12	47.082
242.33	49.810
242.54	45.325
242.75	36.036
242.97	54.986
243.18	39.499
243.39	31.525
243.61	44.200
243.82	55.218
244.03	42.651
244.24	46.344
244.46	47.952
244.67	53.333
244.88	48.958
245.09	41.350
245.31	42.219
245.52	42.517
245.73	55.161
245.95	75.468
246.16	49.648
246.37	47.819
246.58	46.390
246.80	42.483
247.01	41.597
247.22	36.565
247.43	42.105
247.65	45.119
247.86	43.722
248.07	34.931
248.28	45.273
248.50	48.353
248.71	43.808
248.92	53.106
249.13	48.351
249.35	55.496
249.56	47.964
249.77	52.385
249.98	48.211
250.20	58.516
250.41	58.426
250.62	55.761
250.83	41.248
251.05	49.474
251.26	34.066
251.47	54.972
251.68	38.520
251.90	48.433
252.11	51.560
252.32	40.311
252.53	52.174
252.75	27.128
252.96	45.558
253.17	39.838
253.38	33.373
253.59	44.628
253.81	38.584
254.02	37.722
254.23	36.181
254.44	37.992
254.66	38.343
254.87	41.214
255.08	47.293
255.29	51.885
255.50	39.744
255.72	47.094
255.93	52.239
256.14	51.277
256.35	53.935
256.57	43.015
256.78	44.921
256.99	34.515
257.20	47.010
257.41	43.238
257.63	36.571
257.84	41.198
258.05	46.411
258.26	43.803
258.47	36.068
258.69	42.857
258.90	24.724
259.11	40.637
259.32	36.656
259.53	32.122
259.75	28.130
259.96	32.845
260.17	30.339
260.38	40.781
260.59	40.469
260.81	42.204
261.02	41.355
261.23	44.272
261.44	43.901
261.65	54.939
261.87	45.644
262.08	51.974
262.29	47.253
262.50	47.665
262.71	34.304
262.92	51.782
263.14	41.880
263.35	40.576
263.56	39.825
263.77	39.641
263.98	42.349
264.20	43.211
264.41	26.866
264.62	30.798
264.83	26.905
265.04	44.000
265.25	29.639
265.47	48.144
265.68	37.437
265.89	31.234
266.10	25.222
266.31	49.510
266.52	32.468
266.74	29.115
266.95	33.261
267.16	36.028
267.37	30.745
267.58	37.321
267.79	35.818
268.01	35.975
268.22	30.108
268.43	37.201
268.64	37.657
268.85	37.532
269.06	30.866
269.27	42.749
269.49	36.700
269.70	36.260
269.91	36.422
270.12	35.451
270.33	34.612
270.54	39.449
270.75	25.046
270.97	36.455
271.18	32.211
271.39	33.472
271.60	37.003
271.81	37.185
272.02	34.061
272.23	35.204
272.45	31.657
272.66	35.386
272.87	35.163
273.08	37.328
273.29	42.709
273.50	39.605
273.71	34.954
273.92	36.230
274.14	36.898
274.35	41.275
274.56	37.903
274.77	40.573
274.98	37.427
275.19	37.235
275.40	28.215
275.61	35.687
275.83	40.331
276.04	38.159
276.25	36.675
276.46	42.806
276.67	47.191
276.88	43.132
277.09	33.692
277.30	47.247
277.51	33.533
277.73	35.051
277.94	28.619
278.15	36.278
278.36	38.311
278.57	34.114
278.78	32.748
278.99	35.827
279.20	33.666
279.41	43.603
279.62	29.397
279.84	33.935
280.05	31.267
280.26	31.679
280.47	33.830
280.68	33.421
280.89	28.288
281.10	39.198
281.31	32.500
281.52	35.259
281.73	23.359
281.94	28.325
282.16	31.587
282.37	37.527
282.58	24.309
282.79	41.280
283.00	41.029
283.21	30.919
283.42	32.385
283.63	39.346
283.84	30.040
284.05	34.087
284.26	30.315
284.47	34.592
284.68	34.980
284.89	34.157
285.11	32.361
285.32	31.712
285.53	32.451
285.74	39.604
285.95	34.483
286.16	36.438
286.37	30.979
286.58	35.952
286.79	32.579
287.00	34.363
287.21	33.519
287.42	37.456
287.63	31.076
287.84	36.976
288.05	33.845
288.26	33.387
288.48	37.409
288.69	35.926
288.90	31.723
289.11	41.369
289.32	34.020
289.53	36.030
289.74	27.134
289.95	28.177
290.16	33.717
290.37	29.452
290.58	23.120
290.79	28.054
291.00	29.550
291.21	34.353
291.42	26.779
291.63	33.004
291.84	32.465
292.05	26.138
292.26	26.693
292.47	30.265
292.68	24.669
292.89	31.118
293.10	29.547
293.31	33.168
293.52	22.527
293.73	27.774
293.94	25.989
294.15	26.805
294.36	27.554
294.57	30.259
294.79	26.526
295.00	21.007
295.21	31.536
295.42	31.415
295.63	30.915
295.84	24.873
296.05	23.838
296.26	26.550
296.47	27.917
296.68	27.167
296.89	29.530
297.10	34.739
297.31	25.630
297.52	25.961
297.73	27.402
297.94	29.932
298.15	27.897
298.36	33.227
298.57	26.774
298.78	36.134
298.99	26.752
299.20	31.639
299.41	28.613
299.62	32.898
299.83	26.710
300.04	32.327
300.25	31.587
300.46	31.253
300.67	30.965
300.88	29.790
301.09	19.806
301.30	31.618
301.50	21.778
301.71	34.191
301.92	31.923
302.13	23.592
302.34	22.501
302.55	24.022
302.76	22.532
302.97	25.211
303.18	21.850
303.39	17.161
303.60	21.471
303.81	30.697
304.02	20.244
304.23	25.693
304.44	17.391
304.65	24.024
304.86	27.691
305.07	23.708
305.28	23.927
305.49	28.014
305.70	23.815
305.91	22.854
306.12	22.069
306.33	22.361
306.54	23.726
306.75	27.388
306.96	32.537
307.17	21.615
307.38	21.643
307.58	22.271
307.79	24.495
308.00	25.782
308.21	20.696
308.42	27.155
308.63	18.606
308.84	24.026
309.05	19.079
309.26	19.763
309.47	24.266
309.68	22.685
309.89	23.589
310.10	22.222
310.31	23.654
310.52	22.381
310.73	30.461
310.94	23.081
311.14	22.522
311.35	23.175
311.56	23.545
311.77	23.853
311.98	20.072
312.19	27.331
312.40	20.395
312.61	24.869
312.82	24.634
313.03	24.889
313.24	26.645
313.45	27.113
313.66	22.276
313.86	27.976
314.07	23.613
314.28	27.916
314.49	22.551
314.70	26.440
314.91	27.781
315.12	25.473
315.33	25.042
315.54	20.808
315.75	17.735
315.96	18.859
316.16	13.863
316.37	26.155
316.58	20.718
316.79	24.413
317.00	25.155
317.21	20.706
317.42	22.048
317.63	25.186
317.84	21.458
318.05	23.304
318.25	21.316
318.46	20.678
318.67	20.239
318.88	24.838
319.09	25.189
319.30	20.240
319.51	19.748
319.72	22.022
319.93	21.399
320.13	19.967
320.34	22.854
320.55	21.095
320.76	23.373
320.97	19.247
321.18	27.389
321.39	18.595
321.60	17.636
321.80	26.370
322.01	20.415
322.22	20.025
322.43	17.990
322.64	16.656
322.85	21.053
323.06	24.252
323.27	22.494
323.47	18.541
323.68	19.351
323.89	20.023
324.10	19.843
324.31	19.635
324.52	21.823
324.73	23.659
324.93	18.495
325.14	22.679
325.35	22.012
325.56	20.289
325.77	21.900
325.98	21.801
326.19	23.406
326.39	15.366
326.60	19.716
326.81	20.373
327.02	14.813
327.23	19.809
327.44	25.172
327.64	14.407
327.85	18.968
328.06	26.594
328.27	30.464
328.48	28.881
328.69	17.780
328.90	21.417
329.10	16.965
329.31	22.640
329.52	18.534
329.73	25.366
329.94	20.327
330.15	23.320
330.35	21.188
330.56	20.734
330.77	19.837
330.98	20.692
331.19	19.644
331.39	16.800
331.60	17.894
331.81	18.586
332.02	24.007
332.23	21.534
332.44	16.515
332.64	22.350
332.85	20.705
333.06	21.405
333.27	14.584
333.48	21.361
333.68	20.530
333.89	19.622
334.10	19.195
334.31	24.109
334.52	18.238
334.72	19.092
334.93	17.870
335.14	20.921
335.35	20.733
335.56	22.837
335.76	13.690
335.97	24.465
336.18	15.023
336.39	24.115
336.60	20.302
336.80	18.570
337.01	18.722
337.22	18.729
337.43	21.700
337.64	23.453
337.84	20.673
338.05	20.927
338.26	23.890
338.47	20.760
338.68	16.153
338.88	21.883
339.09	18.588
339.30	21.392
339.51	20.132
339.71	23.814
339.92	16.500
340.13	21.816
340.34	16.286
340.55	20.499
340.75	17.751
340.96	13.124
341.17	18.744
341.38	15.741
341.58	19.529
341.79	16.651
342.00	14.401
342.21	19.070
342.41	14.837
342.62	20.202
342.83	18.642
343.04	15.395
343.24	17.906
343.45	20.728
343.66	19.085
343.87	18.563
344.07	15.653
344.28	20.491
344.49	22.202
344.70	21.749
344.90	16.360
345.11	19.064
345.32	15.887
345.53	18.170
345.73	17.961
345.94	22.116
346.15	22.877
346.36	19.225
346.56	19.644
346.77	22.277
346.98	18.053
347.19	22.208
347.39	19.466
347.60	19.942
347.81	21.892
348.02	18.936
348.22	14.635
348.43	19.589
348.64	11.888
348.84	16.833
349.05	17.093
349.26	22.198
349.47	14.509
349.67	17.324
349.88	17.378
350.09	16.954
350.30	19.637
350.50	19.252
350.71	19.725
350.92	18.036
351.12	17.576
351.33	18.319
351.54	17.941
351.74	18.303
351.95	14.825
352.16	17.804
352.37	18.283
352.57	16.773
352.78	15.502
352.99	16.891
353.19	16.948
353.40	17.064
353.61	20.514
353.82	20.399
354.02	17.997
354.23	19.029
354.44	22.546
354.64	15.773
354.85	19.279
355.06	18.533
355.26	14.921
355.47	19.833
355.68	21.092
355.88	20.242
356.09	16.963
356.30	17.948
356.51	18.384
356.71	19.934
356.92	15.766
357.13	20.129
357.33	23.379
357.54	22.055
357.75	14.026
357.95	22.600
358.16	18.887
358.37	22.396
358.57	18.364
358.78	23.295
358.99	18.686
359.19	20.364
359.40	22.826
359.61	21.629
359.81	25.472
360.02	25.506
360.23	17.831
360.43	19.279
360.64	18.889
360.85	21.635
361.05	15.941
361.26	21.942
361.47	18.469
361.67	22.615
361.88	17.177
362.09	23.215
362.29	18.593
362.50	19.765
362.70	18.883
362.91	23.568
363.12	20.348
363.32	21.067
363.53	22.437
363.74	23.651
363.94	19.365
364.15	24.144
364.36	21.006
364.56	20.621
364.77	20.896
364.98	26.336
365.18	20.475
365.39	23.310
365.59	19.288
365.80	21.808
366.01	20.534
366.21	20.271
366.42	20.125
366.63	23.107
366.83	19.102
367.04	16.984
367.24	21.065
367.45	19.332
367.66	16.846
367.86	21.287
368.07	18.573
368.28	19.615
368.48	19.480
368.69	18.638
368.89	19.686
369.10	21.633
369.31	19.353
369.51	19.962
369.72	22.269
369.92	23.937
370.13	15.701
370.34	21.293
370.54	10.751
370.75	19.879
370.95	16.347
371.16	22.215
371.37	18.932
371.57	18.706
371.78	19.223
371.98	22.206
372.19	20.711
372.40	22.992
372.60	20.073
372.81	23.100
373.01	16.546
373.22	19.257
373.43	22.200
373.63	21.448
373.84	20.281
374.04	21.104
374.25	18.817
374.46	22.404
374.66	20.031
374.87	21.376
375.07	16.969
375.28	19.227
375.48	19.759
375.69	21.520
375.90	17.736
376.10	17.152
376.31	17.959
376.51	18.823
376.72	18.160
376.92	20.621
377.13	21.053
377.34	23.007
377.54	19.857
377.75	22.836
377.95	19.142
378.16	22.670
378.36	22.358
378.57	22.334
378.77	19.946
378.98	23.396
379.19	22.113
379.39	20.712
379.60	20.998
379.80	22.280
380.01	21.261
380.21	21.918
380.42	21.666
380.62	22.178
380.83	22.659
381.04	21.639
381.24	20.998
381.45	21.243
381.65	18.419
381.86	22.205
382.06	22.332
382.27	20.896
382.47	19.434
382.68	21.927
382.88	18.620
383.09	21.237
383.29	19.718
383.50	23.559
383.71	19.814
383.91	22.016
384.12	20.170
384.32	23.073
384.53	20.702
384.73	21.161
384.94	20.186
385.14	21.811
385.35	21.819
385.55	22.845
385.76	20.311
385.96	23.524
386.17	22.567
386.37	22.816
386.58	20.785
386.78	24.070
386.99	20.964
387.19	25.681
387.40	21.979
387.60	26.236
387.81	22.185
388.01	24.578
388.22	24.954
388.42	25.949
388.63	24.656
388.83	26.858
389.04	22.159
389.24	25.169
389.45	24.160
389.65	24.093
389.86	23.073
390.06	25.320
390.27	23.291
390.47	25.771
390.68	23.270
390.88	27.139
391.09	25.921
391.29	26.814
391.50	24.530
391.70	27.145
391.91	25.657
392.11	27.438
392.32	28.506
392.52	27.093
392.73	26.799
392.93	28.305
393.14	27.821
393.34	29.885
393.55	28.849
393.75	29.946
393.95	28.673
394.16	29.390
394.36	30.519
394.57	28.238
394.77	28.932
394.98	30.008
395.18	29.606
395.39	29.849
395.59	28.615
395.80	29.717
396.00	29.011
396.21	31.570
396.41	29.617
396.61	32.676
396.82	30.369
397.02	33.547
397.23	30.588
397.43	33.030
397.64	30.575
397.84	32.610
398.05	30.020
398.25	31.611
398.45	29.951
398.66	32.510
398.86	31.349
399.07	33.233
399.27	30.776
399.48	32.814
399.68	30.673
399.89	32.253
400.09	31.276
400.29	32.394
400.50	32.441
400.70	34.035
400.91	33.138
401.11	33.700
401.32	33.837
401.52	34.232
401.72	32.117
401.93	33.893
402.13	33.512
402.34	32.921
402.54	32.184
402.75	34.768
402.95	31.752
403.15	33.333
403.36	32.187
403.56	33.651
403.77	32.701
403.97	33.277
404.17	33.493
404.38	34.665
404.58	32.519
404.79	34.061
404.99	35.310
405.19	34.351
405.40	32.897
405.60	33.712
405.81	32.570
406.01	33.554
406.21	35.265
406.42	34.211
406.62	34.651
406.83	33.112
407.03	35.659
407.23	34.556
407.44	34.583
407.64	34.351
407.85	34.615
408.05	33.573
408.25	33.705
408.46	35.598
408.66	34.105
408.87	35.583
409.07	34.331
409.27	34.540
409.48	34.434
409.68	33.743
409.88	34.285
410.09	34.921
410.29	33.982
410.50	33.419
410.70	32.346
410.90	34.482
411.11	32.853
411.31	32.726
411.51	33.839
411.72	33.389
411.92	34.396
412.12	33.117
412.33	32.922
412.53	32.954
412.74	34.510
412.94	34.473
413.14	33.804
413.35	33.449
413.55	33.992
413.75	33.947
413.96	33.448
414.16	33.113
414.36	32.613
414.57	34.081
414.77	32.093
414.97	33.313
415.18	34.029
415.38	32.115
415.58	33.359
415.79	32.583
415.99	31.601
416.19	32.383
416.40	32.773
416.60	31.663
416.80	31.475
417.01	31.782
417.21	30.681
417.41	32.400
417.62	30.935
417.82	32.179
418.02	31.040
418.23	32.103
418.43	30.793
418.63	30.257
418.84	30.849
419.04	31.368
419.24	31.086
419.45	30.451
419.65	31.235
419.85	30.798
420.06	30.573
420.26	31.153
420.46	30.812
420.67	30.096
420.87	30.132
421.07	29.922
421.28	30.940
421.48	30.103
421.68	30.682
421.88	29.787
422.09	30.894
422.29	30.826
422.49	31.102
422.70	30.193
422.90	31.437
423.10	30.938
423.31	30.414
423.51	30.702
423.71	31.033
423.91	30.901
424.12	30.673
424.32	29.921
424.52	30.184
424.73	29.980
424.93	30.406
425.13	29.617
425.33	29.697
425.54	30.368
425.74	30.019
425.94	31.520
426.15	31.343
426.35	31.077
426.55	30.841
426.75	31.170
426.96	31.309
427.16	31.358
427.36	32.057
427.57	32.055
427.77	31.079
427.97	31.566
428.17	31.831
428.38	32.080
428.58	30.537
428.78	32.624
428.98	32.385
429.19	31.215
429.39	30.163
429.59	30.687
429.79	30.643
430.00	31.781
430.20	31.175
430.40	32.705
430.60	31.224
430.81	31.188
431.01	31.895
431.21	30.841
431.41	29.821
431.62	31.385
431.82	31.009
432.02	30.384
432.22	31.061
432.43	30.714
432.63	31.596
432.83	29.568
433.03	29.715
433.24	30.344
433.44	31.038
433.64	30.166
433.84	29.600
434.05	30.122
434.25	29.971
434.45	32.052
434.65	31.013
434.85	31.550
435.06	31.427
435.26	32.200
435.46	31.635
435.66	32.484
435.87	31.555
436.07	32.031
436.27	31.663
436.47	31.803
436.67	32.364
436.88	31.989
437.08	31.613
437.28	31.104
437.48	30.528
437.69	31.731
437.89	31.035
438.09	30.548
438.29	31.403
438.49	30.712
438.70	30.784
438.90	30.594
439.10	30.927
439.30	30.908
439.50	29.804
439.71	31.677
439.91	31.503
440.11	30.792
440.31	30.314
440.51	30.696
440.72	31.104
440.92	30.449
441.12	31.539
441.32	31.067
441.52	31.461
441.72	31.820
441.93	32.241
442.13	31.836
442.33	31.707
442.53	32.155
442.73	31.291
442.94	32.099
443.14	32.341
443.34	32.503
443.54	31.711
443.74	32.865
443.94	32.373
444.15	32.202
444.35	32.022
444.55	31.861
444.75	31.794
444.95	31.459
445.15	30.718
445.36	31.502
445.56	31.200
445.76	31.434
445.96	31.717
446.16	30.451
446.36	30.128
446.57	30.433
446.77	30.479
446.97	30.604
447.17	31.228
447.37	31.236
447.57	31.915
447.77	31.538
447.98	31.679
448.18	31.762
448.38	32.514
448.58	32.433
448.78	32.655
448.98	32.450
449.18	33.546
449.39	32.854
449.59	32.426
449.79	32.339
449.99	33.953
450.19	33.061
450.39	33.285
450.59	32.652
450.79	32.312
451.00	33.292
451.20	35.591
451.40	33.128
451.60	33.306
451.80	32.482
452.00	32.804
452.20	32.069
452.40	32.690
452.61	31.956
452.81	32.946
453.01	31.726
453.21	32.195
453.41	31.805
453.61	32.247
453.81	32.411
454.01	32.858
454.21	33.202
454.42	32.296
454.62	32.489
454.82	33.125
455.02	32.505
455.22	33.341
455.42	32.655
455.62	33.050
455.82	32.584
456.02	33.808
456.23	32.472
456.43	34.096
456.63	33.051
456.83	32.636
457.03	31.436
457.23	32.315
457.43	33.346
457.63	32.630
457.83	33.088
458.03	32.994
458.23	31.672
458.43	32.509
458.64	31.300
458.84	31.533
459.04	31.753
459.24	31.555
459.44	31.113
459.64	30.361
459.84	30.528
460.04	30.963
460.24	30.413
460.44	31.344
460.64	31.933
460.84	31.979
461.04	31.689
461.24	32.265
461.45	32.262
461.65	32.168
461.85	32.496
462.05	33.937
462.25	33.342
462.45	34.225
462.65	33.198
462.85	33.533
463.05	32.779
463.25	33.531
463.45	32.735
463.65	32.529
463.85	31.841
464.05	33.006
464.25	31.545
464.45	33.190
464.65	32.440
464.85	32.275
465.05	31.603
465.26	33.289
465.46	32.512
465.66	33.599
465.86	33.556
466.06	31.817
466.26	32.497
466.46	32.733
466.66	31.580
466.86	32.663
467.06	32.295
467.26	33.436
467.46	32.542
467.66	32.844
467.86	32.883
468.06	32.628
468.26	32.732
468.46	32.529
468.66	32.737
468.86	32.336
469.06	33.980
469.26	32.521
469.46	32.618
469.66	32.636
469.86	32.456
470.06	32.470
470.26	33.352
470.46	32.874
470.66	33.052
470.86	33.372
471.06	33.093
471.26	33.750
471.46	32.385
471.66	33.274
471.86	32.842
472.06	34.041
472.26	33.617
472.46	32.189
472.66	33.848
472.86	33.148
473.06	31.688
473.26	33.705
473.46	33.258
473.66	33.854
473.86	32.254
474.06	33.326
474.26	33.322
474.46	32.895
474.66	32.985
474.86	33.013
475.06	33.289
475.26	32.730
475.46	32.860
475.66	33.175
475.86	33.723
476.06	32.464
476.26	33.789
476.46	32.230
476.66	33.702
476.86	32.926
477.06	32.722
477.26	33.771
477.46	33.532
477.65	33.700
477.85	32.806
478.05	32.448
478.25	32.528
478.45	33.216
478.65	33.753
478.85	33.499
479.05	33.183
479.25	34.551
479.45	33.876
479.65	33.912
479.85	33.216
480.05	32.840
480.25	33.875
480.45	33.030
480.65	34.074
480.85	33.569
481.05	32.835
481.25	32.648
481.44	32.871
481.64	32.220
481.84	32.969
482.04	31.864
482.24	32.921
482.44	32.431
482.64	31.614
482.84	31.917
483.04	31.799
483.24	31.080
483.44	30.147
483.64	29.946
483.84	30.326
484.04	31.091
484.23	31.972
484.43	33.206
484.63	35.367
484.83	36.612
485.03	38.333
485.23	38.323
485.43	38.568
485.63	38.011
485.83	36.345
486.03	35.202
486.23	35.907
486.42	35.526
486.62	35.065
486.82	34.267
487.02	33.299
487.22	32.590
487.42	32.656
487.62	32.542
487.82	32.283
488.02	32.641
488.22	32.699
488.41	33.005
488.61	33.330
488.81	33.571
489.01	34.120
489.21	34.117
489.41	34.715
489.61	35.330
489.81	35.045
490.01	35.067
490.20	35.297
490.40	34.881
490.60	34.863
490.80	34.768
491.00	33.407
491.20	33.275
491.40	31.710
491.60	31.441
491.79	31.870
491.99	33.021
492.19	32.477
492.39	32.252
492.59	32.897
492.79	32.891
492.99	33.373
493.19	33.944
493.38	34.901
493.58	35.452
493.78	35.480
493.98	35.916
494.18	35.145
494.38	35.029
494.58	34.900
494.77	34.930
494.97	34.985
495.17	34.611
495.37	33.364
495.57	33.530
495.77	34.221
495.96	33.952
496.16	33.607
496.36	33.631
496.56	32.404
496.76	32.660
496.96	33.320
497.15	33.004
497.35	33.705
497.55	33.382
497.75	33.668
497.95	33.311
498.15	34.205
498.34	33.881
498.54	34.304
498.74	34.762
498.94	34.480
499.14	34.332
499.34	34.333
499.53	34.741
499.73	34.212
499.93	34.599
500.13	34.207
500.33	34.818
500.52	34.663
500.72	34.183
500.92	33.653
501.12	34.590
501.32	35.047
501.52	35.105
501.71	34.308
501.91	34.947
502.11	35.571
502.31	35.206
502.51	34.436
502.70	34.662
502.90	34.559
503.10	34.696
503.30	34.832
503.50	34.706
503.69	33.938
503.89	35.226
504.09	34.654
504.29	35.223
504.48	34.203
504.68	35.056
504.88	34.489
505.08	34.861
505.28	34.465
505.47	35.388
505.67	34.029
505.87	35.294
506.07	35.999
506.27	36.453
506.46	35.935
506.66	35.284
506.86	36.122
507.06	35.671
507.25	35.709
507.45	35.937
507.65	35.604
507.85	35.215
508.04	35.314
508.24	35.052
508.44	35.721
508.64	35.678
508.83	35.734
509.03	35.255
509.23	35.006
509.43	35.177
509.63	35.764
509.82	35.445
510.02	34.734
510.22	36.135
510.42	35.584
510.61	35.850
510.81	35.393
511.01	37.011
511.21	36.069
511.40	36.548
511.60	36.319
511.80	36.475
511.99	35.713
512.19	36.656
512.39	36.459
512.59	36.642
512.78	37.170
512.98	37.460
513.18	37.040
513.38	37.126
513.57	37.368
513.77	37.409
513.97	37.444
514.17	37.623
514.36	36.619
514.56	37.203
514.76	38.104
514.95	38.262
515.15	37.573
515.35	37.402
515.55	36.797
515.74	37.923
515.94	37.521
516.14	37.040
516.33	37.453
516.53	37.889
516.73	36.487
516.93	36.827
517.12	37.161
517.32	37.606
517.52	36.311
517.71	36.793
517.91	37.106
518.11	36.646
518.30	36.414
518.50	36.908
518.70	36.563
518.90	36.726
519.09	37.523
519.29	37.914
519.49	38.519
519.68	37.835
519.88	37.049
520.08	38.891
520.27	38.319
520.47	38.821
520.67	38.512
520.86	39.316
521.06	38.934
521.26	39.025
521.45	38.972
521.65	39.611
521.85	38.591
522.04	38.635
522.24	38.555
522.44	38.058
522.63	38.090
522.83	38.411
523.03	39.114
523.22	38.496
523.42	38.602
523.62	39.239
523.81	38.215
524.01	39.051
524.21	38.189
524.40	37.967
524.60	38.254
524.80	37.810
524.99	37.620
525.19	37.533
525.39	36.748
525.58	38.239
525.78	37.724
525.98	38.018
526.17	38.018
526.37	37.684
526.57	37.886
526.76	38.020
526.96	38.225
527.15	37.685
527.35	38.657
527.55	38.348
527.74	38.480
527.94	37.659
528.14	36.698
528.33	36.089
528.53	36.483
528.72	36.926
528.92	37.819
529.12	38.102
529.31	37.973
529.51	38.867
529.71	39.013
529.90	39.554
530.10	40.538
530.29	40.393
530.49	41.392
530.69	41.498
530.88	41.719
531.08	41.042
531.28	40.754
531.47	40.053
531.67	39.682
531.86	39.930
532.06	39.711
532.26	39.086
532.45	39.418
532.65	38.751
532.84	37.825
533.04	37.576
533.24	37.064
533.43	37.879
533.63	37.599
533.82	38.916
534.02	38.386
534.22	39.075
534.41	39.052
534.61	39.393
534.80	39.826
535.00	40.272
535.19	40.913
535.39	42.048
535.59	40.701
535.78	40.279
535.98	39.618
536.17	39.664
536.37	39.419
536.57	39.636
536.76	38.899
536.96	39.292
537.15	38.737
537.35	39.391
537.54	39.397
537.74	39.579
537.93	39.346
538.13	40.471
538.33	40.161
538.52	40.198
538.72	41.223
538.91	41.885
539.11	41.130
539.30	41.144
539.50	40.611
539.70	40.684
539.89	39.949
540.09	39.888
540.28	40.006
540.48	39.220
540.67	38.894
540.87	37.598
541.06	37.068
541.26	37.688
541.45	38.107
541.65	38.847
541.85	39.089
542.04	39.285
542.24	39.709
542.43	40.304
542.63	40.297
542.82	41.110
543.02	41.066
543.21	41.396
543.41	41.502
543.60	41.857
543.80	41.877
543.99	42.242
544.19	40.993
544.38	41.212
544.58	40.004
544.77	41.317
544.97	41.745
545.16	40.886
545.36	41.190
545.56	40.645
545.75	41.175
545.95	41.553
546.14	40.801
546.34	40.868
546.53	41.059
546.73	40.650
546.92	41.396
547.12	41.465
547.31	41.503
547.51	41.223
547.70	41.457
547.90	41.553
548.09	41.500
548.29	40.961
548.48	42.622
548.68	42.314
548.87	42.543
549.07	43.484
549.26	43.079
549.46	42.609
549.65	41.999
549.84	43.114
550.04	42.975
550.23	42.195
550.43	42.246
550.62	41.819
550.82	42.625
551.01	42.310
551.21	42.316
551.40	41.533
551.60	41.397
551.79	42.372
551.99	42.513
552.18	42.038
552.38	43.371
552.57	42.307
552.77	42.259
552.96	42.444
553.16	41.582
553.35	42.132
553.54	41.812
553.74	42.348
553.93	42.819
554.13	42.697
554.32	43.133
554.52	44.007
554.71	44.475
554.91	43.504
555.10	44.012
555.29	43.985
555.49	44.286
555.68	44.019
555.88	43.919
556.07	44.024
556.27	43.864
556.46	43.203
556.66	43.968
556.85	44.467
557.04	43.051
557.24	44.226
557.43	42.508
557.63	43.496
557.82	43.089
558.02	44.943
558.21	44.675
558.40	44.018
558.60	44.087
558.79	44.151
558.99	44.377
559.18	44.103
559.38	44.786
559.57	44.563
559.76	43.946
559.96	45.615
560.15	44.307
560.35	44.839
560.54	43.928
560.73	44.292
560.93	44.018
561.12	44.577
561.32	45.104
561.51	45.469
561.70	44.350
561.90	44.882
562.09	44.409
562.29	43.807
562.48	44.691
562.67	44.838
562.87	44.919
563.06	45.486
563.26	44.801
563.45	44.858
563.64	44.071
563.84	45.857
564.03	45.813
564.23	44.248
564.42	45.369
564.61	44.453
564.81	45.261
565.00	45.626
565.20	45.099
565.39	45.560
565.58	44.606
565.78	43.994
565.97	45.607
566.16	44.842
566.36	44.756
566.55	45.415
566.74	45.665
566.94	44.538
567.13	45.208
567.33	45.283
567.52	45.401
567.71	46.936
567.91	46.336
568.10	45.628
568.29	44.971
568.49	45.956
568.68	45.773
568.87	46.817
569.07	46.497
569.26	46.185
569.45	45.734
569.65	45.062
569.84	45.557
570.04	45.828
570.23	45.442
570.42	45.040
570.62	45.716
570.81	45.166
571.00	46.313
571.20	46.551
571.39	45.319
571.58	45.234
571.78	45.345
571.97	44.333
572.16	45.457
572.36	44.932
572.55	45.940
572.74	46.455
572.94	45.928
573.13	45.713
573.32	46.676
573.51	46.212
573.71	46.128
573.90	46.486
574.09	46.604
574.29	46.315
574.48	46.743
574.67	46.103
574.87	46.693
575.06	45.816
575.25	46.058
575.45	47.387
575.64	45.694
575.83	46.530
576.03	47.328
576.22	46.402
576.41	45.559
576.60	46.097
576.80	47.607
576.99	47.279
577.18	46.781
577.38	46.266
577.57	46.769
577.76	47.021
577.95	46.125
578.15	46.956
578.34	46.109
578.53	47.005
578.73	46.989
578.92	46.529
579.11	47.197
579.30	47.361
579.50	46.649
579.69	47.384
579.88	45.671
580.08	46.903
580.27	46.810
580.46	48.412
580.65	45.558
580.85	47.126
581.04	47.205
581.23	46.995
581.42	46.543
581.62	47.713
581.81	47.262
582.00	47.993
582.19	45.208
582.39	46.356
582.58	48.113
582.77	46.358
582.96	47.870
583.16	46.662
583.35	47.165
583.54	47.342
583.73	48.447
583.93	47.300
584.12	47.019
584.31	47.436
584.50	47.369
584.70	47.364
584.89	46.494
585.08	46.891
585.27	47.711
585.47	46.826
585.66	47.519
585.85	47.564
586.04	48.534
586.24	47.734
586.43	46.611
586.62	48.455
586.81	47.027
587.00	46.912
587.20	47.027
587.39	46.920
587.58	47.270
587.77	46.878
587.97	46.724
588.16	48.767
588.35	46.963
588.54	46.522
588.73	45.540
588.93	47.606
589.12	47.341
589.31	47.811
589.50	46.339
589.69	48.285
589.89	46.855
590.08	48.039
590.27	47.354
590.46	46.711
590.65	46.486
590.85	48.271
591.04	47.407
591.23	48.014
591.42	46.827
591.61	46.800
591.81	47.404
592.00	47.204
592.19	47.463
592.38	47.608
592.57	48.173
592.77	47.467
592.96	47.662
593.15	49.032
593.34	48.057
593.53	47.773
593.72	46.285
593.92	46.446
594.11	46.590
594.30	47.792
594.49	47.077
594.68	48.456
594.87	47.673
595.07	47.582
595.26	48.645
595.45	48.090
595.64	47.971
595.83	48.570
596.02	48.390
596.22	48.904
596.41	48.438
596.60	47.918
596.79	46.513
596.98	46.772
597.17	46.246
597.37	48.224
597.56	48.520
597.75	49.189
597.94	47.921
598.13	47.918
598.32	48.108
598.51	49.157
598.71	49.776
598.90	49.335
599.09	49.138
599.28	49.495
599.47	49.823
599.66	49.093
599.85	49.543
600.05	49.664
600.24	50.251
600.43	51.223
600.62	49.436
600.81	49.127
601.00	50.715
601.19	50.130
601.38	50.577
601.58	49.208
601.77	50.741
601.96	48.139
602.15	49.140
602.34	49.355
602.53	49.771
602.72	50.660
602.91	49.189
603.10	49.903
603.30	48.847
603.49	48.641
603.68	48.239
603.87	49.741
604.06	48.670
604.25	48.633
604.44	49.168
604.63	50.233
604.82	49.860
605.01	48.765
605.21	50.215
605.40	50.156
605.59	50.142
605.78	49.225
605.97	48.992
606.16	50.488
606.35	50.508
606.54	51.333
606.73	51.571
606.92	51.975
607.11	50.474
607.30	51.632
607.50	52.285
607.69	51.957
607.88	50.416
608.07	50.788
608.26	50.835
608.45	50.982
608.64	49.503
608.83	49.926
609.02	48.612
609.21	49.353
609.40	48.830
609.59	49.644
609.78	50.289
609.97	49.331
610.16	49.193
610.35	50.255
610.55	49.844
610.74	50.316
610.93	49.097
611.12	52.287
611.31	49.950
611.50	51.681
611.69	50.606
611.88	50.722
612.07	50.665
612.26	50.334
612.45	50.506
612.64	48.587
612.83	51.012
613.02	51.819
613.21	48.399
613.40	50.497
613.59	50.950
613.78	51.318
613.97	50.842
614.16	50.169
614.35	50.089
614.54	50.666
614.73	49.930
614.92	51.017
615.11	49.899
615.30	50.882
615.49	50.494
615.68	51.014
615.87	50.021
616.07	50.115
616.26	48.678
616.45	52.377
616.64	52.348
616.83	49.895
617.02	50.501
617.21	48.157
617.40	48.934
617.59	49.389
617.78	49.090
617.97	51.598
618.16	50.283
618.35	49.118
618.54	50.328
618.73	50.642
618.92	50.082
619.11	48.500
619.30	48.689
619.49	50.307
619.68	50.133
619.86	49.343
620.05	49.949
620.24	51.449
620.43	48.632
620.62	51.051
620.81	50.381
621.00	50.299
621.19	50.395
621.38	50.434
621.57	50.521
621.76	50.904
621.95	48.408
622.14	49.196
622.33	49.070
622.52	50.259
622.71	49.022
622.90	50.414
623.09	47.853
623.28	47.996
623.47	48.267
623.66	50.822
623.85	50.149
624.04	47.799
624.23	50.275
624.42	49.787
624.61	48.300
624.80	50.135
624.99	50.260
625.18	48.631
625.36	49.002
625.55	49.447
625.74	49.101
625.93	49.338
626.12	48.012
626.31	47.947
626.50	48.306
626.69	48.463
626.88	48.618
627.07	47.241
627.26	50.128
627.45	48.389
627.64	48.023
627.83	47.915
628.02	49.107
628.20	49.630
628.39	48.638
628.58	47.937
628.77	49.728
628.96	50.315
629.15	49.366
629.34	47.874
629.53	47.718
629.72	49.213
629.91	47.374
630.10	49.068
630.29	48.704
630.47	49.259
630.66	49.017
630.85	49.784
631.04	49.647
631.23	49.980
631.42	48.507
631.61	48.848
631.80	47.994
631.99	49.154
632.18	47.386
632.36	48.649
632.55	49.332
632.74	49.605
632.93	48.342
633.12	51.113
633.31	50.284
633.50	47.935
633.69	47.851
633.88	47.631
634.06	49.028
634.25	50.660
634.44	47.670
634.63	49.279
634.82	49.127
635.01	48.279
635.20	47.215
635.39	48.199
635.57	47.765
635.76	47.824
635.95	47.735
636.14	49.592
636.33	49.287
636.52	48.553
636.71	48.250
636.89	48.361
637.08	48.727
637.27	48.617
637.46	50.439
637.65	49.445
637.84	47.781
638.03	50.642
638.21	49.513
638.40	50.080
638.59	47.353
638.78	49.731
638.97	47.992
639.16	49.788
639.34	47.131
639.53	47.608
639.72	50.107
639.91	47.524
640.10	47.887
640.29	48.985
640.47	49.747
640.66	50.257
640.85	49.573
641.04	49.407
641.23	47.790
641.42	50.397
641.60	49.763
641.79	49.035
641.98	49.632
642.17	50.154
642.36	51.806
642.54	47.949
642.73	50.193
642.92	49.300
643.11	50.039
643.30	46.935
643.49	49.908
643.67	50.066
643.86	49.147
644.05	48.321
644.24	48.567
644.43	47.118
644.61	49.673
644.80	48.472
644.99	49.519
645.18	50.301
645.37	49.272
645.55	47.632
645.74	48.591
645.93	49.208
646.12	49.192
646.31	50.106
646.49	47.565
646.68	49.947
646.87	49.946
647.06	52.199
647.24	48.488
647.43	48.934
647.62	48.782
647.81	49.012
648.00	48.346
648.18	48.894
648.37	48.104
648.56	48.861
648.75	47.346
648.93	47.320
649.12	48.227
649.31	49.648
649.50	49.960
649.68	48.540
649.87	49.285
650.06	50.503
650.25	48.854
650.43	48.302
650.62	49.101
650.81	48.119
651.00	50.158
651.18	50.798
651.37	49.021
651.56	49.001
651.75	50.427
651.93	48.648
652.12	49.271
652.31	47.981
652.50	50.348
652.68	47.340
652.87	49.924
653.06	50.144
653.25	48.894
653.43	45.978
653.62	48.994
653.81	47.802
654.00	52.341
654.18	48.261
654.37	50.636
654.56	48.364
654.74	48.526
654.93	48.083
655.12	48.177
655.31	49.915
655.49	51.085
655.68	47.705
655.87	46.883
656.05	45.803
656.24	47.595
656.43	47.655
656.62	47.877
656.80	47.960
656.99	46.756
657.18	46.976
657.36	48.731
657.55	46.612
657.74	48.153
657.93	46.657
658.11	47.309
658.30	46.508
658.49	47.410
658.67	48.893
658.86	46.419
659.05	46.856
659.23	43.768
659.42	45.110
659.61	44.786
659.79	46.521
659.98	44.697
660.17	43.649
660.35	45.121
660.54	44.430
660.73	46.452
660.91	42.775
661.10	43.238
661.29	45.366
661.47	43.918
661.66	43.975
661.85	44.497
662.03	44.255
662.22	44.667
662.41	44.203
662.59	45.493
662.78	43.379
662.97	44.227
663.15	42.252
663.34	44.165
663.53	44.491
663.71	43.712
663.90	41.519
664.09	41.808
664.27	43.879
664.46	42.334
664.65	39.914
664.83	43.991
665.02	42.559
665.21	42.662
665.39	40.519
665.58	45.270
665.77	39.704
665.95	42.418
666.14	39.465
666.32	40.632
666.51	40.497
666.70	42.484
666.88	39.486
667.07	39.575
667.26	39.434
667.44	39.343
667.63	40.797
667.81	40.860
668.00	40.128
668.19	43.148
668.37	39.260
668.56	41.343
668.75	38.089
668.93	40.471
669.12	38.113
669.30	40.512
669.49	38.910
669.68	39.501
669.86	41.247
670.05	38.882
670.23	39.342
670.42	41.007
670.61	39.323
670.79	39.358
670.98	38.787
671.16	40.044
671.35	37.695
671.54	41.042
671.72	39.116
671.91	41.202
672.09	39.784
672.28	40.362
672.46	39.299
672.65	40.231
672.84	39.726
673.02	40.027
673.21	37.918
673.39	40.469
673.58	37.890
673.77	38.885
673.95	39.183
674.14	43.028
674.32	38.123
674.51	42.872
674.69	35.739
674.88	40.265
675.07	35.672
675.25	38.961
675.44	38.298
675.62	38.822
675.81	38.573
675.99	45.631
676.18	37.279
676.36	39.085
676.55	37.442
676.74	39.965
676.92	39.772
677.11	39.276
677.29	37.338
677.48	42.252
677.66	40.843
677.85	40.987
678.03	39.792
678.22	41.850
678.40	38.763
678.59	39.676
678.78	38.167
678.96	40.696
679.15	39.967
679.33	37.878
679.52	41.260
679.70	40.336
679.89	40.197
680.07	41.004
680.26	39.594
680.44	41.746
680.63	39.563
680.81	41.012
681.00	40.603
681.18	40.439
681.37	40.846
681.55	41.538
681.74	40.525
681.92	40.885
682.11	42.944
682.29	41.295
682.48	41.687
682.66	42.785
682.85	41.991
683.03	43.030
683.22	42.677
683.40	41.667
683.59	41.982
683.77	43.625
683.96	42.999
684.14	42.815
684.33	43.659
684.51	45.243
684.70	43.967
684.88	46.737
685.07	44.955
685.25	47.082
685.44	44.685
685.62	44.417
685.81	44.372
685.99	45.315
686.18	44.068
686.36	46.846
686.55	43.642
686.73	48.660
686.92	47.889
687.10	44.533
687.29	48.614
687.47	45.777
687.65	46.799
687.84	48.608
688.02	51.171
688.21	49.805
688.39	46.861
688.58	48.812
688.76	49.895
688.95	49.634
689.13	46.440
689.32	51.428
689.50	48.699
689.68	51.504
689.87	51.830
690.05	50.391
690.24	49.636
690.42	53.797
690.61	51.816
690.79	55.782
690.98	55.409
691.16	54.127
691.34	53.587
691.53	52.312
691.71	56.880
691.90	53.315
692.08	53.748
692.27	55.457
692.45	56.491
692.63	56.359
692.82	58.065
693.00	56.699
693.19	56.683
693.37	57.586
693.56	59.662
693.74	61.713
693.92	58.358
694.11	57.858
694.29	57.439
694.48	58.295
694.66	60.498
694.84	58.180
695.03	55.880
695.21	60.155
695.40	62.287
695.58	63.621
695.76	62.616
695.95	62.734
696.13	62.676
696.32	60.487
696.50	61.644
696.68	62.043
696.87	59.148
697.05	61.351
697.24	64.105
697.42	65.097
697.60	62.123
697.79	61.868
697.97	63.736
698.16	64.514
698.34	62.767
698.52	63.095
698.71	62.548
698.89	60.124
699.07	61.776
699.26	61.311
699.44	61.121
699.63	62.250
699.81	62.526
699.99	62.400
700.18	61.976
700.36	62.523
700.54	60.304
700.73	64.609
700.91	62.883
701.09	62.618
701.28	64.194
701.46	64.054
701.64	64.825
701.83	66.371
702.01	62.089
702.20	67.109
702.38	68.330
702.56	65.526
702.75	64.129
702.93	69.204
703.11	69.750
703.30	69.152
703.48	71.766
703.66	73.270
703.85	69.878
704.03	70.107
704.21	67.287
704.40	73.038
704.58	71.777
704.76	70.764
704.95	65.895
705.13	68.635
705.31	73.056
705.50	71.010
705.68	73.145
705.86	74.690
706.04	72.397
706.23	73.905
706.41	77.526
706.59	72.759
706.78	71.564
706.96	71.343
707.14	70.606
707.33	71.725
707.51	72.030
707.69	76.174
707.88	76.885
708.06	74.793
708.24	72.965
708.42	72.204
708.61	69.509
708.79	74.055
708.97	78.479
709.16	75.570
709.34	76.433
709.52	69.947
709.71	75.605
709.89	74.094
710.07	69.972
710.25	75.023
710.44	71.746
710.62	69.828
710.80	71.549
710.98	73.492
711.17	70.092
711.35	68.990
711.53	72.237
711.72	75.287
711.90	73.557
712.08	71.360
712.26	71.560
712.45	70.911
712.63	73.535
712.81	72.855
712.99	74.119
713.18	73.917
713.36	72.842
713.54	72.617
713.72	72.111
713.91	73.899
714.09	72.587
714.27	73.452
714.45	72.389
714.64	75.205
714.82	75.467
715.00	70.961
715.18	75.386
715.37	75.548
715.55	72.343
715.73	73.404
715.91	74.884
716.10	71.694
716.28	72.584
716.46	75.077
716.64	77.175
716.83	70.219
717.01	72.109
717.19	75.315
717.37	73.461
717.55	69.888
717.74	70.885
717.92	71.182
718.10	68.426
718.28	72.138
718.47	78.202
718.65	73.724
718.83	73.648
719.01	74.637
719.19	71.444
719.38	73.119
719.56	73.236
719.74	74.082
719.92	71.284
720.10	75.014
720.29	75.246
720.47	75.856
720.65	70.131
720.83	76.983
721.01	69.644
721.20	81.071
721.38	73.878
721.56	74.106
721.74	81.067
721.92	80.750
722.11	78.954
722.29	75.279
722.47	77.822
722.65	76.057
722.83	75.604
723.01	76.356
723.20	80.215
723.38	78.750
723.56	75.945
723.74	77.628
723.92	80.529
724.10	75.925
724.29	73.295
724.47	80.552
724.65	77.726
724.83	79.830
725.01	76.297
725.19	77.982
725.38	74.264
725.56	81.409
725.74	78.442
725.92	78.413
726.10	76.497
726.28	73.937
726.46	78.238
726.65	77.514
726.83	79.045
727.01	75.856
727.19	76.236
727.37	78.863
727.55	77.539
727.73	78.099
727.92	75.391
728.10	73.873
728.28	70.345
728.46	76.388
728.64	77.540
728.82	76.235
729.00	76.457
729.19	77.193
729.37	75.814
729.55	79.190
729.73	73.290
729.91	76.450
730.09	76.088
730.27	75.759
730.45	77.778
730.63	79.107
730.82	73.039
731.00	77.564
731.18	78.374
731.36	77.166
731.54	73.867
731.72	79.085
731.90	74.586
732.08	77.920
732.26	72.535
732.45	79.704
732.63	75.493
732.81	82.151
732.99	76.453
733.17	75.527
733.35	78.463
733.53	80.668
733.71	79.338
733.89	78.410
734.07	77.931
734.25	78.944
734.44	82.197
734.62	73.823
734.80	78.047
734.98	82.123
735.16	74.810
735.34	77.945
735.52	81.812
735.70	77.597
735.88	80.614
736.06	81.549
736.24	83.300
736.42	84.427
736.60	82.837
736.78	80.661
736.97	81.031
737.15	82.361
737.33	83.184
737.51	85.500
737.69	89.629
737.87	80.458
738.05	85.900
738.23	80.818
738.41	82.593
738.59	82.017
738.77	79.335
738.95	82.647
739.13	83.455
739.31	77.131
739.49	79.553
739.67	84.979
739.85	77.179
740.03	84.357
740.21	84.632
740.39	86.911
740.57	83.405
740.75	79.536
740.93	77.890
741.11	86.452
741.30	86.478
741.48	81.036
741.66	84.911
741.84	81.825
742.02	87.104
742.20	89.378
742.38	80.230
742.56	83.384
742.74	81.988
742.92	84.219
743.10	82.598
743.28	86.902
743.46	85.870
743.64	83.034
743.82	87.711
744.00	87.159
744.18	87.897
744.36	90.677
744.54	92.063
744.72	81.818
744.90	92.078
745.08	87.199
745.26	85.605
745.44	87.769
745.62	87.716
745.80	87.841
745.98	85.968
746.16	86.459
746.34	91.909
746.52	90.843
746.70	88.366
746.87	89.383
747.05	92.521
747.23	88.811
747.41	87.896
747.59	88.210
747.77	91.467
747.95	87.844
748.13	84.608
748.31	89.526
748.49	86.083
748.67	94.253
748.85	88.790
749.03	88.262
749.21	87.219
749.39	93.369
749.57	84.426
749.75	83.290
749.93	86.587
750.11	90.342
750.29	86.575
750.47	88.975
750.65	87.039
750.83	90.901
751.01	83.422
751.18	82.158
751.36	86.679
751.54	87.361
751.72	91.566
751.90	85.017
752.08	89.914
752.26	81.261
752.44	88.426
752.62	87.435
752.80	82.918
752.98	84.469
753.16	89.019
753.34	86.319
753.52	90.294
753.69	89.276
753.87	84.073
754.05	83.627
754.23	87.293
754.41	89.807
754.59	80.159
754.77	90.331
754.95	86.725
755.13	85.953
755.31	86.184
755.49	89.499
755.66	83.112
755.84	83.969
756.02	84.108
756.20	90.472
756.38	80.944
756.56	87.245
756.74	88.996
756.92	88.785
757.10	94.381
757.28	85.817
757.45	89.954
757.63	88.761
757.81	83.228
757.99	91.125
758.17	92.372
758.35	90.462
758.53	92.110
758.71	88.838
758.88	89.201
759.06	80.776
759.24	79.298
759.42	80.779
759.60	82.959
759.78	79.879
759.96	71.297
760.13	76.692
760.31	75.755
760.49	74.526
760.67	65.805
760.85	70.932
761.03	70.053
761.21	67.794
761.38	63.659
761.56	73.588
761.74	64.483
761.92	68.135
762.10	65.511
762.28	72.476
762.46	68.576
762.63	71.146
762.81	68.952
762.99	66.129
763.17	71.016
763.35	72.194
763.53	64.378
763.70	68.392
763.88	71.693
764.06	72.701
764.24	67.425
764.42	68.179
764.60	68.996
764.77	70.725
764.95	67.042
765.13	73.153
765.31	70.319
765.49	69.021
765.66	69.020
765.84	71.335
766.02	73.424
766.20	77.325
766.38	73.754
766.56	75.000
766.73	72.317
766.91	80.640
767.09	84.362
767.27	81.019
767.45	78.876
767.62	80.882
767.80	88.548
767.98	86.933
768.16	85.991
768.33	83.199
768.51	91.569
768.69	86.042
768.87	84.512
769.05	92.362
769.22	86.740
769.40	90.194
769.58	89.169
769.76	86.573
769.94	87.696
770.11	89.741
770.29	91.802
770.47	84.882
770.65	89.850
770.82	92.200
771.00	93.961
771.18	91.850
771.36	85.401
771.53	91.494
771.71	92.987
771.89	98.657
772.07	91.895
772.25	93.091
772.42	90.094
772.60	96.973
772.78	91.769
772.96	96.498
773.13	96.725
773.31	92.663
773.49	95.479
773.67	97.264
773.84	90.465
774.02	97.987
774.20	94.793
774.37	96.783
774.55	95.305
774.73	100.261
774.91	84.352
775.08	93.902
775.26	94.536
775.44	97.635
775.62	90.013
775.79	94.063
775.97	96.486
776.15	97.878
776.32	89.933
776.50	105.856
776.68	103.412
776.86	85.500
777.03	94.094
777.21	90.763
777.39	95.760
777.56	96.260
777.74	90.654
777.92	99.037
778.10	93.343
778.27	96.356
778.45	93.252
778.63	92.778
778.80	88.734
778.98	105.693
779.16	103.509
779.34	97.203
779.51	93.369
779.69	106.294
779.87	97.787
780.04	87.602
780.22	96.291
780.40	107.837
780.57	97.890
780.75	91.826
780.93	101.148
781.10	97.289
781.28	97.678
781.46	90.150
781.63	92.511
781.81	98.401
781.99	97.671
782.16	89.474
782.34	87.136
782.52	95.956
782.69	89.819
782.87	98.804
783.05	88.857
783.22	97.937
783.40	97.214
783.58	94.619
783.75	93.939
783.93	106.965
784.11	87.805
784.28	98.270
784.46	91.080
784.64	91.496
784.81	84.936
784.99	103.791
785.17	93.115
785.34	100.493
785.52	89.431
785.69	93.468
785.87	92.749
786.05	104.615
786.22	93.858
786.40	107.566
786.58	96.338
786.75	97.764
786.93	76.424
787.11	100.963
787.28	89.776
787.46	94.625
787.63	100.684
787.81	93.912
787.99	98.208
788.16	83.900
788.34	93.564
788.51	93.667
788.69	90.413
788.87	84.783
789.04	77.871
789.22	92.513
789.39	86.831
789.57	93.750
789.75	87.648
789.92	91.204
790.10	80.789
790.27	91.206
790.45	86.629
790.63	84.786
790.80	81.791
790.98	93.043
791.15	82.831
791.33	93.461
791.51	86.957
791.68	95.246
791.86	95.033
792.03	92.167
792.21	83.361
792.39	90.379
792.56	92.540
792.74	89.441
792.91	95.544
793.09	96.026
793.26	92.606
793.44	95.026
793.62	93.492
793.79	94.435
793.97	88.871
794.14	94.310
794.32	104.869
794.49	100.923
794.67	93.345
794.84	95.255
795.02	92.164
795.20	99.265
795.37	88.442
795.55	89.110
795.72	98.057
795.90	90.117
796.07	88.966
796.25	92.642
796.42	85.043
796.60	87.779
796.77	86.733
796.95	92.504
797.13	79.773
797.30	90.682
797.48	81.899
797.65	82.911
797.83	86.350
798.00	96.926
798.18	77.726
798.35	88.395
798.53	92.333
798.70	86.107
798.88	83.779
799.05	82.555
799.23	88.043
799.40	87.261
799.58	88.832
799.75	94.608
799.93	82.474
800.10	92.366
800.28	101.163
800.45	97.666
800.63	85.072
800.80	95.736
800.98	89.963
801.15	89.204
801.33	92.063
801.50	91.019
801.68	97.303
801.85	83.190
802.03	79.027
802.20	91.386
802.38	79.505
802.55	95.000
802.73	80.870
802.90	96.846
803.08	79.181
803.25	100.000
803.43	88.710
803.60	102.282
803.78	92.279
803.95	102.642
804.13	87.197
804.30	100.000
804.48	85.152
804.65	84.055
804.83	85.329
805.00	82.586
805.17	79.417
805.35	87.879
805.52	89.484
805.70	95.849
805.87	90.388
806.05	97.382
806.22	84.015
806.40	86.705
806.57	74.345
806.75	96.514
806.92	78.421
807.09	94.497
807.27	81.456
807.44	98.092
807.62	81.511
807.79	94.107
807.97	89.520
808.14	91.000
808.31	88.477
808.49	82.979
808.66	87.861
808.84	85.853
809.01	92.781
809.19	95.473
809.36	99.389
809.53	94.643
809.71	78.764
809.88	110.421
810.06	86.614
810.23	89.600
810.41	86.722
810.58	95.772
810.75	88.197
810.93	97.041
811.10	86.737
811.28	92.841
811.45	82.600
811.62	95.056
811.80	85.532
811.97	95.455
812.15	83.235
812.32	85.560
812.49	88.453
812.67	90.213
812.84	80.000
813.02	99.103
813.19	74.492
813.36	89.588
813.54	83.407
813.71	92.500
813.89	87.445
814.06	103.175
814.23	85.321
814.41	93.853
814.58	81.490
814.75	94.103
814.93	101.905
815.10	95.641
815.28	86.520
815.45	76.355
815.62	79.376
815.80	77.136
815.97	74.948
816.14	83.298
816.32	70.660
816.49	94.474
816.66	71.750
816.84	81.675
817.01	76.356
817.18	77.156
817.36	75.057
817.53	91.791
817.71	63.067
817.88	76.818
818.05	70.022
818.23	81.905
818.40	80.660
818.57	81.410
818.75	77.726
818.92	84.267
819.09	73.228
819.27	68.039
819.44	74.950
819.61	69.004
819.79	71.605
819.96	83.762
820.13	78.238
820.31	70.435
820.48	73.726
820.65	82.968
820.82	79.935
821.00	72.263
821.17	68.813
821.34	73.247
821.52	67.790
821.69	67.277
821.86	67.806
822.04	70.944
822.21	67.814
822.38	71.206
822.56	66.166
822.73	66.899
822.90	67.977
823.07	67.898
823.25	62.982
823.42	63.217
823.59	63.741
823.77	62.496
823.94	64.836
824.11	62.268
824.29	61.607
824.46	66.555
824.63	66.528
824.80	64.495
824.98	63.122
825.15	67.188
825.32	57.676
825.49	68.355
825.67	61.868
825.84	67.799
826.01	66.081
826.19	73.091
826.36	64.167
826.53	67.398
826.70	65.365
826.88	69.753
827.05	63.184
827.22	68.053
827.39	69.914
827.57	76.331
827.74	63.583
827.91	67.583
828.08	60.690
828.26	66.079
828.43	64.637
828.60	68.548
828.77	66.456
828.95	69.956
829.12	64.226
829.29	63.038
829.46	63.134
829.64	67.615
829.81	60.537
829.98	65.960
830.15	63.253
830.32	62.799
830.50	62.617
830.67	69.409
830.84	64.627
831.01	59.561
831.19	72.552
831.36	84.146
831.53	79.762
831.70	90.787
831.87	75.000
832.05	83.168
832.22	86.099
832.39	80.000
832.56	75.573
832.74	85.045
832.91	70.253
833.08	84.211
833.25	54.833
833.42	75.648
833.60	63.889
833.77	65.523
833.94	66.033
834.11	67.030
834.28	59.434
834.45	68.241
834.63	54.970
834.80	64.756
834.97	58.883
835.14	66.146
835.31	69.000
835.49	63.440
835.66	59.156
835.83	67.169
836.00	56.887
836.17	67.213
836.34	62.019
836.52	63.947
836.69	67.050
836.86	68.281
837.03	73.693
837.20	64.103
837.37	58.867
837.55	64.071
837.72	73.796
837.89	78.117
838.06	76.202
838.23	79.187
838.40	74.232
838.58	71.200
838.75	83.761
838.92	92.759
839.09	88.624
839.26	82.086
839.43	79.539
839.60	93.645
839.78	98.148
839.95	88.599
840.12	89.557
840.29	96.178
840.46	110.140
840.63	82.353
840.80	78.667
840.98	85.714
841.15	89.000
841.32	73.302
841.49	79.420
841.66	96.995
841.83	73.067
842.00	82.595
842.17	94.247
842.34	74.785
842.52	83.234
842.69	93.082
842.86	81.661
843.03	109.748
843.20	109.796
843.37	96.154
843.54	86.992
843.71	101.224
843.88	98.013
844.06	115.789
844.23	134.300
844.40	110.606
844.57	119.149
844.74	119.214
844.91	139.815
845.08	123.137
845.25	98.540
845.42	100.000
845.59	141.520
845.76	116.364
845.94	160.127
846.11	130.348
846.28	151.724
846.45	153.988
846.62	123.784
846.79	149.444
846.96	94.118
847.13	141.176
847.30	132.323
847.47	119.231
847.64	135.465
847.81	151.099
847.98	130.811
848.15	120.430
848.32	128.351
848.50	151.553
848.67	179.861
848.84	156.566
849.01	129.932
849.18	138.421
849.35	128.796
849.52	142.197
849.69	112.717
849.86	161.350
850.03	143.836
850.20	157.639
850.37	148.571
850.54	151.572
850.71	173.171
850.88	130.070
851.05	163.699
851.22	136.025
851.39	134.536
851.56	135.417
851.73	115.556
851.90	141.875
852.07	142.941
852.24	144.853
852.41	178.832
852.58	128.788
852.75	144.379
852.92	130.435
853.09	132.961
853.26	153.503
853.43	93.182
853.60	122.680
853.77	188.652
853.94	138.636
854.11	195.726
854.28	143.085
854.45	150.350
854.62	150.336
854.79	161.538
854.96	152.899
855.13	117.778
855.30	134.715
855.47	174.483
855.64	193.694
855.81	176.190
855.98	114.667
856.15	138.621
856.32	122.535
856.49	126.941
856.66	140.116
856.83	112.042
857.00	163.115
857.17	195.000
857.34	146.970
857.51	139.744
857.68	156.429
857.85	134.545
858.02	258.108
858.19	162.143
858.36	144.571
858.53	140.571
858.70	137.086
858.87	161.379
859.04	136.620
859.21	97.391
859.38	123.179
859.55	198.148
859.72	169.421
859.89	202.941
860.05	196.899
860.22	149.342
860.39	197.196
860.56	184.404
860.73	145.181
860.90	147.333
861.07	127.869
861.24	176.068
861.41	147.143
861.58	122.660
861.75	176.852
861.92	142.520
862.09	141.566
862.26	225.532
862.43	184.962
862.59	103.590
862.76	128.571
862.93	186.335
863.10	114.483
863.27	124.324
863.44	126.974
863.61	127.059
863.78	170.423
863.95	187.786
864.12	136.806
864.29	173.643
864.45	216.438
864.62	172.932
864.79	145.270
864.96	130.952
865.13	173.282
865.30	180.000
865.47	210.185
865.64	144.375
865.81	136.420
865.97	99.454
866.14	129.524
866.31	153.659
866.48	144.961
866.65	161.000
866.82	155.705
866.99	224.272
867.16	218.571
867.33	205.128
867.49	170.803
867.66	141.748
867.83	157.600
868.00	114.184
868.17	165.909
868.34	161.644
868.51	146.479
868.67	161.157
868.84	168.707
869.01	179.528
869.18	146.512
869.35	221.111
869.52	121.233
869.69	167.176
869.85	124.599
870.02	170.093
870.19	189.076
870.36	149.660
870.53	106.818
870.70	112.791
870.86	134.591
871.03	200.000
871.20	116.556
871.37	127.751
871.54	126.897
871.71	134.568
871.87	110.959
872.04	121.290
872.21	222.581
872.38	133.129
872.55	149.296
872.72	106.047
872.88	139.053
873.05	113.187
873.22	122.619
873.39	128.659
873.56	117.919
873.72	167.164
873.89	133.333
874.06	150.658
874.23	189.831
874.40	122.378
874.56	222.642
874.73	128.804
874.90	151.977
875.07	165.972
875.24	95.376
875.40	129.032
875.57	109.195
875.74	134.000
875.91	200.826
876.08	126.515
876.24	150.000
876.41	147.674
876.58	127.329
876.75	112.500
876.92	151.327
877.08	179.464
877.25	123.418
877.42	135.556
877.59	119.580
877.75	165.101
877.92	145.600
878.09	147.368
878.26	142.857
878.42	163.043
878.59	147.059
878.76	116.667
878.93	145.614
879.09	101.596
879.26	102.162
879.43	140.000
879.60	124.074
879.76	143.791
879.93	115.823
880.10	114.815
880.27	83.945
880.43	109.268
880.60	68.950
880.77	89.610
880.94	77.818
881.10	86.111
881.27	74.667
881.44	61.894
881.61	60.044
881.77	69.246
881.94	50.085
882.11	49.060
882.28	53.194
882.44	57.830
882.61	57.473
882.78	54.115
882.94	61.455
883.11	50.163
883.28	51.674
883.45	54.371
883.61	46.707
883.78	47.868
883.95	53.070
884.11	55.617
884.28	53.207
>>>>>End Processed Spectral Data<<<<<
