SpectraSuite Data File
++++++++++++++++++++++++++++++++++++
Date: Sat Sep 21 02:53:25 EST 2019
User: sgrac
Dark Spectrum Present: Yes
Reference Spectrum Present: Yes
Number of Sampled Component Spectra: 1
Spectrometers: USB4E01596
Integration Time (usec): 100000 (USB4E01596)
Spectra Averaged: 1 (USB4E01596)
Boxcar Smoothing: 0 (USB4E01596)
Correct for Electrical Dark: No (USB4E01596)
Strobe/Lamp Enabled: Yes (USB4E01596)
Correct for Detector Non-linearity: No (USB4E01596)
Correct for Stray Light: No (USB4E01596)
Number of Pixels in Processed Spectrum: 3648
>>>>>Begin Processed Spectral Data<<<<<
178.44	64.286
178.66	64.286
178.87	64.286
179.09	114.286
179.30	-0.000
179.52	0.000
179.74	-700.000
179.95	-200.000
180.17	386.667
180.38	5600.000
180.60	0.000
180.82	-91.667
181.03	31.579
181.25	113.043
181.46	-32.258
181.68	162.500
181.89	4300.000
182.11	237.143
182.33	-48.889
182.54	-137.500
182.76	-2100.000
182.97	270.000
183.19	1800.000
183.40	0.000
183.62	-48.148
183.84	-55.556
184.05	221.739
184.27	75.000
184.48	557.143
184.70	82.000
184.91	-240.000
185.13	8.889
185.34	50.000
185.56	33.333
185.78	0.000
185.99	153.333
186.21	82.759
186.42	140.000
186.64	167.742
186.85	59.259
187.07	156.364
187.28	60.000
187.50	-86.667
187.72	1400.000
187.93	-4700.000
188.15	120.000
188.36	-141.176
188.58	-800.000
188.79	9.091
189.01	213.889
189.22	320.000
189.44	-1000.000
189.65	80.000
189.87	212.500
190.09	-740.000
190.30	362.500
190.52	-1700.000
190.73	100.000
190.95	132.143
191.16	184.444
191.38	-30.000
191.59	40.476
191.81	150.000
192.02	114.894
192.24	282.353
192.45	-1440.000
192.67	162.857
192.88	275.000
193.10	208.000
193.31	265.000
193.53	-7400.000
193.74	89.024
193.96	220.833
194.18	135.484
194.39	-55.556
194.61	247.368
194.82	261.905
195.04	176.190
195.25	1750.000
195.47	107.317
195.68	165.957
195.90	-500.000
196.11	65.455
196.33	108.511
196.54	-1300.000
196.76	132.143
196.97	-433.333
197.19	39.286
197.40	-8.824
197.62	71.875
197.83	93.243
198.05	-257.895
198.26	145.714
198.48	33.333
198.69	100.000
198.91	111.765
199.12	-65.714
199.34	-440.000
199.55	5400.000
199.77	900.000
199.98	160.000
200.20	39.437
200.41	221.429
200.63	222.222
200.84	62.745
201.06	138.462
201.27	129.730
201.49	575.000
201.70	-3.704
201.91	63.043
202.13	121.739
202.34	116.981
202.56	-42.857
202.77	255.556
202.99	146.429
203.20	400.000
203.42	712.500
203.63	146.512
203.85	40.000
204.06	146.296
204.28	-300.000
204.49	20.000
204.71	12.821
204.92	0.000
205.14	-392.857
205.35	238.889
205.56	-660.000
205.78	47.619
205.99	260.000
206.21	67.742
206.42	148.387
206.64	171.429
206.85	175.000
207.07	-84.615
207.28	342.857
207.50	-189.474
207.71	46.154
207.93	79.545
208.14	264.706
208.35	184.211
208.57	-2600.000
208.78	630.769
209.00	27.778
209.21	-1900.000
209.43	117.241
209.64	191.176
209.86	-171.429
210.07	0.000
210.28	-252.941
210.50	59.184
210.71	128.070
210.93	28.571
211.14	16.667
211.36	-93.548
211.57	-42.857
211.78	4.348
212.00	0.000
212.21	118.605
212.43	-9.091
212.64	91.379
212.86	-25.000
213.07	-0.000
213.29	81.579
213.50	900.000
213.71	105.660
213.93	1057.143
214.14	51.515
214.36	-2100.000
214.57	103.846
214.78	150.000
215.00	400.000
215.21	61.111
215.43	36.000
215.64	243.590
215.86	74.286
216.07	2500.000
216.28	48.000
216.50	-257.143
216.71	-1100.000
216.93	82.979
217.14	46.875
217.35	85.185
217.57	60.714
217.78	250.000
218.00	-0.000
218.21	78.947
218.42	233.333
218.64	205.882
218.85	-77.778
219.07	157.143
219.28	0.000
219.49	38.158
219.71	166.667
219.92	130.556
220.14	25.000
220.35	95.000
220.56	112.821
220.78	135.294
220.99	-3300.000
221.21	157.143
221.42	400.000
221.63	107.500
221.85	104.839
222.06	100.000
222.28	88.636
222.49	-1000.000
222.70	0.000
222.92	166.667
223.13	-33.333
223.34	-1150.000
223.56	15.789
223.77	66.292
223.99	194.872
224.20	-80.952
224.41	140.541
224.63	197.222
224.84	91.379
225.05	-117.857
225.27	71.429
225.48	69.565
225.69	28.571
225.91	77.778
226.12	66.667
226.34	84.314
226.55	3.704
226.76	50.000
226.98	104.000
227.19	29.545
227.40	36.364
227.62	9.756
227.83	19.000
228.04	23.077
228.26	43.564
228.47	13.793
228.69	28.289
228.90	-29.577
229.11	11.852
229.33	32.367
229.54	7.237
229.75	17.826
229.97	3.863
230.18	14.695
230.39	-11.392
230.61	15.409
230.82	21.162
231.03	-13.278
231.25	14.815
231.46	18.248
231.67	23.715
231.89	8.627
232.10	0.000
232.31	18.750
232.53	9.605
232.74	9.896
232.95	27.108
233.17	6.358
233.38	8.209
233.59	44.853
233.81	24.272
234.02	35.526
234.23	19.786
234.45	14.474
234.66	20.339
234.87	-8.725
235.09	-1.481
235.30	14.943
235.51	14.078
235.73	-14.465
235.94	14.508
236.15	3.571
236.36	33.333
236.58	22.749
236.79	20.942
237.00	5.797
237.22	14.198
237.43	12.255
237.64	2.620
237.86	30.435
238.07	20.101
238.28	34.973
238.50	13.478
238.71	26.036
238.92	-4.167
239.13	29.143
239.35	-14.685
239.56	11.458
239.77	20.000
239.99	6.132
240.20	-7.368
240.41	12.931
240.63	1.619
240.84	4.382
241.05	10.584
241.26	18.182
241.48	11.209
241.69	0.000
241.90	3.380
242.12	16.582
242.33	1.940
242.54	2.772
242.75	6.831
242.97	10.690
243.18	-2.525
243.39	9.673
243.61	5.547
243.82	5.874
244.03	8.058
244.24	3.067
244.46	2.963
244.67	3.144
244.88	5.477
245.09	8.013
245.31	-0.768
245.52	14.338
245.73	5.837
245.95	2.772
246.16	2.820
246.37	4.264
246.58	11.963
246.80	7.496
247.01	5.128
247.22	10.909
247.43	6.180
247.65	6.897
247.86	-0.978
248.07	4.348
248.28	2.528
248.50	2.959
248.71	3.965
248.92	5.095
249.13	3.297
249.35	3.047
249.56	3.913
249.77	2.334
249.98	1.530
250.20	0.333
250.41	5.140
250.62	1.687
250.83	6.038
251.05	3.692
251.26	11.252
251.47	4.505
251.68	9.141
251.90	9.058
252.11	3.484
252.32	1.518
252.53	3.241
252.75	-0.320
252.96	8.974
253.17	7.351
253.38	5.541
253.59	3.107
253.81	2.195
254.02	2.866
254.23	13.208
254.44	4.710
254.66	1.157
254.87	8.664
255.08	8.242
255.29	12.851
255.50	5.591
255.72	8.945
255.93	14.599
256.14	5.682
256.35	5.621
256.57	1.837
256.78	11.416
256.99	5.759
257.20	4.854
257.41	15.321
257.63	4.703
257.84	2.697
258.05	3.542
258.26	7.928
258.47	3.578
258.69	5.237
258.90	6.056
259.11	-5.772
259.32	1.491
259.53	0.402
259.75	2.623
259.96	-0.512
260.17	2.424
260.38	1.375
260.59	2.444
260.81	4.087
261.02	1.074
261.23	5.108
261.44	3.277
261.65	2.188
261.87	0.606
262.08	1.559
262.29	1.946
262.50	3.945
262.71	1.610
262.92	3.297
263.14	4.469
263.35	5.416
263.56	-0.824
263.77	6.257
263.98	6.878
264.20	8.290
264.41	-0.414
264.62	5.660
264.83	1.554
265.04	5.579
265.25	3.052
265.47	9.970
265.68	6.414
265.89	0.998
266.10	1.645
266.31	10.526
266.52	9.293
266.74	2.740
266.95	-0.524
267.16	5.799
267.37	3.500
267.58	-2.857
267.79	5.228
268.01	-0.879
268.22	4.691
268.43	4.845
268.64	1.885
268.85	2.134
269.06	-2.068
269.27	0.644
269.49	3.638
269.70	1.908
269.91	3.522
270.12	-0.990
270.33	7.376
270.54	1.860
270.75	-0.702
270.97	4.115
271.18	3.692
271.39	2.935
271.60	4.762
271.81	1.979
272.02	7.245
272.23	2.124
272.45	3.070
272.66	3.076
272.87	2.645
273.08	0.984
273.29	3.849
273.50	3.687
273.71	4.559
273.92	2.763
274.14	-5.281
274.35	-2.591
274.56	3.472
274.77	3.133
274.98	6.143
275.19	3.108
275.40	3.439
275.61	0.288
275.83	2.705
276.04	2.901
276.25	3.627
276.46	3.009
276.67	0.924
276.88	4.137
277.09	1.883
277.30	3.534
277.51	6.070
277.73	0.000
277.94	1.992
278.15	0.000
278.36	2.026
278.57	2.664
278.78	6.400
278.99	8.293
279.20	1.178
279.41	7.520
279.62	3.205
279.84	0.794
280.05	2.748
280.26	4.762
280.47	6.351
280.68	-4.803
280.89	4.808
281.10	1.088
281.31	1.141
281.52	2.705
281.73	3.908
281.94	5.455
282.16	4.521
282.37	4.064
282.58	3.394
282.79	3.107
283.00	3.175
283.21	1.774
283.42	0.616
283.63	0.778
283.84	1.893
284.05	3.534
284.26	4.118
284.47	1.406
284.68	3.698
284.89	2.762
285.11	3.610
285.32	2.939
285.53	0.828
285.74	5.073
285.95	3.082
286.16	5.688
286.37	2.344
286.58	1.320
286.79	3.061
287.00	1.825
287.21	3.677
287.42	0.828
287.63	4.127
287.84	0.755
288.05	0.757
288.26	3.155
288.48	4.339
288.69	3.898
288.90	-1.241
289.11	2.484
289.32	0.288
289.53	1.686
289.74	-1.071
289.95	1.697
290.16	4.843
290.37	2.322
290.58	1.949
290.79	2.493
291.00	3.236
291.21	1.318
291.42	-0.397
291.63	1.768
291.84	3.470
292.05	2.719
292.26	3.395
292.47	4.578
292.68	1.027
292.89	3.166
293.10	2.993
293.31	2.165
293.52	1.815
293.73	1.526
293.94	3.900
294.15	2.682
294.36	-1.167
294.57	4.262
294.79	4.267
295.00	1.866
295.21	0.718
295.42	6.541
295.63	2.498
295.84	1.587
296.05	2.657
296.26	3.040
296.47	2.044
296.68	3.605
296.89	0.122
297.10	0.860
297.31	1.370
297.52	3.490
297.73	2.094
297.94	3.024
298.15	1.473
298.36	0.906
298.57	1.971
298.78	2.008
298.99	-0.049
299.20	0.716
299.41	1.349
299.62	2.038
299.83	2.659
300.04	2.070
300.25	0.172
300.46	0.120
300.67	0.000
300.88	3.264
301.09	1.636
301.30	1.834
301.50	2.074
301.71	3.284
301.92	2.540
302.13	1.663
302.34	2.394
302.55	1.993
302.76	2.338
302.97	5.345
303.18	1.512
303.39	4.360
303.60	2.855
303.81	1.004
304.02	-0.288
304.23	1.747
304.44	1.735
304.65	1.260
304.86	-0.615
305.07	2.952
305.28	1.958
305.49	3.028
305.70	3.041
305.91	4.418
306.12	-1.367
306.33	-0.069
306.54	0.807
306.75	1.900
306.96	3.867
307.17	4.167
307.38	-1.069
307.58	3.142
307.79	3.417
308.00	2.640
308.21	1.543
308.42	2.388
308.63	5.878
308.84	2.598
309.05	0.892
309.26	1.560
309.47	2.163
309.68	-0.282
309.89	3.958
310.10	2.743
310.31	2.492
310.52	-0.424
310.73	2.270
310.94	1.197
311.14	0.694
311.35	2.327
311.56	0.840
311.77	-1.652
311.98	-0.875
312.19	1.630
312.40	1.795
312.61	1.297
312.82	1.935
313.03	-0.549
313.24	2.034
313.45	1.924
313.66	2.384
313.86	2.096
314.07	2.253
314.28	2.549
314.49	1.951
314.70	3.195
314.91	1.996
315.12	1.363
315.33	-1.202
315.54	2.404
315.75	0.335
315.96	1.841
316.16	1.379
316.37	0.890
316.58	2.941
316.79	0.657
317.00	2.414
317.21	0.958
317.42	-0.139
317.63	1.212
317.84	3.885
318.05	3.922
318.25	4.694
318.46	2.134
318.67	0.959
318.88	0.905
319.09	0.735
319.30	3.871
319.51	-0.297
319.72	3.336
319.93	3.528
320.13	2.475
320.34	4.823
320.55	1.701
320.76	3.919
320.97	2.144
321.18	0.852
321.39	1.699
321.60	4.194
321.80	3.566
322.01	0.954
322.22	1.012
322.43	2.607
322.64	4.438
322.85	-1.535
323.06	0.709
323.27	-0.072
323.47	1.721
323.68	5.814
323.89	-0.899
324.10	1.831
324.31	3.352
324.52	2.098
324.73	1.623
324.93	2.308
325.14	0.000
325.35	2.628
325.56	2.264
325.77	-0.184
325.98	2.804
326.19	3.656
326.39	5.919
326.60	2.893
326.81	1.876
327.02	3.832
327.23	3.206
327.44	2.830
327.64	2.657
327.85	1.654
328.06	4.556
328.27	5.226
328.48	0.061
328.69	2.193
328.90	-0.191
329.10	1.792
329.31	-2.086
329.52	6.335
329.73	4.563
329.94	-0.554
330.15	2.603
330.35	2.230
330.56	2.215
330.77	1.272
330.98	3.291
331.19	1.363
331.39	0.409
331.60	3.051
331.81	1.965
332.02	5.087
332.23	1.997
332.44	2.375
332.64	2.420
332.85	1.069
333.06	3.238
333.27	-0.719
333.48	0.825
333.68	2.160
333.89	2.904
334.10	-1.869
334.31	3.226
334.52	3.616
334.72	0.788
334.93	1.641
335.14	1.772
335.35	1.319
335.56	0.000
335.76	1.764
335.97	3.537
336.18	2.967
336.39	1.716
336.60	4.396
336.80	2.191
337.01	2.825
337.22	-0.296
337.43	3.157
337.64	-0.555
337.84	-0.366
338.05	0.764
338.26	2.973
338.47	2.139
338.68	2.297
338.88	0.952
339.09	3.234
339.30	-0.762
339.51	1.767
339.71	3.364
339.92	4.095
340.13	4.128
340.34	3.083
340.55	2.569
340.75	1.684
340.96	0.544
341.17	1.523
341.38	0.605
341.58	0.990
341.79	-0.242
342.00	2.285
342.21	1.112
342.41	-1.440
342.62	1.482
342.83	1.116
343.04	0.742
343.24	-0.173
343.45	-0.057
343.66	-0.168
343.87	2.722
344.07	0.055
344.28	1.566
344.49	1.885
344.70	0.828
344.90	0.108
345.11	1.232
345.32	0.317
345.53	1.811
345.73	-0.301
345.94	-0.984
346.15	0.925
346.36	0.101
346.56	3.133
346.77	2.988
346.98	2.461
347.19	1.134
347.39	3.367
347.60	1.114
347.81	2.960
348.02	0.306
348.22	-1.666
348.43	-0.214
348.64	2.245
348.84	0.338
349.05	-0.226
349.26	2.167
349.47	2.600
349.67	2.225
349.88	4.062
350.09	2.271
350.30	2.615
350.50	2.227
350.71	1.256
350.92	1.120
351.12	1.348
351.33	1.454
351.54	3.209
351.74	3.368
351.95	2.734
352.16	1.266
352.37	3.068
352.57	0.000
352.78	1.628
352.99	4.031
353.19	1.580
353.40	1.438
353.61	5.999
353.82	2.572
354.02	5.338
354.23	2.926
354.44	3.106
354.64	4.879
354.85	2.901
355.06	4.303
355.26	1.601
355.47	1.244
355.68	2.445
355.88	5.278
356.09	3.912
356.30	3.421
356.51	3.903
356.71	4.447
356.92	2.247
357.13	4.180
357.33	3.505
357.54	1.415
357.75	1.550
357.95	4.475
358.16	4.865
358.37	8.963
358.57	4.353
358.78	8.296
358.99	4.067
359.19	5.590
359.40	7.759
359.61	6.141
359.81	8.727
360.02	8.859
360.23	4.792
360.43	6.318
360.64	6.995
360.85	9.725
361.05	6.331
361.26	10.398
361.47	8.172
361.67	13.960
361.88	7.945
362.09	13.644
362.29	7.963
362.50	8.765
362.70	7.704
362.91	13.747
363.12	9.537
363.32	11.318
363.53	13.404
363.74	15.408
363.94	8.344
364.15	16.361
364.36	12.677
364.56	11.420
364.77	14.240
364.98	17.982
365.18	11.966
365.39	16.270
365.59	11.415
365.80	13.675
366.01	14.533
366.21	13.714
366.42	8.564
366.63	15.625
366.83	13.702
367.04	8.596
367.24	16.796
367.45	13.843
367.66	11.025
367.86	15.096
368.07	11.677
368.28	14.176
368.48	13.741
368.69	11.073
368.89	11.466
369.10	14.142
369.31	12.634
369.51	14.500
369.72	13.970
369.92	18.436
370.13	8.773
370.34	14.612
370.54	7.949
370.75	14.162
370.95	10.864
371.16	15.616
371.37	11.573
371.57	13.438
371.78	11.854
371.98	15.387
372.19	15.305
372.40	18.894
372.60	15.965
372.81	17.371
373.01	10.642
373.22	12.215
373.43	15.774
373.63	16.492
373.84	13.848
374.04	14.772
374.25	11.581
374.46	17.200
374.66	12.151
374.87	14.923
375.07	8.988
375.28	12.748
375.48	13.761
375.69	17.519
375.90	10.036
376.10	11.810
376.31	11.282
376.51	12.557
376.72	12.526
376.92	10.734
377.13	13.619
377.34	19.233
377.54	12.361
377.75	17.834
377.95	15.166
378.16	17.088
378.36	15.789
378.57	16.677
378.77	15.674
378.98	17.158
379.19	14.511
379.39	14.020
379.60	13.663
379.80	15.710
380.01	15.470
380.21	12.620
380.42	14.855
380.62	14.124
380.83	14.938
381.04	14.179
381.24	14.836
381.45	13.653
381.65	11.699
381.86	14.332
382.06	14.584
382.27	8.603
382.47	11.964
382.68	18.204
382.88	8.531
383.09	11.312
383.29	11.831
383.50	17.383
383.71	11.167
383.91	13.573
384.12	10.866
384.32	13.890
384.53	10.781
384.73	9.413
384.94	10.848
385.14	12.741
385.35	10.714
385.55	14.464
385.76	10.529
385.96	15.181
386.17	13.525
386.37	14.467
386.58	10.653
386.78	15.609
386.99	10.696
387.19	14.764
387.40	12.525
387.60	16.038
387.81	10.808
388.01	13.192
388.22	13.743
388.42	16.525
388.63	14.452
388.83	16.174
389.04	9.578
389.24	14.559
389.45	11.219
389.65	12.860
389.86	11.141
390.06	12.144
390.27	10.539
390.47	13.504
390.68	10.701
390.88	16.831
391.09	13.426
391.29	13.830
391.50	12.774
391.70	13.935
391.91	11.799
392.11	14.308
392.32	13.000
392.52	17.473
392.73	13.569
392.93	16.353
393.14	12.125
393.34	13.252
393.55	14.377
393.75	13.508
393.95	12.296
394.16	14.286
394.36	15.253
394.57	17.462
394.77	11.766
394.98	14.084
395.18	13.145
395.39	15.691
395.59	13.965
395.80	14.498
396.00	13.376
396.21	15.853
396.41	11.768
396.61	15.799
396.82	13.360
397.02	18.713
397.23	14.343
397.43	13.176
397.64	9.896
397.84	16.113
398.05	9.862
398.25	15.743
398.45	11.851
398.66	16.021
398.86	12.922
399.07	15.709
399.27	12.493
399.48	15.132
399.68	11.001
399.89	13.143
400.09	14.370
400.29	12.384
400.50	12.047
400.70	16.075
400.91	11.044
401.11	13.555
401.32	12.926
401.52	11.776
401.72	10.620
401.93	15.724
402.13	12.778
402.34	13.122
402.54	10.432
402.75	16.396
402.95	8.904
403.15	14.278
403.36	10.554
403.56	12.769
403.77	9.656
403.97	12.539
404.17	10.948
404.38	14.651
404.58	11.731
404.79	13.182
404.99	14.075
405.19	12.319
405.40	12.189
405.60	14.824
405.81	13.323
406.01	13.269
406.21	12.886
406.42	15.480
406.62	12.908
406.83	15.078
407.03	13.225
407.23	13.113
407.44	11.181
407.64	15.230
407.85	13.684
408.05	13.441
408.25	12.817
408.46	15.757
408.66	12.865
408.87	11.482
409.07	10.919
409.27	10.931
409.48	12.132
409.68	13.489
409.88	10.177
410.09	13.422
410.29	11.216
410.50	16.005
410.70	8.706
410.90	13.536
411.11	10.660
411.31	13.389
411.51	13.483
411.72	14.797
411.92	11.976
412.12	13.542
412.33	10.893
412.53	13.644
412.74	9.430
412.94	12.392
413.14	11.423
413.35	14.431
413.55	11.623
413.75	14.115
413.96	11.079
414.16	13.508
414.36	12.978
414.57	12.123
414.77	10.948
414.97	13.978
415.18	12.163
415.38	13.028
415.58	13.046
415.79	12.696
415.99	11.401
416.19	13.882
416.40	13.156
416.60	15.231
416.80	13.129
417.01	15.769
417.21	11.228
417.41	16.227
417.62	13.712
417.82	15.046
418.02	14.033
418.23	15.602
418.43	14.581
418.63	16.429
418.84	16.372
419.04	16.137
419.24	16.418
419.45	17.874
419.65	17.260
419.85	16.900
420.06	17.762
420.26	17.856
420.46	17.002
420.67	17.040
420.87	17.606
421.07	17.114
421.28	17.090
421.48	18.139
421.68	17.983
421.88	17.881
422.09	17.780
422.29	17.462
422.49	17.797
422.70	18.299
422.90	17.354
423.10	17.696
423.31	17.360
423.51	18.430
423.71	17.496
423.91	18.217
424.12	18.416
424.32	17.366
424.52	18.192
424.73	17.906
424.93	17.868
425.13	17.700
425.33	18.360
425.54	17.583
425.74	18.168
425.94	17.431
426.15	18.838
426.35	17.382
426.55	18.291
426.75	19.037
426.96	18.172
427.16	17.649
427.36	17.425
427.57	19.270
427.77	17.564
427.97	18.195
428.17	17.011
428.38	18.131
428.58	16.130
428.78	17.678
428.98	17.065
429.19	15.900
429.39	15.022
429.59	17.180
429.79	15.073
430.00	15.751
430.20	13.945
430.40	16.448
430.60	15.832
430.81	17.071
431.01	15.268
431.21	16.664
431.41	15.596
431.62	17.500
431.82	16.425
432.02	17.619
432.22	14.999
432.43	16.963
432.63	16.498
432.83	17.648
433.03	16.620
433.24	16.490
433.44	17.093
433.64	16.870
433.84	17.237
434.05	18.337
434.25	17.710
434.45	17.503
434.65	18.079
434.85	18.001
435.06	18.203
435.26	18.293
435.46	17.659
435.66	18.332
435.87	17.497
436.07	18.456
436.27	18.278
436.47	17.944
436.67	17.119
436.88	19.073
437.08	17.349
437.28	17.468
437.48	17.235
437.69	18.227
437.89	17.393
438.09	18.611
438.29	18.151
438.49	19.214
438.70	17.511
438.90	17.669
439.10	17.038
439.30	18.669
439.50	18.498
439.71	18.445
439.91	18.964
440.11	18.390
440.31	18.772
440.51	18.536
440.72	17.704
440.92	18.582
441.12	19.223
441.32	18.878
441.52	19.169
441.72	19.069
441.93	18.526
442.13	19.436
442.33	18.368
442.53	18.834
442.73	18.987
442.94	18.916
443.14	17.737
443.34	19.650
443.54	19.366
443.74	18.433
443.94	18.481
444.15	18.619
444.35	17.918
444.55	19.279
444.75	18.787
444.95	18.251
445.15	18.454
445.36	18.757
445.56	18.060
445.76	18.498
445.96	18.367
446.16	18.395
446.36	19.369
446.57	18.791
446.77	18.599
446.97	18.517
447.17	18.496
447.37	19.151
447.57	18.558
447.77	19.431
447.98	19.421
448.18	19.132
448.38	19.154
448.58	18.731
448.78	19.120
448.98	18.593
449.18	18.765
449.39	18.589
449.59	19.188
449.79	18.167
449.99	18.481
450.19	19.667
450.39	18.925
450.59	19.232
450.79	19.209
451.00	18.988
451.20	18.403
451.40	19.186
451.60	18.743
451.80	18.771
452.00	17.879
452.20	18.179
452.40	18.813
452.61	18.743
452.81	17.167
453.01	19.608
453.21	17.910
453.41	19.108
453.61	18.577
453.81	18.542
454.01	17.671
454.21	18.459
454.42	19.062
454.62	18.794
454.82	17.852
455.02	18.593
455.22	17.853
455.42	18.821
455.62	16.916
455.82	18.986
456.02	17.815
456.23	17.738
456.43	17.867
456.63	18.564
456.83	18.508
457.03	19.307
457.23	17.731
457.43	18.913
457.63	17.097
457.83	18.234
458.03	16.517
458.23	18.692
458.43	17.418
458.64	18.408
458.84	18.603
459.04	18.013
459.24	17.673
459.44	17.212
459.64	18.236
459.84	18.099
460.04	18.477
460.24	18.427
460.44	18.453
460.64	18.379
460.84	19.147
461.04	18.788
461.24	18.640
461.45	18.775
461.65	19.018
461.85	18.449
462.05	18.663
462.25	18.578
462.45	19.157
462.65	18.446
462.85	18.168
463.05	18.854
463.25	18.802
463.45	18.344
463.65	17.565
463.85	18.937
464.05	18.038
464.25	18.254
464.45	18.673
464.65	18.675
464.85	17.520
465.05	19.074
465.26	18.501
465.46	17.997
465.66	17.894
465.86	18.823
466.06	18.106
466.26	17.991
466.46	17.482
466.66	18.906
466.86	18.143
467.06	18.306
467.26	18.052
467.46	18.214
467.66	18.128
467.86	18.444
468.06	18.891
468.26	18.212
468.46	18.294
468.66	19.273
468.86	17.073
469.06	18.442
469.26	18.286
469.46	18.611
469.66	18.285
469.86	19.203
470.06	18.809
470.26	18.239
470.46	17.962
470.66	18.628
470.86	18.456
471.06	18.586
471.26	16.956
471.46	17.912
471.66	18.081
471.86	17.929
472.06	17.994
472.26	18.863
472.46	18.479
472.66	18.310
472.86	18.202
473.06	18.259
473.26	17.576
473.46	18.386
473.66	18.313
473.86	18.807
474.06	19.104
474.26	18.056
474.46	18.545
474.66	18.508
474.86	18.838
475.06	19.189
475.26	18.552
475.46	18.589
475.66	18.107
475.86	19.426
476.06	18.701
476.26	18.592
476.46	17.986
476.66	18.860
476.86	18.068
477.06	18.304
477.26	18.138
477.46	18.847
477.65	18.445
477.85	18.855
478.05	19.054
478.25	18.550
478.45	18.105
478.65	18.800
478.85	18.115
479.05	19.245
479.25	19.039
479.45	19.186
479.65	18.988
479.85	19.127
480.05	18.569
480.25	18.616
480.45	19.253
480.65	19.374
480.85	19.287
481.05	18.485
481.25	19.013
481.44	19.157
481.64	19.357
481.84	18.827
482.04	18.698
482.24	18.537
482.44	19.426
482.64	18.185
482.84	19.188
483.04	18.992
483.24	18.713
483.44	18.563
483.64	18.196
483.84	18.421
484.04	18.757
484.23	18.099
484.43	19.349
484.63	18.587
484.83	19.611
485.03	18.682
485.23	19.742
485.43	19.153
485.63	19.810
485.83	19.297
486.03	19.722
486.23	19.183
486.42	19.442
486.62	18.855
486.82	19.125
487.02	18.643
487.22	19.064
487.42	18.444
487.62	19.504
487.82	18.478
488.02	18.891
488.22	18.162
488.41	19.118
488.61	18.784
488.81	19.216
489.01	18.483
489.21	19.295
489.41	18.654
489.61	19.455
489.81	18.038
490.01	19.671
490.20	18.774
490.40	19.565
490.60	18.779
490.80	19.199
491.00	18.742
491.20	19.465
491.40	18.563
491.60	18.969
491.79	18.544
491.99	18.775
492.19	18.564
492.39	19.149
492.59	18.244
492.79	19.399
492.99	18.349
493.19	19.366
493.38	18.597
493.58	19.056
493.78	18.784
493.98	19.680
494.18	19.451
494.38	18.822
494.58	19.156
494.77	19.556
494.97	19.059
495.17	19.506
495.37	18.861
495.57	19.909
495.77	18.786
495.96	19.770
496.16	19.016
496.36	19.213
496.56	19.507
496.76	18.682
496.96	18.951
497.15	18.775
497.35	18.505
497.55	18.409
497.75	18.925
497.95	19.407
498.15	18.415
498.34	18.425
498.54	18.512
498.74	19.227
498.94	18.334
499.14	18.763
499.34	19.272
499.53	18.596
499.73	19.710
499.93	19.672
500.13	18.944
500.33	18.940
500.52	18.558
500.72	18.556
500.92	18.962
501.12	19.566
501.32	19.044
501.52	19.039
501.71	18.763
501.91	19.292
502.11	19.686
502.31	19.349
502.51	19.169
502.70	19.906
502.90	19.368
503.10	19.311
503.30	19.526
503.50	19.113
503.69	19.120
503.89	19.354
504.09	19.403
504.29	19.014
504.48	19.027
504.68	18.437
504.88	19.197
505.08	18.929
505.28	18.937
505.47	19.493
505.67	20.135
505.87	19.876
506.07	18.959
506.27	18.221
506.46	19.303
506.66	19.490
506.86	20.489
507.06	20.606
507.25	19.998
507.45	19.356
507.65	20.297
507.85	20.128
508.04	19.824
508.24	19.870
508.44	19.010
508.64	19.321
508.83	19.380
509.03	19.599
509.23	19.808
509.43	19.702
509.63	20.042
509.82	19.478
510.02	19.773
510.22	18.485
510.42	19.733
510.61	19.710
510.81	19.435
511.01	19.803
511.21	19.954
511.40	19.955
511.60	19.599
511.80	19.939
511.99	19.781
512.19	19.759
512.39	19.610
512.59	20.454
512.78	20.147
512.98	20.416
513.18	20.085
513.38	19.937
513.57	20.198
513.77	19.782
513.97	19.504
514.17	20.238
514.36	20.210
514.56	20.210
514.76	20.266
514.95	20.130
515.15	20.881
515.35	19.899
515.55	20.234
515.74	20.388
515.94	20.356
516.14	19.923
516.33	20.107
516.53	20.076
516.73	19.842
516.93	20.156
517.12	20.167
517.32	20.079
517.52	19.888
517.71	20.530
517.91	20.133
518.11	20.137
518.30	20.661
518.50	20.031
518.70	20.346
518.90	20.862
519.09	20.005
519.29	20.596
519.49	19.979
519.68	20.271
519.88	20.338
520.08	20.429
520.27	19.814
520.47	21.142
520.67	20.176
520.86	20.851
521.06	20.253
521.26	20.080
521.45	20.280
521.65	20.532
521.85	20.162
522.04	20.132
522.24	21.109
522.44	20.473
522.63	20.099
522.83	20.377
523.03	20.377
523.22	20.891
523.42	20.304
523.62	20.543
523.81	20.471
524.01	20.966
524.21	21.131
524.40	19.791
524.60	20.169
524.80	20.101
524.99	20.261
525.19	19.998
525.39	20.068
525.58	20.747
525.78	20.088
525.98	20.135
526.17	20.125
526.37	20.497
526.57	20.552
526.76	20.520
526.96	20.530
527.15	20.368
527.35	19.569
527.55	21.028
527.74	20.318
527.94	20.136
528.14	20.252
528.33	21.025
528.53	19.888
528.72	20.716
528.92	19.917
529.12	20.864
529.31	20.100
529.51	21.229
529.71	20.094
529.90	20.949
530.10	20.207
530.29	21.267
530.49	20.580
530.69	21.120
530.88	20.834
531.08	21.268
531.28	20.928
531.47	21.348
531.67	20.381
531.86	21.155
532.06	20.864
532.26	20.832
532.45	20.364
532.65	20.293
532.84	20.102
533.04	20.868
533.24	20.624
533.43	20.134
533.63	20.225
533.82	20.950
534.02	20.598
534.22	21.282
534.41	19.512
534.61	20.805
534.80	20.118
535.00	21.311
535.19	20.928
535.39	21.161
535.59	20.907
535.78	21.457
535.98	20.815
536.17	21.014
536.37	20.937
536.57	21.189
536.76	20.622
536.96	20.664
537.15	20.347
537.35	21.629
537.54	20.860
537.74	21.362
537.93	21.117
538.13	21.121
538.33	20.775
538.52	21.617
538.72	21.093
538.91	21.203
539.11	21.076
539.30	21.392
539.50	21.228
539.70	21.004
539.89	21.725
540.09	21.307
540.28	21.338
540.48	20.468
540.67	20.911
540.87	20.980
541.06	19.974
541.26	20.933
541.45	21.052
541.65	21.463
541.85	20.339
542.04	21.344
542.24	20.351
542.43	21.222
542.63	20.502
542.82	21.587
543.02	21.104
543.21	21.729
543.41	21.600
543.60	22.075
543.80	21.061
543.99	21.487
544.19	21.306
544.38	21.696
544.58	21.049
544.77	21.626
544.97	20.915
545.16	22.465
545.36	21.319
545.56	22.540
545.75	21.257
545.95	21.761
546.14	20.966
546.34	21.922
546.53	20.957
546.73	22.033
546.92	20.967
547.12	21.663
547.31	21.397
547.51	21.631
547.70	21.839
547.90	22.087
548.09	21.101
548.29	22.291
548.48	21.894
548.68	22.487
548.87	22.473
549.07	21.194
549.26	21.726
549.46	22.432
549.65	22.598
549.84	21.763
550.04	22.406
550.23	21.805
550.43	23.110
550.62	21.703
550.82	21.470
551.01	21.935
551.21	21.496
551.40	23.289
551.60	22.239
551.79	22.222
551.99	22.524
552.18	21.753
552.38	22.567
552.57	22.104
552.77	21.125
552.96	22.494
553.16	22.061
553.35	21.874
553.54	22.930
553.74	21.764
553.93	22.459
554.13	22.493
554.32	23.000
554.52	23.185
554.71	22.702
554.91	21.920
555.10	22.499
555.29	21.960
555.49	22.871
555.68	22.430
555.88	23.146
556.07	21.838
556.27	22.335
556.46	22.923
556.66	21.924
556.85	22.881
557.04	23.158
557.24	22.761
557.43	23.200
557.63	23.338
557.82	23.370
558.02	23.113
558.21	23.237
558.40	21.843
558.60	22.920
558.79	23.761
558.99	23.382
559.18	22.707
559.38	23.361
559.57	22.795
559.76	23.490
559.96	23.243
560.15	22.690
560.35	23.118
560.54	22.933
560.73	22.700
560.93	23.510
561.12	22.194
561.32	24.223
561.51	22.945
561.70	22.822
561.90	23.634
562.09	24.171
562.29	23.366
562.48	23.084
562.67	23.849
562.87	23.001
563.06	23.210
563.26	24.072
563.45	24.205
563.64	23.974
563.84	23.521
564.03	24.594
564.23	22.817
564.42	23.933
564.61	23.909
564.81	22.899
565.00	24.028
565.20	24.039
565.39	23.845
565.58	24.841
565.78	23.565
565.97	23.633
566.16	24.967
566.36	23.816
566.55	24.564
566.74	23.441
566.94	24.436
567.13	24.511
567.33	23.995
567.52	24.087
567.71	25.120
567.91	23.937
568.10	24.171
568.29	24.247
568.49	24.926
568.68	24.650
568.87	24.091
569.07	24.531
569.26	24.316
569.45	24.557
569.65	24.823
569.84	25.213
570.04	24.452
570.23	24.585
570.42	24.803
570.62	25.527
570.81	24.932
571.00	25.241
571.20	23.985
571.39	23.981
571.58	26.126
571.78	24.675
571.97	24.539
572.16	25.357
572.36	24.201
572.55	24.343
572.74	25.657
572.94	24.451
573.13	25.184
573.32	24.821
573.51	24.894
573.71	24.890
573.90	24.167
574.09	24.994
574.29	24.678
574.48	25.713
574.67	25.176
574.87	23.899
575.06	24.461
575.25	24.944
575.45	24.265
575.64	25.452
575.83	25.260
576.03	24.754
576.22	25.439
576.41	24.808
576.60	25.751
576.80	24.483
576.99	24.414
577.18	25.529
577.38	24.357
577.57	25.514
577.76	25.691
577.95	25.824
578.15	24.397
578.34	25.793
578.53	25.796
578.73	25.487
578.92	24.425
579.11	25.920
579.30	24.593
579.50	26.034
579.69	25.471
579.88	25.160
580.08	24.753
580.27	25.454
580.46	24.889
580.65	25.152
580.85	24.670
581.04	24.300
581.23	25.735
581.42	24.681
581.62	24.511
581.81	25.979
582.00	24.341
582.19	25.179
582.39	24.766
582.58	25.634
582.77	22.679
582.96	25.330
583.16	24.242
583.35	24.018
583.54	24.240
583.73	24.774
583.93	24.082
584.12	24.468
584.31	24.676
584.50	25.159
584.70	23.926
584.89	23.843
585.08	25.155
585.27	25.162
585.47	23.931
585.66	24.263
585.85	24.738
586.04	25.758
586.24	24.144
586.43	25.041
586.62	24.118
586.81	25.383
587.00	23.712
587.20	25.795
587.39	25.374
587.58	27.005
587.77	23.681
587.97	24.669
588.16	24.052
588.35	24.730
588.54	24.154
588.73	24.849
588.93	27.046
589.12	25.089
589.31	23.826
589.50	24.586
589.69	24.301
589.89	24.558
590.08	24.121
590.27	25.106
590.46	24.197
590.65	24.536
590.85	23.948
591.04	25.393
591.23	25.577
591.42	25.329
591.61	23.397
591.81	24.882
592.00	24.412
592.19	24.614
592.38	24.029
592.57	24.674
592.77	24.650
592.96	24.369
593.15	24.379
593.34	24.741
593.53	23.415
593.72	24.968
593.92	24.425
594.11	26.197
594.30	25.431
594.49	23.865
594.68	24.898
594.87	24.956
595.07	25.150
595.26	24.859
595.45	23.922
595.64	24.669
595.83	24.125
596.02	25.230
596.22	24.015
596.41	25.437
596.60	24.744
596.79	24.684
596.98	25.071
597.17	26.760
597.37	24.237
597.56	24.913
597.75	24.363
597.94	24.399
598.13	25.771
598.32	25.035
598.51	24.454
598.71	24.589
598.90	23.723
599.09	24.950
599.28	25.258
599.47	25.594
599.66	23.733
599.85	26.233
600.05	24.056
600.24	26.355
600.43	24.760
600.62	25.998
600.81	24.434
601.00	26.044
601.19	22.904
601.38	25.106
601.58	26.592
601.77	25.956
601.96	24.208
602.15	25.749
602.34	25.393
602.53	25.314
602.72	25.175
602.91	25.778
603.10	24.544
603.30	25.526
603.49	25.802
603.68	25.948
603.87	23.989
604.06	25.129
604.25	24.853
604.44	24.989
604.63	24.807
604.82	25.200
605.01	25.842
605.21	25.141
605.40	25.153
605.59	25.611
605.78	24.630
605.97	26.154
606.16	25.932
606.35	25.736
606.54	25.963
606.73	24.774
606.92	25.526
607.11	25.470
607.30	25.760
607.50	25.992
607.69	24.284
607.88	24.309
608.07	23.711
608.26	24.991
608.45	24.748
608.64	26.035
608.83	25.450
609.02	26.460
609.21	25.392
609.40	25.125
609.59	24.386
609.78	25.439
609.97	24.078
610.16	25.193
610.35	24.984
610.55	25.455
610.74	26.174
610.93	25.102
611.12	25.838
611.31	24.478
611.50	24.475
611.69	25.819
611.88	24.318
612.07	25.799
612.26	24.133
612.45	25.126
612.64	24.031
612.83	24.512
613.02	23.475
613.21	24.859
613.40	22.037
613.59	23.971
613.78	22.064
613.97	25.928
614.16	22.966
614.35	24.813
614.54	23.642
614.73	24.189
614.92	22.858
615.11	24.827
615.30	22.448
615.49	21.891
615.68	21.997
615.87	22.841
616.07	22.396
616.26	23.672
616.45	22.319
616.64	23.973
616.83	21.681
617.02	24.842
617.21	21.577
617.40	23.952
617.59	22.129
617.78	23.593
617.97	21.718
618.16	22.005
618.35	21.558
618.54	22.583
618.73	21.546
618.92	23.892
619.11	22.393
619.30	25.342
619.49	22.199
619.68	23.464
619.86	22.350
620.05	22.660
620.24	21.383
620.43	21.938
620.62	21.122
620.81	22.743
621.00	22.176
621.19	24.426
621.38	21.570
621.57	23.246
621.76	20.699
621.95	24.220
622.14	22.207
622.33	22.935
622.52	21.578
622.71	23.547
622.90	20.459
623.09	23.571
623.28	22.554
623.47	24.299
623.66	22.854
623.85	23.239
624.04	21.012
624.23	22.736
624.42	20.663
624.61	22.104
624.80	21.050
624.99	21.956
625.18	20.961
625.36	21.296
625.55	20.926
625.74	21.681
625.93	20.092
626.12	22.031
626.31	21.037
626.50	22.443
626.69	21.279
626.88	22.885
627.07	23.096
627.26	22.431
627.45	23.265
627.64	22.894
627.83	21.230
628.02	22.949
628.20	22.694
628.39	24.039
628.58	22.401
628.77	22.546
628.96	21.072
629.15	22.381
629.34	21.941
629.53	21.039
629.72	21.307
629.91	22.681
630.10	21.363
630.29	21.810
630.47	20.461
630.66	21.973
630.85	21.907
631.04	22.619
631.23	21.215
631.42	21.097
631.61	20.099
631.80	21.987
631.99	21.620
632.18	21.255
632.36	19.427
632.55	21.530
632.74	18.716
632.93	21.533
633.12	21.977
633.31	21.247
633.50	21.160
633.69	21.048
633.88	18.657
634.06	21.715
634.25	19.834
634.44	21.438
634.63	20.476
634.82	21.938
635.01	20.389
635.20	22.855
635.39	20.827
635.57	21.308
635.76	20.861
635.95	21.851
636.14	18.810
636.33	22.747
636.52	19.874
636.71	22.360
636.89	21.007
637.08	22.276
637.27	19.060
637.46	20.741
637.65	19.582
637.84	20.881
638.03	19.365
638.21	20.707
638.40	18.881
638.59	21.049
638.78	19.132
638.97	20.727
639.16	20.224
639.34	21.712
639.53	17.777
639.72	20.314
639.91	19.579
640.10	20.809
640.29	19.476
640.47	20.643
640.66	17.467
640.85	22.777
641.04	17.931
641.23	19.699
641.42	18.834
641.60	19.248
641.79	18.470
641.98	19.834
642.17	18.084
642.36	21.476
642.54	18.301
642.73	19.360
642.92	16.760
643.11	18.939
643.30	16.155
643.49	19.236
643.67	15.401
643.86	20.644
644.05	16.023
644.24	21.221
644.43	17.709
644.61	18.853
644.80	16.388
644.99	17.950
645.18	18.821
645.37	18.043
645.55	15.985
645.74	18.304
645.93	17.885
646.12	19.958
646.31	18.249
646.49	17.552
646.68	17.745
646.87	18.039
647.06	16.112
647.24	19.537
647.43	15.640
647.62	18.823
647.81	16.313
648.00	18.677
648.18	15.301
648.37	18.572
648.56	17.108
648.75	18.363
648.93	16.198
649.12	18.193
649.31	16.533
649.50	19.856
649.68	16.351
649.87	18.002
650.06	13.958
650.25	19.438
650.43	16.761
650.62	19.710
650.81	17.167
651.00	17.223
651.18	15.799
651.37	18.237
651.56	15.854
651.75	20.447
651.93	16.133
652.12	18.656
652.31	15.809
652.50	17.609
652.68	17.451
652.87	19.284
653.06	18.434
653.25	19.889
653.43	16.603
653.62	18.201
653.81	15.944
654.00	19.952
654.18	13.646
654.37	19.036
654.56	17.462
654.74	15.944
654.93	13.926
655.12	18.089
655.31	16.500
655.49	17.952
655.68	14.502
655.87	16.667
656.05	14.422
656.24	16.221
656.43	11.963
656.62	16.802
656.80	13.653
656.99	15.281
657.18	12.559
657.36	17.418
657.55	17.528
657.74	15.736
657.93	17.774
658.11	18.799
658.30	16.240
658.49	15.474
658.67	15.625
658.86	15.290
659.05	14.640
659.23	17.787
659.42	16.365
659.61	17.400
659.79	16.319
659.98	18.308
660.17	17.189
660.35	18.041
660.54	17.144
660.73	19.838
660.91	17.383
661.10	18.484
661.29	15.619
661.47	17.435
661.66	15.625
661.85	18.015
662.03	16.069
662.22	13.917
662.41	12.000
662.59	15.523
662.78	13.479
662.97	14.277
663.15	12.025
663.34	12.268
663.53	8.908
663.71	14.676
663.90	11.295
664.09	14.301
664.27	12.670
664.46	12.105
664.65	10.078
664.83	11.840
665.02	11.315
665.21	9.961
665.39	9.709
665.58	11.807
665.77	11.115
665.95	11.819
666.14	7.437
666.32	10.444
666.51	10.334
666.70	9.781
666.88	11.259
667.07	10.123
667.26	8.604
667.44	9.981
667.63	10.152
667.81	9.605
668.00	10.134
668.19	12.635
668.37	10.093
668.56	12.009
668.75	8.574
668.93	13.026
669.12	9.104
669.30	12.213
669.49	9.181
669.68	9.881
669.86	10.429
670.05	11.720
670.23	8.653
670.42	9.946
670.61	8.498
670.79	11.536
670.98	11.209
671.16	13.097
671.35	9.119
671.54	11.199
671.72	7.831
671.91	10.769
672.09	8.579
672.28	11.385
672.46	13.303
672.65	10.455
672.84	10.365
673.02	12.035
673.21	5.964
673.39	10.118
673.58	9.911
673.77	10.518
673.95	8.795
674.14	12.394
674.32	7.241
674.51	12.291
674.69	8.753
674.88	9.654
675.07	8.237
675.25	13.201
675.44	9.058
675.62	9.370
675.81	8.196
675.99	14.765
676.18	11.717
676.36	10.422
676.55	5.647
676.74	12.110
676.92	10.723
677.11	11.997
677.29	10.547
677.48	11.717
677.66	11.808
677.85	10.993
678.03	9.851
678.22	12.406
678.40	11.133
678.59	9.272
678.78	7.790
678.96	13.092
679.15	7.210
679.33	10.479
679.52	13.240
679.70	11.569
679.89	10.168
680.07	13.921
680.26	10.197
680.44	13.144
680.63	12.286
680.81	13.227
681.00	10.722
681.18	13.329
681.37	11.388
681.55	16.074
681.74	13.944
681.92	14.680
682.11	14.150
682.29	13.913
682.48	11.100
682.66	13.737
682.85	11.527
683.03	13.039
683.22	12.870
683.40	17.143
683.59	12.859
683.77	13.524
683.96	9.924
684.14	13.682
684.33	7.710
684.51	17.224
684.70	11.006
684.88	17.823
685.07	13.633
685.25	15.008
685.44	10.004
685.62	15.976
685.81	11.556
685.99	14.297
686.18	10.160
686.36	12.556
686.55	10.605
686.73	13.669
686.92	13.660
687.10	16.133
687.29	12.088
687.47	14.416
687.65	15.638
687.84	13.969
688.02	16.315
688.21	16.250
688.39	12.500
688.58	18.607
688.76	12.476
688.95	14.308
689.13	12.449
689.32	18.093
689.50	13.597
689.68	16.116
689.87	14.715
690.05	15.985
690.24	17.502
690.42	15.438
690.61	18.027
690.79	16.047
690.98	14.884
691.16	16.660
691.34	11.469
691.53	16.096
691.71	15.288
691.90	15.070
692.08	11.789
692.27	17.301
692.45	16.718
692.63	16.222
692.82	18.647
693.00	17.963
693.19	13.187
693.37	15.858
693.56	14.773
693.74	18.038
693.92	16.532
694.11	17.359
694.29	16.999
694.48	20.871
694.66	16.284
694.84	18.768
695.03	14.830
695.21	21.727
695.40	20.949
695.58	21.171
695.76	15.359
695.95	20.934
696.13	15.231
696.32	19.905
696.50	23.699
696.68	22.587
696.87	15.640
697.05	20.174
697.24	18.701
697.42	24.078
697.60	20.712
697.79	23.721
697.97	21.834
698.16	25.165
698.34	21.137
698.52	23.808
698.71	24.084
698.89	24.732
699.07	24.361
699.26	27.678
699.44	25.150
699.63	27.067
699.81	24.197
699.99	26.932
700.18	25.368
700.36	28.362
700.54	23.890
700.73	26.745
700.91	24.186
701.09	26.112
701.28	23.014
701.46	26.896
701.64	21.830
701.83	28.273
702.01	21.229
702.20	28.666
702.38	22.853
702.56	21.495
702.75	18.453
702.93	25.118
703.11	19.310
703.30	23.135
703.48	19.595
703.66	23.840
703.85	22.437
704.03	25.831
704.21	20.119
704.40	26.546
704.58	20.521
704.76	23.696
704.95	18.919
705.13	23.632
705.31	19.479
705.50	25.013
705.68	19.408
705.86	26.876
706.04	20.603
706.23	24.161
706.41	21.173
706.59	21.491
706.78	19.277
706.96	22.520
707.14	22.210
707.33	27.706
707.51	21.639
707.69	24.986
707.88	21.856
708.06	24.415
708.24	23.341
708.42	27.145
708.61	23.957
708.79	24.279
708.97	26.142
709.16	24.679
709.34	20.265
709.52	22.436
709.71	24.946
709.89	25.320
710.07	19.481
710.25	25.514
710.44	20.573
710.62	24.168
710.80	25.903
710.98	27.565
711.17	24.134
711.35	27.291
711.53	23.679
711.72	28.200
711.90	25.566
712.08	23.992
712.26	23.623
712.45	27.629
712.63	26.935
712.81	30.687
712.99	26.375
713.18	28.288
713.36	24.847
713.54	25.851
713.72	22.461
713.91	24.050
714.09	21.121
714.27	24.935
714.45	23.309
714.64	25.731
714.82	21.648
715.00	26.592
715.18	23.448
715.37	27.389
715.55	24.280
715.73	27.871
715.91	24.276
716.10	28.864
716.28	22.343
716.46	25.796
716.64	21.443
716.83	26.465
717.01	21.159
717.19	25.200
717.37	18.609
717.55	27.563
717.74	20.598
717.92	23.884
718.10	21.217
718.28	25.673
718.47	19.825
718.65	23.460
718.83	17.346
719.01	23.568
719.19	18.666
719.38	20.664
719.56	20.177
719.74	23.019
719.92	13.417
720.10	20.510
720.29	19.180
720.47	23.650
720.65	18.611
720.83	19.206
721.01	16.426
721.20	20.811
721.38	18.316
721.56	19.594
721.74	19.694
721.92	19.577
722.11	17.566
722.29	22.576
722.47	20.028
722.65	23.849
722.83	19.884
723.01	19.425
723.20	18.361
723.38	20.417
723.56	17.176
723.74	24.838
723.92	18.116
724.10	22.199
724.29	12.686
724.47	21.185
724.65	15.450
724.83	25.090
725.01	14.337
725.19	24.289
725.38	16.578
725.56	20.446
725.74	21.241
725.92	21.509
726.10	16.927
726.28	19.644
726.46	19.379
726.65	20.845
726.83	18.128
727.01	22.174
727.19	22.736
727.37	22.500
727.55	19.061
727.73	20.994
727.92	18.819
728.10	21.419
728.28	15.775
728.46	22.390
728.64	18.961
728.82	21.267
729.00	18.298
729.19	20.548
729.37	21.220
729.55	21.720
729.73	15.953
729.91	23.994
730.09	23.650
730.27	21.891
730.45	19.119
730.63	21.691
730.82	20.013
731.00	19.629
731.18	17.687
731.36	23.683
731.54	19.160
731.72	23.764
731.90	18.644
732.08	24.359
732.26	17.200
732.45	23.009
732.63	22.872
732.81	27.651
732.99	21.549
733.17	26.705
733.35	21.383
733.53	26.106
733.71	21.577
733.89	24.922
734.07	24.618
734.25	28.777
734.44	21.969
734.62	24.113
734.80	21.607
734.98	27.052
735.16	22.421
735.34	23.454
735.52	22.155
735.70	26.580
735.88	23.043
736.06	26.022
736.24	28.038
736.42	21.362
736.60	23.511
736.78	24.306
736.97	20.927
737.15	24.897
737.33	16.872
737.51	25.812
737.69	20.837
737.87	25.058
738.05	22.989
738.23	23.990
738.41	22.302
738.59	23.306
738.77	24.158
738.95	31.077
739.13	24.920
739.31	25.118
739.49	21.132
739.67	25.443
739.85	23.725
740.03	21.624
740.21	24.593
740.39	24.561
740.57	26.194
740.75	30.352
740.93	20.142
741.11	30.565
741.30	24.939
741.48	25.429
741.66	19.649
741.84	21.346
742.02	24.103
742.20	26.199
742.38	21.446
742.56	23.947
742.74	22.723
742.92	26.514
743.10	23.342
743.28	29.758
743.46	22.753
743.64	25.046
743.82	21.408
744.00	23.439
744.18	25.821
744.36	25.067
744.54	21.344
744.72	27.366
744.90	23.954
745.08	22.394
745.26	23.902
745.44	24.976
745.62	20.846
745.80	23.013
745.98	23.597
746.16	21.520
746.34	25.803
746.52	26.639
746.70	20.903
746.87	25.436
747.05	22.553
747.23	26.892
747.41	20.532
747.59	23.931
747.77	21.486
747.95	21.833
748.13	20.579
748.31	20.324
748.49	26.707
748.67	25.787
748.85	23.093
749.03	23.200
749.21	25.342
749.39	27.482
749.57	22.417
749.75	25.611
749.93	27.711
750.11	24.373
750.29	20.932
750.47	28.084
750.65	19.415
750.83	28.931
751.01	23.719
751.18	27.273
751.36	23.251
751.54	22.538
751.72	23.177
751.90	25.872
752.08	14.796
752.26	21.946
752.44	25.622
752.62	26.436
752.80	20.226
752.98	25.797
753.16	22.300
753.34	21.857
753.52	18.220
753.69	24.332
753.87	24.402
754.05	25.382
754.23	18.480
754.41	23.235
754.59	21.970
754.77	26.026
754.95	25.507
755.13	26.409
755.31	24.899
755.49	25.383
755.66	21.954
755.84	22.093
756.02	27.607
756.20	31.604
756.38	20.146
756.56	22.017
756.74	22.610
756.92	23.320
757.10	25.333
757.28	25.729
757.45	26.243
757.63	25.495
757.81	20.809
757.99	27.207
758.17	23.241
758.35	23.111
758.53	31.378
758.71	22.759
758.88	23.992
759.06	26.398
759.24	19.325
759.42	21.667
759.60	22.378
759.78	19.539
759.96	14.902
760.13	18.598
760.31	10.577
760.49	15.579
760.67	11.770
760.85	14.340
761.03	12.274
761.21	15.670
761.38	10.358
761.56	12.593
761.74	8.492
761.92	18.738
762.10	10.531
762.28	16.147
762.46	10.741
762.63	12.900
762.81	8.499
762.99	17.428
763.17	13.743
763.35	13.170
763.53	11.326
763.70	17.024
763.88	14.060
764.06	16.775
764.24	11.075
764.42	17.795
764.60	16.278
764.77	15.650
764.95	17.626
765.13	16.997
765.31	13.782
765.49	18.566
765.66	17.080
765.84	18.855
766.02	18.857
766.20	16.457
766.38	16.730
766.56	20.323
766.73	21.157
766.91	17.548
767.09	18.638
767.27	22.122
767.45	16.652
767.62	23.824
767.80	16.976
767.98	21.450
768.16	15.161
768.33	26.382
768.51	22.421
768.69	24.628
768.87	19.137
769.05	20.561
769.22	14.443
769.40	23.982
769.58	18.882
769.76	25.397
769.94	23.049
770.11	22.275
770.29	23.507
770.47	25.830
770.65	23.608
770.82	19.325
771.00	21.835
771.18	23.659
771.36	20.312
771.53	20.000
771.71	15.395
771.89	20.952
772.07	17.486
772.25	24.724
772.42	17.323
772.60	22.467
772.78	17.271
772.96	27.075
773.13	23.489
773.31	20.699
773.49	23.367
773.67	18.836
773.84	22.478
774.02	16.296
774.20	24.234
774.37	21.140
774.55	12.230
774.73	20.717
774.91	16.388
775.08	18.813
775.26	26.608
775.44	24.441
775.62	19.374
775.79	17.791
775.97	16.615
776.15	19.744
776.32	19.723
776.50	28.992
776.68	25.904
776.86	19.565
777.03	24.209
777.21	21.821
777.39	24.383
777.56	15.336
777.74	19.729
777.92	19.054
778.10	17.685
778.27	23.256
778.45	17.808
778.63	24.329
778.80	12.102
778.98	26.534
779.16	24.456
779.34	13.208
779.51	18.865
779.69	26.159
779.87	17.204
780.04	25.070
780.22	18.088
780.40	22.663
780.57	19.298
780.75	17.179
780.93	19.152
781.10	24.956
781.28	23.064
781.46	19.217
781.63	13.554
781.81	25.613
781.99	18.421
782.16	16.060
782.34	10.943
782.52	16.264
782.69	25.000
782.87	17.736
783.05	16.074
783.22	18.393
783.40	19.401
783.58	19.064
783.75	14.605
783.93	22.675
784.11	13.884
784.28	22.664
784.46	16.931
784.64	21.250
784.81	11.470
784.99	25.121
785.17	20.777
785.34	18.327
785.52	13.143
785.69	20.397
785.87	21.043
786.05	19.464
786.22	23.208
786.40	24.635
786.58	21.477
786.75	23.290
786.93	22.359
787.11	18.881
787.28	22.852
787.46	14.801
787.63	11.765
787.81	18.579
787.99	11.424
788.16	14.098
788.34	14.791
788.51	18.126
788.69	12.935
788.87	15.120
789.04	15.326
789.22	14.949
789.39	10.049
789.57	20.871
789.75	12.066
789.92	13.422
790.10	13.773
790.27	19.857
790.45	13.112
790.63	19.936
790.80	13.107
790.98	17.958
791.15	19.410
791.33	20.392
791.51	10.557
791.68	12.388
791.86	17.913
792.03	15.162
792.21	14.890
792.39	11.525
792.56	21.291
792.74	26.654
792.91	14.815
793.09	18.278
793.26	16.562
793.44	11.006
793.62	16.535
793.79	10.537
793.97	25.341
794.14	20.696
794.32	12.048
794.49	18.472
794.67	5.285
794.84	10.901
795.02	21.361
795.20	14.178
795.37	17.200
795.55	20.072
795.72	15.485
795.90	19.493
796.07	20.833
796.25	16.817
796.42	18.357
796.60	14.357
796.77	19.395
796.95	11.935
797.13	13.391
797.30	21.864
797.48	12.026
797.65	14.286
797.83	14.210
798.00	9.328
798.18	13.787
798.35	23.448
798.53	18.641
798.70	14.336
798.88	14.683
799.05	19.073
799.23	16.393
799.40	18.505
799.58	20.348
799.75	24.607
799.93	16.444
800.10	26.692
800.28	13.251
800.45	14.487
800.63	14.639
800.80	13.489
800.98	21.928
801.15	18.773
801.33	16.279
801.50	12.545
801.68	15.000
801.85	13.127
802.03	21.443
802.20	21.010
802.38	23.783
802.55	14.523
802.73	15.992
802.90	14.747
803.08	20.792
803.25	27.255
803.43	20.287
803.60	18.102
803.78	10.806
803.95	9.091
804.13	17.939
804.30	6.040
804.48	13.755
804.65	18.652
804.83	18.109
805.00	20.971
805.17	13.859
805.35	20.258
805.52	22.403
805.70	22.407
805.87	20.611
806.05	16.867
806.22	21.042
806.40	18.904
806.57	25.194
806.75	22.336
806.92	23.457
807.09	15.789
807.27	16.939
807.44	24.165
807.62	15.970
807.79	18.505
807.97	15.600
808.14	14.345
808.31	14.035
808.49	12.530
808.66	9.136
808.84	16.097
809.01	17.931
809.19	1.878
809.36	12.526
809.53	15.103
809.71	13.462
809.88	23.356
810.06	17.505
810.23	17.149
810.41	21.593
810.58	16.019
810.75	10.263
810.93	11.872
811.10	12.664
811.28	7.865
811.45	21.805
811.62	20.716
811.80	-2.764
811.97	21.106
812.15	16.401
812.32	10.995
812.49	14.496
812.67	15.513
812.84	9.615
813.02	20.899
813.19	13.559
813.36	6.906
813.54	5.290
813.71	19.072
813.89	12.435
814.06	10.025
814.23	1.176
814.41	10.859
814.58	24.242
814.75	13.896
814.93	12.871
815.10	13.263
815.28	13.433
815.45	20.141
815.62	8.333
815.80	1.754
815.97	7.750
816.14	16.180
816.32	13.437
816.49	8.707
816.66	7.200
816.84	20.729
817.01	18.143
817.18	4.961
817.36	15.938
817.53	14.806
817.71	20.566
817.88	12.731
818.05	16.253
818.23	9.002
818.40	6.133
818.57	14.123
818.75	17.263
818.92	17.544
819.09	3.778
819.27	-1.250
819.44	3.563
819.61	9.007
819.79	11.409
819.96	-2.511
820.13	16.466
820.31	14.361
820.48	16.293
820.65	11.927
820.82	11.864
821.00	12.864
821.17	10.565
821.34	16.454
821.52	14.406
821.69	12.716
821.86	7.277
822.04	11.439
822.21	11.879
822.38	12.035
822.56	11.325
822.73	20.588
822.90	16.448
823.07	20.952
823.25	18.418
823.42	20.031
823.59	19.078
823.77	23.877
823.94	20.517
824.11	23.759
824.29	17.136
824.46	22.888
824.63	20.929
824.80	21.739
824.98	17.591
825.15	20.318
825.32	13.645
825.49	16.101
825.67	16.011
825.84	17.086
826.01	14.333
826.19	20.750
826.36	11.759
826.53	15.103
826.70	9.856
826.88	16.777
827.05	12.195
827.22	8.711
827.39	13.361
827.57	12.336
827.74	12.562
827.91	18.064
828.08	10.218
828.26	12.073
828.43	10.317
828.60	16.942
828.77	12.683
828.95	14.906
829.12	12.347
829.29	11.268
829.46	16.000
829.64	6.582
829.81	5.789
829.98	9.950
830.15	16.314
830.32	14.698
830.50	3.488
830.67	10.927
830.84	6.522
831.01	10.973
831.19	12.407
831.36	13.347
831.53	8.520
831.70	8.046
831.87	12.288
832.05	16.121
832.22	20.889
832.39	12.057
832.56	7.124
832.74	3.456
832.91	12.219
833.08	23.932
833.25	2.709
833.42	9.186
833.60	14.545
833.77	7.639
833.94	11.821
834.11	10.456
834.28	12.500
834.45	9.367
834.63	14.616
834.80	14.009
834.97	13.176
835.14	8.454
835.31	9.784
835.49	12.865
835.66	7.875
835.83	4.866
836.00	8.931
836.17	16.815
836.34	12.152
836.52	11.196
836.69	21.036
836.86	13.849
837.03	10.923
837.20	8.333
837.37	20.079
837.55	18.958
837.72	5.695
837.89	21.465
838.06	13.143
838.23	14.951
838.40	13.253
838.58	10.951
838.75	16.172
838.92	16.099
839.09	17.182
839.26	21.122
839.43	20.819
839.60	24.024
839.78	33.117
839.95	16.076
840.12	19.454
840.29	18.983
840.46	13.804
840.63	24.138
840.80	16.505
840.98	8.974
841.15	17.188
841.32	19.091
841.49	6.536
841.66	28.608
841.83	17.702
842.00	4.651
842.17	21.023
842.34	14.865
842.52	30.000
842.69	8.475
842.86	20.155
843.03	26.568
843.20	7.663
843.37	20.664
843.54	19.476
843.71	16.071
843.88	18.667
844.06	30.000
844.23	12.381
844.40	22.667
844.57	27.072
844.74	12.805
844.91	26.570
845.08	31.250
845.25	19.324
845.42	37.634
845.59	19.474
845.76	47.692
845.94	50.495
846.11	32.192
846.28	28.571
846.45	33.708
846.62	14.286
846.79	32.877
846.96	13.580
847.13	27.907
847.30	11.724
847.47	19.424
847.64	50.388
847.81	40.678
847.98	7.538
848.15	28.467
848.32	28.302
848.50	47.904
848.67	16.667
848.84	0.685
849.01	29.050
849.18	42.784
849.35	29.688
849.52	13.793
849.69	19.868
849.86	27.891
850.03	35.075
850.20	22.222
850.37	5.042
850.54	41.899
850.71	15.894
850.88	32.402
851.05	17.797
851.22	19.663
851.39	27.928
851.56	30.357
851.73	33.333
851.90	27.329
852.07	76.692
852.24	46.053
852.41	1.905
852.58	33.099
852.75	50.575
852.92	29.268
853.09	51.563
853.26	17.460
853.43	20.755
853.60	29.213
853.77	11.392
853.94	47.445
854.11	-1.399
854.28	24.000
854.45	-13.281
854.62	18.274
854.79	51.634
854.96	25.600
855.13	39.766
855.30	25.510
855.47	-4.310
855.64	32.331
855.81	37.097
855.98	20.635
856.15	9.910
856.32	27.044
856.49	2.326
856.66	9.790
856.83	12.121
857.00	24.837
857.17	34.615
857.34	-7.368
857.51	18.705
857.68	41.081
857.85	26.136
858.02	20.741
858.19	38.739
858.36	21.818
858.53	26.452
858.70	37.725
858.87	40.506
859.04	10.484
859.21	1.351
859.38	11.404
859.55	71.642
859.72	24.138
859.89	37.410
860.05	60.360
860.22	30.890
860.39	38.393
860.56	25.191
860.73	56.098
860.90	22.018
861.07	28.947
861.24	5.921
861.41	39.815
861.58	-16.667
861.75	21.481
861.92	21.711
862.09	22.963
862.26	17.094
862.43	5.941
862.59	29.412
862.76	42.657
862.93	24.719
863.10	19.048
863.27	-18.803
863.44	45.977
863.61	3.650
863.78	44.571
863.95	37.908
864.12	44.253
864.29	10.256
864.45	-5.172
864.62	27.684
864.79	-9.302
864.96	20.325
865.13	-8.108
865.30	41.615
865.47	21.951
865.64	30.935
865.81	29.771
865.97	36.000
866.14	34.694
866.31	20.833
866.48	6.623
866.65	30.769
866.82	46.835
866.99	13.675
867.16	24.060
867.33	8.602
867.49	56.790
867.66	21.649
867.83	8.661
868.00	23.973
868.17	42.149
868.34	56.140
868.51	-25.714
868.67	54.430
868.84	-0.833
869.01	40.800
869.18	12.766
869.35	19.380
869.52	17.460
869.69	33.562
869.85	40.187
870.02	25.962
870.19	34.746
870.36	60.000
870.53	25.000
870.70	44.025
870.86	24.000
871.03	25.926
871.20	0.917
871.37	6.897
871.54	56.081
871.71	25.000
871.87	-3.774
872.04	13.143
872.21	20.870
872.38	30.081
872.55	30.247
872.72	-21.875
872.88	48.603
873.05	32.184
873.22	44.218
873.39	-6.122
873.56	31.953
873.72	26.471
873.89	50.311
874.06	-23.881
874.23	41.525
874.40	26.000
874.56	15.789
874.73	-28.049
874.90	22.881
875.07	27.143
875.24	0.000
875.40	37.815
875.57	34.862
875.74	44.000
875.91	12.844
876.08	23.478
876.24	-24.419
876.41	69.600
876.58	40.957
876.75	24.113
876.92	-0.735
877.08	52.941
877.25	30.435
877.42	71.094
877.59	23.469
877.75	16.667
877.92	3.571
878.09	-4.167
878.26	30.539
878.42	19.375
878.59	-15.652
878.76	20.395
878.93	31.343
879.09	-23.232
879.26	21.951
879.43	13.514
879.60	-0.699
879.76	21.023
879.93	27.778
880.10	4.667
880.27	-13.665
880.43	25.698
880.60	-5.023
880.77	2.273
880.94	-13.930
881.10	14.454
881.27	12.787
881.44	10.198
881.61	15.247
881.77	10.899
881.94	4.536
882.11	5.106
882.28	4.854
882.44	5.096
882.61	11.955
882.78	11.153
882.94	11.801
883.11	13.906
883.28	7.748
883.45	15.760
883.61	11.677
883.78	10.012
883.95	11.620
884.11	13.282
884.28	10.567
>>>>>End Processed Spectral Data<<<<<
