SpectraSuite Data File
++++++++++++++++++++++++++++++++++++
Date: Sat Sep 21 03:00:34 EST 2019
User: sgrac
Dark Spectrum Present: Yes
Reference Spectrum Present: Yes
Number of Sampled Component Spectra: 1
Spectrometers: USB4E01596
Integration Time (usec): 100000 (USB4E01596)
Spectra Averaged: 1 (USB4E01596)
Boxcar Smoothing: 0 (USB4E01596)
Correct for Electrical Dark: No (USB4E01596)
Strobe/Lamp Enabled: Yes (USB4E01596)
Correct for Detector Non-linearity: No (USB4E01596)
Correct for Stray Light: No (USB4E01596)
Number of Pixels in Processed Spectrum: 3648
>>>>>Begin Processed Spectral Data<<<<<
178.44	-78.571
178.66	-78.571
178.87	-78.571
179.09	14.286
179.30	-315.385
179.52	0.000
179.74	-1150.000
179.95	1100.000
180.17	573.333
180.38	7900.000
180.60	0.000
180.82	200.000
181.03	-163.158
181.25	73.913
181.46	-45.161
181.68	295.833
181.89	4600.000
182.11	94.286
182.33	-80.000
182.54	-181.250
182.76	-500.000
182.97	580.000
183.19	1750.000
183.40	200.000
183.62	-55.556
183.84	44.444
184.05	191.304
184.27	-50.000
184.48	771.429
184.70	148.000
184.91	-246.667
185.13	182.222
185.34	-50.000
185.56	78.333
185.78	0.000
185.99	413.333
186.21	86.207
186.42	326.667
186.64	200.000
186.85	214.815
187.07	83.636
187.28	153.333
187.50	-133.333
187.72	580.000
187.93	-3100.000
188.15	102.000
188.36	-235.294
188.58	-1500.000
188.79	209.091
189.01	211.111
189.22	900.000
189.44	1900.000
189.65	113.333
189.87	450.000
190.09	-680.000
190.30	437.500
190.52	-1300.000
190.73	125.000
190.95	153.571
191.16	117.778
191.38	340.000
191.59	171.429
191.81	108.333
192.02	208.511
192.24	288.235
192.45	-840.000
192.67	268.571
192.88	191.667
193.10	104.000
193.31	250.000
193.53	-4300.000
193.74	80.488
193.96	204.167
194.18	167.742
194.39	-238.889
194.61	315.789
194.82	342.857
195.04	140.476
195.25	3100.000
195.47	141.463
195.68	144.681
195.90	660.000
196.11	121.818
196.33	38.298
196.54	-2966.667
196.76	71.429
196.97	-333.333
197.19	178.571
197.40	235.294
197.62	103.125
197.83	141.892
198.05	-189.474
198.26	234.286
198.48	97.222
198.69	88.372
198.91	105.882
199.12	-80.000
199.34	-260.000
199.55	-100.000
199.77	925.000
199.98	40.000
200.20	111.268
200.41	350.000
200.63	-88.889
200.84	129.412
201.06	630.769
201.27	159.459
201.49	800.000
201.70	192.593
201.91	132.609
202.13	127.536
202.34	69.811
202.56	-428.571
202.77	333.333
202.99	285.714
203.20	2050.000
203.42	937.500
203.63	113.953
203.85	22.857
204.06	127.778
204.28	-480.000
204.49	122.857
204.71	123.077
204.92	0.000
205.14	-314.286
205.35	83.333
205.56	-1100.000
205.78	238.095
205.99	850.000
206.21	-83.871
206.42	83.871
206.64	225.000
206.85	125.000
207.07	-323.077
207.28	400.000
207.50	-342.105
207.71	133.333
207.93	215.909
208.14	452.941
208.35	42.105
208.57	-2800.000
208.78	338.462
209.00	338.889
209.21	-1500.000
209.43	48.276
209.64	152.941
209.86	285.714
210.07	0.000
210.28	-217.647
210.50	112.245
210.71	133.333
210.93	123.810
211.14	-122.222
211.36	-41.935
211.57	-4.762
211.78	-78.261
212.00	0.000
212.21	160.465
212.43	-186.364
212.64	103.448
212.86	-425.000
213.07	-77.273
213.29	39.474
213.50	4300.000
213.71	164.151
213.93	585.714
214.14	104.545
214.36	2100.000
214.57	161.538
214.78	-18.750
215.00	1900.000
215.21	86.111
215.43	172.000
215.64	151.282
215.86	108.571
216.07	-1200.000
216.28	24.000
216.50	-614.286
216.71	-1020.000
216.93	112.766
217.14	90.625
217.35	214.815
217.57	189.286
217.78	450.000
218.00	150.000
218.21	242.105
218.42	-1266.667
218.64	400.000
218.85	-411.111
219.07	307.143
219.28	1650.000
219.49	125.000
219.71	1366.667
219.92	102.778
220.14	145.833
220.35	210.000
220.56	89.744
220.78	147.059
220.99	-700.000
221.21	261.905
221.42	91.667
221.63	172.500
221.85	111.290
222.06	121.429
222.28	131.818
222.49	400.000
222.70	0.000
222.92	172.222
223.13	83.333
223.34	-700.000
223.56	23.684
223.77	68.539
223.99	243.590
224.20	66.667
224.41	200.000
224.63	202.778
224.84	179.310
225.05	67.857
225.27	134.286
225.48	71.739
225.69	85.714
225.91	151.852
226.12	150.000
226.34	114.706
226.55	51.852
226.76	153.226
226.98	52.000
227.19	-45.455
227.40	66.116
227.62	60.976
227.83	67.000
228.04	48.352
228.26	31.683
228.47	31.034
228.69	52.632
228.90	43.662
229.11	28.148
229.33	17.874
229.54	12.500
229.75	18.261
229.97	10.730
230.18	20.072
230.39	9.705
230.61	21.384
230.82	9.544
231.03	7.054
231.25	14.478
231.46	22.628
231.67	40.316
231.89	22.353
232.10	15.789
232.31	19.231
232.53	-4.520
232.74	20.312
232.95	48.193
233.17	29.480
233.38	8.209
233.59	20.588
233.81	42.233
234.02	45.395
234.23	17.647
234.45	32.895
234.66	32.768
234.87	0.671
235.09	14.074
235.30	-2.299
235.51	35.922
235.73	20.126
235.94	11.399
236.15	18.367
236.36	32.804
236.58	41.232
236.79	30.890
237.00	19.324
237.22	26.543
237.43	41.176
237.64	12.664
237.86	16.848
238.07	42.211
238.28	16.393
238.50	9.565
238.71	9.467
238.92	22.024
239.13	39.429
239.35	11.189
239.56	18.229
239.77	45.366
239.99	20.755
240.20	8.421
240.41	10.345
240.63	16.194
240.84	20.717
241.05	16.788
241.26	11.983
241.48	19.764
241.69	15.823
241.90	9.859
242.12	11.480
242.33	14.440
242.54	4.264
242.75	6.831
242.97	10.345
243.18	9.259
243.39	10.119
243.61	3.448
243.82	12.587
244.03	2.014
244.24	0.767
244.46	3.852
244.67	-2.545
244.88	15.180
245.09	9.182
245.31	-0.960
245.52	23.713
245.73	15.759
245.95	11.940
246.16	2.820
246.37	14.535
246.58	9.346
246.80	5.742
247.01	1.357
247.22	6.494
247.43	5.056
247.65	4.526
247.86	2.248
248.07	2.341
248.28	3.949
248.50	5.325
248.71	6.535
248.92	5.022
249.13	4.762
249.35	5.391
249.56	6.661
249.77	4.668
249.98	-0.765
250.20	0.222
250.41	7.709
250.62	4.578
250.83	7.216
251.05	6.902
251.26	4.900
251.47	13.153
251.68	6.764
251.90	8.696
252.11	14.634
252.32	5.734
252.53	5.348
252.75	-2.720
252.96	15.865
253.17	5.687
253.38	8.514
253.59	3.672
253.81	7.956
254.02	7.994
254.23	8.853
254.44	9.419
254.66	7.107
254.87	6.498
255.08	-1.282
255.29	5.221
255.50	17.419
255.72	18.119
255.93	13.625
256.14	15.682
256.35	11.007
256.57	11.024
256.78	19.863
256.99	14.136
257.20	7.767
257.41	24.431
257.63	8.180
257.84	13.278
258.05	8.125
258.26	7.207
258.47	10.018
258.69	3.764
258.90	-0.311
259.11	-0.156
259.32	4.607
259.53	4.692
259.75	5.027
259.96	0.409
260.17	5.386
260.38	1.537
260.59	0.963
260.81	5.109
261.02	4.106
261.23	5.675
261.44	3.218
261.65	3.800
261.87	2.000
262.08	1.621
262.29	5.503
262.50	5.308
262.71	6.102
262.92	3.381
263.14	9.032
263.35	2.909
263.56	-0.824
263.77	6.373
263.98	8.730
264.20	12.953
264.41	0.967
264.62	11.590
264.83	7.910
265.04	8.089
265.25	4.360
265.47	5.438
265.68	7.726
265.89	3.661
266.10	7.401
266.31	11.380
266.52	8.460
266.74	-1.218
266.95	3.010
267.16	6.572
267.37	8.625
267.58	2.857
267.79	4.783
268.01	2.527
268.22	8.683
268.43	10.309
268.64	3.141
268.85	2.775
269.06	2.482
269.27	5.156
269.49	4.262
269.70	8.754
269.91	2.561
270.12	6.051
270.33	8.008
270.54	6.198
270.75	1.637
270.97	8.642
271.18	7.282
271.39	4.453
271.60	5.066
271.81	5.844
272.02	6.261
272.23	4.709
272.45	3.535
272.66	1.413
272.87	3.072
273.08	1.887
273.29	7.384
273.50	3.687
273.71	5.775
273.92	5.065
274.14	1.006
274.35	-0.567
274.56	5.710
274.77	-0.165
274.98	8.190
275.19	2.043
275.40	7.997
275.61	3.650
275.83	5.314
276.04	4.642
276.25	2.843
276.46	4.915
276.67	5.031
276.88	4.757
277.09	0.892
277.30	3.742
277.51	7.305
277.73	2.100
277.94	5.031
278.15	4.432
278.36	5.268
278.57	5.123
278.78	6.000
278.99	9.951
279.20	3.426
279.41	7.622
279.62	7.692
279.84	4.965
280.05	6.765
280.26	4.555
280.47	5.948
280.68	2.183
280.89	10.000
281.10	3.956
281.31	4.753
281.52	8.862
281.73	4.385
281.94	3.909
282.16	4.250
282.37	6.435
282.58	4.305
282.79	5.877
283.00	7.185
283.21	4.355
283.42	1.695
283.63	2.568
283.84	2.208
284.05	5.060
284.26	5.828
284.47	2.813
284.68	3.617
284.89	5.604
285.11	5.376
285.32	3.014
285.53	3.539
285.74	6.115
285.95	4.658
286.16	3.175
286.37	2.214
286.58	3.331
286.79	4.262
287.00	4.075
287.21	3.915
287.42	2.899
287.63	3.125
287.84	3.270
288.05	1.956
288.26	4.126
288.48	5.874
288.69	3.763
288.90	0.949
289.11	2.342
289.32	4.676
289.53	2.419
289.74	1.000
289.95	3.985
290.16	6.054
290.37	0.844
290.58	3.177
290.79	3.100
291.00	4.595
291.21	1.582
291.42	0.265
291.63	1.831
291.84	6.435
292.05	3.316
292.26	3.780
292.47	3.417
292.68	1.507
292.89	3.648
293.10	3.212
293.31	4.329
293.52	0.832
293.73	5.944
293.94	3.900
294.15	2.069
294.36	0.778
294.57	5.175
294.79	3.569
295.00	3.087
295.21	-1.149
295.42	5.358
295.63	1.927
295.84	2.001
296.05	2.098
296.26	3.364
296.47	3.560
296.68	4.681
296.89	1.886
297.10	2.889
297.31	1.941
297.52	4.495
297.73	5.759
297.94	3.226
298.15	1.473
298.36	4.866
298.57	1.394
298.78	3.232
298.99	0.243
299.20	1.527
299.41	1.297
299.62	4.330
299.83	2.711
300.04	2.473
300.25	2.470
300.46	4.317
300.67	4.630
300.88	3.133
301.09	1.909
301.30	4.144
301.50	4.601
301.71	4.123
301.92	4.211
302.13	3.519
302.34	3.590
302.55	2.214
302.76	3.301
302.97	4.501
303.18	-1.224
303.39	4.008
303.60	0.627
303.81	2.367
304.02	2.668
304.23	3.005
304.44	4.927
304.65	1.112
304.86	3.828
305.07	1.872
305.28	4.308
305.49	3.923
305.70	3.801
305.91	3.815
306.12	2.014
306.33	1.661
306.54	2.641
306.75	2.533
306.96	7.734
307.17	5.603
307.38	0.916
307.58	3.142
307.79	4.632
308.00	3.771
308.21	1.852
308.42	5.299
308.63	7.527
308.84	2.458
309.05	1.783
309.26	3.688
309.47	2.931
309.68	1.690
309.89	5.071
310.10	3.865
310.31	3.427
310.52	0.787
310.73	4.421
310.94	2.513
311.14	1.504
311.35	2.385
311.56	1.961
311.77	-0.627
311.98	2.954
312.19	2.935
312.40	3.808
312.61	2.811
312.82	4.086
313.03	0.329
313.24	4.358
313.45	3.396
313.66	2.907
313.86	5.629
314.07	2.845
314.28	4.314
314.49	3.966
314.70	3.263
314.91	3.178
315.12	3.476
315.33	2.334
315.54	1.099
315.75	2.616
315.96	4.533
316.16	3.172
316.37	4.726
316.58	2.741
316.79	0.789
317.00	3.931
317.21	1.984
317.42	1.602
317.63	4.063
317.84	3.094
318.05	5.182
318.25	4.410
318.46	3.606
318.67	-0.295
318.88	5.153
319.09	2.059
319.30	4.444
319.51	2.004
319.72	4.937
319.93	4.680
320.13	4.455
320.34	4.823
320.55	1.997
320.76	5.225
320.97	5.504
321.18	3.641
321.39	3.176
321.60	4.845
321.80	2.853
322.01	3.180
322.22	2.259
322.43	1.027
322.64	3.443
322.85	1.228
323.06	2.522
323.27	4.735
323.47	3.521
323.68	5.233
323.89	2.547
324.10	1.153
324.31	3.694
324.52	2.657
324.73	2.987
324.93	3.269
325.14	2.329
325.35	4.523
325.56	5.080
325.77	2.210
325.98	3.699
326.19	4.771
326.39	3.676
326.60	4.151
326.81	0.688
327.02	5.049
327.23	2.117
327.44	3.656
327.64	3.804
327.85	0.954
328.06	4.734
328.27	5.461
328.48	3.491
328.69	1.817
328.90	2.680
329.10	4.645
329.31	-0.209
329.52	4.087
329.73	3.968
329.94	1.316
330.15	1.802
330.35	2.578
330.56	4.228
330.77	1.422
330.98	4.835
331.19	3.272
331.39	2.865
331.60	5.270
331.81	3.997
332.02	4.752
332.23	2.425
332.44	3.958
332.64	2.206
332.85	2.071
333.06	6.413
333.27	1.569
333.48	1.079
333.68	4.691
333.89	1.782
334.10	0.685
334.31	1.834
334.52	4.738
334.72	2.970
334.93	4.559
335.14	1.519
335.35	3.118
335.56	2.483
335.76	1.953
335.97	4.512
336.18	4.265
336.39	2.543
336.60	4.396
336.80	2.313
337.01	3.666
337.22	-1.064
337.43	6.618
337.64	0.617
337.84	3.602
338.05	2.822
338.26	4.403
338.47	2.139
338.68	1.572
338.88	3.929
339.09	3.473
339.30	1.642
339.51	1.296
339.71	1.972
339.92	2.076
340.13	6.537
340.34	2.836
340.55	1.195
340.75	3.848
340.96	3.625
341.17	4.570
341.38	2.359
341.58	2.563
341.79	2.840
342.00	2.519
342.21	1.463
342.41	1.560
342.62	4.276
342.83	3.795
343.04	0.685
343.24	0.978
343.45	3.333
343.66	1.738
343.87	1.722
344.07	2.384
344.28	0.972
344.49	4.470
344.70	6.457
344.90	2.321
345.11	2.142
345.32	2.221
345.53	1.918
345.73	1.506
345.94	2.434
346.15	3.854
346.36	1.874
346.56	0.392
346.77	2.490
346.98	1.205
347.19	2.860
347.39	2.857
347.60	1.722
347.81	2.810
348.02	4.288
348.22	1.075
348.43	4.708
348.64	3.067
348.84	4.164
349.05	2.149
349.26	4.722
349.47	3.359
349.67	3.364
349.88	4.174
350.09	3.934
350.30	4.897
350.50	1.793
350.71	3.932
350.92	3.467
351.12	2.592
351.33	4.206
351.54	5.260
351.74	5.316
351.95	3.470
352.16	2.532
352.37	3.714
352.57	2.596
352.78	3.519
352.99	3.377
353.19	3.050
353.40	4.315
353.61	5.321
353.82	4.514
354.02	5.076
354.23	2.394
354.44	3.513
354.64	5.382
354.85	2.392
355.06	5.737
355.26	3.461
355.47	4.279
355.68	6.088
355.88	5.133
356.09	6.112
356.30	2.968
356.51	6.657
356.71	5.419
356.92	3.699
357.13	4.180
357.33	6.919
357.54	4.156
357.75	3.144
357.95	7.020
358.16	5.118
358.37	8.261
358.57	6.242
358.78	11.317
358.99	6.507
359.19	7.099
359.40	7.095
359.61	8.255
359.81	8.643
360.02	10.919
360.23	6.179
360.43	8.708
360.64	8.704
360.85	9.841
361.05	8.573
361.26	14.228
361.47	9.121
361.67	14.815
361.88	7.525
362.09	13.775
362.29	10.154
362.50	12.773
362.70	9.805
362.91	14.638
363.12	11.944
363.32	14.750
363.53	12.747
363.74	17.066
363.94	10.318
364.15	18.161
364.36	13.486
364.56	12.654
364.77	14.736
364.98	18.606
365.18	14.493
365.39	19.064
365.59	12.912
365.80	15.868
366.01	14.312
366.21	13.487
366.42	10.686
366.63	17.266
366.83	14.103
367.04	11.145
367.24	17.647
367.45	14.552
367.66	12.567
367.86	15.509
368.07	14.371
368.28	13.559
368.48	14.753
368.69	11.611
368.89	14.624
369.10	15.649
369.31	14.587
369.51	16.154
369.72	17.583
369.92	18.436
370.13	12.354
370.34	18.168
370.54	10.175
370.75	16.385
370.95	13.172
371.16	17.241
371.37	12.481
371.57	17.113
371.78	14.158
371.98	18.896
372.19	15.697
372.40	19.248
372.60	18.470
372.81	16.874
373.01	11.329
373.22	15.345
373.43	16.631
373.63	20.176
373.84	15.325
374.04	18.429
374.25	13.467
374.46	17.824
374.66	14.557
374.87	17.567
375.07	11.782
375.28	16.349
375.48	13.651
375.69	19.333
375.90	13.214
376.10	15.164
376.31	14.352
376.51	16.964
376.72	16.011
376.92	15.210
377.13	18.079
377.34	18.686
377.54	16.142
377.75	19.299
377.95	16.746
378.16	20.462
378.36	16.744
378.57	20.155
378.77	16.100
378.98	17.974
379.19	17.729
379.39	15.942
379.60	16.878
379.80	17.797
380.01	18.309
380.21	16.922
380.42	17.378
380.62	17.356
380.83	19.151
381.04	16.683
381.24	18.337
381.45	18.894
381.65	13.038
381.86	19.001
382.06	18.010
382.27	12.657
382.47	12.125
382.68	20.542
382.88	13.109
383.09	15.372
383.29	14.846
383.50	18.708
383.71	14.822
383.91	16.533
384.12	12.915
384.32	17.585
384.53	14.436
384.73	14.104
384.94	12.149
385.14	16.810
385.35	14.316
385.55	16.360
385.76	13.867
385.96	17.740
386.17	17.442
386.37	19.634
386.58	15.372
386.78	16.409
386.99	12.766
387.19	17.918
387.40	13.970
387.60	20.244
387.81	14.817
388.01	17.345
388.22	17.773
388.42	18.309
388.63	18.378
388.83	19.344
389.04	13.479
389.24	18.409
389.45	15.855
389.65	17.078
389.86	15.490
390.06	14.814
390.27	13.718
390.47	17.265
390.68	16.052
390.88	19.419
391.09	16.562
391.29	16.380
391.50	16.355
391.70	18.137
391.91	15.249
392.11	17.072
392.32	16.032
392.52	20.232
392.73	15.942
392.93	17.729
393.14	13.988
393.34	18.155
393.55	17.247
393.75	16.543
393.95	16.330
394.16	16.587
394.36	19.221
394.57	20.462
394.77	16.384
394.98	16.812
395.18	16.732
395.39	18.782
395.59	16.329
395.80	18.260
396.00	17.310
396.21	20.221
396.41	15.036
396.61	18.761
396.82	17.796
397.02	19.617
397.23	15.883
397.43	17.795
397.64	12.165
397.84	18.585
398.05	13.140
398.25	18.085
398.45	16.342
398.66	18.648
398.86	16.790
399.07	18.740
399.27	14.172
399.48	19.079
399.68	14.829
399.89	16.057
400.09	17.525
400.29	15.123
400.50	15.026
400.70	17.850
400.91	14.059
401.11	16.048
401.32	15.205
401.52	15.264
401.72	15.094
401.93	19.124
402.13	16.039
402.34	16.183
402.54	12.818
402.75	19.616
402.95	12.639
403.15	18.308
403.36	12.593
403.56	17.179
403.77	14.088
403.97	17.160
404.17	14.362
404.38	18.399
404.58	14.296
404.79	17.781
404.99	16.343
405.19	17.592
405.40	15.147
405.60	18.043
405.81	15.912
406.01	16.659
406.21	14.669
406.42	17.249
406.62	15.951
406.83	16.091
407.03	15.491
407.23	15.826
407.44	14.971
407.64	17.143
407.85	16.162
408.05	16.825
408.25	13.962
408.46	17.519
408.66	15.081
408.87	15.518
409.07	13.459
409.27	14.456
409.48	14.584
409.68	16.974
409.88	11.869
410.09	17.606
410.29	15.032
410.50	18.354
410.70	12.285
410.90	15.935
411.11	13.445
411.31	16.770
411.51	16.360
411.72	17.584
411.92	13.674
412.12	14.474
412.33	13.366
412.53	15.890
412.74	12.994
412.94	15.309
413.14	13.819
413.35	15.853
413.55	14.678
413.75	15.478
413.96	12.057
414.16	15.171
414.36	15.383
414.57	14.996
414.77	13.583
414.97	15.512
415.18	13.596
415.38	16.327
415.58	14.255
415.79	15.309
415.99	14.412
416.19	16.769
416.40	14.674
416.60	16.620
416.80	14.880
417.01	17.924
417.21	13.822
417.41	17.508
417.62	17.127
417.82	16.503
418.02	14.185
418.23	17.249
418.43	16.015
418.63	17.838
418.84	18.670
419.04	17.447
419.24	17.834
419.45	17.794
419.65	17.668
419.85	18.450
420.06	17.630
420.26	18.975
420.46	17.646
420.67	18.647
420.87	18.180
421.07	18.621
421.28	18.173
421.48	19.560
421.68	18.157
421.88	18.735
422.09	17.780
422.29	18.603
422.49	18.159
422.70	19.135
422.90	17.723
423.10	19.154
423.31	17.612
423.51	19.060
423.71	18.376
423.91	18.900
424.12	18.805
424.32	18.676
424.52	17.805
424.73	19.167
424.93	18.219
425.13	17.921
425.33	17.741
425.54	18.015
425.74	18.650
425.94	18.267
426.15	18.682
426.35	17.862
426.55	18.247
426.75	18.448
426.96	18.647
427.16	18.118
427.36	18.182
427.57	18.816
427.77	17.454
427.97	18.369
428.17	17.450
428.38	18.508
428.58	15.927
428.78	17.979
428.98	16.467
429.19	17.736
429.39	15.747
429.59	18.427
429.79	15.615
430.00	15.440
430.20	14.554
430.40	18.229
430.60	15.989
430.81	17.297
431.01	15.609
431.21	17.248
431.41	14.135
431.62	18.176
431.82	15.367
432.02	17.733
432.22	15.690
432.43	16.914
432.63	15.470
432.83	17.077
433.03	16.828
433.24	16.924
433.44	16.593
433.64	16.842
433.84	16.659
434.05	18.285
434.25	16.829
434.45	17.395
434.65	17.529
434.85	18.102
435.06	17.550
435.26	17.759
435.46	17.329
435.66	17.772
435.87	17.132
436.07	18.849
436.27	17.775
436.47	17.722
436.67	16.880
436.88	17.924
437.08	17.872
437.28	17.407
437.48	16.214
437.69	18.680
437.89	16.718
438.09	18.248
438.29	16.359
438.49	17.987
438.70	17.079
438.90	17.453
439.10	17.080
439.30	19.082
439.50	17.188
439.71	17.971
439.91	17.093
440.11	18.403
440.31	17.138
440.51	18.384
440.72	17.991
440.92	18.656
441.12	18.323
441.32	18.720
441.52	18.497
441.72	18.727
441.93	17.948
442.13	18.371
442.33	17.838
442.53	18.216
442.73	18.408
442.94	18.555
443.14	17.953
443.34	18.151
443.54	18.724
443.74	18.667
443.94	18.961
444.15	18.447
444.35	17.298
444.55	18.394
444.75	18.001
444.95	18.501
445.15	17.498
445.36	18.606
445.56	18.321
445.76	18.475
445.96	17.493
446.16	17.988
446.36	18.120
446.57	18.665
446.77	18.424
446.97	18.144
447.17	18.041
447.37	18.339
447.57	18.424
447.77	18.887
447.98	18.246
448.18	18.448
448.38	18.784
448.58	19.040
448.78	18.664
448.98	18.354
449.18	18.045
449.39	17.840
449.59	18.551
449.79	18.994
449.99	17.823
450.19	18.977
450.39	18.120
450.59	18.623
450.79	17.354
451.00	18.191
451.20	18.511
451.40	18.987
451.60	17.291
451.80	18.141
452.00	17.475
452.20	17.417
452.40	16.697
452.61	17.128
452.81	17.905
453.01	18.873
453.21	18.109
453.41	18.479
453.61	17.728
453.81	18.595
454.01	17.398
454.21	18.354
454.42	18.690
454.62	18.433
454.82	17.541
455.02	18.341
455.22	17.606
455.42	17.967
455.62	16.987
455.82	18.314
456.02	17.405
456.23	17.863
456.43	17.496
456.63	18.520
456.83	17.341
457.03	18.021
457.23	17.270
457.43	18.043
457.63	17.082
457.83	17.939
458.03	16.474
458.23	17.978
458.43	17.195
458.64	17.546
458.84	16.998
459.04	17.816
459.24	17.373
459.44	17.555
459.64	16.963
459.84	17.790
460.04	17.745
460.24	18.182
460.44	18.031
460.64	17.656
460.84	18.279
461.04	17.625
461.24	17.985
461.45	18.139
461.65	17.299
461.85	18.701
462.05	18.251
462.25	18.578
462.45	18.324
462.65	18.151
462.85	17.500
463.05	18.253
463.25	17.165
463.45	17.626
463.65	16.797
463.85	17.599
464.05	15.425
464.25	17.865
464.45	17.491
464.65	17.192
464.85	16.986
465.05	18.377
465.26	17.086
465.46	17.348
465.66	17.806
465.86	18.006
466.06	17.751
466.26	17.752
466.46	15.561
466.66	18.413
466.86	16.712
467.06	16.587
467.26	16.717
467.46	18.347
467.66	17.987
467.86	17.599
468.06	17.797
468.26	17.514
468.46	17.465
468.66	17.475
468.86	16.611
469.06	18.240
469.26	17.577
469.46	18.283
469.66	16.915
469.86	18.036
470.06	16.477
470.26	17.998
470.46	16.430
470.66	18.336
470.86	16.443
471.06	18.255
471.26	16.603
471.46	17.739
471.66	16.720
471.86	17.547
472.06	17.747
472.26	18.293
472.46	18.565
472.66	16.660
472.86	17.172
473.06	17.939
473.26	17.128
473.46	17.397
473.66	18.300
473.86	18.125
474.06	17.376
474.26	17.615
474.46	17.041
474.66	18.041
474.86	17.873
475.06	17.745
475.26	16.696
475.46	17.242
475.66	17.568
475.86	17.669
476.06	17.620
476.26	17.859
476.46	16.986
476.66	17.694
476.86	17.605
477.06	17.138
477.26	16.835
477.46	18.872
477.65	18.222
477.85	19.085
478.05	17.892
478.25	17.979
478.45	17.179
478.65	17.587
478.85	17.753
479.05	17.887
479.25	17.281
479.45	18.312
479.65	17.065
479.85	18.407
480.05	17.101
480.25	18.797
480.45	18.170
480.65	18.389
480.85	17.460
481.05	18.341
481.25	17.730
481.44	18.336
481.64	18.218
481.84	18.207
482.04	18.053
482.24	17.902
482.44	18.215
482.64	18.437
482.84	17.635
483.04	18.536
483.24	18.166
483.44	18.295
483.64	17.900
483.84	18.160
484.04	17.787
484.23	17.867
484.43	18.070
484.63	18.548
484.83	18.476
485.03	18.593
485.23	18.870
485.43	18.654
485.63	18.764
485.83	18.902
486.03	18.808
486.23	19.179
486.42	18.274
486.62	18.588
486.82	18.691
487.02	18.137
487.22	18.738
487.42	18.377
487.62	18.415
487.82	18.343
488.02	18.003
488.22	18.166
488.41	18.171
488.61	18.313
488.81	18.507
489.01	18.234
489.21	17.996
489.41	18.492
489.61	18.365
489.81	18.256
490.01	18.132
490.20	18.023
490.40	18.823
490.60	18.145
490.80	18.418
491.00	18.212
491.20	18.192
491.40	18.215
491.60	18.142
491.79	17.830
491.99	18.011
492.19	17.794
492.39	17.950
492.59	18.031
492.79	18.184
492.99	18.055
493.19	18.305
493.38	18.399
493.58	18.472
493.78	18.808
493.98	18.480
494.18	18.379
494.38	18.417
494.58	18.851
494.77	18.317
494.97	18.262
495.17	19.072
495.37	18.733
495.57	18.598
495.77	18.869
495.96	17.777
496.16	19.141
496.36	18.600
496.56	18.566
496.76	18.130
496.96	17.994
497.15	17.851
497.35	17.994
497.55	17.219
497.75	18.199
497.95	17.999
498.15	17.728
498.34	18.442
498.54	18.091
498.74	18.722
498.94	18.244
499.14	18.260
499.34	18.257
499.53	17.809
499.73	18.800
499.93	18.964
500.13	18.866
500.33	17.856
500.52	17.700
500.72	17.681
500.92	18.855
501.12	17.587
501.32	18.042
501.52	18.561
501.71	18.608
501.91	18.547
502.11	18.656
502.31	18.199
502.51	18.687
502.70	18.396
502.90	18.154
503.10	18.576
503.30	18.329
503.50	18.465
503.69	18.241
503.89	18.600
504.09	18.526
504.29	17.795
504.48	18.746
504.68	18.149
504.88	17.983
505.08	17.998
505.28	18.970
505.47	18.380
505.67	18.743
505.87	18.493
506.07	18.377
506.27	17.160
506.46	18.531
506.66	17.773
506.86	18.374
507.06	19.286
507.25	18.656
507.45	18.050
507.65	18.454
507.85	18.185
508.04	18.201
508.24	18.422
508.44	18.692
508.64	18.740
508.83	18.289
509.03	18.415
509.23	19.068
509.43	18.581
509.63	18.374
509.82	18.377
510.02	18.601
510.22	18.514
510.42	19.075
510.61	18.961
510.81	19.095
511.01	19.043
511.21	19.025
511.40	19.233
511.60	19.609
511.80	18.477
511.99	19.287
512.19	19.544
512.39	19.143
512.59	19.060
512.78	19.100
512.98	19.739
513.18	18.288
513.38	19.044
513.57	18.381
513.77	19.409
513.97	18.802
514.17	19.117
514.36	19.076
514.56	18.924
514.76	19.466
514.95	18.853
515.15	19.325
515.35	19.028
515.55	19.086
515.74	19.060
515.94	19.028
516.14	18.578
516.33	19.354
516.53	19.031
516.73	18.977
516.93	18.593
517.12	19.151
517.32	19.130
517.52	19.288
517.71	18.848
517.91	19.176
518.11	19.340
518.30	19.921
518.50	19.062
518.70	19.101
518.90	18.889
519.09	19.506
519.29	19.056
519.49	18.899
519.68	19.043
519.88	19.442
520.08	18.794
520.27	19.516
520.47	19.703
520.67	19.187
520.86	19.857
521.06	20.008
521.26	18.472
521.45	19.224
521.65	19.500
521.85	19.360
522.04	19.326
522.24	20.015
522.44	19.639
522.63	19.397
522.83	19.634
523.03	19.688
523.22	19.295
523.42	19.835
523.62	19.917
523.81	19.386
524.01	19.034
524.21	20.362
524.40	19.073
524.60	19.541
524.80	18.687
524.99	19.398
525.19	18.797
525.39	19.789
525.58	19.602
525.78	19.130
525.98	19.506
526.17	19.545
526.37	19.678
526.57	18.968
526.76	18.703
526.96	19.168
527.15	19.441
527.35	18.796
527.55	19.321
527.74	19.406
527.94	19.475
528.14	19.056
528.33	19.302
528.53	19.124
528.72	19.079
528.92	19.263
529.12	19.731
529.31	19.456
529.51	19.566
529.71	19.905
529.90	19.875
530.10	19.977
530.29	19.914
530.49	19.541
530.69	20.061
530.88	20.162
531.08	19.787
531.28	20.000
531.47	20.009
531.67	19.441
531.86	19.772
532.06	19.950
532.26	19.473
532.45	19.701
532.65	19.836
532.84	19.335
533.04	19.261
533.24	19.325
533.43	19.202
533.63	20.147
533.82	19.471
534.02	19.467
534.22	19.739
534.41	19.538
534.61	19.600
534.80	19.397
535.00	19.867
535.19	20.051
535.39	20.252
535.59	20.109
535.78	19.646
535.98	19.675
536.17	19.846
536.37	19.943
536.57	20.078
536.76	19.377
536.96	19.678
537.15	19.855
537.35	20.410
537.54	20.095
537.74	19.739
537.93	19.723
538.13	19.459
538.33	19.941
538.52	19.697
538.72	19.782
538.91	19.990
539.11	19.665
539.30	18.929
539.50	20.408
539.70	19.156
539.89	20.736
540.09	19.452
540.28	19.487
540.48	20.047
540.67	19.372
540.87	19.826
541.06	19.204
541.26	19.393
541.45	19.761
541.65	19.621
541.85	19.982
542.04	19.043
542.24	19.873
542.43	19.893
542.63	19.683
542.82	20.137
543.02	20.112
543.21	20.266
543.41	20.498
543.60	20.938
543.80	20.164
543.99	19.994
544.19	19.935
544.38	20.532
544.58	20.370
544.77	20.025
544.97	20.477
545.16	20.612
545.36	19.992
545.56	21.069
545.75	20.525
545.95	19.731
546.14	20.966
546.34	20.377
546.53	20.221
546.73	20.843
546.92	20.018
547.12	19.641
547.31	20.261
547.51	19.917
547.70	20.686
547.90	20.772
548.09	20.227
548.29	20.634
548.48	20.307
548.68	20.588
548.87	20.707
549.07	20.260
549.26	20.435
549.46	20.424
549.65	21.198
549.84	19.905
550.04	21.166
550.23	20.815
550.43	21.379
550.62	20.388
550.82	20.388
551.01	19.933
551.21	20.960
551.40	19.729
551.60	20.565
551.79	20.489
551.99	20.828
552.18	20.204
552.38	21.220
552.57	19.438
552.77	20.413
552.96	20.530
553.16	20.730
553.35	19.837
553.54	20.606
553.74	20.327
553.93	21.368
554.13	20.390
554.32	20.857
554.52	20.445
554.71	20.951
554.91	20.608
555.10	20.937
555.29	20.469
555.49	20.820
555.68	21.438
555.88	21.835
556.07	21.046
556.27	21.239
556.46	20.759
556.66	20.576
556.85	20.987
557.04	21.514
557.24	21.463
557.43	20.694
557.63	21.811
557.82	22.123
558.02	21.557
558.21	21.740
558.40	21.240
558.60	21.819
558.79	21.003
558.99	21.229
559.18	21.064
559.38	21.492
559.57	21.721
559.76	20.660
559.96	21.555
560.15	21.099
560.35	20.446
560.54	22.048
560.73	20.702
560.93	21.692
561.12	21.588
561.32	22.441
561.51	21.455
561.70	21.372
561.90	20.909
562.09	22.497
562.29	21.902
562.48	21.548
562.67	22.483
562.87	22.167
563.06	21.615
563.26	21.855
563.45	22.344
563.64	21.817
563.84	21.245
564.03	23.017
564.23	22.065
564.42	21.744
564.61	22.515
564.81	21.774
565.00	21.995
565.20	21.993
565.39	20.780
565.58	22.235
565.78	22.109
565.97	22.499
566.16	22.757
566.36	22.813
566.55	22.326
566.74	21.836
566.94	22.591
567.13	23.267
567.33	22.810
567.52	22.862
567.71	22.943
567.91	21.859
568.10	22.666
568.29	22.785
568.49	21.511
568.68	23.342
568.87	22.715
569.07	22.874
569.26	22.234
569.45	22.756
569.65	23.351
569.84	23.915
570.04	23.412
570.23	22.124
570.42	23.446
570.62	23.305
570.81	23.018
571.00	23.488
571.20	22.785
571.39	23.571
571.58	23.335
571.78	22.473
571.97	23.003
572.16	22.561
572.36	23.091
572.55	23.361
572.74	23.882
572.94	22.642
573.13	23.584
573.32	23.022
573.51	22.670
573.71	23.482
573.90	23.426
574.09	23.963
574.29	23.210
574.48	23.398
574.67	22.736
574.87	22.538
575.06	23.011
575.25	23.611
575.45	22.907
575.64	23.682
575.83	22.579
576.03	24.505
576.22	23.610
576.41	23.559
576.60	23.567
576.80	22.981
576.99	23.710
577.18	23.546
577.38	23.179
577.57	24.608
577.76	23.844
577.95	23.644
578.15	23.084
578.34	24.193
578.53	24.300
578.73	23.330
578.92	24.285
579.11	24.501
579.30	23.567
579.50	23.745
579.69	23.052
579.88	22.996
580.08	23.149
580.27	23.721
580.46	23.817
580.65	22.254
580.85	24.224
581.04	22.188
581.23	23.076
581.42	23.508
581.62	24.075
581.81	24.552
582.00	22.565
582.19	23.745
582.39	22.857
582.58	23.587
582.77	22.870
582.96	22.781
583.16	23.302
583.35	24.126
583.54	21.590
583.73	23.356
583.93	22.167
584.12	24.146
584.31	23.727
584.50	24.161
584.70	23.908
584.89	23.001
585.08	23.128
585.27	24.172
585.47	23.968
585.66	23.953
585.85	23.563
586.04	24.427
586.24	21.801
586.43	22.230
586.62	23.398
586.81	24.146
587.00	21.376
587.20	23.419
587.39	23.233
587.58	23.859
587.77	23.551
587.97	23.529
588.16	22.652
588.35	22.102
588.54	23.636
588.73	24.582
588.93	24.804
589.12	23.185
589.31	23.564
589.50	23.370
589.69	23.186
589.89	23.190
590.08	22.757
590.27	22.742
590.46	23.286
590.65	23.635
590.85	22.796
591.04	23.436
591.23	22.740
591.42	23.677
591.61	23.347
591.81	23.499
592.00	22.645
592.19	24.930
592.38	22.976
592.57	23.985
592.77	23.007
592.96	22.912
593.15	23.274
593.34	23.133
593.53	23.660
593.72	23.696
593.92	24.109
594.11	23.385
594.30	23.853
594.49	22.175
594.68	22.570
594.87	24.603
595.07	24.161
595.26	24.086
595.45	24.026
595.64	23.999
595.83	23.637
596.02	23.456
596.22	23.017
596.41	23.638
596.60	24.112
596.79	23.483
596.98	24.123
597.17	24.270
597.37	24.237
597.56	24.997
597.75	23.827
597.94	24.619
598.13	23.301
598.32	23.765
598.51	24.026
598.71	24.935
598.90	24.247
599.09	23.816
599.28	24.159
599.47	25.400
599.66	24.163
599.85	24.427
600.05	23.362
600.24	24.468
600.43	23.685
600.62	25.786
600.81	23.622
601.00	25.005
601.19	23.098
601.38	24.701
601.58	24.423
601.77	24.767
601.96	23.197
602.15	24.043
602.34	24.975
602.53	24.542
602.72	24.008
602.91	26.580
603.10	23.596
603.30	25.031
603.49	24.259
603.68	24.661
603.87	23.296
604.06	23.358
604.25	24.928
604.44	23.503
604.63	23.691
604.82	24.717
605.01	24.351
605.21	24.416
605.40	24.513
605.59	24.437
605.78	24.133
605.97	24.949
606.16	24.082
606.35	24.584
606.54	24.630
606.73	23.960
606.92	23.672
607.11	24.342
607.30	23.913
607.50	25.122
607.69	22.809
607.88	23.526
608.07	23.281
608.26	23.577
608.45	25.364
608.64	24.730
608.83	24.213
609.02	23.856
609.21	23.702
609.40	24.349
609.59	23.629
609.78	24.123
609.97	24.189
610.16	25.272
610.35	23.265
610.55	23.192
610.74	25.164
610.93	24.074
611.12	24.663
611.31	24.802
611.50	23.063
611.69	24.601
611.88	24.407
612.07	25.508
612.26	22.307
612.45	23.600
612.64	22.849
612.83	24.613
613.02	23.312
613.21	23.770
613.40	21.638
613.59	22.844
613.78	22.691
613.97	22.637
614.16	22.629
614.35	23.428
614.54	23.003
614.73	23.848
614.92	22.238
615.11	22.423
615.30	22.493
615.49	24.711
615.68	21.513
615.87	22.984
616.07	20.549
616.26	21.791
616.45	21.424
616.64	23.050
616.83	21.306
617.02	22.846
617.21	21.092
617.40	22.625
617.59	21.661
617.78	22.728
617.97	22.366
618.16	21.492
618.35	22.140
618.54	21.806
618.73	21.361
618.92	23.262
619.11	21.107
619.30	23.171
619.49	20.416
619.68	22.440
619.86	20.665
620.05	23.657
620.24	20.815
620.43	22.729
620.62	20.406
620.81	22.882
621.00	21.065
621.19	23.418
621.38	19.958
621.57	22.313
621.76	21.010
621.95	22.954
622.14	20.798
622.33	21.444
622.52	20.327
622.71	22.288
622.90	21.208
623.09	21.854
623.28	21.359
623.47	21.969
623.66	20.492
623.85	23.310
624.04	21.516
624.23	21.687
624.42	19.510
624.61	20.307
624.80	19.637
624.99	21.409
625.18	19.836
625.36	20.652
625.55	21.614
625.74	21.231
625.93	20.918
626.12	22.009
626.31	21.356
626.50	22.565
626.69	21.503
626.88	22.665
627.07	21.531
627.26	22.074
627.45	21.407
627.64	21.986
627.83	20.722
628.02	23.297
628.20	22.290
628.39	22.625
628.58	20.848
628.77	22.281
628.96	20.700
629.15	21.322
629.34	21.981
629.53	20.554
629.72	21.706
629.91	21.979
630.10	21.938
630.29	21.422
630.47	21.316
630.66	22.125
630.85	22.319
631.04	21.264
631.23	20.612
631.42	21.887
631.61	19.647
631.80	22.769
631.99	20.556
632.18	20.552
632.36	19.952
632.55	20.737
632.74	19.003
632.93	22.275
633.12	21.211
633.31	21.969
633.50	19.028
633.69	21.944
633.88	20.288
634.06	22.305
634.25	19.969
634.44	21.416
634.63	20.654
634.82	22.538
635.01	19.733
635.20	22.301
635.39	20.849
635.57	22.512
635.76	20.975
635.95	20.411
636.14	18.999
636.33	22.959
636.52	19.339
636.71	21.261
636.89	20.745
637.08	20.262
637.27	19.787
637.46	19.945
637.65	19.607
637.84	20.343
638.03	18.604
638.21	21.777
638.40	19.497
638.59	20.631
638.78	17.754
638.97	20.778
639.16	20.303
639.34	20.714
639.53	17.989
639.72	20.732
639.91	18.405
640.10	19.825
640.29	19.202
640.47	21.024
640.66	20.171
640.85	21.713
641.04	17.986
641.23	20.466
641.42	17.321
641.60	18.805
641.79	19.037
641.98	18.693
642.17	18.793
642.36	20.087
642.54	16.875
642.73	18.767
642.92	16.114
643.11	18.763
643.30	17.470
643.49	18.695
643.67	16.938
643.86	18.974
644.05	17.441
644.24	18.257
644.43	18.696
644.61	19.647
644.80	16.537
644.99	16.252
645.18	17.630
645.37	20.035
645.55	16.691
645.74	19.829
645.93	17.854
646.12	19.598
646.31	18.190
646.49	18.053
646.68	16.825
646.87	18.523
647.06	17.222
647.24	18.307
647.43	16.029
647.62	18.911
647.81	15.499
648.00	18.617
648.18	15.694
648.37	19.617
648.56	15.542
648.75	18.482
648.93	17.484
649.12	18.817
649.31	17.218
649.50	19.616
649.68	16.351
649.87	18.416
650.06	15.411
650.25	18.580
650.43	17.358
650.62	19.769
650.81	18.397
651.00	18.472
651.18	16.275
651.37	18.179
651.56	18.406
651.75	21.181
651.93	16.590
652.12	19.185
652.31	16.628
652.50	20.292
652.68	18.118
652.87	19.948
653.06	18.697
653.25	20.416
653.43	17.607
653.62	20.368
653.81	18.173
654.00	20.012
654.18	14.773
654.37	20.714
654.56	16.059
654.74	17.349
654.93	15.907
655.12	16.820
655.31	15.917
655.49	17.699
655.68	15.258
655.87	15.701
656.05	14.741
656.24	16.826
656.43	10.773
656.62	16.802
656.80	14.532
656.99	14.624
657.18	11.040
657.36	17.066
657.55	16.019
657.74	16.556
657.93	18.584
658.11	17.554
658.30	14.629
658.49	16.119
658.67	15.914
658.86	15.766
659.05	15.584
659.23	17.347
659.42	16.054
659.61	18.908
659.79	15.583
659.98	18.642
660.17	15.992
660.35	18.850
660.54	16.765
660.73	21.164
660.91	17.285
661.10	18.056
661.29	15.025
661.47	17.277
661.66	16.245
661.85	16.562
662.03	16.382
662.22	14.146
662.41	13.667
662.59	16.348
662.78	12.184
662.97	14.684
663.15	12.347
663.34	13.926
663.53	10.107
663.71	15.392
663.90	11.228
664.09	14.819
664.27	12.703
664.46	14.211
664.65	11.568
664.83	12.625
665.02	11.712
665.21	9.680
665.39	8.202
665.58	13.175
665.77	11.298
665.95	11.078
666.14	8.917
666.32	11.227
666.51	10.513
666.70	11.140
666.88	9.892
667.07	10.684
667.26	9.617
667.44	10.544
667.63	10.189
667.81	9.419
668.00	9.519
668.19	13.682
668.37	10.235
668.56	13.683
668.75	8.504
668.93	13.812
669.12	10.384
669.30	11.447
669.49	9.661
669.68	11.732
669.86	10.360
670.05	10.576
670.23	9.700
670.42	9.741
670.61	10.398
670.79	10.133
670.98	9.972
671.16	11.611
671.35	10.198
671.54	10.747
671.72	8.992
671.91	9.989
672.09	8.125
672.28	9.658
672.46	10.861
672.65	9.924
672.84	10.825
673.02	11.537
673.21	6.964
673.39	8.667
673.58	9.503
673.77	11.524
673.95	9.174
674.14	13.200
674.32	9.936
674.51	12.367
674.69	9.222
674.88	9.420
675.07	10.196
675.25	13.917
675.44	10.965
675.62	9.016
675.81	7.875
675.99	15.436
676.18	11.310
676.36	8.751
676.55	5.647
676.74	11.558
676.92	12.033
677.11	11.519
677.29	11.328
677.48	10.313
677.66	10.639
677.85	10.205
678.03	8.522
678.22	11.063
678.40	11.404
678.59	9.038
678.78	6.016
678.96	12.906
679.15	8.517
679.33	12.351
679.52	13.203
679.70	13.405
679.89	10.374
680.07	11.833
680.26	9.897
680.44	13.499
680.63	13.223
680.81	13.105
681.00	8.522
681.18	14.181
681.37	13.198
681.55	14.479
681.74	14.511
681.92	15.155
682.11	13.429
682.29	13.977
682.48	13.462
682.66	13.805
682.85	12.099
683.03	13.141
683.22	14.052
683.40	13.659
683.59	12.256
683.77	13.343
683.96	10.433
684.14	14.043
684.33	7.786
684.51	16.996
684.70	13.412
684.88	16.562
685.07	11.658
685.25	14.891
685.44	10.516
685.62	14.303
685.81	12.121
685.99	14.976
686.18	10.160
686.36	14.695
686.55	11.935
686.73	13.427
686.92	14.337
687.10	14.228
687.29	14.423
687.47	14.891
687.65	14.094
687.84	13.113
688.02	17.390
688.21	17.188
688.39	12.015
688.58	17.687
688.76	13.023
688.95	16.171
689.13	11.800
689.32	16.537
689.50	17.027
689.68	15.189
689.87	14.435
690.05	17.361
690.24	16.639
690.42	17.445
690.61	15.541
690.79	16.130
690.98	16.045
691.16	16.660
691.34	13.617
691.53	16.772
691.71	15.418
691.90	16.333
692.08	12.790
692.27	16.991
692.45	16.762
692.63	17.533
692.82	17.230
693.00	18.872
693.19	13.599
693.37	19.325
693.56	16.480
693.74	18.708
693.92	17.866
694.11	19.529
694.29	17.142
694.48	20.729
694.66	15.892
694.84	19.755
695.03	16.667
695.21	20.114
695.40	21.097
695.58	19.923
695.76	17.177
695.95	22.819
696.13	17.658
696.32	20.236
696.50	27.045
696.68	21.801
696.87	14.939
697.05	24.291
697.24	20.371
697.42	24.351
697.60	20.756
697.79	20.973
697.97	21.464
698.16	25.165
698.34	20.436
698.52	23.278
698.71	21.845
698.89	25.773
699.07	23.394
699.26	25.666
699.44	25.361
699.63	27.763
699.81	23.792
699.99	25.519
700.18	26.457
700.36	26.449
700.54	24.568
700.73	25.008
700.91	25.934
701.09	27.584
701.28	22.199
701.46	25.379
701.64	23.793
701.83	26.146
702.01	21.840
702.20	24.293
702.38	24.463
702.56	25.679
702.75	20.656
702.93	21.192
703.11	20.364
703.30	26.340
703.48	22.505
703.66	25.370
703.85	21.041
704.03	24.687
704.21	26.410
704.40	22.868
704.58	22.476
704.76	24.239
704.95	21.171
705.13	26.316
705.31	23.726
705.50	26.352
705.68	20.943
705.86	27.870
706.04	22.334
706.23	23.490
706.41	25.028
706.59	23.939
706.78	19.989
706.96	23.318
707.14	24.234
707.33	26.472
707.51	20.889
707.69	28.587
707.88	22.191
708.06	25.231
708.24	24.634
708.42	26.875
708.61	23.209
708.79	24.007
708.97	24.876
709.16	26.229
709.34	23.915
709.52	24.947
709.71	25.707
709.89	28.038
710.07	20.752
710.25	27.027
710.44	25.080
710.62	26.208
710.80	28.885
710.98	26.207
711.17	24.837
711.35	27.976
711.53	23.272
711.72	26.650
711.90	25.918
712.08	28.427
712.26	24.615
712.45	30.357
712.63	26.488
712.81	29.211
712.99	26.427
713.18	28.898
713.36	23.622
713.54	27.399
713.72	22.461
713.91	23.842
714.09	22.730
714.27	26.338
714.45	25.182
714.64	31.524
714.82	24.726
715.00	27.101
715.18	24.625
715.37	27.389
715.55	24.537
715.73	28.280
715.91	26.474
716.10	27.164
716.28	23.327
716.46	29.452
716.64	23.222
716.83	28.586
717.01	24.987
717.19	26.447
717.37	21.217
717.55	26.308
717.74	22.228
717.92	25.167
718.10	19.454
718.28	26.058
718.47	18.076
718.65	25.042
718.83	21.080
719.01	26.522
719.19	21.232
719.38	21.771
719.56	17.331
719.74	20.399
719.92	17.618
720.10	18.790
720.29	18.763
720.47	21.465
720.65	19.622
720.83	23.763
721.01	18.068
721.20	23.581
721.38	18.047
721.56	21.973
721.74	21.781
721.92	22.306
722.11	21.024
722.29	18.490
722.47	21.473
722.65	24.756
722.83	19.884
723.01	21.341
723.20	19.803
723.38	24.514
723.56	19.723
723.74	23.254
723.92	22.246
724.10	23.050
724.29	17.931
724.47	23.556
724.65	20.128
724.83	25.813
725.01	21.041
725.19	26.112
725.38	20.626
725.56	24.684
725.74	21.241
725.92	26.234
726.10	18.137
726.28	24.240
726.46	21.893
726.65	22.958
726.83	21.076
727.01	21.304
727.19	24.816
727.37	25.000
727.55	16.074
727.73	20.304
727.92	22.153
728.10	24.431
728.28	17.010
728.46	29.219
728.64	21.862
728.82	24.153
729.00	21.314
729.19	25.685
729.37	23.806
729.55	23.949
729.73	19.066
729.91	24.700
730.09	25.835
730.27	25.825
730.45	21.905
730.63	26.147
730.82	21.632
731.00	24.403
731.18	19.320
731.36	25.968
731.54	22.047
731.72	27.376
731.90	22.881
732.08	23.333
732.26	22.267
732.45	28.382
732.63	25.665
732.81	28.432
732.99	24.047
733.17	27.788
733.35	25.352
733.53	27.582
733.71	24.038
733.89	28.857
734.07	26.527
734.25	28.090
734.44	26.524
734.62	29.142
734.80	26.469
734.98	29.087
735.16	26.146
735.34	26.937
735.52	28.916
735.70	24.110
735.88	24.225
736.06	29.517
736.24	31.479
736.42	26.369
736.60	29.859
736.78	30.193
736.97	28.035
737.15	30.503
737.33	19.918
737.51	25.649
737.69	25.021
737.87	29.791
738.05	27.214
738.23	30.641
738.41	27.778
738.59	30.331
738.77	26.347
738.95	31.892
739.13	26.202
739.31	27.559
739.49	24.003
739.67	28.341
739.85	30.607
740.03	31.226
740.21	29.791
740.39	29.107
740.57	28.659
740.75	25.459
740.93	25.649
741.11	28.987
741.30	28.907
741.48	33.524
741.66	26.505
741.84	28.156
742.02	25.214
742.20	27.975
742.38	27.198
742.56	31.491
742.74	28.945
742.92	30.904
743.10	24.523
743.28	32.754
743.46	28.371
743.64	27.273
743.82	22.874
744.00	32.853
744.18	33.303
744.36	29.244
744.54	25.593
744.72	32.052
744.90	31.084
745.08	27.510
745.26	29.756
745.44	32.623
745.62	27.090
745.80	31.785
745.98	32.826
746.16	27.739
746.34	28.705
746.52	31.045
746.70	27.576
746.87	32.513
747.05	27.766
747.23	28.323
747.41	24.468
747.59	32.281
747.77	28.815
747.95	26.880
748.13	24.199
748.31	33.492
748.49	31.928
748.67	31.496
748.85	28.144
749.03	30.600
749.21	28.278
749.39	36.209
749.57	27.388
749.75	30.694
749.93	29.317
750.11	27.482
750.29	28.164
750.47	29.789
750.65	29.659
750.83	39.099
751.01	26.734
751.18	33.048
751.36	32.716
751.54	27.411
751.72	28.771
751.90	30.233
752.08	22.046
752.26	31.182
752.44	29.585
752.62	31.386
752.80	27.207
752.98	30.935
753.16	31.000
753.34	25.338
753.52	24.084
753.69	28.340
753.87	24.211
754.05	31.804
754.23	26.489
754.41	35.196
754.59	29.951
754.77	30.531
754.95	29.952
755.13	34.134
755.31	29.352
755.49	29.215
755.66	27.492
755.84	30.233
756.02	25.919
756.20	32.264
756.38	25.261
756.56	29.486
756.74	27.888
756.92	31.263
757.10	33.538
757.28	30.151
757.45	29.101
757.63	31.429
757.81	27.318
757.99	33.853
758.17	27.399
758.35	28.149
758.53	30.401
758.71	29.809
758.88	26.488
759.06	26.987
759.24	21.013
759.42	23.627
759.60	24.575
759.78	26.253
759.96	17.451
760.13	20.545
760.31	16.667
760.49	18.403
760.67	14.313
760.85	19.503
761.03	17.002
761.21	19.943
761.38	12.004
761.56	15.858
761.74	12.118
761.92	24.272
762.10	6.617
762.28	20.642
762.46	8.981
762.63	16.377
762.81	13.409
762.99	17.597
763.17	14.713
763.35	14.955
763.53	13.860
763.70	20.243
763.88	15.158
764.06	20.611
764.24	15.155
764.42	21.150
764.60	19.928
764.77	20.423
764.95	17.864
765.13	20.000
765.31	16.929
765.49	18.374
765.66	20.523
765.84	22.137
766.02	19.079
766.20	20.608
766.38	16.654
766.56	22.534
766.73	24.439
766.91	25.021
767.09	21.147
767.27	23.602
767.45	20.200
767.62	26.078
767.80	21.756
767.98	29.692
768.16	21.911
768.33	30.761
768.51	26.421
768.69	26.460
768.87	27.212
769.05	25.935
769.22	23.705
769.40	35.181
769.58	19.130
769.76	30.403
769.94	27.317
770.11	25.868
770.29	26.617
770.47	29.274
770.65	29.177
770.82	30.501
771.00	29.587
771.18	32.561
771.36	24.870
771.53	26.145
771.71	32.500
771.89	30.340
772.07	32.104
772.25	28.177
772.42	24.278
772.60	30.984
772.78	20.029
772.96	35.888
773.13	31.593
773.31	32.796
773.49	28.737
773.67	22.511
773.84	26.225
774.02	23.852
774.20	20.146
774.37	26.982
774.55	25.755
774.73	26.168
774.91	24.734
775.08	29.667
775.26	28.947
775.44	34.218
775.62	31.744
775.79	27.977
775.97	27.231
776.15	28.551
776.32	21.572
776.50	33.643
776.68	28.075
776.86	33.075
777.03	33.861
777.21	36.264
777.39	30.044
777.56	28.013
777.74	25.452
777.92	27.260
778.10	30.868
778.27	35.349
778.45	23.135
778.63	27.646
778.80	28.662
778.98	32.240
779.16	29.146
779.34	28.882
779.51	27.761
779.69	34.437
779.87	27.957
780.04	30.423
780.22	23.382
780.40	24.363
780.57	24.242
780.75	30.307
780.93	40.031
781.10	35.325
781.28	33.773
781.46	23.843
781.63	24.298
781.81	29.141
781.99	23.520
782.16	27.318
782.34	20.539
782.52	32.528
782.69	26.647
782.87	30.743
783.05	26.565
783.22	28.929
783.40	30.442
783.58	24.437
783.75	23.540
783.93	28.548
784.11	26.714
784.28	31.488
784.46	26.631
784.64	25.714
784.81	23.297
784.99	29.791
785.17	33.010
785.34	24.911
785.52	17.905
785.69	21.841
785.87	32.030
786.05	23.571
786.22	29.057
786.40	33.394
786.58	30.369
786.75	29.575
786.93	33.275
787.11	30.245
787.28	31.787
787.46	28.700
787.63	22.353
787.81	29.690
787.99	23.726
788.16	26.885
788.34	18.971
788.51	29.186
788.69	24.876
788.87	27.844
789.04	21.244
789.22	25.980
789.39	15.651
789.57	24.925
789.75	19.008
789.92	21.681
790.10	20.516
790.27	24.143
790.45	22.907
790.63	25.040
790.80	26.537
790.98	24.824
791.15	24.379
791.33	28.222
791.51	21.305
791.68	26.571
791.86	28.174
792.03	23.850
792.21	27.390
792.39	24.645
792.56	31.588
792.74	28.355
792.91	25.556
793.09	23.199
793.26	11.111
793.44	24.288
793.62	29.331
793.79	27.634
793.97	28.655
794.14	30.948
794.32	23.896
794.49	30.728
794.67	27.642
794.84	23.061
795.02	32.325
795.20	21.739
795.37	20.200
795.55	21.519
795.72	24.627
795.90	20.468
796.07	23.810
796.25	29.114
796.42	23.077
796.60	24.374
796.77	17.616
796.95	18.807
797.13	13.217
797.30	17.563
797.48	17.463
797.65	21.669
797.83	22.202
798.00	23.507
798.18	11.581
798.35	31.207
798.53	30.097
798.70	23.363
798.88	23.413
799.05	22.460
799.23	16.211
799.40	11.032
799.58	31.130
799.75	24.433
799.93	17.591
800.10	28.383
800.28	23.395
800.45	27.968
800.63	19.962
800.80	32.194
800.98	26.087
801.15	29.242
801.33	22.287
801.50	21.505
801.68	13.696
801.85	22.587
802.03	20.842
802.20	30.101
802.38	27.715
802.55	19.295
802.73	27.938
802.90	20.404
803.08	29.901
803.25	33.066
803.43	22.951
803.60	22.958
803.78	26.719
803.95	11.039
804.13	29.389
804.30	18.345
804.48	28.166
804.65	20.449
804.83	25.553
805.00	23.400
805.17	32.836
805.35	27.624
805.52	25.866
805.70	24.274
805.87	27.099
806.05	28.715
806.22	27.500
806.40	26.087
806.57	33.333
806.75	38.730
806.92	26.132
807.09	25.474
807.27	26.939
807.44	21.415
807.62	22.053
807.79	32.710
807.97	24.000
808.14	14.761
808.31	19.737
808.49	28.369
808.66	15.802
808.84	18.109
809.01	20.230
809.19	19.249
809.36	21.712
809.53	19.222
809.71	26.068
809.88	28.798
810.06	27.133
810.23	31.849
810.41	21.174
810.58	29.612
810.75	17.368
810.93	24.429
811.10	19.432
811.28	12.360
811.45	27.068
811.62	18.414
811.80	20.101
811.97	31.658
812.15	31.891
812.32	21.204
812.49	28.256
812.67	16.468
812.84	28.125
813.02	29.101
813.19	18.886
813.36	18.785
813.54	14.106
813.71	24.742
813.89	29.534
814.06	30.827
814.23	17.059
814.41	18.939
814.58	28.099
814.75	16.894
814.93	23.762
815.10	23.607
815.28	20.398
815.45	18.267
815.62	24.138
815.80	6.433
815.97	16.250
816.14	18.302
816.32	26.357
816.49	7.916
816.66	7.200
816.84	11.845
817.01	23.974
817.18	14.621
817.36	16.452
817.53	19.660
817.71	18.509
817.88	28.241
818.05	27.540
818.23	15.085
818.40	13.067
818.57	21.185
818.75	20.842
818.92	18.296
819.09	18.892
819.27	8.750
819.44	9.976
819.61	12.240
819.79	10.962
819.96	0.228
820.13	17.269
820.31	23.818
820.48	24.236
820.65	16.147
820.82	14.878
821.00	19.726
821.17	13.839
821.34	15.816
821.52	14.126
821.69	17.531
821.86	10.033
822.04	16.328
822.21	15.373
822.38	20.412
822.56	15.062
822.73	21.755
822.90	17.994
823.07	23.204
823.25	19.391
823.42	22.014
823.59	21.534
823.77	25.666
823.94	23.499
824.11	24.599
824.29	19.171
824.46	22.930
824.63	23.551
824.80	22.085
824.98	19.190
825.15	21.283
825.32	15.888
825.49	17.170
825.67	19.943
825.84	20.118
826.01	20.250
826.19	17.833
826.36	15.741
826.53	15.460
826.70	15.789
826.88	14.123
827.05	13.977
827.22	13.884
827.39	18.525
827.57	15.461
827.74	13.054
827.91	20.655
828.08	15.289
828.26	18.983
828.43	15.516
828.60	20.567
828.77	16.260
828.95	11.876
829.12	19.052
829.29	15.023
829.46	15.143
829.64	15.499
829.81	13.507
829.98	16.542
830.15	17.310
830.32	16.142
830.50	7.558
830.67	12.252
830.84	14.312
831.01	15.398
831.19	25.000
831.36	9.761
831.53	17.489
831.70	20.000
831.87	5.932
832.05	24.766
832.22	22.222
832.39	25.532
832.56	18.470
832.74	12.903
832.91	17.207
833.08	25.855
833.25	9.852
833.42	15.658
833.60	23.455
833.77	12.153
833.94	15.655
834.11	16.756
834.28	14.480
834.45	14.112
834.63	18.149
834.80	16.856
834.97	19.707
835.14	18.131
835.31	15.131
835.49	17.193
835.66	12.750
835.83	18.182
836.00	14.465
836.17	17.707
836.34	15.520
836.52	14.110
836.69	24.176
836.86	10.791
837.03	6.780
837.20	18.519
837.37	18.898
837.55	17.083
837.72	19.362
837.89	22.980
838.06	27.143
838.23	16.912
838.40	20.482
838.58	21.614
838.75	31.353
838.92	39.009
839.09	17.526
839.26	23.432
839.43	47.440
839.60	28.829
839.78	37.013
839.95	26.703
840.12	19.113
840.29	25.424
840.46	23.006
840.63	37.304
840.80	23.625
840.98	37.500
841.15	21.562
841.32	18.788
841.49	8.497
841.66	35.443
841.83	31.988
842.00	23.256
842.17	41.761
842.34	22.635
842.52	41.667
842.69	9.153
842.86	36.047
843.03	27.675
843.20	14.176
843.37	32.472
843.54	4.120
843.71	4.911
843.88	37.333
844.06	34.800
844.23	22.381
844.40	32.000
844.57	27.624
844.74	57.927
844.91	38.647
845.08	45.455
845.25	49.275
845.42	37.097
845.59	30.000
845.76	43.590
845.94	51.485
846.11	27.397
846.28	36.905
846.45	46.067
846.62	37.662
846.79	45.205
846.96	41.975
847.13	23.256
847.30	25.517
847.47	18.705
847.64	59.690
847.81	50.847
847.98	13.568
848.15	54.015
848.32	59.748
848.50	71.856
848.67	25.862
848.84	36.986
849.01	30.726
849.18	44.845
849.35	41.406
849.52	43.103
849.69	21.192
849.86	30.612
850.03	44.776
850.20	40.936
850.37	57.143
850.54	48.603
850.71	27.815
850.88	12.291
851.05	68.644
851.22	56.742
851.39	40.541
851.56	37.500
851.73	35.849
851.90	28.571
852.07	81.203
852.24	51.316
852.41	30.476
852.58	38.732
852.75	9.195
852.92	48.780
853.09	75.781
853.26	38.095
853.43	57.547
853.60	50.562
853.77	103.797
853.94	36.496
854.11	19.580
854.28	24.000
854.45	2.344
854.62	32.995
854.79	41.176
854.96	68.000
855.13	49.123
855.30	25.510
855.47	57.759
855.64	43.609
855.81	24.194
855.98	3.968
856.15	24.324
856.32	39.623
856.49	58.140
856.66	0.000
856.83	31.061
857.00	41.830
857.17	33.077
857.34	4.211
857.51	85.612
857.68	54.054
857.85	39.205
858.02	30.370
858.19	36.036
858.36	35.455
858.53	38.710
858.70	53.892
858.87	61.392
859.04	54.032
859.21	21.622
859.38	30.702
859.55	59.701
859.72	58.621
859.89	37.410
860.05	93.694
860.22	37.173
860.39	85.714
860.56	52.672
860.73	62.602
860.90	34.862
861.07	37.500
861.24	48.026
861.41	62.037
861.58	87.500
861.75	45.185
861.92	73.684
862.09	32.593
862.26	64.103
862.43	71.287
862.59	48.529
862.76	76.224
862.93	79.775
863.10	54.286
863.27	17.949
863.44	29.885
863.61	18.248
863.78	63.429
863.95	56.863
864.12	58.621
864.29	40.171
864.45	27.586
864.62	23.729
864.79	22.481
864.96	28.455
865.13	36.937
865.30	61.491
865.47	37.195
865.64	46.043
865.81	52.672
865.97	38.667
866.14	48.980
866.31	30.000
866.48	50.993
866.65	5.128
866.82	39.241
866.99	30.769
867.16	53.383
867.33	17.204
867.49	54.321
867.66	28.866
867.83	41.732
868.00	20.548
868.17	68.595
868.34	49.123
868.51	23.810
868.67	68.354
868.84	28.333
869.01	49.600
869.18	35.461
869.35	58.140
869.52	42.857
869.69	44.521
869.85	62.617
870.02	32.692
870.19	46.610
870.36	57.931
870.53	40.000
870.70	76.730
870.86	36.000
871.03	45.679
871.20	37.615
871.37	25.000
871.54	40.541
871.71	37.857
871.87	16.981
872.04	6.286
872.21	55.652
872.38	38.211
872.55	43.827
872.72	28.125
872.88	49.721
873.05	52.874
873.22	50.340
873.39	35.714
873.56	65.089
873.72	32.941
873.89	31.677
874.06	17.910
874.23	64.407
874.40	6.000
874.56	46.316
874.73	52.439
874.90	48.305
875.07	80.714
875.24	40.994
875.40	56.303
875.57	37.615
875.74	51.200
875.91	20.183
876.08	53.913
876.24	48.837
876.41	80.800
876.58	68.617
876.75	56.738
876.92	57.353
877.08	50.000
877.25	33.913
877.42	44.531
877.59	56.122
877.75	39.333
877.92	34.524
878.09	32.292
878.26	34.731
878.42	36.875
878.59	46.087
878.76	56.579
878.93	40.299
879.09	21.212
879.26	35.976
879.43	20.000
879.60	16.783
879.76	42.045
879.93	45.000
880.10	15.333
880.27	33.540
880.43	23.464
880.60	20.548
880.77	18.750
880.94	28.358
881.10	24.779
881.27	25.902
881.44	7.365
881.61	18.834
881.77	26.577
881.94	9.073
882.11	18.662
882.28	10.518
882.44	15.152
882.61	14.487
882.78	16.541
882.94	15.776
883.11	16.808
883.28	14.649
883.45	13.208
883.61	14.756
883.78	16.490
883.95	16.784
884.11	13.921
884.28	11.211
>>>>>End Processed Spectral Data<<<<<
