SpectraSuite Data File
++++++++++++++++++++++++++++++++++++
Date: Sat Sep 21 03:12:01 EST 2019
User: sgrac
Dark Spectrum Present: Yes
Reference Spectrum Present: Yes
Number of Sampled Component Spectra: 1
Spectrometers: USB4E01596
Integration Time (usec): 100000 (USB4E01596)
Spectra Averaged: 1 (USB4E01596)
Boxcar Smoothing: 0 (USB4E01596)
Correct for Electrical Dark: No (USB4E01596)
Strobe/Lamp Enabled: Yes (USB4E01596)
Correct for Detector Non-linearity: No (USB4E01596)
Correct for Stray Light: No (USB4E01596)
Number of Pixels in Processed Spectrum: 3648
>>>>>Begin Processed Spectral Data<<<<<
178.44	-235.714
178.66	-235.714
178.87	-235.714
179.09	-114.286
179.30	-330.769
179.52	0.000
179.74	-1400.000
179.95	783.333
180.17	320.000
180.38	9700.000
180.60	0.000
180.82	566.667
181.03	-163.158
181.25	265.217
181.46	-187.097
181.68	237.500
181.89	5300.000
182.11	111.429
182.33	-4.444
182.54	-178.125
182.76	-2100.000
182.97	120.000
183.19	1500.000
183.40	210.345
183.62	-85.185
183.84	-133.333
184.05	295.652
184.27	475.000
184.48	671.429
184.70	200.000
184.91	-380.000
185.13	95.556
185.34	-67.857
185.56	121.667
185.78	0.000
185.99	473.333
186.21	189.655
186.42	180.000
186.64	151.613
186.85	96.296
187.07	170.909
187.28	373.333
187.50	-253.333
187.72	580.000
187.93	-5100.000
188.15	168.000
188.36	-76.471
188.58	-2000.000
188.79	200.000
189.01	227.778
189.22	1080.000
189.44	2400.000
189.65	160.000
189.87	875.000
190.09	-1040.000
190.30	456.250
190.52	-2850.000
190.73	137.500
190.95	135.714
191.16	215.556
191.38	490.000
191.59	104.762
191.81	194.444
192.02	182.979
192.24	270.588
192.45	-960.000
192.67	228.571
192.88	550.000
193.10	232.000
193.31	300.000
193.53	-8900.000
193.74	109.756
193.96	287.500
194.18	161.290
194.39	-61.111
194.61	205.263
194.82	428.571
195.04	211.905
195.25	2800.000
195.47	85.366
195.68	155.319
195.90	480.000
196.11	167.273
196.33	129.787
196.54	-1966.667
196.76	182.143
196.97	-966.667
197.19	210.714
197.40	135.294
197.62	84.375
197.83	144.595
198.05	-215.789
198.26	242.857
198.48	225.000
198.69	172.093
198.91	133.333
199.12	-125.714
199.34	-1380.000
199.55	900.000
199.77	2600.000
199.98	112.000
200.20	119.718
200.41	292.857
200.63	-277.778
200.84	119.608
201.06	392.308
201.27	256.757
201.49	1050.000
201.70	262.963
201.91	184.783
202.13	100.000
202.34	150.943
202.56	-585.714
202.77	666.667
202.99	289.286
203.20	1450.000
203.42	325.000
203.63	144.186
203.85	265.714
204.06	101.852
204.28	-540.000
204.49	177.143
204.71	156.410
204.92	0.000
205.14	-300.000
205.35	255.556
205.56	-780.000
205.78	271.429
205.99	790.000
206.21	-80.645
206.42	296.774
206.64	285.714
206.85	725.000
207.07	-323.077
207.28	471.429
207.50	-278.947
207.71	53.846
207.93	168.182
208.14	564.706
208.35	310.526
208.57	-4800.000
208.78	376.923
209.00	277.778
209.21	-2500.000
209.43	289.655
209.64	114.706
209.86	142.857
210.07	0.000
210.28	-494.118
210.50	116.327
210.71	154.386
210.93	295.238
211.14	-144.444
211.36	-132.258
211.57	-66.667
211.78	-91.304
212.00	0.000
212.21	83.721
212.43	-218.182
212.64	182.759
212.86	50.000
213.07	-236.364
213.29	200.000
213.50	4800.000
213.71	160.377
213.93	1142.857
214.14	98.485
214.36	3000.000
214.57	392.308
214.78	225.000
215.00	2850.000
215.21	225.000
215.43	204.000
215.64	284.615
215.86	137.143
216.07	-300.000
216.28	256.000
216.50	-885.714
216.71	-1580.000
216.93	210.638
217.14	128.125
217.35	207.407
217.57	217.857
217.78	650.000
218.00	-150.000
218.21	252.632
218.42	-1133.333
218.64	370.588
218.85	-655.556
219.07	428.571
219.28	1125.000
219.49	69.737
219.71	2366.667
219.92	191.667
220.14	237.500
220.35	375.000
220.56	123.077
220.78	182.353
220.99	-4100.000
221.21	395.238
221.42	0.000
221.63	222.500
221.85	132.258
222.06	346.429
222.28	165.909
222.49	-2750.000
222.70	0.000
222.92	122.222
223.13	163.333
223.34	-1025.000
223.56	97.368
223.77	68.539
223.99	228.205
224.20	61.905
224.41	248.649
224.63	219.444
224.84	148.276
225.05	121.429
225.27	68.571
225.48	102.174
225.69	214.286
225.91	218.519
226.12	130.556
226.34	110.784
226.55	68.519
226.76	112.903
226.98	132.000
227.19	63.636
227.40	59.504
227.62	93.902
227.83	77.000
228.04	74.725
228.26	55.446
228.47	8.621
228.69	44.737
228.90	-2.817
229.11	34.074
229.33	42.995
229.54	23.026
229.75	33.043
229.97	25.322
230.18	4.301
230.39	2.110
230.61	10.377
230.82	26.556
231.03	-9.129
231.25	19.865
231.46	27.372
231.67	39.130
231.89	37.255
232.10	12.955
232.31	23.077
232.53	25.424
232.74	40.104
232.95	26.506
233.17	36.994
233.38	-1.493
233.59	49.265
233.81	37.864
234.02	53.947
234.23	60.428
234.45	31.579
234.66	10.734
234.87	22.148
235.09	67.407
235.30	28.161
235.51	35.922
235.73	17.610
235.94	28.497
236.15	15.306
236.36	38.095
236.58	47.867
236.79	35.602
237.00	25.121
237.22	45.679
237.43	12.745
237.64	24.891
237.86	33.152
238.07	43.216
238.28	11.475
238.50	20.000
238.71	34.911
238.92	16.071
239.13	35.429
239.35	15.385
239.56	26.563
239.77	48.780
239.99	32.075
240.20	1.053
240.41	31.034
240.63	15.385
240.84	23.506
241.05	16.788
241.26	8.264
241.48	20.944
241.69	9.177
241.90	15.493
242.12	12.245
242.33	14.009
242.54	4.264
242.75	17.078
242.97	8.448
243.18	11.616
243.39	12.946
243.61	8.096
243.82	7.832
244.03	2.158
244.24	0.920
244.46	12.593
244.67	6.437
244.88	9.859
245.09	10.851
245.31	0.576
245.52	19.301
245.73	18.093
245.95	14.712
246.16	7.809
246.37	16.085
246.58	14.019
246.80	18.501
247.01	1.659
247.22	8.701
247.43	4.157
247.65	7.543
247.86	-0.684
248.07	2.676
248.28	6.240
248.50	5.473
248.71	5.874
248.92	1.965
249.13	7.473
249.35	5.859
249.56	8.243
249.77	6.104
249.98	6.883
250.20	5.111
250.41	3.911
250.62	6.145
250.83	1.767
251.05	6.100
251.26	-2.904
251.47	9.910
251.68	8.592
251.90	14.130
252.11	4.878
252.32	11.636
252.53	9.887
252.75	8.800
252.96	13.782
253.17	12.067
253.38	16.081
253.59	-0.847
253.81	6.996
254.02	9.804
254.23	15.675
254.44	13.972
254.66	10.579
254.87	17.329
255.08	7.326
255.29	15.863
255.50	17.204
255.72	24.541
255.93	21.411
256.14	17.727
256.35	17.799
256.57	14.436
256.78	22.603
256.99	20.942
257.20	3.883
257.41	16.149
257.63	12.679
257.84	15.560
258.05	15.417
258.26	13.874
258.47	10.197
258.69	10.966
258.90	11.180
259.11	5.460
259.32	4.743
259.53	4.826
259.75	6.448
259.96	1.945
260.17	6.732
260.38	0.566
260.59	3.704
260.81	3.640
261.02	4.485
261.23	5.732
261.44	4.037
261.65	5.239
261.87	1.939
262.08	3.865
262.29	5.638
262.50	6.098
262.71	7.119
262.92	6.762
263.14	8.752
263.35	1.404
263.56	0.706
263.77	7.648
263.98	10.185
264.20	10.492
264.41	6.077
264.62	11.321
264.83	8.757
265.04	10.879
265.25	9.302
265.47	9.517
265.68	11.953
265.89	6.489
266.10	3.125
266.31	11.807
266.52	7.212
266.74	7.002
266.95	4.712
267.16	6.057
267.37	10.250
267.58	3.571
267.79	0.890
268.01	8.462
268.22	11.078
268.43	9.897
268.64	2.932
268.85	3.202
269.06	4.137
269.27	7.411
269.49	3.326
269.70	3.816
269.91	6.083
270.12	8.031
270.33	9.062
270.54	8.988
270.75	8.187
270.97	6.276
271.18	3.487
271.39	7.895
271.60	5.268
271.81	4.713
272.02	7.424
272.23	9.141
272.45	5.116
272.66	3.658
272.87	2.560
273.08	4.102
273.29	4.870
273.50	6.998
273.71	3.116
273.92	4.144
274.14	2.682
274.35	-1.862
274.56	2.238
274.77	2.638
274.98	7.371
275.19	7.016
275.40	9.372
275.61	2.594
275.83	6.860
276.04	5.513
276.25	5.294
276.46	6.118
276.67	3.593
276.88	7.239
277.09	4.856
277.30	4.782
277.51	10.082
277.73	3.700
277.94	6.918
278.15	6.069
278.36	4.255
278.57	7.070
278.78	8.600
278.99	7.024
279.20	6.638
279.41	6.707
279.62	-0.321
279.84	6.753
280.05	4.334
280.26	4.969
280.47	4.839
280.68	-0.437
280.89	12.115
281.10	8.111
281.31	3.137
281.52	7.556
281.73	8.484
281.94	5.727
282.16	6.872
282.37	6.435
282.58	6.043
282.79	6.297
283.00	7.352
283.21	3.548
283.42	3.005
283.63	1.634
283.84	4.416
284.05	5.060
284.26	5.361
284.47	4.219
284.68	5.547
284.89	3.157
285.11	4.531
285.32	3.391
285.53	2.108
285.74	6.254
285.95	2.945
286.16	6.349
286.37	2.865
286.58	3.080
286.79	5.462
287.00	6.083
287.21	1.186
287.42	4.379
287.63	5.425
287.84	3.459
288.05	4.353
288.26	4.308
288.48	4.740
288.69	2.016
288.90	2.117
289.11	5.891
289.32	4.388
289.53	4.326
289.74	3.214
289.95	4.945
290.16	4.843
290.37	3.378
290.58	3.610
290.79	3.167
291.00	6.796
291.21	0.461
291.42	4.233
291.63	3.598
291.84	5.615
292.05	3.316
292.26	4.676
292.47	5.222
292.68	0.548
292.89	5.437
293.10	4.745
293.31	6.205
293.52	5.068
293.73	2.651
293.94	4.930
294.15	5.287
294.36	3.735
294.57	6.773
294.79	7.913
295.00	7.322
295.21	2.874
295.42	3.967
295.63	4.782
295.84	2.208
296.05	6.364
296.26	4.140
296.47	6.196
296.68	3.416
296.89	4.380
297.10	4.302
297.31	3.425
297.52	5.182
297.73	3.979
297.94	2.923
298.15	2.504
298.36	4.580
298.57	3.462
298.78	4.407
298.99	2.091
299.20	2.243
299.41	2.334
299.62	5.655
299.83	5.057
300.04	5.808
300.25	6.031
300.46	4.077
300.67	5.423
300.88	4.700
301.09	4.703
301.30	7.065
301.50	5.962
301.71	2.446
301.92	7.219
302.13	5.246
302.34	4.787
302.55	3.542
302.76	4.539
302.97	8.439
303.18	5.040
303.39	4.852
303.60	4.944
303.81	8.465
304.02	4.758
304.23	5.031
304.44	5.968
304.65	4.225
304.86	4.443
305.07	4.536
305.28	6.593
305.49	10.186
305.70	5.045
305.91	5.489
306.12	5.036
306.33	5.744
306.54	5.209
306.75	6.967
306.96	11.601
307.17	5.819
307.38	5.191
307.58	2.529
307.79	8.580
308.00	8.145
308.21	7.948
308.42	7.239
308.63	11.254
308.84	7.303
309.05	7.281
309.26	6.596
309.47	5.862
309.68	4.296
309.89	8.101
310.10	5.860
310.31	5.421
310.52	4.785
310.73	8.423
310.94	3.710
311.14	3.644
311.35	5.236
311.56	3.473
311.77	3.704
311.98	2.298
312.19	5.543
312.40	4.026
312.61	6.919
312.82	4.946
313.03	5.211
313.24	6.217
313.45	7.640
313.66	5.349
313.86	5.569
314.07	5.691
314.28	4.902
314.49	7.932
314.70	4.691
314.91	7.317
315.12	8.248
315.33	8.345
315.54	7.624
315.75	3.756
315.96	3.966
316.16	6.966
316.37	8.493
316.58	8.690
316.79	7.824
317.00	8.828
317.21	6.156
317.42	6.407
317.63	9.195
317.84	10.288
318.05	4.622
318.25	10.313
318.46	8.021
318.67	6.416
318.88	8.426
319.09	8.971
319.30	6.452
319.51	6.162
319.72	10.274
319.93	7.199
320.13	6.436
320.34	7.801
320.55	5.399
320.76	7.837
320.97	9.435
321.18	8.675
321.39	7.238
321.60	5.568
321.80	11.490
322.01	6.836
322.22	9.268
322.43	4.897
322.64	5.126
322.85	7.061
323.06	10.244
323.27	8.393
323.47	7.668
323.68	8.430
323.89	7.640
324.10	8.814
324.31	5.882
324.52	6.154
324.73	8.896
324.93	6.154
325.14	4.524
325.35	7.518
325.56	7.528
325.77	7.366
325.98	8.174
326.19	7.063
326.39	7.539
326.60	7.736
326.81	7.129
327.02	9.063
327.23	3.993
327.44	10.318
327.64	6.884
327.85	8.206
328.06	10.237
328.27	12.860
328.48	9.675
328.69	7.143
328.90	8.424
329.10	4.446
329.31	4.590
329.52	8.856
329.73	12.169
329.94	6.648
330.15	7.877
330.35	8.223
330.56	10.470
330.77	7.485
330.98	8.395
331.19	8.930
331.39	8.458
331.60	6.311
331.81	8.740
332.02	12.450
332.23	7.061
332.44	9.960
332.64	10.605
332.85	9.285
333.06	10.222
333.27	4.771
333.48	8.312
333.68	8.272
333.89	7.987
334.10	4.237
334.31	9.677
334.52	8.541
334.72	8.182
334.93	8.024
335.14	9.367
335.35	5.815
335.56	9.745
335.76	4.915
335.97	11.159
336.18	7.293
336.39	9.981
336.60	12.149
336.80	8.278
337.01	7.813
337.22	7.742
337.43	10.443
337.64	11.776
337.84	6.593
338.05	8.407
338.26	9.834
338.47	10.933
338.68	6.711
338.88	9.048
339.09	9.521
339.30	9.326
339.51	9.482
339.71	13.515
339.92	7.555
340.13	10.837
340.34	8.261
340.55	10.872
340.75	8.599
340.96	8.036
341.17	10.664
341.38	8.167
341.58	8.445
341.79	12.931
342.00	6.268
342.21	8.367
342.41	8.098
342.62	9.179
342.83	10.603
343.04	7.473
343.24	10.414
343.45	12.356
343.66	8.632
343.87	13.611
344.07	6.264
344.28	11.933
344.49	11.955
344.70	14.625
344.90	10.523
345.11	7.981
345.32	8.567
345.53	7.885
345.73	9.990
345.94	13.982
346.15	13.001
346.36	10.182
346.56	10.573
346.77	14.492
346.98	10.849
347.19	14.448
347.39	11.837
347.60	12.057
347.81	14.200
348.02	13.221
348.22	6.717
348.43	13.430
348.64	10.460
348.84	14.181
349.05	13.405
349.26	18.667
349.47	10.130
349.67	12.914
349.88	13.856
350.09	14.571
350.30	13.300
350.50	10.972
350.71	14.582
350.92	15.787
351.12	12.805
351.33	12.357
351.54	12.257
351.74	15.842
351.95	12.671
352.16	14.662
352.37	15.877
352.57	13.196
352.78	11.502
352.99	15.904
353.19	11.220
353.40	11.135
353.61	17.788
353.82	14.488
354.02	13.919
354.23	13.670
354.44	14.664
354.64	15.895
354.85	12.265
355.06	13.897
355.26	10.176
355.47	15.622
355.68	14.571
355.88	16.755
356.09	13.399
356.30	12.123
356.51	16.437
356.71	16.072
356.92	11.751
357.13	15.766
357.33	16.340
357.54	13.793
357.75	11.197
357.95	16.872
358.16	11.168
358.37	19.661
358.57	11.663
358.78	20.298
358.99	13.745
359.19	14.157
359.40	15.394
359.61	15.494
359.81	14.697
360.02	17.841
360.23	13.199
360.43	15.350
360.64	13.235
360.85	15.265
361.05	13.291
361.26	18.789
361.47	13.791
361.67	18.839
361.88	10.151
362.09	18.301
362.29	12.809
362.50	14.358
362.70	11.998
362.91	18.260
363.12	11.821
363.32	15.352
363.53	15.033
363.74	17.250
363.94	11.943
364.15	18.652
364.36	14.160
364.56	14.232
364.77	15.480
364.98	18.532
365.18	14.530
365.39	17.478
365.59	11.415
365.80	15.722
366.01	16.046
366.21	12.543
366.42	10.913
366.63	17.383
366.83	12.821
367.04	9.623
367.24	15.209
367.45	11.306
367.66	9.907
367.86	15.997
368.07	10.704
368.28	12.173
368.48	13.624
368.69	10.035
368.89	12.368
369.10	13.679
369.31	10.452
369.51	11.426
369.72	14.532
369.92	17.492
370.13	8.048
370.34	13.761
370.54	7.035
370.75	13.215
370.95	8.436
371.16	13.991
371.37	10.401
371.57	11.485
371.78	12.300
371.98	13.962
372.19	13.236
372.40	15.952
372.60	13.043
372.81	13.854
373.01	8.960
373.22	11.773
373.43	12.705
373.63	15.343
373.84	11.226
374.04	13.469
374.25	11.467
374.46	12.606
374.66	11.957
374.87	11.107
375.07	7.477
375.28	10.263
375.48	8.917
375.69	12.963
375.90	9.107
376.10	8.211
376.31	9.104
376.51	11.228
376.72	9.834
376.92	8.776
377.13	11.630
377.34	13.853
377.54	10.073
377.75	13.854
377.95	9.731
378.16	13.121
378.36	10.619
378.57	13.882
378.77	12.029
378.98	12.484
379.19	10.383
379.39	8.160
379.60	10.046
379.80	13.225
380.01	12.472
380.21	9.783
380.42	10.526
380.62	11.506
380.83	12.573
381.04	11.024
381.24	11.175
381.45	9.738
381.65	8.065
381.86	10.317
382.06	11.256
382.27	7.020
382.47	7.933
382.68	14.370
382.88	6.851
383.09	8.250
383.29	7.196
383.50	12.892
383.71	8.973
383.91	10.421
384.12	7.389
384.32	10.379
384.53	8.984
384.73	7.518
384.94	7.926
385.14	10.247
385.35	7.203
385.55	8.773
385.76	8.458
385.96	11.358
386.17	9.693
386.37	10.629
386.58	8.562
386.78	9.634
386.99	7.102
387.19	11.108
387.40	7.594
387.60	13.216
387.81	8.658
388.01	9.011
388.22	9.742
388.42	11.172
388.63	9.559
388.83	11.650
389.04	7.055
389.24	10.961
389.45	8.237
389.65	9.237
389.86	6.792
390.06	7.862
390.27	7.418
390.47	8.348
390.68	6.466
390.88	11.948
391.09	10.091
391.29	10.200
391.50	9.059
391.70	9.238
391.91	8.138
392.11	9.829
392.32	9.071
392.52	11.181
392.73	8.848
392.93	9.227
393.14	8.470
393.34	10.243
393.55	7.507
393.75	10.449
393.95	7.947
394.16	10.333
394.36	11.260
394.57	12.174
394.77	9.580
394.98	9.076
395.18	8.575
395.39	8.993
395.59	8.707
395.80	8.890
396.00	8.557
396.21	10.675
396.41	7.700
396.61	11.553
396.82	8.208
397.02	11.683
397.23	9.562
397.43	8.740
397.64	6.096
397.84	10.370
398.05	6.800
398.25	11.215
398.45	8.496
398.66	9.597
398.86	9.520
399.07	10.938
399.27	7.352
399.48	8.388
399.68	7.198
399.89	8.161
400.09	9.248
400.29	7.041
400.50	8.187
400.70	8.899
400.91	6.906
401.11	7.167
401.32	8.501
401.52	7.422
401.72	8.023
401.93	11.480
402.13	8.643
402.34	8.247
402.54	7.053
402.75	10.823
402.95	6.008
403.15	11.156
403.36	5.952
403.56	8.522
403.77	7.056
403.97	7.918
404.17	6.473
404.38	9.297
404.58	6.934
404.79	9.341
404.99	8.440
405.19	8.473
405.40	6.806
405.60	10.017
405.81	8.525
406.01	8.070
406.21	6.816
406.42	8.721
406.62	8.613
406.83	9.509
407.03	8.555
407.23	6.421
407.44	7.556
407.64	9.705
407.85	8.730
408.05	8.737
408.25	6.092
408.46	9.518
408.66	8.484
408.87	7.879
409.07	7.009
409.27	6.873
409.48	7.847
409.68	7.914
409.88	5.947
410.09	8.440
410.29	7.170
410.50	9.637
410.70	4.788
410.90	7.266
411.11	6.050
411.31	8.006
411.51	7.933
411.72	8.770
411.92	6.154
412.12	6.953
412.33	5.925
412.53	7.614
412.74	5.673
412.94	7.570
413.14	6.583
413.35	8.223
413.55	7.327
413.75	8.373
413.96	5.600
414.16	7.964
414.36	7.875
414.57	7.220
414.77	7.148
414.97	7.348
415.18	7.672
415.38	7.404
415.58	7.021
415.79	5.989
415.99	7.461
416.19	8.024
416.40	7.674
416.60	7.637
416.80	7.131
417.01	8.102
417.21	5.837
417.41	9.996
417.62	7.555
417.82	8.497
418.02	5.980
418.23	8.204
418.43	7.902
418.63	8.468
418.84	9.801
419.04	8.723
419.24	9.684
419.45	10.097
419.65	10.026
419.85	10.357
420.06	9.571
420.26	9.880
420.46	9.114
420.67	11.198
420.87	10.097
421.07	11.210
421.28	9.690
421.48	11.567
421.68	10.768
421.88	11.716
422.09	10.933
422.29	10.870
422.49	9.762
422.70	10.943
422.90	9.713
423.10	11.047
423.31	9.815
423.51	11.083
423.71	9.211
423.91	11.494
424.12	11.048
424.32	11.077
424.52	10.158
424.73	11.342
424.93	10.433
425.13	10.705
425.33	9.742
425.54	11.221
425.74	10.163
425.94	11.044
426.15	10.443
426.35	11.093
426.55	10.118
426.75	11.195
426.96	10.566
427.16	9.891
427.36	9.532
427.57	11.287
427.77	9.023
427.97	10.129
428.17	9.553
428.38	10.279
428.58	7.022
428.78	8.823
428.98	7.138
429.19	8.506
429.39	7.175
429.59	9.146
429.79	6.802
430.00	7.168
430.20	5.954
430.40	8.059
430.60	7.456
430.81	8.405
431.01	7.028
431.21	8.358
431.41	6.728
431.62	9.291
431.82	8.253
432.02	10.247
432.22	7.845
432.43	7.584
432.63	6.169
432.83	8.761
433.03	8.503
433.24	7.616
433.44	7.855
433.64	8.560
433.84	7.860
434.05	9.867
434.25	8.596
434.45	9.095
434.65	9.398
434.85	11.433
435.06	9.306
435.26	10.148
435.46	8.552
435.66	8.872
435.87	8.195
436.07	9.642
436.27	8.999
436.47	8.077
436.67	8.485
436.88	9.987
437.08	8.362
437.28	9.550
437.48	8.918
437.69	9.800
437.89	8.420
438.09	10.047
438.29	8.991
438.49	9.398
438.70	8.878
438.90	9.104
439.10	8.386
439.30	10.632
439.50	8.567
439.71	10.258
439.91	9.215
440.11	10.112
440.31	10.364
440.51	9.800
440.72	9.076
440.92	10.615
441.12	10.289
441.32	11.026
441.52	10.370
441.72	10.939
441.93	10.195
442.13	11.614
442.33	9.824
442.53	11.487
442.73	9.417
442.94	11.151
443.14	8.988
443.34	11.142
443.54	10.183
443.74	10.978
443.94	10.031
444.15	9.824
444.35	8.939
444.55	10.403
444.75	9.278
444.95	9.745
445.15	9.141
445.36	10.404
445.56	8.453
445.76	10.668
445.96	9.554
446.16	10.142
446.36	8.451
446.57	11.209
446.77	9.484
446.97	10.438
447.17	10.573
447.37	11.173
447.57	10.518
447.77	11.020
447.98	10.099
448.18	11.415
448.38	10.643
448.58	11.190
448.78	10.960
448.98	10.550
449.18	9.896
449.39	10.233
449.59	9.774
449.79	10.609
449.99	9.041
450.19	10.000
450.39	9.121
450.59	10.293
450.79	8.735
451.00	10.656
451.20	9.647
451.40	9.864
451.60	8.766
451.80	9.532
452.00	7.547
452.20	9.938
452.40	8.760
452.61	9.707
452.81	8.672
453.01	9.634
453.21	8.255
453.41	9.941
453.61	9.186
453.81	10.113
454.01	9.076
454.21	10.030
454.42	9.232
454.62	9.658
454.82	7.826
455.02	9.079
455.22	7.802
455.42	8.841
455.62	6.727
455.82	9.414
456.02	8.357
456.23	8.737
456.43	9.000
456.63	9.818
456.83	7.418
457.03	9.822
457.23	8.337
457.43	9.159
457.63	7.370
457.83	9.360
458.03	7.658
458.23	9.033
458.43	8.165
458.64	9.225
458.84	8.520
459.04	9.355
459.24	8.399
459.44	10.057
459.64	9.281
459.84	9.986
460.04	10.066
460.24	10.248
460.44	10.030
460.64	10.731
460.84	10.300
461.04	10.848
461.24	10.443
461.45	10.903
461.65	10.920
461.85	10.840
462.05	10.155
462.25	11.520
462.45	10.721
462.65	10.972
462.85	8.589
463.05	10.083
463.25	8.326
463.45	9.358
463.65	8.326
463.85	9.846
464.05	7.685
464.25	8.828
464.45	9.123
464.65	8.843
464.85	8.247
465.05	9.202
465.26	8.006
465.46	9.797
465.66	9.679
465.86	9.916
466.06	8.828
466.26	9.778
466.46	6.703
466.66	8.933
466.86	9.436
467.06	8.481
467.26	8.692
467.46	10.044
467.66	8.513
467.86	9.769
468.06	8.714
468.26	8.628
468.46	9.523
468.66	9.257
468.86	7.779
469.06	9.706
469.26	8.034
469.46	9.096
469.66	7.460
469.86	10.225
470.06	8.835
470.26	10.482
470.46	8.382
470.66	10.628
470.86	6.887
471.06	8.672
471.26	7.928
471.46	8.710
471.66	8.402
471.86	9.155
472.06	8.213
472.26	9.446
472.46	9.624
472.66	9.391
472.86	7.765
473.06	8.743
473.26	7.885
473.46	8.872
473.66	7.959
473.86	10.231
474.06	8.642
474.26	8.968
474.46	7.570
474.66	8.821
474.86	8.917
475.06	9.279
475.26	6.198
475.46	9.528
475.66	7.908
475.86	9.080
476.06	9.156
476.26	9.944
476.46	7.754
476.66	9.105
476.86	7.930
477.06	8.504
477.26	7.932
477.46	9.510
477.65	8.703
477.85	9.694
478.05	7.485
478.25	10.242
478.45	8.690
478.65	8.951
478.85	8.993
479.05	9.611
479.25	8.868
479.45	10.875
479.65	7.821
479.85	10.306
480.05	9.200
480.25	10.214
480.45	9.389
480.65	9.933
480.85	8.674
481.05	10.155
481.25	10.122
481.44	10.443
481.64	8.443
481.84	10.522
482.04	10.196
482.24	10.872
482.44	9.758
482.64	10.630
482.84	10.387
483.04	10.978
483.24	10.363
483.44	11.226
483.64	10.505
483.84	10.950
484.04	11.145
484.23	11.060
484.43	11.277
484.63	11.467
484.83	11.176
485.03	11.528
485.23	11.346
485.43	11.653
485.63	11.730
485.83	11.862
486.03	11.587
486.23	11.558
486.42	11.380
486.62	11.532
486.82	11.616
487.02	11.603
487.22	11.517
487.42	11.436
487.62	11.197
487.82	11.204
488.02	10.594
488.22	11.227
488.41	11.022
488.61	11.314
488.81	11.019
489.01	11.450
489.21	11.291
489.41	11.461
489.61	11.322
489.81	11.043
490.01	11.346
490.20	11.500
490.40	11.277
490.60	11.550
490.80	11.324
491.00	11.487
491.20	10.862
491.40	10.986
491.60	10.731
491.79	10.940
491.99	10.804
492.19	11.102
492.39	11.240
492.59	10.836
492.79	11.127
492.99	11.404
493.19	11.437
493.38	11.216
493.58	11.638
493.78	11.214
493.98	11.030
494.18	11.631
494.38	11.548
494.58	11.117
494.77	9.705
494.97	11.047
495.17	10.573
495.37	10.822
495.57	9.955
495.77	10.802
495.96	10.212
496.16	9.862
496.36	10.053
496.56	11.045
496.76	9.173
496.96	10.011
497.15	9.791
497.35	10.270
497.55	9.772
497.75	10.865
497.95	10.350
498.15	11.317
498.34	10.336
498.54	11.100
498.74	10.886
498.94	11.220
499.14	9.688
499.34	10.641
499.53	9.795
499.73	11.210
499.93	9.738
500.13	11.115
500.33	9.613
500.52	10.440
500.72	9.815
500.92	10.158
501.12	9.810
501.32	10.442
501.52	9.731
501.71	10.114
501.91	9.457
502.11	10.290
502.31	9.333
502.51	10.803
502.70	8.665
502.90	9.474
503.10	8.790
503.30	10.314
503.50	9.733
503.69	10.671
503.89	9.149
504.09	10.436
504.29	8.553
504.48	9.766
504.68	10.367
504.88	10.933
505.08	8.906
505.28	10.487
505.47	9.697
505.67	11.608
505.87	10.027
506.07	9.672
506.27	9.418
506.46	10.854
506.66	8.972
506.86	10.302
507.06	9.551
507.25	10.326
507.45	9.841
507.65	10.536
507.85	9.514
508.04	10.374
508.24	10.211
508.44	9.722
508.64	10.102
508.83	11.020
509.03	9.815
509.23	11.050
509.43	9.683
509.63	11.551
509.82	9.546
510.02	10.876
510.22	10.144
510.42	11.573
510.61	10.476
510.81	11.072
511.01	10.511
511.21	11.113
511.40	10.373
511.60	11.174
511.80	10.588
511.99	11.019
512.19	11.077
512.39	10.921
512.59	10.052
512.78	10.998
512.98	10.643
513.18	10.258
513.38	9.949
513.57	10.984
513.77	10.873
513.97	11.006
514.17	10.556
514.36	11.066
514.56	10.362
514.76	10.861
514.95	10.112
515.15	11.282
515.35	9.616
515.55	11.115
515.74	9.988
515.94	10.929
516.14	9.295
516.33	10.490
516.53	10.305
516.73	10.786
516.93	9.818
517.12	11.341
517.32	8.878
517.52	10.615
517.71	9.943
517.91	11.262
518.11	10.657
518.30	11.757
518.50	10.243
518.70	11.492
518.90	11.002
519.09	11.597
519.29	11.455
519.49	11.629
519.68	10.668
519.88	11.846
520.08	11.069
520.27	11.448
520.47	11.641
520.67	11.544
520.86	11.375
521.06	11.577
521.26	10.589
521.45	11.626
521.65	10.918
521.85	11.745
522.04	10.781
522.24	11.384
522.44	10.077
522.63	11.172
522.83	9.415
523.03	11.236
523.22	10.410
523.42	10.830
523.62	10.645
523.81	11.433
524.01	10.554
524.21	10.793
524.40	10.343
524.60	11.065
524.80	10.382
524.99	10.834
525.19	10.636
525.39	11.714
525.58	10.942
525.78	11.400
525.98	11.249
526.17	11.294
526.37	11.537
526.57	11.916
526.76	11.505
526.96	11.944
527.15	11.792
527.35	11.323
527.55	11.726
527.74	12.340
527.94	11.451
528.14	11.498
528.33	11.656
528.53	11.557
528.72	11.910
528.92	11.706
529.12	11.727
529.31	12.077
529.51	12.083
529.71	11.954
529.90	11.895
530.10	12.186
530.29	12.342
530.49	12.134
530.69	12.249
530.88	12.325
531.08	11.973
531.28	12.111
531.47	12.367
531.67	11.709
531.86	12.005
532.06	12.097
532.26	11.988
532.45	12.255
532.65	12.005
532.84	11.321
533.04	11.535
533.24	12.062
533.43	11.718
533.63	12.116
533.82	12.015
534.02	12.304
534.22	12.204
534.41	11.963
534.61	12.209
534.80	11.904
535.00	12.248
535.19	12.392
535.39	12.299
535.59	12.454
535.78	12.004
535.98	12.222
536.17	11.939
536.37	12.241
536.57	12.054
536.76	12.143
536.96	11.777
537.15	12.163
537.35	12.227
537.54	12.278
537.74	12.230
537.93	12.583
538.13	12.062
538.33	12.826
538.52	11.799
538.72	12.466
538.91	12.010
539.11	12.303
539.30	11.327
539.50	12.190
539.70	11.444
539.89	12.679
540.09	11.703
540.28	12.768
540.48	10.915
540.67	12.268
540.87	11.438
541.06	12.222
541.26	11.807
541.45	12.750
541.65	12.798
541.85	12.265
542.04	12.307
542.24	12.549
542.43	12.709
542.63	12.437
542.82	12.705
543.02	13.037
543.21	12.801
543.41	12.959
543.60	13.176
543.80	13.044
543.99	12.624
544.19	12.884
544.38	12.973
544.58	12.733
544.77	12.590
544.97	12.904
545.16	12.551
545.36	13.137
545.56	13.266
545.75	13.456
545.95	12.080
546.14	12.954
546.34	11.947
546.53	12.654
546.73	13.042
546.92	12.241
547.12	12.518
547.31	13.806
547.51	12.428
547.70	13.066
547.90	12.676
548.09	13.346
548.29	13.357
548.48	13.284
548.68	12.512
548.87	13.935
549.07	12.972
549.26	12.948
549.46	12.007
549.65	13.428
549.84	11.828
550.04	12.309
550.23	12.068
550.43	12.319
550.62	11.639
550.82	12.489
551.01	11.183
551.21	12.812
551.40	11.076
551.60	13.148
551.79	11.821
551.99	12.456
552.18	11.558
552.38	12.611
552.57	11.505
552.77	13.252
552.96	13.641
553.16	13.446
553.35	12.590
553.54	14.201
553.74	12.931
553.93	13.779
554.13	13.027
554.32	13.456
554.52	12.680
554.71	13.599
554.91	11.914
555.10	13.814
555.29	11.991
555.49	13.939
555.68	12.689
555.88	13.204
556.07	12.087
556.27	14.103
556.46	12.147
556.66	13.249
556.85	13.370
557.04	13.497
557.24	12.258
557.43	12.897
557.63	13.039
557.82	12.606
558.02	12.454
558.21	14.182
558.40	13.006
558.60	14.109
558.79	12.987
558.99	14.198
559.18	12.384
559.38	13.745
559.57	12.916
559.76	14.121
559.96	13.416
560.15	13.693
560.35	13.376
560.54	13.808
560.73	12.470
560.93	14.750
561.12	13.680
561.32	15.653
561.51	13.782
561.70	14.615
561.90	13.070
562.09	15.439
562.29	14.379
562.48	15.041
562.67	14.485
562.87	15.022
563.06	14.729
563.26	15.661
563.45	14.721
563.64	15.928
563.84	15.387
564.03	15.513
564.23	13.693
564.42	16.548
564.61	14.197
564.81	15.606
565.00	14.312
565.20	16.309
565.39	15.384
565.58	16.993
565.78	14.872
565.97	17.018
566.16	16.645
566.36	18.586
566.55	16.646
566.74	17.253
566.94	17.031
567.13	17.178
567.33	16.539
567.52	17.244
567.71	17.033
567.91	17.235
568.10	16.956
568.29	17.442
568.49	16.342
568.68	18.045
568.87	16.823
569.07	18.135
569.26	16.465
569.45	18.059
569.65	16.621
569.84	18.316
570.04	17.628
570.23	17.705
570.42	16.775
570.62	17.609
570.81	17.101
571.00	18.323
571.20	18.223
571.39	18.396
571.58	18.141
571.78	18.844
571.97	17.602
572.16	18.603
572.36	17.565
572.55	18.312
572.74	18.296
572.94	18.819
573.13	18.839
573.32	19.666
573.51	18.384
573.71	18.887
573.90	18.218
574.09	18.434
574.29	18.745
574.48	19.589
574.67	19.285
574.87	18.482
575.06	18.451
575.25	19.215
575.45	18.330
575.64	19.200
575.83	18.156
576.03	19.509
576.22	18.569
576.41	19.154
576.60	18.338
576.80	20.192
576.99	18.576
577.18	18.989
577.38	18.184
577.57	19.453
577.76	18.799
577.95	19.634
578.15	18.116
578.34	19.671
578.53	18.210
578.73	19.461
578.92	18.739
579.11	19.560
579.30	17.738
579.50	19.771
579.69	18.685
579.88	20.013
580.08	17.734
580.27	18.757
580.46	18.420
580.65	18.565
580.85	17.967
581.04	17.843
581.23	17.950
581.42	18.467
581.62	16.411
581.81	19.628
582.00	17.032
582.19	19.164
582.39	18.344
582.58	18.285
582.77	18.202
582.96	18.217
583.16	16.847
583.35	18.906
583.54	17.986
583.73	18.253
583.93	18.192
584.12	18.208
584.31	18.288
584.50	18.411
584.70	18.235
584.89	19.048
585.08	17.738
585.27	19.402
585.47	15.726
585.66	17.182
585.85	16.933
586.04	18.736
586.24	17.298
586.43	17.656
586.62	16.436
586.81	18.350
587.00	15.011
587.20	18.481
587.39	16.719
587.58	19.095
587.77	17.367
587.97	17.904
588.16	17.698
588.35	18.539
588.54	17.033
588.73	17.894
588.93	17.988
589.12	18.701
589.31	17.839
589.50	18.417
589.69	16.875
589.89	18.635
590.08	17.264
590.27	19.298
590.46	18.319
590.65	18.824
590.85	17.769
591.04	19.522
591.23	18.076
591.42	19.228
591.61	18.059
591.81	19.033
592.00	17.483
592.19	19.013
592.38	18.966
592.57	19.054
592.77	18.450
592.96	17.253
593.15	17.934
593.34	17.935
593.53	16.927
593.72	19.477
593.92	17.038
594.11	19.448
594.30	17.101
594.49	18.163
594.68	18.322
594.87	19.379
595.07	18.032
595.26	19.677
595.45	18.413
595.64	19.838
595.83	17.261
596.02	19.404
596.22	17.429
596.41	20.307
596.60	19.142
596.79	19.741
596.98	19.097
597.17	20.893
597.37	19.545
597.56	21.446
597.75	19.725
597.94	20.703
598.13	20.106
598.32	19.845
598.51	19.384
598.71	21.058
598.90	19.874
599.09	21.149
599.28	19.173
599.47	21.134
599.66	20.230
599.85	20.347
600.05	18.857
600.24	20.714
600.43	19.404
600.62	19.421
600.81	19.868
601.00	20.808
601.19	17.042
601.38	20.262
601.58	19.427
601.77	19.061
601.96	18.403
602.15	21.266
602.34	18.667
602.53	20.027
602.72	19.844
602.91	20.727
603.10	19.428
603.30	20.332
603.49	18.762
603.68	21.479
603.87	19.124
604.06	21.289
604.25	21.376
604.44	20.416
604.63	20.329
604.82	22.036
605.01	21.991
605.21	20.995
605.40	21.451
605.59	22.534
605.78	20.462
605.97	22.347
606.16	21.025
606.35	22.322
606.54	20.691
606.73	22.180
606.92	19.903
607.11	21.743
607.30	20.336
607.50	22.145
607.69	20.338
607.88	20.106
608.07	18.647
608.26	20.896
608.45	19.738
608.64	21.764
608.83	20.015
609.02	20.528
609.21	19.693
609.40	21.191
609.59	20.047
609.78	21.979
609.97	19.851
610.16	21.750
610.35	19.981
610.55	20.165
610.74	21.218
610.93	20.976
611.12	20.135
611.31	21.078
611.50	19.852
611.69	21.653
611.88	19.429
612.07	21.351
612.26	18.839
612.45	20.220
612.64	19.205
612.83	20.511
613.02	18.093
613.21	20.000
613.40	19.028
613.59	18.574
613.78	16.504
613.97	20.738
614.16	17.618
614.35	19.205
614.54	16.613
614.73	19.265
614.92	17.436
615.11	18.236
615.30	17.046
615.49	17.291
615.68	16.463
615.87	17.654
616.07	15.601
616.26	17.552
616.45	15.885
616.64	18.159
616.83	16.952
617.02	18.854
617.21	16.050
617.40	16.892
617.59	16.585
617.78	17.800
617.97	16.532
618.16	17.133
618.35	15.512
618.54	15.840
618.73	16.787
618.92	18.525
619.11	15.411
619.30	18.429
619.49	13.900
619.68	17.820
619.86	17.997
620.05	17.154
620.24	15.629
620.43	15.976
620.62	14.272
620.81	17.150
621.00	17.130
621.19	19.339
621.38	15.845
621.57	17.207
621.76	16.942
621.95	18.664
622.14	16.479
622.33	18.343
622.52	14.169
622.71	18.307
622.90	16.304
623.09	18.184
623.28	16.312
623.47	18.117
623.66	16.924
623.85	17.268
624.04	16.335
624.23	16.635
624.42	16.482
624.61	17.258
624.80	14.740
624.99	17.601
625.18	14.349
625.36	17.275
625.55	16.479
625.74	16.828
625.93	14.650
626.12	16.300
626.31	17.446
626.50	17.615
626.69	17.227
626.88	19.364
627.07	18.399
627.26	18.781
627.45	16.229
627.64	19.118
627.83	17.964
628.02	19.304
628.20	17.071
628.39	19.072
628.58	17.413
628.77	17.817
628.96	17.316
629.15	18.380
629.34	15.892
629.53	17.482
629.72	15.634
629.91	20.120
630.10	16.826
630.29	16.832
630.47	17.478
630.66	17.226
630.85	16.641
631.04	17.373
631.23	17.128
631.42	17.937
631.61	14.266
631.80	19.066
631.99	15.463
632.18	16.901
632.36	14.463
632.55	18.148
632.74	15.409
632.93	16.790
633.12	16.208
633.31	17.012
633.50	16.369
633.69	16.705
633.88	14.542
634.06	18.266
634.25	15.715
634.44	17.045
634.63	15.385
634.82	18.804
635.01	15.664
635.20	17.801
635.39	15.901
635.57	16.879
635.76	15.600
635.95	16.937
636.14	14.421
636.33	17.650
636.52	15.243
636.71	17.487
636.89	15.278
637.08	17.884
637.27	15.573
637.46	16.016
637.65	15.332
637.84	16.720
638.03	14.340
638.21	16.924
638.40	15.136
638.59	15.989
638.78	13.023
638.97	16.940
639.16	16.897
639.34	15.385
639.53	13.213
639.72	16.601
639.91	13.080
640.10	14.411
640.29	14.859
640.47	16.558
640.66	15.646
640.85	17.376
641.04	12.662
641.23	15.122
641.42	14.714
641.60	15.708
641.79	13.824
641.98	14.983
642.17	13.605
642.36	17.135
642.54	12.424
642.73	13.756
642.92	12.650
643.11	14.483
643.30	12.854
643.49	14.591
643.67	11.332
643.86	17.005
644.05	13.881
644.24	16.584
644.43	14.448
644.61	15.824
644.80	12.829
644.99	12.614
645.18	16.141
645.37	15.407
645.55	13.129
645.74	16.718
645.93	13.259
646.12	15.853
646.31	13.915
646.49	14.454
646.68	12.760
646.87	14.709
647.06	12.001
647.24	12.976
647.43	12.231
647.62	14.842
647.81	11.893
648.00	16.632
648.18	11.400
648.37	17.150
648.56	13.855
648.75	15.655
648.93	12.762
649.12	14.417
649.31	13.554
649.50	13.467
649.68	13.661
649.87	13.597
650.06	13.667
650.25	16.568
650.43	12.795
650.62	12.696
650.81	12.065
651.00	14.145
651.18	12.199
651.37	14.819
651.56	13.389
651.75	15.276
651.93	13.501
652.12	15.430
652.31	12.537
652.50	14.810
652.68	12.892
652.87	16.137
653.06	13.614
653.25	15.993
653.43	15.451
653.62	13.064
653.81	11.851
654.00	16.034
654.18	12.214
654.37	14.216
654.56	13.938
654.74	13.409
654.93	12.072
655.12	11.457
655.31	12.229
655.49	14.033
655.68	12.200
655.87	11.615
656.05	10.888
656.24	12.492
656.43	8.262
656.62	13.130
656.80	11.632
656.99	11.173
657.18	8.812
657.36	12.081
657.55	11.236
657.74	9.871
657.93	13.782
658.11	13.850
658.30	12.891
658.49	12.742
658.67	10.590
658.86	13.442
659.05	12.106
659.23	12.849
659.42	11.056
659.61	13.643
659.79	12.294
659.98	14.388
660.17	13.000
660.35	15.237
660.54	12.882
660.73	17.039
660.91	14.412
661.10	14.379
661.29	10.240
661.47	13.377
661.66	11.476
661.85	13.134
662.03	12.059
662.22	9.096
662.41	8.152
662.59	12.784
662.78	8.681
662.97	9.205
663.15	8.511
663.34	9.118
663.53	7.029
663.71	10.068
663.90	8.049
664.09	10.812
664.27	8.766
664.46	9.298
664.65	7.097
664.83	8.024
665.02	6.739
665.21	6.899
665.39	7.361
665.58	8.423
665.77	9.287
665.95	9.300
666.14	7.365
666.32	7.646
666.51	7.391
666.70	6.571
666.88	7.626
667.07	7.583
667.26	6.399
667.44	7.242
667.63	7.188
667.81	6.217
668.00	7.275
668.19	10.289
668.37	8.880
668.56	9.753
668.75	7.304
668.93	9.814
669.12	6.188
669.30	8.629
669.49	6.680
669.68	7.437
669.86	8.096
670.05	7.594
670.23	7.258
670.42	8.856
670.61	9.573
670.79	8.626
670.98	7.956
671.16	9.735
671.35	8.528
671.54	6.750
671.72	5.845
671.91	8.541
672.09	5.896
672.28	9.585
672.46	10.147
672.65	6.818
672.84	8.138
673.02	10.770
673.21	6.503
673.39	8.471
673.58	8.203
673.77	8.314
673.95	8.188
674.14	10.898
674.32	7.200
674.51	12.102
674.69	7.737
674.88	8.369
675.07	7.877
675.25	10.974
675.44	7.827
675.62	8.780
675.81	6.348
675.99	12.396
676.18	9.398
676.36	8.990
676.55	4.558
676.74	9.665
676.92	9.174
677.11	11.798
677.29	9.258
677.48	10.594
677.66	10.834
677.85	7.053
678.03	7.506
678.22	9.996
678.40	8.495
678.59	8.298
678.78	7.636
678.96	9.437
679.15	7.210
679.33	11.955
679.52	11.147
679.70	11.361
679.89	7.661
680.07	12.761
680.26	7.264
680.44	11.211
680.63	10.475
680.81	10.563
681.00	7.530
681.18	11.716
681.37	9.579
681.55	13.926
681.74	13.094
681.92	11.319
682.11	11.661
682.29	11.176
682.48	8.873
682.66	12.479
682.85	9.636
683.03	11.749
683.22	12.661
683.40	12.648
683.59	9.954
683.77	11.711
683.96	10.069
684.14	14.657
684.33	7.176
684.51	15.247
684.70	12.663
684.88	14.077
685.07	11.658
685.25	14.114
685.44	9.531
685.62	13.147
685.81	11.556
685.99	13.059
686.18	9.832
686.36	12.636
686.55	9.718
686.73	13.710
686.92	14.934
687.10	14.228
687.29	13.297
687.47	14.851
687.65	13.851
687.84	13.813
688.02	15.360
688.21	19.219
688.39	13.754
688.58	19.848
688.76	13.219
688.95	15.299
689.13	10.746
689.32	17.765
689.50	14.292
689.68	15.270
689.87	14.755
690.05	16.957
690.24	16.598
690.42	17.813
690.61	17.737
690.79	18.094
690.98	16.128
691.16	19.203
691.34	13.746
691.53	20.194
691.71	16.457
691.90	18.510
692.08	14.702
692.27	20.354
692.45	19.151
692.63	18.075
692.82	20.110
693.00	20.964
693.19	14.240
693.37	21.359
693.56	18.994
693.74	23.828
693.92	19.771
694.11	20.960
694.29	19.278
694.48	25.745
694.66	18.826
694.84	22.578
695.03	20.064
695.21	28.178
695.40	28.706
695.58	28.133
695.76	20.766
695.95	25.130
696.13	23.560
696.32	25.532
696.50	30.948
696.68	27.206
696.87	22.923
697.05	28.911
697.24	27.239
697.42	32.863
697.60	26.878
697.79	29.852
697.97	28.331
698.16	30.913
698.34	27.754
698.52	33.557
698.71	29.749
698.89	33.470
699.07	31.441
699.26	33.220
699.44	33.063
699.63	35.857
699.81	32.185
699.99	32.670
700.18	33.343
700.36	35.744
700.54	33.909
700.73	34.575
700.91	33.676
701.09	35.044
701.28	31.241
701.46	36.330
701.64	31.017
701.83	38.380
702.01	31.255
702.20	36.175
702.38	32.290
702.56	34.357
702.75	31.522
702.93	34.390
703.11	30.714
703.30	33.400
703.48	31.601
703.66	33.662
703.85	32.099
704.03	37.221
704.21	32.809
704.40	34.648
704.58	35.071
704.76	35.000
704.95	32.376
705.13	36.158
705.31	32.956
705.50	32.887
705.68	32.237
705.86	41.225
706.04	32.552
706.23	35.235
706.41	32.179
706.59	36.017
706.78	30.887
706.96	36.716
707.14	37.090
707.33	38.587
707.51	35.084
707.69	38.837
707.88	36.669
708.06	35.726
708.24	36.558
708.42	40.529
708.61	33.850
708.79	38.759
708.97	38.525
709.16	36.806
709.34	33.651
709.52	37.981
709.71	37.011
709.89	39.339
710.07	33.245
710.25	39.405
710.44	36.002
710.62	37.379
710.80	37.310
710.98	41.097
711.17	37.381
711.35	38.609
711.53	33.943
711.72	39.100
711.90	38.702
712.08	38.256
712.26	35.533
712.45	40.129
712.63	39.633
712.81	42.494
712.99	37.584
713.18	41.138
713.36	40.816
713.54	38.596
713.72	35.550
713.91	37.949
714.09	38.298
714.27	41.299
714.45	39.334
714.64	42.589
714.82	34.064
715.00	38.105
715.18	36.403
715.37	39.225
715.55	37.757
715.73	40.378
715.91	38.561
716.10	41.521
716.28	36.811
716.46	43.342
716.64	37.246
716.83	40.909
717.01	38.127
717.19	38.822
717.37	34.202
717.55	42.521
717.74	37.391
717.92	39.007
718.10	35.381
718.28	37.108
718.47	34.052
718.65	38.383
718.83	34.520
719.01	36.649
719.19	36.754
719.38	36.347
719.56	29.475
719.74	36.120
719.92	28.276
720.10	33.376
720.29	35.094
720.47	38.046
720.65	31.625
720.83	36.263
721.01	28.384
721.20	38.243
721.38	33.131
721.56	37.929
721.74	32.220
721.92	39.018
722.11	29.668
722.29	38.781
722.47	34.618
722.65	37.238
722.83	38.250
723.01	35.021
723.20	36.646
723.38	34.931
723.56	35.007
723.74	41.181
723.92	30.362
724.10	36.454
724.29	28.065
724.47	42.815
724.65	31.254
724.83	38.901
725.01	34.165
725.19	40.408
725.38	32.926
725.56	37.398
725.74	35.328
725.92	39.351
726.10	28.450
726.28	36.101
726.46	37.648
726.65	37.183
726.83	35.446
727.01	37.971
727.19	36.351
727.37	39.583
727.55	35.135
727.73	36.878
727.92	35.694
728.10	38.019
728.28	30.864
728.46	38.280
728.64	32.119
728.82	34.630
729.00	35.657
729.19	43.973
729.37	39.987
729.55	38.726
729.73	31.842
729.91	43.896
730.09	38.946
730.27	38.706
730.45	33.636
730.63	40.236
730.82	33.549
731.00	39.655
731.18	36.735
731.36	42.032
731.54	32.940
731.72	41.445
731.90	33.963
732.08	44.038
732.26	36.533
732.45	43.110
732.63	39.428
732.81	40.078
732.99	38.913
733.17	40.982
733.35	36.684
733.53	40.475
733.71	37.476
733.89	42.224
734.07	40.394
734.25	41.136
734.44	42.934
734.62	38.943
734.80	38.285
734.98	44.714
735.16	39.398
735.34	40.654
735.52	40.428
735.70	40.378
735.88	40.103
736.06	41.933
736.24	43.631
736.42	41.784
736.60	40.047
736.78	50.126
736.97	39.696
737.15	45.837
737.33	35.967
737.51	39.448
737.69	39.541
737.87	41.117
738.05	43.623
738.23	45.922
738.41	44.365
738.59	41.901
738.77	44.360
738.95	44.454
739.13	40.224
739.31	46.772
739.49	39.872
739.67	47.907
739.85	42.591
740.03	40.125
740.21	40.884
740.39	40.909
740.57	43.760
740.75	39.755
740.93	36.821
741.11	47.674
741.30	41.862
741.48	42.110
741.66	39.130
741.84	41.944
742.02	40.000
742.20	47.425
742.38	39.688
742.56	45.614
742.74	41.389
742.92	46.005
743.10	44.868
743.28	50.435
743.46	41.667
743.64	44.620
743.82	38.905
744.00	45.917
744.18	45.894
744.36	37.956
744.54	36.858
744.72	45.361
744.90	42.015
745.08	44.981
745.26	42.634
745.44	44.724
745.62	40.181
745.80	43.756
745.98	42.341
746.16	39.289
746.34	37.513
746.52	43.852
746.70	36.408
746.87	42.051
747.05	37.660
747.23	47.444
747.41	45.851
747.59	47.658
747.77	40.462
747.95	38.826
748.13	35.574
748.31	43.893
748.49	43.373
748.67	45.177
748.85	46.082
749.03	41.600
749.21	41.292
749.39	47.643
749.57	35.478
749.75	44.868
749.93	41.968
750.11	48.044
750.29	39.201
750.47	44.132
750.65	41.854
750.83	49.476
751.01	39.196
751.18	50.160
751.36	35.391
751.54	42.234
751.72	39.860
751.90	41.957
752.08	36.445
752.26	46.276
752.44	41.382
752.62	41.782
752.80	42.197
752.98	47.379
753.16	41.200
753.34	38.395
753.52	34.869
753.69	47.328
753.87	41.818
754.05	48.114
754.23	37.782
754.41	46.373
754.59	44.433
754.77	40.040
754.95	40.676
755.13	47.077
755.31	40.891
755.49	44.732
755.66	37.764
755.84	39.632
756.02	42.304
756.20	44.151
756.38	43.319
756.56	43.259
756.74	39.243
756.92	39.308
757.10	40.103
757.28	42.814
757.45	46.667
757.63	50.220
757.81	37.968
757.99	45.275
758.17	40.618
758.35	45.235
758.53	45.259
758.71	42.699
758.88	40.499
759.06	44.455
759.24	36.867
759.42	38.431
759.60	37.562
759.78	35.471
759.96	29.510
760.13	32.717
760.31	27.991
760.49	33.885
760.67	21.846
760.85	34.417
761.03	21.730
761.21	24.027
761.38	24.589
761.56	31.343
761.74	23.473
761.92	33.301
762.10	20.130
762.28	30.826
762.46	21.481
762.63	24.337
762.81	24.363
762.99	30.203
763.17	25.869
763.35	28.869
763.53	27.869
763.70	32.761
763.88	30.658
764.06	31.860
764.24	27.267
764.42	35.171
764.60	34.829
764.77	33.474
764.95	32.285
765.13	35.676
765.31	33.291
765.49	36.940
765.66	31.267
765.84	35.335
766.02	34.150
766.20	37.583
766.38	32.086
766.56	38.776
766.73	33.765
766.91	36.608
767.09	33.602
767.27	36.184
767.45	35.214
767.62	38.137
767.80	35.512
767.98	36.544
768.16	34.683
768.33	41.710
768.51	37.158
768.69	38.030
768.87	41.925
769.05	39.486
769.22	36.604
769.40	49.661
769.58	34.534
769.76	48.596
769.94	41.951
770.11	41.078
770.29	39.179
770.47	46.617
770.65	41.283
770.82	38.300
771.00	40.956
771.18	49.024
771.36	39.323
771.53	39.518
771.71	37.500
771.89	39.048
772.07	42.077
772.25	43.094
772.42	41.601
772.60	48.018
772.78	33.962
772.96	46.488
773.13	41.758
773.31	36.962
773.49	43.832
773.67	37.213
773.84	34.582
774.02	40.593
774.20	34.453
774.37	37.830
774.55	37.554
774.73	43.146
774.91	33.536
775.08	39.797
775.26	38.743
775.44	42.179
775.62	36.811
775.79	33.142
775.97	38.000
776.15	37.500
776.32	35.285
776.50	38.915
776.68	38.205
776.86	45.963
777.03	36.709
777.21	43.642
777.39	44.267
777.56	40.845
777.74	39.006
777.92	40.473
778.10	33.762
778.27	47.287
778.45	34.399
778.63	41.074
778.80	36.465
778.98	43.367
779.16	46.399
779.34	34.543
779.51	36.963
779.69	42.715
779.87	37.174
780.04	35.493
780.22	35.294
780.40	36.544
780.57	41.946
780.75	38.128
780.93	42.700
781.10	43.234
781.28	43.493
781.46	41.815
781.63	40.165
781.81	38.650
781.99	41.118
782.16	33.113
782.34	36.364
782.52	37.198
782.69	36.527
782.87	42.568
783.05	36.379
783.22	36.607
783.40	38.013
783.58	30.849
783.75	32.302
783.93	37.520
784.11	30.053
784.28	46.021
784.46	44.974
784.64	40.179
784.81	30.824
784.99	41.385
785.17	38.058
785.34	38.612
785.52	36.190
785.69	33.935
785.87	33.706
786.05	37.500
786.22	38.491
786.40	46.533
786.58	36.242
786.75	42.144
786.93	38.556
787.11	37.937
787.28	38.316
787.46	40.433
787.63	38.039
787.81	38.798
787.99	28.998
788.16	42.131
788.34	22.026
788.51	37.942
788.69	34.826
788.87	33.533
789.04	32.322
789.22	37.300
789.39	26.194
789.57	38.889
789.75	30.909
789.92	32.743
790.10	29.268
790.27	38.143
790.45	35.071
790.63	36.204
790.80	25.890
790.98	29.225
791.15	39.596
791.33	35.073
791.51	33.013
791.68	33.034
791.86	35.130
792.03	33.901
792.21	25.000
792.39	35.461
792.56	34.380
792.74	40.832
792.91	30.000
793.09	32.337
793.26	35.849
793.44	40.038
793.62	32.677
793.79	30.020
793.97	35.283
794.14	25.145
794.32	34.337
794.49	41.030
794.67	34.146
794.84	32.495
795.02	33.459
795.20	29.301
795.37	38.800
795.55	33.092
795.72	29.478
795.90	39.571
796.07	36.111
796.25	39.421
796.42	33.566
796.60	30.885
796.77	35.231
796.95	33.635
797.13	31.826
797.30	38.889
797.48	23.558
797.65	33.066
797.83	28.064
798.00	33.209
798.18	33.456
798.35	34.655
798.53	32.427
798.70	27.080
798.88	40.278
799.05	28.164
799.23	28.415
799.40	27.402
799.58	30.609
799.75	30.366
799.93	29.828
800.10	38.158
800.28	27.536
800.45	35.211
800.63	26.996
800.80	48.022
800.98	36.673
801.15	31.949
801.33	31.395
801.50	28.674
801.68	28.043
801.85	28.958
802.03	31.663
802.20	41.010
802.38	37.828
802.55	29.876
802.73	34.104
802.90	22.626
803.08	34.653
803.25	33.066
803.43	31.967
803.60	31.567
803.78	36.739
803.95	29.004
804.13	34.160
804.30	25.503
804.48	31.004
804.65	36.404
804.83	30.785
805.00	37.086
805.17	37.740
805.35	31.492
805.52	31.365
805.70	39.212
805.87	39.504
806.05	26.707
806.22	26.042
806.40	31.758
806.57	43.411
806.75	41.393
806.92	34.979
807.09	38.105
807.27	35.510
807.44	37.721
807.62	32.510
807.79	29.533
807.97	32.800
808.14	34.304
808.31	33.772
808.49	37.116
808.66	26.667
808.84	26.157
809.01	29.425
809.19	23.239
809.36	39.666
809.53	34.096
809.71	35.470
809.88	31.519
810.06	36.761
810.23	35.857
810.41	41.929
810.58	34.709
810.75	25.000
810.93	28.995
811.10	25.546
811.28	38.202
811.45	36.090
811.62	32.992
811.80	26.382
811.97	28.643
812.15	33.485
812.32	28.010
812.49	33.661
812.67	31.742
812.84	31.010
813.02	31.746
813.19	34.625
813.36	27.072
813.54	34.257
813.71	28.093
813.89	26.166
814.06	31.328
814.23	37.059
814.41	31.566
814.58	31.956
814.75	30.790
814.93	36.386
815.10	35.544
815.28	35.323
815.45	28.337
815.62	34.195
815.80	18.713
815.97	20.250
816.14	35.279
816.32	36.693
816.49	23.483
816.66	21.333
816.84	25.285
817.01	31.965
817.18	24.543
817.36	24.679
817.53	33.010
817.71	26.735
817.88	23.380
818.05	32.280
818.23	18.978
818.40	22.667
818.57	23.462
818.75	32.211
818.92	26.065
819.09	12.846
819.27	12.000
819.44	24.228
819.61	17.090
819.79	24.609
819.96	18.265
820.13	24.498
820.31	26.270
820.48	29.532
820.65	27.339
820.82	27.684
821.00	30.017
821.17	20.238
821.34	26.403
821.52	22.517
821.69	25.185
821.86	15.987
822.04	26.845
822.21	27.019
822.38	28.989
822.56	26.614
822.73	34.533
822.90	32.521
823.07	36.422
823.25	33.225
823.42	35.254
823.59	33.510
823.77	37.203
823.94	33.394
824.11	36.241
824.29	30.829
824.46	35.747
824.63	35.419
824.80	33.449
824.98	32.569
825.15	32.633
825.32	25.981
825.49	31.258
825.67	28.592
825.84	29.660
826.01	25.667
826.19	32.500
826.36	22.500
826.53	27.703
826.70	20.000
826.88	29.668
827.05	21.295
827.22	21.143
827.39	24.754
827.57	26.891
827.74	20.279
827.91	28.963
828.08	20.671
828.26	27.879
828.43	19.659
828.60	30.102
828.77	26.179
828.95	27.764
829.12	24.203
829.29	22.817
829.46	21.143
829.64	19.745
829.81	18.615
829.98	28.980
830.15	25.654
830.32	21.391
830.50	14.390
830.67	24.172
830.84	17.029
831.01	23.363
831.19	26.296
831.36	19.124
831.53	25.561
831.70	28.966
831.87	22.881
832.05	34.346
832.22	29.556
832.39	24.350
832.56	30.607
832.74	12.903
832.91	28.928
833.08	34.829
833.25	19.458
833.42	16.701
833.60	21.273
833.77	17.014
833.94	19.169
834.11	19.705
834.28	21.782
834.45	18.491
834.63	24.239
834.80	24.601
834.97	31.081
835.14	25.473
835.31	21.843
835.49	21.170
835.66	23.875
835.83	21.511
836.00	29.057
836.17	24.968
836.34	21.669
836.52	15.644
836.69	27.316
836.86	26.619
837.03	18.267
837.20	21.667
837.37	25.984
837.55	28.750
837.72	18.223
837.89	37.879
838.06	21.714
838.23	30.147
838.40	28.313
838.58	29.395
838.75	24.752
838.92	42.105
839.09	26.117
839.26	37.294
839.43	51.536
839.60	43.243
839.78	44.156
839.95	36.512
840.12	37.543
840.29	34.915
840.46	34.356
840.63	44.828
840.80	34.628
840.98	30.769
841.15	17.500
841.32	30.303
841.49	37.908
841.66	38.481
841.83	37.267
842.00	19.269
842.17	34.943
842.34	9.122
842.52	36.667
842.69	19.322
842.86	36.822
843.03	45.018
843.20	20.307
843.37	49.815
843.54	38.951
843.71	39.732
843.88	53.333
844.06	37.600
844.23	34.286
844.40	28.889
844.57	30.387
844.74	57.317
844.91	40.580
845.08	50.568
845.25	39.614
845.42	47.849
845.59	55.263
845.76	45.128
845.94	48.515
846.11	73.973
846.28	39.286
846.45	45.506
846.62	60.390
846.79	47.945
846.96	43.210
847.13	59.302
847.30	56.552
847.47	37.410
847.64	31.783
847.81	86.441
847.98	38.693
848.15	91.971
848.32	62.264
848.50	71.257
848.67	51.149
848.84	41.781
849.01	46.927
849.18	45.876
849.35	56.250
849.52	23.276
849.69	43.046
849.86	71.429
850.03	79.104
850.20	69.006
850.37	61.345
850.54	64.246
850.71	40.397
850.88	39.665
851.05	62.712
851.22	51.124
851.39	44.144
851.56	71.429
851.73	68.553
851.90	36.646
852.07	88.722
852.24	70.395
852.41	36.190
852.58	75.352
852.75	41.379
852.92	52.683
853.09	67.969
853.26	49.735
853.43	74.528
853.60	70.225
853.77	56.962
853.94	69.343
854.11	50.350
854.28	44.800
854.45	14.844
854.62	68.528
854.79	72.549
854.96	56.000
855.13	49.123
855.30	74.490
855.47	75.862
855.64	64.662
855.81	42.473
855.98	53.175
856.15	56.757
856.32	52.201
856.49	68.992
856.66	63.636
856.83	49.242
857.00	42.484
857.17	50.769
857.34	28.421
857.51	75.540
857.68	67.568
857.85	28.409
858.02	77.778
858.19	63.964
858.36	40.000
858.53	35.484
858.70	46.108
858.87	50.633
859.04	50.806
859.21	21.622
859.38	9.649
859.55	70.896
859.72	63.218
859.89	51.799
860.05	46.847
860.22	47.644
860.39	53.571
860.56	60.305
860.73	69.106
860.90	27.523
861.07	40.132
861.24	71.053
861.41	100.000
861.58	42.708
861.75	35.556
861.92	58.553
862.09	74.074
862.26	62.393
862.43	106.931
862.59	36.029
862.76	79.720
862.93	58.427
863.10	40.952
863.27	31.624
863.44	39.080
863.61	48.905
863.78	54.857
863.95	63.399
864.12	81.034
864.29	44.444
864.45	46.552
864.62	53.107
864.79	45.736
864.96	49.593
865.13	42.342
865.30	105.590
865.47	60.976
865.64	48.921
865.81	23.664
865.97	62.667
866.14	51.701
866.31	21.667
866.48	40.397
866.65	45.513
866.82	34.177
866.99	56.410
867.16	43.609
867.33	73.118
867.49	53.704
867.66	22.680
867.83	39.370
868.00	57.534
868.17	92.562
868.34	70.175
868.51	54.286
868.67	76.582
868.84	51.667
869.01	42.400
869.18	60.993
869.35	29.457
869.52	62.698
869.69	41.781
869.85	48.598
870.02	47.115
870.19	58.475
870.36	74.483
870.53	35.714
870.70	52.201
870.86	54.000
871.03	61.111
871.20	77.982
871.37	74.138
871.54	40.541
871.71	40.714
871.87	39.623
872.04	38.286
872.21	82.609
872.38	69.106
872.55	51.852
872.72	35.938
872.88	62.570
873.05	41.379
873.22	57.823
873.39	42.857
873.56	60.355
873.72	67.059
873.89	75.155
874.06	-17.910
874.23	82.203
874.40	74.000
874.56	53.684
874.73	82.927
874.90	29.661
875.07	63.571
875.24	77.019
875.40	78.151
875.57	50.459
875.74	73.600
875.91	42.202
876.08	53.043
876.24	50.000
876.41	96.000
876.58	64.362
876.75	73.759
876.92	39.706
877.08	62.500
877.25	33.043
877.42	57.031
877.59	73.469
877.75	48.000
877.92	27.976
878.09	27.083
878.26	53.892
878.42	43.125
878.59	59.130
878.76	52.632
878.93	42.537
879.09	33.333
879.26	28.049
879.43	49.730
879.60	20.280
879.76	33.523
879.93	33.889
880.10	19.333
880.27	29.193
880.43	42.458
880.60	30.594
880.77	11.364
880.94	18.905
881.10	24.779
881.27	22.623
881.44	16.714
881.61	23.991
881.77	24.283
881.94	18.935
882.11	19.366
882.28	11.650
882.44	13.361
882.61	21.800
882.78	18.672
882.94	21.242
883.11	22.128
883.28	21.913
883.45	20.422
883.61	16.667
883.78	19.906
883.95	18.192
884.11	16.475
884.28	19.588
>>>>>End Processed Spectral Data<<<<<
