SpectraSuite Data File
++++++++++++++++++++++++++++++++++++
Date: Sat Sep 21 03:19:12 EST 2019
User: sgrac
Dark Spectrum Present: Yes
Reference Spectrum Present: Yes
Number of Sampled Component Spectra: 1
Spectrometers: USB4E01596
Integration Time (usec): 100000 (USB4E01596)
Spectra Averaged: 1 (USB4E01596)
Boxcar Smoothing: 0 (USB4E01596)
Correct for Electrical Dark: No (USB4E01596)
Strobe/Lamp Enabled: Yes (USB4E01596)
Correct for Detector Non-linearity: No (USB4E01596)
Correct for Stray Light: No (USB4E01596)
Number of Pixels in Processed Spectrum: 3648
>>>>>Begin Processed Spectral Data<<<<<
178.44	-307.143
178.66	-307.143
178.87	-307.143
179.09	-242.857
179.30	-284.615
179.52	0.000
179.74	-1100.000
179.95	483.333
180.17	306.667
180.38	4500.000
180.60	0.000
180.82	216.667
181.03	-247.368
181.25	152.174
181.46	-119.355
181.68	395.833
181.89	6900.000
182.11	117.143
182.33	-93.333
182.54	-168.750
182.76	-4600.000
182.97	460.000
183.19	1950.000
183.40	48.276
183.62	-170.370
183.84	-170.370
184.05	395.652
184.27	158.333
184.48	914.286
184.70	120.000
184.91	-380.000
185.13	164.444
185.34	-160.714
185.56	151.667
185.78	0.000
185.99	426.667
186.21	300.000
186.42	540.000
186.64	161.290
186.85	318.519
187.07	170.909
187.28	540.000
187.50	-366.667
187.72	1400.000
187.93	-6600.000
188.15	202.000
188.36	-17.647
188.58	-2700.000
188.79	163.636
189.01	183.333
189.22	1700.000
189.44	1600.000
189.65	200.000
189.87	837.500
190.09	-1280.000
190.30	431.250
190.52	-3400.000
190.73	191.071
190.95	378.571
191.16	204.444
191.38	410.000
191.59	166.667
191.81	177.778
192.02	208.511
192.24	582.353
192.45	-1700.000
192.67	362.857
192.88	404.167
193.10	240.000
193.31	510.000
193.53	-9100.000
193.74	97.561
193.96	316.667
194.18	187.097
194.39	-100.000
194.61	405.263
194.82	590.476
195.04	240.476
195.25	3250.000
195.47	182.927
195.68	170.213
195.90	980.000
196.11	189.091
196.33	119.149
196.54	-3700.000
196.76	314.286
196.97	-2133.333
197.19	407.143
197.40	194.118
197.62	120.313
197.83	141.892
198.05	-315.789
198.26	197.143
198.48	208.333
198.69	97.674
198.91	205.882
199.12	-220.000
199.34	-940.000
199.55	3900.000
199.77	1375.000
199.98	184.000
200.20	125.352
200.41	521.429
200.63	-377.778
200.84	129.412
201.06	630.769
201.27	221.622
201.49	975.000
201.70	211.111
201.91	145.652
202.13	134.783
202.34	160.377
202.56	-657.143
202.77	877.778
202.99	453.571
203.20	1950.000
203.42	1162.500
203.63	132.558
203.85	125.714
204.06	153.704
204.28	-570.000
204.49	237.143
204.71	151.282
204.92	0.000
205.14	-392.857
205.35	233.333
205.56	-1260.000
205.78	285.714
205.99	460.000
206.21	-125.806
206.42	296.774
206.64	296.429
206.85	1225.000
207.07	-461.538
207.28	307.143
207.50	-410.526
207.71	174.359
207.93	84.091
208.14	435.294
208.35	210.526
208.57	-7700.000
208.78	684.615
209.00	433.333
209.21	-3600.000
209.43	227.586
209.64	211.765
209.86	471.429
210.07	0.000
210.28	-400.000
210.50	189.796
210.71	119.298
210.93	214.286
211.14	-272.222
211.36	-67.742
211.57	-295.238
211.78	-200.000
212.00	0.000
212.21	172.093
212.43	-227.273
212.64	132.759
212.86	-300.000
213.07	-313.636
213.29	126.316
213.50	5100.000
213.71	201.887
213.93	942.857
214.14	122.727
214.36	2000.000
214.57	365.385
214.78	431.250
215.00	1700.000
215.21	88.889
215.43	364.000
215.64	284.615
215.86	205.714
216.07	4900.000
216.28	280.000
216.50	-914.286
216.71	-1300.000
216.93	200.000
217.14	246.875
217.35	259.259
217.57	282.143
217.78	975.000
218.00	-530.000
218.21	142.105
218.42	-1466.667
218.64	464.706
218.85	-577.778
219.07	235.714
219.28	925.000
219.49	135.526
219.71	1733.333
219.92	108.333
220.14	112.500
220.35	395.000
220.56	184.615
220.78	288.235
220.99	-6300.000
221.21	261.905
221.42	175.000
221.63	202.500
221.85	164.516
222.06	271.429
222.28	175.000
222.49	-2800.000
222.70	0.000
222.92	255.556
223.13	263.333
223.34	-725.000
223.56	100.000
223.77	80.899
223.99	174.359
224.20	157.143
224.41	191.892
224.63	297.222
224.84	137.931
225.05	35.714
225.27	120.000
225.48	108.696
225.69	114.286
225.91	107.407
226.12	205.556
226.34	100.000
226.55	29.630
226.76	204.839
226.98	96.000
227.19	113.636
227.40	70.248
227.62	68.293
227.83	65.000
228.04	48.352
228.26	65.347
228.47	79.310
228.69	36.184
228.90	15.493
229.11	51.852
229.33	37.681
229.54	15.132
229.75	31.304
229.97	40.773
230.18	15.412
230.39	10.549
230.61	27.987
230.82	33.610
231.03	17.842
231.25	27.609
231.46	27.372
231.67	36.759
231.89	41.961
232.10	24.696
232.31	52.885
232.53	37.288
232.74	52.604
232.95	33.735
233.17	39.306
233.38	24.627
233.59	58.824
233.81	34.466
234.02	47.368
234.23	44.385
234.45	60.526
234.66	41.808
234.87	44.966
235.09	31.852
235.30	42.529
235.51	42.718
235.73	42.138
235.94	40.933
236.15	37.755
236.36	45.503
236.58	38.389
236.79	66.492
237.00	27.053
237.22	41.358
237.43	44.118
237.64	28.384
237.86	42.391
238.07	59.799
238.28	37.158
238.50	27.826
238.71	26.627
238.92	5.952
239.13	64.000
239.35	14.685
239.56	30.208
239.77	37.561
239.99	19.811
240.20	15.789
240.41	18.103
240.63	23.482
240.84	33.865
241.05	10.949
241.26	35.124
241.48	20.354
241.69	21.203
241.90	19.718
242.12	23.214
242.33	15.948
242.54	14.072
242.75	16.319
242.97	17.069
243.18	18.013
243.39	18.304
243.61	9.895
243.82	13.566
244.03	11.799
244.24	9.816
244.46	15.852
244.67	8.832
244.88	16.901
245.09	20.868
245.31	6.526
245.52	21.691
245.73	24.125
245.95	27.292
246.16	8.677
246.37	18.023
246.58	20.000
246.80	16.906
247.01	10.558
247.22	12.468
247.43	12.135
247.65	16.164
247.86	8.407
248.07	8.361
248.28	11.453
248.50	11.760
248.71	9.545
248.92	12.591
249.13	10.476
249.35	12.031
249.56	13.405
249.77	10.772
249.98	9.178
250.20	12.333
250.41	15.084
250.62	11.928
250.83	11.193
251.05	12.039
251.26	11.071
251.47	17.477
251.68	16.271
251.90	10.507
252.11	8.362
252.32	7.757
252.53	17.990
252.75	10.720
252.96	17.147
253.17	14.008
253.38	15.946
253.59	7.203
253.81	9.053
254.02	14.480
254.23	14.949
254.44	16.013
254.66	20.331
254.87	16.065
255.08	17.033
255.29	13.454
255.50	21.290
255.72	22.248
255.93	12.165
256.14	24.091
256.35	14.754
256.57	12.861
256.78	17.352
256.99	13.874
257.20	10.194
257.41	24.017
257.63	11.861
257.84	17.842
258.05	18.542
258.26	11.171
258.47	9.839
258.69	13.257
258.90	10.559
259.11	3.432
259.32	5.556
259.53	11.260
259.75	4.372
259.96	5.322
260.17	6.373
260.38	5.259
260.59	6.963
260.81	7.791
261.02	8.402
261.23	9.535
261.44	10.474
261.65	9.960
261.87	6.000
262.08	10.349
262.29	11.477
262.50	12.769
262.71	4.576
262.92	10.313
263.14	8.007
263.35	6.219
263.56	6.118
263.77	13.210
263.98	10.847
264.20	15.544
264.41	6.215
264.62	15.499
264.83	8.192
265.04	16.597
265.25	12.064
265.47	13.444
265.68	13.120
265.89	4.160
266.10	8.224
266.31	19.488
266.52	7.628
266.74	8.828
266.95	10.995
267.16	14.304
267.37	9.000
267.58	7.381
267.79	6.229
268.01	10.220
268.22	13.373
268.43	14.330
268.64	7.016
268.85	8.324
269.06	8.273
269.27	13.104
269.49	5.925
269.70	5.387
269.91	8.751
270.12	6.821
270.33	15.490
270.54	11.467
270.75	5.380
270.97	12.243
271.18	8.410
271.39	8.806
271.60	9.726
271.81	10.556
272.02	12.433
272.23	11.727
272.45	9.674
272.66	3.159
272.87	9.215
273.08	8.532
273.29	9.976
273.50	10.309
273.71	8.815
273.92	7.598
274.14	3.688
274.35	7.935
274.56	11.728
274.77	5.359
274.98	9.337
275.19	8.881
275.40	8.684
275.61	9.030
275.83	12.657
276.04	9.284
276.25	8.627
276.46	8.526
276.67	10.164
276.88	11.375
277.09	6.046
277.30	13.929
277.51	11.626
277.73	11.000
277.94	12.788
278.15	10.597
278.36	6.687
278.57	9.836
278.78	14.300
278.99	12.293
279.20	10.064
279.41	10.467
279.62	8.440
279.84	7.845
280.05	5.920
280.26	8.903
280.47	11.593
280.68	1.856
280.89	12.692
281.10	9.100
281.31	4.183
281.52	10.448
281.73	7.340
281.94	5.727
282.16	10.307
282.37	8.806
282.58	7.699
282.79	12.427
283.00	13.200
283.21	6.613
283.42	5.701
283.63	5.603
283.84	9.148
284.05	8.996
284.26	10.334
284.47	8.984
284.68	8.280
284.89	7.814
285.11	6.528
285.32	4.974
285.53	5.798
285.74	11.258
285.95	7.877
286.16	7.077
286.37	5.208
286.58	6.662
286.79	7.983
287.00	9.854
287.21	5.872
287.42	7.633
287.63	9.434
287.84	4.277
288.05	5.110
288.26	9.163
288.48	9.613
288.69	4.772
288.90	4.818
289.11	7.878
289.32	7.050
289.53	8.211
289.74	6.500
289.95	7.749
290.16	10.470
290.37	7.600
290.58	6.498
290.79	7.547
291.00	8.155
291.21	3.428
291.42	6.481
291.63	4.482
291.84	9.401
292.05	4.841
292.26	9.417
292.47	5.803
292.68	4.932
292.89	8.603
293.10	6.569
293.31	7.937
293.52	4.312
293.73	5.462
293.94	9.566
294.15	5.747
294.36	0.467
294.57	10.654
294.79	10.318
295.00	6.461
295.21	7.040
295.42	9.116
295.63	6.067
295.84	7.315
296.05	5.315
296.26	6.598
296.47	5.142
296.68	7.400
296.89	6.691
297.10	6.945
297.31	4.566
297.52	8.038
297.73	7.120
297.94	7.258
298.15	3.191
298.36	5.391
298.57	6.731
298.78	8.766
298.99	3.064
299.20	4.964
299.41	4.046
299.62	7.794
299.83	5.683
300.04	5.578
300.25	7.524
300.46	6.535
300.67	7.143
300.88	7.311
301.09	3.885
301.30	6.182
301.50	8.425
301.71	9.434
301.92	7.754
302.13	7.102
302.34	4.521
302.55	5.018
302.76	5.708
302.97	9.072
303.18	3.672
303.39	4.712
303.60	3.134
303.81	6.743
304.02	6.345
304.23	7.687
304.44	6.315
304.65	7.709
304.86	4.170
305.07	7.487
305.28	5.157
305.49	7.915
305.70	5.045
305.91	7.095
306.12	3.381
306.33	6.367
306.54	7.043
306.75	9.078
306.96	11.756
307.17	5.891
307.38	4.733
307.58	6.897
307.79	7.821
308.00	7.994
308.21	7.870
308.42	8.657
308.63	9.032
308.84	8.919
309.05	6.909
309.26	7.376
309.47	6.001
309.68	5.000
309.89	8.287
310.10	7.107
310.31	4.984
310.52	5.270
310.73	7.049
310.94	3.172
311.14	6.940
311.35	5.934
311.56	4.930
311.77	2.678
311.98	4.595
312.19	3.696
312.40	3.482
312.61	5.297
312.82	6.720
313.03	3.236
313.24	6.450
313.45	5.999
313.66	4.767
313.86	4.311
314.07	8.892
314.28	5.948
314.49	4.096
314.70	5.370
314.91	7.908
315.12	7.362
315.33	2.970
315.54	6.525
315.75	6.975
315.96	6.728
316.16	6.069
316.37	4.315
316.58	4.813
316.79	7.232
317.00	6.621
317.21	4.104
317.42	6.128
317.63	4.775
317.84	10.000
318.05	6.373
318.25	7.326
318.46	5.666
318.67	4.425
318.88	9.192
319.09	7.941
319.30	8.315
319.51	4.157
319.72	9.606
319.93	6.767
320.13	7.072
320.34	8.298
320.55	4.512
320.76	6.821
320.97	8.506
321.18	10.380
321.39	5.096
321.60	7.737
321.80	7.607
322.01	4.769
322.22	3.894
322.43	4.028
322.64	5.968
322.85	5.065
323.06	4.492
323.27	6.600
323.47	7.668
323.68	5.160
323.89	3.446
324.10	7.254
324.31	5.951
324.52	5.524
324.73	4.870
324.93	7.244
325.14	4.657
325.35	7.763
325.56	6.610
325.77	6.937
325.98	5.012
326.19	8.426
326.39	6.231
326.60	7.296
326.81	6.004
327.02	7.178
327.23	4.658
327.44	5.896
327.64	6.703
327.85	5.725
328.06	6.568
328.27	8.691
328.48	6.736
328.69	6.078
328.90	3.382
329.10	6.437
329.31	2.156
329.52	5.109
329.73	9.325
329.94	4.017
330.15	6.676
330.35	6.620
330.56	5.503
330.77	4.566
330.98	7.253
331.19	6.203
331.39	5.593
331.60	6.519
331.81	6.572
332.02	8.367
332.23	8.345
332.44	6.464
332.64	5.053
332.85	4.075
333.06	8.190
333.27	2.549
333.48	6.091
333.68	6.914
333.89	3.828
334.10	2.866
334.31	8.223
334.52	5.237
334.72	5.758
334.93	3.100
335.14	6.456
335.35	5.755
335.56	7.076
335.76	5.167
335.97	9.207
336.18	6.613
336.39	4.577
336.60	7.143
336.80	5.234
337.01	6.490
337.22	3.960
337.43	7.286
337.64	4.254
337.84	3.724
338.05	5.115
338.26	7.604
338.47	3.922
338.68	4.776
338.88	4.583
339.09	5.329
339.30	4.223
339.51	5.536
339.71	5.916
339.92	5.652
340.13	5.963
340.34	5.425
340.55	3.883
340.75	6.975
340.96	3.625
341.17	6.642
341.38	5.808
341.58	4.077
341.79	4.230
342.00	5.741
342.21	4.857
342.41	4.319
342.62	4.447
342.83	5.413
343.04	3.993
343.24	4.661
343.45	4.138
343.66	3.363
343.87	4.500
344.07	3.936
344.28	5.886
344.49	4.362
344.70	7.119
344.90	4.371
345.11	4.124
345.32	6.134
345.53	3.729
345.73	4.317
345.94	6.577
346.15	6.321
346.36	2.229
346.56	4.161
346.77	6.325
346.98	3.666
347.19	5.473
347.39	6.531
347.60	4.255
347.81	5.971
348.02	6.993
348.22	1.881
348.43	4.976
348.64	5.641
348.84	6.472
349.05	6.505
349.26	7.500
349.47	5.634
349.67	4.612
349.88	5.064
350.09	2.881
350.30	5.008
350.50	1.575
350.71	5.188
350.92	5.493
351.12	3.577
351.33	4.309
351.54	6.365
351.74	5.947
351.95	4.679
352.16	6.593
352.37	6.835
352.57	4.435
352.78	5.620
352.99	6.808
353.19	2.941
353.40	3.676
353.61	8.346
353.82	6.089
354.02	8.111
354.23	7.713
354.44	7.485
354.64	6.237
354.85	6.616
355.06	6.528
355.26	3.048
355.47	6.368
355.68	7.585
355.88	10.460
356.09	7.531
356.30	4.779
356.51	7.943
356.71	8.754
356.92	4.869
357.13	7.542
357.33	9.558
357.54	6.454
357.75	6.589
357.95	9.483
358.16	7.530
358.37	10.863
358.57	9.035
358.78	13.290
358.99	9.353
359.19	8.731
359.40	11.411
359.61	11.468
359.81	12.359
360.02	13.144
360.23	8.995
360.43	11.138
360.64	11.645
360.85	12.088
361.05	9.516
361.26	15.067
361.47	10.908
361.67	17.236
361.88	11.026
362.09	14.956
362.29	12.809
362.50	13.311
362.70	13.216
362.91	18.201
363.12	12.840
363.32	13.215
363.53	16.066
363.74	18.171
363.94	11.720
364.15	19.241
364.36	14.767
364.56	14.540
364.77	14.984
364.98	20.477
365.18	15.533
365.39	19.441
365.59	13.810
365.80	18.391
366.01	16.820
366.21	14.545
366.42	10.837
366.63	18.203
366.83	14.103
367.04	13.275
367.24	16.641
367.45	14.664
367.66	13.878
367.86	17.311
368.07	12.949
368.28	16.371
368.48	14.286
368.69	12.687
368.89	15.000
369.10	15.997
369.31	13.591
369.51	15.682
369.72	16.540
369.92	17.492
370.13	10.584
370.34	16.815
370.54	10.811
370.75	16.674
370.95	12.933
371.16	16.924
371.37	13.616
371.57	16.348
371.78	15.645
371.98	18.494
372.19	16.768
372.40	20.489
372.60	17.252
372.81	15.560
373.01	13.182
373.22	15.720
373.43	16.774
373.63	19.939
373.84	14.365
374.04	15.930
374.25	16.183
374.46	18.486
374.66	15.373
374.87	15.527
375.07	12.991
375.28	15.628
375.48	14.826
375.69	19.778
375.90	12.857
376.10	14.430
376.31	15.459
376.51	13.956
376.72	14.907
376.92	13.706
377.13	15.266
377.34	19.201
377.54	15.856
377.75	18.535
377.95	15.482
378.16	17.901
378.36	16.528
378.57	20.497
378.77	16.403
378.98	19.354
379.19	16.636
379.39	14.902
379.60	15.765
379.80	18.165
380.01	16.045
380.21	16.699
380.42	16.911
380.62	15.934
380.83	16.850
381.04	16.195
381.24	16.121
381.45	16.111
381.65	13.931
381.86	16.977
382.06	16.607
382.27	12.986
382.47	14.769
382.68	18.828
382.88	11.825
383.09	14.051
383.29	13.679
383.50	18.449
383.71	12.296
383.91	16.243
384.12	13.878
384.32	15.214
384.53	13.724
384.73	14.073
384.94	12.959
385.14	16.573
385.35	14.346
385.55	15.086
385.76	12.975
385.96	17.234
386.17	14.511
386.37	15.176
386.58	14.609
386.78	17.067
386.99	11.702
387.19	15.797
387.40	13.375
387.60	18.752
387.81	12.958
388.01	15.932
388.22	16.614
388.42	19.105
388.63	16.700
388.83	17.936
389.04	11.356
389.24	16.386
389.45	14.556
389.65	15.444
389.86	12.154
390.06	13.904
390.27	13.011
390.47	14.330
390.68	12.418
390.88	19.244
391.09	15.023
391.29	17.378
391.50	14.939
391.70	16.101
391.91	14.090
392.11	15.255
392.32	16.275
392.52	18.490
392.73	15.299
392.93	15.870
393.14	15.852
393.34	17.961
393.55	16.536
393.75	16.728
393.95	14.970
394.16	16.738
394.36	16.939
394.57	19.921
394.77	15.131
394.98	16.200
395.18	16.806
395.39	17.119
395.59	14.279
395.80	17.014
396.00	15.663
396.21	17.988
396.41	13.559
396.61	18.119
396.82	15.282
397.02	18.377
397.23	15.963
397.43	14.724
397.64	10.908
397.84	18.612
398.05	11.975
398.25	15.639
398.45	14.394
398.66	17.321
398.86	14.184
399.07	16.658
399.27	14.225
399.48	16.530
399.68	12.660
399.89	14.282
400.09	15.314
400.29	14.493
400.50	14.197
400.70	15.632
400.91	13.428
401.11	15.996
401.32	13.060
401.52	12.982
401.72	13.371
401.93	17.356
402.13	14.396
402.34	14.289
402.54	13.033
402.75	16.071
402.95	11.123
403.15	17.080
403.36	12.180
403.56	13.504
403.77	12.627
403.97	14.434
404.17	13.224
404.38	15.040
404.58	12.254
404.79	16.335
404.99	14.262
405.19	15.427
405.40	13.278
405.60	16.116
405.81	14.751
406.01	15.958
406.21	13.676
406.42	15.309
406.62	14.161
406.83	16.223
407.03	14.243
407.23	14.289
407.44	12.889
407.64	16.930
407.85	15.921
408.05	15.249
408.25	13.304
408.46	15.488
408.66	14.728
408.87	13.956
409.07	12.849
409.27	13.442
409.48	13.578
409.68	14.435
409.88	10.824
410.09	14.680
410.29	13.905
410.50	16.271
410.70	10.447
410.90	13.400
411.11	12.197
411.31	14.470
411.51	14.427
411.72	16.134
411.92	12.814
412.12	14.269
412.33	12.130
412.53	13.928
412.74	11.588
412.94	12.464
413.14	13.020
413.35	15.687
413.55	12.482
413.75	14.450
413.96	12.570
414.16	13.407
414.36	13.322
414.57	13.427
414.77	12.230
414.97	14.943
415.18	11.969
415.38	13.455
415.58	13.306
415.79	12.631
415.99	13.239
416.19	14.795
416.40	14.253
416.60	14.841
416.80	12.634
417.01	15.624
417.21	12.424
417.41	15.940
417.62	14.457
417.82	15.485
418.02	13.123
418.23	15.451
418.43	14.190
418.63	15.446
418.84	16.147
419.04	15.499
419.24	15.688
419.45	16.967
419.65	16.285
419.85	17.188
420.06	17.126
420.26	16.871
420.46	16.456
420.67	17.539
420.87	16.833
421.07	16.814
421.28	16.492
421.48	17.040
421.68	16.723
421.88	17.163
422.09	16.642
422.29	17.663
422.49	16.701
422.70	17.160
422.90	16.052
423.10	17.051
423.31	16.425
423.51	17.223
423.71	15.923
423.91	17.794
424.12	17.229
424.32	16.615
424.52	16.634
424.73	17.393
424.93	17.589
425.13	16.675
425.33	16.079
425.54	17.092
425.74	16.423
425.94	17.063
426.15	17.176
426.35	17.051
426.55	16.084
426.75	17.326
426.96	17.328
427.16	17.045
427.36	16.442
427.57	17.164
427.77	16.008
427.97	16.015
428.17	16.091
428.38	16.745
428.58	13.685
428.78	15.827
428.98	14.973
429.19	15.075
429.39	13.522
429.59	15.344
429.79	14.023
430.00	13.644
430.20	13.040
430.40	15.375
430.60	14.599
430.81	15.833
431.01	13.135
431.21	14.627
431.41	13.014
431.62	15.135
431.82	14.130
432.02	15.995
432.22	13.237
432.43	15.577
432.63	14.056
432.83	15.585
433.03	14.747
433.24	14.829
433.44	14.298
433.64	14.900
433.84	14.463
434.05	16.268
434.25	15.869
434.45	15.916
434.65	16.197
434.85	17.370
435.06	16.091
435.26	17.199
435.46	15.441
435.66	16.364
435.87	15.391
436.07	16.646
436.27	15.903
436.47	15.237
436.67	15.225
436.88	17.052
437.08	15.563
437.28	16.140
437.48	15.733
437.69	15.379
437.89	15.291
438.09	15.827
438.29	14.834
438.49	16.913
438.70	15.842
438.90	16.213
439.10	15.033
439.30	15.928
439.50	15.943
439.71	16.611
439.91	15.388
440.11	16.048
440.31	16.577
440.51	15.858
440.72	15.449
440.92	16.799
441.12	16.661
441.32	17.249
441.52	16.842
441.72	16.684
441.93	16.535
442.13	16.731
442.33	16.430
442.53	16.873
442.73	16.658
442.94	17.348
443.14	16.225
443.34	17.039
443.54	17.206
443.74	17.225
443.94	17.250
444.15	16.981
444.35	15.060
444.55	16.688
444.75	15.464
444.95	16.963
445.15	15.476
445.36	16.820
445.56	15.646
445.76	16.873
445.96	15.811
446.16	16.048
446.36	15.633
446.57	17.086
446.77	16.070
446.97	16.431
447.17	16.729
447.37	16.530
447.57	16.686
447.77	16.739
447.98	16.121
448.18	17.105
448.38	16.308
448.58	16.645
448.78	16.420
448.98	16.463
449.18	16.709
449.39	16.636
449.59	16.765
449.79	16.557
449.99	15.933
450.19	16.806
450.39	15.852
450.59	17.243
450.79	16.336
451.00	17.159
451.20	16.336
451.40	16.237
451.60	14.769
451.80	16.195
452.00	15.036
452.20	16.194
452.40	15.136
452.61	16.114
452.81	16.389
453.01	16.533
453.21	14.427
453.41	17.010
453.61	15.335
453.81	16.342
454.01	15.827
454.21	16.805
454.42	16.033
454.62	16.490
454.82	14.883
455.02	16.606
455.22	14.836
455.42	15.504
455.62	14.807
455.82	15.757
456.02	15.726
456.23	15.609
456.43	15.120
456.63	16.421
456.83	14.288
457.03	16.589
457.23	15.185
457.43	15.601
457.63	15.041
457.83	15.625
458.03	13.882
458.23	16.434
458.43	15.185
458.64	15.792
458.84	14.942
459.04	15.803
459.24	15.334
459.44	16.169
459.64	15.285
459.84	16.150
460.04	15.702
460.24	16.224
460.44	15.982
460.64	16.564
460.84	16.943
461.04	16.790
461.24	16.367
461.45	17.061
461.65	16.342
461.85	17.276
462.05	16.478
462.25	16.954
462.45	16.742
462.65	16.674
462.85	15.782
463.05	16.720
463.25	15.014
463.45	15.857
463.65	15.076
463.85	15.598
464.05	14.119
464.25	15.751
464.45	14.990
464.65	15.511
464.85	14.044
465.05	15.449
465.26	15.050
465.46	15.886
465.66	15.171
465.86	16.072
466.06	15.104
466.26	16.638
466.46	13.972
466.66	15.650
466.86	15.078
467.06	14.984
467.26	15.142
467.46	16.168
467.66	14.859
467.86	16.145
468.06	16.067
468.26	15.897
468.46	16.123
468.66	15.765
468.86	14.121
469.06	15.782
469.26	14.860
469.46	15.046
469.66	13.750
469.86	15.663
470.06	16.142
470.26	15.609
470.46	14.536
470.66	16.691
470.86	14.020
471.06	16.694
471.26	13.766
471.46	15.146
471.66	14.897
471.86	15.432
472.06	14.445
472.26	17.282
472.46	16.529
472.66	16.452
472.86	15.182
473.06	16.247
473.26	16.021
473.46	15.353
473.66	14.695
473.86	16.312
474.06	15.399
474.26	15.714
474.46	14.886
474.66	16.029
474.86	16.050
475.06	17.128
475.26	15.199
475.46	15.812
475.66	15.595
475.86	16.458
476.06	15.584
476.26	16.839
476.46	14.748
476.66	16.064
476.86	15.015
477.06	15.699
477.26	15.238
477.46	16.149
477.65	15.610
477.85	16.477
478.05	15.749
478.25	16.220
478.45	15.030
478.65	16.247
478.85	16.515
479.05	16.989
479.25	16.724
479.45	17.059
479.65	15.794
479.85	16.556
480.05	16.853
480.25	17.155
480.45	15.935
480.65	16.253
480.85	15.565
481.05	16.861
481.25	16.071
481.44	16.821
481.64	16.078
481.84	16.865
482.04	16.301
482.24	17.275
482.44	15.901
482.64	16.604
482.84	16.955
483.04	16.963
483.24	16.030
483.44	16.475
483.64	15.598
483.84	16.000
484.04	16.536
484.23	16.411
484.43	16.854
484.63	17.060
484.83	17.012
485.03	16.904
485.23	17.234
485.43	17.516
485.63	17.363
485.83	17.621
486.03	17.530
486.23	17.167
486.42	17.283
486.62	17.131
486.82	17.307
487.02	16.813
487.22	17.281
487.42	17.179
487.62	16.874
487.82	16.811
488.02	17.088
488.22	17.077
488.41	17.342
488.61	16.921
488.81	17.233
489.01	17.130
489.21	16.926
489.41	17.227
489.61	16.950
489.81	17.305
490.01	17.155
490.20	17.328
490.40	17.990
490.60	17.207
490.80	17.409
491.00	17.716
491.20	17.331
491.40	17.343
491.60	17.254
491.79	16.559
491.99	17.006
492.19	17.115
492.39	16.871
492.59	17.037
492.79	17.138
492.99	17.111
493.19	17.118
493.38	17.379
493.58	17.649
493.78	17.738
493.98	17.286
494.18	18.186
494.38	17.860
494.58	18.020
494.77	18.109
494.97	18.253
495.17	17.615
495.37	17.475
495.57	18.074
495.77	18.079
495.96	18.337
496.16	18.059
496.36	17.748
496.56	18.055
496.76	16.857
496.96	18.386
497.15	17.659
497.35	18.069
497.55	17.528
497.75	17.618
497.95	17.610
498.15	17.606
498.34	17.781
498.54	17.722
498.74	18.367
498.94	18.649
499.14	17.894
499.34	18.369
499.53	18.137
499.73	18.567
499.93	18.679
500.13	18.523
500.33	17.458
500.52	17.629
500.72	17.868
500.92	18.397
501.12	17.683
501.32	18.663
501.52	18.283
501.71	19.296
501.91	17.733
502.11	19.263
502.31	18.529
502.51	18.145
502.70	17.506
502.90	18.201
503.10	17.984
503.30	18.505
503.50	18.195
503.69	18.090
503.89	18.217
504.09	18.480
504.29	17.581
504.48	19.027
504.68	18.248
504.88	18.800
505.08	17.976
505.28	18.044
505.47	18.457
505.67	18.368
505.87	18.780
506.07	18.421
506.27	17.808
506.46	18.189
506.66	18.643
506.86	18.740
507.06	18.184
507.25	19.637
507.45	19.041
507.65	18.544
507.85	18.612
508.04	18.257
508.24	17.547
508.44	18.608
508.64	18.023
508.83	17.973
509.03	18.648
509.23	18.643
509.43	18.849
509.63	18.517
509.82	18.821
510.02	18.264
510.22	17.859
510.42	19.018
510.61	18.003
510.81	19.007
511.01	19.004
511.21	18.841
511.40	19.272
511.60	19.430
511.80	18.457
511.99	18.745
512.19	18.454
512.39	18.539
512.59	19.499
512.78	18.992
512.98	19.013
513.18	18.980
513.38	18.381
513.57	18.925
513.77	19.517
513.97	18.616
514.17	19.266
514.36	18.954
514.56	19.438
514.76	19.819
514.95	19.114
515.15	19.346
515.35	19.135
515.55	20.159
515.74	19.641
515.94	19.741
516.14	18.819
516.33	19.518
516.53	18.704
516.73	19.864
516.93	18.973
517.12	19.258
517.32	19.024
517.52	19.878
517.71	18.787
517.91	18.757
518.11	19.349
518.30	19.108
518.50	18.985
518.70	18.519
518.90	19.166
519.09	19.039
519.29	19.102
519.49	19.387
519.68	19.213
519.88	19.245
520.08	19.118
520.27	19.598
520.47	19.155
520.67	20.318
520.86	19.487
521.06	19.696
521.26	19.302
521.45	19.805
521.65	19.446
521.85	19.729
522.04	19.528
522.24	19.632
522.44	19.688
522.63	19.644
522.83	18.972
523.03	19.931
523.22	19.365
523.42	19.355
523.62	19.301
523.81	19.826
524.01	20.051
524.21	20.059
524.40	19.073
524.60	19.914
524.80	19.199
524.99	19.006
525.19	18.834
525.39	19.728
525.58	19.268
525.78	19.489
525.98	19.230
526.17	19.553
526.37	19.966
526.57	19.266
526.76	19.320
526.96	19.329
527.15	19.918
527.35	19.452
527.55	19.980
527.74	19.542
527.94	19.394
528.14	19.395
528.33	19.606
528.53	19.415
528.72	18.952
528.92	19.469
529.12	19.401
529.31	19.774
529.51	19.971
529.71	19.948
529.90	19.752
530.10	19.833
530.29	20.288
530.49	20.127
530.69	20.011
530.88	19.873
531.08	20.053
531.28	20.139
531.47	20.137
531.67	20.006
531.86	20.123
532.06	20.525
532.26	20.082
532.45	20.257
532.65	19.917
532.84	19.216
533.04	19.575
533.24	19.914
533.43	19.755
533.63	20.114
533.82	20.378
534.02	20.513
534.22	19.786
534.41	19.532
534.61	19.901
534.80	19.844
535.00	20.586
535.19	20.678
535.39	20.246
535.59	20.364
535.78	19.851
535.98	20.161
536.17	20.668
536.37	20.535
536.57	20.516
536.76	20.168
536.96	20.018
537.15	20.305
537.35	20.539
537.54	20.495
537.74	20.487
537.93	20.335
538.13	20.479
538.33	20.337
538.52	20.421
538.72	21.030
538.91	20.285
539.11	20.118
539.30	19.899
539.50	20.299
539.70	20.140
539.89	20.400
540.09	19.620
540.28	20.055
540.48	19.769
540.67	20.971
540.87	20.463
541.06	19.996
541.26	19.827
541.45	20.315
541.65	20.193
541.85	20.003
542.04	20.157
542.24	20.064
542.43	20.626
542.63	20.404
542.82	20.813
543.02	20.798
543.21	21.254
543.41	20.821
543.60	21.181
543.80	20.873
543.99	20.879
544.19	20.589
544.38	21.236
544.58	20.797
544.77	21.560
544.97	20.982
545.16	21.279
545.36	20.755
545.56	20.769
545.75	21.214
545.95	20.682
546.14	21.454
546.34	20.988
546.53	20.740
546.73	20.869
546.92	20.153
547.12	20.857
547.31	21.082
547.51	21.538
547.70	21.279
547.90	20.823
548.09	20.590
548.29	20.987
548.48	21.823
548.68	20.850
548.87	21.501
549.07	20.524
549.26	21.170
549.46	21.068
549.65	21.749
549.84	20.798
550.04	21.750
550.23	21.366
550.43	22.054
550.62	20.362
550.82	21.145
551.01	21.129
551.21	21.120
551.40	21.564
551.60	21.757
551.79	21.062
551.99	22.415
552.18	21.316
552.38	21.563
552.57	21.496
552.77	21.444
552.96	21.599
553.16	22.480
553.35	21.682
553.54	21.892
553.74	22.035
553.93	21.167
554.13	21.322
554.32	22.134
554.52	23.148
554.71	22.553
554.91	22.543
555.10	22.765
555.29	21.234
555.49	22.143
555.68	22.403
555.88	21.946
556.07	21.347
556.27	21.857
556.46	21.466
556.66	23.157
556.85	22.619
557.04	22.668
557.24	22.422
557.43	21.991
557.63	22.889
557.82	22.420
558.02	22.609
558.21	22.584
558.40	23.197
558.60	23.128
558.79	22.261
558.99	23.653
559.18	22.946
559.38	23.014
559.57	23.163
559.76	23.233
559.96	23.669
560.15	23.286
560.35	23.469
560.54	23.741
560.73	22.760
560.93	23.093
561.12	23.330
561.32	23.826
561.51	22.635
561.70	23.401
561.90	22.221
562.09	24.272
562.29	22.612
562.48	24.794
562.67	23.533
562.87	23.104
563.06	22.760
563.26	23.529
563.45	23.694
563.64	23.617
563.84	23.139
564.03	24.211
564.23	24.455
564.42	23.568
564.61	22.864
564.81	23.995
565.00	23.908
565.20	25.033
565.39	23.054
565.58	24.250
565.78	23.675
565.97	23.980
566.16	23.537
566.36	25.276
566.55	23.986
566.74	25.193
566.94	23.893
567.13	24.559
567.33	24.282
567.52	25.665
567.71	25.000
567.91	24.970
568.10	25.651
568.29	25.356
568.49	24.101
568.68	24.174
568.87	24.051
569.07	24.531
569.26	24.820
569.45	25.653
569.65	25.095
569.84	25.157
570.04	24.494
570.23	24.599
570.42	25.107
570.62	25.992
570.81	25.339
571.00	25.078
571.20	24.248
571.39	25.093
571.58	25.334
571.78	25.414
571.97	25.046
572.16	25.756
572.36	25.516
572.55	24.939
572.74	25.834
572.94	24.508
573.13	24.390
573.32	25.502
573.51	24.871
573.71	24.983
573.90	25.433
574.09	25.522
574.29	24.970
574.48	25.837
574.67	25.065
574.87	25.546
575.06	25.068
575.25	25.641
575.45	24.730
575.64	25.563
575.83	25.022
576.03	25.751
576.22	25.105
576.41	25.316
576.60	25.486
576.80	25.631
576.99	25.592
577.18	25.647
577.38	25.241
577.57	25.758
577.76	26.071
577.95	26.202
578.15	24.454
578.34	25.837
578.53	25.604
578.73	25.978
578.92	25.197
579.11	24.642
579.30	25.209
579.50	25.168
579.69	25.617
579.88	24.734
580.08	25.322
580.27	25.321
580.46	25.026
580.65	26.061
580.85	25.493
581.04	25.296
581.23	24.615
581.42	25.153
581.62	23.551
581.81	24.865
582.00	24.427
582.19	24.830
582.39	23.967
582.58	25.722
582.77	25.074
582.96	26.132
583.16	24.845
583.35	25.632
583.54	24.523
583.73	24.366
583.93	24.781
584.12	24.683
584.31	25.424
584.50	25.122
584.70	25.014
584.89	24.886
585.08	24.589
585.27	25.198
585.47	24.097
585.66	24.445
585.85	24.830
586.04	24.649
586.24	24.089
586.43	23.902
586.62	24.155
586.81	24.885
587.00	24.669
587.20	25.178
587.39	23.104
587.58	25.552
587.77	23.996
587.97	24.706
588.16	24.162
588.35	24.478
588.54	23.525
588.73	24.689
588.93	24.458
589.12	24.342
589.31	23.634
589.50	24.445
589.69	24.558
589.89	25.113
590.08	23.678
590.27	24.430
590.46	24.540
590.65	25.038
590.85	23.464
591.04	25.025
591.23	23.936
591.42	24.301
591.61	23.967
591.81	25.477
592.00	24.412
592.19	25.860
592.38	24.701
592.57	24.782
592.77	24.594
592.96	25.622
593.15	24.489
593.34	24.134
593.53	23.848
593.72	25.226
593.92	23.107
594.11	25.018
594.30	24.881
594.49	23.970
594.68	24.773
594.87	25.026
595.07	24.585
595.26	25.141
595.45	24.511
595.64	25.529
595.83	23.738
596.02	24.828
596.22	25.012
596.41	25.571
596.60	24.665
596.79	24.608
596.98	24.906
597.17	25.429
597.37	24.731
597.56	25.262
597.75	24.253
597.94	25.718
598.13	25.520
598.32	24.648
598.51	24.841
598.71	25.829
598.90	24.232
599.09	25.533
599.28	25.455
599.47	25.303
599.66	24.558
599.85	25.139
600.05	25.214
600.24	25.929
600.43	24.760
600.62	26.326
600.81	26.214
601.00	25.397
601.19	23.059
601.38	24.122
601.58	26.612
601.77	25.659
601.96	25.000
602.15	24.757
602.34	24.418
602.53	24.966
602.72	25.350
602.91	25.983
603.10	23.721
603.30	24.642
603.49	24.900
603.68	26.100
603.87	23.860
604.06	25.349
604.25	25.669
604.44	25.436
604.63	25.021
604.82	25.974
605.01	25.663
605.21	26.134
605.40	25.983
605.59	26.434
605.78	24.066
605.97	25.620
606.16	25.027
606.35	25.950
606.54	24.308
606.73	26.161
606.92	24.560
607.11	25.928
607.30	26.180
607.50	26.323
607.69	24.693
607.88	24.672
608.07	23.991
608.26	25.321
608.45	24.710
608.64	26.016
608.83	24.738
609.02	25.068
609.21	24.556
609.40	25.263
609.59	24.470
609.78	26.056
609.97	24.300
610.16	25.225
610.35	25.172
610.55	25.149
610.74	24.981
610.93	24.482
611.12	25.885
611.31	24.753
611.50	25.029
611.69	25.270
611.88	25.103
612.07	25.381
612.26	23.330
612.45	24.894
612.64	23.391
612.83	25.317
613.02	24.212
613.21	24.901
613.40	23.827
613.59	25.358
613.78	22.258
613.97	24.625
614.16	24.112
614.35	24.881
614.54	23.026
614.73	23.780
614.92	23.179
615.11	22.846
615.30	22.995
615.49	23.948
615.68	23.772
615.87	24.506
616.07	23.201
616.26	23.529
616.45	22.036
616.64	24.019
616.83	22.149
617.02	24.161
617.21	22.919
617.40	23.194
617.59	21.848
617.78	23.382
617.97	21.996
618.16	21.748
618.35	21.116
618.54	22.743
618.73	23.009
618.92	24.312
619.11	21.291
619.30	24.375
619.49	21.742
619.68	23.327
619.86	21.928
620.05	23.975
620.24	22.875
620.43	22.473
620.62	21.909
620.81	22.465
621.00	22.593
621.19	23.722
621.38	21.430
621.57	22.849
621.76	22.446
621.95	23.869
622.14	22.019
622.33	23.858
622.52	22.131
622.71	23.341
622.90	21.570
623.09	23.359
623.28	21.454
623.47	23.324
623.66	21.986
623.85	23.000
624.04	23.339
624.23	23.403
624.42	22.249
624.61	22.813
624.80	20.414
624.99	22.663
625.18	21.665
625.36	21.778
625.55	22.232
625.74	22.759
625.93	20.804
626.12	21.573
626.31	22.227
626.50	23.016
626.69	22.236
626.88	23.765
627.07	22.862
627.26	22.224
627.45	22.308
627.64	24.092
627.83	21.775
628.02	23.388
628.20	22.455
628.39	22.317
628.58	22.273
628.77	22.546
628.96	21.914
629.15	22.107
629.34	20.636
629.53	21.019
629.72	21.370
629.91	23.631
630.10	22.236
630.29	21.358
630.47	21.535
630.66	20.949
630.85	20.802
631.04	22.060
631.23	22.376
631.42	21.678
631.61	20.800
631.80	22.907
631.99	21.551
632.18	21.442
632.36	21.289
632.55	24.329
632.74	20.034
632.93	21.078
633.12	20.876
633.31	21.340
633.50	20.381
633.69	21.783
633.88	20.147
634.06	23.440
634.25	21.200
634.44	22.487
634.63	21.988
634.82	24.739
635.01	21.002
635.20	21.836
635.39	21.179
635.57	22.558
635.76	23.002
635.95	22.469
636.14	19.165
636.33	23.879
636.52	19.106
636.71	22.838
636.89	20.387
637.08	22.373
637.27	18.624
637.46	21.363
637.65	19.459
637.84	20.563
638.03	20.482
638.21	22.175
638.40	20.498
638.59	21.231
638.78	18.560
638.97	23.618
639.16	21.208
639.34	19.638
639.53	17.379
639.72	22.013
639.91	18.078
640.10	20.044
640.29	19.011
640.47	21.432
640.66	20.281
640.85	21.686
641.04	18.731
641.23	20.551
641.42	20.404
641.60	20.243
641.79	17.960
641.98	18.037
642.17	17.942
642.36	20.810
642.54	18.097
642.73	20.990
642.92	18.785
643.11	19.613
643.30	17.353
643.49	20.490
643.67	18.535
643.86	21.957
644.05	18.075
644.24	18.521
644.43	18.337
644.61	20.853
644.80	18.122
644.99	18.799
645.18	18.940
645.37	20.972
645.55	17.398
645.74	19.463
645.93	18.933
646.12	18.939
646.31	17.276
646.49	18.820
646.68	19.288
646.87	20.581
647.06	17.732
647.24	19.654
647.43	16.627
647.62	20.111
647.81	17.680
648.00	18.647
648.18	16.601
648.37	20.110
648.56	18.645
648.75	17.946
648.93	17.693
649.12	18.579
649.31	17.933
649.50	16.977
649.68	17.504
649.87	18.386
650.06	16.575
650.25	20.414
650.43	16.165
650.62	19.207
650.81	18.367
651.00	22.045
651.18	17.138
651.37	21.166
651.56	17.976
651.75	20.094
651.93	17.563
652.12	20.153
652.31	17.329
652.50	19.475
652.68	18.757
652.87	21.218
653.06	18.697
653.25	21.207
653.43	17.253
653.62	19.329
653.81	16.249
654.00	21.807
654.18	16.083
654.37	18.944
654.56	18.553
654.74	19.059
654.93	15.687
655.12	18.724
655.31	16.694
655.49	18.774
655.68	16.508
655.87	16.216
656.05	15.473
656.24	17.909
656.43	13.582
656.62	19.662
656.80	15.184
656.99	15.642
657.18	13.673
657.36	16.171
657.55	16.212
657.74	16.966
657.93	19.146
658.11	20.168
658.30	18.009
658.49	18.207
658.67	16.927
658.86	16.914
659.05	16.797
659.23	19.442
659.42	16.054
659.61	19.600
659.79	18.773
659.98	18.905
660.17	17.716
660.35	18.279
660.54	17.760
660.73	21.753
660.91	18.070
661.10	19.214
661.29	15.490
661.47	17.539
661.66	16.918
661.85	17.850
662.03	17.065
662.22	14.663
662.41	12.667
662.59	16.200
662.78	12.626
662.97	14.872
663.15	13.185
663.34	14.788
663.53	10.787
663.71	14.983
663.90	12.445
664.09	16.166
664.27	12.041
664.46	13.439
664.65	12.917
664.83	13.766
665.02	12.541
665.21	11.475
665.39	10.796
665.58	12.491
665.77	11.042
665.95	12.301
666.14	9.856
666.32	11.414
666.51	9.724
666.70	12.160
666.88	10.540
667.07	9.974
667.26	10.774
667.44	11.407
667.63	9.411
667.81	10.089
668.00	10.641
668.19	14.729
668.37	12.019
668.56	13.100
668.75	8.610
668.93	13.597
669.12	10.669
669.30	12.491
669.49	11.065
669.68	11.173
669.86	10.909
670.05	11.824
670.23	10.223
670.42	10.320
670.61	10.039
670.79	12.342
670.98	10.502
671.16	13.274
671.35	9.781
671.54	10.860
671.72	9.254
671.91	12.625
672.09	7.521
672.28	11.495
672.46	11.800
672.65	12.159
672.84	12.322
673.02	12.764
673.21	7.387
673.39	8.941
673.58	11.284
673.77	11.176
673.95	9.780
674.14	11.512
674.32	10.660
674.51	14.264
674.69	10.785
674.88	11.094
675.07	8.357
675.25	14.751
675.44	9.098
675.62	11.457
675.81	10.566
675.99	13.818
676.18	12.205
676.36	12.172
676.55	6.091
676.74	12.505
676.92	11.557
677.11	12.077
677.29	11.055
677.48	12.600
677.66	11.808
677.85	11.466
678.03	9.343
678.22	12.722
678.40	12.607
678.59	12.076
678.78	8.330
678.96	12.533
679.15	10.086
679.33	14.008
679.52	14.646
679.70	11.742
679.89	11.199
680.07	12.993
680.26	11.196
680.44	13.080
680.63	13.838
680.81	14.452
681.00	10.908
681.18	14.334
681.37	12.449
681.55	14.233
681.74	14.951
681.92	16.011
682.11	13.429
682.29	13.816
682.48	13.192
682.66	15.131
682.85	14.026
683.03	14.703
683.22	15.896
683.40	15.610
683.59	11.938
683.77	14.032
683.96	11.887
684.14	15.343
684.33	9.466
684.51	16.046
684.70	13.136
684.88	15.773
685.07	13.091
685.25	16.485
685.44	12.643
685.62	16.454
685.81	13.899
685.99	15.775
686.18	11.635
686.36	14.130
686.55	11.895
686.73	15.444
686.92	16.687
687.10	16.336
687.29	15.090
687.47	17.901
687.65	15.150
687.84	15.525
688.02	16.952
688.21	16.875
688.39	13.390
688.58	20.968
688.76	14.001
688.95	16.488
689.13	12.530
689.32	18.502
689.50	15.272
689.68	18.856
689.87	17.001
690.05	18.495
690.24	17.173
690.42	17.486
690.61	17.074
690.79	19.473
690.98	14.552
691.16	17.719
691.34	14.905
691.53	17.744
691.71	16.977
691.90	17.204
692.08	14.520
692.27	20.841
692.45	18.797
692.63	18.437
692.82	18.419
693.00	19.236
693.19	16.026
693.37	19.880
693.56	19.623
693.74	21.148
693.92	19.390
694.11	20.822
694.29	16.762
694.48	23.237
694.66	20.244
694.84	22.201
695.03	16.896
695.21	24.004
695.40	23.123
695.58	21.892
695.76	18.708
695.95	23.244
696.13	18.896
696.32	25.579
696.50	28.253
696.68	22.540
696.87	19.374
697.05	25.160
697.24	21.346
697.42	24.488
697.60	23.144
697.79	26.892
697.97	23.684
698.16	26.252
698.34	22.694
698.52	26.210
698.71	24.220
698.89	28.170
699.07	25.390
699.26	28.421
699.44	28.309
699.63	30.287
699.81	26.975
699.99	28.345
700.18	28.605
700.36	30.604
700.54	28.021
700.73	28.702
700.91	27.852
701.09	30.356
701.28	25.638
701.46	29.745
701.64	27.248
701.83	27.660
702.01	25.240
702.20	29.859
702.38	25.850
702.56	28.616
702.75	23.789
702.93	25.449
703.11	22.712
703.30	26.540
703.48	26.091
703.66	28.973
703.85	29.093
704.03	30.136
704.21	29.121
704.40	26.759
704.58	25.081
704.76	29.239
704.95	25.732
705.13	27.474
705.31	26.501
705.50	27.317
705.68	25.110
705.86	31.678
706.04	26.466
706.23	30.201
706.41	27.598
706.59	30.033
706.78	24.480
706.96	31.300
707.14	29.978
707.33	27.874
707.51	26.313
707.69	31.080
707.88	24.874
708.06	29.364
708.24	27.897
708.42	30.491
708.61	27.968
708.79	29.831
708.97	28.509
709.16	30.929
709.34	28.571
709.52	29.915
709.71	27.554
709.89	30.224
710.07	27.263
710.25	30.324
710.44	27.200
710.62	29.753
710.80	30.717
710.98	32.143
711.17	29.152
711.35	33.170
711.53	28.659
711.72	32.750
711.90	30.951
712.08	33.972
712.26	28.883
712.45	34.425
712.63	29.315
712.81	33.690
712.99	31.003
713.18	34.586
713.36	31.582
713.54	31.321
713.72	26.545
713.91	30.401
714.09	28.646
714.27	30.286
714.45	29.865
714.64	31.211
714.82	29.786
715.00	30.311
715.18	28.801
715.37	32.484
715.55	28.189
715.73	33.282
715.91	29.371
716.10	31.066
716.28	27.018
716.46	34.151
716.64	28.201
716.83	30.152
717.01	26.953
717.19	31.836
717.37	27.505
717.55	30.178
717.74	29.022
717.92	28.516
718.10	25.825
718.28	29.907
718.47	26.822
718.65	30.752
718.83	26.594
719.01	32.007
719.19	25.850
719.38	25.646
719.56	22.644
719.74	29.320
719.92	22.445
720.10	26.051
720.29	26.477
720.47	30.398
720.65	25.759
720.83	25.651
721.01	24.047
721.20	26.081
721.38	26.397
721.56	25.472
721.74	26.862
721.92	28.513
722.11	22.545
722.29	29.224
722.47	26.703
722.65	27.406
722.83	29.140
723.01	28.865
723.20	25.341
723.38	30.833
723.56	26.565
723.74	32.757
723.92	23.696
724.10	28.014
724.29	21.970
724.47	30.667
724.65	25.868
724.83	32.610
725.01	26.177
725.19	33.042
725.38	27.807
725.56	29.145
725.74	26.058
725.92	28.561
726.10	21.550
726.28	28.317
726.46	31.435
726.65	28.380
726.83	27.561
727.01	26.594
727.19	30.919
727.37	29.028
727.55	24.395
727.73	31.492
727.92	30.556
728.10	29.920
728.28	27.435
728.46	30.532
728.64	27.733
728.82	30.552
729.00	31.032
729.19	33.219
729.37	30.570
729.55	34.140
729.73	25.551
729.91	32.181
730.09	32.905
730.27	32.487
730.45	29.877
730.63	31.586
730.82	29.987
731.00	29.576
731.18	26.531
731.36	29.206
731.54	25.722
731.72	32.319
731.90	26.662
732.08	29.872
732.26	30.667
732.45	34.071
732.63	29.122
732.81	31.945
732.99	29.794
733.17	34.353
733.35	30.666
733.53	32.649
733.71	31.293
733.89	32.730
734.07	31.870
734.25	33.208
734.44	33.289
734.62	31.850
734.80	27.954
734.98	34.077
735.16	32.880
735.34	32.978
735.52	29.250
735.70	32.099
735.88	32.053
736.06	35.836
736.24	35.578
736.42	33.568
736.60	34.561
736.78	35.324
736.97	31.869
737.15	34.295
737.33	32.016
737.51	33.360
737.69	33.552
737.87	30.411
738.05	32.575
738.23	34.759
738.41	36.032
738.59	32.727
738.77	35.354
738.95	38.010
739.13	34.776
739.31	36.614
739.49	30.463
739.67	37.842
739.85	33.522
740.03	37.080
740.21	34.523
740.39	33.812
740.57	34.746
740.75	36.774
740.93	31.157
741.11	36.130
741.30	36.842
741.48	38.430
741.66	31.856
741.84	32.060
742.02	28.291
742.20	34.813
742.38	32.293
742.56	35.877
742.74	34.716
742.92	37.928
743.10	32.334
743.28	38.454
743.46	33.614
743.64	33.210
743.82	34.409
744.00	35.159
744.18	37.318
744.36	33.422
744.54	34.190
744.72	38.144
744.90	35.266
745.08	35.811
745.26	38.732
745.44	36.399
745.62	36.959
745.80	37.152
745.98	37.298
746.16	36.032
746.34	30.570
746.52	44.160
746.70	31.109
746.87	38.462
747.05	34.894
747.23	35.481
747.41	36.489
747.59	40.835
747.77	34.036
747.95	30.381
748.13	30.403
748.31	37.118
748.49	38.755
748.67	39.665
748.85	36.186
749.03	34.000
749.21	38.160
749.39	39.519
749.57	34.211
749.75	40.567
749.93	38.153
750.11	34.002
750.29	33.302
750.47	37.713
750.65	35.415
750.83	43.291
751.01	31.558
751.18	40.535
751.36	35.905
751.54	37.259
751.72	33.666
751.90	36.725
752.08	32.274
752.26	36.842
752.44	36.774
752.62	37.822
752.80	34.292
752.98	42.446
753.16	35.600
753.34	35.010
753.52	38.115
753.69	36.737
753.87	31.100
754.05	39.857
754.23	34.189
754.41	36.176
754.59	36.650
754.77	38.739
754.95	34.396
755.13	37.891
755.31	33.704
755.49	38.889
755.66	30.514
755.84	36.822
756.02	35.948
756.20	40.566
756.38	32.568
756.56	41.610
756.74	36.554
756.92	37.169
757.10	34.974
757.28	36.482
757.45	39.894
757.63	35.824
757.81	32.150
757.99	38.941
758.17	36.674
758.35	36.254
758.53	35.386
758.71	37.966
758.88	36.276
759.06	37.978
759.24	31.332
759.42	31.569
759.60	34.865
759.78	30.461
759.96	22.843
760.13	26.582
760.31	19.658
760.49	25.706
760.67	20.621
760.85	24.474
761.03	16.801
761.21	23.457
761.38	14.908
761.56	22.481
761.74	16.508
761.92	24.951
762.10	14.445
762.28	27.431
762.46	15.278
762.63	19.122
762.81	21.246
762.99	25.465
763.17	20.291
763.35	23.586
763.53	18.256
763.70	21.602
763.88	21.331
764.06	23.277
764.24	21.503
764.42	26.183
764.60	22.083
764.77	24.713
764.95	23.917
765.13	27.988
765.31	24.921
765.49	28.169
765.66	25.551
765.84	28.492
766.02	25.909
766.20	26.612
766.38	23.071
766.56	30.782
766.73	26.684
766.91	29.471
767.09	29.211
767.27	32.566
767.45	27.298
767.62	31.863
767.80	27.707
767.98	31.082
768.16	27.726
768.33	38.686
768.51	32.842
768.69	33.219
768.87	33.296
769.05	35.981
769.22	30.099
769.40	41.968
769.58	36.025
769.76	32.601
769.94	32.927
770.11	36.407
770.29	30.970
770.47	33.825
770.65	39.225
770.82	33.527
771.00	36.563
771.18	35.854
771.36	36.979
771.53	30.843
771.71	38.421
771.89	37.959
772.07	34.563
772.25	44.061
772.42	35.958
772.60	45.815
772.78	31.495
772.96	38.953
773.13	40.385
773.31	34.409
773.49	34.978
773.67	36.907
773.84	40.922
774.02	36.444
774.20	28.905
774.37	37.413
774.55	31.223
774.73	34.735
774.91	38.088
775.08	34.732
775.26	36.257
775.44	35.894
775.62	36.364
775.79	31.277
775.97	33.077
776.15	38.352
776.32	38.829
776.50	38.605
776.68	32.127
776.86	35.714
777.03	36.076
777.21	38.619
777.39	42.380
777.56	37.402
777.74	29.367
777.92	39.777
778.10	27.010
778.27	40.000
778.45	33.333
778.63	40.916
778.80	36.306
778.98	33.238
779.16	42.546
779.34	32.656
779.51	32.669
779.69	47.682
779.87	36.713
780.04	35.211
780.22	32.794
780.40	37.677
780.57	34.131
780.75	39.525
780.93	40.502
781.10	42.531
781.28	44.811
781.46	35.943
781.63	40.165
781.81	41.718
781.99	31.908
782.16	36.424
782.34	29.798
782.52	43.156
782.69	38.772
782.87	35.980
783.05	33.841
783.22	33.929
783.40	32.492
783.58	35.875
783.75	33.505
783.93	46.493
784.11	34.446
784.28	33.910
784.46	36.508
784.64	32.679
784.81	28.674
784.99	31.562
785.17	37.087
785.34	34.698
785.52	27.619
785.69	33.394
785.87	31.844
786.05	35.536
786.22	45.472
786.40	37.774
786.58	42.617
786.75	29.205
786.93	38.380
787.11	32.692
787.28	40.722
787.46	35.560
787.63	31.373
787.81	34.426
787.99	31.283
788.16	36.557
788.34	24.116
788.51	34.562
788.69	32.670
788.87	36.826
789.04	31.411
789.22	30.769
789.39	25.700
789.57	37.538
789.75	26.942
789.92	29.646
790.10	32.712
790.27	29.571
790.45	32.070
790.63	32.376
790.80	34.304
790.98	30.634
791.15	27.950
791.33	34.258
791.51	34.933
791.68	39.856
791.86	36.870
792.03	33.731
792.21	31.250
792.39	36.170
792.56	32.810
792.74	36.484
792.91	35.556
793.09	31.459
793.26	32.495
793.44	36.622
793.62	35.433
793.79	30.417
793.97	34.113
794.14	32.882
794.32	29.317
794.49	36.057
794.67	34.146
794.84	22.851
795.02	34.216
795.20	34.216
795.37	33.600
795.55	32.731
795.72	31.903
795.90	29.435
796.07	32.341
796.25	33.273
796.42	26.224
796.60	31.720
796.77	29.004
796.95	30.380
797.13	23.652
797.30	37.276
797.48	30.313
797.65	28.892
797.83	26.110
798.00	30.970
798.18	27.574
798.35	34.310
798.53	20.971
798.70	29.912
798.88	37.103
799.05	31.907
799.23	26.412
799.40	23.665
799.58	34.435
799.75	31.239
799.93	23.709
800.10	36.466
800.28	28.364
800.45	34.809
800.63	22.814
800.80	34.712
800.98	31.002
801.15	31.047
801.33	26.163
801.50	33.692
801.68	26.087
801.85	26.062
802.03	24.449
802.20	38.182
802.38	36.330
802.55	40.664
802.73	34.297
802.90	28.081
803.08	30.693
803.25	38.677
803.43	28.689
803.60	39.735
803.78	33.006
803.95	27.706
804.13	34.351
804.30	33.557
804.48	27.293
804.65	31.910
804.83	33.602
805.00	25.828
805.17	33.475
805.35	33.886
805.52	28.513
805.70	30.083
805.87	32.824
806.05	23.293
806.22	32.500
806.40	33.459
806.57	36.240
806.75	30.328
806.92	33.128
807.09	47.789
807.27	40.816
807.44	35.167
807.62	31.939
807.79	30.467
807.97	26.600
808.14	31.393
808.31	30.921
808.49	34.752
808.66	24.444
808.84	20.926
809.01	24.368
809.19	24.648
809.36	38.831
809.53	21.968
809.71	31.410
809.88	34.921
810.06	35.667
810.23	32.294
810.41	35.639
810.58	45.874
810.75	31.579
810.93	29.224
811.10	25.109
811.28	30.112
811.45	31.579
811.62	27.366
811.80	24.623
811.97	37.437
812.15	41.686
812.32	30.628
812.49	32.678
812.67	31.504
812.84	25.240
813.02	32.275
813.19	31.961
813.36	33.702
813.54	14.610
813.71	31.701
813.89	32.124
814.06	27.318
814.23	25.294
814.41	37.626
814.58	36.915
814.75	27.520
814.93	40.099
815.10	29.708
815.28	32.090
815.45	23.185
815.62	21.264
815.80	26.316
815.97	19.500
816.14	35.279
816.32	21.189
816.49	21.636
816.66	10.933
816.84	24.829
817.01	22.678
817.18	27.676
817.36	27.763
817.53	30.583
817.71	23.650
817.88	32.870
818.05	30.700
818.23	25.791
818.40	20.800
818.57	26.424
818.75	32.632
818.92	29.073
819.09	24.937
819.27	24.500
819.44	23.515
819.61	26.328
819.79	23.490
819.96	17.123
820.13	26.707
820.31	26.970
820.48	28.310
820.65	29.541
820.82	30.697
821.00	19.211
821.17	17.411
821.34	21.811
821.52	20.839
821.69	15.062
821.86	20.287
822.04	23.155
822.21	20.109
822.38	27.660
822.56	18.800
822.73	24.189
822.90	21.509
823.07	28.134
823.25	21.988
823.42	26.517
823.59	23.801
823.77	27.017
823.94	24.336
824.11	26.679
824.29	23.396
824.46	28.423
824.63	26.633
824.80	23.814
824.98	20.522
825.15	27.696
825.32	19.128
825.49	21.950
825.67	21.658
825.84	23.225
826.01	25.833
826.19	25.417
826.36	17.685
826.53	27.256
826.70	18.852
826.88	25.782
827.05	15.854
827.22	21.325
827.39	21.148
827.57	20.888
827.74	16.338
827.91	19.817
828.08	16.927
828.26	23.034
828.43	20.552
828.60	20.804
828.77	20.325
828.95	23.833
829.12	17.253
829.29	16.338
829.46	19.714
829.64	19.533
829.81	16.005
829.98	24.129
830.15	23.786
830.32	16.010
830.50	13.372
830.67	22.185
830.84	18.841
831.01	22.655
831.19	25.741
831.36	18.725
831.53	25.561
831.70	28.966
831.87	16.949
832.05	33.645
832.22	27.778
832.39	26.005
832.56	23.219
832.74	17.051
832.91	24.938
833.08	25.855
833.25	20.443
833.42	24.008
833.60	16.182
833.77	15.451
833.94	21.725
834.11	19.035
834.28	21.658
834.45	19.343
834.63	17.296
834.80	20.046
834.97	22.860
835.14	17.798
835.31	14.903
835.49	21.637
835.66	21.375
835.83	17.798
836.00	21.761
836.17	20.892
836.34	22.108
836.52	20.092
836.69	28.728
836.86	22.122
837.03	23.917
837.20	22.037
837.37	27.953
837.55	31.458
837.72	16.401
837.89	31.566
838.06	32.000
838.23	26.961
838.40	31.928
838.58	28.530
838.75	22.112
838.92	39.628
839.09	24.399
839.26	28.713
839.43	44.369
839.60	44.745
839.78	46.429
839.95	33.787
840.12	29.010
840.29	43.051
840.46	40.491
840.63	37.931
840.80	41.100
840.98	28.205
841.15	33.750
841.32	31.212
841.49	20.915
841.66	37.975
841.83	40.373
842.00	16.279
842.17	42.330
842.34	20.946
842.52	42.333
842.69	23.729
842.86	34.109
843.03	41.697
843.20	28.352
843.37	46.125
843.54	39.326
843.71	20.089
843.88	52.889
844.06	50.800
844.23	41.429
844.40	52.444
844.57	44.199
844.74	47.561
844.91	51.208
845.08	65.909
845.25	63.285
845.42	72.581
845.59	38.947
845.76	48.205
845.94	76.733
846.11	61.644
846.28	57.143
846.45	78.652
846.62	72.078
846.79	56.164
846.96	45.679
847.13	63.953
847.30	62.069
847.47	36.691
847.64	86.047
847.81	66.102
847.98	39.698
848.15	70.803
848.32	68.553
848.50	64.671
848.67	58.621
848.84	67.123
849.01	26.257
849.18	60.309
849.35	52.344
849.52	31.034
849.69	52.318
849.86	61.905
850.03	59.701
850.20	54.971
850.37	63.866
850.54	53.631
850.71	54.305
850.88	51.397
851.05	88.136
851.22	40.449
851.39	46.847
851.56	83.036
851.73	74.843
851.90	80.124
852.07	96.992
852.24	61.842
852.41	38.095
852.58	78.169
852.75	54.023
852.92	43.902
853.09	35.156
853.26	45.503
853.43	73.585
853.60	62.921
853.77	63.291
853.94	102.920
854.11	58.741
854.28	50.400
854.45	36.719
854.62	79.188
854.79	86.928
854.96	72.000
855.13	62.573
855.30	87.755
855.47	75.862
855.64	79.699
855.81	64.516
855.98	40.476
856.15	73.874
856.32	50.943
856.49	62.016
856.66	60.140
856.83	45.455
857.00	44.444
857.17	72.308
857.34	38.947
857.51	46.763
857.68	72.432
857.85	48.864
858.02	57.037
858.19	70.270
858.36	43.636
858.53	41.935
858.70	62.874
858.87	61.392
859.04	51.613
859.21	64.189
859.38	64.035
859.55	79.104
859.72	57.471
859.89	67.626
860.05	72.072
860.22	50.785
860.39	83.929
860.56	23.664
860.73	79.675
860.90	79.817
861.07	59.211
861.24	67.105
861.41	94.444
861.58	65.625
861.75	85.185
861.92	80.263
862.09	71.852
862.26	74.359
862.43	108.911
862.59	69.118
862.76	76.224
862.93	110.112
863.10	52.381
863.27	40.171
863.44	71.264
863.61	35.766
863.78	70.857
863.95	79.739
864.12	81.034
864.29	64.103
864.45	60.345
864.62	42.938
864.79	56.589
864.96	43.089
865.13	43.243
865.30	95.031
865.47	56.098
865.64	35.971
865.81	73.282
865.97	88.667
866.14	47.619
866.31	93.333
866.48	48.344
866.65	55.128
866.82	65.190
866.99	62.393
867.16	67.669
867.33	107.527
867.49	78.395
867.66	75.258
867.83	68.504
868.00	66.438
868.17	78.512
868.34	44.737
868.51	81.905
868.67	86.709
868.84	85.000
869.01	64.800
869.18	41.135
869.35	37.984
869.52	42.857
869.69	47.260
869.85	74.766
870.02	75.000
870.19	83.051
870.36	84.828
870.53	40.714
870.70	62.264
870.86	52.000
871.03	57.407
871.20	28.440
871.37	65.517
871.54	70.946
871.71	36.429
871.87	27.044
872.04	40.571
872.21	62.609
872.38	78.862
872.55	60.494
872.72	93.750
872.88	61.453
873.05	68.966
873.22	60.544
873.39	45.918
873.56	69.822
873.72	63.529
873.89	63.354
874.06	-19.403
874.23	89.831
874.40	43.000
874.56	34.737
874.73	79.268
874.90	51.695
875.07	58.571
875.24	64.596
875.40	52.941
875.57	70.642
875.74	102.400
875.91	64.220
876.08	77.391
876.24	38.372
876.41	85.600
876.58	62.766
876.75	56.738
876.92	49.265
877.08	53.676
877.25	70.435
877.42	80.469
877.59	58.163
877.75	48.667
877.92	41.071
878.09	59.375
878.26	56.886
878.42	51.875
878.59	56.522
878.76	56.579
878.93	29.851
879.09	9.091
879.26	48.171
879.43	60.541
879.60	37.063
879.76	52.841
879.93	43.889
880.10	22.000
880.27	36.646
880.43	35.754
880.60	34.247
880.77	31.818
880.94	16.418
881.10	30.088
881.27	38.033
881.44	14.448
881.61	26.906
881.77	24.857
881.94	12.229
882.11	17.254
882.28	17.961
882.44	11.157
882.61	21.238
882.78	21.805
882.94	22.112
883.11	15.719
883.28	14.891
883.45	16.537
883.61	13.694
883.78	17.079
883.95	19.366
884.11	16.347
884.28	17.784
>>>>>End Processed Spectral Data<<<<<
