SpectraSuite Data File
++++++++++++++++++++++++++++++++++++
Date: Sat Sep 21 03:23:44 EST 2019
User: sgrac
Dark Spectrum Present: Yes
Reference Spectrum Present: Yes
Number of Sampled Component Spectra: 1
Spectrometers: USB4E01596
Integration Time (usec): 100000 (USB4E01596)
Spectra Averaged: 1 (USB4E01596)
Boxcar Smoothing: 0 (USB4E01596)
Correct for Electrical Dark: No (USB4E01596)
Strobe/Lamp Enabled: Yes (USB4E01596)
Correct for Detector Non-linearity: No (USB4E01596)
Correct for Stray Light: No (USB4E01596)
Number of Pixels in Processed Spectrum: 3648
>>>>>Begin Processed Spectral Data<<<<<
178.44	-328.571
178.66	-328.571
178.87	-328.571
179.09	-400.000
179.30	-353.846
179.52	0.000
179.74	-1150.000
179.95	883.333
180.17	326.667
180.38	8300.000
180.60	0.000
180.82	466.667
181.03	-194.737
181.25	178.261
181.46	-167.742
181.68	295.833
181.89	5100.000
182.11	282.857
182.33	-162.222
182.54	-212.500
182.76	-4650.000
182.97	760.000
183.19	2000.000
183.40	231.034
183.62	-59.259
183.84	-251.852
184.05	282.609
184.27	383.333
184.48	500.000
184.70	216.000
184.91	-380.000
185.13	146.667
185.34	-207.143
185.56	158.333
185.78	0.000
185.99	420.000
186.21	227.586
186.42	533.333
186.64	101.613
186.85	-11.111
187.07	141.818
187.28	513.333
187.50	-93.333
187.72	1320.000
187.93	-5500.000
188.15	116.000
188.36	-388.235
188.58	-3300.000
188.79	268.182
189.01	338.889
189.22	1240.000
189.44	4050.000
189.65	123.333
189.87	712.500
190.09	-1360.000
190.30	550.000
190.52	-3150.000
190.73	175.000
190.95	207.143
191.16	237.778
191.38	220.000
191.59	183.333
191.81	205.556
192.02	172.340
192.24	582.353
192.45	-1220.000
192.67	377.143
192.88	391.667
193.10	304.000
193.31	260.000
193.53	-8300.000
193.74	104.878
193.96	245.833
194.18	235.484
194.39	-377.778
194.61	368.421
194.82	438.095
195.04	161.905
195.25	2700.000
195.47	204.878
195.68	253.191
195.90	980.000
196.11	225.455
196.33	146.809
196.54	-2600.000
196.76	264.286
196.97	-2800.000
197.19	314.286
197.40	223.529
197.62	134.375
197.83	133.784
198.05	-357.895
198.26	294.286
198.48	158.333
198.69	183.721
198.91	237.255
199.12	-68.571
199.34	-1360.000
199.55	2200.000
199.77	2450.000
199.98	264.000
200.20	67.606
200.41	364.286
200.63	-433.333
200.84	70.588
201.06	669.231
201.27	229.730
201.49	1075.000
201.70	218.519
201.91	232.609
202.13	155.072
202.34	213.208
202.56	-1185.714
202.77	655.556
202.99	389.286
203.20	1950.000
203.42	537.500
203.63	206.977
203.85	180.000
204.06	172.222
204.28	-940.000
204.49	197.143
204.71	179.487
204.92	0.000
205.14	-714.286
205.35	327.778
205.56	-1740.000
205.78	200.000
205.99	810.000
206.21	-129.032
206.42	290.323
206.64	171.429
206.85	1700.000
207.07	-415.385
207.28	264.286
207.50	-347.368
207.71	130.769
207.93	161.364
208.14	605.882
208.35	321.053
208.57	-6200.000
208.78	676.923
209.00	372.222
209.21	-5000.000
209.43	55.172
209.64	241.176
209.86	785.714
210.07	0.000
210.28	-305.882
210.50	165.306
210.71	192.982
210.93	71.429
211.14	-144.444
211.36	-77.419
211.57	-233.333
211.78	17.391
212.00	0.000
212.21	197.674
212.43	-109.091
212.64	113.793
212.86	-487.500
213.07	-295.455
213.29	176.316
213.50	4500.000
213.71	181.132
213.93	1157.143
214.14	122.727
214.36	1100.000
214.57	476.923
214.78	193.750
215.00	3050.000
215.21	61.111
215.43	300.000
215.64	220.513
215.86	88.571
216.07	4200.000
216.28	288.000
216.50	-1000.000
216.71	-1220.000
216.93	138.298
217.14	234.375
217.35	225.926
217.57	232.143
217.78	725.000
218.00	-150.000
218.21	289.474
218.42	-2966.667
218.64	364.706
218.85	-477.778
219.07	442.857
219.28	1125.000
219.49	122.368
219.71	2233.333
219.92	147.222
220.14	279.167
220.35	245.000
220.56	184.615
220.78	394.118
220.99	-3900.000
221.21	309.524
221.42	383.333
221.63	267.500
221.85	154.839
222.06	175.000
222.28	150.000
222.49	-2400.000
222.70	0.000
222.92	361.111
223.13	223.333
223.34	-1375.000
223.56	92.105
223.77	133.708
223.99	148.718
224.20	128.571
224.41	183.784
224.63	252.778
224.84	182.759
225.05	35.714
225.27	102.857
225.48	86.957
225.69	628.571
225.91	151.852
226.12	294.444
226.34	83.333
226.55	118.519
226.76	167.742
226.98	116.000
227.19	131.818
227.40	71.074
227.62	70.732
227.83	61.000
228.04	84.615
228.26	49.505
228.47	72.414
228.69	42.763
228.90	35.211
229.11	25.185
229.33	42.995
229.54	42.105
229.75	23.913
229.97	32.189
230.18	20.789
230.39	38.397
230.61	15.409
230.82	42.739
231.03	6.224
231.25	22.896
231.46	12.774
231.67	35.968
231.89	41.961
232.10	21.457
232.31	36.538
232.53	41.243
232.74	34.896
232.95	49.398
233.17	30.636
233.38	33.582
233.59	69.853
233.81	37.864
234.02	61.184
234.23	17.112
234.45	57.895
234.66	47.458
234.87	42.282
235.09	52.593
235.30	37.931
235.51	30.097
235.73	44.654
235.94	37.306
236.15	37.245
236.36	29.101
236.58	36.493
236.79	47.644
237.00	22.222
237.22	52.469
237.43	43.137
237.64	24.891
237.86	55.435
238.07	61.307
238.28	55.738
238.50	18.261
238.71	32.544
238.92	8.929
239.13	59.429
239.35	37.762
239.56	39.062
239.77	51.220
239.99	19.340
240.20	27.368
240.41	33.621
240.63	23.482
240.84	35.060
241.05	28.832
241.26	22.314
241.48	22.714
241.69	16.456
241.90	21.127
242.12	19.898
242.33	23.707
242.54	19.403
242.75	11.575
242.97	23.966
243.18	15.993
243.39	13.542
243.61	11.094
243.82	13.986
244.03	12.518
244.24	8.896
244.46	11.704
244.67	10.629
244.88	21.596
245.09	16.528
245.31	12.668
245.52	24.632
245.73	26.459
245.95	19.190
246.16	12.364
246.37	14.341
246.58	15.140
246.80	10.526
247.01	15.234
247.22	18.052
247.43	13.708
247.65	16.164
247.86	9.482
248.07	8.445
248.28	13.270
248.50	10.651
248.71	11.601
248.92	12.227
249.13	11.209
249.35	15.547
249.56	11.740
249.77	8.528
249.98	6.979
250.20	9.333
250.41	15.307
250.62	10.843
250.83	10.604
251.05	17.496
251.26	8.167
251.47	20.541
251.68	12.614
251.90	16.123
252.11	18.990
252.32	13.659
252.53	20.908
252.75	12.800
252.96	23.718
253.17	17.614
253.38	14.054
253.59	6.780
253.81	13.169
254.02	12.519
254.23	15.965
254.44	12.088
254.66	7.107
254.87	14.982
255.08	15.568
255.29	22.691
255.50	19.785
255.72	19.266
255.93	17.032
256.14	21.364
256.35	22.717
256.57	16.010
256.78	20.091
256.99	21.728
257.20	19.903
257.41	23.810
257.63	17.996
257.84	14.108
258.05	17.500
258.26	16.396
258.47	11.091
258.69	14.075
258.90	9.006
259.11	3.900
259.32	10.705
259.53	9.249
259.75	13.552
259.96	6.960
260.17	7.451
260.38	9.951
260.59	8.444
260.81	10.664
261.02	8.781
261.23	11.067
261.44	12.405
261.65	10.766
261.87	8.848
262.08	11.222
262.29	13.826
262.50	12.912
262.71	6.017
262.92	9.721
263.14	12.104
263.35	5.416
263.56	7.294
263.77	10.660
263.98	13.889
264.20	18.653
264.41	3.867
264.62	19.003
264.83	7.345
265.04	17.573
265.25	12.645
265.47	17.523
265.68	14.723
265.89	10.815
266.10	11.678
266.31	23.613
266.52	8.599
266.74	8.219
266.95	10.733
267.16	15.077
267.37	12.000
267.58	0.595
267.79	9.010
268.01	10.989
268.22	11.377
268.43	9.691
268.64	13.613
268.85	8.538
269.06	8.480
269.27	14.823
269.49	10.083
269.70	10.999
269.91	9.819
270.12	7.921
270.33	12.329
270.54	11.570
270.75	6.082
270.97	10.288
271.18	10.564
271.39	10.324
271.60	12.969
271.81	8.954
272.02	10.465
272.23	10.988
272.45	6.977
272.66	6.068
272.87	6.911
273.08	6.235
273.29	10.919
273.50	10.309
273.71	12.614
273.92	8.903
274.14	6.538
274.35	7.449
274.56	11.728
274.77	9.563
274.98	9.992
275.19	10.924
275.40	10.060
275.61	10.663
275.83	10.242
276.04	10.928
276.25	9.902
276.46	11.936
276.67	9.548
276.88	11.169
277.09	9.613
277.30	12.890
277.51	12.963
277.73	9.500
277.94	11.530
278.15	4.046
278.36	10.233
278.57	5.123
278.78	13.200
278.99	11.122
279.20	9.850
279.41	14.634
279.62	10.470
279.84	10.427
280.05	10.571
280.26	10.973
280.47	10.081
280.68	4.367
280.89	11.250
281.10	10.880
281.31	8.650
281.52	12.593
281.73	9.533
281.94	7.909
282.16	6.329
282.37	12.362
282.58	7.285
282.79	11.251
283.00	12.531
283.21	8.710
283.42	5.932
283.63	10.350
283.84	11.751
284.05	9.398
284.26	8.936
284.47	7.422
284.68	6.350
284.89	6.551
285.11	6.836
285.32	3.768
285.53	6.325
285.74	12.161
285.95	10.822
286.16	8.399
286.37	5.664
286.58	5.720
286.79	10.444
287.00	9.428
287.21	6.702
287.42	7.751
287.63	9.729
287.84	9.119
288.05	6.688
288.26	5.340
288.48	11.348
288.69	9.274
288.90	7.299
289.11	10.575
289.32	7.698
289.53	8.138
289.74	5.143
289.95	7.454
290.16	13.818
290.37	7.671
290.58	5.487
290.79	6.941
291.00	8.608
291.21	4.417
291.42	6.349
291.63	6.313
291.84	10.410
292.05	4.907
292.26	6.791
292.47	9.026
292.68	5.342
292.89	6.401
293.10	10.584
293.31	9.019
293.52	5.825
293.73	6.908
293.94	8.168
294.15	5.057
294.36	5.058
294.57	10.274
294.79	7.370
295.00	5.958
295.21	6.106
295.42	6.541
295.63	6.353
295.84	5.314
296.05	4.965
296.26	7.115
296.47	6.460
296.68	7.274
296.89	6.934
297.10	8.543
297.31	5.251
297.52	9.995
297.73	6.335
297.94	8.619
298.15	6.136
298.36	7.681
298.57	4.952
298.78	7.052
298.99	3.940
299.20	5.680
299.41	5.083
299.62	7.387
299.83	3.233
300.04	8.108
300.25	7.984
300.46	6.775
300.67	6.614
300.88	7.180
301.09	4.703
301.30	8.084
301.50	8.879
301.71	7.407
301.92	8.356
302.13	6.078
302.34	6.184
302.55	5.461
302.76	7.015
302.97	7.947
303.18	5.688
303.39	4.993
303.60	4.735
303.81	6.743
304.02	3.605
304.23	7.757
304.44	6.940
304.65	5.189
304.86	6.015
305.07	6.192
305.28	5.614
305.49	7.295
305.70	7.878
305.91	8.434
306.12	5.036
306.33	2.491
306.54	8.144
306.75	9.430
306.96	11.292
307.17	6.106
307.38	5.573
307.58	7.893
307.79	8.428
308.00	8.824
308.21	8.179
308.42	7.537
308.63	8.244
308.84	8.497
309.05	6.761
309.26	8.369
309.47	4.466
309.68	2.394
309.89	8.720
310.10	8.105
310.31	6.542
310.52	5.209
310.73	8.542
310.94	4.847
311.14	6.883
311.35	4.887
311.56	4.650
311.77	4.501
311.98	4.486
312.19	7.554
312.40	5.441
312.61	6.108
312.82	8.280
313.03	4.553
313.24	6.566
313.45	6.282
313.66	5.349
313.86	7.904
314.07	6.224
314.28	3.922
314.49	6.177
314.70	6.322
314.91	5.248
315.12	6.885
315.33	6.789
315.54	5.563
315.75	5.902
315.96	4.745
316.16	4.966
316.37	6.438
316.58	4.278
316.79	5.391
317.00	9.448
317.21	5.609
317.42	3.343
317.63	4.775
317.84	9.856
318.05	8.123
318.25	6.401
318.46	7.358
318.67	5.310
318.88	7.939
319.09	5.441
319.30	5.520
319.51	3.415
319.72	6.871
319.93	8.495
320.13	9.406
320.34	6.950
320.55	6.065
320.76	7.983
320.97	6.219
321.18	8.521
321.39	8.715
321.60	8.026
321.80	10.301
322.01	6.598
322.22	6.464
322.43	6.872
322.64	2.907
322.85	4.221
323.06	5.910
323.27	5.308
323.47	6.416
323.68	9.448
323.89	4.494
324.10	6.169
324.31	5.130
324.52	5.524
324.73	6.623
324.93	4.551
325.14	5.522
325.35	5.440
325.56	5.936
325.77	6.384
325.98	5.370
326.19	7.621
326.39	6.604
326.60	7.233
326.81	6.316
327.02	8.151
327.23	4.658
327.44	7.901
327.64	4.771
327.85	4.326
328.06	5.740
328.27	10.276
328.48	6.062
328.69	6.767
328.90	4.850
329.10	6.569
329.31	1.947
329.52	4.768
329.73	7.143
329.94	5.956
330.15	5.407
330.35	7.596
330.56	5.638
330.77	6.063
330.98	8.798
331.19	8.657
331.39	6.276
331.60	5.756
331.81	6.369
332.02	7.631
332.23	6.419
332.44	5.079
332.64	5.480
332.85	7.682
333.06	6.984
333.27	1.765
333.48	4.949
333.68	5.926
333.89	6.469
334.10	3.115
334.31	7.400
334.52	5.486
334.72	6.667
334.93	7.112
335.14	8.861
335.35	2.758
335.56	5.525
335.76	4.285
335.97	6.524
336.18	4.326
336.39	4.323
336.60	8.730
336.80	4.504
337.01	5.709
337.22	2.778
337.43	7.347
337.64	6.905
337.84	5.250
338.05	2.704
338.26	8.062
338.47	5.645
338.68	2.721
338.88	4.464
339.09	9.281
339.30	4.457
339.51	4.535
339.71	6.381
339.92	4.960
340.13	5.849
340.34	7.152
340.55	4.480
340.75	5.652
340.96	3.202
341.17	5.180
341.38	3.811
341.58	4.950
341.79	4.230
342.00	6.151
342.21	2.399
342.41	4.679
342.62	4.675
342.83	5.692
343.04	0.799
343.24	4.776
343.45	4.080
343.66	4.484
343.87	5.167
344.07	4.268
344.28	4.212
344.49	7.808
344.70	6.843
344.90	4.317
345.11	4.071
345.32	4.389
345.53	3.889
345.73	4.518
345.94	5.127
346.15	5.704
346.36	2.888
346.56	4.307
346.77	6.175
346.98	5.374
347.19	4.536
347.39	4.388
347.60	3.242
347.81	5.569
348.02	6.585
348.22	3.224
348.43	4.494
348.64	5.586
348.84	5.627
349.05	5.317
349.26	6.667
349.47	5.038
349.67	4.341
349.88	5.509
350.09	3.601
350.30	6.845
350.50	3.205
350.71	5.188
350.92	5.600
351.12	4.614
351.33	8.307
351.54	5.944
351.74	4.526
351.95	5.731
352.16	6.276
352.37	7.427
352.57	5.625
352.78	5.095
352.99	5.610
353.19	2.179
353.40	5.115
353.61	8.816
353.82	5.879
354.02	6.593
354.23	4.628
354.44	6.212
354.64	6.640
354.85	3.613
355.06	6.034
355.26	4.494
355.47	5.473
355.68	7.884
355.88	9.298
356.09	5.183
356.30	5.181
356.51	7.071
356.71	5.790
356.92	5.290
357.13	4.316
357.33	6.281
357.54	3.979
357.75	4.522
357.95	7.471
358.16	6.134
358.37	9.046
358.57	6.448
358.78	11.518
358.99	6.344
359.19	5.467
359.40	8.340
359.61	8.052
359.81	9.353
360.02	10.218
360.23	6.305
360.43	8.829
360.64	6.836
360.85	8.563
361.05	5.584
361.26	11.492
361.47	7.953
361.67	12.714
361.88	6.580
362.09	11.020
362.29	8.488
362.50	9.363
362.70	7.826
362.91	12.559
363.12	9.414
363.32	10.325
363.53	12.371
363.74	13.137
363.94	7.293
364.15	14.136
364.36	12.003
364.56	9.396
364.77	12.752
364.98	14.569
365.18	9.216
365.39	13.666
365.59	9.394
365.80	10.750
366.01	13.021
366.21	9.709
366.42	8.829
366.63	12.070
366.83	11.859
367.04	7.075
367.24	15.480
367.45	10.858
367.66	8.597
367.86	11.904
368.07	11.153
368.28	10.901
368.48	11.639
368.69	9.381
368.89	11.466
369.10	12.867
369.31	11.562
369.51	12.530
369.72	11.281
369.92	13.797
370.13	7.847
370.34	12.563
370.54	6.280
370.75	12.845
370.95	10.147
371.16	12.247
371.37	10.212
371.57	10.490
371.78	13.006
371.98	13.706
372.19	12.772
372.40	13.967
372.60	14.678
372.81	13.854
373.01	9.681
373.22	11.092
373.43	9.993
373.63	14.464
373.84	11.632
374.04	12.527
374.25	11.958
374.46	13.377
374.66	9.589
374.87	12.694
375.07	8.761
375.28	12.243
375.48	9.798
375.69	13.963
375.90	10.071
376.10	10.377
376.31	10.889
376.51	9.724
376.72	10.835
376.92	8.566
377.13	12.624
377.34	13.982
377.54	10.073
377.75	13.822
377.95	11.975
378.16	14.058
378.36	12.188
378.57	14.720
378.77	13.092
378.98	13.708
379.19	12.902
379.39	13.579
379.60	10.788
379.80	13.501
380.01	12.536
380.21	10.516
380.42	11.305
380.62	11.538
380.83	13.286
381.04	10.634
381.24	10.276
381.45	11.420
381.65	8.894
381.86	12.145
382.06	11.223
382.27	7.976
382.47	9.739
382.68	15.493
382.88	7.839
383.09	9.410
383.29	9.887
383.50	14.507
383.71	12.296
383.91	11.418
384.12	8.631
384.32	11.796
384.53	9.077
384.73	7.891
384.94	8.736
385.14	10.959
385.35	9.184
385.55	11.381
385.76	6.991
385.96	11.470
386.17	9.665
386.37	12.312
386.58	9.749
386.78	12.436
386.99	7.188
387.19	13.871
387.40	7.991
387.60	14.735
387.81	10.633
388.01	10.621
388.22	11.916
388.42	13.615
388.63	12.518
388.83	13.086
389.04	7.284
389.24	12.142
389.45	10.038
389.65	10.900
389.86	9.771
390.06	8.712
390.27	9.302
390.47	9.430
390.68	9.557
390.88	12.413
391.09	11.802
391.29	11.946
391.50	10.556
391.70	11.769
391.91	9.639
392.11	10.929
392.32	10.793
392.52	13.867
392.73	11.147
392.93	12.271
393.14	11.399
393.34	11.699
393.55	12.071
393.75	11.770
393.95	10.790
394.16	12.710
394.36	12.574
394.57	14.240
394.77	10.538
394.98	11.004
395.18	12.924
395.39	11.124
395.59	9.937
395.80	11.742
396.00	10.819
396.21	13.080
396.41	10.097
396.61	12.886
396.82	10.550
397.02	14.758
397.23	10.677
397.43	11.286
397.64	8.065
397.84	13.879
398.05	7.207
398.25	12.048
398.45	8.658
398.66	14.174
398.86	10.892
399.07	13.864
399.27	10.735
399.48	13.514
399.68	9.061
399.89	11.632
400.09	11.890
400.29	9.890
400.50	9.637
400.70	11.352
400.91	9.372
401.11	10.491
401.32	10.646
401.52	9.546
401.72	9.745
401.93	13.765
402.13	10.127
402.34	10.711
402.54	9.708
402.75	13.176
402.95	7.984
403.15	13.611
403.36	7.991
403.56	10.482
403.77	8.368
403.97	10.021
404.17	8.445
404.38	12.095
404.58	9.641
404.79	12.518
404.99	10.521
405.19	12.019
405.40	10.053
405.60	12.368
405.81	10.377
406.01	12.184
406.21	9.704
406.42	12.559
406.62	11.208
406.83	12.173
407.03	11.931
407.23	9.451
407.44	9.029
407.64	13.318
407.85	11.616
408.05	11.564
408.25	8.187
408.46	12.381
408.66	9.265
408.87	9.945
409.07	8.075
409.27	9.587
409.48	10.248
409.68	11.797
409.88	7.987
410.09	11.802
410.29	9.782
410.50	13.196
410.70	7.836
410.90	10.797
411.11	8.331
411.31	11.732
411.51	12.989
411.72	13.030
411.92	8.999
412.12	10.089
412.33	9.750
412.53	11.681
412.74	8.582
412.94	9.426
413.14	10.261
413.35	11.801
413.55	10.668
413.75	13.301
413.96	9.416
414.16	10.282
414.36	11.850
414.57	10.698
414.77	9.000
414.97	12.939
415.18	9.784
415.38	11.486
415.58	10.792
415.79	11.128
415.99	10.516
416.19	11.845
416.40	11.238
416.60	12.215
416.80	10.429
417.01	13.241
417.21	10.458
417.41	14.258
417.62	13.331
417.82	13.325
418.02	11.624
418.23	14.543
418.43	13.522
418.63	14.857
418.84	13.866
419.04	14.681
419.24	14.794
419.45	16.647
419.65	15.349
419.85	15.322
420.06	14.846
420.26	16.897
420.46	15.558
420.67	16.941
420.87	16.317
421.07	16.319
421.28	15.792
421.48	17.695
421.68	17.114
421.88	17.617
422.09	16.832
422.29	17.241
422.49	16.174
422.70	17.735
422.90	15.769
423.10	17.495
423.31	16.772
423.51	18.241
423.71	16.626
423.91	18.369
424.12	16.960
424.32	17.989
424.52	17.397
424.73	17.732
424.93	17.289
425.13	17.881
425.33	16.383
425.54	17.769
425.74	17.065
425.94	17.809
426.15	17.041
426.35	18.065
426.55	17.701
426.75	18.323
426.96	18.243
427.16	17.440
427.36	17.930
427.57	18.775
427.77	16.462
427.97	18.646
428.17	16.841
428.38	17.543
428.58	14.962
428.78	18.229
428.98	15.040
429.19	17.298
429.39	14.608
429.59	17.450
429.79	15.667
430.00	15.820
430.20	14.241
430.40	17.382
430.60	15.381
430.81	18.169
431.01	16.138
431.21	17.213
431.41	15.121
431.62	17.669
431.82	16.214
432.02	16.840
432.22	15.690
432.43	17.273
432.63	15.390
432.83	17.553
433.03	17.660
433.24	16.370
433.44	17.152
433.64	18.382
433.84	17.122
434.05	19.643
434.25	18.190
434.45	18.149
434.65	18.438
434.85	19.753
435.06	18.100
435.26	19.602
435.46	19.454
435.66	18.373
435.87	18.442
436.07	18.877
436.27	18.963
436.47	19.290
436.67	18.252
436.88	19.756
437.08	17.741
437.28	19.176
437.48	18.526
437.69	18.621
437.89	18.451
438.09	20.033
438.29	17.431
438.49	20.287
438.70	18.259
438.90	19.787
439.10	18.427
439.30	19.827
439.50	18.724
439.71	20.142
439.91	19.384
440.11	20.053
440.31	19.905
440.51	19.542
440.72	18.774
440.92	20.386
441.12	20.472
441.32	20.148
441.52	20.027
441.72	20.925
441.93	20.850
442.13	21.671
442.33	19.828
442.53	20.882
442.73	20.103
442.94	20.621
443.14	19.597
443.34	21.390
443.54	20.526
443.74	20.959
443.94	20.607
444.15	20.930
444.35	19.334
444.55	20.806
444.75	19.723
444.95	21.566
445.15	19.324
445.36	21.839
445.56	20.628
445.76	21.188
445.96	21.025
446.16	19.752
446.36	20.327
446.57	21.140
446.77	20.311
446.97	20.885
447.17	20.542
447.37	20.995
447.57	20.251
447.77	21.379
447.98	20.542
448.18	21.844
448.38	21.431
448.58	20.808
448.78	21.642
448.98	20.713
449.18	21.324
449.39	20.662
449.59	21.403
449.79	21.587
449.99	20.712
450.19	22.429
450.39	20.022
450.59	21.469
450.79	20.613
451.00	21.917
451.20	21.808
451.40	21.182
451.60	20.730
451.80	20.493
452.00	19.351
452.20	21.027
452.40	20.630
452.61	20.537
452.81	19.899
453.01	20.601
453.21	19.794
453.41	21.075
453.61	19.941
453.81	21.246
454.01	19.956
454.21	21.347
454.42	21.692
454.62	21.273
454.82	19.566
455.02	20.243
455.22	20.211
455.42	20.971
455.62	20.735
455.82	20.829
456.02	20.553
456.23	21.285
456.43	20.229
456.63	21.402
456.83	20.409
457.03	22.303
457.23	20.947
457.43	21.004
457.63	20.339
457.83	19.767
458.03	19.789
458.23	21.605
458.43	20.265
458.64	21.205
458.84	20.406
459.04	21.171
459.24	19.654
459.44	20.813
459.64	19.836
459.84	21.122
460.04	20.065
460.24	20.977
460.44	21.255
460.64	21.233
460.84	20.499
461.04	21.081
461.24	20.809
461.45	22.071
461.65	20.823
461.85	20.785
462.05	20.866
462.25	21.907
462.45	21.973
462.65	21.638
462.85	20.804
463.05	21.479
463.25	20.153
463.45	21.049
463.65	20.702
463.85	21.044
464.05	19.288
464.25	21.146
464.45	20.747
464.65	21.345
464.85	19.561
465.05	21.221
465.26	19.406
465.46	21.245
465.66	19.725
465.86	21.275
466.06	20.439
466.26	21.574
466.46	19.362
466.66	21.245
466.86	20.275
467.06	20.414
467.26	20.421
467.46	21.616
467.66	20.000
467.86	21.178
468.06	20.252
468.26	21.097
468.46	20.238
468.66	20.286
468.86	19.384
469.06	20.534
469.26	20.819
469.46	20.996
469.66	20.479
469.86	20.871
470.06	20.391
470.26	21.245
470.46	20.245
470.66	21.321
470.86	20.578
471.06	21.016
471.26	19.862
471.46	21.090
471.66	20.887
471.86	20.589
472.06	20.168
472.26	21.285
472.46	21.427
472.66	20.946
472.86	21.013
473.06	20.898
473.26	20.214
473.46	21.018
473.66	21.181
473.86	21.434
474.06	20.479
474.26	19.355
474.46	19.981
474.66	22.039
474.86	19.683
475.06	20.606
475.26	19.816
475.46	20.610
475.66	20.301
475.86	21.399
476.06	20.862
476.26	21.340
476.46	19.291
476.66	21.365
476.86	20.473
477.06	21.092
477.26	20.220
477.46	22.099
477.65	20.748
477.85	21.682
478.05	20.156
478.25	21.918
478.45	20.147
478.65	21.200
478.85	21.093
479.05	20.523
479.25	21.242
479.45	22.255
479.65	20.515
479.85	21.652
480.05	20.962
480.25	21.187
480.45	20.528
480.65	20.940
480.85	20.663
481.05	21.332
481.25	19.752
481.44	20.821
481.64	20.762
481.84	21.256
482.04	20.518
482.24	21.269
482.44	20.592
482.64	21.259
482.84	20.782
483.04	21.383
483.24	20.726
483.44	20.773
483.64	20.146
483.84	20.813
484.04	20.455
484.23	21.371
484.43	21.068
484.63	21.552
484.83	21.486
485.03	22.035
485.23	21.477
485.43	22.341
485.63	21.764
485.83	22.588
486.03	21.914
486.23	22.204
486.42	21.688
486.62	22.050
486.82	21.460
487.02	20.990
487.22	20.868
487.42	21.755
487.62	20.766
487.82	21.488
488.02	20.456
488.22	21.486
488.41	21.035
488.61	21.343
488.81	21.285
489.01	21.698
489.21	21.187
489.41	21.662
489.61	21.007
489.81	21.798
490.01	21.399
490.20	21.879
490.40	21.032
490.60	21.744
490.80	20.779
491.00	21.288
491.20	21.108
491.40	20.855
491.60	20.432
491.79	21.028
491.99	20.118
492.19	20.893
492.39	20.982
492.59	21.166
492.79	20.515
492.99	21.272
493.19	21.001
493.38	21.012
493.58	20.996
493.78	21.616
493.98	21.188
494.18	21.739
494.38	21.088
494.58	21.550
494.77	21.203
494.97	21.856
495.17	22.130
495.37	21.218
495.57	21.089
495.77	20.803
495.96	20.693
496.16	20.909
496.36	20.490
496.56	21.210
496.76	21.168
496.96	21.449
497.15	20.371
497.35	20.792
497.55	20.044
497.75	20.732
497.95	20.230
498.15	20.772
498.34	20.715
498.54	21.279
498.74	20.707
498.94	20.810
499.14	20.977
499.34	20.957
499.53	20.367
499.73	21.210
499.93	20.880
500.13	20.563
500.33	20.700
500.52	20.689
500.72	20.848
500.92	20.763
501.12	20.598
501.32	20.296
501.52	20.896
501.71	20.673
501.91	20.873
502.11	20.751
502.31	19.838
502.51	20.546
502.70	20.234
502.90	21.048
503.10	20.329
503.30	20.664
503.50	20.266
503.69	20.648
503.89	20.202
504.09	21.363
504.29	19.860
504.48	21.370
504.68	20.679
504.88	21.282
505.08	20.167
505.28	20.527
505.47	19.978
505.67	21.107
505.87	21.060
506.07	21.045
506.27	19.741
506.46	21.178
506.66	20.417
506.86	21.884
507.06	20.686
507.25	21.204
507.45	20.122
507.65	20.993
507.85	19.982
508.04	20.169
508.24	20.756
508.44	20.977
508.64	20.712
508.83	20.838
509.03	20.763
509.23	21.132
509.43	21.200
509.63	20.928
509.82	21.565
510.02	21.217
510.22	20.241
510.42	21.153
510.61	20.260
510.81	21.620
511.01	21.012
511.21	21.695
511.40	20.911
511.60	21.782
511.80	20.940
511.99	21.224
512.19	20.995
512.39	21.676
512.59	20.172
512.78	21.321
512.98	20.610
513.18	20.987
513.38	21.684
513.57	21.063
513.77	20.902
513.97	21.368
514.17	21.052
514.36	21.988
514.56	20.807
514.76	21.056
514.95	20.894
515.15	21.727
515.35	20.372
515.55	22.004
515.74	21.482
515.94	20.553
516.14	20.656
516.33	21.317
516.53	21.122
516.73	22.208
516.93	20.808
517.12	21.183
517.32	20.740
517.52	21.454
517.71	20.842
517.91	21.235
518.11	21.286
518.30	21.365
518.50	20.905
518.70	20.968
518.90	20.672
519.09	21.905
519.29	21.802
519.49	21.563
519.68	21.454
519.88	21.563
520.08	21.025
520.27	21.972
520.47	22.147
520.67	21.853
520.86	21.591
521.06	22.386
521.26	21.540
521.45	21.915
521.65	20.867
521.85	22.089
522.04	21.169
522.24	21.713
522.44	21.346
522.63	21.592
522.83	20.550
523.03	21.622
523.22	21.306
523.42	20.773
523.62	21.099
523.81	21.863
524.01	21.352
524.21	21.930
524.40	20.776
524.60	21.415
524.80	20.025
524.99	21.180
525.19	20.459
525.39	21.910
525.58	21.240
525.78	21.611
525.98	20.718
526.17	22.046
526.37	22.062
526.57	21.663
526.76	21.158
526.96	21.611
527.15	20.966
527.35	21.377
527.55	21.245
527.74	22.091
527.94	21.531
528.14	21.395
528.33	21.197
528.53	21.504
528.72	21.252
528.92	21.668
529.12	21.465
529.31	21.911
529.51	21.530
529.71	22.021
529.90	21.842
530.10	22.123
530.29	22.107
530.49	22.561
530.69	22.171
530.88	22.915
531.08	22.000
531.28	22.650
531.47	22.564
531.67	22.122
531.86	22.169
532.06	22.577
532.26	21.809
532.45	22.092
532.65	22.024
532.84	21.540
533.04	21.239
533.24	21.710
533.43	21.200
533.63	21.682
533.82	21.581
534.02	21.851
534.22	21.991
534.41	22.236
534.61	21.869
534.80	22.219
535.00	22.089
535.19	22.631
535.39	21.991
535.59	22.620
535.78	21.977
535.98	21.691
536.17	21.779
536.37	22.048
536.57	21.701
536.76	21.536
536.96	21.225
537.15	21.782
537.35	21.945
537.54	22.329
537.74	22.308
537.93	22.659
538.13	22.177
538.33	22.430
538.52	22.671
538.72	22.547
538.91	21.940
539.11	22.067
539.30	21.179
539.50	22.194
539.70	21.656
539.89	22.426
540.09	21.419
540.28	22.392
540.48	21.238
540.67	21.356
540.87	21.521
541.06	20.941
541.26	21.087
541.45	21.977
541.65	21.648
541.85	22.340
542.04	21.204
542.24	22.023
542.43	21.655
542.63	22.157
542.82	22.080
543.02	22.555
543.21	22.533
543.41	22.877
543.60	22.528
543.80	22.485
543.99	21.862
544.19	22.290
544.38	22.562
544.58	22.400
544.77	22.554
544.97	22.407
545.16	22.834
545.36	22.772
545.56	22.774
545.75	22.390
545.95	21.804
546.14	22.099
546.34	22.131
546.53	22.375
546.73	22.420
546.92	22.133
547.12	21.814
547.31	22.177
547.51	21.386
547.70	22.858
547.90	22.834
548.09	22.278
548.29	22.890
548.48	23.329
548.68	22.572
548.87	23.543
549.07	22.574
549.26	23.228
549.46	22.727
549.65	23.023
549.84	22.609
550.04	22.758
550.23	21.917
550.43	22.830
550.62	22.367
550.82	22.539
551.01	22.285
551.21	22.125
551.40	23.097
551.60	22.868
551.79	22.482
551.99	22.849
552.18	22.481
552.38	21.828
552.57	22.001
552.77	22.144
552.96	21.462
553.16	22.381
553.35	21.346
553.54	22.423
553.74	23.001
553.93	22.768
554.13	22.840
554.32	23.609
554.52	22.976
554.71	23.398
554.91	23.689
555.10	24.149
555.29	21.299
555.49	23.789
555.68	23.354
555.88	23.703
556.07	21.647
556.27	22.953
556.46	22.317
556.66	22.656
556.85	22.619
557.04	22.293
557.24	22.791
557.43	23.171
557.63	22.979
557.82	23.816
558.02	22.669
558.21	23.222
558.40	22.535
558.60	23.307
558.79	22.473
558.99	23.261
559.18	22.169
559.38	23.482
559.57	23.148
559.76	23.717
559.96	23.304
560.15	22.292
560.35	22.996
560.54	24.199
560.73	22.942
560.93	23.570
561.12	22.754
561.32	23.325
561.51	22.975
561.70	23.300
561.90	22.643
562.09	24.098
562.29	23.424
562.48	23.707
562.67	23.274
562.87	22.884
563.06	22.514
563.26	24.409
563.45	23.364
563.64	24.286
563.84	23.609
564.03	24.533
564.23	23.433
564.42	23.826
564.61	22.136
564.81	23.739
565.00	23.817
565.20	23.528
565.39	23.167
565.58	24.081
565.78	23.606
565.97	24.060
566.16	24.109
566.36	24.933
566.55	24.023
566.74	23.784
566.94	23.375
567.13	24.428
567.33	24.031
567.52	24.582
567.71	24.199
567.91	24.514
568.10	24.035
568.29	24.171
568.49	23.818
568.68	23.831
568.87	24.252
569.07	24.202
569.26	23.772
569.45	24.584
569.65	23.924
569.84	24.082
570.04	24.327
570.23	24.599
570.42	24.374
570.62	25.612
570.81	24.349
571.00	25.527
571.20	24.262
571.39	24.047
571.58	24.776
571.78	24.968
571.97	24.613
572.16	24.764
572.36	24.104
572.55	25.394
572.74	25.136
572.94	24.153
573.13	24.666
573.32	25.340
573.51	24.630
573.71	24.313
573.90	24.000
574.09	25.774
574.29	24.873
574.48	25.264
574.67	25.434
574.87	24.460
575.06	25.068
575.25	24.819
575.45	24.038
575.64	25.167
575.83	23.556
576.03	26.224
576.22	24.005
576.41	24.598
576.60	24.009
576.80	24.483
576.99	23.697
577.18	25.647
577.38	25.562
577.57	24.784
577.76	24.930
577.95	25.307
578.15	25.054
578.34	25.984
578.53	26.389
578.73	25.309
578.92	24.177
579.11	26.138
579.30	24.530
579.50	26.410
579.69	24.821
579.88	25.733
580.08	24.453
580.27	25.337
580.46	24.906
580.65	25.792
580.85	24.927
581.04	24.747
581.23	25.175
581.42	26.221
581.62	24.354
581.81	25.927
582.00	24.065
582.19	25.144
582.39	25.009
582.58	25.022
582.77	24.189
582.96	25.276
583.16	24.774
583.35	25.632
583.54	25.760
583.73	25.412
583.93	25.372
584.12	24.361
584.31	24.494
584.50	24.560
584.70	24.325
584.89	25.929
585.08	25.831
585.27	26.008
585.47	25.369
585.66	25.118
585.85	24.830
586.04	25.887
586.24	24.602
586.43	24.031
586.62	23.804
586.81	26.306
587.00	24.540
587.20	25.122
587.39	24.377
587.58	27.667
587.77	24.366
587.97	25.184
588.16	24.733
588.35	26.026
588.54	23.488
588.73	24.973
588.93	25.752
589.12	25.000
589.31	24.158
589.50	26.313
589.69	24.867
589.89	25.649
590.08	23.814
590.27	24.177
590.46	24.145
590.65	25.605
590.85	23.914
591.04	26.046
591.23	25.337
591.42	26.104
591.61	25.305
591.81	26.300
592.00	25.049
592.19	26.088
592.38	25.354
592.57	26.305
592.77	26.592
592.96	24.922
593.15	24.452
593.34	24.937
593.53	25.277
593.72	25.852
593.92	25.093
594.11	26.415
594.30	25.174
594.49	26.153
594.68	23.654
594.87	26.756
595.07	25.592
595.26	24.947
595.45	25.758
595.64	25.941
595.83	25.690
596.02	26.436
596.22	25.844
596.41	25.954
596.60	25.185
596.79	26.175
596.98	25.177
597.17	27.676
597.37	26.230
597.56	26.688
597.75	25.643
597.94	26.679
598.13	27.082
598.32	26.263
598.51	25.670
598.71	27.443
598.90	25.640
599.09	26.943
599.28	25.750
599.47	25.804
599.66	26.241
599.85	26.649
600.05	25.588
600.24	26.577
600.43	26.645
600.62	26.789
600.81	26.640
601.00	26.711
601.19	23.583
601.38	27.306
601.58	25.796
601.77	26.194
601.96	25.416
602.15	25.927
602.34	26.209
602.53	27.609
602.72	25.525
602.91	26.132
603.10	25.510
603.30	25.879
603.49	25.733
603.68	27.150
603.87	25.181
604.06	25.850
604.25	26.803
604.44	26.778
604.63	25.021
604.82	26.347
605.01	26.795
605.21	26.550
605.40	26.310
605.59	27.054
605.78	26.069
605.97	26.962
606.16	26.110
606.35	26.533
606.54	26.182
606.73	26.523
606.92	25.401
607.11	27.383
607.30	26.935
607.50	27.176
607.69	25.653
607.88	26.583
608.07	25.972
608.26	26.441
608.45	26.280
608.64	27.266
608.83	26.406
609.02	27.473
609.21	25.131
609.40	26.575
609.59	25.362
609.78	26.494
609.97	25.044
610.16	27.278
610.35	25.876
610.55	26.418
610.74	26.786
610.93	26.840
611.12	26.481
611.31	27.084
611.50	25.752
611.69	26.864
611.88	25.763
612.07	26.616
612.26	25.064
612.45	27.771
612.64	25.058
612.83	27.006
613.02	25.379
613.21	26.681
613.40	25.426
613.59	25.856
613.78	23.772
613.97	27.010
614.16	24.742
614.35	26.901
614.54	25.833
614.73	25.823
614.92	24.948
615.11	23.959
615.30	23.769
615.49	25.012
615.68	24.003
615.87	24.578
616.07	24.077
616.26	25.339
616.45	23.073
616.64	25.473
616.83	25.170
617.02	24.442
617.21	24.792
617.40	24.805
617.59	23.556
617.78	25.064
617.97	24.010
618.16	24.779
618.35	24.140
618.54	24.046
618.73	22.452
618.92	25.385
619.11	24.552
619.30	26.451
619.49	23.891
619.68	24.397
619.86	23.707
620.05	24.564
620.24	22.377
620.43	25.873
620.62	22.124
620.81	25.041
621.00	23.889
621.19	24.848
621.38	24.001
621.57	23.432
621.76	23.857
621.95	26.682
622.14	23.239
622.33	26.509
622.52	22.492
622.71	24.211
622.90	23.406
623.09	24.324
623.28	22.650
623.47	25.773
623.66	23.457
623.85	25.651
624.04	24.298
624.23	24.643
624.42	25.012
624.61	24.019
624.80	20.956
624.99	25.057
625.18	22.743
625.36	24.052
625.55	24.868
625.74	24.354
625.93	21.722
626.12	24.428
626.31	23.502
626.50	24.652
626.69	23.824
626.88	24.725
627.07	23.997
627.26	23.824
627.45	23.265
627.64	25.871
627.83	22.954
628.02	24.048
628.20	24.623
628.39	25.236
628.58	24.502
628.77	26.253
628.96	23.537
629.15	24.794
629.34	24.135
629.53	24.475
629.72	24.123
629.91	26.482
630.10	23.855
630.29	24.353
630.47	23.355
630.66	24.913
630.85	23.185
631.04	24.145
631.23	23.202
631.42	23.467
631.61	22.632
631.80	25.989
631.99	24.190
632.18	22.378
632.36	21.814
632.55	23.886
632.74	23.317
632.93	25.461
633.12	22.624
633.31	22.667
633.50	21.183
633.69	24.196
633.88	21.707
634.06	24.257
634.25	22.901
634.44	23.514
634.63	23.811
634.82	24.783
635.01	22.490
635.20	24.784
635.39	23.840
635.57	24.852
635.76	23.252
635.95	24.571
636.14	21.336
636.33	24.516
636.52	20.456
636.71	24.797
636.89	22.440
637.08	25.334
637.27	22.112
637.46	23.850
637.65	22.924
637.84	22.717
638.03	22.563
638.21	23.917
638.40	21.806
638.59	24.074
638.78	21.861
638.97	22.108
639.16	23.949
639.34	23.208
639.53	20.271
639.72	22.876
639.91	20.644
640.10	23.298
640.29	21.306
640.47	23.012
640.66	23.951
640.85	23.759
641.04	19.697
641.23	22.257
641.42	19.899
641.60	23.728
641.79	21.643
641.98	21.461
642.17	21.627
642.36	24.370
642.54	20.192
642.73	22.235
642.92	20.106
643.11	22.574
643.30	20.508
643.49	21.915
643.67	18.596
643.86	23.389
644.05	19.674
644.24	22.131
644.43	19.922
644.61	22.471
644.80	19.916
644.99	20.740
645.18	21.114
645.37	22.554
645.55	19.812
645.74	21.751
645.93	21.184
646.12	22.925
646.31	19.959
646.49	21.475
646.68	21.157
646.87	21.610
647.06	20.312
647.24	21.705
647.43	20.514
647.62	22.746
647.81	17.767
648.00	22.526
648.18	18.839
648.37	21.793
648.56	19.036
648.75	22.024
648.93	18.559
649.12	22.087
649.31	21.746
649.50	21.506
649.68	18.953
649.87	20.485
650.06	18.058
650.25	21.095
650.43	20.817
650.62	22.610
650.81	19.208
651.00	22.626
651.18	20.024
651.37	21.855
651.56	21.445
651.75	22.503
651.93	20.852
652.12	21.942
652.31	19.608
652.50	20.933
652.68	20.354
652.87	21.305
653.06	22.320
653.25	23.638
653.43	19.586
653.62	21.200
653.81	19.670
654.00	22.555
654.18	18.641
654.37	21.812
654.56	20.798
654.74	20.892
654.93	18.736
655.12	20.248
655.31	19.249
655.49	21.492
655.68	17.330
655.87	20.077
656.05	18.020
656.24	19.375
656.43	15.069
656.62	22.197
656.80	18.703
656.99	20.276
657.18	15.024
657.36	19.175
657.55	21.220
657.74	19.931
657.93	20.642
658.11	23.810
658.30	19.968
658.49	20.295
658.67	18.461
658.86	20.610
659.05	20.032
659.23	20.346
659.42	20.456
659.61	24.444
659.79	20.491
659.98	19.981
660.17	20.421
660.35	21.940
660.54	20.033
660.73	22.907
660.91	22.121
661.10	22.085
661.29	19.602
661.47	21.806
661.66	20.232
661.85	20.757
662.03	18.800
662.22	17.934
662.41	17.333
662.59	19.529
662.78	16.130
662.97	19.255
663.15	16.763
663.34	18.369
663.53	13.865
663.71	18.771
663.90	15.184
664.09	18.100
664.27	16.639
664.46	17.719
664.65	15.259
664.83	15.835
665.02	13.658
665.21	14.854
665.39	12.443
665.58	16.847
665.77	15.064
665.95	15.747
666.14	12.419
666.32	14.733
666.51	14.568
666.70	15.144
666.88	14.568
667.07	14.979
667.26	13.124
667.44	14.522
667.63	13.412
667.81	13.254
668.00	14.151
668.19	15.993
668.37	13.802
668.56	16.885
668.75	12.103
668.93	17.238
669.12	12.838
669.30	17.606
669.49	13.566
669.68	15.677
669.86	15.643
670.05	12.899
670.23	11.759
670.42	13.045
670.61	11.904
670.79	16.690
670.98	15.240
671.16	15.965
671.35	13.888
671.54	15.498
671.72	13.263
671.91	14.705
672.09	12.472
672.28	16.416
672.46	13.191
672.65	15.227
672.84	14.626
673.02	16.060
673.21	10.735
673.39	13.333
673.58	13.957
673.77	12.181
673.95	11.751
674.14	15.886
674.32	12.751
674.51	15.099
674.69	12.114
674.88	12.962
675.07	11.475
675.25	16.581
675.44	10.767
675.62	13.780
675.81	11.691
675.99	17.252
676.18	14.972
676.36	11.695
676.55	8.552
676.74	14.004
676.92	16.243
677.11	15.265
677.29	11.758
677.48	15.169
677.66	13.757
677.85	14.460
678.03	12.041
678.22	13.947
678.40	13.460
678.59	14.297
678.78	11.840
678.96	14.360
679.15	13.112
679.33	16.349
679.52	15.657
679.70	16.280
679.89	14.634
680.07	16.109
680.26	14.195
680.44	17.429
680.63	15.390
680.81	16.473
681.00	11.280
681.18	18.411
681.37	14.477
681.55	19.387
681.74	16.903
681.92	17.692
682.11	15.165
682.29	17.359
682.48	15.655
682.66	17.273
682.85	15.310
683.03	17.419
683.22	16.209
683.40	19.338
683.59	16.295
683.77	14.322
683.96	13.668
684.14	18.881
684.33	12.481
684.51	20.989
684.70	14.951
684.88	20.071
685.07	17.661
685.25	18.274
685.44	15.163
685.62	18.088
685.81	13.899
685.99	17.053
686.18	12.986
686.36	16.916
686.55	12.944
686.73	17.500
686.92	17.324
687.10	20.308
687.29	13.964
687.47	17.663
687.65	16.613
687.84	15.837
688.02	19.976
688.21	20.000
688.39	16.019
688.58	20.608
688.76	15.800
688.95	18.708
689.13	14.599
689.32	20.917
689.50	19.192
689.68	19.178
689.87	18.925
690.05	18.818
690.24	19.269
690.42	20.680
690.61	18.276
690.79	19.850
690.98	15.672
691.16	19.966
691.34	18.385
691.53	20.321
691.71	16.544
691.90	17.857
692.08	15.066
692.27	20.885
692.45	21.185
692.63	17.488
692.82	20.750
693.00	20.509
693.19	15.888
693.37	21.036
693.56	20.296
693.74	22.775
693.92	20.677
694.11	21.837
694.29	16.999
694.48	23.947
694.66	20.880
694.84	21.261
695.03	18.090
695.21	25.759
695.40	23.962
695.58	24.244
695.76	18.086
695.95	22.348
696.13	18.943
696.32	22.837
696.50	28.253
696.68	24.665
696.87	19.421
697.05	25.892
697.24	23.155
697.42	25.671
697.60	21.581
697.79	25.032
697.97	24.260
698.16	29.049
698.34	23.706
698.52	28.965
698.71	26.594
698.89	26.972
699.07	26.326
699.26	28.359
699.44	27.587
699.63	30.983
699.81	26.686
699.99	28.864
700.18	28.370
700.36	29.378
700.54	27.250
700.73	29.934
700.91	28.743
701.09	28.234
701.28	25.603
701.46	28.894
701.64	25.756
701.83	27.741
702.01	23.104
702.20	28.224
702.38	25.760
702.56	26.257
702.75	22.956
702.93	26.585
703.11	24.629
703.30	28.242
703.48	26.247
703.66	27.196
703.85	26.624
704.03	31.063
704.21	26.193
704.40	25.426
704.58	23.779
704.76	28.696
704.95	24.662
705.13	28.105
705.31	24.802
705.50	27.531
705.68	25.110
705.86	28.422
706.04	25.796
706.23	28.356
706.41	26.927
706.59	27.639
706.78	23.932
706.96	26.796
707.14	28.228
707.33	30.286
707.51	26.313
707.69	27.091
707.88	25.992
708.06	29.473
708.24	25.591
708.42	32.218
708.61	27.273
708.79	25.041
708.97	28.013
709.16	28.953
709.34	26.561
709.52	27.030
709.71	28.098
709.89	28.358
710.07	26.151
710.25	29.892
710.44	27.413
710.62	30.021
710.80	28.519
710.98	33.501
711.17	28.550
711.35	28.711
711.53	28.404
711.72	31.650
711.90	30.549
712.08	29.889
712.26	28.586
712.45	30.754
712.63	30.060
712.81	30.636
712.99	30.283
713.18	30.218
713.36	29.133
713.54	30.289
713.72	28.429
713.91	29.672
714.09	28.075
714.27	30.442
714.45	31.009
714.64	33.299
714.82	28.221
715.00	30.158
715.18	28.158
715.37	31.741
715.55	28.498
715.73	29.811
715.91	29.520
716.10	32.516
716.28	27.854
716.46	31.645
716.64	26.372
716.83	27.778
717.01	27.729
717.19	29.242
717.37	27.249
717.55	31.224
717.74	27.880
717.92	29.520
718.10	25.256
718.28	30.786
718.47	24.606
718.65	30.243
718.83	27.513
719.01	29.415
719.19	25.465
719.38	27.306
719.56	22.644
719.74	29.757
719.92	23.448
720.10	25.796
720.29	25.226
720.47	27.057
720.65	26.568
720.83	27.018
721.01	25.099
721.20	26.554
721.38	23.838
721.56	27.432
721.74	27.140
721.92	27.149
722.11	22.683
722.29	29.640
722.47	26.290
722.65	29.707
722.83	27.621
723.01	28.317
723.20	26.100
723.38	26.111
723.56	24.964
723.74	30.814
723.92	24.420
724.10	25.887
724.29	24.380
724.47	30.963
724.65	23.813
724.83	26.247
725.01	22.611
725.19	29.613
725.38	27.349
725.56	24.907
725.74	26.058
725.92	30.395
726.10	19.488
726.28	28.984
726.46	28.328
726.65	25.211
726.83	24.834
727.01	23.768
727.19	27.632
727.37	33.333
727.55	26.671
727.73	28.867
727.92	27.014
728.10	28.313
728.28	23.182
728.46	29.744
728.64	24.899
728.82	30.740
729.00	27.547
729.19	28.082
729.37	28.515
729.55	30.064
729.73	23.606
729.91	31.616
730.09	32.326
730.27	31.853
730.45	26.507
730.63	27.392
730.82	25.648
731.00	32.692
731.18	23.946
731.36	30.603
731.54	25.984
731.72	31.622
731.90	26.271
732.08	30.833
732.26	26.133
732.45	32.111
732.63	33.311
732.81	35.264
732.99	27.233
733.17	33.588
733.35	25.992
733.53	31.879
733.71	28.580
733.89	36.540
734.07	30.534
734.25	35.393
734.44	34.025
734.62	33.978
734.80	30.587
734.98	33.290
735.16	28.295
735.34	31.414
735.52	30.656
735.70	31.590
735.88	31.610
736.06	33.160
736.24	37.408
736.42	30.751
736.60	31.740
736.78	34.819
736.97	28.994
737.15	36.768
737.33	25.597
737.51	34.821
737.69	30.353
737.87	30.721
738.05	31.275
738.23	34.442
738.41	30.794
738.59	33.306
738.77	31.481
738.95	37.113
739.13	32.853
739.31	33.858
739.49	34.848
739.67	36.876
739.85	32.713
740.03	28.337
740.21	30.799
740.39	34.848
740.57	32.666
740.75	36.009
740.93	29.976
741.11	38.787
741.30	34.170
741.48	36.468
741.66	36.037
741.84	34.635
742.02	30.000
742.20	34.991
742.38	34.511
742.56	35.439
742.74	35.257
742.92	35.909
743.10	33.061
743.28	34.783
743.46	31.180
743.64	31.540
743.82	34.995
744.00	36.503
744.18	33.850
744.36	36.267
744.54	31.621
744.72	40.956
744.90	36.692
745.08	34.846
745.26	33.659
745.44	33.591
745.62	30.413
745.80	37.668
745.98	29.971
746.16	36.426
746.34	33.575
746.52	36.885
746.70	28.950
746.87	37.641
747.05	33.191
747.23	34.867
747.41	32.766
747.59	37.984
747.77	31.827
747.95	35.839
748.13	36.505
748.31	35.401
748.49	39.357
748.67	36.909
748.85	37.216
749.03	35.000
749.21	35.225
749.39	42.427
749.57	33.431
749.75	32.649
749.93	36.546
750.11	32.798
750.29	36.156
750.47	32.096
750.65	35.805
750.83	36.583
751.01	29.347
751.18	38.930
751.36	34.053
751.54	35.533
751.72	36.464
751.90	35.853
752.08	29.096
752.26	38.729
752.44	38.433
752.62	30.396
752.80	30.698
752.98	38.643
753.16	38.300
753.34	32.398
753.52	36.021
753.69	34.924
753.87	36.555
754.05	34.659
754.23	30.698
754.41	36.471
754.59	37.537
754.77	34.434
754.95	33.913
755.13	41.441
755.31	38.360
755.49	36.877
755.66	31.722
755.84	32.752
756.02	33.267
756.20	37.547
756.38	31.942
756.56	33.463
756.74	31.873
756.92	34.725
757.10	35.282
757.28	39.698
757.45	36.402
757.63	35.275
757.81	33.629
757.99	36.760
758.17	39.659
758.35	31.654
758.53	38.710
758.71	35.851
758.88	34.645
759.06	32.777
759.24	26.266
759.42	31.176
759.60	29.371
759.78	31.162
759.96	18.725
760.13	29.503
760.31	22.650
760.49	27.848
760.67	20.904
760.85	25.430
761.03	20.423
761.21	22.317
761.38	16.070
761.56	21.269
761.74	20.038
761.92	26.408
762.10	15.098
762.28	24.220
762.46	17.037
762.63	22.049
762.81	21.152
762.99	25.127
763.17	17.381
763.35	21.652
763.53	19.821
763.70	24.392
763.88	19.204
764.06	23.407
764.24	17.940
764.42	24.985
764.60	22.861
764.77	27.311
764.95	21.068
765.13	28.048
765.31	21.586
765.49	27.401
765.66	25.895
765.84	28.422
766.02	30.438
766.20	28.317
766.38	25.745
766.56	30.272
766.73	29.793
766.91	31.234
767.09	25.806
767.27	29.852
767.45	31.574
767.62	34.412
767.80	27.902
767.98	37.140
768.16	28.453
768.33	36.809
768.51	36.737
768.69	35.853
768.87	34.624
769.05	34.579
769.22	37.376
769.40	42.195
769.58	27.950
769.76	42.735
769.94	28.537
770.11	36.647
770.29	37.935
770.47	41.574
770.65	36.199
770.82	38.300
771.00	37.209
771.18	42.439
771.36	33.854
771.53	31.566
771.71	28.947
771.89	31.837
772.07	35.109
772.25	39.365
772.42	31.890
772.60	45.668
772.78	31.205
772.96	46.360
773.13	36.264
773.31	38.441
773.49	31.785
773.67	36.447
773.84	34.870
774.02	32.889
774.20	32.701
774.37	38.387
774.55	34.101
774.73	34.735
774.91	32.473
775.08	42.547
775.26	39.912
775.44	35.894
775.62	37.854
775.79	34.433
775.97	35.846
776.15	38.352
776.32	31.125
776.50	40.930
776.68	33.719
776.86	34.472
777.03	31.487
777.21	34.537
777.39	36.139
777.56	38.967
777.74	33.283
777.92	37.830
778.10	34.566
778.27	42.016
778.45	35.616
778.63	40.442
778.80	37.261
778.98	37.090
779.16	37.018
779.34	30.044
779.51	39.724
779.69	39.570
779.87	42.089
780.04	37.183
780.22	30.147
780.40	30.028
780.57	38.278
780.75	40.642
780.93	36.892
781.10	43.937
781.28	36.244
781.46	32.562
781.63	34.711
781.81	34.663
781.99	29.770
782.16	33.113
782.34	30.303
782.52	35.749
782.69	32.335
782.87	31.419
783.05	33.841
783.22	33.214
783.40	35.331
783.58	41.248
783.75	31.787
783.93	44.535
784.11	37.434
784.28	36.678
784.46	32.451
784.64	36.607
784.81	28.315
784.99	36.071
785.17	37.087
785.34	36.299
785.52	24.762
785.69	34.838
785.87	39.665
786.05	41.250
786.22	40.755
786.40	37.409
786.58	39.597
786.75	36.229
786.93	30.986
787.11	39.336
787.28	43.643
787.46	31.408
787.63	35.686
787.81	32.969
787.99	33.919
788.16	37.541
788.34	29.100
788.51	32.412
788.69	24.212
788.87	29.491
789.04	33.536
789.22	28.447
789.39	27.018
789.57	37.688
789.75	25.620
789.92	35.251
790.10	28.981
790.27	31.857
790.45	26.540
790.63	35.247
790.80	28.803
790.98	29.225
791.15	33.075
791.33	31.485
791.51	35.125
791.68	31.239
791.86	29.565
792.03	26.576
792.21	30.882
792.39	38.652
792.56	37.522
792.74	36.862
792.91	36.481
793.09	31.810
793.26	29.140
793.44	30.550
793.62	38.583
793.79	29.622
793.97	34.308
794.14	33.849
794.32	37.751
794.49	33.925
794.67	30.894
794.84	22.642
795.02	35.539
795.20	27.977
795.37	39.600
795.55	31.284
795.72	31.157
795.90	35.283
796.07	33.929
796.25	34.358
796.42	32.692
796.60	35.058
796.77	34.698
796.95	36.528
797.13	33.913
797.30	40.323
797.48	22.570
797.65	31.461
797.83	29.663
798.00	21.455
798.18	22.243
798.35	31.724
798.53	27.573
798.70	25.487
798.88	37.897
799.05	30.303
799.23	21.858
799.40	29.181
799.58	37.391
799.75	36.126
799.93	18.356
800.10	35.338
800.28	26.915
800.45	40.241
800.63	26.996
800.80	39.928
800.98	30.624
801.15	29.783
801.33	31.783
801.50	29.391
801.68	27.174
801.85	32.432
802.03	31.663
802.20	38.384
802.38	41.948
802.55	31.535
802.73	35.067
802.90	25.051
803.08	30.297
803.25	35.872
803.43	36.270
803.60	32.230
803.78	33.988
803.95	29.870
804.13	41.031
804.30	29.754
804.48	30.131
804.65	33.933
804.83	31.388
805.00	39.514
805.17	42.857
805.35	30.203
805.52	27.291
805.70	28.423
805.87	27.481
806.05	36.546
806.22	32.292
806.40	33.837
806.57	37.597
806.75	38.934
806.92	32.716
807.09	37.684
807.27	33.469
807.44	31.238
807.62	34.221
807.79	39.065
807.97	27.800
808.14	33.056
808.31	30.921
808.49	36.170
808.66	24.198
808.84	30.584
809.01	34.023
809.19	24.883
809.36	46.973
809.53	25.858
809.71	32.906
809.88	32.426
810.06	34.573
810.23	32.294
810.41	42.348
810.58	50.485
810.75	26.579
810.93	30.365
811.10	20.742
811.28	22.022
811.45	36.591
811.62	29.412
811.80	29.146
811.97	35.678
812.15	34.852
812.32	25.131
812.49	35.381
812.67	35.561
812.84	24.279
813.02	42.063
813.19	35.835
813.36	39.227
813.54	28.463
813.71	30.928
813.89	32.642
814.06	31.078
814.23	30.588
814.41	23.990
814.58	31.129
814.75	35.695
814.93	34.653
815.10	29.443
815.28	26.368
815.45	24.122
815.62	30.172
815.80	31.871
815.97	17.250
816.14	22.281
816.32	31.525
816.49	16.623
816.66	25.067
816.84	28.929
817.01	28.942
817.18	22.454
817.36	31.105
817.53	28.155
817.71	20.823
817.88	25.000
818.05	26.185
818.23	26.277
818.40	21.333
818.57	22.551
818.75	29.474
818.92	27.318
819.09	22.418
819.27	15.250
819.44	21.615
819.61	21.247
819.79	25.280
819.96	12.557
820.13	26.104
820.31	33.100
820.48	37.475
820.65	24.037
820.82	27.495
821.00	28.130
821.17	17.411
821.34	25.893
821.52	16.084
821.69	19.630
821.86	17.420
822.04	22.048
822.21	20.342
822.38	20.878
822.56	18.913
822.73	25.152
822.90	21.181
823.07	25.499
823.25	24.787
823.42	26.250
823.59	26.709
823.77	26.360
823.94	24.918
824.11	26.423
824.29	21.440
824.46	26.841
824.63	25.161
824.80	24.061
824.98	21.322
825.15	25.142
825.32	19.252
825.49	21.824
825.67	21.873
825.84	20.932
826.01	21.667
826.19	25.500
826.36	19.259
826.53	22.520
826.70	20.096
826.88	20.664
827.05	18.293
827.22	18.330
827.39	22.623
827.57	17.352
827.74	17.980
827.91	25.457
828.08	16.927
828.26	25.179
828.43	14.703
828.60	21.671
828.77	23.008
828.95	19.247
829.12	19.869
829.29	16.901
829.46	19.333
829.64	20.701
829.81	19.183
829.98	23.134
830.15	19.552
830.32	18.635
830.50	16.279
830.67	20.033
830.84	16.667
831.01	28.496
831.19	26.481
831.36	26.295
831.53	21.076
831.70	34.253
831.87	17.797
832.05	30.607
832.22	40.000
832.39	24.823
832.56	22.955
832.74	22.811
832.91	23.940
833.08	29.487
833.25	23.399
833.42	28.392
833.60	23.818
833.77	18.229
833.94	18.371
834.11	21.984
834.28	17.450
834.45	22.628
834.63	21.194
834.80	23.804
834.97	24.212
835.14	21.913
835.31	16.724
835.49	18.129
835.66	18.750
835.83	19.206
836.00	22.138
836.17	22.293
836.34	17.570
836.52	17.025
836.69	24.647
836.86	23.022
837.03	23.352
837.20	22.407
837.37	24.213
837.55	23.958
837.72	24.829
837.89	37.374
838.06	36.857
838.23	41.667
838.40	26.807
838.58	32.277
838.75	19.472
838.92	37.152
839.09	34.708
839.26	51.485
839.43	46.758
839.60	36.637
839.78	39.935
839.95	35.422
840.12	41.297
840.29	36.949
840.46	30.982
840.63	34.169
840.80	34.628
840.98	41.346
841.15	42.500
841.32	36.061
841.49	27.124
841.66	38.481
841.83	35.714
842.00	24.585
842.17	37.500
842.34	23.311
842.52	44.667
842.69	25.424
842.86	31.395
843.03	45.756
843.20	37.931
843.37	36.900
843.54	41.199
843.71	38.393
843.88	38.667
844.06	55.200
844.23	30.952
844.40	51.111
844.57	44.751
844.74	61.585
844.91	46.860
845.08	80.682
845.25	50.725
845.42	31.183
845.59	51.579
845.76	49.231
845.94	66.832
846.11	45.205
846.28	54.762
846.45	77.528
846.62	81.169
846.79	40.411
846.96	54.938
847.13	62.791
847.30	35.172
847.47	59.712
847.64	76.744
847.81	47.458
847.98	40.704
848.15	41.606
848.32	83.648
848.50	84.431
848.67	67.816
848.84	36.301
849.01	35.196
849.18	52.062
849.35	65.625
849.52	44.828
849.69	82.781
849.86	62.585
850.03	61.194
850.20	74.269
850.37	60.504
850.54	54.190
850.71	58.940
850.88	47.486
851.05	55.932
851.22	55.618
851.39	63.063
851.56	42.857
851.73	36.478
851.90	48.447
852.07	91.729
852.24	76.974
852.41	9.524
852.58	59.859
852.75	45.977
852.92	31.220
853.09	71.094
853.26	49.735
853.43	84.906
853.60	53.371
853.77	93.671
853.94	72.263
854.11	48.951
854.28	54.400
854.45	23.438
854.62	72.589
854.79	99.346
854.96	85.600
855.13	66.082
855.30	67.347
855.47	95.690
855.64	72.180
855.81	58.602
855.98	30.159
856.15	67.568
856.32	30.189
856.49	64.341
856.66	51.049
856.83	90.152
857.00	41.830
857.17	52.308
857.34	11.579
857.51	71.942
857.68	48.649
857.85	45.455
858.02	46.667
858.19	59.459
858.36	32.727
858.53	46.452
858.70	57.485
858.87	65.823
859.04	27.419
859.21	57.432
859.38	61.404
859.55	74.627
859.72	65.517
859.89	33.094
860.05	77.477
860.22	62.304
860.39	58.929
860.56	36.641
860.73	104.878
860.90	55.046
861.07	78.289
861.24	38.816
861.41	70.370
861.58	87.500
861.75	54.074
861.92	61.842
862.09	60.000
862.26	58.120
862.43	49.505
862.59	73.529
862.76	79.720
862.93	84.270
863.10	64.762
863.27	37.607
863.44	66.667
863.61	35.766
863.78	60.571
863.95	52.288
864.12	70.115
864.29	47.863
864.45	68.966
864.62	33.333
864.79	50.388
864.96	60.976
865.13	28.829
865.30	83.851
865.47	71.951
865.64	70.504
865.81	48.855
865.97	90.667
866.14	48.980
866.31	52.500
866.48	75.497
866.65	43.590
866.82	47.468
866.99	55.556
867.16	73.684
867.33	32.258
867.49	59.259
867.66	32.990
867.83	60.630
868.00	53.425
868.17	75.207
868.34	64.912
868.51	75.238
868.67	81.013
868.84	41.667
869.01	60.800
869.18	56.738
869.35	64.341
869.52	50.794
869.69	55.479
869.85	63.551
870.02	57.692
870.19	99.153
870.36	97.241
870.53	45.714
870.70	67.925
870.86	45.000
871.03	69.753
871.20	87.156
871.37	58.621
871.54	70.946
871.71	59.286
871.87	55.346
872.04	47.429
872.21	41.739
872.38	86.992
872.55	69.136
872.72	81.250
872.88	55.307
873.05	67.816
873.22	50.340
873.39	72.449
873.56	63.905
873.72	63.529
873.89	63.354
874.06	-13.433
874.23	72.034
874.40	58.000
874.56	78.947
874.73	19.512
874.90	75.424
875.07	38.571
875.24	46.584
875.40	64.706
875.57	52.294
875.74	71.200
875.91	14.679
876.08	95.652
876.24	83.721
876.41	84.000
876.58	74.468
876.75	42.553
876.92	66.176
877.08	51.471
877.25	53.043
877.42	75.781
877.59	45.918
877.75	42.000
877.92	25.000
878.09	40.625
878.26	35.329
878.42	47.500
878.59	73.043
878.76	79.605
878.93	60.448
879.09	32.323
879.26	62.805
879.43	46.486
879.60	32.867
879.76	55.682
879.93	31.111
880.10	39.333
880.27	34.161
880.43	62.570
880.60	23.288
880.77	41.477
880.94	8.955
881.10	36.873
881.27	22.623
881.44	19.547
881.61	28.700
881.77	21.989
881.94	14.004
882.11	17.077
882.28	12.460
882.44	17.493
882.61	18.987
882.78	16.416
882.94	23.602
883.11	13.180
883.28	15.133
883.45	15.649
883.61	13.694
883.78	14.252
883.95	14.202
884.11	16.475
884.28	19.588
>>>>>End Processed Spectral Data<<<<<
