SpectraSuite Data File
++++++++++++++++++++++++++++++++++++
Date: Sat Sep 21 03:30:46 EST 2019
User: sgrac
Dark Spectrum Present: Yes
Reference Spectrum Present: Yes
Number of Sampled Component Spectra: 1
Spectrometers: USB4E01596
Integration Time (usec): 100000 (USB4E01596)
Spectra Averaged: 1 (USB4E01596)
Boxcar Smoothing: 0 (USB4E01596)
Correct for Electrical Dark: No (USB4E01596)
Strobe/Lamp Enabled: Yes (USB4E01596)
Correct for Detector Non-linearity: No (USB4E01596)
Correct for Stray Light: No (USB4E01596)
Number of Pixels in Processed Spectrum: 3648
>>>>>Begin Processed Spectral Data<<<<<
178.44	-350.000
178.66	-350.000
178.87	-350.000
179.09	-114.286
179.30	-361.538
179.52	0.000
179.74	-1875.000
179.95	833.333
180.17	573.333
180.38	7900.000
180.60	0.000
180.82	450.000
181.03	-36.842
181.25	182.609
181.46	-187.097
181.68	337.500
181.89	6100.000
182.11	140.000
182.33	-164.444
182.54	-215.625
182.76	-3500.000
182.97	580.000
183.19	3300.000
183.40	258.621
183.62	-25.926
183.84	-311.111
184.05	465.217
184.27	625.000
184.48	1114.286
184.70	208.000
184.91	-380.000
185.13	177.778
185.34	-125.000
185.56	176.667
185.78	0.000
185.99	360.000
186.21	355.172
186.42	266.667
186.64	151.613
186.85	203.704
187.07	152.727
187.28	366.667
187.50	-220.000
187.72	680.000
187.93	-6900.000
188.15	170.000
188.36	-347.059
188.58	-3800.000
188.79	336.364
189.01	216.667
189.22	1540.000
189.44	2150.000
189.65	310.000
189.87	762.500
190.09	-1400.000
190.30	556.250
190.52	-4750.000
190.73	239.286
190.95	142.857
191.16	260.000
191.38	540.000
191.59	169.048
191.81	175.000
192.02	282.979
192.24	500.000
192.45	-1760.000
192.67	245.714
192.88	416.667
193.10	152.000
193.31	410.000
193.53	-11500.000
193.74	91.463
193.96	354.167
194.18	267.742
194.39	-333.333
194.61	478.947
194.82	357.143
195.04	238.095
195.25	2200.000
195.47	192.683
195.68	251.064
195.90	620.000
196.11	140.000
196.33	170.213
196.54	-3000.000
196.76	314.286
196.97	-1733.333
197.19	378.571
197.40	205.882
197.62	126.563
197.83	148.649
198.05	-289.474
198.26	285.714
198.48	211.111
198.69	174.419
198.91	241.176
199.12	-217.143
199.34	-1980.000
199.55	5400.000
199.77	1750.000
199.98	208.000
200.20	112.676
200.41	471.429
200.63	-588.889
200.84	176.471
201.06	507.692
201.27	327.027
201.49	1300.000
201.70	344.444
201.91	128.261
202.13	114.493
202.34	169.811
202.56	-600.000
202.77	422.222
202.99	417.857
203.20	1800.000
203.42	687.500
203.63	200.000
203.85	111.429
204.06	116.667
204.28	-790.000
204.49	197.143
204.71	133.333
204.92	0.000
205.14	-385.714
205.35	333.333
205.56	-1700.000
205.78	419.048
205.99	690.000
206.21	-254.839
206.42	329.032
206.64	342.857
206.85	925.000
207.07	-400.000
207.28	464.286
207.50	-473.684
207.71	135.897
207.93	259.091
208.14	464.706
208.35	236.842
208.57	-5900.000
208.78	884.615
209.00	511.111
209.21	-3400.000
209.43	158.621
209.64	197.059
209.86	871.429
210.07	0.000
210.28	-558.824
210.50	87.755
210.71	205.263
210.93	485.714
211.14	-255.556
211.36	-25.806
211.57	-195.238
211.78	-104.348
212.00	0.000
212.21	127.907
212.43	-272.727
212.64	96.552
212.86	-650.000
213.07	-368.182
213.29	171.053
213.50	4200.000
213.71	194.340
213.93	1200.000
214.14	190.909
214.36	7800.000
214.57	346.154
214.78	318.750
215.00	1550.000
215.21	169.444
215.43	356.000
215.64	248.718
215.86	202.857
216.07	4000.000
216.28	248.000
216.50	-985.714
216.71	-1580.000
216.93	236.170
217.14	159.375
217.35	266.667
217.57	210.714
217.78	1175.000
218.00	-420.000
218.21	289.474
218.42	-1466.667
218.64	452.941
218.85	-466.667
219.07	492.857
219.28	1575.000
219.49	107.895
219.71	3200.000
219.92	238.889
220.14	266.667
220.35	465.000
220.56	261.538
220.78	429.412
220.99	-4400.000
221.21	223.810
221.42	366.667
221.63	237.500
221.85	175.806
222.06	282.143
222.28	184.091
222.49	-3300.000
222.70	0.000
222.92	411.111
223.13	223.333
223.34	-1400.000
223.56	157.895
223.77	94.382
223.99	266.667
224.20	35.714
224.41	221.622
224.63	302.778
224.84	167.241
225.05	264.286
225.27	142.857
225.48	156.522
225.69	71.429
225.91	162.963
226.12	200.000
226.34	120.588
226.55	127.778
226.76	180.645
226.98	96.000
227.19	109.091
227.40	72.727
227.62	51.220
227.83	65.000
228.04	75.824
228.26	71.287
228.47	89.655
228.69	28.289
228.90	39.437
229.11	71.852
229.33	29.952
229.54	37.500
229.75	25.217
229.97	31.760
230.18	26.165
230.39	16.456
230.61	18.553
230.82	26.556
231.03	-9.544
231.25	20.539
231.46	32.117
231.67	24.901
231.89	33.333
232.10	27.530
232.31	35.096
232.53	49.153
232.74	33.854
232.95	34.940
233.17	41.618
233.38	17.164
233.59	45.588
233.81	41.262
234.02	49.342
234.23	45.455
234.45	71.053
234.66	25.989
234.87	51.678
235.09	42.222
235.30	27.011
235.51	32.039
235.73	40.881
235.94	54.922
236.15	54.082
236.36	30.159
236.58	43.128
236.79	49.738
237.00	28.019
237.22	49.383
237.43	41.176
237.64	33.624
237.86	25.000
238.07	57.789
238.28	25.137
238.50	37.391
238.71	21.893
238.92	32.143
239.13	40.571
239.35	34.266
239.56	49.479
239.77	32.195
239.99	30.189
240.20	19.474
240.41	28.448
240.63	4.453
240.84	31.076
241.05	28.467
241.26	34.711
241.48	16.224
241.69	15.823
241.90	16.901
242.12	15.816
242.33	16.379
242.54	10.021
242.75	9.867
242.97	19.828
243.18	15.657
243.39	16.964
243.61	6.447
243.82	11.189
244.03	4.317
244.24	4.141
244.46	15.556
244.67	8.234
244.88	15.023
245.09	19.866
245.31	8.061
245.52	19.118
245.73	21.401
245.95	18.337
246.16	7.592
246.37	17.248
246.58	11.215
246.80	14.035
247.01	6.033
247.22	9.740
247.43	8.989
247.65	14.009
247.86	7.331
248.07	9.030
248.28	4.581
248.50	6.139
248.71	6.975
248.92	6.477
249.13	6.007
249.35	8.672
249.56	9.409
249.77	5.296
249.98	5.163
250.20	3.889
250.41	7.039
250.62	5.181
250.83	12.518
251.05	11.717
251.26	9.256
251.47	15.856
251.68	11.152
251.90	18.116
252.11	11.847
252.32	11.298
252.53	18.801
252.75	6.080
252.96	13.141
253.17	8.738
253.38	15.405
253.59	9.463
253.81	14.266
254.02	9.955
254.23	12.192
254.44	15.228
254.66	9.587
254.87	16.606
255.08	12.454
255.29	16.064
255.50	14.839
255.72	18.578
255.93	19.465
256.14	18.636
256.35	22.248
256.57	23.097
256.78	21.918
256.99	23.822
257.20	16.019
257.41	24.224
257.63	14.724
257.84	19.502
258.05	20.000
258.26	9.369
258.47	15.206
258.69	13.912
258.90	11.335
259.11	6.240
259.32	6.911
259.53	4.290
259.75	5.902
259.96	6.960
260.17	5.745
260.38	5.016
260.59	4.296
260.81	5.300
261.02	5.370
261.23	5.562
261.44	3.862
261.65	4.375
261.87	3.758
262.08	4.863
262.29	7.718
262.50	7.102
262.71	6.949
262.92	11.243
263.14	12.291
263.35	6.520
263.56	7.765
263.77	9.502
263.98	8.466
264.20	11.399
264.41	6.215
264.62	10.108
264.83	8.475
265.04	9.902
265.25	6.686
265.47	11.631
265.68	12.536
265.89	13.311
266.10	8.717
266.31	16.643
266.52	12.067
266.74	4.718
266.95	6.021
267.16	11.211
267.37	7.000
267.58	5.357
267.79	9.900
268.01	7.582
268.22	11.976
268.43	7.423
268.64	10.471
268.85	3.842
269.06	5.688
269.27	7.304
269.49	8.108
269.70	10.101
269.91	5.870
270.12	8.581
270.33	10.854
270.54	6.198
270.75	10.292
270.97	11.523
271.18	9.436
271.39	6.478
271.60	10.132
271.81	4.807
272.02	7.871
272.23	10.988
272.45	11.628
272.66	5.486
272.87	3.584
273.08	6.645
273.29	4.242
273.50	6.245
273.71	6.687
273.92	6.063
274.14	2.179
274.35	2.348
274.56	7.176
274.77	4.946
274.98	11.630
275.19	8.259
275.40	7.481
275.61	5.572
275.83	8.019
276.04	7.157
276.25	8.431
276.46	6.520
276.67	8.214
276.88	5.584
277.09	2.676
277.30	6.445
277.51	8.436
277.73	0.700
277.94	8.176
278.15	8.285
278.36	8.308
278.57	9.324
278.78	8.400
278.99	10.244
279.20	9.315
279.41	7.012
279.62	4.701
279.84	6.058
280.05	11.839
280.26	8.075
280.47	5.343
280.68	-0.983
280.89	11.635
281.10	7.023
281.31	5.228
281.52	4.944
281.73	6.578
281.94	6.909
282.16	5.787
282.37	8.975
282.58	6.954
282.79	10.327
283.00	9.190
283.21	3.548
283.42	3.005
283.63	4.047
283.84	6.388
284.05	5.060
284.26	8.081
284.47	9.766
284.68	6.190
284.89	5.209
285.11	7.220
285.32	6.405
285.53	4.895
285.74	8.687
285.95	6.370
286.16	4.431
286.37	4.753
286.58	5.091
286.79	7.023
287.00	4.805
287.21	5.813
287.42	5.385
287.63	4.599
287.84	5.094
288.05	1.893
288.26	5.158
288.48	5.274
288.69	4.503
288.90	4.161
289.11	5.394
289.32	4.892
289.53	3.592
289.74	4.429
289.95	8.487
290.16	9.259
290.37	4.222
290.58	4.477
290.79	7.884
291.00	6.731
291.21	4.021
291.42	3.505
291.63	3.283
291.84	6.246
292.05	5.371
292.26	6.086
292.47	5.932
292.68	3.493
292.89	6.401
293.10	5.766
293.31	3.824
293.52	6.203
293.73	3.373
293.94	7.138
294.15	4.444
294.36	2.802
294.57	8.295
294.79	6.827
295.00	4.307
295.21	5.460
295.42	4.662
295.63	4.211
295.84	4.693
296.05	3.916
296.26	6.662
296.47	6.328
296.68	8.286
296.89	2.372
297.10	4.671
297.31	4.966
297.52	5.235
297.73	3.508
297.94	4.032
298.15	2.651
298.36	6.155
298.57	4.327
298.78	3.624
298.99	1.751
299.20	3.819
299.41	2.490
299.62	5.553
299.83	5.162
300.04	4.658
300.25	4.652
300.46	4.796
300.67	3.638
300.88	5.352
301.09	5.112
301.30	4.688
301.50	8.814
301.71	6.080
301.92	5.949
302.13	3.775
302.34	3.856
302.55	4.576
302.76	5.365
302.97	5.626
303.18	2.592
303.39	4.149
303.60	2.994
303.81	5.093
304.02	6.489
304.23	3.424
304.44	4.372
304.65	5.041
304.86	3.349
305.07	4.032
305.28	4.047
305.49	6.125
305.70	4.147
305.91	7.564
306.12	2.878
306.33	3.391
306.54	4.329
306.75	5.278
306.96	6.497
307.17	5.029
307.38	1.756
307.58	7.433
307.79	4.935
308.00	7.692
308.21	5.247
308.42	3.209
308.63	8.889
308.84	3.301
309.05	3.863
309.26	3.972
309.47	6.001
309.68	2.465
309.89	4.453
310.10	5.237
310.31	3.302
310.52	2.604
310.73	5.556
310.94	2.813
311.14	5.610
311.35	4.188
311.56	2.073
311.77	2.450
311.98	3.829
312.19	5.489
312.40	0.871
312.61	4.865
312.82	4.892
313.03	1.700
313.24	4.823
313.45	3.339
313.66	3.895
313.86	5.449
314.07	7.172
314.28	3.856
314.49	4.616
314.70	3.603
314.91	4.656
315.12	5.794
315.33	5.728
315.54	4.052
315.75	5.567
315.96	4.816
316.16	5.379
316.37	6.986
316.58	5.214
316.79	4.339
317.00	9.103
317.21	3.420
317.42	4.596
317.63	5.061
317.84	5.252
318.05	7.353
318.25	6.543
318.46	3.900
318.67	4.130
318.88	5.432
319.09	3.382
319.30	3.943
319.51	4.454
319.72	5.337
319.93	6.192
320.13	5.870
320.34	7.943
320.55	2.663
320.76	7.620
320.97	4.575
321.18	5.655
321.39	5.761
321.60	5.640
321.80	6.498
322.01	4.054
322.22	3.583
322.43	3.318
322.64	4.820
322.85	3.300
323.06	3.467
323.27	6.887
323.47	7.981
323.68	6.541
323.89	3.071
324.10	5.424
324.31	3.762
324.52	4.476
324.73	4.870
324.93	6.410
325.14	3.327
325.35	5.134
325.56	6.793
325.77	5.341
325.98	4.594
326.19	6.196
326.39	3.863
326.60	3.522
326.81	4.003
327.02	6.813
327.23	2.601
327.44	7.311
327.64	6.763
327.85	1.908
328.06	5.740
328.27	6.400
328.48	4.348
328.69	2.005
328.90	4.531
329.10	5.375
329.31	1.391
329.52	5.245
329.73	5.886
329.94	3.463
330.15	3.872
330.35	7.038
330.56	5.906
330.77	5.464
330.98	7.052
331.19	4.840
331.39	6.412
331.60	3.467
331.81	5.420
332.02	9.304
332.23	4.351
332.44	4.947
332.64	2.349
332.85	2.872
333.06	6.540
333.27	2.418
333.48	3.426
333.68	6.790
333.89	3.366
334.10	3.053
334.31	5.440
334.52	6.047
334.72	5.879
334.93	4.195
335.14	4.747
335.35	7.434
335.56	2.359
335.76	1.764
335.97	6.646
336.18	5.810
336.39	5.277
336.60	5.556
336.80	5.782
337.01	4.447
337.22	1.418
337.43	8.379
337.64	6.289
337.84	3.541
338.05	4.586
338.26	4.860
338.47	7.843
338.68	4.051
338.88	4.702
339.09	6.228
339.30	4.692
339.51	3.416
339.71	4.756
339.92	6.459
340.13	4.702
340.34	5.055
340.55	7.109
340.75	7.817
340.96	5.438
341.17	5.302
341.38	2.480
341.58	5.300
341.79	5.076
342.00	6.034
342.21	5.091
342.41	5.159
342.62	6.956
342.83	9.263
343.04	3.708
343.24	6.617
343.45	5.000
343.66	8.464
343.87	8.389
344.07	4.933
344.28	7.775
344.49	9.370
344.70	12.086
344.90	6.152
345.11	7.445
345.32	6.769
345.53	7.778
345.73	9.839
345.94	14.552
346.15	11.768
346.36	8.764
346.56	10.034
346.77	11.056
346.98	9.292
347.19	12.623
347.39	13.010
347.60	14.387
347.81	15.404
348.02	13.578
348.22	9.511
348.43	13.911
348.64	11.720
348.84	14.069
349.05	13.348
349.26	17.833
349.47	10.022
349.67	11.991
349.88	19.254
350.09	15.125
350.30	19.087
350.50	14.612
350.71	15.674
350.92	16.800
351.12	12.805
351.33	18.847
351.54	15.834
351.74	19.842
351.95	15.563
352.16	19.568
352.37	20.883
352.57	17.523
352.78	15.284
352.99	20.534
353.19	16.667
353.40	20.032
353.61	22.118
353.82	22.677
354.02	24.228
354.23	22.766
354.44	23.625
354.64	22.032
354.85	20.305
355.06	22.651
355.26	16.167
355.47	21.791
355.68	25.200
355.88	29.637
356.09	26.210
356.30	22.082
356.51	24.472
356.71	27.466
356.92	19.335
357.13	27.715
357.33	26.445
357.54	26.614
357.75	22.179
357.95	27.791
358.16	23.012
358.37	31.805
358.57	21.478
358.78	34.354
358.99	24.563
359.19	26.969
359.40	29.087
359.61	26.596
359.81	30.605
360.02	30.820
360.23	23.455
360.43	26.488
360.64	24.285
360.85	28.981
361.05	25.088
361.26	30.646
361.47	27.472
361.67	32.550
361.88	23.731
362.09	32.273
362.29	26.512
362.50	30.272
362.70	25.792
362.91	31.532
363.12	28.673
363.32	29.711
363.53	30.849
363.74	32.474
363.94	29.045
364.15	33.770
364.36	30.209
364.56	30.041
364.77	30.641
364.98	35.560
365.18	27.239
365.39	32.465
365.59	24.813
365.80	28.373
366.01	28.329
366.21	26.483
366.42	25.085
366.63	31.406
366.83	28.125
367.04	24.800
367.24	31.269
367.45	25.261
367.66	23.978
367.86	30.079
368.07	26.946
368.28	27.427
368.48	26.547
368.69	23.722
368.89	25.940
369.10	28.478
369.31	26.493
369.51	26.872
369.72	26.014
369.92	30.425
370.13	23.742
370.34	31.310
370.54	19.714
370.75	30.795
370.95	24.274
371.16	30.955
371.37	26.399
371.57	27.603
371.78	27.982
371.98	30.702
372.19	26.828
372.40	32.364
372.60	30.226
372.81	30.657
373.01	22.417
373.22	27.288
373.43	28.622
373.63	32.748
373.84	28.102
374.04	28.240
374.25	27.801
374.46	30.246
374.66	28.998
374.87	30.298
375.07	23.867
375.28	26.107
375.48	26.679
375.69	29.370
375.90	24.464
376.10	26.625
376.31	24.420
376.51	27.107
376.72	26.812
376.92	27.727
377.13	29.640
377.34	33.054
377.54	26.756
377.75	29.873
377.95	29.479
378.16	32.833
378.36	29.147
378.57	32.298
378.77	30.316
378.98	30.521
379.19	29.599
379.39	29.206
379.60	30.232
379.80	31.635
380.01	31.451
380.21	30.752
380.42	29.056
380.62	27.893
380.83	29.877
381.04	31.642
381.24	30.411
381.45	33.161
381.65	28.977
381.86	33.007
382.06	30.016
382.27	25.610
382.47	27.604
382.68	33.884
382.88	27.306
383.09	29.488
383.29	29.173
383.50	31.535
383.71	28.847
383.91	31.907
384.12	27.848
384.32	32.892
384.53	29.058
384.73	28.953
384.94	28.609
385.14	31.393
385.35	27.821
385.55	29.994
385.76	28.337
385.96	31.965
386.17	29.924
386.37	32.418
386.58	31.026
386.78	32.333
386.99	28.235
387.19	31.203
387.40	29.527
387.60	34.410
387.81	28.646
388.01	32.938
388.22	33.865
388.42	33.818
388.63	32.006
388.83	34.571
389.04	29.825
389.24	32.237
389.45	31.503
389.65	32.046
389.86	30.920
390.06	32.326
390.27	29.202
390.47	31.709
390.68	31.130
390.88	32.471
391.09	32.782
391.29	33.149
391.50	31.855
391.70	32.542
391.91	30.761
392.11	32.711
392.32	33.083
392.52	35.334
392.73	33.613
392.93	34.058
393.14	31.728
393.34	33.422
393.55	32.483
393.75	33.619
393.95	30.911
394.16	34.526
394.36	33.209
394.57	35.416
394.77	31.516
394.98	32.283
395.18	33.219
395.39	33.700
395.59	34.081
395.80	34.028
396.00	34.104
396.21	33.767
396.41	31.138
396.61	32.782
396.82	34.139
397.02	34.660
397.23	34.422
397.43	34.409
397.64	30.208
397.84	34.512
398.05	29.152
398.25	33.542
398.45	31.710
398.66	33.810
398.86	34.376
399.07	34.502
399.27	32.685
399.48	34.786
399.68	30.832
399.89	32.565
400.09	32.462
400.29	32.685
400.50	33.549
400.70	34.081
400.91	31.159
401.11	33.342
401.32	32.046
401.52	31.996
401.72	30.702
401.93	34.004
402.13	32.078
402.34	33.143
402.54	31.000
402.75	33.577
402.95	28.200
403.15	32.373
403.36	29.264
403.56	31.990
403.77	30.626
403.97	31.957
404.17	29.355
404.38	31.419
404.58	31.489
404.79	34.045
404.99	31.167
405.19	32.512
405.40	30.649
405.60	31.491
405.81	30.328
406.01	32.618
406.21	31.754
406.42	31.834
406.62	30.895
406.83	32.049
407.03	29.526
407.23	32.512
407.44	30.222
407.64	33.648
407.85	30.231
408.05	32.121
408.25	30.604
408.46	32.738
408.66	31.067
408.87	30.363
409.07	28.288
409.27	31.093
409.48	30.021
409.68	32.230
409.88	28.938
410.09	30.907
410.29	30.013
410.50	30.751
410.70	27.932
410.90	30.330
411.11	28.571
411.31	30.251
411.51	30.337
411.72	31.113
411.92	29.202
412.12	30.629
412.33	27.385
412.53	30.433
412.74	29.527
412.94	29.966
413.14	28.606
413.35	31.682
413.55	30.048
413.75	31.220
413.96	29.054
414.16	29.688
414.36	29.146
414.57	28.809
414.77	29.280
414.97	29.367
415.18	27.094
415.38	29.473
415.58	28.866
415.79	28.288
415.99	27.253
416.19	30.015
416.40	27.873
416.60	30.484
416.80	28.689
417.01	29.983
417.21	27.685
417.41	29.033
417.62	29.186
417.82	28.722
418.02	28.740
418.23	28.615
418.43	29.163
418.63	28.943
418.84	29.033
419.04	28.592
419.24	28.740
419.45	28.838
419.65	29.328
419.85	29.465
420.06	29.799
420.26	29.374
420.46	28.507
420.67	29.484
420.87	28.183
421.07	28.243
421.28	28.720
421.48	29.385
421.68	28.914
421.88	29.153
422.09	28.502
422.29	29.168
422.49	28.893
422.70	28.930
422.90	28.587
423.10	28.626
423.31	28.720
423.51	29.240
423.71	30.051
423.91	29.592
424.12	28.331
424.32	28.679
424.52	28.507
424.73	28.694
424.93	28.508
425.13	27.500
425.33	27.991
425.54	27.420
425.74	28.491
425.94	28.455
426.15	28.034
426.35	28.272
426.55	28.737
426.75	29.235
426.96	28.512
427.16	28.194
427.36	29.391
427.57	28.520
427.77	29.398
427.97	27.976
428.17	29.012
428.38	27.385
428.58	27.230
428.78	28.586
428.98	28.503
429.19	28.331
429.39	27.906
429.59	27.640
429.79	27.208
430.00	27.271
430.20	26.602
430.40	28.174
430.60	27.320
430.81	28.422
431.01	26.100
431.21	27.838
431.41	27.013
431.62	28.514
431.82	28.390
432.02	27.314
432.22	27.303
432.43	27.695
432.63	27.052
432.83	26.488
433.03	27.115
433.24	26.859
433.44	27.067
433.64	26.984
433.84	27.366
434.05	27.402
434.25	26.734
434.45	26.988
434.65	27.273
434.85	28.350
435.06	27.944
435.26	27.307
435.46	28.217
435.66	27.081
435.87	27.515
436.07	28.379
436.27	27.851
436.47	27.012
436.67	27.289
436.88	28.609
437.08	27.105
437.28	27.735
437.48	28.059
437.69	27.180
437.89	27.224
438.09	28.264
438.29	26.789
438.49	27.928
438.70	27.381
438.90	27.462
439.10	26.420
439.30	27.385
439.50	27.913
439.71	26.844
439.91	26.830
440.11	26.960
440.31	27.943
440.51	27.494
440.72	27.367
440.92	26.738
441.12	27.003
441.32	27.386
441.52	27.130
441.72	27.634
441.93	27.972
442.13	27.457
442.33	27.017
442.53	28.186
442.73	27.781
442.94	27.675
443.14	27.169
443.34	27.927
443.54	27.981
443.74	28.401
443.94	27.890
444.15	27.321
444.35	27.262
444.55	27.540
444.75	26.926
444.95	27.133
445.15	26.320
445.36	27.588
445.56	26.977
445.76	27.244
445.96	26.418
446.16	26.617
446.36	26.811
446.57	26.988
446.77	26.420
446.97	27.015
447.17	26.891
447.37	26.908
447.57	27.159
447.77	27.497
447.98	27.269
448.18	27.703
448.38	27.575
448.58	27.423
448.78	27.003
448.98	27.819
449.18	27.808
449.39	26.880
449.59	27.014
449.79	28.586
449.99	27.427
450.19	27.818
450.39	27.363
450.59	26.939
450.79	27.042
451.00	28.998
451.20	28.131
451.40	28.018
451.60	26.860
451.80	27.310
452.00	28.470
452.20	26.895
452.40	27.176
452.61	27.300
452.81	27.766
453.01	28.031
453.21	25.211
453.41	28.275
453.61	27.158
453.81	27.104
454.01	26.422
454.21	28.148
454.42	26.621
454.62	27.381
454.82	27.068
455.02	26.973
455.22	27.286
455.42	27.335
455.62	26.906
455.82	27.543
456.02	26.948
456.23	26.600
456.43	28.576
456.63	26.861
456.83	27.380
457.03	27.419
457.23	27.661
457.43	26.988
457.63	26.854
457.83	26.769
458.03	26.462
458.23	26.734
458.43	27.355
458.64	26.548
458.84	26.137
459.04	26.697
459.24	25.438
459.44	26.214
459.64	26.042
459.84	26.105
460.04	25.825
460.24	25.908
460.44	26.518
460.64	26.211
460.84	26.075
461.04	26.290
461.24	26.492
461.45	27.496
461.65	26.963
461.85	27.039
462.05	26.471
462.25	26.850
462.45	27.810
462.65	27.249
462.85	26.649
463.05	28.361
463.25	26.903
463.45	27.009
463.65	27.148
463.85	27.087
464.05	25.792
464.25	27.012
464.45	26.587
464.65	26.444
464.85	26.372
465.05	27.315
465.26	26.110
465.46	26.509
465.66	27.120
465.86	26.805
466.06	26.225
466.26	26.695
466.46	27.170
466.66	25.746
466.86	25.634
467.06	25.740
467.26	26.682
467.46	26.425
467.66	25.846
467.86	26.609
468.06	25.518
468.26	26.051
468.46	26.775
468.66	26.947
468.86	25.866
469.06	26.963
469.26	26.595
469.46	27.339
469.66	26.144
469.86	26.919
470.06	25.768
470.26	27.097
470.46	26.399
470.66	26.124
470.86	25.945
471.06	27.037
471.26	25.889
471.46	26.569
471.66	27.255
471.86	26.593
472.06	26.097
472.26	27.012
472.46	26.509
472.66	27.133
472.86	27.665
473.06	26.309
473.26	26.622
473.46	26.523
473.66	27.694
473.86	27.423
474.06	27.655
474.26	26.489
474.46	26.101
474.66	27.368
474.86	26.856
475.06	27.326
475.26	27.003
475.46	26.660
475.66	27.063
475.86	27.416
476.06	27.788
476.26	25.958
476.46	26.765
476.66	26.388
476.86	26.540
477.06	26.601
477.26	26.632
477.46	27.063
477.65	26.578
477.85	26.365
478.05	26.671
478.25	26.602
478.45	26.986
478.65	27.063
478.85	26.326
479.05	27.601
479.25	26.894
479.45	27.382
479.65	26.460
479.85	27.639
480.05	27.001
480.25	26.566
480.45	27.232
480.65	27.338
480.85	26.641
481.05	26.782
481.25	26.407
481.44	27.488
481.64	27.491
481.84	27.173
482.04	25.997
482.24	27.350
482.44	26.789
482.64	26.809
482.84	27.101
483.04	26.856
483.24	26.789
483.44	26.692
483.64	25.512
483.84	26.458
484.04	26.620
484.23	26.863
484.43	27.023
484.63	27.148
484.83	27.434
485.03	27.908
485.23	27.653
485.43	28.351
485.63	28.338
485.83	28.253
486.03	28.641
486.23	28.523
486.42	27.880
486.62	27.853
486.82	27.761
487.02	27.722
487.22	27.052
487.42	27.345
487.62	27.224
487.82	27.225
488.02	27.110
488.22	27.573
488.41	27.083
488.61	27.123
488.81	27.371
489.01	27.834
489.21	27.844
489.41	28.413
489.61	27.786
489.81	27.729
490.01	28.333
490.20	28.049
490.40	27.661
490.60	28.073
490.80	27.480
491.00	27.593
491.20	27.013
491.40	26.870
491.60	26.851
491.79	27.148
491.99	26.467
492.19	26.821
492.39	27.119
492.59	26.601
492.79	27.304
492.99	27.411
493.19	27.306
493.38	27.627
493.58	28.147
493.78	28.273
493.98	28.113
494.18	28.308
494.38	27.835
494.58	27.746
494.77	28.308
494.97	28.365
495.17	28.140
495.37	27.673
495.57	27.463
495.77	27.529
495.96	27.159
496.16	27.567
496.36	27.199
496.56	27.218
496.76	27.333
496.96	27.508
497.15	27.556
497.35	28.228
497.55	26.919
497.75	27.639
497.95	27.800
498.15	27.131
498.34	27.113
498.54	27.154
498.74	27.232
498.94	27.582
499.14	27.454
499.34	27.996
499.53	27.032
499.73	27.522
499.93	28.142
500.13	28.735
500.33	28.114
500.52	27.464
500.72	27.464
500.92	27.979
501.12	27.673
501.32	28.680
501.52	28.092
501.71	28.100
501.91	28.164
502.11	28.511
502.31	27.567
502.51	28.171
502.70	27.869
502.90	27.651
503.10	27.757
503.30	28.315
503.50	28.257
503.69	28.056
503.89	28.132
504.09	27.082
504.29	27.533
504.48	28.221
504.68	27.839
504.88	28.144
505.08	28.021
505.28	28.063
505.47	27.934
505.67	29.203
505.87	28.464
506.07	28.543
506.27	27.952
506.46	28.623
506.66	28.943
506.86	29.671
507.06	27.942
507.25	29.061
507.45	28.454
507.65	29.260
507.85	29.058
508.04	28.775
508.24	28.233
508.44	28.361
508.64	28.156
508.83	28.769
509.03	29.546
509.23	28.933
509.43	29.216
509.63	28.943
509.82	29.517
510.02	29.046
510.22	28.801
510.42	29.571
510.61	28.697
510.81	30.051
511.01	30.158
511.21	29.210
511.40	30.435
511.60	29.046
511.80	29.065
511.99	30.064
512.19	30.144
512.39	29.946
512.59	30.136
512.78	29.667
512.98	29.618
513.18	29.334
513.38	30.116
513.57	30.152
513.77	30.911
513.97	29.944
514.17	30.268
514.36	31.256
514.56	29.955
514.76	30.493
514.95	30.179
515.15	30.585
515.35	31.720
515.55	31.145
515.74	31.436
515.94	30.407
516.14	30.705
516.33	30.804
516.53	31.166
516.73	31.494
516.93	31.038
517.12	31.304
517.32	31.152
517.52	30.768
517.71	31.379
517.91	31.190
518.11	30.553
518.30	30.901
518.50	30.068
518.70	30.183
518.90	30.628
519.09	30.344
519.29	30.754
519.49	30.868
519.68	30.332
519.88	30.398
520.08	31.129
520.27	30.666
520.47	31.138
520.67	31.988
520.86	31.396
521.06	31.341
521.26	30.962
521.45	31.000
521.65	31.414
521.85	32.083
522.04	30.962
522.24	31.956
522.44	31.920
522.63	31.261
522.83	31.399
523.03	32.574
523.22	31.797
523.42	31.430
523.62	31.037
523.81	31.914
524.01	31.723
524.21	31.570
524.40	30.784
524.60	30.547
524.80	30.768
524.99	31.009
525.19	30.715
525.39	31.041
525.58	30.561
525.78	30.586
525.98	30.433
526.17	30.781
526.37	30.849
526.57	30.980
526.76	30.118
526.96	30.829
527.15	30.737
527.35	30.222
527.55	30.804
527.74	31.131
527.94	30.397
528.14	30.560
528.33	29.986
528.53	30.056
528.72	29.998
528.92	30.215
529.12	30.253
529.31	30.681
529.51	30.625
529.71	31.283
529.90	30.994
530.10	31.123
530.29	31.543
530.49	31.348
530.69	31.760
530.88	31.717
531.08	31.460
531.28	31.560
531.47	31.076
531.67	30.360
531.86	31.483
532.06	31.293
532.26	30.808
532.45	31.086
532.65	30.613
532.84	30.334
533.04	30.502
533.24	29.749
533.43	30.000
533.63	30.829
533.82	30.893
534.02	30.995
534.22	30.297
534.41	31.124
534.61	30.838
534.80	31.101
535.00	30.790
535.19	31.674
535.39	31.569
535.59	31.674
535.78	32.231
535.98	31.514
536.17	31.778
536.37	31.665
536.57	31.166
536.76	31.735
536.96	30.361
537.15	31.119
537.35	31.748
537.54	31.208
537.74	31.729
537.93	31.594
538.13	31.850
538.33	31.343
538.52	31.301
538.72	31.917
538.91	31.722
539.11	32.592
539.30	31.164
539.50	32.544
539.70	31.170
539.89	32.014
540.09	31.882
540.28	31.228
540.48	31.078
540.67	31.358
540.87	30.957
541.06	30.920
541.26	30.520
541.45	31.240
541.65	30.168
541.85	31.260
542.04	31.126
542.24	31.093
542.43	30.942
542.63	31.595
542.82	31.776
543.02	31.974
543.21	32.223
543.41	32.270
543.60	32.219
543.80	31.638
543.99	32.176
544.19	32.299
544.38	32.057
544.58	32.136
544.77	32.402
544.97	32.512
545.16	31.978
545.36	32.438
545.56	32.782
545.75	32.882
545.95	32.008
546.14	32.133
546.34	31.923
546.53	32.624
546.73	32.575
546.92	31.647
547.12	32.033
547.31	31.834
547.51	31.814
547.70	32.318
547.90	32.262
548.09	33.002
548.29	32.229
548.48	32.568
548.68	32.772
548.87	33.376
549.07	32.958
549.26	32.416
549.46	33.261
549.65	34.317
549.84	33.758
550.04	33.098
550.23	32.581
550.43	33.418
550.62	33.615
550.82	32.968
551.01	33.656
551.21	33.570
551.40	33.530
551.60	33.137
551.79	34.412
551.99	34.301
552.18	33.841
552.38	34.306
552.57	33.312
552.77	33.849
552.96	33.362
553.16	33.707
553.35	32.511
553.54	33.699
553.74	33.200
553.93	34.910
554.13	32.855
554.32	33.716
554.52	35.066
554.71	33.706
554.91	34.381
555.10	34.256
555.29	33.290
555.49	35.083
555.68	34.665
555.88	34.969
556.07	33.966
556.27	34.429
556.46	35.228
556.66	34.127
556.85	33.571
557.04	34.376
557.24	34.445
557.43	34.815
557.63	35.434
557.82	34.595
558.02	35.093
558.21	35.462
558.40	34.969
558.60	35.571
558.79	35.263
558.99	34.161
559.18	33.777
559.38	35.509
559.57	35.189
559.76	35.538
559.96	34.895
560.15	34.409
560.35	36.570
560.54	35.246
560.73	34.958
560.93	35.861
561.12	35.086
561.32	35.061
561.51	34.661
561.70	35.537
561.90	36.384
562.09	36.205
562.29	34.556
562.48	36.299
562.67	34.997
562.87	35.900
563.06	35.880
563.26	35.990
563.45	35.279
563.64	36.303
563.84	34.988
564.03	36.156
564.23	36.044
564.42	36.119
564.61	36.242
564.81	35.384
565.00	37.089
565.20	36.212
565.39	34.115
565.58	36.607
565.78	34.743
565.97	35.636
566.16	35.358
566.36	36.131
566.55	35.567
566.74	36.025
566.94	35.545
567.13	35.837
567.33	35.663
567.52	35.324
567.71	36.196
567.91	36.044
568.10	36.219
568.29	35.577
568.49	36.048
568.68	36.209
568.87	36.291
569.07	35.885
569.26	37.080
569.45	35.454
569.65	36.431
569.84	37.359
570.04	36.338
570.23	35.233
570.42	36.692
570.62	36.399
570.81	35.912
571.00	36.550
571.20	35.825
571.39	36.395
571.58	36.632
571.78	36.427
571.97	35.613
572.16	36.020
572.36	35.903
572.55	36.076
572.74	36.379
572.94	35.714
573.13	36.446
573.32	37.220
573.51	35.576
573.71	35.431
573.90	36.997
574.09	36.771
574.29	36.205
574.48	36.316
574.67	35.662
574.87	37.090
575.06	36.121
575.25	36.700
575.45	35.831
575.64	37.373
575.83	36.637
576.03	36.950
576.22	35.570
576.41	35.956
576.60	35.678
576.80	36.522
576.99	36.858
577.18	35.916
577.38	35.739
577.57	36.878
577.76	36.880
577.95	36.599
578.15	37.159
578.34	36.773
578.53	36.094
578.73	36.617
578.92	36.444
579.11	38.155
579.30	35.840
579.50	36.402
579.69	36.558
579.88	36.683
580.08	36.905
580.27	35.366
580.46	37.283
580.65	36.860
580.85	37.511
581.04	36.734
581.23	37.071
581.42	36.618
581.62	35.894
581.81	37.011
582.00	36.390
582.19	35.933
582.39	36.758
582.58	35.993
582.77	36.387
582.96	36.863
583.16	35.822
583.35	35.175
583.54	35.813
583.73	35.991
583.93	34.593
584.12	35.772
584.31	36.978
584.50	38.255
584.70	35.273
584.89	36.706
585.08	35.714
585.27	36.789
585.47	35.767
585.66	35.530
585.85	36.566
586.04	37.251
586.24	35.658
586.43	34.668
586.62	35.753
586.81	36.238
587.00	35.578
587.20	36.663
587.39	35.800
587.58	37.822
587.77	35.493
587.97	35.147
588.16	35.230
588.35	35.331
588.54	35.029
588.73	35.183
588.93	38.254
589.12	35.569
589.31	34.910
589.50	35.425
589.69	36.512
589.89	35.504
590.08	35.773
590.27	35.691
590.46	34.284
590.65	34.926
590.85	35.070
591.04	35.229
591.23	35.247
591.42	35.878
591.61	35.146
591.81	36.526
592.00	36.097
592.19	36.640
592.38	36.316
592.57	35.551
592.77	36.377
592.96	35.521
593.15	35.132
593.34	35.584
593.53	35.151
593.72	36.595
593.92	35.301
594.11	37.464
594.30	36.294
594.49	36.536
594.68	36.449
594.87	36.357
595.07	36.206
595.26	36.648
595.45	35.320
595.64	37.339
595.83	35.212
596.02	36.079
596.22	35.457
596.41	36.498
596.60	35.048
596.79	35.757
596.98	35.726
597.17	36.219
597.37	35.656
597.56	36.964
597.75	34.728
597.94	36.901
598.13	36.822
598.32	36.710
598.51	37.165
598.71	36.149
598.90	36.723
599.09	36.383
599.28	37.084
599.47	36.775
599.66	36.493
599.85	36.823
600.05	37.108
600.24	38.228
600.43	38.035
600.62	39.074
600.81	37.241
601.00	38.007
601.19	35.637
601.38	36.318
601.58	38.336
601.77	37.785
601.96	36.648
602.15	37.810
602.34	37.114
602.53	36.967
602.72	37.335
602.91	37.633
603.10	37.603
603.30	36.902
603.49	37.524
603.68	36.899
603.87	37.361
604.06	36.448
604.25	37.264
604.44	35.219
604.63	36.466
604.82	36.709
605.01	37.617
605.21	36.692
605.40	37.920
605.59	38.402
605.78	37.604
605.97	38.984
606.16	37.294
606.35	38.185
606.54	36.945
606.73	37.621
606.92	36.910
607.11	37.649
607.30	36.843
607.50	38.771
607.69	37.262
607.88	39.138
608.07	38.378
608.26	35.824
608.45	38.206
608.64	37.318
608.83	36.825
609.02	37.276
609.21	37.173
609.40	38.257
609.59	37.353
609.78	38.174
609.97	36.489
610.16	37.324
610.35	37.680
610.55	37.028
610.74	39.146
610.93	36.648
611.12	38.186
611.31	37.332
611.50	36.813
611.69	38.574
611.88	38.626
612.07	38.072
612.26	36.108
612.45	39.996
612.64	36.531
612.83	38.830
613.02	37.352
613.21	37.634
613.40	35.150
613.59	37.668
613.78	36.708
613.97	37.787
614.16	37.213
614.35	38.479
614.54	38.932
614.73	37.509
614.92	37.239
615.11	36.384
615.30	34.891
615.49	36.616
615.68	38.575
615.87	37.426
616.07	36.837
616.26	37.890
616.45	36.578
616.64	38.394
616.83	37.602
617.02	36.981
617.21	36.818
617.40	37.100
617.59	36.865
617.78	38.028
617.97	35.379
618.16	36.434
618.35	37.070
618.54	36.617
618.73	37.544
618.92	36.538
619.11	36.840
619.30	38.155
619.49	37.151
619.68	36.573
619.86	36.976
620.05	36.846
620.24	37.106
620.43	35.817
620.62	35.704
620.81	36.853
621.00	36.528
621.19	38.748
621.38	35.405
621.57	35.719
621.76	36.612
621.95	36.061
622.14	35.516
622.33	36.899
622.52	36.132
622.71	35.652
622.90	36.256
623.09	36.039
623.28	37.527
623.47	35.830
623.66	37.825
623.85	38.524
624.04	37.491
624.23	37.083
624.42	35.872
624.61	35.508
624.80	34.942
624.99	35.841
625.18	35.967
625.36	36.963
625.55	35.939
625.74	35.610
625.93	37.061
626.12	35.019
626.31	34.254
626.50	36.252
626.69	35.756
626.88	36.327
627.07	35.897
627.26	36.150
627.45	35.441
627.64	36.075
627.83	35.166
628.02	35.897
628.20	36.163
628.39	35.533
628.58	36.342
628.77	36.013
628.96	35.786
629.15	35.641
629.34	35.323
629.53	36.095
629.72	36.289
629.91	36.521
630.10	36.528
630.29	37.284
630.47	35.811
630.66	36.019
630.85	36.273
631.04	34.165
631.23	34.703
631.42	34.921
631.61	35.474
631.80	35.396
631.99	35.648
632.18	35.229
632.36	35.036
632.55	34.336
632.74	34.963
632.93	36.383
633.12	35.863
633.31	35.862
633.50	33.333
633.69	35.202
633.88	34.311
634.06	35.829
634.25	35.169
634.44	34.703
634.63	34.749
634.82	35.563
635.01	34.719
635.20	34.560
635.39	35.100
635.57	35.575
635.76	36.165
635.95	36.549
636.14	34.152
636.33	36.857
636.52	34.489
636.71	36.192
636.89	34.829
637.08	35.792
637.27	34.028
637.46	36.533
637.65	34.889
637.84	35.520
638.03	33.959
638.21	34.345
638.40	35.198
638.59	36.620
638.78	34.468
638.97	33.802
639.16	35.072
639.34	35.049
639.53	34.094
639.72	36.105
639.91	33.370
640.10	34.810
640.29	35.373
640.47	35.866
640.66	34.216
640.85	36.307
641.04	34.179
641.23	33.485
641.42	34.922
641.60	34.154
641.79	35.184
641.98	34.618
642.17	36.111
642.36	35.253
642.54	35.060
642.73	34.984
642.92	32.580
643.11	33.597
643.30	34.765
643.49	33.970
643.67	34.629
643.86	36.128
644.05	33.434
644.24	33.725
644.43	35.028
644.61	34.618
644.80	34.091
644.99	35.112
645.18	34.127
645.37	34.300
645.55	32.470
645.74	35.906
645.93	34.567
646.12	35.751
646.31	33.667
646.49	32.979
646.68	33.412
646.87	33.323
647.06	34.203
647.24	34.710
647.43	30.592
647.62	34.953
647.81	33.033
648.00	33.534
648.18	32.325
648.37	35.490
648.56	33.313
648.75	33.750
648.93	34.100
649.12	34.304
649.31	33.452
649.50	36.053
649.68	32.643
649.87	33.402
650.06	31.463
650.25	35.651
650.43	31.077
650.62	32.939
650.81	34.514
651.00	34.301
651.18	34.037
651.37	33.027
651.56	32.626
651.75	35.194
651.93	34.411
652.12	34.732
652.31	32.992
652.50	33.703
652.68	31.998
652.87	35.450
653.06	33.363
653.25	35.735
653.43	32.408
653.62	34.382
653.81	32.987
654.00	35.028
654.18	31.557
654.37	36.730
654.56	31.837
654.74	33.262
654.93	33.071
655.12	33.640
655.31	32.740
655.49	33.660
655.68	32.621
655.87	32.014
656.05	31.328
656.24	31.740
656.43	30.370
656.62	34.709
656.80	30.955
656.99	32.139
657.18	29.676
657.36	32.023
657.55	30.722
657.74	30.590
657.93	31.338
658.11	32.586
658.30	32.133
658.49	33.190
658.67	31.134
658.86	31.000
659.05	30.844
659.23	31.774
659.42	32.211
659.61	31.735
659.79	29.055
659.98	33.150
660.17	30.381
660.35	32.303
660.54	30.287
660.73	33.121
660.91	31.893
661.10	33.216
661.29	28.834
661.47	31.754
661.66	29.849
661.85	31.505
662.03	28.953
662.22	28.924
662.41	25.333
662.59	28.189
662.78	26.010
662.97	28.679
663.15	27.369
663.34	30.206
663.53	25.235
663.71	27.338
663.90	25.059
664.09	29.741
664.27	24.181
664.46	27.684
664.65	22.427
664.83	26.106
665.02	22.162
665.21	24.604
665.39	20.294
665.58	26.530
665.77	23.035
665.95	25.936
666.14	20.975
666.32	25.252
666.51	22.820
666.70	25.189
666.88	22.446
667.07	25.402
667.26	19.740
667.44	23.189
667.63	20.971
667.81	21.668
668.00	22.041
668.19	24.693
668.37	19.864
668.56	27.074
668.75	20.642
668.93	23.590
669.12	20.839
669.30	25.678
669.49	20.486
669.68	23.464
669.86	21.647
670.05	22.885
670.23	19.574
670.42	22.990
670.61	21.692
670.79	22.230
670.98	21.146
671.16	21.558
671.35	21.128
671.54	22.134
671.72	19.445
671.91	19.235
672.09	17.687
672.28	23.687
672.46	21.383
672.65	21.856
672.84	21.344
673.02	22.767
673.21	16.083
673.39	18.510
673.58	21.455
673.77	21.114
673.95	18.575
674.14	23.024
674.32	18.061
674.51	22.951
674.69	18.992
674.88	21.098
675.07	16.913
675.25	24.175
675.44	18.236
675.62	21.299
675.81	17.196
675.99	25.385
676.18	21.562
676.36	20.764
676.55	15.934
676.74	22.130
676.92	20.929
677.11	22.200
677.29	19.336
677.48	23.114
677.66	19.719
677.85	21.671
678.03	20.055
678.22	22.442
678.40	18.192
678.59	19.244
678.78	17.316
678.96	22.492
679.15	20.433
679.33	24.847
679.52	23.521
679.70	22.445
679.89	21.299
680.07	24.693
680.26	19.360
680.44	24.646
680.63	24.766
680.81	25.383
681.00	21.413
681.18	24.833
681.37	24.181
681.55	26.166
681.74	25.433
681.92	26.665
682.11	24.697
682.29	24.734
682.48	24.157
682.66	26.692
682.85	24.019
683.03	23.226
683.22	25.635
683.40	27.178
683.59	24.513
683.77	27.157
683.96	22.610
684.14	27.365
684.33	19.580
684.51	29.734
684.70	24.892
684.88	29.653
685.07	25.523
685.25	27.333
685.44	24.301
685.62	29.203
685.81	22.222
685.99	28.195
686.18	23.802
686.36	28.341
686.55	22.056
686.73	27.903
686.92	27.041
687.10	28.415
687.29	27.678
687.47	28.634
687.65	30.422
687.84	27.160
688.02	29.845
688.21	31.719
688.39	27.387
688.58	31.052
688.76	27.610
688.95	30.916
689.13	27.899
689.32	35.366
689.50	29.645
689.68	31.829
689.87	32.398
690.05	32.416
690.24	31.060
690.42	32.228
690.61	30.584
690.79	33.473
690.98	30.556
691.16	35.693
691.34	29.983
691.53	32.995
691.71	31.789
691.90	34.930
692.08	30.769
692.27	34.779
692.45	34.100
692.63	36.783
692.82	37.066
693.00	38.290
693.19	30.998
693.37	38.511
693.56	32.914
693.74	37.225
693.92	35.779
694.11	36.888
694.29	34.995
694.48	37.814
694.66	34.132
694.84	38.570
695.03	34.848
695.21	39.896
695.40	40.168
695.58	41.575
695.76	39.139
695.95	38.850
696.13	36.840
696.32	39.905
696.50	43.262
696.68	40.924
696.87	36.415
697.05	41.446
697.24	38.329
697.42	41.921
697.60	41.381
697.79	40.423
697.97	40.954
698.16	42.680
698.34	40.911
698.52	43.659
698.71	43.046
698.89	43.249
699.07	44.292
699.26	42.229
699.44	42.690
699.63	45.982
699.81	40.695
699.99	42.993
700.18	42.525
700.36	43.126
700.54	43.742
700.73	46.353
700.91	45.529
701.09	44.935
701.28	44.078
701.46	46.615
701.64	42.717
701.83	46.277
702.01	42.502
702.20	46.113
702.38	46.109
702.56	41.344
702.75	43.319
702.93	44.939
703.11	38.812
703.30	45.068
703.48	44.335
703.66	46.298
703.85	44.874
704.03	48.992
704.21	43.438
704.40	46.695
704.58	41.531
704.76	46.848
704.95	44.932
705.13	46.684
705.31	47.169
705.50	46.599
705.68	43.969
705.86	47.351
706.04	45.729
706.23	47.260
706.41	46.313
706.59	44.559
706.78	42.552
706.96	47.891
707.14	45.788
707.33	52.215
707.51	46.855
707.69	50.859
707.88	44.997
708.06	45.786
708.24	48.481
708.42	50.243
708.61	45.668
708.79	46.543
708.97	47.771
709.16	48.878
709.34	44.497
709.52	48.718
709.71	46.576
709.89	49.307
710.07	44.680
710.25	50.919
710.44	42.630
710.62	54.082
710.80	51.230
710.98	51.962
711.17	48.068
711.35	49.780
711.53	46.341
711.72	51.100
711.90	45.596
712.08	48.690
712.26	49.975
712.45	50.744
712.63	48.065
712.81	48.753
712.99	48.895
713.18	51.752
713.36	50.204
713.54	48.504
713.72	45.393
713.91	47.111
714.09	47.172
714.27	49.922
714.45	48.959
714.64	52.140
714.82	50.130
715.00	51.146
715.18	50.000
715.37	49.098
715.55	47.428
715.73	50.689
715.91	49.650
716.10	51.626
716.28	47.884
716.46	52.585
716.64	45.478
716.83	49.394
717.01	47.801
717.19	49.451
717.37	46.575
717.55	48.849
717.74	46.413
717.92	46.596
718.10	48.066
718.28	48.048
718.47	44.140
718.65	46.693
718.83	46.410
719.01	48.041
719.19	47.402
719.38	44.711
719.56	41.113
719.74	46.725
719.92	39.812
720.10	45.223
720.29	45.657
720.47	47.751
720.65	47.471
720.83	48.437
721.01	44.547
721.20	46.284
721.38	45.118
721.56	50.245
721.74	48.921
721.92	48.499
722.11	43.845
722.29	52.770
722.47	45.836
722.65	50.279
722.83	48.228
723.01	47.196
723.20	48.255
723.38	49.861
723.56	47.744
723.74	51.188
723.92	45.145
724.10	50.355
724.29	41.814
724.47	51.407
724.65	42.523
724.83	50.181
725.01	45.506
725.19	50.401
725.38	49.274
725.56	50.037
725.74	48.248
725.92	48.801
726.10	45.092
726.28	49.666
726.46	48.003
726.65	47.465
726.83	48.637
727.01	52.029
727.19	48.021
727.37	47.639
727.55	49.502
727.73	44.751
727.92	49.583
728.10	51.205
728.28	45.953
728.46	53.185
728.64	47.099
728.82	50.941
729.00	48.727
729.19	52.329
729.37	49.602
729.55	51.401
729.73	47.341
729.91	53.493
730.09	47.494
730.27	54.442
730.45	47.246
730.63	53.211
730.82	47.927
731.00	50.928
731.18	49.116
731.36	51.746
731.54	50.656
731.72	50.951
731.90	49.087
732.08	52.179
732.26	47.733
732.45	51.896
732.63	53.524
732.81	56.734
732.99	49.656
733.17	57.425
733.35	51.088
733.53	52.662
733.71	49.022
733.89	54.466
734.07	52.481
734.25	52.622
734.44	53.851
734.62	54.094
734.80	54.355
734.98	55.417
735.16	56.519
735.34	52.950
735.52	52.008
735.70	54.684
735.88	52.068
736.06	51.896
736.24	54.026
736.42	57.277
736.60	57.602
736.78	62.153
736.97	52.636
737.15	55.812
737.33	53.827
737.51	56.656
737.69	56.686
737.87	53.607
738.05	59.951
738.23	58.432
738.41	54.127
738.59	53.058
738.77	57.828
738.95	64.600
739.13	56.731
739.31	60.236
739.49	56.380
739.67	56.683
739.85	55.466
740.03	54.879
740.21	56.400
740.39	56.459
740.57	59.938
740.75	58.945
740.93	56.963
741.11	61.711
741.30	57.814
741.48	56.010
741.66	57.191
741.84	60.631
742.02	57.179
742.20	62.167
742.38	53.328
742.56	57.719
742.74	58.161
742.92	60.755
743.10	58.674
743.28	59.807
743.46	59.270
743.64	61.410
743.82	57.283
744.00	57.829
744.18	56.387
744.36	60.978
744.54	64.229
744.72	65.979
744.90	59.411
745.08	58.784
745.26	64.293
745.44	60.794
745.62	65.559
745.80	61.713
745.98	58.421
746.16	61.698
746.34	55.751
746.52	70.697
746.70	58.391
746.87	66.667
747.05	62.021
747.23	57.975
747.41	65.000
747.59	57.841
747.77	55.321
747.95	59.938
748.13	60.600
748.31	64.122
748.49	60.442
748.67	59.055
748.85	60.206
749.03	63.400
749.21	57.632
749.39	70.211
749.57	55.068
749.75	61.095
749.93	65.161
750.11	58.877
750.29	60.704
750.47	61.284
750.65	60.976
750.83	68.868
751.01	56.482
751.18	67.273
751.36	61.214
751.54	61.421
751.72	58.442
751.90	61.047
752.08	56.802
752.26	60.775
752.44	61.014
752.62	63.267
752.80	60.062
752.98	66.906
753.16	61.800
753.34	57.157
753.52	58.848
753.69	61.355
753.87	55.885
754.05	68.298
754.23	61.807
754.41	62.059
754.59	64.335
754.77	67.167
754.95	59.614
755.13	66.284
755.31	64.980
755.49	61.207
755.66	59.617
755.84	61.725
756.02	65.740
756.20	63.019
756.38	56.681
756.56	58.681
756.74	60.159
756.92	60.183
757.10	64.615
757.28	64.322
757.45	65.714
757.63	66.923
757.81	58.580
757.99	64.174
758.17	60.981
758.35	63.746
758.53	61.193
758.71	61.934
758.88	55.086
759.06	57.704
759.24	55.910
759.42	51.961
759.60	52.647
759.78	54.309
759.96	45.588
760.13	46.738
760.31	44.017
760.49	44.109
760.67	38.230
760.85	43.021
761.03	38.129
761.21	39.316
761.38	36.496
761.56	42.444
761.74	37.882
761.92	41.262
762.10	31.034
762.28	43.119
762.46	32.500
762.63	42.726
762.81	39.849
762.99	40.525
763.17	37.510
763.35	42.485
763.53	41.654
763.70	47.067
763.88	39.369
764.06	45.904
764.24	40.285
764.42	44.398
764.60	41.053
764.77	48.882
764.95	45.104
765.13	48.108
765.31	47.388
765.49	46.031
765.66	44.008
765.84	49.162
766.02	48.255
766.20	50.704
766.38	47.059
766.56	53.401
766.73	51.036
766.91	51.469
767.09	51.882
767.27	52.220
767.45	53.412
767.62	57.255
767.80	56.000
767.98	56.703
768.16	55.452
768.33	61.314
768.51	57.895
768.69	63.688
768.87	63.938
769.05	58.061
769.22	54.465
769.40	64.932
769.58	65.839
769.76	60.684
769.94	61.463
770.11	68.024
770.29	61.318
770.47	58.795
770.65	63.923
770.82	57.043
771.00	59.948
771.18	68.293
771.36	59.115
771.53	56.386
771.71	65.921
771.89	69.660
772.07	60.383
772.25	64.779
772.42	57.349
772.60	72.687
772.78	61.538
772.96	62.963
773.13	62.775
773.31	55.780
773.49	61.974
773.67	65.544
773.84	60.663
774.02	62.815
774.20	59.562
774.37	63.839
774.55	59.568
774.73	67.445
774.91	60.091
775.08	61.650
775.26	65.789
775.44	66.201
775.62	63.189
775.79	58.680
775.97	62.923
776.15	54.545
776.32	63.636
776.50	69.147
776.68	58.611
776.86	63.820
777.03	63.924
777.21	66.248
777.39	64.006
777.56	62.128
777.74	58.584
777.92	65.229
778.10	55.627
778.27	63.411
778.45	58.447
778.63	66.351
778.80	65.287
778.98	64.622
779.16	75.712
779.34	60.377
779.51	65.184
779.69	70.199
779.87	66.513
780.04	59.437
780.22	60.000
780.40	66.289
780.57	62.041
780.75	61.034
780.93	62.794
781.10	72.583
781.28	68.534
781.46	62.633
781.63	59.339
781.81	60.123
781.99	56.579
782.16	67.715
782.34	61.953
782.52	64.895
782.69	58.533
782.87	64.020
783.05	59.898
783.22	66.786
783.40	54.732
783.58	65.511
783.75	52.234
783.93	68.026
784.11	54.306
784.28	67.301
784.46	55.556
784.64	55.179
784.81	57.885
784.99	62.480
785.17	63.495
785.34	64.947
785.52	63.238
785.69	53.610
785.87	64.618
786.05	61.071
786.22	61.509
786.40	67.701
786.58	65.101
786.75	63.586
786.93	58.979
787.11	56.469
787.28	67.526
787.46	62.094
787.63	64.118
787.81	59.745
787.99	59.930
788.16	59.344
788.34	48.071
788.51	63.902
788.69	59.867
788.87	50.599
789.04	57.360
789.22	55.588
789.39	56.343
789.57	56.607
789.75	52.727
789.92	57.522
790.10	50.502
790.27	55.000
790.45	52.133
790.63	64.912
790.80	50.809
790.98	58.979
791.15	52.174
791.33	58.075
791.51	57.965
791.68	54.758
791.86	49.739
792.03	59.625
792.21	52.206
792.39	54.965
792.56	56.021
792.74	57.467
792.91	56.667
793.09	57.293
793.26	61.426
793.44	56.736
793.62	58.661
793.79	50.895
793.97	67.251
794.14	62.089
794.32	58.835
794.49	57.371
794.67	55.894
794.84	52.621
795.02	56.522
795.20	55.388
795.37	61.000
795.55	54.430
795.72	52.985
795.90	53.996
796.07	63.690
796.25	57.324
796.42	55.594
796.60	50.083
796.77	48.399
796.95	57.505
797.13	50.261
797.30	63.262
797.48	50.247
797.65	55.538
797.83	55.417
798.00	58.209
798.18	48.346
798.35	58.448
798.53	63.107
798.70	45.841
798.88	58.532
799.05	59.893
799.23	46.812
799.40	49.110
799.58	54.435
799.75	59.860
799.93	51.625
800.10	61.466
800.28	53.830
800.45	64.990
800.63	49.810
800.80	56.835
800.98	58.979
801.15	43.682
801.33	49.612
801.50	50.896
801.68	45.652
801.85	57.722
802.03	55.711
802.20	59.394
802.38	55.805
802.55	57.261
802.73	53.565
802.90	55.758
803.08	49.307
803.25	49.900
803.43	53.279
803.60	58.499
803.78	57.564
803.95	42.641
804.13	48.473
804.30	51.678
804.48	56.332
804.65	58.202
804.83	46.076
805.00	60.044
805.17	72.495
805.35	56.354
805.52	49.898
805.70	54.149
805.87	47.328
806.05	53.614
806.22	49.375
806.40	48.204
806.57	55.814
806.75	60.861
806.92	54.527
807.09	62.105
807.27	53.265
807.44	45.776
807.62	50.570
807.79	55.514
807.97	53.800
808.14	48.025
808.31	50.219
808.49	61.229
808.66	51.111
808.84	51.509
809.01	47.356
809.19	51.878
809.36	62.630
809.53	56.293
809.71	58.333
809.88	63.039
810.06	56.455
810.23	59.911
810.41	53.669
810.58	66.019
810.75	54.474
810.93	52.740
811.10	46.725
811.28	45.843
811.45	59.398
811.62	57.545
811.80	40.704
811.97	61.055
812.15	46.697
812.32	53.141
812.49	52.334
812.67	48.926
812.84	47.837
813.02	63.492
813.19	55.690
813.36	59.945
813.54	37.280
813.71	50.773
813.89	47.668
814.06	51.378
814.23	41.765
814.41	51.768
814.58	58.127
814.75	55.858
814.93	54.950
815.10	52.785
815.28	42.537
815.45	45.902
815.62	49.425
815.80	42.690
815.97	36.500
816.14	47.480
816.32	39.276
816.49	32.718
816.66	33.600
816.84	34.624
817.01	39.957
817.18	37.598
817.36	42.674
817.53	52.913
817.71	35.476
817.88	39.120
818.05	46.050
818.23	33.820
818.40	41.333
818.57	47.380
818.75	42.526
818.92	46.617
819.09	34.509
819.27	37.750
819.44	33.017
819.61	30.023
819.79	32.662
819.96	38.128
820.13	40.562
820.31	42.207
820.48	54.175
820.65	46.422
820.82	38.795
821.00	44.597
821.17	32.143
821.34	36.097
821.52	41.259
821.69	33.827
821.86	35.281
822.04	40.775
822.21	36.568
822.38	45.213
822.56	40.430
822.73	44.219
822.90	44.096
823.07	40.799
823.25	43.245
823.42	44.754
823.59	41.708
823.77	43.812
823.94	43.870
824.11	44.891
824.29	43.192
824.46	45.693
824.63	42.824
824.80	42.490
824.98	41.525
825.15	43.190
825.32	41.059
825.49	38.805
825.67	41.244
825.84	44.453
826.01	41.167
826.19	47.417
826.36	36.389
826.53	40.483
826.70	37.608
826.88	40.853
827.05	34.428
827.22	40.653
827.39	39.508
827.57	38.980
827.74	37.192
827.91	42.759
828.08	35.023
828.26	45.274
828.43	36.962
828.60	40.189
828.77	38.293
828.95	42.015
829.12	34.424
829.29	35.681
829.46	34.476
829.64	35.563
829.81	32.123
829.98	40.920
830.15	32.503
830.32	35.958
830.50	24.855
830.67	34.106
830.84	41.667
831.01	43.363
831.19	32.963
831.36	36.255
831.53	36.099
831.70	41.839
831.87	30.932
832.05	44.860
832.22	46.222
832.39	41.844
832.56	30.871
832.74	34.332
832.91	33.416
833.08	46.795
833.25	27.094
833.42	40.501
833.60	36.545
833.77	32.118
833.94	30.192
834.11	30.563
834.28	36.262
834.45	32.360
834.63	29.963
834.80	34.282
834.97	38.401
835.14	31.924
835.31	34.699
835.49	35.556
835.66	34.125
835.83	31.242
836.00	35.723
836.17	36.051
836.34	35.578
836.52	33.589
836.69	40.345
836.86	46.403
837.03	35.028
837.20	37.407
837.37	41.732
837.55	45.833
837.72	28.702
837.89	43.939
838.06	60.286
838.23	39.706
838.40	51.807
838.58	45.245
838.75	47.195
838.92	57.585
839.09	48.454
839.26	60.396
839.43	53.242
839.60	59.159
839.78	70.779
839.95	41.417
840.12	42.662
840.29	62.034
840.46	51.227
840.63	59.248
840.80	52.751
840.98	56.410
841.15	47.500
841.32	43.333
841.49	42.157
841.66	59.241
841.83	57.143
842.00	38.206
842.17	43.182
842.34	42.568
842.52	68.667
842.69	32.542
842.86	51.163
843.03	59.779
843.20	37.165
843.37	72.325
843.54	40.449
843.71	57.143
843.88	77.778
844.06	71.600
844.23	53.333
844.40	54.222
844.57	73.481
844.74	57.317
844.91	49.275
845.08	64.205
845.25	45.411
845.42	73.656
845.59	66.842
845.76	77.436
845.94	65.842
846.11	69.863
846.28	86.905
846.45	91.573
846.62	55.195
846.79	67.808
846.96	83.951
847.13	69.767
847.30	82.069
847.47	61.151
847.64	103.101
847.81	98.305
847.98	58.794
848.15	87.591
848.32	80.503
848.50	113.772
848.67	74.138
848.84	64.384
849.01	50.279
849.18	78.351
849.35	86.719
849.52	73.276
849.69	62.252
849.86	89.116
850.03	89.552
850.20	60.819
850.37	81.513
850.54	55.307
850.71	82.119
850.88	64.804
851.05	54.237
851.22	93.820
851.39	104.505
851.56	101.786
851.73	76.101
851.90	67.081
852.07	81.203
852.24	67.105
852.41	60.000
852.58	96.479
852.75	65.517
852.92	75.610
853.09	77.344
853.26	57.672
853.43	95.283
853.60	71.910
853.77	98.734
853.94	67.883
854.11	90.210
854.28	73.600
854.45	82.031
854.62	86.294
854.79	75.817
854.96	95.200
855.13	91.228
855.30	79.592
855.47	81.034
855.64	102.256
855.81	70.968
855.98	89.683
856.15	89.189
856.32	56.604
856.49	88.372
856.66	76.923
856.83	88.636
857.00	90.196
857.17	56.154
857.34	61.053
857.51	118.705
857.68	108.108
857.85	68.182
858.02	82.963
858.19	66.667
858.36	63.636
858.53	63.226
858.70	74.251
858.87	81.013
859.04	87.097
859.21	56.757
859.38	60.526
859.55	88.060
859.72	104.598
859.89	68.345
860.05	90.090
860.22	90.576
860.39	110.714
860.56	69.466
860.73	103.252
860.90	104.587
861.07	71.053
861.24	62.500
861.41	129.630
861.58	62.500
861.75	88.148
861.92	85.526
862.09	93.333
862.26	92.308
862.43	107.921
862.59	66.176
862.76	121.678
862.93	98.876
863.10	40.952
863.27	61.538
863.44	110.345
863.61	57.664
863.78	88.000
863.95	84.314
864.12	67.816
864.29	70.085
864.45	112.069
864.62	63.277
864.79	59.690
864.96	80.488
865.13	53.153
865.30	91.925
865.47	82.927
865.64	71.942
865.81	85.496
865.97	77.333
866.14	72.789
866.31	76.667
866.48	70.861
866.65	48.718
866.82	76.582
866.99	88.889
867.16	102.256
867.33	83.871
867.49	77.160
867.66	55.670
867.83	72.441
868.00	63.699
868.17	103.306
868.34	100.000
868.51	58.095
868.67	101.899
868.84	58.333
869.01	70.400
869.18	92.908
869.35	58.140
869.52	47.619
869.69	89.726
869.85	79.439
870.02	68.269
870.19	88.136
870.36	102.759
870.53	53.571
870.70	64.151
870.86	80.000
871.03	71.605
871.20	78.899
871.37	95.690
871.54	74.324
871.71	60.714
871.87	55.346
872.04	36.571
872.21	76.522
872.38	108.943
872.55	78.395
872.72	96.875
872.88	75.419
873.05	85.057
873.22	82.993
873.39	81.633
873.56	63.905
873.72	55.294
873.89	82.609
874.06	80.597
874.23	105.932
874.40	92.000
874.56	76.842
874.73	79.268
874.90	53.390
875.07	65.000
875.24	72.050
875.40	98.319
875.57	81.651
875.74	75.200
875.91	41.284
876.08	76.522
876.24	90.698
876.41	96.800
876.58	70.213
876.75	80.851
876.92	69.118
877.08	109.559
877.25	66.087
877.42	85.156
877.59	70.408
877.75	87.333
877.92	59.524
878.09	53.125
878.26	55.689
878.42	76.875
878.59	78.261
878.76	84.868
878.93	108.209
879.09	50.505
879.26	48.780
879.43	70.270
879.60	34.266
879.76	57.955
879.93	51.667
880.10	60.667
880.27	50.311
880.43	45.251
880.60	47.032
880.77	46.023
880.94	40.796
881.10	36.578
881.27	44.590
881.44	26.912
881.61	32.511
881.77	31.931
881.94	28.008
882.11	29.049
882.28	20.712
882.44	18.595
882.61	32.208
882.78	26.692
882.94	34.907
883.11	29.867
883.28	31.477
883.45	28.080
883.61	27.389
883.78	27.091
883.95	31.573
884.11	25.287
884.28	25.129
>>>>>End Processed Spectral Data<<<<<
