SpectraSuite Data File
++++++++++++++++++++++++++++++++++++
Date: Sat Sep 21 03:38:36 EST 2019
User: sgrac
Dark Spectrum Present: Yes
Reference Spectrum Present: Yes
Number of Sampled Component Spectra: 1
Spectrometers: USB4E01596
Integration Time (usec): 100000 (USB4E01596)
Spectra Averaged: 1 (USB4E01596)
Boxcar Smoothing: 0 (USB4E01596)
Correct for Electrical Dark: No (USB4E01596)
Strobe/Lamp Enabled: Yes (USB4E01596)
Correct for Detector Non-linearity: No (USB4E01596)
Correct for Stray Light: No (USB4E01596)
Number of Pixels in Processed Spectrum: 3648
>>>>>Begin Processed Spectral Data<<<<<
178.44	-135.714
178.66	-135.714
178.87	-135.714
179.09	-1071.429
179.30	-484.615
179.52	0.000
179.74	-800.000
179.95	433.333
180.17	573.333
180.38	8100.000
180.60	0.000
180.82	683.333
181.03	-268.421
181.25	321.739
181.46	-100.000
181.68	270.833
181.89	5100.000
182.11	205.714
182.33	-171.111
182.54	-275.000
182.76	-4450.000
182.97	860.000
183.19	2250.000
183.40	210.345
183.62	55.556
183.84	-174.074
184.05	465.217
184.27	241.667
184.48	1171.429
184.70	200.000
184.91	-633.333
185.13	146.667
185.34	-160.714
185.56	98.333
185.78	0.000
185.99	526.667
186.21	279.310
186.42	486.667
186.64	145.161
186.85	403.704
187.07	80.000
187.28	453.333
187.50	-213.333
187.72	1300.000
187.93	-10900.000
188.15	166.000
188.36	-229.412
188.58	-1600.000
188.79	236.364
189.01	316.667
189.22	1200.000
189.44	2600.000
189.65	193.333
189.87	1137.500
190.09	-1840.000
190.30	606.250
190.52	-4050.000
190.73	180.357
190.95	335.714
191.16	257.778
191.38	410.000
191.59	80.952
191.81	183.333
192.02	212.766
192.24	452.941
192.45	-1440.000
192.67	297.143
192.88	450.000
193.10	240.000
193.31	515.000
193.53	-11900.000
193.74	109.756
193.96	454.167
194.18	229.032
194.39	-361.111
194.61	378.947
194.82	395.238
195.04	238.095
195.25	2950.000
195.47	224.390
195.68	161.702
195.90	720.000
196.11	176.364
196.33	146.809
196.54	-3333.333
196.76	235.714
196.97	-1566.667
197.19	278.571
197.40	255.882
197.62	145.312
197.83	191.892
198.05	-378.947
198.26	228.571
198.48	227.778
198.69	197.674
198.91	200.000
199.12	-217.143
199.34	-980.000
199.55	5800.000
199.77	1650.000
199.98	200.000
200.20	136.620
200.41	428.571
200.63	-177.778
200.84	178.431
201.06	646.154
201.27	318.919
201.49	1125.000
201.70	262.963
201.91	180.435
202.13	184.058
202.34	183.019
202.56	-585.714
202.77	311.111
202.99	346.429
203.20	3050.000
203.42	1187.500
203.63	211.628
203.85	331.429
204.06	235.185
204.28	-820.000
204.49	217.143
204.71	135.897
204.92	0.000
205.14	-700.000
205.35	388.889
205.56	-1800.000
205.78	466.667
205.99	770.000
206.21	-145.161
206.42	335.484
206.64	296.429
206.85	1750.000
207.07	-361.538
207.28	528.571
207.50	-421.053
207.71	148.718
207.93	202.273
208.14	611.765
208.35	463.158
208.57	-8000.000
208.78	815.385
209.00	438.889
209.21	-3000.000
209.43	206.897
209.64	235.294
209.86	928.571
210.07	0.000
210.28	-464.706
210.50	173.469
210.71	126.316
210.93	280.952
211.14	-122.222
211.36	-216.129
211.57	-166.667
211.78	-156.522
212.00	0.000
212.21	195.349
212.43	-309.091
212.64	203.448
212.86	-487.500
213.07	-304.545
213.29	113.158
213.50	8100.000
213.71	149.057
213.93	1371.429
214.14	101.515
214.36	8700.000
214.57	350.000
214.78	168.750
215.00	2600.000
215.21	213.889
215.43	284.000
215.64	282.051
215.86	265.714
216.07	5300.000
216.28	288.000
216.50	-1114.286
216.71	-1740.000
216.93	221.277
217.14	346.875
217.35	351.852
217.57	196.429
217.78	837.500
218.00	-500.000
218.21	389.474
218.42	-2400.000
218.64	664.706
218.85	-722.222
219.07	371.429
219.28	1525.000
219.49	118.421
219.71	966.667
219.92	286.111
220.14	279.167
220.35	125.000
220.56	102.564
220.78	300.000
220.99	-6400.000
221.21	500.000
221.42	216.667
221.63	235.000
221.85	154.839
222.06	167.857
222.28	197.727
222.49	-3900.000
222.70	0.000
222.92	277.778
223.13	100.000
223.34	-1475.000
223.56	118.421
223.77	108.989
223.99	292.308
224.20	109.524
224.41	218.919
224.63	288.889
224.84	106.897
225.05	182.143
225.27	152.857
225.48	89.130
225.69	-100.000
225.91	314.815
226.12	197.222
226.34	127.451
226.55	161.111
226.76	158.065
226.98	158.000
227.19	109.091
227.40	72.727
227.62	80.488
227.83	64.000
228.04	50.549
228.26	51.485
228.47	112.069
228.69	36.184
228.90	16.901
229.11	75.556
229.33	22.705
229.54	42.763
229.75	34.783
229.97	12.876
230.18	34.409
230.39	21.519
230.61	22.642
230.82	40.249
231.03	8.299
231.25	41.414
231.46	25.912
231.67	49.407
231.89	41.569
232.10	35.628
232.31	53.365
232.53	37.288
232.74	38.542
232.95	39.759
233.17	43.353
233.38	52.239
233.59	65.441
233.81	62.621
234.02	56.579
234.23	36.898
234.45	42.105
234.66	47.458
234.87	38.255
235.09	63.704
235.30	39.655
235.51	28.155
235.73	49.057
235.94	24.352
236.15	23.980
236.36	45.503
236.58	46.919
236.79	41.361
237.00	23.188
237.22	51.235
237.43	39.216
237.64	29.258
237.86	37.500
238.07	56.281
238.28	28.962
238.50	35.652
238.71	33.136
238.92	22.024
239.13	46.286
239.35	20.979
239.56	52.083
239.77	60.488
239.99	25.943
240.20	22.105
240.41	37.500
240.63	36.437
240.84	30.677
241.05	28.102
241.26	23.967
241.48	19.764
241.69	12.975
241.90	25.070
242.12	29.847
242.33	10.776
242.54	17.271
242.75	18.786
242.97	22.759
243.18	17.508
243.39	15.327
243.61	16.792
243.82	16.503
244.03	12.806
244.24	10.736
244.46	16.741
244.67	14.671
244.88	14.867
245.09	15.860
245.31	6.718
245.52	22.243
245.73	13.230
245.95	18.763
246.16	6.941
246.37	25.000
246.58	11.589
246.80	17.225
247.01	13.424
247.22	13.506
247.43	13.258
247.65	16.164
247.86	8.700
248.07	10.033
248.28	13.033
248.50	10.207
248.71	11.894
248.92	11.499
249.13	8.645
249.35	12.109
249.56	16.070
249.77	8.079
249.98	7.839
250.20	9.556
250.41	16.648
250.62	14.940
250.83	13.991
251.05	15.730
251.26	16.515
251.47	23.063
251.68	14.808
251.90	16.304
252.11	17.770
252.32	19.393
252.53	20.583
252.75	10.240
252.96	19.872
253.17	15.673
253.38	14.054
253.59	10.028
253.81	12.620
254.02	10.558
254.23	21.480
254.44	17.111
254.66	18.347
254.87	16.065
255.08	10.989
255.29	21.486
255.50	15.699
255.72	22.706
255.93	17.518
256.14	14.318
256.35	20.609
256.57	22.310
256.78	28.995
256.99	18.848
257.20	13.835
257.41	24.845
257.63	11.452
257.84	19.087
258.05	9.792
258.26	11.171
258.47	11.807
258.69	13.093
258.90	9.938
259.11	9.048
259.32	13.008
259.53	10.054
259.75	7.322
259.96	5.527
260.17	9.246
260.38	6.634
260.59	7.852
260.81	9.515
261.02	7.833
261.23	12.202
261.44	9.538
261.65	8.290
261.87	5.939
262.08	8.354
262.29	12.752
262.50	8.680
262.71	10.254
262.92	10.566
263.14	11.546
263.35	9.228
263.56	6.118
263.77	14.137
263.98	15.608
264.20	16.321
264.41	8.564
264.62	16.577
264.83	10.169
265.04	18.271
265.25	12.209
265.47	20.091
265.68	13.994
265.89	13.145
266.10	7.895
266.31	19.915
266.52	10.680
266.74	9.132
266.95	7.853
267.16	11.469
267.37	7.750
267.58	6.310
267.79	7.564
268.01	7.143
268.22	13.373
268.43	13.299
268.64	11.309
268.85	9.178
269.06	9.824
269.27	11.386
269.49	12.890
269.70	11.560
269.91	8.751
270.12	9.241
270.33	18.124
270.54	7.231
270.75	6.784
270.97	13.580
271.18	10.462
271.39	10.729
271.60	8.916
271.81	9.237
272.02	12.791
272.23	8.310
272.45	8.465
272.66	6.816
272.87	8.788
273.08	8.614
273.29	10.291
273.50	8.954
273.71	9.726
273.92	11.051
274.14	4.275
274.35	8.907
274.56	10.108
274.77	7.997
274.98	12.695
275.19	8.437
275.40	11.092
275.61	8.934
275.83	12.947
276.04	11.219
276.25	12.647
276.46	7.021
276.67	12.115
276.88	11.996
277.09	8.424
277.30	9.252
277.51	11.934
277.73	2.600
277.94	8.805
278.15	6.166
278.36	10.436
278.57	10.451
278.78	14.900
278.99	13.951
279.20	9.422
279.41	13.313
279.62	10.043
279.84	7.845
280.05	9.937
280.26	10.766
280.47	11.794
280.68	-0.218
280.89	15.577
281.10	12.166
281.31	7.129
281.52	13.526
281.73	14.299
281.94	8.636
282.16	10.127
282.37	11.177
282.58	6.540
282.79	10.243
283.00	12.782
283.21	2.903
283.42	6.626
283.63	4.280
283.84	5.994
284.05	5.703
284.26	7.148
284.47	11.328
284.68	9.807
284.89	8.761
285.11	9.217
285.32	9.344
285.53	7.078
285.74	10.563
285.95	9.110
286.16	7.275
286.37	7.617
286.58	9.114
286.79	10.024
287.00	7.664
287.21	5.931
287.42	7.988
287.63	7.429
287.84	7.987
288.05	6.625
288.26	8.313
288.48	11.749
288.69	6.183
288.90	7.956
289.11	7.878
289.32	8.273
289.53	9.091
289.74	4.500
289.95	7.011
290.16	10.185
290.37	7.741
290.58	6.715
290.79	6.132
291.00	9.515
291.21	5.537
291.42	8.598
291.63	6.376
291.84	9.401
292.05	5.703
292.26	6.855
292.47	9.349
292.68	6.575
292.89	6.125
293.10	9.416
293.31	10.534
293.52	7.640
293.73	5.622
293.94	9.492
294.15	6.667
294.36	4.903
294.57	9.285
294.79	7.680
295.00	5.025
295.21	6.178
295.42	8.003
295.63	6.138
295.84	5.176
296.05	6.154
296.26	6.468
296.47	5.933
296.68	9.235
296.89	7.664
297.10	7.007
297.31	5.422
297.52	7.721
297.73	7.906
297.94	7.359
298.15	5.351
298.36	6.345
298.57	5.385
298.78	7.003
298.99	4.329
299.20	6.301
299.41	7.106
299.62	6.623
299.83	5.266
300.04	6.210
300.25	7.065
300.46	8.993
300.67	6.217
300.88	9.008
301.09	5.726
301.30	9.103
301.50	8.814
301.71	10.692
301.92	8.155
302.13	6.846
302.34	6.383
302.55	5.756
302.76	5.365
302.97	11.674
303.18	7.703
303.39	5.837
303.60	7.799
303.81	7.891
304.02	6.489
304.23	4.263
304.44	6.940
304.65	5.115
304.86	7.314
305.07	5.760
305.28	7.702
305.49	8.052
305.70	4.492
305.91	8.768
306.12	5.036
306.33	3.875
306.54	10.198
306.75	11.049
306.96	9.977
307.17	8.549
307.38	5.420
307.58	9.272
307.79	7.062
308.00	4.676
308.21	8.719
308.42	7.761
308.63	9.892
308.84	6.601
309.05	2.377
309.26	7.943
309.47	7.118
309.68	2.535
309.89	8.720
310.10	6.172
310.31	5.483
310.52	2.544
310.73	7.168
310.94	3.351
311.14	5.263
311.35	4.596
311.56	3.866
311.77	5.299
311.98	5.361
312.19	5.761
312.40	4.353
312.61	5.514
312.82	8.065
313.03	3.840
313.24	6.101
313.45	7.923
313.66	6.512
313.86	6.108
314.07	7.232
314.28	4.771
314.49	7.737
314.70	6.118
314.91	9.534
315.12	8.453
315.33	5.163
315.54	5.563
315.75	4.963
315.96	6.374
316.16	6.897
316.37	6.164
316.58	3.409
316.79	6.772
317.00	7.586
317.21	5.198
317.42	6.337
317.63	10.050
317.84	7.914
318.05	7.983
318.25	10.384
318.46	7.285
318.67	2.802
318.88	10.794
319.09	8.088
319.30	8.172
319.51	5.048
319.72	8.606
319.93	9.647
320.13	5.163
320.34	8.014
320.55	7.692
320.76	7.910
320.97	5.289
321.18	6.042
321.39	5.096
321.60	9.183
321.80	8.399
322.01	5.882
322.22	7.477
322.43	7.583
322.64	3.826
322.85	2.993
323.06	5.359
323.27	6.958
323.47	9.155
323.68	9.084
323.89	4.120
324.10	8.814
324.31	6.156
324.52	8.531
324.73	4.805
324.93	4.744
325.14	5.057
325.35	5.196
325.56	8.140
325.77	7.060
325.98	7.637
326.19	8.984
326.39	4.611
326.60	6.541
326.81	5.441
327.02	5.049
327.23	5.929
327.44	7.665
327.64	6.944
327.85	6.743
328.06	8.462
328.27	10.922
328.48	8.328
328.69	6.015
328.90	6.063
329.10	6.238
329.31	1.391
329.52	8.379
329.73	8.399
329.94	4.986
330.15	6.943
330.35	6.829
330.56	7.248
330.77	5.614
330.98	6.985
331.19	7.021
331.39	6.548
331.60	5.687
331.81	7.114
332.02	9.438
332.23	5.706
332.44	6.992
332.64	5.125
332.85	5.678
333.06	8.762
333.27	5.948
333.48	6.218
333.68	6.852
333.89	6.865
334.10	4.174
334.31	8.918
334.52	7.731
334.72	7.030
334.93	4.620
335.14	7.152
335.35	3.597
335.56	4.718
335.76	5.482
335.97	8.049
336.18	5.562
336.39	6.294
336.60	11.172
336.80	5.965
337.01	6.911
337.22	3.487
337.43	7.043
337.64	3.268
337.84	5.861
338.05	6.584
338.26	7.090
338.47	7.903
338.68	4.837
338.88	3.750
339.09	8.323
339.30	5.982
339.51	3.769
339.71	6.845
339.92	6.747
340.13	6.995
340.34	7.152
340.55	6.272
340.75	6.975
340.96	4.894
341.17	6.094
341.38	5.989
341.58	6.115
341.79	5.076
342.00	6.385
342.21	3.920
342.41	4.139
342.62	5.872
342.83	8.147
343.04	2.852
343.24	4.430
343.45	4.885
343.66	4.484
343.87	6.111
344.07	2.550
344.28	7.181
344.49	6.785
344.70	8.389
344.90	3.724
345.11	5.731
345.32	6.504
345.53	5.754
345.73	2.711
345.94	5.075
346.15	6.115
346.36	4.357
346.56	5.580
346.77	6.026
346.98	6.379
347.19	7.396
347.39	5.918
347.60	5.117
347.81	5.268
348.02	6.126
348.22	3.815
348.43	6.260
348.64	6.572
348.84	5.740
349.05	6.391
349.26	7.667
349.47	7.530
349.67	6.945
349.88	6.511
350.09	5.374
350.30	7.902
350.50	2.879
350.71	6.499
350.92	5.653
351.12	5.651
351.33	5.296
351.54	8.995
351.74	7.053
351.95	5.100
352.16	4.905
352.37	8.181
352.57	4.543
352.78	4.254
352.99	7.571
353.19	5.338
353.40	4.901
353.61	11.268
353.82	5.039
354.02	7.431
354.23	7.500
354.44	6.619
354.64	8.451
354.85	6.565
355.06	6.034
355.26	5.992
355.47	6.816
355.68	5.788
355.88	8.862
356.09	6.210
356.30	4.879
356.51	8.632
356.71	6.948
356.92	5.197
357.13	5.634
357.33	7.829
357.54	5.570
357.75	5.168
357.95	6.363
358.16	4.061
358.37	11.731
358.57	5.667
358.78	8.296
358.99	5.937
359.19	4.406
359.40	6.349
359.61	5.815
359.81	6.681
360.02	6.922
360.23	4.540
360.43	6.075
360.64	5.644
360.85	5.928
361.05	5.269
361.26	8.209
361.47	4.852
361.67	7.123
361.88	3.150
362.09	6.953
362.29	5.062
362.50	5.235
362.70	3.350
362.91	7.660
363.12	3.457
363.32	4.064
363.53	5.857
363.74	7.735
363.94	4.076
364.15	8.115
364.36	7.080
364.56	4.184
364.77	7.014
364.98	8.183
365.18	5.686
365.39	7.361
365.59	5.576
365.80	6.362
366.01	8.115
366.21	4.836
366.42	4.092
366.63	7.070
366.83	6.170
367.04	3.994
367.24	7.933
367.45	5.485
367.66	4.819
367.86	7.323
368.07	6.063
368.28	3.775
368.48	5.917
368.69	3.883
368.89	5.602
369.10	6.839
369.31	7.236
369.51	6.935
369.72	7.226
369.92	8.215
370.13	6.237
370.34	7.190
370.54	3.498
370.75	6.999
370.95	6.128
371.16	6.897
371.37	5.938
371.57	4.479
371.78	6.652
371.98	6.140
372.19	6.778
372.40	8.791
372.60	7.791
372.81	6.252
373.01	5.012
373.22	5.342
373.43	6.709
373.63	7.638
373.84	6.869
374.04	7.133
374.25	4.338
374.46	6.064
374.66	5.901
374.87	5.705
375.07	4.381
375.28	7.166
375.48	5.284
375.69	8.370
375.90	4.357
376.10	6.359
376.31	6.498
376.51	5.631
376.72	5.107
376.92	4.161
377.13	8.096
377.34	8.312
377.54	6.196
377.75	6.943
377.95	8.057
378.16	7.092
378.36	8.279
378.57	7.950
378.77	7.290
378.98	7.309
379.19	8.015
379.39	6.207
379.60	6.708
379.80	7.579
380.01	8.804
380.21	5.322
380.42	8.377
380.62	7.046
380.83	10.078
381.04	7.057
381.24	8.542
381.45	7.732
381.65	6.790
381.86	9.109
382.06	8.646
382.27	5.438
382.47	5.031
382.68	11.315
382.88	6.884
383.09	7.090
383.29	7.812
383.50	11.470
383.71	8.109
383.91	8.556
384.12	7.016
384.32	10.533
384.53	8.736
384.73	7.394
384.94	8.504
385.14	9.415
385.35	9.634
385.55	9.277
385.76	8.832
385.96	11.274
386.17	10.848
386.37	10.983
386.58	9.946
386.78	13.122
386.99	9.431
387.19	13.759
387.40	10.145
387.60	15.929
387.81	10.604
388.01	12.655
388.22	14.236
388.42	16.442
388.63	16.472
388.83	17.502
389.04	9.779
389.24	14.727
389.45	13.050
389.65	11.732
389.86	13.345
390.06	13.992
390.27	13.541
390.47	14.103
390.68	14.649
390.88	21.831
391.09	18.900
391.29	19.290
391.50	17.424
391.70	19.024
391.91	17.224
392.11	20.425
392.32	20.834
392.52	22.967
392.73	18.858
392.93	20.652
393.14	18.804
393.34	21.456
393.55	20.805
393.75	21.942
393.95	20.996
394.16	23.192
394.36	24.678
394.57	25.873
394.77	22.746
394.98	24.101
395.18	24.177
395.39	26.300
395.59	23.082
395.80	25.881
396.00	24.588
396.21	26.184
396.41	24.843
396.61	26.216
396.82	26.300
397.02	29.258
397.23	26.614
397.43	27.192
397.64	23.838
397.84	29.141
398.05	23.544
398.25	28.467
398.45	26.894
398.66	29.207
398.86	27.737
399.07	28.914
399.27	26.851
399.48	29.331
399.68	25.830
399.89	28.272
400.09	27.609
400.29	27.425
400.50	26.244
400.70	28.914
400.91	28.200
401.11	28.019
401.32	27.729
401.52	27.065
401.72	27.565
401.93	31.338
402.13	28.738
402.34	28.579
402.54	28.453
402.75	30.330
402.95	24.980
403.15	30.077
403.36	26.343
403.56	28.995
403.77	27.779
403.97	30.763
404.17	25.917
404.38	29.107
404.58	27.547
404.79	30.702
404.99	29.857
405.19	29.519
405.40	27.691
405.60	29.733
405.81	29.904
406.01	31.013
406.21	28.346
406.42	30.512
406.62	30.358
406.83	30.883
407.03	30.520
407.23	30.681
407.44	28.865
407.64	32.231
407.85	29.173
408.05	30.684
408.25	29.386
408.46	30.144
408.66	30.010
408.87	30.098
409.07	28.187
409.27	28.405
409.48	30.847
409.68	28.671
409.88	26.847
410.09	30.520
410.29	29.296
410.50	28.814
410.70	26.796
410.90	30.964
411.11	26.459
411.31	27.605
411.51	29.865
411.72	30.206
411.92	27.614
412.12	29.970
412.33	27.199
412.53	29.132
412.74	25.721
412.94	29.122
413.14	27.081
413.35	30.498
413.55	27.518
413.75	28.158
413.96	27.244
414.16	28.049
414.36	26.398
414.57	27.771
414.77	27.998
414.97	27.759
415.18	26.463
415.38	28.975
415.58	28.155
415.79	26.503
415.99	26.079
416.19	28.062
416.40	25.806
416.60	29.377
416.80	27.308
417.01	28.139
417.21	26.875
417.41	28.631
417.62	26.843
417.82	26.756
418.02	26.230
418.23	27.270
418.43	27.680
418.63	27.699
418.84	28.085
419.04	27.512
419.24	27.712
419.45	27.358
419.65	26.100
419.85	27.984
420.06	27.797
420.26	28.029
420.46	27.318
420.67	27.192
420.87	26.731
421.07	26.171
421.28	26.915
421.48	28.164
421.68	27.719
421.88	26.810
422.09	27.312
422.29	27.224
422.49	27.063
422.70	27.287
422.90	26.210
423.10	26.913
423.31	27.060
423.51	27.089
423.71	27.174
423.91	27.727
424.12	27.576
424.32	26.468
424.52	26.760
424.73	26.510
424.93	27.081
425.13	26.425
425.33	26.348
425.54	25.702
425.74	26.364
425.94	26.565
426.15	27.369
426.35	26.479
426.55	26.705
426.75	27.365
426.96	27.537
427.16	26.875
427.36	27.273
427.57	27.832
427.77	27.704
427.97	26.798
428.17	26.861
428.38	27.159
428.58	26.421
428.78	26.918
428.98	26.892
429.19	28.651
429.39	25.854
429.59	27.724
429.79	25.581
430.00	26.494
430.20	26.602
430.40	26.738
430.60	25.617
430.81	28.195
431.01	25.554
431.21	27.572
431.41	25.161
431.62	27.483
431.82	27.283
432.02	25.999
432.22	27.043
432.43	27.353
432.63	25.799
432.83	26.043
433.03	26.847
433.24	26.530
433.44	27.685
433.64	26.956
433.84	27.915
434.05	27.350
434.25	26.112
434.45	27.916
434.65	27.657
434.85	27.947
435.06	27.880
435.26	28.428
435.46	28.521
435.66	27.505
435.87	27.312
436.07	28.098
436.27	28.242
436.47	29.216
436.67	27.766
436.88	27.809
437.08	28.702
437.28	27.994
437.48	28.749
437.69	27.837
437.89	28.926
438.09	28.930
438.29	28.356
438.49	28.960
438.70	28.691
438.90	28.918
439.10	28.271
439.30	29.501
439.50	28.006
439.71	27.643
439.91	28.191
440.11	28.089
440.31	28.539
440.51	28.371
440.72	28.724
440.92	28.574
441.12	28.983
441.32	28.466
441.52	29.384
441.72	29.044
441.93	29.032
442.13	28.627
442.33	28.933
442.53	29.714
442.73	29.859
442.94	29.436
443.14	29.689
443.34	29.837
443.54	30.326
443.74	29.941
443.94	30.949
444.15	30.147
444.35	30.322
444.55	29.900
444.75	29.748
444.95	29.735
445.15	29.028
445.36	30.029
445.56	29.878
445.76	29.659
445.96	29.782
446.16	28.798
446.36	28.924
446.57	29.727
446.77	28.969
446.97	29.311
447.17	29.934
447.37	29.353
447.57	28.416
447.77	29.835
447.98	30.416
448.18	30.174
448.38	29.626
448.58	29.603
448.78	30.458
448.98	30.168
449.18	29.586
449.39	29.691
449.59	30.783
449.79	30.710
449.99	30.715
450.19	30.160
450.39	30.313
450.59	30.917
450.79	30.636
451.00	31.638
451.20	30.672
451.40	30.623
451.60	30.693
451.80	30.487
452.00	30.534
452.20	30.663
452.40	30.371
452.61	30.627
452.81	31.112
453.01	30.181
453.21	29.251
453.41	30.610
453.61	30.645
453.81	30.378
454.01	29.668
454.21	31.535
454.42	31.084
454.62	30.476
454.82	30.468
455.02	30.008
455.22	30.605
455.42	31.079
455.62	29.642
455.82	31.200
456.02	30.788
456.23	30.551
456.43	30.477
456.63	31.552
456.83	31.096
457.03	30.444
457.23	29.984
457.43	30.438
457.63	29.796
457.83	30.027
458.03	30.732
458.23	30.638
458.43	30.593
458.64	29.901
458.84	30.418
459.04	30.566
459.24	28.283
459.44	29.590
459.64	29.038
459.84	29.128
460.04	30.073
460.24	29.183
460.44	29.861
460.64	29.612
460.84	30.081
461.04	29.560
461.24	30.022
461.45	30.032
461.65	31.136
461.85	30.070
462.05	31.510
462.25	30.580
462.45	31.579
462.65	31.077
462.85	30.920
463.05	30.655
463.25	31.316
463.45	30.688
463.65	30.510
463.85	30.944
464.05	29.586
464.25	29.696
464.45	30.888
464.65	29.934
464.85	29.243
465.05	31.707
465.26	30.750
465.46	29.973
465.66	31.337
465.86	30.646
466.06	31.109
466.26	30.437
466.46	29.906
466.66	31.026
466.86	30.859
467.06	29.580
467.26	29.075
467.46	29.706
467.66	31.038
467.86	30.723
468.06	30.378
468.26	30.746
468.46	31.029
468.66	30.505
468.86	29.910
469.06	30.505
469.26	30.480
469.46	30.786
469.66	30.027
469.86	30.716
470.06	30.192
470.26	31.499
470.46	31.412
470.66	30.344
470.86	30.613
471.06	30.323
471.26	29.867
471.46	29.548
471.66	29.990
471.86	31.068
472.06	30.761
472.26	30.802
472.46	31.236
472.66	30.878
472.86	31.714
473.06	30.454
473.26	30.169
473.46	30.385
473.66	30.667
473.86	30.628
474.06	32.369
474.26	30.786
474.46	31.129
474.66	30.660
474.86	31.400
475.06	30.844
475.26	30.727
475.46	30.785
475.66	30.638
475.86	30.574
476.06	30.932
476.26	30.328
476.46	30.762
476.66	30.417
476.86	30.730
477.06	31.086
477.26	30.591
477.46	31.067
477.65	30.676
477.85	31.109
478.05	31.485
478.25	30.972
478.45	31.307
478.65	31.049
478.85	31.757
479.05	30.295
479.25	30.466
479.45	31.728
479.65	30.656
479.85	31.753
480.05	31.053
480.25	32.148
480.45	31.103
480.65	30.570
480.85	31.062
481.05	31.376
481.25	30.858
481.44	30.389
481.64	31.144
481.84	30.995
482.04	30.618
482.24	31.297
482.44	30.556
482.64	30.465
482.84	30.463
483.04	31.126
483.24	30.428
483.44	29.943
483.64	29.457
483.84	29.061
484.04	30.158
484.23	30.455
484.43	31.130
484.63	30.842
484.83	31.748
485.03	31.641
485.23	31.718
485.43	31.615
485.63	32.329
485.83	32.361
486.03	31.793
486.23	32.329
486.42	31.999
486.62	31.577
486.82	31.433
487.02	31.008
487.22	31.638
487.42	30.625
487.62	31.172
487.82	30.462
488.02	30.643
488.22	30.687
488.41	31.136
488.61	30.900
488.81	31.141
489.01	31.285
489.21	31.056
489.41	31.506
489.61	31.479
489.81	31.008
490.01	31.842
490.20	31.736
490.40	31.730
490.60	31.779
490.80	31.309
491.00	31.427
491.20	30.936
491.40	30.310
491.60	30.698
491.79	30.456
491.99	30.562
492.19	30.699
492.39	30.735
492.59	29.975
492.79	30.307
492.99	30.573
493.19	31.438
493.38	31.463
493.58	31.728
493.78	31.531
493.98	31.845
494.18	31.975
494.38	31.636
494.58	31.523
494.77	30.422
494.97	31.509
495.17	32.385
495.37	30.644
495.57	31.114
495.77	31.022
495.96	30.874
496.16	30.896
496.36	30.273
496.56	31.214
496.76	30.539
496.96	30.637
497.15	30.345
497.35	30.960
497.55	30.842
497.75	31.333
497.95	30.978
498.15	29.445
498.34	30.179
498.54	31.448
498.74	30.928
498.94	30.626
499.14	31.562
499.34	30.956
499.53	30.678
499.73	30.910
499.93	32.593
500.13	30.747
500.33	31.049
500.52	30.574
500.72	30.590
500.92	31.912
501.12	32.046
501.32	31.152
501.52	31.472
501.71	31.309
501.91	31.270
502.11	32.059
502.31	31.505
502.51	32.161
502.70	32.518
502.90	31.338
503.10	31.217
503.30	31.589
503.50	32.317
503.69	31.748
503.89	31.801
504.09	31.184
504.29	31.573
504.48	32.235
504.68	31.313
504.88	31.796
505.08	31.011
505.28	31.667
505.47	32.000
505.67	32.969
505.87	33.156
506.07	31.979
506.27	31.036
506.46	32.285
506.66	32.834
506.86	33.570
507.06	32.258
507.25	33.040
507.45	32.767
507.65	33.023
507.85	33.393
508.04	32.633
508.24	32.977
508.44	32.529
508.64	32.527
508.83	32.460
509.03	33.573
509.23	32.774
509.43	32.966
509.63	32.946
509.82	33.478
510.02	33.293
510.22	33.128
510.42	33.365
510.61	33.476
510.81	34.557
511.01	34.546
511.21	33.910
511.40	34.660
511.60	35.923
511.80	34.982
511.99	35.089
512.19	34.612
512.39	34.905
512.59	34.815
512.78	35.078
512.98	35.201
513.18	35.040
513.38	34.822
513.57	36.003
513.77	35.910
513.97	35.145
514.17	35.813
514.36	36.875
514.56	36.304
514.76	36.146
514.95	36.596
515.15	36.607
515.35	36.808
515.55	36.219
515.74	38.478
515.94	37.243
516.14	36.971
516.33	37.488
516.53	38.137
516.73	36.739
516.93	38.152
517.12	37.360
517.32	37.813
517.52	36.523
517.71	37.846
517.91	37.250
518.11	36.716
518.30	36.861
518.50	36.410
518.70	36.252
518.90	36.795
519.09	36.254
519.29	36.884
519.49	35.961
519.68	36.879
519.88	37.002
520.08	37.197
520.27	36.517
520.47	37.472
520.67	37.574
520.86	37.051
521.06	37.656
521.26	37.531
521.45	37.332
521.65	37.815
521.85	38.158
522.04	37.778
522.24	38.266
522.44	38.076
522.63	37.617
522.83	38.392
523.03	38.425
523.22	37.760
523.42	38.171
523.62	38.329
523.81	38.485
524.01	38.760
524.21	38.064
524.40	37.014
524.60	37.522
524.80	36.747
524.99	37.427
525.19	36.963
525.39	36.898
525.58	36.972
525.78	37.096
525.98	36.318
526.17	36.370
526.37	36.758
526.57	36.400
526.76	36.526
526.96	36.764
527.15	36.391
527.35	35.549
527.55	36.232
527.74	36.023
527.94	35.661
528.14	35.964
528.33	35.504
528.53	34.632
528.72	34.985
528.92	34.807
529.12	35.347
529.31	35.118
529.51	35.669
529.71	35.597
529.90	35.744
530.10	36.186
530.29	36.767
530.49	36.569
530.69	37.551
530.88	36.481
531.08	35.972
531.28	36.767
531.47	37.296
531.67	36.178
531.86	37.003
532.06	36.533
532.26	35.563
532.45	36.516
532.65	36.384
532.84	34.751
533.04	35.124
533.24	34.955
533.43	35.213
533.63	35.757
533.82	34.988
534.02	34.415
534.22	35.717
534.41	34.404
534.61	35.417
534.80	35.297
535.00	36.235
535.19	36.367
535.39	36.801
535.59	36.390
535.78	35.888
535.98	35.463
536.17	36.106
536.37	35.925
536.57	36.461
536.76	35.190
536.96	35.700
537.15	35.914
537.35	36.826
537.54	36.061
537.74	36.062
537.93	35.875
538.13	36.515
538.33	36.587
538.52	35.971
538.72	36.704
538.91	36.843
539.11	36.902
539.30	36.179
539.50	36.270
539.70	35.913
539.89	36.803
540.09	35.117
540.28	35.985
540.48	35.164
540.67	34.419
540.87	35.074
541.06	35.060
541.26	34.420
541.45	34.642
541.65	35.127
541.85	34.085
542.04	35.181
542.24	34.828
542.43	34.586
542.63	35.062
542.82	36.269
543.02	35.563
543.21	36.362
543.41	35.942
543.60	36.948
543.80	35.752
543.99	35.685
544.19	36.247
544.38	36.421
544.58	36.098
544.77	36.475
544.97	35.793
545.16	36.444
545.36	36.021
545.56	37.460
545.75	36.638
545.95	36.061
546.14	35.655
546.34	36.714
546.53	36.291
546.73	36.686
546.92	35.339
547.12	36.614
547.31	36.456
547.51	36.457
547.70	37.298
547.90	36.636
548.09	37.390
548.29	36.176
548.48	36.927
548.68	37.348
548.87	36.712
549.07	36.216
549.26	36.900
549.46	36.382
549.65	37.278
549.84	36.796
550.04	37.375
550.23	37.043
550.43	38.063
550.62	38.172
550.82	37.401
551.01	37.097
551.21	37.711
551.40	37.514
551.60	37.515
551.79	38.275
551.99	37.802
552.18	36.807
552.38	36.630
552.57	37.401
552.77	37.190
552.96	36.732
553.16	37.417
553.35	36.620
553.54	36.778
553.74	37.345
553.93	37.614
554.13	37.648
554.32	37.932
554.52	38.567
554.71	37.432
554.91	38.022
555.10	37.659
555.29	36.777
555.49	38.551
555.68	38.964
555.88	38.134
556.07	38.118
556.27	37.814
556.46	38.560
556.66	38.357
556.85	38.844
557.04	38.284
557.24	38.693
557.43	37.919
557.63	38.743
557.82	38.396
558.02	38.799
558.21	38.604
558.40	38.010
558.60	37.342
558.79	38.021
558.99	37.248
559.18	36.899
559.38	37.438
559.57	37.905
559.76	37.990
559.96	39.413
560.15	38.602
560.35	39.991
560.54	38.572
560.73	37.455
560.93	38.379
561.12	37.812
561.32	37.005
561.51	37.081
561.70	37.814
561.90	37.811
562.09	38.751
562.29	37.513
562.48	38.299
562.67	37.845
562.87	38.389
563.06	37.605
563.26	38.060
563.45	37.815
563.64	38.117
563.84	36.705
564.03	38.377
564.23	37.532
564.42	37.122
564.61	36.803
564.81	37.485
565.00	38.415
565.20	37.045
565.39	36.968
565.58	36.621
565.78	36.885
565.97	36.303
566.16	36.944
566.36	37.311
566.55	36.686
566.74	36.711
566.94	37.752
567.13	36.524
567.33	36.142
567.52	37.208
567.71	36.555
567.91	36.656
568.10	36.922
568.29	36.963
568.49	36.590
568.68	36.631
568.87	36.358
569.07	36.611
569.26	36.127
569.45	36.930
569.65	36.144
569.84	36.242
570.04	35.895
570.23	35.436
570.42	35.571
570.62	37.159
570.81	35.966
571.00	36.074
571.20	35.074
571.39	36.448
571.58	36.086
571.78	35.230
571.97	36.368
572.16	35.355
572.36	35.215
572.55	35.573
572.74	35.633
572.94	34.844
573.13	35.905
573.32	36.205
573.51	34.682
573.71	35.015
573.90	35.635
574.09	35.800
574.29	34.421
574.48	34.375
574.67	34.886
574.87	34.868
575.06	34.758
575.25	34.670
575.45	34.473
575.64	33.746
575.83	35.397
576.03	35.505
576.22	33.457
576.41	34.100
576.60	34.074
576.80	34.755
576.99	34.464
577.18	34.590
577.38	33.315
577.57	34.564
577.76	34.400
577.95	34.880
578.15	33.990
578.34	34.792
578.53	35.013
578.73	34.935
578.92	34.543
579.11	35.287
579.30	34.149
579.50	36.043
579.69	35.341
579.88	35.224
580.08	34.832
580.27	34.566
580.46	35.819
580.65	34.552
580.85	35.093
581.04	34.535
581.23	34.482
581.42	34.955
581.62	33.764
581.81	34.453
582.00	33.546
582.19	33.992
582.39	34.710
582.58	34.436
582.77	33.680
582.96	34.260
583.16	34.332
583.35	35.318
583.54	33.958
583.73	34.556
583.93	35.094
584.12	34.305
584.31	34.970
584.50	34.736
584.70	34.367
584.89	34.602
585.08	35.166
585.27	34.503
585.47	35.841
585.66	33.928
585.85	35.519
586.04	34.442
586.24	34.175
586.43	34.264
586.62	33.943
586.81	35.573
587.00	33.223
587.20	34.343
587.39	34.213
587.58	36.461
587.77	35.493
587.97	35.276
588.16	35.028
588.35	33.909
588.54	35.029
588.73	34.561
588.93	36.778
589.12	34.609
589.31	34.962
589.50	36.535
589.69	35.363
589.89	36.422
590.08	35.380
590.27	36.671
590.46	34.061
590.65	36.145
590.85	35.137
591.04	36.283
591.23	36.853
591.42	36.266
591.61	35.347
591.81	36.614
592.00	35.690
592.19	36.640
592.38	36.534
592.57	36.476
592.77	36.303
592.96	37.235
593.15	36.347
593.34	36.352
593.53	36.957
593.72	37.774
593.92	37.862
594.11	37.917
594.30	39.321
594.49	37.276
594.68	38.760
594.87	38.016
595.07	37.443
595.26	36.841
595.45	37.450
595.64	38.233
595.83	37.349
596.02	39.093
596.22	38.650
596.41	38.681
596.60	38.157
596.79	38.205
596.98	38.059
597.17	38.652
597.37	37.846
597.56	38.725
597.75	38.321
597.94	39.758
598.13	40.198
598.32	38.946
598.51	40.094
598.71	41.121
598.90	40.812
599.09	40.215
599.28	41.020
599.47	40.023
599.66	40.666
599.85	39.844
600.05	38.925
600.24	40.633
600.43	40.524
600.62	41.986
600.81	40.124
601.00	42.969
601.19	41.440
601.38	40.853
601.58	41.660
601.77	41.232
601.96	41.858
602.15	43.027
602.34	41.791
602.53	41.482
602.72	43.230
602.91	43.206
603.10	41.664
603.30	42.519
603.49	43.142
603.68	44.127
603.87	42.952
604.06	42.123
604.25	43.416
604.44	42.086
604.63	41.502
604.82	43.285
605.01	43.609
605.21	43.923
605.40	43.555
605.59	43.786
605.78	43.762
605.97	45.160
606.16	43.873
606.35	44.999
606.54	44.926
606.73	44.647
606.92	44.853
607.11	44.826
607.30	44.433
607.50	45.700
607.69	44.960
607.88	43.795
608.07	44.955
608.26	43.169
608.45	45.589
608.64	45.095
608.83	46.421
609.02	45.017
609.21	43.587
609.40	44.521
609.59	44.887
609.78	45.208
609.97	44.641
610.16	46.043
610.35	45.247
610.55	45.681
610.74	45.158
610.93	44.643
611.12	45.660
611.31	45.394
611.50	46.058
611.69	45.980
611.88	45.584
612.07	47.476
612.26	45.473
612.45	46.891
612.64	44.341
612.83	46.833
613.02	45.907
613.21	46.639
613.40	44.854
613.59	47.031
613.78	44.430
613.97	47.593
614.16	45.483
614.35	46.833
614.54	46.919
614.73	46.108
614.92	44.682
615.11	45.446
615.30	45.693
615.49	46.163
615.68	45.953
615.87	46.086
616.07	45.857
616.26	46.916
616.45	45.887
616.64	46.770
616.83	46.429
617.02	45.997
617.21	44.681
617.40	46.506
617.59	44.491
617.78	46.765
617.97	44.709
618.16	45.618
618.35	45.558
618.54	44.206
618.73	45.113
618.92	45.567
619.11	47.083
619.30	47.711
619.49	43.964
619.68	46.791
619.86	47.625
620.05	45.411
620.24	45.418
620.43	45.063
620.62	47.351
620.81	46.298
621.00	46.065
621.19	47.679
621.38	45.174
621.57	47.377
621.76	45.465
621.95	46.776
622.14	46.197
622.33	49.373
622.52	46.283
622.71	45.721
622.90	46.932
623.09	46.460
623.28	47.142
623.47	46.053
623.66	45.709
623.85	47.265
624.04	46.894
624.23	45.353
624.42	45.988
624.61	46.832
624.80	45.609
624.99	45.372
625.18	45.416
625.36	46.106
625.55	46.711
625.74	45.293
625.93	47.233
626.12	45.936
626.31	46.281
626.50	45.008
626.69	45.225
626.88	46.569
627.07	46.467
627.26	45.051
627.45	45.178
627.64	45.134
627.83	43.077
628.02	44.469
628.20	45.351
628.39	46.193
628.58	46.245
628.77	46.132
628.96	45.021
629.15	46.744
629.34	45.701
629.53	44.604
629.72	46.480
629.91	46.540
630.10	45.942
630.29	44.698
630.47	45.811
630.66	44.730
630.85	45.330
631.04	44.894
631.23	45.601
631.42	46.283
631.61	45.376
631.80	45.630
631.99	46.343
632.18	45.552
632.36	45.394
632.55	44.553
632.74	45.363
632.93	45.964
633.12	44.841
633.31	46.009
633.50	44.956
633.69	45.381
633.88	44.762
634.06	46.472
634.25	45.288
634.44	43.990
634.63	45.665
634.82	45.143
635.01	44.935
635.20	46.309
635.39	46.272
635.57	45.820
635.76	47.893
635.95	45.143
636.14	46.354
636.33	47.216
636.52	43.914
636.71	45.796
636.89	45.190
637.08	47.343
637.27	42.940
637.46	48.122
637.65	44.226
637.84	43.329
638.03	46.777
638.21	47.387
638.40	45.818
638.59	46.557
638.78	44.086
638.97	46.776
639.16	45.476
639.34	44.710
639.53	44.495
639.72	45.935
639.91	46.313
640.10	44.681
640.29	43.704
640.47	45.316
640.66	44.895
640.85	45.472
641.04	42.372
641.23	44.571
641.42	44.787
641.60	46.350
641.79	44.249
641.98	45.748
642.17	44.076
642.36	45.702
642.54	44.137
642.73	45.093
642.92	43.557
643.11	45.558
643.30	44.698
643.49	43.859
643.67	45.419
643.86	45.644
644.05	45.504
644.24	46.140
644.43	44.302
644.61	44.382
644.80	43.630
644.99	46.028
645.18	46.337
645.37	44.025
645.55	43.480
645.74	46.156
645.93	47.024
646.12	45.040
646.31	43.868
646.49	43.510
646.68	43.323
646.87	44.189
647.06	42.454
647.24	43.820
647.43	44.707
647.62	45.463
647.81	43.210
648.00	45.383
648.18	44.542
648.37	46.228
648.56	44.819
648.75	46.101
648.93	44.202
649.12	45.273
649.31	43.074
649.50	44.481
649.68	41.987
649.87	43.748
650.06	42.978
650.25	45.059
650.43	46.018
650.62	45.339
650.81	44.658
651.00	44.641
651.18	44.005
651.37	44.744
651.56	44.581
651.75	44.683
651.93	44.565
652.12	44.236
652.31	42.636
652.50	46.006
652.68	45.064
652.87	45.035
653.06	43.295
653.25	45.196
653.43	43.959
653.62	45.873
653.81	44.227
654.00	45.977
654.18	43.314
654.37	44.875
654.56	43.124
654.74	44.411
654.93	42.094
655.12	43.954
655.31	41.993
655.49	44.090
655.68	42.091
655.87	43.855
656.05	41.770
656.24	43.276
656.43	40.846
656.62	44.459
656.80	42.783
656.99	42.820
657.18	41.121
657.36	42.218
657.55	43.531
657.74	43.299
657.93	43.748
658.11	42.608
658.30	41.927
658.49	41.541
658.67	40.336
658.86	41.501
659.05	38.824
659.23	40.822
659.42	42.180
659.61	42.239
659.79	39.362
659.98	39.890
660.17	38.927
660.35	41.312
660.54	39.593
660.73	43.089
660.91	39.995
661.10	41.602
661.29	39.669
661.47	40.942
661.66	39.305
661.85	41.541
662.03	40.216
662.22	38.938
662.41	36.970
662.59	40.383
662.78	35.922
662.97	39.386
663.15	38.040
663.34	36.306
663.53	35.180
663.71	37.645
663.90	36.388
664.09	38.756
664.27	34.337
664.46	36.386
664.65	33.463
664.83	36.377
665.02	31.712
665.21	34.424
665.39	30.494
665.58	35.637
665.77	33.821
665.95	33.309
666.14	31.119
666.32	36.404
666.51	32.436
666.70	32.137
666.88	32.086
667.07	36.085
667.26	29.465
667.44	34.559
667.63	31.715
667.81	31.013
668.00	32.718
668.19	33.574
668.37	30.314
668.56	35.371
668.75	27.452
668.93	36.581
669.12	29.765
669.30	34.482
669.49	28.571
669.68	31.844
669.86	31.938
670.05	33.391
670.23	29.693
670.42	31.131
670.61	30.190
670.79	33.941
670.98	29.031
671.16	35.115
671.35	29.934
671.54	32.428
671.72	31.060
671.91	31.823
672.09	29.214
672.28	34.704
672.46	32.431
672.65	32.159
672.84	34.395
673.02	34.534
673.21	24.509
673.39	32.431
673.58	29.659
673.77	32.367
673.95	28.052
674.14	33.615
674.32	26.870
674.51	33.460
674.69	28.878
674.88	31.491
675.07	28.549
675.25	36.938
675.44	30.234
675.62	32.835
675.81	28.043
675.99	35.847
676.18	33.808
676.36	33.612
676.55	25.696
676.74	34.793
676.92	31.811
677.11	35.153
677.29	29.805
677.48	33.868
677.66	31.216
677.85	33.452
678.03	28.694
678.22	33.900
678.40	31.226
678.59	33.424
678.78	29.464
678.96	32.973
679.15	30.631
679.33	36.442
679.52	35.570
679.70	34.430
679.89	34.043
680.07	36.924
680.26	32.789
680.44	37.146
680.63	36.178
680.81	35.640
681.00	31.484
681.18	38.588
681.37	34.509
681.55	36.626
681.74	39.849
681.92	39.601
682.11	35.637
682.29	38.744
682.48	37.787
682.66	39.544
682.85	36.831
683.03	38.778
683.22	38.365
683.40	37.770
683.59	35.671
683.77	39.268
683.96	34.824
684.14	38.809
684.33	33.931
684.51	39.848
684.70	40.750
684.88	41.404
685.07	37.800
685.25	41.485
685.44	37.495
685.62	42.510
685.81	38.343
685.99	40.974
686.18	39.000
686.36	43.399
686.55	35.605
686.73	43.710
686.92	41.617
687.10	43.413
687.29	42.768
687.47	43.485
687.65	41.470
687.84	40.973
688.02	43.295
688.21	47.031
688.39	38.714
688.58	48.980
688.76	45.053
688.95	46.453
689.13	45.742
689.32	47.237
689.50	47.162
689.68	46.334
689.87	45.469
690.05	45.690
690.24	47.001
690.42	49.263
690.61	46.954
690.79	50.606
690.98	47.554
691.16	49.809
691.34	46.392
691.53	50.782
691.71	48.852
691.90	50.566
692.08	46.518
692.27	50.575
692.45	51.261
692.63	50.655
692.82	50.960
693.00	53.979
693.19	47.070
693.37	54.184
693.56	49.978
693.74	55.694
693.92	53.025
694.11	54.894
694.29	51.994
694.48	55.513
694.66	53.594
694.84	56.162
695.03	50.505
695.21	55.076
695.40	54.743
695.58	55.593
695.76	50.191
695.95	54.220
696.13	53.689
696.32	54.515
696.50	59.108
696.68	56.536
696.87	53.408
697.05	56.816
697.24	54.617
697.42	59.809
697.60	55.623
697.79	59.915
697.97	58.018
698.16	59.262
698.34	56.948
698.52	60.261
698.71	59.159
698.89	58.644
699.07	57.392
699.26	57.585
699.44	55.205
699.63	58.805
699.81	58.321
699.99	58.131
700.18	57.622
700.36	61.028
700.54	60.820
700.73	59.520
700.91	62.693
701.09	60.575
701.28	57.057
701.46	63.115
701.64	61.170
701.83	63.216
702.01	62.467
702.20	61.175
702.38	59.660
702.56	60.659
702.75	62.653
702.93	62.157
703.11	58.170
703.30	61.042
703.48	61.486
703.66	63.129
703.85	63.017
704.03	65.559
704.21	64.425
704.40	64.392
704.58	62.649
704.76	63.913
704.95	59.459
705.13	59.737
705.31	64.949
705.50	65.613
705.68	56.743
705.86	63.962
706.04	58.403
706.23	67.729
706.41	61.229
706.59	61.697
706.78	58.434
706.96	66.591
707.14	63.239
707.33	68.873
707.51	63.935
707.69	65.928
707.88	64.338
708.06	63.404
708.24	66.760
708.42	65.353
708.61	59.037
708.79	64.344
708.97	63.566
709.16	65.812
709.34	65.608
709.52	60.897
709.71	64.511
709.89	66.844
710.07	62.943
710.25	66.865
710.44	61.877
710.62	65.252
710.80	64.887
710.98	65.845
711.17	61.365
711.35	64.478
711.53	62.703
711.72	66.200
711.90	64.721
712.08	66.734
712.26	64.218
712.45	64.931
712.63	66.121
712.81	69.313
712.99	64.936
713.18	69.832
713.36	65.714
713.54	63.932
713.72	63.979
713.91	63.665
714.09	66.217
714.27	64.000
714.45	65.245
714.64	67.902
714.82	63.015
715.00	66.021
715.18	66.809
715.37	67.728
715.55	64.506
715.73	66.769
715.91	66.134
716.10	68.534
716.28	62.500
716.46	65.274
716.64	61.230
716.83	67.273
717.01	64.408
717.19	63.822
717.37	65.389
717.55	66.161
717.74	66.522
717.92	66.908
718.10	62.344
718.28	63.991
718.47	65.306
718.65	65.008
718.83	61.689
719.01	67.631
719.19	64.272
719.38	62.854
719.56	58.254
719.74	65.627
719.92	55.987
720.10	60.127
720.29	59.972
720.47	61.632
720.65	60.148
720.83	63.151
721.01	63.535
721.20	66.149
721.38	64.983
721.56	67.040
721.74	64.022
721.92	65.894
722.11	62.932
722.29	68.075
722.47	58.913
722.65	64.854
722.83	67.968
723.01	60.876
723.20	64.036
723.38	63.750
723.56	65.721
723.74	67.963
723.92	58.986
724.10	62.270
724.29	61.375
724.47	66.593
724.65	58.824
724.83	67.534
725.01	61.056
725.19	68.563
725.38	63.484
725.56	65.279
725.74	63.504
725.92	64.669
726.10	59.957
726.28	68.199
726.46	68.935
726.65	66.197
726.83	64.554
727.01	70.870
727.19	59.021
727.37	69.722
727.55	62.233
727.73	67.610
727.92	64.861
728.10	67.938
728.28	62.483
728.46	66.120
728.64	66.194
728.82	63.425
729.00	65.952
729.19	69.521
729.37	65.451
729.55	66.624
729.73	62.257
729.91	71.983
730.09	63.753
730.27	66.117
730.45	62.865
730.63	65.596
730.82	62.694
731.00	65.782
731.18	64.626
731.36	65.968
731.54	63.583
731.72	66.286
731.90	62.451
732.08	67.244
732.26	66.933
732.45	68.078
732.63	68.750
732.81	70.527
732.99	62.648
733.17	70.045
733.35	63.956
733.53	70.686
733.71	64.038
733.89	72.392
734.07	68.511
734.25	65.356
734.44	68.989
734.62	67.956
734.80	65.091
734.98	70.650
735.16	70.559
735.34	66.098
735.52	64.123
735.70	68.192
735.88	65.879
736.06	69.740
736.24	69.912
736.42	67.684
736.60	69.984
736.78	74.012
736.97	66.693
737.15	74.114
737.33	67.243
737.51	70.211
737.69	69.893
737.87	68.735
738.05	69.537
738.23	73.001
738.41	65.000
738.59	72.810
738.77	69.529
738.95	73.328
739.13	67.388
739.31	70.157
739.49	66.427
739.67	73.108
739.85	65.992
740.03	70.804
740.21	66.098
740.39	72.249
740.57	69.492
740.75	71.865
740.93	65.303
741.11	71.844
741.30	66.802
741.48	72.036
741.66	69.816
741.84	71.512
742.02	65.043
742.20	73.801
742.38	65.900
742.56	71.140
742.74	74.031
742.92	71.115
743.10	67.393
743.28	72.657
743.46	68.258
743.64	72.171
743.82	69.795
744.00	73.583
744.18	70.073
744.36	69.511
744.54	70.553
744.72	77.601
744.90	71.863
745.08	75.579
745.26	71.902
745.44	75.702
745.62	68.580
745.80	71.620
745.98	74.310
746.16	71.076
746.34	74.093
746.52	70.184
746.70	68.302
746.87	73.846
747.05	75.745
747.23	71.063
747.41	71.596
747.59	74.440
747.77	72.892
747.95	73.944
748.13	71.562
748.31	73.569
748.49	72.289
748.67	74.409
748.85	69.897
749.03	74.800
749.21	69.178
749.39	73.019
749.57	69.981
749.75	69.306
749.93	75.301
750.11	75.426
750.29	67.174
750.47	74.824
750.65	67.805
750.83	75.472
751.01	64.121
751.18	78.182
751.36	72.634
751.54	73.909
751.72	69.730
751.90	70.252
752.08	69.215
752.26	75.273
752.44	67.189
752.62	75.941
752.80	74.127
752.98	77.287
753.16	74.800
753.34	69.923
753.52	71.099
753.69	72.996
753.87	68.038
754.05	77.268
754.23	71.253
754.41	71.961
754.59	73.596
754.77	72.072
754.95	71.304
755.13	78.601
755.31	74.798
755.49	78.161
755.66	70.191
755.84	70.446
756.02	69.712
756.20	73.019
756.38	69.624
756.56	68.574
756.74	69.323
756.92	70.570
757.10	71.385
757.28	71.457
757.45	71.217
757.63	74.945
757.81	66.371
757.99	73.520
758.17	78.465
758.35	74.589
758.53	75.269
758.71	70.493
758.88	65.451
759.06	74.975
759.24	60.600
759.42	63.235
759.60	63.736
759.78	67.735
759.96	57.157
760.13	65.823
760.31	52.350
760.49	64.070
760.67	49.529
760.85	54.876
761.03	50.201
761.21	55.840
761.38	45.595
761.56	52.612
761.74	50.954
761.92	57.864
762.10	45.573
762.28	59.083
762.46	47.778
762.63	55.352
762.81	51.936
762.99	58.799
763.17	51.576
763.35	56.399
763.53	53.726
763.70	62.303
763.88	59.122
764.06	62.809
764.24	59.845
764.42	62.253
764.60	58.408
764.77	63.021
764.95	58.457
765.13	65.646
765.31	62.492
765.49	64.725
765.66	61.846
765.84	64.804
766.02	61.767
766.20	64.122
766.38	59.893
766.56	70.918
766.73	64.940
766.91	65.323
767.09	64.695
767.27	62.253
767.45	61.965
767.62	74.118
767.80	69.171
767.98	68.520
768.16	63.759
768.33	70.907
768.51	64.211
768.69	76.289
768.87	67.699
769.05	74.065
769.22	60.198
769.40	73.190
769.58	72.174
769.76	71.306
769.94	73.902
770.11	70.659
770.29	69.652
770.47	74.908
770.65	70.218
770.82	66.473
771.00	71.189
771.18	70.000
771.36	66.927
771.53	66.747
771.71	68.158
771.89	70.884
772.07	63.661
772.25	80.249
772.42	61.024
772.60	87.225
772.78	68.215
772.96	74.968
773.13	68.819
773.31	70.430
773.49	68.940
773.67	75.651
773.84	69.597
774.02	74.074
774.20	64.088
774.37	73.992
774.55	68.633
774.73	73.364
774.91	73.596
775.08	76.122
775.26	73.538
775.44	73.464
775.62	66.766
775.79	63.271
775.97	63.077
776.15	65.767
776.32	65.485
776.50	73.488
776.68	67.873
776.86	74.379
777.03	73.418
777.21	76.295
777.39	70.537
777.56	69.014
777.74	60.542
777.92	70.236
778.10	63.505
778.27	79.690
778.45	63.166
778.63	73.460
778.80	63.057
778.98	63.338
779.16	76.047
779.34	66.618
779.51	65.491
779.69	76.159
779.87	67.127
780.04	62.113
780.22	64.559
780.40	68.839
780.57	70.175
780.75	70.391
780.93	69.074
781.10	78.559
781.28	74.629
781.46	66.014
781.63	60.661
781.81	69.172
781.99	70.395
782.16	64.238
782.34	59.596
782.52	67.150
782.69	65.419
782.87	74.831
783.05	68.190
783.22	64.286
783.40	63.880
783.58	67.071
783.75	63.918
783.93	74.225
784.11	71.002
784.28	68.512
784.46	60.141
784.64	69.464
784.81	70.789
784.99	65.539
785.17	79.612
785.34	69.395
785.52	58.095
785.69	68.051
785.87	66.108
786.05	65.357
786.22	73.208
786.40	75.000
786.58	63.926
786.75	62.477
786.93	64.965
787.11	68.007
787.28	57.045
787.46	69.314
787.63	68.627
787.81	70.492
787.99	63.972
788.16	62.951
788.34	55.627
788.51	63.748
788.69	54.726
788.87	64.970
789.04	58.422
789.22	60.668
789.39	61.944
789.57	65.165
789.75	57.355
789.92	66.224
790.10	55.667
790.27	63.143
790.45	61.137
790.63	62.201
790.80	57.120
790.98	57.394
791.15	61.025
791.33	66.232
791.51	58.157
791.68	62.837
791.86	66.435
792.03	67.973
792.21	55.515
792.39	67.730
792.56	51.309
792.74	69.376
792.91	63.333
793.09	63.620
793.26	67.715
793.44	64.137
793.62	55.906
793.79	64.016
793.97	65.692
794.14	60.155
794.32	56.426
794.49	69.094
794.67	52.846
794.84	64.990
795.02	57.278
795.20	54.631
795.37	64.600
795.55	55.515
795.72	64.925
795.90	66.667
796.07	65.278
796.25	61.844
796.42	51.399
796.60	56.093
796.77	54.804
796.95	67.993
797.13	57.565
797.30	65.950
797.48	49.753
797.65	51.364
797.83	50.089
798.00	63.433
798.18	57.904
798.35	65.000
798.53	64.854
798.70	55.221
798.88	67.659
799.05	60.071
799.23	59.381
799.40	56.050
799.58	62.957
799.75	65.620
799.93	58.700
800.10	62.594
800.28	62.112
800.45	66.398
800.63	52.662
800.80	68.345
800.98	60.870
801.15	54.693
801.33	54.457
801.50	58.065
801.68	54.565
801.85	61.390
802.03	60.521
802.20	68.081
802.38	55.431
802.55	62.656
802.73	55.684
802.90	49.091
803.08	62.376
803.25	67.936
803.43	58.402
803.60	63.135
803.78	51.473
803.95	63.636
804.13	61.641
804.30	61.521
804.48	52.838
804.65	56.854
804.83	50.704
805.00	65.563
805.17	65.032
805.35	58.564
805.52	54.990
805.70	63.278
805.87	59.542
806.05	60.241
806.22	59.792
806.40	55.009
806.57	62.597
806.75	67.213
806.92	61.111
807.09	66.737
807.27	56.735
807.44	70.334
807.62	60.646
807.79	54.019
807.97	50.600
808.14	66.736
808.31	46.053
808.49	67.376
808.66	51.605
808.84	54.125
809.01	65.747
809.19	59.155
809.36	68.267
809.53	55.149
809.71	62.393
809.88	65.533
810.06	55.580
810.23	63.697
810.41	54.927
810.58	76.456
810.75	57.632
810.93	59.132
811.10	44.541
811.28	52.135
811.45	57.393
811.62	62.148
811.80	43.719
811.97	63.317
812.15	60.820
812.32	60.209
812.49	53.808
812.67	46.301
812.84	50.721
813.02	61.905
813.19	53.753
813.36	58.287
813.54	40.050
813.71	48.711
813.89	52.332
814.06	50.627
814.23	51.471
814.41	57.071
814.58	51.515
814.75	58.856
814.93	53.465
815.10	46.950
815.28	50.000
815.45	48.946
815.62	54.023
815.80	39.181
815.97	35.750
816.14	38.727
816.32	47.028
816.49	40.106
816.66	35.733
816.84	35.080
817.01	43.629
817.18	46.475
817.36	52.442
817.53	44.175
817.71	48.843
817.88	50.463
818.05	48.758
818.23	43.066
818.40	38.133
818.57	51.936
818.75	44.000
818.92	47.619
819.09	39.547
819.27	40.750
819.44	44.656
819.61	40.647
819.79	45.414
819.96	41.553
820.13	47.791
820.31	48.336
820.48	59.063
820.65	55.963
820.82	42.750
821.00	51.630
821.17	42.411
821.34	47.321
821.52	46.154
821.69	52.469
821.86	43.219
822.04	53.598
822.21	57.376
822.38	60.306
822.56	58.777
822.73	60.142
822.90	59.419
823.07	58.436
823.25	58.580
823.42	58.642
823.59	62.637
823.77	61.701
823.94	61.113
824.11	62.701
824.29	61.189
824.46	60.633
824.63	63.937
824.80	64.180
824.98	62.527
825.15	61.067
825.32	56.885
825.49	59.748
825.67	58.184
825.84	59.320
826.01	59.750
826.19	63.250
826.36	56.204
826.53	57.819
826.70	54.833
826.88	60.379
827.05	50.657
827.22	50.817
827.39	52.459
827.57	50.576
827.74	54.844
827.91	55.945
828.08	48.128
828.26	59.730
828.43	51.259
828.60	62.490
828.77	53.577
828.95	58.149
829.12	46.198
829.29	52.300
829.46	45.238
829.64	50.212
829.81	43.927
829.98	50.995
830.15	45.953
830.32	46.719
830.50	33.721
830.67	44.868
830.84	42.754
831.01	41.947
831.19	46.667
831.36	45.418
831.53	46.413
831.70	49.425
831.87	33.475
832.05	46.262
832.22	56.444
832.39	42.080
832.56	50.923
832.74	38.249
832.91	38.404
833.08	45.513
833.25	36.207
833.42	40.084
833.60	47.091
833.77	45.660
833.94	46.166
834.11	42.895
834.28	37.871
834.45	42.944
834.63	46.650
834.80	51.822
834.97	47.410
835.14	44.494
835.31	42.093
835.49	49.942
835.66	46.375
835.83	49.040
836.00	46.667
836.17	45.478
836.34	47.291
836.52	44.785
836.69	47.881
836.86	46.043
837.03	48.588
837.20	41.481
837.37	41.339
837.55	42.083
837.72	37.130
837.89	48.485
838.06	53.714
838.23	56.863
838.40	50.000
838.58	34.294
838.75	36.634
838.92	58.514
839.09	57.388
839.26	54.785
839.43	78.157
839.60	48.649
839.78	68.182
839.95	43.597
840.12	48.123
840.29	67.797
840.46	54.601
840.63	57.994
840.80	55.663
840.98	66.667
841.15	63.750
841.32	57.273
841.49	39.542
841.66	57.215
841.83	48.137
842.00	59.136
842.17	45.455
842.34	49.324
842.52	63.333
842.69	40.339
842.86	53.876
843.03	67.897
843.20	47.893
843.37	53.875
843.54	38.577
843.71	53.571
843.88	73.778
844.06	67.200
844.23	57.619
844.40	52.889
844.57	62.983
844.74	79.878
844.91	48.309
845.08	76.136
845.25	55.072
845.42	74.731
845.59	50.000
845.76	58.462
845.94	62.376
846.11	87.671
846.28	82.143
846.45	95.506
846.62	62.338
846.79	76.712
846.96	56.173
847.13	71.512
847.30	78.621
847.47	71.942
847.64	109.302
847.81	115.254
847.98	54.271
848.15	88.321
848.32	68.553
848.50	89.820
848.67	63.793
848.84	58.219
849.01	62.570
849.18	60.825
849.35	87.500
849.52	56.034
849.69	77.483
849.86	83.673
850.03	98.507
850.20	78.363
850.37	67.227
850.54	62.570
850.71	94.702
850.88	77.654
851.05	93.220
851.22	71.348
851.39	111.712
851.56	62.500
851.73	62.264
851.90	68.323
852.07	109.023
852.24	88.158
852.41	89.524
852.58	78.169
852.75	73.563
852.92	65.366
853.09	104.687
853.26	52.381
853.43	94.340
853.60	71.910
853.77	129.114
853.94	64.234
854.11	72.028
854.28	73.600
854.45	58.594
854.62	77.157
854.79	88.235
854.96	91.200
855.13	63.158
855.30	81.633
855.47	112.069
855.64	87.970
855.81	45.699
855.98	73.810
856.15	71.171
856.32	48.428
856.49	76.744
856.66	71.329
856.83	60.606
857.00	66.013
857.17	90.769
857.34	30.526
857.51	74.820
857.68	76.216
857.85	79.545
858.02	87.407
858.19	82.883
858.36	74.545
858.53	74.194
858.70	62.874
858.87	65.823
859.04	92.742
859.21	42.568
859.38	81.579
859.55	120.149
859.72	98.851
859.89	79.856
860.05	108.108
860.22	63.351
860.39	105.357
860.56	81.679
860.73	129.268
860.90	111.927
861.07	55.921
861.24	65.132
861.41	139.815
861.58	69.792
861.75	97.037
861.92	67.105
862.09	87.407
862.26	105.983
862.43	100.000
862.59	59.559
862.76	92.308
862.93	78.652
863.10	63.810
863.27	61.538
863.44	112.644
863.61	54.745
863.78	73.714
863.95	83.007
864.12	74.713
864.29	78.632
864.45	77.586
864.62	57.062
864.79	56.589
864.96	70.732
865.13	61.261
865.30	91.304
865.47	80.488
865.64	82.014
865.81	48.092
865.97	78.667
866.14	91.156
866.31	76.667
866.48	78.808
866.65	65.385
866.82	91.772
866.99	73.504
867.16	72.180
867.33	88.172
867.49	78.395
867.66	82.474
867.83	73.228
868.00	79.452
868.17	63.636
868.34	108.772
868.51	73.333
868.67	88.608
868.84	48.333
869.01	93.600
869.18	58.156
869.35	73.643
869.52	79.365
869.69	47.260
869.85	111.215
870.02	57.692
870.19	87.288
870.36	102.759
870.53	26.429
870.70	78.616
870.86	46.000
871.03	49.383
871.20	41.284
871.37	72.414
871.54	79.054
871.71	61.429
871.87	59.748
872.04	43.429
872.21	86.957
872.38	51.220
872.55	79.012
872.72	50.000
872.88	84.358
873.05	93.103
873.22	72.109
873.39	122.449
873.56	57.988
873.72	51.765
873.89	66.460
874.06	8.955
874.23	78.814
874.40	60.000
874.56	131.579
874.73	123.171
874.90	93.220
875.07	61.429
875.24	54.658
875.40	102.521
875.57	94.495
875.74	88.000
875.91	56.881
876.08	95.652
876.24	73.256
876.41	113.600
876.58	51.064
876.75	60.993
876.92	40.441
877.08	66.912
877.25	73.043
877.42	93.750
877.59	72.449
877.75	58.667
877.92	41.667
878.09	102.083
878.26	85.629
878.42	61.875
878.59	84.348
878.76	58.553
878.93	94.776
879.09	13.131
879.26	68.293
879.43	65.946
879.60	47.552
879.76	48.864
879.93	56.111
880.10	46.000
880.27	45.963
880.43	59.218
880.60	45.205
880.77	34.659
880.94	26.866
881.10	38.348
881.27	33.443
881.44	26.346
881.61	36.996
881.77	41.109
881.94	35.108
882.11	34.859
882.28	27.184
882.44	29.339
882.61	41.350
882.78	39.223
882.94	45.590
883.11	44.740
883.28	40.920
883.45	38.957
883.61	34.607
883.78	38.634
883.95	41.432
884.11	36.782
884.28	35.180
>>>>>End Processed Spectral Data<<<<<
