SpectraSuite Data File
++++++++++++++++++++++++++++++++++++
Date: Sat Sep 21 03:45:38 EST 2019
User: sgrac
Dark Spectrum Present: Yes
Reference Spectrum Present: Yes
Number of Sampled Component Spectra: 1
Spectrometers: USB4E01596
Integration Time (usec): 100000 (USB4E01596)
Spectra Averaged: 1 (USB4E01596)
Boxcar Smoothing: 0 (USB4E01596)
Correct for Electrical Dark: No (USB4E01596)
Strobe/Lamp Enabled: Yes (USB4E01596)
Correct for Detector Non-linearity: No (USB4E01596)
Correct for Stray Light: No (USB4E01596)
Number of Pixels in Processed Spectrum: 3648
>>>>>Begin Processed Spectral Data<<<<<
178.44	-64.286
178.66	-64.286
178.87	-64.286
179.09	-342.857
179.30	-707.692
179.52	0.000
179.74	-1675.000
179.95	633.333
180.17	600.000
180.38	7100.000
180.60	0.000
180.82	383.333
181.03	-205.263
181.25	56.522
181.46	-183.871
181.68	370.833
181.89	8700.000
182.11	234.286
182.33	-177.778
182.54	-212.500
182.76	-4900.000
182.97	680.000
183.19	1550.000
183.40	182.759
183.62	-185.185
183.84	-200.000
184.05	534.783
184.27	350.000
184.48	1200.000
184.70	180.000
184.91	-526.667
185.13	171.111
185.34	-189.286
185.56	166.667
185.78	0.000
185.99	566.667
186.21	275.862
186.42	593.333
186.64	172.581
186.85	248.148
187.07	134.545
187.28	553.333
187.50	-400.000
187.72	1520.000
187.93	-5100.000
188.15	192.000
188.36	-276.471
188.58	-2450.000
188.79	263.636
189.01	200.000
189.22	960.000
189.44	3550.000
189.65	200.000
189.87	387.500
190.09	-1720.000
190.30	643.750
190.52	-3400.000
190.73	169.643
190.95	342.857
191.16	228.889
191.38	910.000
191.59	223.810
191.81	150.000
192.02	191.489
192.24	476.471
192.45	-1360.000
192.67	357.143
192.88	525.000
193.10	240.000
193.31	475.000
193.53	-9500.000
193.74	143.902
193.96	395.833
194.18	245.161
194.39	-311.111
194.61	436.842
194.82	361.905
195.04	238.095
195.25	5400.000
195.47	207.317
195.68	253.191
195.90	860.000
196.11	183.636
196.33	244.681
196.54	-2966.667
196.76	353.571
196.97	-2266.667
197.19	267.857
197.40	241.176
197.62	185.938
197.83	158.108
198.05	-431.579
198.26	348.571
198.48	211.111
198.69	195.349
198.91	321.569
199.12	-177.143
199.34	-720.000
199.55	5700.000
199.77	1375.000
199.98	364.000
200.20	142.254
200.41	657.143
200.63	-266.667
200.84	156.863
201.06	638.462
201.27	354.054
201.49	1475.000
201.70	277.778
201.91	241.304
202.13	184.058
202.34	235.849
202.56	-1185.714
202.77	1155.556
202.99	460.714
203.20	4650.000
203.42	1387.500
203.63	223.256
203.85	157.143
204.06	242.593
204.28	-660.000
204.49	202.857
204.71	146.154
204.92	0.000
205.14	-178.571
205.35	350.000
205.56	-1320.000
205.78	457.143
205.99	930.000
206.21	-274.194
206.42	209.677
206.64	332.143
206.85	1200.000
207.07	-538.462
207.28	300.000
207.50	-331.579
207.71	171.795
207.93	134.091
208.14	541.176
208.35	436.842
208.57	-7000.000
208.78	515.385
209.00	400.000
209.21	-2100.000
209.43	244.828
209.64	238.235
209.86	900.000
210.07	0.000
210.28	-405.882
210.50	175.510
210.71	261.404
210.93	519.048
211.14	-455.556
211.36	-119.355
211.57	-290.476
211.78	-113.043
212.00	0.000
212.21	193.023
212.43	-331.818
212.64	168.966
212.86	-912.500
213.07	-181.818
213.29	218.421
213.50	8000.000
213.71	175.472
213.93	1142.857
214.14	150.000
214.36	5700.000
214.57	311.538
214.78	581.250
215.00	3350.000
215.21	233.333
215.43	244.000
215.64	279.487
215.86	302.857
216.07	8100.000
216.28	236.000
216.50	-657.143
216.71	-1120.000
216.93	257.447
217.14	140.625
217.35	514.815
217.57	275.000
217.78	750.000
218.00	-220.000
218.21	431.579
218.42	-2833.333
218.64	552.941
218.85	-566.667
219.07	450.000
219.28	1775.000
219.49	151.316
219.71	500.000
219.92	288.889
220.14	216.667
220.35	325.000
220.56	56.410
220.78	182.353
220.99	-6400.000
221.21	319.048
221.42	441.667
221.63	235.000
221.85	135.484
222.06	253.571
222.28	236.364
222.49	-3750.000
222.70	0.000
222.92	316.667
223.13	163.333
223.34	-1250.000
223.56	97.368
223.77	108.989
223.99	241.026
224.20	138.095
224.41	162.162
224.63	325.000
224.84	175.862
225.05	264.286
225.27	141.429
225.48	108.696
225.69	457.143
225.91	225.926
226.12	327.778
226.34	88.235
226.55	101.852
226.76	138.710
226.98	120.000
227.19	104.545
227.40	47.934
227.62	103.659
227.83	77.000
228.04	81.319
228.26	79.208
228.47	60.345
228.69	52.632
228.90	54.930
229.11	53.333
229.33	29.952
229.54	49.342
229.75	35.652
229.97	22.747
230.18	13.620
230.39	13.924
230.61	29.560
230.82	41.909
231.03	14.108
231.25	28.620
231.46	31.387
231.67	35.968
231.89	48.627
232.10	29.960
232.31	38.942
232.53	23.164
232.74	29.687
232.95	50.602
233.17	37.572
233.38	50.000
233.59	53.676
233.81	60.194
234.02	55.263
234.23	42.246
234.45	64.474
234.66	49.718
234.87	42.282
235.09	37.778
235.30	40.805
235.51	50.000
235.73	50.943
235.94	27.979
236.15	40.816
236.36	46.561
236.58	42.180
236.79	41.361
237.00	24.155
237.22	58.642
237.43	22.549
237.64	20.961
237.86	33.152
238.07	53.769
238.28	46.995
238.50	40.000
238.71	28.994
238.92	28.571
239.13	37.714
239.35	35.664
239.56	48.438
239.77	57.561
239.99	32.075
240.20	31.053
240.41	30.172
240.63	28.745
240.84	40.637
241.05	21.168
241.26	23.967
241.48	34.513
241.69	18.671
241.90	14.930
242.12	16.582
242.33	16.810
242.54	12.580
242.75	15.560
242.97	19.138
243.18	12.963
243.39	16.071
243.61	8.996
243.82	8.392
244.03	13.381
244.24	10.123
244.46	9.778
244.67	9.731
244.88	16.275
245.09	17.529
245.31	8.829
245.52	21.875
245.73	21.595
245.95	21.962
246.16	3.037
246.37	25.775
246.58	11.589
246.80	13.078
247.01	10.558
247.22	16.494
247.43	11.910
247.65	11.207
247.86	10.362
248.07	6.438
248.28	11.611
248.50	7.322
248.71	10.866
248.92	8.224
249.13	8.059
249.35	10.625
249.56	9.742
249.77	8.797
249.98	7.553
250.20	10.333
250.41	15.642
250.62	8.434
250.83	16.348
251.05	14.928
251.26	13.249
251.47	17.117
251.68	11.335
251.90	15.942
252.11	14.983
252.32	10.793
252.53	15.073
252.75	9.600
252.96	22.436
253.17	14.702
253.38	14.054
253.59	7.910
253.81	11.248
254.02	15.535
254.23	16.255
254.44	19.309
254.66	16.198
254.87	12.455
255.08	16.300
255.29	13.052
255.50	21.935
255.72	17.661
255.93	18.248
256.14	22.727
256.35	22.951
256.57	14.961
256.78	18.265
256.99	14.660
257.20	11.650
257.41	25.880
257.63	15.337
257.84	19.710
258.05	13.958
258.26	11.892
258.47	10.018
258.69	11.620
258.90	11.491
259.11	5.616
259.32	9.079
259.53	6.300
259.75	8.962
259.96	5.118
260.17	6.732
260.38	8.333
260.59	9.926
260.81	6.897
261.02	7.770
261.23	9.251
261.44	4.389
261.65	7.024
261.87	1.818
262.08	6.608
262.29	7.651
262.50	11.478
262.71	6.441
262.92	9.045
263.14	13.873
263.35	10.331
263.56	7.529
263.77	10.545
263.98	10.582
264.20	18.005
264.41	4.558
264.62	16.173
264.83	9.040
265.04	14.644
265.25	14.244
265.47	13.595
265.68	13.703
265.89	11.314
266.10	7.401
266.31	21.195
266.52	12.344
266.74	5.936
266.95	8.508
267.16	11.469
267.37	9.500
267.58	3.333
267.79	7.786
268.01	3.846
268.22	15.070
268.43	9.175
268.64	11.937
268.85	4.696
269.06	6.101
269.27	10.097
269.49	9.044
269.70	10.550
269.91	9.285
270.12	10.561
270.33	12.223
270.54	10.640
270.75	4.211
270.97	11.934
271.18	8.821
271.39	9.818
271.60	11.044
271.81	7.257
272.02	10.733
272.23	6.741
272.45	4.279
272.66	4.988
272.87	7.765
273.08	5.989
273.29	8.484
273.50	6.697
273.71	9.878
273.92	6.754
274.14	5.365
274.35	4.291
274.56	8.796
274.77	4.204
274.98	9.664
275.19	11.545
275.40	7.739
275.61	5.860
275.83	14.300
276.04	7.447
276.25	10.882
276.46	6.720
276.67	8.830
276.88	7.653
277.09	4.658
277.30	8.940
277.51	12.449
277.73	4.400
277.94	8.805
278.15	6.166
278.36	5.471
278.57	4.303
278.78	11.900
278.99	11.220
279.20	9.850
279.41	11.890
279.62	9.615
279.84	7.646
280.05	10.042
280.26	10.248
280.47	6.149
280.68	-0.109
280.89	12.308
281.10	9.792
281.31	5.418
281.52	12.220
281.73	9.819
281.94	10.091
282.16	5.425
282.37	11.262
282.58	8.030
282.79	12.091
283.00	9.524
283.21	6.129
283.42	7.242
283.63	5.837
283.84	8.833
284.05	7.952
284.26	6.993
284.47	4.766
284.68	9.646
284.89	6.788
285.11	8.602
285.32	7.762
285.53	3.464
285.74	8.756
285.95	8.425
286.16	6.019
286.37	6.901
286.58	5.908
286.79	7.503
287.00	5.900
287.21	5.457
287.42	5.621
287.63	4.776
287.84	3.962
288.05	4.606
288.26	6.614
288.48	6.208
288.69	4.973
288.90	4.015
289.11	7.452
289.32	6.331
289.53	5.499
289.74	2.857
289.95	7.159
290.16	8.832
290.37	4.785
290.58	7.004
290.79	5.054
291.00	8.350
291.21	3.560
291.42	5.291
291.63	4.104
291.84	8.139
292.05	4.775
292.26	6.470
292.47	7.415
292.68	4.863
292.89	8.190
293.10	7.226
293.31	6.710
293.52	7.110
293.73	7.068
293.94	8.904
294.15	6.590
294.36	1.868
294.57	7.763
294.79	8.766
295.00	4.738
295.21	6.394
295.42	7.376
295.63	7.209
295.84	5.383
296.05	4.895
296.26	5.692
296.47	5.669
296.68	6.515
296.89	6.630
297.10	5.532
297.31	5.993
297.52	7.192
297.73	5.393
297.94	8.720
298.15	3.780
298.36	6.632
298.57	4.327
298.78	6.611
298.99	2.237
299.20	4.200
299.41	3.112
299.62	6.572
299.83	3.493
300.04	4.025
300.25	6.720
300.46	6.595
300.67	4.762
300.88	7.115
301.09	6.476
301.30	4.688
301.50	8.944
301.71	6.639
301.92	7.019
302.13	6.654
302.34	8.245
302.55	5.461
302.76	5.365
302.97	7.736
303.18	3.960
303.39	5.134
303.60	3.552
303.81	7.174
304.02	6.489
304.23	7.477
304.44	5.899
304.65	5.856
304.86	5.400
305.07	5.832
305.28	6.789
305.49	8.052
305.70	6.842
305.91	8.635
306.12	5.180
306.33	7.336
306.54	6.970
306.75	6.193
306.96	7.579
307.17	6.106
307.38	4.580
307.58	7.280
307.79	7.821
308.00	7.089
308.21	9.954
308.42	7.313
308.63	10.896
308.84	6.671
309.05	4.755
309.26	6.809
309.47	7.258
309.68	4.577
309.89	6.370
310.10	6.983
310.31	6.791
310.52	4.785
310.73	6.332
310.94	5.266
311.14	4.164
311.35	2.036
311.56	3.025
311.77	5.527
311.98	5.033
312.19	5.543
312.40	3.373
312.61	4.324
312.82	5.000
313.03	4.334
313.24	7.031
313.45	4.754
313.66	5.116
313.86	5.030
314.07	4.031
314.28	4.052
314.49	6.047
314.70	6.050
314.91	6.504
315.12	7.157
315.33	5.870
315.54	7.143
315.75	4.896
315.96	6.799
316.16	6.207
316.37	6.849
316.58	4.947
316.79	5.260
317.00	5.379
317.21	3.352
317.42	5.014
317.63	4.989
317.84	5.540
318.05	6.723
318.25	6.615
318.46	5.298
318.67	4.867
318.88	8.635
319.09	4.191
319.30	5.950
319.51	6.088
319.72	7.071
319.93	7.127
320.13	5.375
320.34	6.241
320.55	5.843
320.76	6.967
320.97	7.076
321.18	6.042
321.39	3.545
321.60	5.206
321.80	7.448
322.01	7.313
322.22	5.763
322.43	5.608
322.64	3.902
322.85	3.530
323.06	4.649
323.27	4.663
323.47	8.764
323.68	9.520
323.89	4.419
324.10	6.237
324.31	6.224
324.52	5.315
324.73	6.623
324.93	7.051
325.14	2.994
325.35	7.029
325.56	6.426
325.77	6.814
325.98	5.072
326.19	6.506
326.39	5.732
326.60	3.019
326.81	5.066
327.02	7.360
327.23	3.569
327.44	7.311
327.64	5.556
327.85	4.835
328.06	6.686
328.27	6.929
328.48	4.470
328.69	2.820
328.90	4.340
329.10	5.839
329.31	2.990
329.52	5.450
329.73	8.333
329.94	5.471
330.15	2.804
330.35	8.293
330.56	2.752
330.77	3.219
330.98	10.611
331.19	4.840
331.39	7.231
331.60	2.635
331.81	6.707
332.02	7.697
332.23	6.134
332.44	3.694
332.64	5.338
332.85	7.816
333.06	6.095
333.27	3.987
333.48	6.662
333.68	5.247
333.89	3.696
334.10	2.741
334.31	6.641
334.52	5.237
334.72	6.424
334.93	4.742
335.14	8.481
335.35	4.916
335.56	4.780
335.76	5.734
335.97	6.463
336.18	4.944
336.39	6.929
336.60	7.631
336.80	5.234
337.01	6.310
337.22	2.600
337.43	7.529
337.64	6.597
337.84	5.006
338.05	8.466
338.26	6.690
338.47	6.536
338.68	6.106
338.88	5.774
339.09	4.850
339.30	4.164
339.51	6.478
339.71	5.336
339.92	8.651
340.13	5.734
340.34	6.412
340.55	5.914
340.75	7.517
340.96	6.767
341.17	4.814
341.38	1.996
341.58	3.436
341.79	5.257
342.00	4.452
342.21	4.272
342.41	2.999
342.62	5.017
342.83	6.864
343.04	3.651
343.24	3.855
343.45	7.586
343.66	5.549
343.87	6.000
344.07	4.545
344.28	3.780
344.49	6.947
344.70	8.333
344.90	5.451
345.11	4.017
345.32	6.134
345.53	5.434
345.73	3.765
345.94	5.645
346.15	5.550
346.36	3.850
346.56	5.776
346.77	5.478
346.98	5.776
347.19	5.227
347.39	6.837
347.60	4.661
347.81	7.275
348.02	5.819
348.22	2.955
348.43	3.638
348.64	7.777
348.84	6.978
349.05	6.561
349.26	8.500
349.47	4.659
349.67	5.697
349.88	7.624
350.09	7.424
350.30	6.845
350.50	4.508
350.71	5.735
350.92	6.560
351.12	5.651
351.33	5.711
351.54	7.838
351.74	8.474
351.95	5.152
352.16	6.540
352.37	8.719
352.57	4.651
352.78	5.147
352.99	6.264
353.19	4.630
353.40	3.676
353.61	10.850
353.82	6.719
354.02	9.001
354.23	4.202
354.44	7.230
354.64	7.948
354.85	6.209
355.06	6.726
355.26	3.409
355.47	8.060
355.68	7.186
355.88	9.153
356.09	6.650
356.30	6.087
356.51	7.163
356.71	6.253
356.92	4.541
357.13	4.316
357.33	7.829
357.54	4.819
357.75	4.953
357.95	7.718
358.16	5.415
358.37	9.211
358.57	5.503
358.78	9.384
358.99	6.019
359.19	5.059
359.40	7.510
359.61	6.141
359.81	8.518
360.02	6.428
360.23	5.254
360.43	7.655
360.64	6.677
360.85	7.400
361.05	6.410
361.26	7.771
361.47	4.816
361.67	8.191
361.88	4.725
362.09	6.888
362.29	6.451
362.50	4.577
362.70	4.385
362.91	6.413
363.12	4.444
363.32	4.515
363.53	6.326
363.74	7.428
363.94	3.822
364.15	7.395
364.36	5.462
364.56	3.601
364.77	7.651
364.98	8.881
365.18	6.726
365.39	8.079
365.59	6.175
365.80	5.338
366.01	8.004
366.21	4.420
366.42	4.737
366.63	6.836
366.83	7.492
367.04	4.222
367.24	8.243
367.45	6.007
367.66	4.665
367.86	6.759
368.07	6.175
368.28	5.046
368.48	4.476
368.69	5.383
368.89	6.729
369.10	4.405
369.31	4.977
369.51	5.753
369.72	7.949
369.92	7.744
370.13	4.306
370.34	5.412
370.54	3.498
370.75	7.534
370.95	5.810
371.16	6.698
371.37	5.900
371.57	5.436
371.78	5.723
371.98	6.798
372.19	5.780
372.40	8.047
372.60	8.800
372.81	6.536
373.01	4.428
373.22	5.478
373.43	5.782
373.63	8.314
373.84	6.093
374.04	7.277
374.25	5.545
374.46	6.542
374.66	5.707
374.87	5.667
375.07	5.136
375.28	4.933
375.48	5.321
375.69	7.704
375.90	6.071
376.10	5.171
376.31	5.534
376.51	4.722
376.72	4.796
376.92	5.035
377.13	6.449
377.34	9.214
377.54	6.101
377.75	6.656
377.95	5.972
378.16	5.623
378.36	6.741
378.57	7.267
378.77	6.258
378.98	9.504
379.19	7.347
379.39	4.694
379.60	5.379
379.80	7.518
380.01	8.708
380.21	5.864
380.42	8.876
380.62	6.949
380.83	9.332
381.04	6.016
381.24	7.354
381.45	6.179
381.65	5.961
381.86	6.921
382.06	7.863
382.27	3.922
382.47	5.192
382.68	9.632
382.88	3.228
383.09	5.446
383.29	7.034
383.50	9.855
383.71	6.946
383.91	7.462
384.12	4.533
384.32	9.301
384.53	6.413
384.73	5.561
384.94	6.132
385.14	6.653
385.35	6.152
385.55	7.084
385.76	4.747
385.96	8.350
386.17	7.749
386.37	8.857
386.58	8.618
386.78	9.863
386.99	7.476
387.19	9.992
387.40	6.517
387.60	12.564
387.81	7.902
388.01	7.966
388.22	10.467
388.42	11.776
388.63	9.787
388.83	11.596
389.04	7.342
389.24	11.046
389.45	7.942
389.65	9.148
389.86	9.532
390.06	9.123
390.27	8.566
390.47	9.430
390.68	8.670
390.88	13.517
391.09	10.775
391.29	11.890
391.50	11.705
391.70	12.265
391.91	9.297
392.11	11.415
392.32	11.691
392.52	15.586
392.73	12.976
392.93	13.720
393.14	12.246
393.34	13.374
393.55	12.659
393.75	14.110
393.95	10.207
394.16	14.811
394.36	16.171
394.57	16.109
394.77	13.387
394.98	12.697
395.18	14.275
395.39	14.356
395.59	14.496
395.80	15.480
396.00	14.802
396.21	15.951
396.41	12.155
396.61	16.514
396.82	14.198
397.02	18.816
397.23	16.892
397.43	14.199
397.64	11.454
397.84	17.575
398.05	10.160
398.25	17.330
398.45	12.771
398.66	17.867
398.86	14.842
399.07	17.580
399.27	14.012
399.48	17.791
399.68	14.421
399.89	15.554
400.09	16.770
400.29	15.233
400.50	14.896
400.70	16.858
400.91	14.442
401.11	16.126
401.32	14.615
401.52	12.536
401.72	14.400
401.93	17.573
402.13	15.323
402.34	14.756
402.54	12.309
402.75	19.129
402.95	11.610
403.15	18.468
403.36	13.006
403.56	16.363
403.77	13.444
403.97	16.070
404.17	13.477
404.38	17.328
404.58	14.343
404.79	18.326
404.99	16.250
405.19	17.315
405.40	14.657
405.60	17.704
405.81	16.224
406.01	16.704
406.21	15.346
406.42	17.846
406.62	17.092
406.83	16.509
407.03	17.410
407.23	15.600
407.44	14.503
407.64	18.394
407.85	16.883
408.05	18.076
408.25	14.279
408.46	17.421
408.66	16.339
408.87	15.374
409.07	13.459
409.27	14.836
409.48	15.849
409.68	17.521
409.88	12.366
410.09	16.034
410.29	14.545
410.50	18.354
410.70	11.173
410.90	16.410
411.11	13.301
411.31	15.712
411.51	16.517
411.72	18.559
411.92	14.270
412.12	15.360
412.33	12.829
412.53	15.559
412.74	12.024
412.94	14.706
413.14	13.916
413.35	16.730
413.55	13.866
413.75	16.818
413.96	12.913
414.16	16.331
414.36	14.524
414.57	15.938
414.77	13.370
414.97	14.621
415.18	12.940
415.38	15.899
415.58	15.299
415.79	14.525
415.99	13.792
416.19	16.578
416.40	14.948
416.60	15.491
416.80	13.932
417.01	16.929
417.21	12.971
417.41	17.928
417.62	15.020
417.82	16.924
418.02	13.865
418.23	16.964
418.43	15.657
418.63	15.938
418.84	17.336
419.04	16.334
419.24	16.880
419.45	17.700
419.65	18.235
419.85	18.107
420.06	17.670
420.26	17.816
420.46	16.663
420.67	17.887
420.87	17.383
421.07	17.896
421.28	16.593
421.48	18.117
421.68	17.081
421.88	18.545
422.09	17.348
422.29	17.727
422.49	17.704
422.70	18.239
422.90	16.627
423.10	18.129
423.31	17.245
423.51	18.241
423.71	17.295
423.91	18.380
424.12	18.082
424.32	17.248
424.52	17.387
424.73	18.531
424.93	17.309
425.13	17.379
425.33	16.626
425.54	17.446
425.74	17.536
425.94	17.650
426.15	18.101
426.35	17.393
426.55	17.570
426.75	17.507
426.96	18.695
427.16	17.045
427.36	16.694
427.57	17.825
427.77	16.655
427.97	17.701
428.17	17.096
428.38	17.212
428.58	14.650
428.78	16.928
428.98	14.127
429.19	16.692
429.39	13.211
429.59	17.096
429.79	14.093
430.00	13.990
430.20	12.570
430.40	15.427
430.60	15.016
430.81	16.425
431.01	14.091
431.21	15.938
431.41	13.235
431.62	16.740
431.82	15.367
432.02	16.807
432.22	13.582
432.43	15.185
432.63	13.847
432.83	16.601
433.03	15.148
433.24	15.771
433.44	15.681
433.64	16.454
433.84	15.677
434.05	17.897
434.25	16.349
434.45	17.059
434.65	16.120
434.85	17.875
435.06	17.537
435.26	16.985
435.46	16.801
435.66	16.910
435.87	16.417
436.07	17.754
436.27	16.895
436.47	16.450
436.67	15.971
436.88	18.825
437.08	17.117
437.28	17.223
437.48	15.989
437.69	17.599
437.89	15.782
438.09	17.279
438.29	15.427
438.49	17.596
438.70	16.820
438.90	16.766
439.10	16.449
439.30	17.591
439.50	16.261
439.71	17.372
439.91	16.711
440.11	17.529
440.31	17.221
440.51	17.460
440.72	16.807
440.92	17.685
441.12	17.402
441.32	17.810
441.52	17.814
441.72	17.825
441.93	17.937
442.13	18.517
442.33	17.129
442.53	17.805
442.73	17.554
442.94	18.172
443.14	16.921
443.34	18.731
443.54	18.156
443.74	18.531
443.94	17.263
444.15	17.272
444.35	16.422
444.55	18.035
444.75	17.716
444.95	18.039
445.15	16.407
445.36	17.977
445.56	17.156
445.76	18.487
445.96	16.954
446.16	17.321
446.36	17.350
446.57	17.749
446.77	17.442
446.97	17.925
447.17	17.184
447.37	17.677
447.57	18.068
447.77	18.470
447.98	18.273
448.18	18.581
448.38	18.142
448.58	19.152
448.78	18.247
448.98	17.995
449.18	17.737
449.39	17.678
449.59	18.052
449.79	18.055
449.99	17.471
450.19	18.619
450.39	17.534
450.59	18.324
450.79	17.753
451.00	18.713
451.20	18.268
451.40	17.810
451.60	16.460
451.80	18.281
452.00	17.677
452.20	17.705
452.40	17.024
452.61	16.881
452.81	17.495
453.01	17.894
453.21	16.943
453.41	18.098
453.61	16.570
453.81	19.072
454.01	16.866
454.21	18.025
454.42	17.163
454.62	18.299
454.82	17.096
455.02	17.375
455.22	16.482
455.42	17.326
455.62	16.360
455.82	17.686
456.02	15.937
456.23	17.362
456.43	16.753
456.63	18.259
456.83	17.053
457.03	17.714
457.23	16.957
457.43	17.005
457.63	16.136
457.83	17.232
458.03	16.532
458.23	17.468
458.43	15.841
458.64	17.935
458.84	16.293
459.04	17.368
459.24	16.636
459.44	17.448
459.64	16.569
459.84	17.651
460.04	17.166
460.24	17.721
460.44	17.957
460.64	17.551
460.84	17.177
461.04	17.684
461.24	17.805
461.45	17.759
461.65	18.001
461.85	18.353
462.05	18.136
462.25	18.097
462.45	18.237
462.65	18.128
462.85	17.249
463.05	18.265
463.25	16.802
463.45	17.318
463.65	17.220
463.85	17.771
464.05	16.704
464.25	17.906
464.45	17.422
464.65	16.697
464.85	15.930
465.05	16.997
465.26	16.789
465.46	18.187
465.66	17.118
465.86	17.965
466.06	16.919
466.26	18.403
466.46	15.036
466.66	17.182
466.86	16.671
467.06	17.027
467.26	16.402
467.46	17.484
467.66	15.731
467.86	17.276
468.06	16.957
468.26	17.604
468.46	16.136
468.66	17.310
468.86	15.096
469.06	17.446
469.26	15.319
469.46	17.300
469.66	16.104
469.86	18.091
470.06	15.994
470.26	17.783
470.46	16.597
470.66	17.686
470.86	16.197
471.06	17.937
471.26	15.164
471.46	16.835
471.66	17.296
471.86	17.547
472.06	15.683
472.26	18.421
472.46	17.497
472.66	17.978
472.86	16.379
473.06	17.793
473.26	16.799
473.46	17.557
473.66	17.116
473.86	16.903
474.06	17.180
474.26	17.160
474.46	16.150
474.66	18.015
474.86	17.252
475.06	17.784
475.26	16.545
475.46	17.792
475.66	16.340
475.86	18.309
476.06	17.121
476.26	18.213
476.46	16.160
476.66	17.853
476.86	16.957
477.06	16.541
477.26	17.256
477.46	18.453
477.65	17.083
477.85	18.030
478.05	17.222
478.25	18.073
478.45	17.583
478.65	18.485
478.85	17.659
479.05	18.082
479.25	17.826
479.45	18.956
479.65	17.298
479.85	18.224
480.05	17.779
480.25	19.262
480.45	18.711
480.65	18.568
480.85	17.550
481.05	18.530
481.25	18.158
481.44	18.859
481.64	17.408
481.84	18.756
482.04	17.947
482.24	18.328
482.44	17.713
482.64	18.124
482.84	17.785
483.04	18.418
483.24	18.360
483.44	17.599
483.64	17.673
483.84	17.762
484.04	18.000
484.23	18.163
484.43	18.885
484.63	18.798
484.83	18.894
485.03	19.219
485.23	18.998
485.43	19.323
485.63	19.089
485.83	19.484
486.03	19.277
486.23	19.641
486.42	19.257
486.62	19.219
486.82	19.006
487.02	18.831
487.22	18.938
487.42	18.480
487.62	19.028
487.82	18.512
488.02	18.035
488.22	18.603
488.41	18.750
488.61	18.584
488.81	18.652
489.01	18.624
489.21	18.589
489.41	18.826
489.61	18.874
489.81	18.856
490.01	19.078
490.20	19.250
490.40	19.535
490.60	19.140
490.80	18.963
491.00	18.859
491.20	19.173
491.40	18.834
491.60	18.056
491.79	18.130
491.99	18.153
492.19	18.690
492.39	18.229
492.59	18.080
492.79	18.622
492.99	18.249
493.19	18.874
493.38	18.732
493.58	19.206
493.78	19.229
493.98	19.149
494.18	19.129
494.38	19.669
494.58	19.164
494.77	18.647
494.97	19.463
495.17	19.091
495.37	18.812
495.57	19.082
495.77	19.576
495.96	18.628
496.16	19.380
496.36	18.745
496.56	19.047
496.76	18.702
496.96	18.539
497.15	18.967
497.35	19.249
497.55	17.891
497.75	19.452
497.95	18.920
498.15	18.833
498.34	19.147
498.54	19.285
498.74	19.626
498.94	19.352
499.14	18.882
499.34	19.132
499.53	18.427
499.73	19.787
499.93	20.350
500.13	19.965
500.33	19.033
500.52	19.952
500.72	19.942
500.92	19.974
501.12	19.768
501.32	19.382
501.52	20.374
501.71	20.162
501.91	19.452
502.11	20.407
502.31	20.203
502.51	20.534
502.70	20.000
502.90	20.639
503.10	20.637
503.30	20.899
503.50	20.831
503.69	21.053
503.89	20.957
504.09	20.930
504.29	19.973
504.48	21.471
504.68	21.134
504.88	21.503
505.08	21.098
505.28	21.627
505.47	20.738
505.67	22.664
505.87	21.934
506.07	21.682
506.27	22.120
506.46	21.818
506.66	22.717
506.86	23.416
507.06	22.546
507.25	23.030
507.45	23.184
507.65	22.577
507.85	23.071
508.04	23.393
508.24	23.198
508.44	22.818
508.64	23.308
508.83	23.162
509.03	22.999
509.23	24.331
509.43	24.157
509.63	24.130
509.82	23.623
510.02	24.264
510.22	23.781
510.42	25.224
510.61	24.175
510.81	25.175
511.01	25.029
511.21	25.767
511.40	25.410
511.60	25.633
511.80	25.405
511.99	25.978
512.19	26.348
512.39	26.537
512.59	26.947
512.78	27.055
512.98	27.247
513.18	26.655
513.38	27.149
513.57	26.507
513.77	27.276
513.97	27.027
514.17	28.234
514.36	27.853
514.56	29.029
514.76	28.695
514.95	28.504
515.15	30.056
515.35	29.085
515.55	30.254
515.74	30.041
515.94	29.167
516.14	30.290
516.33	29.931
516.53	30.272
516.73	31.297
516.93	30.691
517.12	30.138
517.32	30.672
517.52	30.595
517.71	29.626
517.91	30.116
518.11	29.302
518.30	29.068
518.50	28.122
518.70	28.569
518.90	28.369
519.09	28.589
519.29	29.024
519.49	27.804
519.68	27.706
519.88	27.715
520.08	27.800
520.27	28.634
520.47	28.710
520.67	29.045
520.86	29.243
521.06	29.157
521.26	29.717
521.45	29.241
521.65	29.223
521.85	29.427
522.04	29.954
522.24	29.922
522.44	29.438
522.63	29.807
522.83	30.687
523.03	29.912
523.22	30.261
523.42	29.931
523.62	30.765
523.81	29.867
524.01	30.971
524.21	30.295
524.40	29.229
524.60	28.713
524.80	28.841
524.99	29.428
525.19	27.961
525.39	28.623
525.58	28.062
525.78	27.236
525.98	26.934
526.17	26.652
526.37	27.274
526.57	26.568
526.76	26.512
526.96	26.975
527.15	26.345
527.35	25.950
527.55	26.607
527.74	26.582
527.94	26.248
528.14	25.626
528.33	25.693
528.53	25.129
528.72	24.666
528.92	24.936
529.12	24.913
529.31	24.784
529.51	24.671
529.71	24.692
529.90	24.901
530.10	25.166
530.29	25.549
530.49	25.641
530.69	26.028
530.88	25.584
531.08	25.418
531.28	25.630
531.47	26.530
531.67	25.546
531.86	26.325
532.06	26.308
532.26	25.936
532.45	25.969
532.65	25.963
532.84	25.661
533.04	25.202
533.24	25.235
533.43	25.358
533.63	24.969
533.82	25.233
534.02	25.117
534.22	25.409
534.41	24.970
534.61	25.030
534.80	24.988
535.00	25.269
535.19	25.968
535.39	26.302
535.59	26.818
535.78	26.304
535.98	25.855
536.17	26.396
536.37	26.301
536.57	26.163
536.76	26.251
536.96	25.726
537.15	25.852
537.35	26.628
537.54	26.182
537.74	25.942
537.93	26.123
538.13	25.915
538.33	26.185
538.52	26.100
538.72	26.197
538.91	26.299
539.11	27.471
539.30	26.496
539.50	27.442
539.70	26.666
539.89	27.729
540.09	26.660
540.28	26.480
540.48	26.248
540.67	26.503
540.87	25.807
541.06	25.308
541.26	25.133
541.45	25.488
541.65	25.469
541.85	25.610
542.04	25.342
542.24	25.692
542.43	25.275
542.63	25.439
542.82	26.016
543.02	25.794
543.21	26.160
543.41	26.151
543.60	26.522
543.80	26.206
543.99	25.993
544.19	26.314
544.38	26.541
544.58	26.844
544.77	26.985
544.97	26.877
545.16	26.688
545.36	27.450
545.56	27.293
545.75	27.287
545.95	26.962
546.14	27.347
546.34	26.739
546.53	27.175
546.73	27.575
546.92	26.730
547.12	27.276
547.31	26.732
547.51	27.077
547.70	28.016
547.90	27.080
548.09	27.609
548.29	27.022
548.48	27.518
548.68	27.232
548.87	29.127
549.07	28.096
549.26	28.279
549.46	28.861
549.65	29.278
549.84	28.779
550.04	30.012
550.23	28.596
550.43	29.524
550.62	29.410
550.82	28.419
551.01	29.597
551.21	29.000
551.40	29.121
551.60	28.933
551.79	30.126
551.99	29.634
552.18	28.452
552.38	29.737
552.57	28.290
552.77	29.256
552.96	29.159
553.16	29.542
553.35	28.929
553.54	28.981
553.74	29.207
553.93	30.357
554.13	29.270
554.32	29.687
554.52	29.881
554.71	29.682
554.91	30.728
555.10	30.053
555.29	28.908
555.49	30.468
555.68	30.091
555.88	31.107
556.07	29.964
556.27	30.398
556.46	30.886
556.66	28.707
556.85	31.532
557.04	30.656
557.24	30.653
557.43	30.152
557.63	31.662
557.82	30.245
558.02	29.933
558.21	31.698
558.40	31.627
558.60	31.969
558.79	31.853
558.99	31.120
559.18	30.624
559.38	31.982
559.57	30.910
559.76	31.285
559.96	31.351
560.15	31.487
560.35	30.447
560.54	31.706
560.73	31.084
560.93	31.451
561.12	30.450
561.32	31.424
561.51	30.972
561.70	30.955
561.90	31.021
562.09	32.203
562.29	30.787
562.48	31.937
562.67	31.631
562.87	32.108
563.06	31.719
563.26	32.717
563.45	31.258
563.64	32.466
563.84	31.390
564.03	32.175
564.23	31.580
564.42	31.788
564.61	32.242
564.81	32.053
565.00	30.747
565.20	31.974
565.39	29.990
565.58	32.605
565.78	31.832
565.97	30.675
566.16	31.638
566.36	31.674
566.55	31.866
566.74	31.295
566.94	31.311
567.13	31.323
567.33	31.462
567.52	31.402
567.71	32.045
567.91	31.936
568.10	32.532
568.29	32.098
568.49	31.860
568.68	32.048
568.87	32.095
569.07	32.174
569.26	32.358
569.45	32.760
569.65	31.362
569.84	32.752
570.04	31.595
570.23	32.200
570.42	32.484
570.62	32.686
570.81	32.098
571.00	32.812
571.20	31.421
571.39	32.530
571.58	32.658
571.78	32.518
571.97	31.673
572.16	32.474
572.36	31.319
572.55	30.957
572.74	32.130
572.94	32.234
573.13	32.128
573.32	32.088
573.51	32.252
573.71	33.018
573.90	32.410
574.09	31.950
574.29	31.570
574.48	32.022
574.67	31.793
574.87	32.610
575.06	32.243
575.25	32.167
575.45	31.770
575.64	31.604
575.83	32.527
576.03	32.827
576.22	31.369
576.41	32.368
576.60	31.346
576.80	31.726
576.99	32.301
577.18	32.239
577.38	32.231
577.57	32.522
577.76	33.526
577.95	32.574
578.15	31.877
578.34	32.751
578.53	32.094
578.73	32.733
578.92	31.624
579.11	32.777
579.30	32.317
579.50	33.606
579.69	31.705
579.88	32.749
580.08	32.542
580.27	32.167
580.46	33.146
580.65	32.396
580.85	31.356
581.04	32.097
581.23	32.785
581.42	32.540
581.62	32.245
581.81	33.148
582.00	31.564
582.19	32.086
582.39	31.933
582.58	32.213
582.77	31.980
582.96	32.906
583.16	32.701
583.35	32.933
583.54	31.979
583.73	31.650
583.93	31.907
584.12	31.461
584.31	31.922
584.50	32.469
584.70	31.974
584.89	31.711
585.08	31.732
585.27	32.397
585.47	31.822
585.66	32.545
585.85	31.515
586.04	32.077
586.24	30.771
586.43	30.535
586.62	31.265
586.81	31.623
587.00	30.666
587.20	33.071
587.39	31.980
587.58	33.186
587.77	32.272
587.97	30.735
588.16	31.381
588.35	31.785
588.54	30.516
588.73	31.145
588.93	32.477
589.12	32.028
589.31	31.122
589.50	32.288
589.69	31.418
589.89	30.966
590.08	32.515
590.27	30.171
590.46	31.432
590.65	30.650
590.85	30.695
591.04	32.335
591.23	31.369
591.42	31.362
591.61	30.075
591.81	32.236
592.00	31.837
592.19	32.409
592.38	32.377
592.57	32.125
592.77	31.895
592.96	32.000
593.15	32.038
593.34	31.779
593.53	31.935
593.72	32.136
593.92	31.106
594.11	32.837
594.30	31.890
594.49	31.380
594.68	31.207
594.87	32.157
595.07	33.787
595.26	31.729
595.45	31.890
595.64	33.626
595.83	32.436
596.02	32.262
596.22	30.135
596.41	33.317
596.60	31.671
596.79	30.859
596.98	31.603
597.17	32.370
597.37	31.487
597.56	31.777
597.75	31.590
597.94	32.862
598.13	33.571
598.32	32.639
598.51	31.639
598.71	32.963
598.90	32.185
599.09	34.054
599.28	34.214
599.47	33.317
599.66	32.852
599.85	32.934
600.05	32.176
600.24	33.956
600.43	31.661
600.62	34.118
600.81	33.295
601.00	34.595
601.19	32.822
601.38	33.964
601.58	35.967
601.77	33.426
601.96	32.904
602.15	33.009
602.34	33.493
602.53	32.568
602.72	33.230
602.91	33.066
603.10	33.023
603.30	32.450
603.49	32.911
603.68	33.294
603.87	31.481
604.06	32.623
604.25	32.759
604.44	32.809
604.63	33.319
604.82	33.587
605.01	33.379
605.21	32.788
605.40	34.286
605.59	33.207
605.78	32.939
605.97	34.342
606.16	33.320
606.35	32.352
606.54	33.812
606.73	33.806
606.92	34.372
607.11	34.183
607.30	32.729
607.50	34.732
607.69	32.142
607.88	34.607
608.07	31.652
608.26	33.860
608.45	35.028
608.64	34.782
608.83	34.014
609.02	33.478
609.21	32.921
609.40	32.476
609.59	33.132
609.78	33.220
609.97	32.705
610.16	34.260
610.35	33.114
610.55	33.710
610.74	33.150
610.93	34.003
611.12	34.864
611.31	32.977
611.50	33.905
611.69	34.356
611.88	34.291
612.07	34.168
612.26	32.603
612.45	34.415
612.64	33.391
612.83	33.099
613.02	32.542
613.21	34.073
613.40	32.498
613.59	34.417
613.78	30.738
613.97	33.679
614.16	33.281
614.35	33.031
614.54	32.679
614.73	32.471
614.92	32.254
615.11	31.997
615.30	31.472
615.49	32.917
615.68	31.935
615.87	32.786
616.07	30.634
616.26	31.841
616.45	30.262
616.64	30.964
616.83	32.662
617.02	32.825
617.21	30.527
617.40	32.101
617.59	32.281
617.78	32.306
617.97	31.072
618.16	31.469
618.35	29.628
618.54	31.451
618.73	31.646
618.92	32.594
619.11	30.730
619.30	32.822
619.49	30.887
619.68	31.156
619.86	31.781
620.05	30.999
620.24	29.695
620.43	31.835
620.62	28.783
620.81	32.374
621.00	30.833
621.19	31.505
621.38	29.843
621.57	31.103
621.76	30.055
621.95	32.802
622.14	30.023
622.33	30.083
622.52	29.805
622.71	30.847
622.90	30.411
623.09	31.193
623.28	30.997
623.47	31.764
623.66	30.714
623.85	30.881
624.04	30.679
624.23	31.649
624.42	29.361
624.61	29.787
624.80	28.962
624.99	30.529
625.18	29.543
625.36	31.059
625.55	29.658
625.74	30.240
625.93	29.070
626.12	30.944
626.31	31.194
626.50	31.035
626.69	29.363
626.88	31.266
627.07	29.967
627.26	30.053
627.45	30.901
627.64	30.301
627.83	29.105
628.02	32.454
628.20	30.650
628.39	31.798
628.58	31.628
628.77	30.566
628.96	31.462
629.15	30.502
629.34	29.769
629.53	29.527
629.72	30.952
629.91	31.192
630.10	31.949
630.29	29.440
630.47	31.316
630.66	28.833
630.85	29.122
631.04	30.617
631.23	30.840
631.42	29.554
631.61	29.505
631.80	32.061
631.99	29.213
632.18	29.775
632.36	29.379
632.55	30.441
632.74	29.403
632.93	30.323
633.12	28.226
633.31	30.393
633.50	28.611
633.69	30.009
633.88	30.078
634.06	28.795
634.25	30.401
634.44	29.545
634.63	28.835
634.82	30.118
635.01	29.359
635.20	30.126
635.39	29.778
635.57	30.827
635.76	29.059
635.95	29.303
636.14	28.534
636.33	31.170
636.52	27.926
636.71	30.674
636.89	29.267
637.08	29.653
637.27	28.724
637.46	28.923
637.65	28.600
637.84	28.911
638.03	27.741
638.21	30.040
638.40	29.348
638.59	29.473
638.78	26.176
638.97	29.759
639.16	29.191
639.34	30.533
639.53	25.046
639.72	29.595
639.91	27.499
640.10	28.548
640.29	28.462
640.47	30.801
640.66	26.987
640.85	30.278
641.04	25.545
641.23	28.823
641.42	27.242
641.60	28.816
641.79	27.762
641.98	27.997
642.17	26.871
642.36	29.291
642.54	27.233
642.73	27.779
642.92	25.271
643.11	28.643
643.30	26.965
643.49	27.387
643.67	24.744
643.86	30.549
644.05	26.132
644.24	28.031
644.43	26.324
644.61	28.412
644.80	25.957
644.99	27.411
645.18	27.338
645.37	27.417
645.55	24.463
645.74	29.561
645.93	25.470
646.12	27.360
646.31	26.002
646.49	26.313
646.68	26.736
646.87	26.907
647.06	25.203
647.24	27.387
647.43	23.983
647.62	27.547
647.81	24.164
648.00	28.451
648.18	25.249
648.37	28.439
648.56	26.988
648.75	28.036
648.93	25.613
649.12	28.032
649.31	25.559
649.50	27.564
649.68	25.074
649.87	26.219
650.06	22.245
650.25	28.018
650.43	25.500
650.62	27.789
650.81	25.990
651.00	27.621
651.18	24.606
651.37	26.536
651.56	26.261
651.75	27.380
651.93	23.598
652.12	27.926
652.31	28.083
652.50	28.105
652.68	25.261
652.87	29.215
653.06	27.666
653.25	28.764
653.43	26.204
653.62	26.514
653.81	24.740
654.00	27.371
654.18	24.307
654.37	27.059
654.56	24.571
654.74	25.932
654.93	23.263
655.12	27.483
655.31	24.588
655.49	25.474
655.68	22.032
655.87	24.421
656.05	21.203
656.24	24.602
656.43	20.357
656.62	26.389
656.80	23.460
656.99	23.529
657.18	18.602
657.36	25.503
657.55	25.843
657.74	24.125
657.93	25.631
658.11	24.992
658.30	24.676
658.49	25.330
658.67	22.714
658.86	22.599
659.05	23.133
659.23	25.672
659.42	23.330
659.61	25.877
659.79	23.436
659.98	24.402
660.17	23.151
660.35	24.626
660.54	22.875
660.73	25.878
660.91	24.159
661.10	25.359
661.29	21.619
661.47	25.105
661.66	22.252
661.85	24.596
662.03	22.952
662.22	20.545
662.41	17.212
662.59	22.150
662.78	18.908
662.97	20.131
663.15	17.215
663.34	19.330
663.53	16.229
663.71	20.580
663.90	15.996
664.09	19.827
664.27	16.176
664.46	16.632
664.65	14.904
664.83	18.260
665.02	16.072
665.21	15.663
665.39	12.093
665.58	16.991
665.77	14.113
665.95	15.450
666.14	13.032
666.32	17.307
666.51	15.931
666.70	15.181
666.88	13.885
667.07	16.137
667.26	12.401
667.44	15.047
667.63	14.302
667.81	12.993
668.00	13.536
668.19	17.906
668.37	14.515
668.56	17.103
668.75	11.256
668.93	17.166
669.12	13.265
669.30	16.423
669.49	12.196
669.68	14.979
669.86	13.688
670.05	12.829
670.23	13.329
670.42	12.909
670.61	13.768
670.79	15.638
670.98	12.765
671.16	16.354
671.35	13.575
671.54	13.914
671.72	11.840
671.91	14.371
672.09	12.245
672.28	15.204
672.46	15.445
672.65	15.871
672.84	15.240
673.02	16.481
673.21	9.350
673.39	12.902
673.58	14.105
673.77	13.302
673.95	12.737
674.14	16.961
674.32	12.148
674.51	17.337
674.69	13.130
674.88	13.040
675.07	12.075
675.25	18.012
675.44	12.316
675.62	12.283
675.81	11.852
675.99	20.805
676.18	17.046
676.36	12.689
676.55	9.197
676.74	16.410
676.92	15.925
677.11	16.780
677.29	13.516
677.48	15.249
677.66	16.563
677.85	14.342
678.03	13.526
678.22	16.278
678.40	14.701
678.59	14.258
678.78	11.030
678.96	16.001
679.15	13.635
679.33	18.257
679.52	17.785
679.70	18.705
679.89	14.462
680.07	17.766
680.26	14.862
680.44	18.557
680.63	16.683
680.81	18.432
681.00	13.170
681.18	17.803
681.37	17.129
681.55	20.307
681.74	21.404
681.92	20.577
682.11	17.622
682.29	19.002
682.48	19.366
682.66	19.619
682.85	18.237
683.03	19.898
683.22	20.487
683.40	20.523
683.59	18.916
683.77	20.232
683.96	16.285
684.14	21.119
684.33	14.733
684.51	24.601
684.70	18.580
684.88	23.265
685.07	21.534
685.25	23.095
685.44	18.117
685.62	22.470
685.81	17.939
685.99	24.161
686.18	18.353
686.36	26.201
686.55	15.524
686.73	21.250
686.92	23.696
687.10	26.226
687.29	23.885
687.47	23.366
687.65	24.005
687.84	21.751
688.02	26.343
688.21	28.398
688.39	22.977
688.58	29.332
688.76	24.795
688.95	26.040
689.13	22.384
689.32	29.472
689.50	25.194
689.68	26.632
689.87	26.223
690.05	29.624
690.24	27.280
690.42	29.279
690.61	28.098
690.79	28.625
690.98	28.234
691.16	30.861
691.34	26.246
691.53	31.601
691.71	27.891
691.90	29.747
692.08	27.264
692.27	32.434
692.45	31.977
692.63	32.264
692.82	34.186
693.00	33.151
693.19	30.037
693.37	33.842
693.56	29.951
693.74	34.354
693.92	32.778
694.11	36.519
694.29	32.099
694.48	38.050
694.66	29.829
694.84	36.359
695.03	30.946
695.21	39.611
695.40	39.526
695.58	37.878
695.76	32.010
695.95	37.435
696.13	31.414
696.32	40.804
696.50	43.541
696.68	38.014
696.87	35.107
697.05	43.001
697.24	38.701
697.42	46.199
697.60	38.732
697.79	43.848
697.97	40.543
698.16	43.262
698.34	40.054
698.52	42.035
698.71	41.316
698.89	43.912
699.07	41.890
699.26	42.941
699.44	42.840
699.63	45.402
699.81	42.258
699.99	43.916
700.18	44.026
700.36	46.384
700.54	43.033
700.73	45.785
700.91	43.131
701.09	45.448
701.28	42.199
701.46	45.542
701.64	43.267
701.83	47.095
702.01	44.246
702.20	46.820
702.38	44.812
702.56	45.082
702.75	45.570
702.93	45.743
703.11	45.424
703.30	43.816
703.48	45.478
703.66	44.571
703.85	43.210
704.03	48.447
704.21	45.445
704.40	46.642
704.58	43.702
704.76	47.609
704.95	44.144
705.13	48.368
705.31	43.431
705.50	47.295
705.68	42.325
705.86	48.068
706.04	46.119
706.23	47.651
706.41	44.246
706.59	47.933
706.78	44.195
706.96	47.891
707.14	48.851
707.33	50.701
707.51	48.067
707.69	50.360
707.88	44.550
708.06	48.668
708.24	47.413
708.42	52.078
708.61	46.096
708.79	48.938
708.97	49.147
709.16	49.145
709.34	48.413
709.52	46.154
709.71	46.630
709.89	49.147
710.07	42.350
710.25	47.892
710.44	46.182
710.62	48.657
710.80	47.357
710.98	50.302
711.17	48.018
711.35	46.007
711.53	46.697
711.72	46.900
711.90	49.874
712.08	53.125
712.26	47.494
712.45	50.992
712.63	50.893
712.81	51.552
712.99	48.792
713.18	51.447
713.36	53.265
713.54	49.226
713.72	47.853
713.91	50.495
714.09	47.379
714.27	48.987
714.45	52.237
714.64	50.209
714.82	48.826
715.00	52.420
715.18	48.876
715.37	51.592
715.55	51.132
715.73	52.374
715.91	50.749
716.10	49.725
716.28	49.262
716.46	50.078
716.64	46.900
716.83	51.869
717.01	48.422
717.19	51.397
717.37	45.859
717.55	50.785
717.74	50.978
717.92	51.618
718.10	46.303
718.28	48.488
718.47	47.055
718.65	52.742
718.83	45.778
719.01	50.693
719.19	49.391
719.38	47.540
719.56	43.011
719.74	50.281
719.92	40.125
720.10	46.497
720.29	46.213
720.47	50.000
720.65	41.807
720.83	47.331
721.01	43.495
721.20	44.797
721.38	45.387
721.56	51.225
721.74	45.929
721.92	47.681
722.11	43.015
722.29	50.346
722.47	46.111
722.65	51.534
722.83	47.722
723.01	46.443
723.20	48.331
723.38	49.583
723.56	50.509
723.74	52.340
723.92	44.783
724.10	49.362
724.29	42.736
724.47	48.296
724.65	43.444
724.83	51.916
725.01	46.220
725.19	50.401
725.38	46.218
725.56	52.714
725.74	46.715
725.92	54.090
726.10	45.306
726.28	49.963
726.46	48.743
726.65	48.873
726.83	50.479
727.01	50.290
727.19	47.619
727.37	58.194
727.55	45.021
727.73	50.138
727.92	50.972
728.10	53.548
728.28	44.582
728.46	53.644
728.64	46.626
728.82	49.435
729.00	47.252
729.19	52.466
729.37	48.276
729.55	54.013
729.73	48.833
729.91	53.423
730.09	53.342
730.27	51.967
730.45	45.820
730.63	49.738
730.82	47.539
731.00	52.188
731.18	47.347
731.36	53.206
731.54	45.144
731.72	49.683
731.90	46.741
732.08	52.244
732.26	49.600
732.45	56.448
732.63	55.585
732.81	54.782
732.99	47.720
733.17	57.871
733.35	48.528
733.53	52.470
733.71	47.950
733.89	55.715
734.07	52.163
734.25	53.745
734.44	51.775
734.62	50.999
734.80	49.899
734.98	53.644
735.16	51.504
735.34	57.854
735.52	52.811
735.70	55.773
735.88	49.114
736.06	51.747
736.24	59.004
736.42	55.321
736.60	52.116
736.78	62.237
736.97	49.760
737.15	55.812
737.33	49.630
737.51	56.656
737.69	52.256
737.87	55.469
738.05	53.859
738.23	56.770
738.41	54.683
738.59	57.934
738.77	58.754
738.95	54.731
739.13	54.968
739.31	56.299
739.49	50.877
739.67	55.636
739.85	52.227
740.03	53.942
740.21	53.840
740.39	55.662
740.57	55.470
740.75	54.281
740.93	51.770
741.11	57.807
741.30	54.818
741.48	57.318
741.66	50.836
741.84	57.309
742.02	56.325
742.20	59.414
742.38	52.506
742.56	55.000
742.74	59.423
742.92	58.824
743.10	53.769
743.28	60.000
743.46	54.588
743.64	52.597
743.82	52.199
744.00	56.196
744.18	59.215
744.36	54.933
744.54	53.360
744.72	58.013
744.90	53.802
745.08	60.328
745.26	54.634
745.44	58.083
745.62	58.912
745.80	54.386
745.98	55.756
746.16	55.972
746.34	53.472
746.52	60.861
746.70	54.858
746.87	61.949
747.05	56.596
747.23	55.521
747.41	53.617
747.59	58.961
747.77	50.402
747.95	55.510
748.13	54.602
748.31	56.584
748.49	59.839
748.67	58.268
748.85	55.258
749.03	63.600
749.21	56.654
749.39	58.877
749.57	50.097
749.75	54.839
749.93	56.024
750.11	56.369
750.29	54.805
750.47	57.974
750.65	55.512
750.83	63.732
751.01	50.352
751.18	63.422
751.36	56.070
751.54	57.157
751.72	52.647
751.90	54.554
752.08	51.341
752.26	58.491
752.44	55.576
752.62	57.624
752.80	52.772
752.98	62.590
753.16	59.200
753.34	52.805
753.52	56.963
753.69	58.492
753.87	55.407
754.05	58.410
754.23	55.749
754.41	59.706
754.59	57.044
754.77	55.656
754.95	55.072
755.13	64.196
755.31	57.692
755.49	61.494
755.66	50.856
755.84	57.752
756.02	52.830
756.20	59.434
756.38	57.307
756.56	59.360
756.74	50.996
756.92	57.536
757.10	55.897
757.28	59.698
757.45	58.519
757.63	63.736
757.81	53.156
757.99	60.955
758.17	59.915
758.35	58.927
758.53	60.411
758.71	54.783
758.88	52.399
759.06	56.330
759.24	45.310
759.42	52.255
759.60	52.747
759.78	50.100
759.96	37.745
760.13	44.206
760.31	44.658
760.49	42.941
760.67	34.746
760.85	40.727
761.03	38.732
761.21	41.026
761.38	32.720
761.56	41.978
761.74	32.443
761.92	52.718
762.10	30.382
762.28	46.789
762.46	29.444
762.63	38.335
762.81	41.737
762.99	43.655
763.17	35.974
763.35	40.476
763.53	37.332
763.70	46.423
763.88	45.816
764.06	46.294
764.24	44.365
764.42	46.675
764.60	45.601
764.77	49.245
764.95	45.045
765.13	49.670
765.31	43.109
765.49	48.656
765.66	48.347
765.84	51.117
766.02	43.281
766.20	51.149
766.38	46.753
766.56	56.973
766.73	50.000
766.91	51.553
767.09	49.821
767.27	54.276
767.45	53.958
767.62	56.863
767.80	49.756
767.98	52.632
768.16	49.637
768.33	57.977
768.51	52.632
768.69	58.763
768.87	46.681
769.05	58.411
769.22	48.071
769.40	60.633
769.58	55.155
769.76	59.829
769.94	56.098
770.11	55.210
770.29	50.124
770.47	54.490
770.65	56.053
770.82	53.434
771.00	56.718
771.18	56.585
771.36	54.297
771.53	51.566
771.71	54.079
771.89	55.510
772.07	51.639
772.25	59.116
772.42	54.462
772.60	68.282
772.78	52.685
772.96	59.642
773.13	56.181
773.31	52.151
773.49	51.669
773.67	55.283
773.84	54.755
774.02	57.926
774.20	48.759
774.37	56.467
774.55	48.489
774.73	55.607
774.91	50.835
775.08	60.203
775.26	63.012
775.44	57.961
775.62	54.247
775.79	56.241
775.97	54.769
776.15	50.142
776.32	56.240
776.50	60.465
776.68	50.362
776.86	58.696
777.03	53.165
777.21	58.399
777.39	55.152
777.56	53.678
777.74	48.343
777.92	54.520
778.10	55.627
778.27	62.171
778.45	45.358
778.63	63.823
778.80	51.911
778.98	58.060
779.16	58.626
779.34	51.089
779.51	52.914
779.69	60.430
779.87	58.218
780.04	51.127
780.22	47.500
780.40	57.224
780.57	55.343
780.75	50.000
780.93	56.986
781.10	64.499
781.28	58.979
781.46	56.762
781.63	51.901
781.81	61.503
781.99	55.921
782.16	53.311
782.34	50.505
782.52	55.717
782.69	51.497
782.87	58.446
783.05	51.438
783.22	50.000
783.40	58.833
783.58	50.087
783.75	47.595
783.93	61.827
784.11	46.046
784.28	62.976
784.46	56.261
784.64	56.071
784.81	50.179
784.99	57.327
785.17	61.165
785.34	54.626
785.52	52.571
785.69	57.040
785.87	54.190
786.05	55.714
786.22	54.528
786.40	64.599
786.58	58.389
786.75	63.586
786.93	49.472
787.11	56.119
787.28	57.904
787.46	62.274
787.63	59.216
787.81	53.734
787.99	56.063
788.16	53.770
788.34	40.836
788.51	54.531
788.69	44.610
788.87	52.246
789.04	50.531
789.22	44.412
789.39	50.741
789.57	50.000
789.75	42.975
789.92	47.493
790.10	42.181
790.27	52.143
790.45	49.763
790.63	59.809
790.80	48.058
790.98	45.775
791.15	51.863
791.33	47.635
791.51	40.115
791.68	52.244
791.86	44.174
792.03	53.663
792.21	48.897
792.39	50.177
792.56	56.894
792.74	54.253
792.91	44.815
793.09	51.494
793.26	50.314
793.44	53.890
793.62	48.425
793.79	49.901
793.97	53.021
794.14	48.162
794.32	41.566
794.49	53.108
794.67	46.748
794.84	44.864
795.02	50.851
795.20	50.095
795.37	53.000
795.55	51.356
795.72	47.948
795.90	43.080
796.07	52.778
796.25	50.090
796.42	44.231
796.60	49.416
796.77	45.196
796.95	55.696
797.13	41.913
797.30	59.498
797.48	44.481
797.65	45.586
797.83	49.734
798.00	47.201
798.18	39.338
798.35	55.172
798.53	50.097
798.70	42.478
798.88	58.730
799.05	50.624
799.23	40.801
799.40	46.619
799.58	46.609
799.75	51.309
799.93	43.021
800.10	51.880
800.28	45.963
800.45	54.527
800.63	39.544
800.80	45.324
800.98	51.040
801.15	56.498
801.33	47.868
801.50	44.982
801.68	36.522
801.85	49.614
802.03	51.703
802.20	64.848
802.38	42.322
802.55	60.373
802.73	42.775
802.90	38.990
803.08	47.723
803.25	53.507
803.43	57.787
803.60	45.916
803.78	42.633
803.95	51.299
804.13	48.664
804.30	47.204
804.48	45.197
804.65	51.685
804.83	43.058
805.00	46.137
805.17	48.827
805.35	51.565
805.52	39.511
805.70	47.510
805.87	51.718
806.05	54.618
806.22	51.458
806.40	44.423
806.57	55.814
806.75	58.402
806.92	53.704
807.09	58.105
807.27	50.816
807.44	55.403
807.62	43.916
807.79	51.028
807.97	42.000
808.14	47.193
808.31	42.982
808.49	49.409
808.66	53.333
808.84	44.266
809.01	40.920
809.19	38.498
809.36	56.785
809.53	45.080
809.71	50.000
809.88	50.794
810.06	42.451
810.23	53.007
810.41	41.719
810.58	57.039
810.75	51.053
810.93	42.466
811.10	41.485
811.28	43.146
811.45	41.604
811.62	42.711
811.80	38.191
811.97	50.503
812.15	49.886
812.32	57.068
812.49	46.437
812.67	45.823
812.84	46.394
813.02	43.651
813.19	53.269
813.36	56.354
813.54	44.081
813.71	41.495
813.89	41.451
814.06	43.358
814.23	42.941
814.41	35.606
814.58	50.689
814.75	41.689
814.93	62.129
815.10	42.706
815.28	34.826
815.45	42.389
815.62	55.172
815.80	29.825
815.97	28.500
816.14	50.398
816.32	35.659
816.49	36.412
816.66	28.267
816.84	37.358
817.01	40.605
817.18	40.992
817.36	45.758
817.53	60.680
817.71	38.817
817.88	40.046
818.05	42.212
818.23	27.737
818.40	35.467
818.57	44.647
818.75	39.158
818.92	40.852
819.09	26.952
819.27	34.750
819.44	37.530
819.61	42.263
819.79	41.834
819.96	36.758
820.13	40.361
820.31	39.229
820.48	46.843
820.65	40.917
820.82	45.763
821.00	41.338
821.17	33.036
821.34	30.102
821.52	36.643
821.69	35.802
821.86	31.974
822.04	40.867
822.21	39.752
822.38	42.021
822.56	37.203
822.73	49.189
822.90	44.611
823.07	47.004
823.25	45.112
823.42	45.441
823.59	45.863
823.77	47.755
823.94	46.344
824.11	47.628
824.29	45.188
824.46	47.982
824.63	46.136
824.80	48.419
824.98	44.936
825.15	50.114
825.32	41.059
825.49	45.094
825.67	45.247
825.84	46.524
826.01	41.167
826.19	50.417
826.36	38.056
826.53	38.963
826.70	37.321
826.88	42.275
827.05	38.086
827.22	34.211
827.39	40.984
827.57	39.556
827.74	37.192
827.91	45.122
828.08	35.491
828.26	45.036
828.43	38.343
828.60	41.135
828.77	37.480
828.95	43.980
829.12	39.166
829.29	38.592
829.46	34.952
829.64	32.484
829.81	32.236
829.98	42.164
830.15	33.250
830.32	36.220
830.50	22.529
830.67	40.563
830.84	39.493
831.01	41.239
831.19	36.481
831.36	32.869
831.53	30.942
831.70	39.540
831.87	26.271
832.05	46.262
832.22	42.667
832.39	42.080
832.56	38.786
832.74	32.258
832.91	38.404
833.08	47.650
833.25	36.207
833.42	36.534
833.60	38.727
833.77	31.250
833.94	34.824
834.11	28.016
834.28	32.302
834.45	31.387
834.63	31.303
834.80	29.727
834.97	36.374
835.14	33.370
835.31	31.286
835.49	37.310
835.66	31.500
835.83	32.266
836.00	37.862
836.17	34.522
836.34	35.432
836.52	42.331
836.69	41.758
836.86	31.295
837.03	33.710
837.20	32.037
837.37	29.528
837.55	37.708
837.72	25.285
837.89	43.687
838.06	48.000
838.23	40.441
838.40	46.084
838.58	33.718
838.75	43.234
838.92	54.180
839.09	31.615
839.26	50.825
839.43	48.464
839.60	54.655
839.78	56.494
839.95	45.777
840.12	50.853
840.29	46.441
840.46	55.521
840.63	61.442
840.80	37.864
840.98	63.462
841.15	54.375
841.32	51.212
841.49	40.196
841.66	55.696
841.83	44.720
842.00	41.860
842.17	46.023
842.34	38.514
842.52	52.000
842.69	47.119
842.86	60.465
843.03	75.277
843.20	40.996
843.37	50.923
843.54	46.067
843.71	54.018
843.88	74.667
844.06	81.200
844.23	43.810
844.40	57.333
844.57	86.188
844.74	69.512
844.91	31.884
845.08	87.500
845.25	68.599
845.42	54.301
845.59	72.632
845.76	63.077
845.94	85.644
846.11	79.452
846.28	89.286
846.45	76.404
846.62	72.727
846.79	68.493
846.96	70.988
847.13	64.535
847.30	61.379
847.47	76.259
847.64	86.047
847.81	70.339
847.98	54.271
848.15	110.949
848.32	86.792
848.50	87.425
848.67	61.494
848.84	92.466
849.01	46.927
849.18	67.526
849.35	96.875
849.52	73.276
849.69	63.576
849.86	65.306
850.03	79.851
850.20	86.550
850.37	64.706
850.54	81.006
850.71	78.146
850.88	43.575
851.05	83.051
851.22	74.157
851.39	85.586
851.56	92.857
851.73	79.874
851.90	75.155
852.07	97.744
852.24	76.316
852.41	73.333
852.58	97.887
852.75	85.057
852.92	72.195
853.09	79.687
853.26	51.323
853.43	115.094
853.60	78.652
853.77	106.329
853.94	63.504
854.11	86.713
854.28	42.400
854.45	60.156
854.62	82.234
854.79	73.856
854.96	85.600
855.13	63.158
855.30	100.000
855.47	86.207
855.64	67.669
855.81	67.204
855.98	80.159
856.15	72.973
856.32	59.119
856.49	81.395
856.66	72.727
856.83	87.121
857.00	67.974
857.17	63.077
857.34	68.421
857.51	115.827
857.68	85.405
857.85	64.205
858.02	71.852
858.19	83.784
858.36	55.455
858.53	72.903
858.70	55.689
858.87	86.076
859.04	54.839
859.21	52.703
859.38	79.825
859.55	111.940
859.72	73.563
859.89	43.165
860.05	92.793
860.22	66.492
860.39	71.429
860.56	71.756
860.73	83.740
860.90	57.798
861.07	57.895
861.24	82.237
861.41	98.148
861.58	97.917
861.75	60.000
861.92	80.263
862.09	88.889
862.26	85.470
862.43	90.099
862.59	80.147
862.76	102.098
862.93	71.910
863.10	63.810
863.27	76.923
863.44	95.402
863.61	70.803
863.78	62.857
863.95	71.242
864.12	65.517
864.29	78.632
864.45	61.207
864.62	45.198
864.79	65.116
864.96	86.179
865.13	46.847
865.30	107.453
865.47	62.195
865.64	70.504
865.81	61.832
865.97	78.667
866.14	70.748
866.31	58.333
866.48	86.093
866.65	71.154
866.82	86.709
866.99	95.726
867.16	85.714
867.33	97.849
867.49	88.889
867.66	77.320
867.83	72.441
868.00	107.534
868.17	107.438
868.34	78.947
868.51	98.095
868.67	77.215
868.84	46.667
869.01	89.600
869.18	83.688
869.35	70.543
869.52	68.254
869.69	72.603
869.85	104.673
870.02	78.846
870.19	99.153
870.36	91.034
870.53	40.714
870.70	79.874
870.86	110.000
871.03	61.728
871.20	56.881
871.37	78.448
871.54	76.351
871.71	60.714
871.87	71.069
872.04	57.714
872.21	66.957
872.38	98.374
872.55	75.309
872.72	115.625
872.88	79.330
873.05	96.552
873.22	78.231
873.39	72.449
873.56	78.107
873.72	61.765
873.89	61.491
874.06	98.507
874.23	112.712
874.40	91.000
874.56	104.211
874.73	68.293
874.90	70.339
875.07	73.571
875.24	54.037
875.40	84.034
875.57	106.422
875.74	108.000
875.91	67.890
876.08	80.000
876.24	58.140
876.41	139.200
876.58	87.766
876.75	79.433
876.92	41.176
877.08	86.765
877.25	73.913
877.42	85.156
877.59	109.184
877.75	65.333
877.92	45.238
878.09	48.958
878.26	59.880
878.42	75.625
878.59	70.435
878.76	59.211
878.93	76.866
879.09	27.273
879.26	55.488
879.43	77.297
879.60	62.238
879.76	46.023
879.93	61.667
880.10	47.333
880.27	37.888
880.43	56.983
880.60	36.073
880.77	50.000
880.94	13.930
881.10	34.808
881.27	37.377
881.44	29.178
881.61	32.960
881.77	34.799
881.94	25.641
882.11	22.183
882.28	21.683
882.44	20.248
882.61	27.426
882.78	27.694
882.94	35.901
883.11	30.955
883.28	30.630
883.45	32.519
883.61	29.087
883.78	30.271
883.95	28.873
884.11	32.312
884.28	26.933
>>>>>End Processed Spectral Data<<<<<
