SpectraSuite Data File
++++++++++++++++++++++++++++++++++++
Date: Sat Sep 21 03:52:16 EST 2019
User: sgrac
Dark Spectrum Present: Yes
Reference Spectrum Present: Yes
Number of Sampled Component Spectra: 1
Spectrometers: USB4E01596
Integration Time (usec): 100000 (USB4E01596)
Spectra Averaged: 1 (USB4E01596)
Boxcar Smoothing: 0 (USB4E01596)
Correct for Electrical Dark: No (USB4E01596)
Strobe/Lamp Enabled: Yes (USB4E01596)
Correct for Detector Non-linearity: No (USB4E01596)
Correct for Stray Light: No (USB4E01596)
Number of Pixels in Processed Spectrum: 3648
>>>>>Begin Processed Spectral Data<<<<<
178.44	-357.143
178.66	-357.143
178.87	-357.143
179.09	-600.000
179.30	-500.000
179.52	0.000
179.74	-1000.000
179.95	900.000
180.17	653.333
180.38	8700.000
180.60	0.000
180.82	750.000
181.03	-284.211
181.25	347.826
181.46	-232.258
181.68	354.167
181.89	4900.000
182.11	245.714
182.33	-151.111
182.54	-287.500
182.76	-4800.000
182.97	720.000
183.19	2425.000
183.40	137.931
183.62	-155.556
183.84	-118.519
184.05	413.043
184.27	425.000
184.48	914.286
184.70	216.000
184.91	-533.333
185.13	177.778
185.34	-171.429
185.56	110.000
185.78	0.000
185.99	300.000
186.21	313.793
186.42	726.667
186.64	162.903
186.85	311.111
187.07	223.636
187.28	420.000
187.50	-360.000
187.72	1900.000
187.93	-7000.000
188.15	166.000
188.36	-394.118
188.58	-4800.000
188.79	390.909
189.01	327.778
189.22	1700.000
189.44	4100.000
189.65	176.667
189.87	1075.000
190.09	-1640.000
190.30	443.750
190.52	-4200.000
190.73	210.714
190.95	192.857
191.16	242.222
191.38	450.000
191.59	219.048
191.81	247.222
192.02	193.617
192.24	511.765
192.45	-1320.000
192.67	265.714
192.88	475.000
193.10	240.000
193.31	530.000
193.53	-10100.000
193.74	126.829
193.96	429.167
194.18	367.742
194.39	-400.000
194.61	573.684
194.82	590.476
195.04	290.476
195.25	3950.000
195.47	187.805
195.68	178.723
195.90	980.000
196.11	203.636
196.33	251.064
196.54	-3533.333
196.76	264.286
196.97	-2333.333
197.19	296.429
197.40	152.941
197.62	128.125
197.83	193.243
198.05	-284.211
198.26	337.143
198.48	247.222
198.69	211.628
198.91	213.725
199.12	-268.571
199.34	-820.000
199.55	4100.000
199.77	1450.000
199.98	344.000
200.20	116.901
200.41	550.000
200.63	-833.333
200.84	141.176
201.06	253.846
201.27	362.162
201.49	875.000
201.70	425.926
201.91	241.304
202.13	189.855
202.34	256.604
202.56	-800.000
202.77	855.556
202.99	296.429
203.20	2250.000
203.42	1150.000
203.63	204.651
203.85	200.000
204.06	225.926
204.28	-680.000
204.49	160.000
204.71	184.615
204.92	0.000
205.14	-228.571
205.35	438.889
205.56	-1900.000
205.78	285.714
205.99	790.000
206.21	-261.290
206.42	258.065
206.64	300.000
206.85	1475.000
207.07	-646.154
207.28	478.571
207.50	-473.684
207.71	171.795
207.93	229.545
208.14	605.882
208.35	457.895
208.57	-6200.000
208.78	615.385
209.00	288.889
209.21	-2550.000
209.43	155.172
209.64	238.235
209.86	842.857
210.07	0.000
210.28	-229.412
210.50	181.633
210.71	198.246
210.93	485.714
211.14	-216.667
211.36	-216.129
211.57	-204.762
211.78	-147.826
212.00	0.000
212.21	190.698
212.43	-263.636
212.64	118.966
212.86	-662.500
213.07	-254.545
213.29	197.368
213.50	5100.000
213.71	226.415
213.93	1828.571
214.14	107.576
214.36	7300.000
214.57	353.846
214.78	356.250
215.00	4000.000
215.21	236.111
215.43	316.000
215.64	230.769
215.86	214.286
216.07	3700.000
216.28	284.000
216.50	-971.429
216.71	-1460.000
216.93	234.043
217.14	153.125
217.35	137.037
217.57	300.000
217.78	1225.000
218.00	-480.000
218.21	463.158
218.42	-2866.667
218.64	494.118
218.85	-622.222
219.07	750.000
219.28	1675.000
219.49	151.316
219.71	1566.667
219.92	247.222
220.14	229.167
220.35	385.000
220.56	148.718
220.78	335.294
220.99	-7900.000
221.21	328.571
221.42	258.333
221.63	270.000
221.85	150.000
222.06	192.857
222.28	259.091
222.49	-2500.000
222.70	0.000
222.92	355.556
223.13	250.000
223.34	-1200.000
223.56	134.211
223.77	111.236
223.99	253.846
224.20	88.095
224.41	259.459
224.63	258.333
224.84	141.379
225.05	164.286
225.27	147.143
225.48	154.348
225.69	314.286
225.91	188.889
226.12	194.444
226.34	132.353
226.55	79.630
226.76	156.452
226.98	194.000
227.19	72.727
227.40	68.595
227.62	65.854
227.83	53.000
228.04	59.341
228.26	43.564
228.47	108.621
228.69	30.263
228.90	40.845
229.11	17.778
229.33	32.367
229.54	22.368
229.75	48.696
229.97	41.202
230.18	32.258
230.39	20.675
230.61	32.075
230.82	52.697
231.03	22.407
231.25	40.404
231.46	32.482
231.67	44.269
231.89	43.922
232.10	29.150
232.31	47.596
232.53	54.802
232.74	40.625
232.95	39.759
233.17	55.491
233.38	32.836
233.59	41.912
233.81	45.146
234.02	76.316
234.23	62.567
234.45	68.421
234.66	51.977
234.87	63.758
235.09	44.444
235.30	41.379
235.51	37.379
235.73	40.881
235.94	47.150
236.15	45.918
236.36	35.979
236.58	43.602
236.79	35.079
237.00	31.884
237.22	54.938
237.43	41.667
237.64	29.694
237.86	51.087
238.07	63.317
238.28	33.880
238.50	27.826
238.71	12.426
238.92	44.643
239.13	44.571
239.35	27.972
239.56	67.188
239.77	63.902
239.99	26.887
240.20	28.421
240.41	27.586
240.63	31.174
240.84	28.685
241.05	35.401
241.26	35.537
241.48	37.758
241.69	22.468
241.90	12.394
242.12	31.122
242.33	13.362
242.54	17.910
242.75	19.734
242.97	16.034
243.18	11.953
243.39	18.155
243.61	15.442
243.82	20.559
244.03	10.072
244.24	5.061
244.46	13.926
244.67	8.234
244.88	14.867
245.09	21.870
245.31	7.869
245.52	25.919
245.73	19.844
245.95	28.571
246.16	13.449
246.37	20.736
246.58	14.579
246.80	18.341
247.01	13.575
247.22	8.312
247.43	10.337
247.65	9.806
247.86	5.865
248.07	8.027
248.28	9.084
248.50	9.837
248.71	8.957
248.92	8.661
249.13	10.696
249.35	8.281
249.56	10.075
249.77	8.887
249.98	7.935
250.20	7.889
250.41	13.743
250.62	8.795
250.83	18.409
251.05	19.743
251.26	14.519
251.47	12.252
251.68	15.539
251.90	19.565
252.11	19.164
252.32	15.683
252.53	12.804
252.75	8.320
252.96	19.231
253.17	15.534
253.38	16.757
253.59	11.582
253.81	11.385
254.02	11.312
254.23	14.804
254.44	18.367
254.66	13.884
254.87	14.621
255.08	11.538
255.29	19.277
255.50	21.290
255.72	22.706
255.93	20.438
256.14	25.000
256.35	29.274
256.57	21.260
256.78	26.484
256.99	21.990
257.20	19.903
257.41	38.509
257.63	8.180
257.84	17.842
258.05	21.042
258.26	17.838
258.47	17.531
258.69	14.075
258.90	9.627
259.11	7.176
259.32	7.182
259.53	10.724
259.75	5.683
259.96	5.732
260.17	6.732
260.38	8.414
260.59	5.333
260.81	8.748
261.02	5.749
261.23	9.137
261.44	5.734
261.65	5.009
261.87	5.939
262.08	5.611
262.29	9.396
262.50	7.532
262.71	6.780
262.92	7.016
263.14	11.173
263.35	5.817
263.56	5.412
263.77	10.313
263.98	9.656
264.20	14.767
264.41	4.558
264.62	10.647
264.83	7.768
265.04	15.621
265.25	11.628
265.47	16.465
265.68	15.743
265.89	5.824
266.10	12.336
266.31	19.488
266.52	16.227
266.74	3.653
266.95	9.293
267.16	11.985
267.37	11.000
267.58	4.405
267.79	11.012
268.01	9.341
268.22	7.884
268.43	11.237
268.64	13.194
268.85	9.178
269.06	5.688
269.27	13.856
269.49	8.628
269.70	8.081
269.91	10.459
270.12	6.601
270.33	15.385
270.54	7.541
270.75	4.678
270.97	13.169
271.18	10.051
271.39	10.931
271.60	8.409
271.81	10.179
272.02	6.530
272.23	11.080
272.45	5.395
272.66	6.816
272.87	7.082
273.08	5.250
273.29	10.448
273.50	7.524
273.71	8.967
273.92	7.598
274.14	5.281
274.35	4.130
274.56	8.488
274.77	5.606
274.98	11.384
275.19	10.302
275.40	8.942
275.61	7.877
275.83	11.691
276.04	9.478
276.25	10.588
276.46	9.529
276.67	9.446
276.88	13.650
277.09	8.523
277.30	8.524
277.51	14.095
277.73	5.600
277.94	7.547
278.15	6.455
278.36	9.929
278.57	5.123
278.78	11.700
278.99	11.122
279.20	7.709
279.41	10.569
279.62	7.906
279.84	6.455
280.05	8.140
280.26	9.110
280.47	6.956
280.68	5.240
280.89	13.077
281.10	10.485
281.31	3.707
281.52	11.007
281.73	10.486
281.94	8.364
282.16	9.403
282.37	11.177
282.58	5.132
282.79	8.228
283.00	10.192
283.21	7.419
283.42	4.700
283.63	6.070
283.84	7.256
284.05	8.032
284.26	11.189
284.47	7.656
284.68	6.913
284.89	6.472
285.11	6.068
285.32	6.631
285.53	5.196
285.74	7.505
285.95	7.534
286.16	5.026
286.37	4.232
286.58	5.091
286.79	6.182
287.00	8.516
287.21	4.270
287.42	4.852
287.63	5.955
287.84	6.101
288.05	4.164
288.26	6.493
288.48	8.745
288.69	6.048
288.90	4.161
289.11	7.523
289.32	6.187
289.53	4.032
289.74	4.571
289.95	4.649
290.16	11.467
290.37	2.956
290.58	4.838
290.79	5.391
291.00	8.285
291.21	3.691
291.42	7.143
291.63	5.745
291.84	10.284
292.05	2.520
292.26	7.111
292.47	6.641
292.68	6.849
292.89	7.364
293.10	6.642
293.31	9.091
293.52	7.867
293.73	5.141
293.94	7.800
294.15	4.674
294.36	2.257
294.57	7.002
294.79	7.448
295.00	8.256
295.21	5.101
295.42	8.351
295.63	7.780
295.84	5.797
296.05	6.503
296.26	7.633
296.47	7.976
296.68	5.693
296.89	5.474
297.10	5.286
297.31	7.192
297.52	6.822
297.73	3.874
297.94	5.393
298.15	4.124
298.36	6.441
298.57	3.990
298.78	4.114
298.99	1.508
299.20	5.203
299.41	4.305
299.62	5.655
299.83	5.162
300.04	6.440
300.25	6.778
300.46	6.595
300.67	6.415
300.88	6.332
301.09	5.044
301.30	6.454
301.50	7.129
301.71	5.730
301.92	5.749
302.13	9.213
302.34	4.987
302.55	6.642
302.76	5.089
302.97	8.509
303.18	5.688
303.39	6.329
303.60	4.526
303.81	8.034
304.02	5.552
304.23	5.660
304.44	8.119
304.65	5.263
304.86	6.494
305.07	4.464
305.28	5.809
305.49	7.226
305.70	8.017
305.91	6.292
306.12	3.165
306.33	5.952
306.54	4.916
306.75	7.952
306.96	6.961
307.17	5.244
307.38	3.664
307.58	7.126
307.79	7.062
308.00	7.541
308.21	6.636
308.42	7.537
308.63	7.957
308.84	8.708
309.05	5.646
309.26	6.383
309.47	3.908
309.68	3.028
309.89	6.370
310.10	5.237
310.31	5.358
310.52	5.451
310.73	7.587
310.94	3.770
311.14	3.355
311.35	3.549
311.56	6.555
311.77	5.071
311.98	4.814
312.19	5.217
312.40	3.156
312.61	2.757
312.82	6.882
313.03	2.030
313.24	4.823
313.45	5.376
313.66	4.651
313.86	4.850
314.07	5.335
314.28	5.490
314.49	8.127
314.70	6.322
314.91	5.987
315.12	5.249
315.33	5.587
315.54	7.761
315.75	2.951
315.96	8.499
316.16	5.172
316.37	7.877
316.58	7.152
316.79	5.917
317.00	7.655
317.21	4.446
317.42	4.805
317.63	7.769
317.84	10.000
318.05	7.703
318.25	9.246
318.46	7.064
318.67	5.310
318.88	6.894
319.09	5.735
319.30	6.452
319.51	4.454
319.72	8.139
319.93	5.400
320.13	9.547
320.34	7.660
320.55	5.104
320.76	9.361
320.97	7.791
321.18	4.648
321.39	7.016
321.60	8.171
321.80	9.984
322.01	8.108
322.22	5.140
322.43	3.712
322.64	3.596
322.85	5.065
323.06	7.801
323.27	6.241
323.47	5.086
323.68	9.230
323.89	3.970
324.10	6.102
324.31	5.404
324.52	5.734
324.73	7.208
324.93	4.872
325.14	5.589
325.35	5.318
325.56	6.671
325.77	5.648
325.98	5.251
326.19	4.213
326.39	5.670
326.60	6.038
326.81	2.752
327.02	7.786
327.23	3.206
327.44	8.019
327.64	8.514
327.85	3.181
328.06	5.680
328.27	8.397
328.48	5.389
328.69	4.511
328.90	5.743
329.10	6.105
329.31	3.199
329.52	7.016
329.73	6.151
329.94	6.579
330.15	3.071
330.35	7.596
330.56	7.181
330.77	4.266
330.98	7.925
331.19	6.748
331.39	6.344
331.60	4.161
331.81	7.859
332.02	6.627
332.23	7.133
332.44	6.596
332.64	4.911
332.85	6.413
333.06	7.683
333.27	4.183
333.48	3.871
333.68	5.926
333.89	4.884
334.10	1.994
334.31	6.388
334.52	5.985
334.72	6.424
334.93	6.626
335.14	5.759
335.35	4.556
335.56	2.980
335.76	4.159
335.97	6.280
336.18	5.686
336.39	5.976
336.60	6.960
336.80	5.965
337.01	6.250
337.22	2.187
337.43	7.893
337.64	5.857
337.84	4.701
338.05	4.115
338.26	7.261
338.47	6.892
338.68	5.985
338.88	2.560
339.09	6.766
339.30	2.463
339.51	4.535
339.71	5.510
339.92	6.459
340.13	5.849
340.34	6.289
340.55	4.480
340.75	3.127
340.96	7.372
341.17	3.473
341.38	4.900
341.58	4.368
341.79	5.076
342.00	5.682
342.21	3.745
342.41	4.319
342.62	4.390
342.83	7.199
343.04	3.822
343.24	4.085
343.45	3.908
343.66	5.493
343.87	5.889
344.07	5.377
344.28	5.670
344.49	6.893
344.70	7.064
344.90	5.451
345.11	4.446
345.32	3.384
345.53	2.451
345.73	5.221
345.94	4.557
346.15	6.937
346.36	5.826
346.56	6.657
346.77	5.030
346.98	6.027
347.19	5.671
347.39	6.327
347.60	6.079
347.81	8.128
348.02	6.942
348.22	4.567
348.43	4.815
348.64	7.010
348.84	6.415
349.05	6.561
349.26	7.556
349.47	4.659
349.67	7.813
349.88	8.180
350.09	5.374
350.30	8.403
350.50	2.988
350.71	7.209
350.92	6.240
351.12	6.687
351.33	7.944
351.54	8.154
351.74	7.895
351.95	5.363
352.16	5.169
352.37	7.320
352.57	5.571
352.78	6.092
352.99	6.863
353.19	6.863
353.40	6.020
353.61	11.476
353.82	6.614
354.02	10.832
354.23	9.947
354.44	9.369
354.64	8.602
354.85	6.667
355.06	8.605
355.26	5.837
355.47	9.104
355.68	9.032
355.88	10.799
356.09	8.998
356.30	7.545
356.51	8.953
356.71	6.994
356.92	6.320
357.13	6.542
357.33	9.012
357.54	5.570
357.75	5.125
357.95	7.718
358.16	6.726
358.37	11.607
358.57	6.530
358.78	9.585
358.99	8.133
359.19	6.283
359.40	9.336
359.61	8.581
359.81	10.355
360.02	7.911
360.23	4.372
360.43	8.829
360.64	7.512
360.85	8.563
361.05	8.022
361.26	10.544
361.47	5.217
361.67	10.078
361.88	5.075
362.09	8.987
362.29	7.438
362.50	6.132
362.70	4.994
362.91	8.878
363.12	6.574
363.32	5.870
363.53	7.830
363.74	9.761
363.94	4.713
364.15	10.471
364.36	7.889
364.56	7.476
364.77	10.910
364.98	10.459
365.18	8.027
365.39	8.796
365.59	8.234
365.80	8.336
366.01	9.959
366.21	7.971
366.42	7.275
366.63	8.672
366.83	7.933
367.04	4.831
367.24	11.339
367.45	7.425
367.66	6.476
367.86	7.811
368.07	7.635
368.28	7.550
368.48	6.851
368.69	6.613
368.89	8.008
369.10	6.607
369.31	7.963
369.51	8.589
369.72	9.514
369.92	9.119
370.13	6.157
370.34	9.780
370.54	5.366
370.75	10.210
370.95	6.805
371.16	8.205
371.37	8.888
371.57	6.738
371.78	6.615
371.98	11.330
372.19	9.240
372.40	10.883
372.60	9.843
372.81	8.952
373.01	6.214
373.22	8.030
373.43	8.173
373.63	11.997
373.84	7.349
374.04	8.617
374.25	8.978
374.46	9.702
374.66	8.269
374.87	8.009
375.07	6.042
375.28	8.858
375.48	9.211
375.69	11.889
375.90	7.036
376.10	7.932
376.31	7.355
376.51	8.639
376.72	7.833
376.92	5.769
377.13	9.571
377.34	10.760
377.54	8.039
377.75	10.828
377.95	8.531
378.16	10.465
378.36	9.511
378.57	11.925
378.77	8.870
378.98	10.853
379.19	9.775
379.39	8.097
379.60	8.315
379.80	11.016
380.01	11.579
380.21	10.134
380.42	10.433
380.62	9.341
380.83	10.305
381.04	10.439
381.24	10.180
381.45	9.803
381.65	9.850
381.86	11.884
382.06	10.701
382.27	6.955
382.47	7.643
382.68	14.339
382.88	7.279
383.09	8.250
383.29	9.368
383.50	12.569
383.71	11.233
383.91	10.518
384.12	9.128
384.32	13.736
384.53	10.564
384.73	8.823
384.94	9.199
385.14	11.524
385.35	11.705
385.55	10.848
385.76	9.925
385.96	12.342
386.17	12.905
386.37	13.109
386.58	10.653
386.78	14.637
386.99	8.511
387.19	14.848
387.40	10.258
387.60	15.577
387.81	12.609
388.01	14.181
388.22	15.628
388.42	16.937
388.63	14.623
388.83	17.096
389.04	10.095
389.24	15.121
389.45	13.611
389.65	14.434
389.86	12.690
390.06	14.667
390.27	12.776
390.47	14.900
390.68	12.618
390.88	17.965
391.09	15.735
391.29	17.544
391.50	14.564
391.70	16.728
391.91	14.590
392.11	16.432
392.32	17.560
392.52	18.320
392.73	16.757
392.93	17.754
393.14	15.537
393.34	18.350
393.55	17.174
393.75	18.304
393.95	15.796
394.16	18.989
394.36	18.824
394.57	20.413
394.77	16.482
394.98	17.823
395.18	16.634
395.39	20.445
395.59	18.886
395.80	18.811
396.00	18.318
396.21	21.399
396.41	16.901
396.61	20.637
396.82	18.536
397.02	22.848
397.23	18.752
397.43	18.661
397.64	15.227
397.84	21.750
398.05	14.413
398.25	19.542
398.45	19.102
398.66	22.393
398.86	18.930
399.07	20.190
399.27	16.676
399.48	22.533
399.68	16.922
399.89	18.707
400.09	20.518
400.29	18.164
400.50	18.497
400.70	22.469
400.91	16.909
401.11	18.930
401.32	16.921
401.52	16.968
401.72	18.051
401.93	21.491
402.13	18.955
402.34	18.802
402.54	17.538
402.75	22.646
402.95	14.479
403.15	20.550
403.36	15.817
403.56	18.731
403.77	16.291
403.97	18.094
404.17	16.233
404.38	20.321
404.58	18.262
404.79	20.816
404.99	20.482
405.19	20.124
405.40	17.149
405.60	19.632
405.81	19.259
406.01	19.146
406.21	17.468
406.42	19.168
406.62	19.329
406.83	20.823
407.03	19.075
407.23	18.359
407.44	17.216
407.64	21.015
407.85	19.649
408.05	19.884
408.25	16.179
408.46	20.113
408.66	18.152
408.87	18.304
409.07	17.090
409.27	17.144
409.48	16.546
409.68	19.114
409.88	14.531
410.09	19.734
410.29	17.926
410.50	19.564
410.70	13.325
410.90	17.632
411.11	16.423
411.31	17.644
411.51	18.427
411.72	19.352
411.92	14.888
412.12	17.132
412.33	15.255
412.53	17.593
412.74	13.285
412.94	16.201
413.14	15.465
413.35	18.649
413.55	15.632
413.75	18.110
413.96	13.989
414.16	16.179
414.36	17.198
414.57	16.977
414.77	16.172
414.97	16.799
415.18	14.907
415.38	17.086
415.58	16.034
415.79	16.267
415.99	15.386
416.19	16.748
416.40	15.201
416.60	16.815
416.80	15.004
417.01	18.794
417.21	14.045
417.41	18.310
417.62	16.128
417.82	16.819
418.02	14.488
418.23	17.619
418.43	16.683
418.63	18.280
418.84	18.204
419.04	17.578
419.24	17.133
419.45	18.634
419.65	18.511
419.85	18.999
420.06	18.319
420.26	19.268
420.46	16.796
420.67	18.909
420.87	18.730
421.07	17.965
421.28	18.274
421.48	18.994
421.68	18.211
421.88	18.324
422.09	18.117
422.29	18.498
422.49	17.601
422.70	18.622
422.90	18.190
423.10	18.478
423.31	18.296
423.51	18.388
423.71	18.421
423.91	19.215
424.12	18.826
424.32	18.021
424.52	17.680
424.73	18.757
424.93	18.354
425.13	18.002
425.33	16.829
425.54	18.074
425.74	17.867
425.94	18.207
426.15	17.903
426.35	18.482
426.55	17.931
426.75	18.130
426.96	18.065
427.16	17.908
427.36	17.804
427.57	19.697
427.77	17.496
427.97	18.398
428.17	17.436
428.38	18.086
428.58	15.336
428.78	17.495
428.98	16.019
429.19	16.102
429.39	14.350
429.59	16.692
429.79	15.335
430.00	15.440
430.20	14.990
430.40	17.209
430.60	15.798
430.81	16.983
431.01	14.807
431.21	16.575
431.41	13.982
431.62	17.399
431.82	15.562
432.02	17.603
432.22	15.656
432.43	15.952
432.63	14.747
432.83	17.331
433.03	16.441
433.24	17.417
433.44	16.564
433.64	17.522
433.84	16.428
434.05	18.790
434.25	16.673
434.45	17.947
434.65	17.375
434.85	18.845
435.06	18.164
435.26	18.267
435.46	18.015
435.66	19.029
435.87	17.794
436.07	18.947
436.27	17.985
436.47	17.574
436.67	16.880
436.88	18.200
437.08	17.843
437.28	17.773
437.48	17.400
437.69	18.519
437.89	17.193
438.09	18.354
438.29	16.274
438.49	18.740
438.70	17.669
438.90	18.398
439.10	16.912
439.30	18.989
439.50	17.638
439.71	18.682
439.91	17.704
440.11	19.374
440.31	19.463
440.51	19.015
440.72	18.222
440.92	18.983
441.12	18.916
441.32	19.503
441.52	19.799
441.72	19.556
441.93	18.462
442.13	19.708
442.33	19.754
442.53	19.896
442.73	19.501
442.94	20.147
443.14	18.577
443.34	20.435
443.54	19.625
443.74	19.961
443.94	19.440
444.15	20.032
444.35	18.646
444.55	20.446
444.75	19.289
444.95	19.440
445.15	19.311
445.36	19.952
445.56	19.237
445.76	20.375
445.96	19.915
446.16	18.781
446.36	19.307
446.57	20.029
446.77	19.047
446.97	19.337
447.17	19.397
447.37	19.681
447.57	20.323
447.77	20.228
447.98	20.470
448.18	19.861
448.38	20.347
448.58	20.902
448.78	20.619
448.98	20.106
449.18	19.875
449.39	20.347
449.59	20.487
449.79	19.978
449.99	19.913
450.19	21.085
450.39	20.229
450.59	20.438
450.79	19.557
451.00	20.885
451.20	20.403
451.40	19.675
451.60	18.884
451.80	20.563
452.00	18.860
452.20	20.380
452.40	19.367
452.61	19.482
452.81	19.708
453.01	19.595
453.21	18.728
453.41	20.970
453.61	19.786
453.81	20.358
454.01	19.592
454.21	21.360
454.42	20.603
454.62	20.281
454.82	19.296
455.02	19.782
455.22	19.279
455.42	20.387
455.62	18.213
455.82	20.057
456.02	19.551
456.23	19.936
456.43	19.041
456.63	20.041
456.83	19.545
457.03	20.111
457.23	19.622
457.43	20.852
457.63	19.409
457.83	20.121
458.03	19.441
458.23	20.382
458.43	19.260
458.64	19.605
458.84	18.969
459.04	20.132
459.24	18.203
459.44	19.427
459.64	19.306
459.84	19.632
460.04	19.922
460.24	19.123
460.44	20.235
460.64	20.035
460.84	20.232
461.04	19.462
461.24	20.172
461.45	20.304
461.65	19.933
461.85	20.429
462.05	20.397
462.25	21.085
462.45	20.641
462.65	20.741
462.85	20.005
463.05	20.191
463.25	19.477
463.45	19.780
463.65	19.735
463.85	20.143
464.05	18.747
464.25	20.200
464.45	19.978
464.65	20.271
464.85	19.279
465.05	20.176
465.26	19.519
465.46	21.015
465.66	20.237
465.86	19.967
466.06	19.921
466.26	20.353
466.46	19.210
466.66	20.561
466.86	20.572
467.06	20.271
467.26	19.237
467.46	19.769
467.66	18.897
467.86	20.259
468.06	20.099
468.26	19.713
468.46	19.799
468.66	20.755
468.86	18.780
469.06	20.093
469.26	18.850
469.46	20.826
469.66	18.418
469.86	20.952
470.06	20.070
470.26	21.044
470.46	19.605
470.66	20.088
470.86	19.441
471.06	20.657
471.26	19.210
471.46	20.120
471.66	20.943
471.86	20.821
472.06	19.728
472.26	20.473
472.46	20.103
472.66	19.933
472.86	20.610
473.06	19.992
473.26	19.607
473.46	19.936
473.66	20.826
473.86	21.132
474.06	20.663
474.26	20.693
474.46	19.769
474.66	20.773
474.86	20.106
475.06	21.932
475.26	20.022
475.46	20.803
475.66	19.776
475.86	21.726
476.06	20.432
476.26	20.869
476.46	19.624
476.66	20.530
476.86	20.513
477.06	20.988
477.26	20.105
477.46	20.769
477.65	19.733
477.85	21.694
478.05	20.898
478.25	21.580
478.45	21.287
478.65	21.445
478.85	21.327
479.05	21.616
479.25	21.820
479.45	22.060
479.65	21.459
479.85	21.675
480.05	21.041
480.25	21.900
480.45	21.499
480.65	22.125
480.85	21.543
481.05	21.355
481.25	21.335
481.44	21.792
481.64	21.976
481.84	21.216
482.04	20.971
482.24	21.601
482.44	21.345
482.64	21.120
482.84	21.338
483.04	21.548
483.24	21.122
483.44	20.805
483.64	20.214
483.84	21.030
484.04	20.637
484.23	21.299
484.43	21.420
484.63	21.717
484.83	21.707
485.03	21.858
485.23	21.916
485.43	21.982
485.63	22.278
485.83	22.729
486.03	22.390
486.23	22.553
486.42	22.376
486.62	22.288
486.82	21.966
487.02	22.179
487.22	21.956
487.42	21.622
487.62	21.537
487.82	21.551
488.02	21.270
488.22	21.499
488.41	21.776
488.61	21.474
488.81	21.930
489.01	22.089
489.21	22.113
489.41	22.177
489.61	22.021
489.81	22.115
490.01	22.261
490.20	22.635
490.40	22.505
490.60	22.079
490.80	21.920
491.00	22.479
491.20	21.963
491.40	21.758
491.60	21.363
491.79	21.385
491.99	21.264
492.19	21.456
492.39	21.458
492.59	21.394
492.79	21.416
492.99	22.231
493.19	21.869
493.38	22.391
493.58	22.498
493.78	22.614
493.98	22.041
494.18	23.075
494.38	22.561
494.58	22.826
494.77	22.017
494.97	22.360
495.17	23.037
495.37	22.911
495.57	22.501
495.77	21.322
495.96	22.323
496.16	22.730
496.36	23.024
496.56	21.911
496.76	22.174
496.96	22.387
497.15	22.208
497.35	21.610
497.55	22.114
497.75	22.275
497.95	22.178
498.15	22.225
498.34	21.641
498.54	22.236
498.74	23.101
498.94	22.683
499.14	22.267
499.34	22.922
499.53	22.598
499.73	23.040
499.93	23.416
500.13	23.114
500.33	23.052
500.52	22.678
500.72	22.317
500.92	22.863
501.12	22.109
501.32	23.552
501.52	23.109
501.71	23.437
501.91	24.243
502.11	23.395
502.31	23.993
502.51	23.770
502.70	23.829
502.90	23.778
503.10	24.109
503.30	24.607
503.50	24.879
503.69	23.993
503.89	24.393
504.09	23.972
504.29	23.922
504.48	24.386
504.68	24.220
504.88	24.526
505.08	24.230
505.28	25.123
505.47	24.793
505.67	25.061
505.87	24.967
506.07	25.436
506.27	25.282
506.46	25.204
506.66	25.727
506.86	26.332
507.06	26.392
507.25	25.713
507.45	26.146
507.65	26.115
507.85	27.384
508.04	27.051
508.24	27.391
508.44	26.404
508.64	26.734
508.83	27.393
509.03	26.288
509.23	27.145
509.43	26.726
509.63	27.047
509.82	27.324
510.02	26.514
510.22	26.580
510.42	27.741
510.61	27.522
510.81	28.788
511.01	28.247
511.21	28.262
511.40	29.830
511.60	29.304
511.80	29.330
511.99	29.202
512.19	29.424
512.39	29.528
512.59	29.122
512.78	29.129
512.98	30.334
513.18	29.219
513.38	29.867
513.57	30.288
513.77	30.783
513.97	30.657
514.17	30.595
514.36	31.399
514.56	31.683
514.76	31.064
514.95	31.079
515.15	32.003
515.35	30.827
515.55	31.628
515.74	32.987
515.94	32.558
516.14	32.663
516.33	32.145
516.53	32.146
516.73	32.862
516.93	32.808
517.12	31.946
517.32	31.824
517.52	32.903
517.71	32.084
517.91	31.687
518.11	31.267
518.30	30.910
518.50	30.848
518.70	29.994
518.90	30.731
519.09	30.352
519.29	30.208
519.49	30.165
519.68	30.058
519.88	30.289
520.08	30.628
520.27	30.696
520.47	31.184
520.67	31.427
520.86	31.618
521.06	31.669
521.26	31.342
521.45	30.974
521.65	32.419
521.85	32.414
522.04	32.095
522.24	32.099
522.44	31.960
522.63	31.745
522.83	32.010
523.03	32.706
523.22	32.494
523.42	31.919
523.62	32.158
523.81	32.354
524.01	30.961
524.21	31.954
524.40	30.902
524.60	31.450
524.80	30.331
524.99	30.434
525.19	30.327
525.39	30.447
525.58	30.260
525.78	29.557
525.98	29.596
526.17	29.307
526.37	29.090
526.57	29.681
526.76	28.703
526.96	29.513
527.15	29.373
527.35	29.071
527.55	28.544
527.74	29.753
527.94	28.029
528.14	27.953
528.33	27.406
528.53	27.065
528.72	27.216
528.92	27.211
529.12	27.195
529.31	27.361
529.51	27.666
529.71	27.946
529.90	27.891
530.10	28.112
530.29	28.152
530.49	28.812
530.69	28.625
530.88	28.462
531.08	28.468
531.28	28.806
531.47	29.492
531.67	28.740
531.86	29.574
532.06	29.414
532.26	28.097
532.45	28.554
532.65	29.016
532.84	28.011
533.04	27.967
533.24	27.480
533.43	27.583
533.63	27.910
533.82	27.645
534.02	28.032
534.22	28.061
534.41	27.947
534.61	27.916
534.80	28.653
535.00	28.135
535.19	28.292
535.39	28.301
535.59	29.565
535.78	28.888
535.98	28.970
536.17	28.748
536.37	28.771
536.57	29.081
536.76	28.367
536.96	29.034
537.15	29.037
537.35	29.425
537.54	29.002
537.74	29.139
537.93	28.897
538.13	29.046
538.33	29.135
538.52	29.889
538.72	29.791
538.91	29.625
539.11	29.591
539.30	29.617
539.50	29.902
539.70	29.093
539.89	29.521
540.09	28.795
540.28	29.358
540.48	29.151
540.67	28.956
540.87	28.697
541.06	27.293
541.26	27.720
541.45	28.160
541.65	27.738
541.85	28.457
542.04	27.930
542.24	28.461
542.43	28.096
542.63	28.147
542.82	28.536
543.02	28.943
543.21	29.158
543.41	29.150
543.60	29.945
543.80	29.534
543.99	29.084
544.19	29.722
544.38	29.674
544.58	29.455
544.77	29.471
544.97	29.483
545.16	30.330
545.36	29.801
545.56	29.724
545.75	30.165
545.95	29.344
546.14	30.337
546.34	30.195
546.53	29.061
546.73	29.989
546.92	29.885
547.12	30.019
547.31	29.345
547.51	29.644
547.70	30.519
547.90	29.873
548.09	29.427
548.29	30.026
548.48	30.281
548.68	30.021
548.87	31.276
549.07	30.958
549.26	30.148
549.46	31.263
549.65	31.574
549.84	30.899
550.04	31.203
550.23	31.253
550.43	31.687
550.62	31.402
550.82	31.261
551.01	31.371
551.21	32.297
551.40	32.024
551.60	32.293
551.79	32.828
551.99	31.642
552.18	32.146
552.38	32.880
552.57	32.445
552.77	32.633
552.96	31.099
553.16	32.771
553.35	31.181
553.54	31.588
553.74	32.258
553.93	32.776
554.13	32.102
554.32	31.959
554.52	32.756
554.71	32.638
554.91	32.930
555.10	34.167
555.29	31.618
555.49	33.099
555.68	33.439
555.88	32.404
556.07	32.136
556.27	32.996
556.46	32.617
556.66	32.019
556.85	33.251
557.04	32.228
557.24	34.327
557.43	33.591
557.63	34.087
557.82	33.155
558.02	33.225
558.21	34.188
558.40	33.434
558.60	33.725
558.79	33.778
558.99	33.348
559.18	32.776
559.38	33.791
559.57	33.778
559.76	34.569
559.96	34.484
560.15	33.843
560.35	33.639
560.54	34.208
560.73	34.277
560.93	33.865
561.12	32.601
561.32	33.780
561.51	32.979
561.70	32.492
561.90	33.353
562.09	34.692
562.29	34.063
562.48	33.836
562.67	33.789
562.87	34.261
563.06	34.184
563.26	34.610
563.45	33.568
563.64	33.819
563.84	33.417
564.03	34.564
564.23	33.203
564.42	34.508
564.61	33.242
564.81	34.619
565.00	33.158
565.20	33.962
565.39	32.024
565.58	33.493
565.78	34.331
565.97	33.836
566.16	33.030
566.36	34.226
566.55	33.563
566.74	32.373
566.94	32.614
567.13	33.657
567.33	34.765
567.52	34.264
567.71	34.486
567.91	33.654
568.10	33.876
568.29	34.316
568.49	34.541
568.68	34.452
568.87	34.821
569.07	33.968
569.26	33.039
569.45	34.953
569.65	34.605
569.84	35.362
570.04	33.773
570.23	33.587
570.42	34.201
570.62	34.163
570.81	33.673
571.00	33.329
571.20	34.573
571.39	33.642
571.58	34.398
571.78	34.441
571.97	33.928
572.16	34.846
572.36	33.924
572.55	33.703
572.74	33.976
572.94	33.207
573.13	33.556
573.32	34.937
573.51	33.696
573.71	33.895
573.90	33.664
574.09	34.289
574.29	34.264
574.48	34.624
574.67	34.196
574.87	33.920
575.06	34.300
575.25	33.661
575.45	32.826
575.64	33.040
575.83	33.567
576.03	34.895
576.22	32.740
576.41	35.325
576.60	33.784
576.80	33.392
576.99	33.658
577.18	34.524
577.38	33.811
577.57	33.983
577.76	34.949
577.95	34.111
578.15	34.361
578.34	34.292
578.53	33.961
578.73	34.147
578.92	34.095
579.11	34.430
579.30	33.960
579.50	34.881
579.69	33.799
579.88	33.519
580.08	34.598
580.27	34.116
580.46	33.708
580.65	34.148
580.85	35.128
581.04	34.467
581.23	35.322
581.42	34.990
581.62	34.515
581.81	34.261
582.00	32.908
582.19	33.887
582.39	33.669
582.58	34.698
582.77	32.691
582.96	35.544
583.16	33.215
583.35	34.691
583.54	33.622
583.73	33.759
583.93	33.393
584.12	32.964
584.31	34.568
584.50	34.410
584.70	32.844
584.89	33.559
585.08	32.864
585.27	34.521
585.47	33.886
585.66	33.527
585.85	33.168
586.04	34.516
586.24	33.882
586.43	33.915
586.62	33.204
586.81	35.112
587.00	31.770
587.20	34.923
587.39	34.231
587.58	34.327
587.77	34.308
587.97	32.794
588.16	34.512
588.35	32.919
588.54	33.401
588.73	34.507
588.93	34.482
589.12	33.612
589.31	33.112
589.50	34.262
589.69	33.648
589.89	34.534
590.08	33.419
590.27	33.041
590.46	34.490
590.65	33.690
590.85	32.899
591.04	33.004
591.23	33.641
591.42	34.429
591.61	33.105
591.81	34.582
592.00	34.152
592.19	34.428
592.38	34.120
592.57	34.590
592.77	35.350
592.96	33.641
593.15	35.205
593.34	33.315
593.53	34.380
593.72	34.771
593.92	33.537
594.11	34.833
594.30	35.193
594.49	33.985
594.68	35.614
594.87	34.539
595.07	35.341
595.26	33.450
595.45	34.731
595.64	35.379
595.83	34.320
596.02	35.158
596.22	34.459
596.41	35.849
596.60	33.754
596.79	34.144
596.98	33.755
597.17	35.375
597.37	34.850
597.56	35.258
597.75	34.577
597.94	35.211
598.13	35.412
598.32	34.764
598.51	35.093
598.71	36.091
598.90	35.390
599.09	34.989
599.28	36.182
599.47	35.822
599.66	34.982
599.85	36.788
600.05	35.648
600.24	36.064
600.43	34.320
600.62	36.490
600.81	37.241
601.00	36.870
601.19	34.802
601.38	36.318
601.58	35.490
601.77	36.695
601.96	35.935
602.15	37.314
602.34	36.796
602.53	36.986
602.72	36.420
602.91	36.291
603.10	35.868
603.30	35.665
603.49	36.362
603.68	36.307
603.87	35.331
604.06	35.256
604.25	36.160
604.44	35.175
604.63	34.893
604.82	35.728
605.01	36.444
605.21	36.853
605.40	35.797
605.59	37.363
605.78	36.125
605.97	36.286
606.16	36.458
606.35	37.047
606.54	36.858
606.73	36.475
606.92	36.443
607.11	36.407
607.30	37.162
607.50	36.908
607.69	34.809
607.88	35.881
608.07	36.248
608.26	37.275
608.45	36.467
608.64	36.703
608.83	37.050
609.02	36.951
609.21	36.197
609.40	35.876
609.59	35.772
609.78	35.673
609.97	36.790
610.16	37.767
610.35	35.335
610.55	37.150
610.74	36.913
610.93	35.484
611.12	37.026
611.31	36.069
611.50	38.393
611.69	36.722
611.88	36.432
612.07	36.511
612.26	35.633
612.45	35.805
612.64	37.345
612.83	36.718
613.02	35.489
613.21	37.759
613.40	36.371
613.59	36.368
613.78	34.977
613.97	37.169
614.16	36.135
614.35	37.230
614.54	37.563
614.73	37.463
614.92	34.482
615.11	34.870
615.30	36.304
615.49	36.662
615.68	36.039
615.87	36.664
616.07	35.961
616.26	35.580
616.45	35.282
616.64	36.871
616.83	35.402
617.02	36.534
617.21	35.777
617.40	37.195
617.59	34.971
617.78	37.935
617.97	35.494
618.16	36.061
618.35	35.698
618.54	34.926
618.73	35.825
618.92	35.418
619.11	35.576
619.30	37.541
619.49	35.825
619.68	36.823
619.86	35.479
620.05	35.214
620.24	34.620
620.43	35.748
620.62	34.511
620.81	35.391
621.00	33.981
621.19	35.865
621.38	34.284
621.57	35.999
621.76	34.314
621.95	35.756
622.14	34.225
622.33	35.550
622.52	34.472
622.71	36.018
622.90	33.478
623.09	36.203
623.28	33.772
623.47	37.042
623.66	36.789
623.85	36.183
624.04	34.757
624.23	34.890
624.42	33.445
624.61	33.901
624.80	34.212
624.99	35.659
625.18	34.021
625.36	34.574
625.55	36.007
625.74	34.037
625.93	32.836
626.12	34.692
626.31	33.425
626.50	34.124
626.69	35.146
626.88	35.227
627.07	35.623
627.26	34.343
627.45	33.884
627.64	35.131
627.83	33.351
628.02	34.982
628.20	34.950
628.39	34.717
628.58	35.136
628.77	34.121
628.96	35.336
629.15	34.425
629.34	34.513
629.53	33.529
629.72	34.692
629.91	35.427
630.10	34.846
630.29	33.125
630.47	35.022
630.66	33.841
630.85	34.323
631.04	33.025
631.23	33.921
631.42	35.177
631.61	32.851
631.80	35.626
631.99	34.537
632.18	33.123
632.36	32.840
632.55	33.170
632.74	34.052
632.93	33.629
633.12	35.025
633.31	33.814
633.50	32.393
633.69	32.927
633.88	34.902
634.06	34.854
634.25	33.289
634.44	34.047
634.63	33.237
634.82	33.630
635.01	32.991
635.20	34.782
635.39	33.934
635.57	35.143
635.76	33.614
635.95	34.423
636.14	32.688
636.33	35.300
636.52	31.720
636.71	34.185
636.89	31.845
637.08	34.336
637.27	32.381
637.46	33.997
637.65	32.531
637.84	34.149
638.03	32.208
638.21	33.972
638.40	34.582
638.59	34.403
638.78	31.765
638.97	34.954
639.16	34.566
639.34	35.206
639.53	31.520
639.72	32.915
639.91	32.004
640.10	33.115
640.29	33.270
640.47	32.761
640.66	30.795
640.85	34.152
641.04	30.703
641.23	33.542
641.42	32.035
641.60	33.933
641.79	32.493
641.98	32.705
642.17	32.625
642.36	34.414
642.54	31.830
642.73	34.420
642.92	31.876
643.11	33.773
643.30	31.113
643.49	33.058
643.67	30.651
643.86	34.666
644.05	31.261
644.24	31.377
644.43	32.097
644.61	34.118
644.80	30.921
644.99	32.717
645.18	33.294
645.37	30.228
645.55	29.555
645.74	32.550
645.93	32.655
646.12	33.833
646.31	31.250
646.49	32.271
646.68	30.979
646.87	34.171
647.06	32.523
647.24	32.660
647.43	29.306
647.62	33.021
647.81	29.543
648.00	33.925
648.18	28.757
648.37	33.256
648.56	31.054
648.75	32.679
648.93	31.889
649.12	33.056
649.31	31.278
649.50	31.914
649.68	29.716
649.87	32.575
650.06	29.078
650.25	32.899
650.43	31.017
650.62	31.992
650.81	33.313
651.00	33.314
651.18	29.694
651.37	33.487
651.56	29.673
651.75	33.725
651.93	29.376
652.12	33.236
652.31	30.801
652.50	34.315
652.68	31.214
652.87	32.419
653.06	32.223
653.25	33.158
653.43	32.496
653.62	33.135
653.81	30.024
654.00	33.533
654.18	28.937
654.37	34.869
654.56	30.776
654.74	30.208
654.93	29.865
655.12	31.546
655.31	29.829
655.49	30.847
655.68	29.398
655.87	31.435
656.05	26.966
656.24	30.561
656.43	25.942
656.62	30.289
656.80	28.869
656.99	29.445
657.18	24.882
657.36	29.051
657.55	29.310
657.74	29.076
657.93	30.621
658.11	30.937
658.30	28.246
658.49	29.905
658.67	27.662
658.86	28.255
659.05	27.905
659.23	28.671
659.42	29.700
659.61	30.129
659.79	27.853
659.98	29.708
660.17	28.465
660.35	29.736
660.54	28.463
660.73	29.953
660.91	28.603
661.10	29.892
661.29	27.308
661.47	29.319
661.66	26.320
661.85	28.544
662.03	26.223
662.22	25.251
662.41	23.152
662.59	26.421
662.78	22.664
662.97	25.642
663.15	23.211
663.34	25.597
663.53	20.505
663.71	24.471
663.90	22.692
664.09	26.598
664.27	20.973
664.46	25.228
664.65	21.008
664.83	22.468
665.02	22.523
665.21	20.979
665.39	16.439
665.58	20.086
665.77	19.415
665.95	20.415
666.14	16.570
666.32	21.783
666.51	18.945
666.70	19.562
666.88	18.777
667.07	20.732
667.26	15.799
667.44	20.338
667.63	19.637
667.81	18.727
668.00	17.590
668.19	21.877
668.37	19.900
668.56	20.888
668.75	13.726
668.93	22.627
669.12	17.283
669.30	20.564
669.49	16.855
669.68	18.645
669.86	18.456
670.05	16.990
670.23	17.202
670.42	17.575
670.61	17.784
670.79	19.565
670.98	20.827
671.16	21.699
671.35	15.524
671.54	19.910
671.72	15.474
671.91	18.789
672.09	15.382
672.28	19.207
672.46	21.345
672.65	19.242
672.84	16.929
673.02	20.429
673.21	13.621
673.39	16.784
673.58	17.966
673.77	18.677
673.95	15.580
674.14	20.913
674.32	15.245
674.51	19.765
674.69	17.272
674.88	19.268
675.07	15.874
675.25	22.306
675.44	17.998
675.62	17.874
675.81	16.231
675.99	25.109
676.18	19.976
676.36	19.809
676.55	13.796
676.74	21.420
676.92	19.778
677.11	19.928
677.29	18.008
677.48	18.499
677.66	19.174
677.85	21.198
678.03	17.983
678.22	21.414
678.40	17.960
678.59	19.984
678.78	16.622
678.96	21.000
679.15	15.540
679.33	21.822
679.52	20.996
679.70	22.238
679.89	19.718
680.07	24.329
680.26	20.060
680.44	23.518
680.63	21.532
680.81	22.045
681.00	17.756
681.18	23.828
681.37	21.591
681.55	24.141
681.74	26.346
681.92	25.016
682.11	23.158
682.29	21.965
682.48	23.414
682.66	24.549
682.85	22.377
683.03	25.127
683.22	25.426
683.40	26.202
683.59	24.336
683.77	26.396
683.96	22.246
684.14	28.303
684.33	19.847
684.51	29.544
684.70	25.049
684.88	30.718
685.07	24.284
685.25	28.694
685.44	24.695
685.62	28.207
685.81	24.081
685.99	27.436
686.18	21.958
686.36	30.077
686.55	22.621
686.73	27.258
686.92	26.722
687.10	28.699
687.29	29.262
687.47	29.743
687.65	28.513
687.84	29.611
688.02	29.367
688.21	30.977
688.39	26.092
688.58	34.774
688.76	28.314
688.95	31.074
689.13	25.385
689.32	34.957
689.50	31.360
689.68	32.393
689.87	31.716
690.05	34.723
690.24	33.525
690.42	33.006
690.61	35.143
690.79	35.144
690.98	31.509
691.16	38.660
691.34	30.069
691.53	35.910
691.71	34.041
691.90	34.713
692.08	34.183
692.27	37.212
692.45	33.879
692.63	36.512
692.82	36.426
693.00	39.472
693.19	32.097
693.37	37.540
693.56	33.902
693.74	40.861
693.92	33.873
694.11	38.366
694.29	37.844
694.48	42.830
694.66	35.257
694.84	41.439
695.03	36.685
695.21	40.844
695.40	41.008
695.58	42.247
695.76	36.746
695.95	40.075
696.13	38.267
696.32	43.357
696.50	45.771
696.68	41.617
696.87	36.648
697.05	42.864
697.24	43.109
697.42	46.199
697.60	43.074
697.79	44.651
697.97	43.586
698.16	46.019
698.34	41.495
698.52	44.013
698.71	45.624
698.89	43.817
699.07	43.419
699.26	46.006
699.44	45.187
699.63	45.721
699.81	44.515
699.99	44.291
700.18	44.026
700.36	48.984
700.54	44.236
700.73	47.995
700.91	46.214
701.09	47.639
701.28	45.674
701.46	47.762
701.64	44.209
701.83	48.527
702.01	45.423
702.20	49.691
702.38	47.317
702.56	44.370
702.75	44.738
702.93	46.358
703.11	44.370
703.30	47.672
703.48	44.439
703.66	47.038
703.85	47.021
704.03	49.373
704.21	45.445
704.40	49.200
704.58	43.322
704.76	48.370
704.95	46.340
705.13	46.105
705.31	48.301
705.50	48.259
705.68	44.901
705.86	50.386
706.04	44.389
706.23	48.043
706.41	46.034
706.59	49.837
706.78	46.988
706.96	51.197
707.14	47.921
707.33	49.523
707.51	45.932
707.69	52.410
707.88	47.345
708.06	49.592
708.24	48.931
708.42	50.513
708.61	48.396
708.79	51.170
708.97	50.358
709.16	51.068
709.34	48.783
709.52	47.917
709.71	47.446
709.89	50.800
710.07	48.174
710.25	50.541
710.44	47.561
710.62	49.517
710.80	50.078
710.98	52.213
711.17	52.132
711.35	49.241
711.53	46.545
711.72	50.100
711.90	49.472
712.08	50.706
712.26	47.940
712.45	51.984
712.63	50.893
712.81	53.690
712.99	50.283
713.18	50.584
713.36	52.143
713.54	54.128
713.72	50.000
713.91	52.160
714.09	49.144
714.27	47.844
714.45	51.821
714.64	49.948
714.82	46.688
715.00	49.567
715.18	48.180
715.37	48.673
715.55	50.617
715.73	50.638
715.91	49.500
716.10	52.776
716.28	47.736
716.46	51.332
716.64	45.478
716.83	51.212
717.01	47.077
717.19	49.601
717.37	49.744
717.55	48.902
717.74	50.000
717.92	48.940
718.10	46.189
718.28	49.918
718.47	44.898
718.65	48.898
718.83	47.387
719.01	51.838
719.19	48.428
719.38	47.847
719.56	47.818
719.74	49.283
719.92	40.313
720.10	45.287
720.29	45.518
720.47	48.843
720.65	45.853
720.83	47.396
721.01	47.109
721.20	47.027
721.38	41.818
721.56	50.035
721.74	45.651
721.92	52.387
722.11	47.234
722.29	50.000
722.47	44.184
722.65	51.883
722.83	50.976
723.01	46.648
723.20	49.241
723.38	50.139
723.56	43.086
723.74	51.620
723.92	46.957
724.10	50.709
724.29	43.303
724.47	48.444
724.65	47.909
724.83	52.567
725.01	42.297
725.19	51.787
725.38	44.920
725.56	54.275
725.74	48.029
725.92	49.083
726.10	44.808
726.28	50.259
726.46	50.962
726.65	49.507
726.83	49.079
727.01	52.971
727.19	49.095
727.37	50.556
727.55	46.159
727.73	50.691
727.92	51.597
728.10	49.866
728.28	44.719
728.46	53.775
728.64	47.773
728.82	51.443
729.00	47.520
729.19	48.973
729.37	51.525
729.55	49.427
729.73	47.471
729.91	54.905
730.09	51.157
730.27	49.365
730.45	47.246
730.63	48.493
730.82	46.503
731.00	50.995
731.18	48.503
731.36	54.730
731.54	49.738
731.72	53.295
731.90	50.782
732.08	53.333
732.26	48.600
732.45	53.161
732.63	51.463
732.81	56.864
732.99	48.657
733.17	56.979
733.35	53.137
733.53	53.817
733.71	49.905
733.89	55.403
734.07	55.598
734.25	57.740
734.44	52.914
734.62	54.997
734.80	50.641
734.98	54.563
735.16	54.441
735.34	53.447
735.52	48.996
735.70	50.908
735.88	54.505
736.06	54.870
736.24	56.369
736.42	53.991
736.60	56.975
736.78	60.471
736.97	52.157
737.15	55.812
737.33	52.181
737.51	55.114
737.69	57.260
737.87	57.099
738.05	53.371
738.23	58.670
738.41	53.968
738.59	55.124
738.77	56.313
738.95	57.504
739.13	54.167
739.31	55.906
739.49	56.619
739.67	59.179
739.85	56.437
740.03	57.299
740.21	51.125
740.39	56.380
740.57	56.394
740.75	58.028
740.93	54.917
741.11	59.635
741.30	52.713
741.48	60.834
741.66	53.930
741.84	55.482
742.02	58.547
742.20	59.858
742.38	55.300
742.56	57.544
742.74	54.914
742.92	54.609
743.10	52.407
743.28	57.778
743.46	56.648
743.64	53.061
743.82	54.545
744.00	60.711
744.18	55.566
744.36	55.289
744.54	55.435
744.72	59.513
744.90	58.650
745.08	56.371
745.26	53.854
745.44	62.149
745.62	54.884
745.80	57.379
745.98	56.232
746.16	56.367
746.34	56.580
746.52	56.148
746.70	52.306
746.87	52.923
747.05	60.638
747.23	53.067
747.41	59.787
747.59	58.961
747.77	55.020
747.95	55.716
748.13	54.085
748.31	60.496
748.49	57.229
748.67	58.465
748.85	55.979
749.03	54.800
749.21	55.284
749.39	58.576
749.57	49.513
749.75	55.523
749.93	59.940
750.11	59.880
750.29	55.756
750.47	59.077
750.65	53.463
750.83	67.925
751.01	50.955
751.18	60.321
751.36	57.407
751.54	60.406
751.72	54.246
751.90	56.977
752.08	45.780
752.26	58.292
752.44	53.733
752.62	60.792
752.80	58.624
752.98	60.329
753.16	57.900
753.34	57.930
753.52	55.393
753.69	59.637
753.87	53.876
754.05	61.570
754.23	57.290
754.41	60.490
754.59	59.606
754.77	60.460
754.95	59.324
755.13	67.119
755.31	58.502
755.49	57.471
755.66	51.360
755.84	55.620
756.02	55.015
756.20	60.000
756.38	55.532
756.56	54.801
756.74	56.773
756.92	52.851
757.10	61.846
757.28	59.497
757.45	65.503
757.63	60.879
757.81	50.197
757.99	56.386
758.17	63.433
758.35	55.312
758.53	60.997
758.71	56.294
758.88	52.591
759.06	53.680
759.24	49.625
759.42	50.490
759.60	51.349
759.78	54.309
759.96	38.922
760.13	48.004
760.31	41.346
760.49	48.491
760.67	38.606
760.85	44.264
761.03	38.934
761.21	37.607
761.38	32.236
761.56	38.713
761.74	37.023
761.92	48.932
762.10	31.221
762.28	43.486
762.46	31.296
762.63	41.629
762.81	37.583
762.99	42.724
763.17	35.570
763.35	40.997
763.53	37.332
763.70	45.064
763.88	42.524
764.06	44.733
764.24	44.819
764.42	49.850
764.60	42.430
764.77	48.338
764.95	40.593
765.13	47.147
765.31	43.109
765.49	47.055
765.66	43.595
765.84	51.676
766.02	47.142
766.20	51.223
766.38	47.976
766.56	53.571
766.73	47.409
766.91	50.798
767.09	50.538
767.27	51.645
767.45	53.139
767.62	55.784
767.80	47.610
767.98	57.001
768.16	51.817
768.33	57.977
768.51	50.842
768.69	63.230
768.87	49.115
769.05	61.682
769.22	48.071
769.40	60.633
769.58	52.298
769.76	62.149
769.94	53.415
770.11	56.407
770.29	62.065
770.47	56.827
770.65	59.806
770.82	57.509
771.00	57.235
771.18	56.829
771.36	59.375
771.53	48.554
771.71	54.342
771.89	63.946
772.07	61.612
772.25	61.188
772.42	54.724
772.60	68.869
772.78	55.298
772.96	55.300
773.13	57.143
773.31	58.333
773.49	60.087
773.67	62.175
773.84	62.824
774.02	60.593
774.20	46.569
774.37	58.693
774.55	56.115
774.73	57.165
774.91	51.442
775.08	53.546
775.26	59.795
775.44	60.196
775.62	53.055
775.79	54.519
775.97	59.385
776.15	52.841
776.32	53.775
776.50	62.326
776.68	51.085
776.86	57.453
777.03	59.968
777.21	58.399
777.39	64.006
777.56	59.937
777.74	54.367
777.92	56.745
778.10	53.215
778.27	64.961
778.45	47.489
778.63	58.768
778.80	50.478
778.98	59.344
779.16	66.164
779.34	50.363
779.51	57.209
779.69	69.371
779.87	57.296
780.04	58.028
780.22	50.000
780.40	52.408
780.57	50.399
780.75	52.374
780.93	55.730
781.10	62.039
781.28	59.308
781.46	60.854
781.63	58.678
781.81	55.982
781.99	53.783
782.16	57.450
782.34	54.882
782.52	54.267
782.69	52.246
782.87	57.601
783.05	60.914
783.22	56.071
783.40	51.577
783.58	57.712
783.75	47.423
783.93	58.891
784.11	55.185
784.28	62.111
784.46	52.028
784.64	59.464
784.81	45.878
784.99	56.039
785.17	54.369
785.34	58.719
785.52	46.476
785.69	60.469
785.87	44.879
786.05	54.821
786.22	60.755
786.40	68.066
786.58	54.027
786.75	55.453
786.93	56.690
787.11	55.070
787.28	52.749
787.46	57.581
787.63	49.020
787.81	62.295
787.99	55.712
788.16	54.590
788.34	39.550
788.51	63.902
788.69	47.927
788.87	56.437
789.04	56.904
789.22	47.750
789.39	47.776
789.57	53.303
789.75	52.066
789.92	55.605
790.10	43.902
790.27	53.429
790.45	47.235
790.63	55.821
790.80	48.544
790.98	56.866
791.15	51.242
791.33	52.202
791.51	53.743
791.68	59.964
791.86	55.652
792.03	51.618
792.21	43.934
792.39	54.610
792.56	48.691
792.74	58.601
792.91	50.556
793.09	51.670
793.26	48.008
793.44	57.306
793.62	57.480
793.79	47.316
793.97	57.115
794.14	52.418
794.32	46.787
794.49	54.707
794.67	56.911
794.84	49.266
795.02	52.363
795.20	51.229
795.37	53.600
795.55	44.665
795.72	54.478
795.90	49.708
796.07	55.952
796.25	52.984
796.42	44.406
796.60	46.411
796.77	56.050
796.95	53.345
797.13	46.087
797.30	55.018
797.48	39.044
797.65	46.228
797.83	41.385
798.00	49.813
798.18	48.897
798.35	55.862
798.53	56.311
798.70	49.381
798.88	51.587
799.05	50.267
799.23	41.166
799.40	54.448
799.58	53.217
799.75	61.257
799.93	47.801
800.10	51.880
800.28	52.795
800.45	53.320
800.63	43.726
800.80	52.698
800.98	53.308
801.15	52.708
801.33	41.085
801.50	43.011
801.68	47.391
801.85	45.174
802.03	53.106
802.20	61.818
802.38	48.502
802.55	42.946
802.73	54.335
802.90	48.485
803.08	50.891
803.25	61.924
803.43	48.770
803.60	54.746
803.78	39.293
803.95	48.485
804.13	51.145
804.30	49.664
804.48	48.253
804.65	60.899
804.83	45.875
805.00	61.369
805.17	55.864
805.35	47.330
805.52	39.715
805.70	46.680
805.87	52.099
806.05	51.807
806.22	48.333
806.40	48.393
806.57	44.767
806.75	57.582
806.92	52.469
807.09	54.526
807.27	58.367
807.44	48.723
807.62	45.627
807.79	42.430
807.97	46.600
808.14	46.570
808.31	45.614
808.49	53.901
808.66	42.469
808.84	42.455
809.01	47.356
809.19	47.887
809.36	47.599
809.53	45.767
809.71	52.137
809.88	59.637
810.06	47.265
810.23	55.457
810.41	50.314
810.58	61.408
810.75	38.947
810.93	47.032
811.10	36.900
811.28	41.573
811.45	57.895
811.62	38.875
811.80	48.492
811.97	51.759
812.15	57.631
812.32	53.403
812.49	47.420
812.67	39.141
812.84	50.000
813.02	49.471
813.19	52.058
813.36	57.459
813.54	37.531
813.71	49.227
813.89	46.632
814.06	49.373
814.23	54.706
814.41	46.717
814.58	55.372
814.75	43.052
814.93	58.663
815.10	45.889
815.28	50.000
815.45	34.660
815.62	51.724
815.80	40.058
815.97	32.750
816.14	55.172
816.32	36.693
816.49	41.161
816.66	32.000
816.84	31.207
817.01	40.605
817.18	45.431
817.36	43.959
817.53	50.728
817.71	34.190
817.88	45.602
818.05	46.050
818.23	41.849
818.40	45.600
818.57	38.497
818.75	43.158
818.92	36.341
819.09	40.554
819.27	36.500
819.44	38.480
819.61	42.725
819.79	41.834
819.96	30.822
820.13	43.775
820.31	38.179
820.48	46.843
820.65	43.303
820.82	39.736
821.00	38.593
821.17	38.839
821.34	32.781
821.52	36.084
821.69	40.494
821.86	34.399
822.04	40.867
822.21	38.276
822.38	42.952
822.56	40.204
822.73	44.625
822.90	45.501
823.07	42.796
823.25	44.381
823.42	45.708
823.59	44.617
823.77	47.317
823.94	44.380
824.11	46.606
824.29	43.036
824.46	48.980
824.63	48.804
824.80	45.356
824.98	44.456
825.15	46.765
825.32	37.134
825.49	46.226
825.67	38.027
825.84	45.710
826.01	43.167
826.19	45.750
826.36	41.759
826.53	39.053
826.70	34.737
826.88	38.957
827.05	31.614
827.22	35.662
827.39	38.033
827.57	39.062
827.74	34.072
827.91	44.588
828.08	33.151
828.26	44.400
828.43	38.587
828.60	47.281
828.77	36.911
828.95	41.278
829.12	34.424
829.29	33.991
829.46	34.286
829.64	39.490
829.81	37.117
829.98	41.542
830.15	37.983
830.32	37.533
830.50	24.564
830.67	35.927
830.84	40.580
831.01	33.628
831.19	39.444
831.36	33.068
831.53	35.426
831.70	45.747
831.87	34.534
832.05	36.682
832.22	50.222
832.39	35.934
832.56	42.480
832.74	32.258
832.91	34.663
833.08	47.650
833.25	29.557
833.42	37.578
833.60	32.727
833.77	30.208
833.94	31.789
834.11	31.903
834.28	32.921
834.45	32.725
834.63	31.912
834.80	38.724
834.97	39.527
835.14	34.372
835.31	32.423
835.49	33.684
835.66	31.500
835.83	30.090
836.00	34.088
836.17	35.541
836.34	39.092
836.52	28.834
836.69	44.427
836.86	37.230
837.03	31.262
837.20	41.296
837.37	38.583
837.55	44.375
837.72	33.257
837.89	44.444
838.06	54.571
838.23	40.686
838.40	38.253
838.58	52.450
838.75	46.865
838.92	43.963
839.09	50.172
839.26	46.205
839.43	57.338
839.60	54.955
839.78	59.740
839.95	57.766
840.12	46.075
840.29	49.153
840.46	49.693
840.63	53.292
840.80	52.104
840.98	48.718
841.15	52.500
841.32	53.636
841.49	39.216
841.66	50.127
841.83	43.789
842.00	50.498
842.17	59.943
842.34	44.932
842.52	60.000
842.69	41.695
842.86	38.372
843.03	58.303
843.20	44.828
843.37	61.993
843.54	46.067
843.71	54.911
843.88	69.333
844.06	86.400
844.23	50.952
844.40	63.556
844.57	63.536
844.74	79.878
844.91	62.802
845.08	94.886
845.25	58.937
845.42	70.430
845.59	48.421
845.76	69.744
845.94	88.614
846.11	69.863
846.28	59.524
846.45	111.236
846.62	87.013
846.79	65.753
846.96	60.494
847.13	99.419
847.30	64.828
847.47	46.043
847.64	89.147
847.81	93.220
847.98	64.824
848.15	62.774
848.32	78.616
848.50	87.425
848.67	79.885
848.84	49.315
849.01	69.274
849.18	73.196
849.35	84.375
849.52	89.655
849.69	82.781
849.86	70.748
850.03	61.194
850.20	79.532
850.37	53.782
850.54	74.302
850.71	80.795
850.88	71.508
851.05	86.441
851.22	79.213
851.39	67.568
851.56	84.821
851.73	78.616
851.90	81.366
852.07	91.729
852.24	77.632
852.41	62.857
852.58	105.634
852.75	77.011
852.92	53.659
853.09	78.906
853.26	50.794
853.43	105.660
853.60	53.933
853.77	129.114
853.94	77.372
854.11	82.517
854.28	109.600
854.45	57.031
854.62	78.680
854.79	84.314
854.96	99.200
855.13	87.719
855.30	108.163
855.47	101.724
855.64	74.436
855.81	60.215
855.98	93.651
856.15	72.973
856.32	61.635
856.49	78.295
856.66	53.147
856.83	71.970
857.00	69.281
857.17	70.769
857.34	45.263
857.51	93.525
857.68	83.243
857.85	76.136
858.02	71.111
858.19	72.072
858.36	91.818
858.53	81.290
858.70	75.449
858.87	72.152
859.04	73.387
859.21	47.297
859.38	87.719
859.55	104.478
859.72	129.885
859.89	74.820
860.05	72.973
860.22	73.822
860.39	109.821
860.56	100.000
860.73	121.138
860.90	60.550
861.07	61.842
861.24	88.816
861.41	112.963
861.58	69.792
861.75	57.037
861.92	92.105
862.09	118.519
862.26	90.598
862.43	92.079
862.59	100.000
862.76	83.916
862.93	91.011
863.10	59.048
863.27	83.761
863.44	111.494
863.61	80.292
863.78	81.143
863.95	89.542
864.12	67.816
864.29	88.889
864.45	59.483
864.62	61.017
864.79	57.364
864.96	82.114
865.13	38.739
865.30	95.031
865.47	76.220
865.64	58.993
865.81	79.389
865.97	77.333
866.14	90.476
866.31	78.333
866.48	82.781
866.65	48.077
866.82	75.316
866.99	94.017
867.16	66.165
867.33	103.226
867.49	78.395
867.66	109.278
867.83	55.906
868.00	66.438
868.17	80.165
868.34	85.965
868.51	97.143
868.67	74.684
868.84	50.000
869.01	82.400
869.18	67.376
869.35	75.194
869.52	61.905
869.69	59.589
869.85	80.374
870.02	84.615
870.19	92.373
870.36	93.103
870.53	63.571
870.70	84.906
870.86	85.000
871.03	86.420
871.20	66.972
871.37	89.655
871.54	65.541
871.71	71.429
871.87	69.811
872.04	50.286
872.21	75.652
872.38	111.382
872.55	64.198
872.72	96.875
872.88	71.508
873.05	82.759
873.22	97.279
873.39	85.714
873.56	74.556
873.72	71.765
873.89	77.640
874.06	22.388
874.23	94.915
874.40	102.000
874.56	68.421
874.73	90.244
874.90	92.373
875.07	60.714
875.24	58.385
875.40	95.798
875.57	95.413
875.74	93.600
875.91	68.807
876.08	74.783
876.24	30.233
876.41	119.200
876.58	65.426
876.75	68.794
876.92	96.324
877.08	62.500
877.25	49.565
877.42	113.281
877.59	132.653
877.75	89.333
877.92	47.024
878.09	39.583
878.26	91.617
878.42	66.875
878.59	90.435
878.76	82.895
878.93	75.373
879.09	17.172
879.26	52.439
879.43	64.324
879.60	64.336
879.76	40.341
879.93	57.222
880.10	40.667
880.27	36.646
880.43	55.866
880.60	41.553
880.77	35.795
880.94	43.781
881.10	35.693
881.27	26.557
881.44	24.646
881.61	38.117
881.77	31.358
881.94	24.458
882.11	20.423
882.28	23.948
882.44	25.069
882.61	34.740
882.78	29.449
882.94	36.770
883.11	31.197
883.28	29.903
883.45	32.519
883.61	33.439
883.78	29.329
883.95	32.394
884.11	34.994
884.28	26.160
>>>>>End Processed Spectral Data<<<<<
