SpectraSuite Data File
++++++++++++++++++++++++++++++++++++
Date: Wed Sep 18 03:36:35 EST 2019
User: sgrac
Dark Spectrum Present: Yes
Reference Spectrum Present: Yes
Number of Sampled Component Spectra: 1
Spectrometers: USB4E01596
Integration Time (usec): 100000 (USB4E01596)
Spectra Averaged: 3 (USB4E01596)
Boxcar Smoothing: 0 (USB4E01596)
Correct for Electrical Dark: No (USB4E01596)
Strobe/Lamp Enabled: Yes (USB4E01596)
Correct for Detector Non-linearity: No (USB4E01596)
Correct for Stray Light: No (USB4E01596)
Number of Pixels in Processed Spectrum: 3648
>>>>>Begin Processed Spectral Data<<<<<
178.44	-151.613
178.66	-151.613
178.87	-151.613
179.09	-246.000
179.30	231.522
179.52	544.737
179.74	-950.000
179.95	-1313.333
180.17	651.163
180.38	-676.667
180.60	414.286
180.82	1331.250
181.03	332.558
181.25	-1878.571
181.46	-417.500
181.68	-518.605
181.89	679.592
182.11	510.000
182.33	496.078
182.54	433.333
182.76	973.913
182.97	1607.143
183.19	294.565
183.40	235.227
183.62	484.615
183.84	235.484
184.05	530.303
184.27	373.770
184.48	2225.000
184.70	625.000
184.91	550.000
185.13	-568.750
185.34	-325.000
185.56	-757.576
185.78	1516.667
185.99	396.721
186.21	490.244
186.42	-1630.000
186.64	266.667
186.85	1262.500
187.07	385.714
187.28	530.952
187.50	-770.588
187.72	518.000
187.93	338.554
188.15	513.235
188.36	-1423.529
188.58	337.662
188.79	-8750.000
189.01	120.408
189.22	316.883
189.44	975.000
189.65	280.899
189.87	257.895
190.09	278.723
190.30	876.667
190.52	1681.250
190.73	273.494
190.95	786.364
191.16	329.851
191.38	-18000.000
191.59	480.435
191.81	330.000
192.02	-676.923
192.24	404.839
192.45	300.000
192.67	331.818
192.88	292.188
193.10	440.909
193.31	348.214
193.53	319.355
193.74	633.333
193.96	422.034
194.18	-952.174
194.39	474.510
194.61	1113.793
194.82	903.846
195.04	288.889
195.25	367.213
195.47	-3675.000
195.68	185.915
195.90	270.330
196.11	389.583
196.33	1700.000
196.54	565.116
196.76	-724.000
196.97	312.000
197.19	765.000
197.40	215.038
197.62	-575.758
197.83	544.231
198.05	185.235
198.26	-800.000
198.48	408.333
198.69	233.028
198.91	279.710
199.12	-1491.667
199.34	768.000
199.55	10200.000
199.77	244.737
199.98	3733.333
200.20	564.706
200.41	438.028
200.63	368.519
200.84	952.381
201.06	448.387
201.27	400.000
201.49	406.250
201.70	447.541
201.91	527.273
202.13	1325.000
202.34	-517.143
202.56	381.667
202.77	-187.209
202.99	365.854
203.20	480.851
203.42	335.714
203.63	183.486
203.85	-631.034
204.06	931.818
204.28	1366.667
204.49	495.349
204.71	212.605
204.92	792.308
205.14	900.000
205.35	6250.000
205.56	314.085
205.78	288.889
205.99	167.939
206.21	211.111
206.42	519.565
206.64	729.412
206.85	212.222
207.07	468.571
207.28	278.409
207.50	852.174
207.71	509.302
207.93	433.333
208.14	506.977
208.35	372.881
208.57	400.000
208.78	301.064
209.00	332.258
209.21	230.282
209.43	327.778
209.64	884.615
209.86	1045.455
210.07	301.266
210.28	198.795
210.50	372.464
210.71	331.818
210.93	360.000
211.14	507.500
211.36	885.714
211.57	197.500
211.78	842.308
212.00	694.595
212.21	2600.000
212.43	2123.077
212.64	740.625
212.86	267.273
213.07	557.692
213.29	272.449
213.50	303.333
213.71	310.000
213.93	319.101
214.14	809.375
214.36	512.195
214.57	298.810
214.78	5225.000
215.00	237.805
215.21	637.778
215.43	-4240.000
215.64	348.571
215.86	289.706
216.07	352.055
216.28	512.000
216.50	466.000
216.71	840.000
216.93	-17600.000
217.14	1300.000
217.35	-254.237
217.57	222.727
217.78	658.621
218.00	277.143
218.21	316.176
218.42	-4325.000
218.64	810.714
218.85	320.588
219.07	451.163
219.28	508.333
219.49	-9300.000
219.71	319.403
219.92	355.263
220.14	-20000.000
220.35	316.438
220.56	269.565
220.78	258.537
220.99	-373.333
221.21	186.747
221.42	177.632
221.63	1430.769
221.85	-543.333
222.06	185.859
222.28	-657.143
222.49	457.895
222.70	241.379
222.92	447.368
223.13	146.575
223.34	1891.667
223.56	231.624
223.77	264.198
223.99	277.778
224.20	204.762
224.41	181.818
224.63	151.705
224.84	170.161
225.05	190.984
225.27	405.455
225.48	315.854
225.69	298.437
225.91	276.923
226.12	338.667
226.34	220.588
226.55	176.415
226.76	181.395
226.98	287.179
227.19	184.286
227.40	159.859
227.62	122.564
227.83	94.286
228.04	137.838
228.26	106.081
228.47	90.385
228.69	41.311
228.90	44.959
229.11	41.011
229.33	55.506
229.54	41.120
229.75	19.749
229.97	34.856
230.18	32.770
230.39	32.493
230.61	21.429
230.82	44.000
231.03	24.825
231.25	38.372
231.46	38.770
231.67	34.429
231.89	30.494
232.10	36.742
232.31	42.830
232.53	40.000
232.74	52.610
232.95	53.861
233.17	51.214
233.38	47.281
233.59	61.810
233.81	50.320
234.02	51.297
234.23	38.802
234.45	43.296
234.66	51.980
234.87	60.899
235.09	56.220
235.30	57.286
235.51	53.133
235.73	35.629
235.94	45.588
236.15	33.689
236.36	38.202
236.58	46.212
236.79	46.082
237.00	43.203
237.22	32.044
237.43	51.782
237.64	40.524
237.86	52.033
238.07	68.151
238.28	41.202
238.50	41.922
238.71	49.615
238.92	48.064
239.13	43.803
239.35	48.794
239.56	52.654
239.77	67.383
239.99	39.662
240.20	58.542
240.41	40.326
240.63	51.838
240.84	44.719
241.05	30.074
241.26	36.294
241.48	38.218
241.69	31.075
241.90	18.193
242.12	21.778
242.33	21.998
242.54	17.615
242.75	16.289
242.97	17.078
243.18	17.406
243.39	13.041
243.61	13.539
243.82	15.933
244.03	15.995
244.24	12.144
244.46	15.590
244.67	13.041
244.88	16.137
245.09	14.973
245.31	8.095
245.52	7.931
245.73	18.203
245.95	31.477
246.16	23.839
246.37	15.770
246.58	23.071
246.80	24.067
247.01	16.667
247.22	15.674
247.43	8.921
247.65	13.829
247.86	8.714
248.07	9.002
248.28	7.291
248.50	7.827
248.71	10.507
248.92	7.703
249.13	7.879
249.35	8.571
249.56	7.087
249.77	7.890
249.98	10.121
250.20	9.278
250.41	14.118
250.62	12.463
250.83	17.859
251.05	17.423
251.26	17.902
251.47	17.801
251.68	14.812
251.90	16.236
252.11	18.360
252.32	21.627
252.53	18.188
252.75	16.423
252.96	14.341
253.17	15.128
253.38	13.626
253.59	10.000
253.81	14.516
254.02	12.973
254.23	12.723
254.44	20.585
254.66	13.491
254.87	16.309
255.08	19.251
255.29	21.796
255.50	18.930
255.72	18.871
255.93	22.679
256.14	18.616
256.35	18.499
256.57	25.179
256.78	29.091
256.99	16.367
257.20	24.444
257.41	14.663
257.63	14.654
257.84	18.593
258.05	7.590
258.26	14.025
258.47	15.470
258.69	22.369
258.90	11.842
259.11	12.893
259.32	14.278
259.53	11.181
259.75	4.528
259.96	10.386
260.17	11.602
260.38	7.385
260.59	5.254
260.81	6.316
261.02	7.265
261.23	5.575
261.44	6.817
261.65	5.817
261.87	6.305
262.08	6.775
262.29	8.137
262.50	6.854
262.71	5.936
262.92	4.615
263.14	8.636
263.35	9.325
263.56	10.956
263.77	11.494
263.98	8.526
264.20	14.191
264.41	15.717
264.62	8.259
264.83	8.291
265.04	15.780
265.25	10.244
265.47	12.418
265.68	15.661
265.89	15.564
266.10	13.281
266.31	15.126
266.52	12.395
266.74	11.087
266.95	11.354
267.16	12.341
267.37	13.508
267.58	9.357
267.79	9.004
268.01	9.626
268.22	6.682
268.43	11.606
268.64	7.650
268.85	11.619
269.06	9.131
269.27	9.687
269.49	6.837
269.70	10.488
269.91	8.095
270.12	14.531
270.33	13.146
270.54	9.944
270.75	8.782
270.97	9.547
271.18	9.122
271.39	7.018
271.60	9.761
271.81	7.318
272.02	9.950
272.23	7.278
272.45	6.884
272.66	5.533
272.87	8.898
273.08	7.220
273.29	9.377
273.50	4.384
273.71	5.541
273.92	5.400
274.14	7.899
274.35	9.765
274.56	9.471
274.77	6.122
274.98	8.907
275.19	10.500
275.40	11.251
275.61	7.638
275.83	7.057
276.04	6.485
276.25	11.137
276.46	9.921
276.67	9.723
276.88	11.473
277.09	9.750
277.30	11.751
277.51	8.986
277.73	9.590
277.94	9.403
278.15	10.690
278.36	12.743
278.57	8.237
278.78	8.162
278.99	7.131
279.20	11.753
279.41	10.023
279.62	9.008
279.84	10.122
280.05	6.516
280.26	9.058
280.47	8.549
280.68	8.088
280.89	7.923
281.10	9.147
281.31	10.061
281.52	10.083
281.73	9.383
281.94	6.593
282.16	10.051
282.37	10.223
282.58	7.737
282.79	4.491
283.00	9.533
283.21	8.579
283.42	5.901
283.63	9.207
283.84	7.468
284.05	9.201
284.26	6.002
284.47	7.812
284.68	6.335
284.89	4.698
285.11	5.373
285.32	5.686
285.53	6.980
285.74	8.409
285.95	6.454
286.16	7.586
286.37	3.299
286.58	5.738
286.79	4.786
287.00	5.147
287.21	5.269
287.42	4.187
287.63	4.902
287.84	6.748
288.05	5.634
288.26	6.263
288.48	7.953
288.69	7.028
288.90	7.009
289.11	5.414
289.32	5.735
289.53	6.300
289.74	6.159
289.95	7.454
290.16	5.523
290.37	7.379
290.58	5.187
290.79	5.344
291.00	5.593
291.21	5.040
291.42	4.618
291.63	5.133
291.84	7.023
292.05	4.784
292.26	6.667
292.47	5.993
292.68	3.562
292.89	7.636
293.10	7.533
293.31	7.677
293.52	4.840
293.73	4.669
293.94	8.622
294.15	6.199
294.36	6.399
294.57	9.317
294.79	5.324
295.00	7.992
295.21	6.989
295.42	6.119
295.63	8.069
295.84	5.020
296.05	4.716
296.26	5.658
296.47	5.041
296.68	5.763
296.89	5.691
297.10	6.445
297.31	5.549
297.52	4.980
297.73	5.779
297.94	3.546
298.15	3.592
298.36	3.861
298.57	3.712
298.78	4.846
298.99	4.079
299.20	5.244
299.41	5.075
299.62	3.973
299.83	5.196
300.04	4.942
300.25	5.600
300.46	6.165
300.67	7.680
300.88	4.832
301.09	5.404
301.30	4.349
301.50	5.897
301.71	7.978
301.92	5.659
302.13	5.610
302.34	5.544
302.55	7.990
302.76	6.274
302.97	5.160
303.18	4.300
303.39	8.674
303.60	6.443
303.81	7.764
304.02	4.797
304.23	6.180
304.44	9.666
304.65	7.210
304.86	6.253
305.07	4.301
305.28	5.870
305.49	6.677
305.70	4.851
305.91	5.882
306.12	5.491
306.33	4.803
306.54	7.416
306.75	5.912
306.96	6.940
307.17	6.239
307.38	7.101
307.58	4.080
307.79	5.748
308.00	6.456
308.21	3.986
308.42	3.214
308.63	9.302
308.84	7.012
309.05	7.070
309.26	5.190
309.47	7.608
309.68	6.276
309.89	7.355
310.10	4.850
310.31	4.622
310.52	4.221
310.73	5.302
310.94	4.825
311.14	4.764
311.35	4.072
311.56	5.874
311.77	3.148
311.98	4.452
312.19	4.592
312.40	5.833
312.61	4.300
312.82	5.058
313.03	6.058
313.24	5.224
313.45	5.433
313.66	5.256
313.86	4.739
314.07	3.260
314.28	5.702
314.49	3.463
314.70	6.748
314.91	6.490
315.12	6.650
315.33	7.915
315.54	5.424
315.75	5.466
315.96	4.812
316.16	5.360
316.37	6.039
316.58	6.851
316.79	5.187
317.00	8.233
317.21	5.262
317.42	7.206
317.63	6.207
317.84	6.535
318.05	6.153
318.25	5.875
318.46	7.205
318.67	5.710
318.88	8.218
319.09	5.828
319.30	6.835
319.51	5.312
319.72	5.846
319.93	4.434
320.13	6.504
320.34	6.669
320.55	6.504
320.76	8.176
320.97	6.064
321.18	7.602
321.39	4.789
321.60	6.544
321.80	8.163
322.01	7.875
322.22	9.058
322.43	5.798
322.64	7.070
322.85	6.145
323.06	5.978
323.27	7.113
323.47	5.861
323.68	7.852
323.89	5.391
324.10	6.269
324.31	7.252
324.52	5.657
324.73	5.551
324.93	5.861
325.14	4.758
325.35	6.160
325.56	6.713
325.77	7.650
325.98	5.006
326.19	6.263
326.39	4.433
326.60	5.275
326.81	4.523
327.02	3.859
327.23	5.412
327.44	6.800
327.64	4.578
327.85	4.309
328.06	4.481
328.27	6.176
328.48	5.108
328.69	3.809
328.90	5.542
329.10	4.711
329.31	6.259
329.52	5.856
329.73	6.645
329.94	5.699
330.15	6.463
330.35	7.669
330.56	5.858
330.77	6.247
330.98	7.229
331.19	6.836
331.39	6.838
331.60	7.223
331.81	4.755
332.02	6.837
332.23	6.079
332.44	7.502
332.64	7.392
332.85	6.897
333.06	7.022
333.27	5.494
333.48	5.529
333.68	6.687
333.89	6.528
334.10	7.472
334.31	6.162
334.52	5.859
334.72	5.803
334.93	5.504
335.14	4.754
335.35	6.327
335.56	5.272
335.76	4.551
335.97	6.524
336.18	5.345
336.39	7.682
336.60	4.978
336.80	4.570
337.01	4.889
337.22	4.907
337.43	6.154
337.64	5.301
337.84	7.065
338.05	5.273
338.26	6.852
338.47	7.038
338.68	5.836
338.88	7.797
339.09	6.028
339.30	6.231
339.51	5.185
339.71	6.978
339.92	5.602
340.13	7.325
340.34	5.451
340.55	4.089
340.75	5.071
340.96	7.161
341.17	7.506
341.38	7.164
341.58	7.639
341.79	7.614
342.00	5.917
342.21	6.285
342.41	5.796
342.62	7.078
342.83	5.768
343.04	5.927
343.24	5.995
343.45	7.088
343.66	6.278
343.87	7.755
344.07	5.875
344.28	8.127
344.49	8.439
344.70	9.177
344.90	6.371
345.11	4.888
345.32	8.702
345.53	7.587
345.73	9.485
345.94	9.358
346.15	9.315
346.36	8.590
346.56	8.070
346.77	10.063
346.98	7.339
347.19	7.592
347.39	7.595
347.60	8.015
347.81	8.302
348.02	8.036
348.22	6.454
348.43	7.280
348.64	8.545
348.84	8.923
349.05	9.097
349.26	9.551
349.47	6.875
349.67	7.743
349.88	10.671
350.09	8.646
350.30	11.328
350.50	9.685
350.71	11.072
350.92	9.922
351.12	9.811
351.33	8.172
351.54	11.894
351.74	10.348
351.95	8.650
352.16	9.908
352.37	12.658
352.57	8.674
352.78	10.045
352.99	10.335
353.19	10.100
353.40	11.349
353.61	12.194
353.82	12.476
354.02	12.678
354.23	12.600
354.44	12.944
354.64	11.094
354.85	12.750
355.06	10.805
355.26	10.071
355.47	12.689
355.68	13.169
355.88	11.912
356.09	10.253
356.30	9.941
356.51	13.012
356.71	10.933
356.92	10.425
357.13	12.543
357.33	14.444
357.54	11.345
357.75	7.939
357.95	11.128
358.16	10.005
358.37	14.183
358.57	10.096
358.78	13.839
358.99	12.994
359.19	11.145
359.40	14.079
359.61	12.280
359.81	13.800
360.02	16.968
360.23	10.544
360.43	11.540
360.64	12.721
360.85	10.840
361.05	11.770
361.26	14.316
361.47	10.395
361.67	14.594
361.88	10.229
362.09	13.131
362.29	11.083
362.50	10.587
362.70	10.664
362.91	13.641
363.12	12.227
363.32	12.318
363.53	12.991
363.74	13.986
363.94	9.246
364.15	14.093
364.36	13.441
364.56	12.321
364.77	13.613
364.98	15.165
365.18	13.585
365.39	14.901
365.59	11.063
365.80	13.442
366.01	13.225
366.21	13.140
366.42	11.669
366.63	14.437
366.83	11.894
367.04	9.736
367.24	14.111
367.45	11.441
367.66	11.842
367.86	12.304
368.07	11.832
368.28	12.571
368.48	12.813
368.69	10.664
368.89	11.998
369.10	14.534
369.31	12.551
369.51	14.457
369.72	13.470
369.92	14.974
370.13	10.482
370.34	13.210
370.54	8.332
370.75	12.965
370.95	11.085
371.16	12.655
371.37	10.538
371.57	13.614
371.78	10.870
371.98	13.393
372.19	14.013
372.40	13.713
372.60	13.237
372.81	13.549
373.01	10.999
373.22	12.148
373.43	13.396
373.63	13.983
373.84	14.235
374.04	14.053
374.25	13.850
374.46	14.751
374.66	14.332
374.87	15.291
375.07	10.717
375.28	12.935
375.48	12.934
375.69	15.148
375.90	10.478
376.10	10.332
376.31	11.634
376.51	11.134
376.72	11.959
376.92	11.753
377.13	14.355
377.34	14.557
377.54	12.560
377.75	14.528
377.95	12.697
378.16	14.591
378.36	13.636
378.57	16.057
378.77	12.359
378.98	12.765
379.19	13.039
379.39	12.870
379.60	13.321
379.80	13.797
380.01	14.892
380.21	13.925
380.42	14.271
380.62	13.655
380.83	14.667
381.04	13.846
381.24	15.375
381.45	14.224
381.65	12.256
381.86	14.169
382.06	16.345
382.27	12.681
382.47	12.813
382.68	15.155
382.88	13.430
383.09	13.882
383.29	14.685
383.50	16.112
383.71	14.596
383.91	14.104
384.12	14.345
384.32	15.303
384.53	13.622
384.73	13.078
384.94	13.727
385.14	14.538
385.35	12.449
385.55	16.271
385.76	14.000
385.96	15.365
386.17	16.065
386.37	15.456
386.58	14.986
386.78	16.831
386.99	15.014
387.19	16.289
387.40	14.238
387.60	17.543
387.81	16.031
388.01	15.785
388.22	16.850
388.42	17.672
388.63	17.080
388.83	18.396
389.04	14.866
389.24	16.804
389.45	16.371
389.65	15.649
389.86	16.221
390.06	14.877
390.27	15.491
390.47	16.323
390.68	16.343
390.88	18.086
391.09	17.570
391.29	18.511
391.50	16.446
391.70	17.041
391.91	16.396
392.11	17.451
392.32	18.188
392.52	18.835
392.73	16.610
392.93	18.077
393.14	17.758
393.34	17.633
393.55	18.732
393.75	17.809
393.95	16.945
394.16	18.588
394.36	18.985
394.57	19.832
394.77	18.154
394.98	17.286
395.18	18.617
395.39	18.658
395.59	17.320
395.80	18.897
396.00	18.034
396.21	18.604
396.41	17.548
396.61	18.598
396.82	18.557
397.02	20.629
397.23	18.003
397.43	17.741
397.64	16.150
397.84	20.567
398.05	16.192
398.25	19.236
398.45	17.087
398.66	19.908
398.86	17.576
399.07	20.085
399.27	17.852
399.48	19.004
399.68	17.476
399.89	17.824
400.09	19.009
400.29	18.093
400.50	18.285
400.70	18.659
400.91	17.500
401.11	17.536
401.32	18.510
401.52	17.551
401.72	17.841
401.93	19.984
402.13	17.761
402.34	18.623
402.54	16.751
402.75	19.904
402.95	16.783
403.15	18.973
403.36	17.849
403.56	20.008
403.77	16.960
403.97	18.425
404.17	16.951
404.38	17.503
404.58	16.272
404.79	18.773
404.99	18.771
405.19	17.467
405.40	17.503
405.60	18.016
405.81	17.351
406.01	18.434
406.21	16.850
406.42	17.483
406.62	18.467
406.83	18.401
407.03	18.523
407.23	17.113
407.44	17.520
407.64	17.675
407.85	17.249
408.05	17.577
408.25	17.693
408.46	19.015
408.66	17.079
408.87	17.802
409.07	17.741
409.27	16.174
409.48	16.921
409.68	17.195
409.88	14.890
410.09	18.229
410.29	17.444
410.50	18.503
410.70	14.431
410.90	16.924
411.11	16.068
411.31	17.387
411.51	17.477
411.72	17.868
411.92	16.303
412.12	16.671
412.33	16.333
412.53	16.034
412.74	14.759
412.94	16.968
413.14	16.391
413.35	17.276
413.55	15.940
413.75	17.389
413.96	15.946
414.16	16.014
414.36	16.177
414.57	16.510
414.77	15.158
414.97	17.287
415.18	15.976
415.38	15.673
415.58	16.714
415.79	16.184
415.99	15.173
416.19	16.806
416.40	15.791
416.60	16.340
416.80	15.690
417.01	15.903
417.21	15.002
417.41	17.011
417.62	16.007
417.82	16.421
418.02	15.186
418.23	17.017
418.43	16.076
418.63	16.513
418.84	16.012
419.04	15.907
419.24	16.529
419.45	16.863
419.65	16.669
419.85	17.095
420.06	16.148
420.26	16.604
420.46	16.207
420.67	16.576
420.87	16.605
421.07	17.129
421.28	16.128
421.48	16.611
421.68	16.278
421.88	16.849
422.09	16.827
422.29	16.523
422.49	15.974
422.70	16.444
422.90	16.568
423.10	16.726
423.31	16.425
423.51	17.002
423.71	16.303
423.91	16.409
424.12	16.396
424.32	16.329
424.52	16.132
424.73	16.089
424.93	16.333
425.13	16.301
425.33	15.365
425.54	15.916
425.74	16.137
425.94	16.767
426.15	16.143
426.35	16.285
426.55	16.427
426.75	16.155
426.96	16.280
427.16	15.994
427.36	16.924
427.57	16.948
427.77	16.792
427.97	16.559
428.17	16.735
428.38	16.525
428.58	14.429
428.78	16.408
428.98	15.316
429.19	15.662
429.39	14.788
429.59	16.298
429.79	14.760
430.00	14.393
430.20	14.313
430.40	15.736
430.60	15.139
430.81	14.920
431.01	14.707
431.21	15.629
431.41	14.266
431.62	15.606
431.82	14.390
432.02	15.949
432.22	15.496
432.43	14.637
432.63	14.287
432.83	15.648
433.03	15.158
433.24	14.600
433.44	14.430
433.64	15.457
433.84	14.868
434.05	15.711
434.25	14.944
434.45	14.924
434.65	15.833
434.85	15.676
435.06	14.895
435.26	15.330
435.46	15.249
435.66	15.934
435.87	14.754
436.07	15.451
436.27	15.061
436.47	15.404
436.67	14.700
436.88	15.469
437.08	14.895
437.28	15.951
437.48	14.694
437.69	15.602
437.89	15.116
438.09	15.199
438.29	14.431
438.49	15.511
438.70	15.518
438.90	15.352
439.10	14.624
439.30	15.626
439.50	14.715
439.71	15.213
439.91	14.163
440.11	15.786
440.31	15.227
440.51	15.183
440.72	14.620
440.92	15.364
441.12	14.943
441.32	15.118
441.52	15.229
441.72	15.319
441.93	15.412
442.13	15.671
442.33	14.954
442.53	15.113
442.73	15.238
442.94	15.216
443.14	15.090
443.34	15.626
443.54	15.396
443.74	15.649
443.94	15.282
444.15	15.191
444.35	14.974
444.55	15.426
444.75	14.318
444.95	15.205
445.15	14.911
445.36	15.072
445.56	14.470
445.76	14.736
445.96	14.425
446.16	15.461
446.36	14.465
446.57	15.211
446.77	14.995
446.97	15.436
447.17	15.317
447.37	15.305
447.57	15.108
447.77	15.276
447.98	14.847
448.18	15.501
448.38	15.088
448.58	15.726
448.78	15.301
448.98	15.273
449.18	15.372
449.39	15.459
449.59	15.468
449.79	15.648
449.99	15.384
450.19	15.436
450.39	15.423
450.59	15.750
450.79	14.771
451.00	15.328
451.20	15.804
451.40	15.046
451.60	15.101
451.80	15.288
452.00	14.979
452.20	15.910
452.40	14.653
452.61	15.010
452.81	14.741
453.01	14.939
453.21	15.012
453.41	14.722
453.61	15.032
453.81	15.418
454.01	14.807
454.21	15.414
454.42	15.064
454.62	15.299
454.82	14.792
455.02	14.843
455.22	14.755
455.42	15.103
455.62	14.253
455.82	14.834
456.02	14.250
456.23	15.252
456.43	14.747
456.63	14.422
456.83	14.006
457.03	15.040
457.23	14.524
457.43	15.095
457.63	14.449
457.83	14.873
458.03	14.090
458.23	14.756
458.43	14.066
458.64	14.667
458.84	14.792
459.04	14.515
459.24	14.340
459.44	14.539
459.64	14.782
459.84	14.749
460.04	14.154
460.24	14.515
460.44	14.301
460.64	14.520
460.84	14.386
461.04	14.455
461.24	14.727
461.45	14.761
461.65	14.818
461.85	14.861
462.05	14.992
462.25	15.181
462.45	15.047
462.65	15.016
462.85	14.002
463.05	15.032
463.25	14.146
463.45	15.045
463.65	14.473
463.85	14.288
464.05	14.253
464.25	14.219
464.45	14.930
464.65	14.109
464.85	14.357
465.05	14.815
465.26	14.365
465.46	14.401
465.66	14.055
465.86	14.694
466.06	14.605
466.26	14.412
466.46	13.389
466.66	14.430
466.86	13.927
467.06	14.283
467.26	13.953
467.46	14.622
467.66	14.387
467.86	14.416
468.06	14.062
468.26	14.651
468.46	14.512
468.66	15.017
468.86	13.962
469.06	15.330
469.26	14.012
469.46	14.633
469.66	13.981
469.86	15.032
470.06	14.469
470.26	14.663
470.46	13.674
470.66	14.848
470.86	13.907
471.06	14.318
471.26	13.620
471.46	13.959
471.66	14.621
471.86	14.442
472.06	14.253
472.26	15.204
472.46	14.451
472.66	14.647
472.86	13.819
473.06	13.746
473.26	14.496
473.46	14.398
473.66	14.277
473.86	14.633
474.06	13.821
474.26	14.506
474.46	14.004
474.66	14.957
474.86	15.006
475.06	14.960
475.26	13.761
475.46	14.699
475.66	14.027
475.86	14.527
476.06	15.176
476.26	15.264
476.46	14.137
476.66	14.468
476.86	14.012
477.06	14.625
477.26	14.341
477.46	15.344
477.65	14.401
477.85	15.195
478.05	13.980
478.25	15.152
478.45	14.614
478.65	15.006
478.85	14.391
479.05	15.087
479.25	14.811
479.45	14.973
479.65	13.921
479.85	15.359
480.05	15.222
480.25	14.928
480.45	14.608
480.65	14.837
480.85	14.978
481.05	15.368
481.25	15.030
481.44	15.411
481.64	14.357
481.84	15.281
482.04	15.199
482.24	14.905
482.44	15.076
482.64	14.952
482.84	15.045
483.04	14.949
483.24	14.616
483.44	14.759
483.64	14.579
483.84	14.438
484.04	14.341
484.23	14.529
484.43	14.584
484.63	14.732
484.83	15.032
485.03	15.134
485.23	15.299
485.43	15.213
485.63	15.641
485.83	15.601
486.03	15.853
486.23	15.943
486.42	15.477
486.62	15.667
486.82	15.320
487.02	15.201
487.22	15.264
487.42	15.057
487.62	15.291
487.82	14.821
488.02	15.161
488.22	15.101
488.41	14.650
488.61	15.108
488.81	15.050
489.01	15.033
489.21	15.262
489.41	15.362
489.61	15.302
489.81	15.330
490.01	15.587
490.20	15.678
490.40	15.625
490.60	15.797
490.80	15.545
491.00	15.467
491.20	15.146
491.40	15.161
491.60	14.798
491.79	15.016
491.99	14.949
492.19	14.955
492.39	14.880
492.59	15.047
492.79	15.259
492.99	14.868
493.19	15.556
493.38	15.248
493.58	15.502
493.78	15.971
493.98	15.949
494.18	16.011
494.38	15.861
494.58	16.284
494.77	15.298
494.97	15.280
495.17	15.487
495.37	16.021
495.57	15.705
495.77	15.523
495.96	15.963
496.16	15.068
496.36	14.830
496.56	15.039
496.76	15.018
496.96	15.372
497.15	15.377
497.35	15.305
497.55	15.328
497.75	15.767
497.95	15.143
498.15	15.519
498.34	15.117
498.54	15.342
498.74	15.751
498.94	15.459
499.14	15.099
499.34	15.868
499.53	15.436
499.73	16.087
499.93	15.496
500.13	16.011
500.33	15.617
500.52	15.921
500.72	15.992
500.92	16.158
501.12	15.498
501.32	15.711
501.52	16.044
501.71	16.168
501.91	15.740
502.11	16.313
502.31	15.546
502.51	16.474
502.70	15.764
502.90	16.005
503.10	15.250
503.30	15.804
503.50	15.951
503.69	16.035
503.89	15.842
504.09	16.635
504.29	16.081
504.48	16.257
504.68	16.033
504.88	16.274
505.08	15.850
505.28	16.211
505.47	16.298
505.67	16.783
505.87	16.263
506.07	16.077
506.27	15.979
506.46	16.824
506.66	16.243
506.86	16.957
507.06	16.367
507.25	16.598
507.45	16.305
507.65	16.380
507.85	16.217
508.04	16.376
508.24	16.133
508.44	16.453
508.64	16.718
508.83	16.635
509.03	16.082
509.23	16.487
509.43	16.770
509.63	16.450
509.82	16.623
510.02	16.593
510.22	16.339
510.42	17.048
510.61	16.998
510.81	16.908
511.01	16.664
511.21	17.049
511.40	16.845
511.60	16.878
511.80	16.694
511.99	17.196
512.19	17.106
512.39	16.759
512.59	16.870
512.78	17.169
512.98	16.914
513.18	17.377
513.38	17.184
513.57	17.066
513.77	17.360
513.97	17.031
514.17	16.968
514.36	17.228
514.56	17.109
514.76	17.502
514.95	16.792
515.15	17.591
515.35	17.588
515.55	17.408
515.74	17.244
515.94	17.612
516.14	17.210
516.33	17.200
516.53	17.424
516.73	17.201
516.93	17.367
517.12	17.397
517.32	16.753
517.52	17.164
517.71	17.013
517.91	17.526
518.11	17.437
518.30	17.182
518.50	17.133
518.70	16.881
518.90	17.193
519.09	16.980
519.29	17.491
519.49	17.168
519.68	16.892
519.88	17.423
520.08	17.511
520.27	17.650
520.47	17.649
520.67	17.705
520.86	17.948
521.06	17.979
521.26	17.998
521.45	17.562
521.65	17.704
521.85	17.931
522.04	17.710
522.24	17.791
522.44	17.858
522.63	17.590
522.83	17.571
523.03	17.770
523.22	17.644
523.42	18.269
523.62	17.915
523.81	17.376
524.01	17.965
524.21	17.876
524.40	17.249
524.60	17.939
524.80	17.520
524.99	17.758
525.19	17.534
525.39	17.358
525.58	17.356
525.78	17.627
525.98	17.565
526.17	17.617
526.37	17.709
526.57	17.679
526.76	17.707
526.96	17.427
527.15	17.802
527.35	17.945
527.55	17.561
527.74	17.714
527.94	17.504
528.14	17.391
528.33	17.061
528.53	16.922
528.72	17.216
528.92	17.346
529.12	17.437
529.31	17.435
529.51	17.446
529.71	17.559
529.90	17.495
530.10	17.658
530.29	17.944
530.49	17.962
530.69	18.013
530.88	18.090
531.08	18.090
531.28	18.101
531.47	18.152
531.67	18.057
531.86	18.026
532.06	18.278
532.26	17.964
532.45	18.111
532.65	17.905
532.84	17.855
533.04	17.682
533.24	17.807
533.43	17.505
533.63	17.487
533.82	18.158
534.02	17.992
534.22	17.899
534.41	18.092
534.61	18.412
534.80	17.964
535.00	18.178
535.19	18.456
535.39	18.390
535.59	18.527
535.78	18.430
535.98	18.113
536.17	18.398
536.37	18.261
536.57	17.938
536.76	18.328
536.96	18.114
537.15	18.500
537.35	18.311
537.54	17.929
537.74	18.333
537.93	18.615
538.13	18.382
538.33	18.922
538.52	18.705
538.72	18.402
538.91	18.887
539.11	19.024
539.30	18.666
539.50	18.952
539.70	18.678
539.89	18.769
540.09	18.789
540.28	18.685
540.48	18.652
540.67	18.533
540.87	18.429
541.06	18.386
541.26	18.292
541.45	18.247
541.65	17.898
541.85	18.268
542.04	18.186
542.24	18.546
542.43	18.375
542.63	18.549
542.82	18.586
543.02	18.859
543.21	18.998
543.41	18.971
543.60	19.257
543.80	19.566
543.99	18.785
544.19	18.735
544.38	19.278
544.58	19.193
544.77	19.001
544.97	19.318
545.16	19.402
545.36	19.625
545.56	19.152
545.75	19.794
545.95	19.567
546.14	19.576
546.34	19.622
546.53	19.393
546.73	19.325
546.92	19.507
547.12	19.407
547.31	19.416
547.51	19.421
547.70	19.354
547.90	19.679
548.09	20.221
548.29	20.125
548.48	20.181
548.68	20.038
548.87	20.440
549.07	20.168
549.26	20.538
549.46	20.276
549.65	20.302
549.84	20.401
550.04	20.350
550.23	20.294
550.43	20.250
550.62	20.463
550.82	20.960
551.01	20.065
551.21	20.710
551.40	20.644
551.60	20.116
551.79	20.307
551.99	20.742
552.18	20.379
552.38	20.803
552.57	20.956
552.77	20.973
552.96	20.820
553.16	21.360
553.35	20.870
553.54	20.776
553.74	20.884
553.93	21.035
554.13	21.453
554.32	21.259
554.52	21.188
554.71	21.249
554.91	21.652
555.10	21.645
555.29	21.271
555.49	22.165
555.68	21.804
555.88	21.931
556.07	21.499
556.27	21.700
556.46	21.750
556.66	21.341
556.85	21.190
557.04	22.091
557.24	22.601
557.43	22.066
557.63	22.347
557.82	22.326
558.02	21.752
558.21	22.584
558.40	22.887
558.60	22.799
558.79	22.332
558.99	22.707
559.18	22.057
559.38	22.552
559.57	22.630
559.76	23.051
559.96	23.086
560.15	22.680
560.35	22.744
560.54	23.307
560.73	22.513
560.93	23.059
561.12	22.261
561.32	23.376
561.51	22.786
561.70	22.974
561.90	22.927
562.09	22.785
562.29	23.005
562.48	23.752
562.67	22.738
562.87	23.219
563.06	22.943
563.26	23.693
563.45	23.119
563.64	23.569
563.84	23.566
564.03	23.386
564.23	23.174
564.42	23.264
564.61	23.519
564.81	23.884
565.00	23.074
565.20	23.798
565.39	23.794
565.58	23.359
565.78	22.809
565.97	23.939
566.16	23.965
566.36	23.708
566.55	23.713
566.74	23.447
566.94	23.715
567.13	23.572
567.33	23.883
567.52	24.015
567.71	24.115
567.91	24.022
568.10	23.969
568.29	23.687
568.49	23.871
568.68	24.346
568.87	24.218
569.07	24.104
569.26	24.324
569.45	24.193
569.65	24.368
569.84	23.920
570.04	24.692
570.23	24.353
570.42	23.927
570.62	24.318
570.81	25.036
571.00	24.465
571.20	24.425
571.39	24.109
571.58	24.786
571.78	24.083
571.97	24.506
572.16	24.253
572.36	24.239
572.55	23.898
572.74	24.699
572.94	23.785
573.13	24.533
573.32	24.709
573.51	24.499
573.71	24.198
573.90	24.563
574.09	24.397
574.29	24.053
574.48	24.751
574.67	24.513
574.87	24.398
575.06	24.312
575.25	24.954
575.45	24.467
575.64	24.847
575.83	24.833
576.03	25.484
576.22	24.931
576.41	24.803
576.60	24.044
576.80	24.713
576.99	24.404
577.18	24.611
577.38	24.531
577.57	25.087
577.76	24.034
577.95	24.911
578.15	24.688
578.34	25.410
578.53	24.633
578.73	24.324
578.92	24.566
579.11	24.632
579.30	25.045
579.50	24.860
579.69	25.028
579.88	24.645
580.08	25.046
580.27	25.117
580.46	25.069
580.65	25.348
580.85	25.077
581.04	24.703
581.23	24.513
581.42	24.898
581.62	25.438
581.81	25.178
582.00	24.491
582.19	24.435
582.39	24.913
582.58	24.283
582.77	25.076
582.96	24.997
583.16	24.579
583.35	25.328
583.54	24.856
583.73	25.158
583.93	24.556
584.12	24.840
584.31	24.653
584.50	25.368
584.70	24.246
584.89	24.722
585.08	24.770
585.27	24.973
585.47	23.891
585.66	24.880
585.85	24.972
586.04	25.044
586.24	24.968
586.43	24.362
586.62	23.749
586.81	23.956
587.00	25.267
587.20	24.754
587.39	24.140
587.58	24.759
587.77	24.718
587.97	24.681
588.16	24.721
588.35	24.537
588.54	24.350
588.73	24.708
588.93	24.725
589.12	24.470
589.31	24.860
589.50	24.435
589.69	24.012
589.89	24.705
590.08	24.276
590.27	24.356
590.46	23.340
590.65	24.518
590.85	24.076
591.04	24.746
591.23	24.285
591.42	24.992
591.61	24.386
591.81	25.085
592.00	24.376
592.19	24.040
592.38	24.776
592.57	24.685
592.77	25.340
592.96	24.594
593.15	24.570
593.34	24.931
593.53	25.111
593.72	25.132
593.92	24.206
594.11	24.927
594.30	24.548
594.49	25.182
594.68	25.275
594.87	24.867
595.07	24.282
595.26	25.545
595.45	25.022
595.64	25.328
595.83	24.228
596.02	25.475
596.22	25.059
596.41	25.137
596.60	24.832
596.79	25.023
596.98	25.000
597.17	25.290
597.37	25.258
597.56	25.077
597.75	24.914
597.94	24.984
598.13	25.593
598.32	25.602
598.51	25.522
598.71	25.610
598.90	25.990
599.09	25.363
599.28	26.076
599.47	25.792
599.66	25.747
599.85	25.958
600.05	26.436
600.24	25.864
600.43	26.782
600.62	26.301
600.81	26.316
601.00	27.043
601.19	26.142
601.38	26.059
601.58	26.843
601.77	25.954
601.96	26.862
602.15	26.761
602.34	25.624
602.53	27.299
602.72	26.137
602.91	26.548
603.10	26.520
603.30	27.144
603.49	27.055
603.68	26.594
603.87	26.357
604.06	26.359
604.25	26.120
604.44	26.094
604.63	26.178
604.82	26.167
605.01	26.842
605.21	26.911
605.40	26.160
605.59	26.594
605.78	26.438
605.97	26.711
606.16	26.659
606.35	27.077
606.54	26.920
606.73	27.490
606.92	26.798
607.11	27.802
607.30	26.868
607.50	28.030
607.69	27.200
607.88	25.730
608.07	26.716
608.26	27.834
608.45	27.234
608.64	27.398
608.83	26.505
609.02	27.225
609.21	26.920
609.40	27.037
609.59	26.667
609.78	27.323
609.97	26.219
610.16	26.786
610.35	26.865
610.55	26.765
610.74	26.323
610.93	26.781
611.12	27.143
611.31	27.211
611.50	26.998
611.69	26.584
611.88	26.693
612.07	27.149
612.26	27.287
612.45	27.691
612.64	27.504
612.83	27.604
613.02	27.158
613.21	26.676
613.40	27.481
613.59	28.628
613.78	26.956
613.97	27.792
614.16	27.879
614.35	27.810
614.54	26.608
614.73	27.903
614.92	26.809
615.11	27.347
615.30	26.700
615.49	26.356
615.68	25.713
615.87	26.372
616.07	25.727
616.26	26.183
616.45	27.417
616.64	26.747
616.83	25.769
617.02	26.664
617.21	24.921
617.40	27.250
617.59	26.187
617.78	26.442
617.97	24.890
618.16	26.947
618.35	25.255
618.54	25.963
618.73	25.579
618.92	26.238
619.11	24.838
619.30	26.075
619.49	25.021
619.68	25.553
619.86	26.069
620.05	25.550
620.24	25.280
620.43	25.706
620.62	24.345
620.81	25.682
621.00	26.652
621.19	25.458
621.38	25.678
621.57	24.735
621.76	25.911
621.95	24.691
622.14	25.386
622.33	25.810
622.52	23.602
622.71	25.261
622.90	24.339
623.09	25.453
623.28	24.466
623.47	25.484
623.66	24.737
623.85	24.927
624.04	25.091
624.23	25.302
624.42	24.891
624.61	24.823
624.80	24.909
624.99	25.272
625.18	24.646
625.36	26.356
625.55	24.639
625.74	24.443
625.93	25.110
626.12	25.615
626.31	25.134
626.50	25.097
626.69	24.445
626.88	25.092
627.07	24.811
627.26	24.570
627.45	24.373
627.64	25.178
627.83	24.446
628.02	24.876
628.20	24.928
628.39	25.143
628.58	24.771
628.77	25.374
628.96	24.785
629.15	25.325
629.34	25.007
629.53	25.910
629.72	24.187
629.91	26.031
630.10	25.027
630.29	25.188
630.47	24.548
630.66	25.433
630.85	25.536
631.04	26.063
631.23	26.389
631.42	25.405
631.61	24.792
631.80	25.477
631.99	25.224
632.18	25.856
632.36	24.603
632.55	26.928
632.74	24.601
632.93	24.847
633.12	24.851
633.31	24.729
633.50	24.901
633.69	25.166
633.88	24.567
634.06	24.458
634.25	24.158
634.44	24.563
634.63	24.573
634.82	24.943
635.01	24.955
635.20	24.318
635.39	24.676
635.57	24.429
635.76	24.236
635.95	24.713
636.14	23.932
636.33	24.866
636.52	25.117
636.71	23.943
636.89	23.147
637.08	24.117
637.27	23.785
637.46	24.521
637.65	24.509
637.84	24.550
638.03	23.188
638.21	24.984
638.40	23.323
638.59	24.500
638.78	22.658
638.97	24.826
639.16	23.812
639.34	23.808
639.53	22.714
639.72	23.924
639.91	23.261
640.10	24.023
640.29	24.408
640.47	24.523
640.66	22.732
640.85	24.995
641.04	23.429
641.23	24.187
641.42	23.392
641.60	23.309
641.79	22.937
641.98	23.526
642.17	22.114
642.36	24.119
642.54	22.932
642.73	23.657
642.92	22.513
643.11	23.548
643.30	22.411
643.49	24.744
643.67	22.793
643.86	22.977
644.05	22.206
644.24	23.119
644.43	22.369
644.61	23.928
644.80	23.395
644.99	22.257
645.18	23.542
645.37	24.045
645.55	22.616
645.74	23.877
645.93	23.518
646.12	23.531
646.31	22.997
646.49	23.871
646.68	22.310
646.87	23.664
647.06	23.134
647.24	23.737
647.43	21.985
647.62	24.109
647.81	22.890
648.00	23.214
648.18	22.453
648.37	22.274
648.56	23.425
648.75	23.681
648.93	22.885
649.12	23.248
649.31	22.564
649.50	22.774
649.68	22.422
649.87	23.457
650.06	21.716
650.25	22.580
650.43	22.512
650.62	23.325
650.81	22.291
651.00	21.860
651.18	21.501
651.37	22.834
651.56	21.570
651.75	23.809
651.93	21.270
652.12	23.246
652.31	21.469
652.50	22.957
652.68	22.460
652.87	23.769
653.06	22.381
653.25	22.267
653.43	21.450
653.62	23.072
653.81	21.147
654.00	23.455
654.18	20.991
654.37	23.267
654.56	20.484
654.74	22.732
654.93	21.585
655.12	23.051
655.31	21.758
655.49	22.987
655.68	21.621
655.87	20.051
656.05	18.611
656.24	20.722
656.43	20.459
656.62	21.172
656.80	20.693
656.99	20.719
657.18	20.303
657.36	21.788
657.55	20.053
657.74	20.334
657.93	19.285
658.11	21.406
658.30	21.067
658.49	19.301
658.67	20.281
658.86	20.409
659.05	19.498
659.23	20.352
659.42	18.791
659.61	19.990
659.79	19.098
659.98	20.288
660.17	20.351
660.35	19.978
660.54	19.241
660.73	20.500
660.91	19.343
661.10	19.784
661.29	17.788
661.47	18.621
661.66	17.981
661.85	19.152
662.03	18.617
662.22	17.906
662.41	17.027
662.59	17.650
662.78	15.781
662.97	18.363
663.15	16.332
663.34	16.865
663.53	16.381
663.71	16.785
663.90	16.484
664.09	17.564
664.27	16.472
664.46	16.313
664.65	15.239
664.83	15.926
665.02	14.266
665.21	14.829
665.39	12.777
665.58	16.345
665.77	14.762
665.95	15.549
666.14	13.355
666.32	14.713
666.51	13.613
666.70	14.179
666.88	12.889
667.07	13.995
667.26	12.461
667.44	14.042
667.63	14.386
667.81	12.631
668.00	13.422
668.19	15.544
668.37	12.906
668.56	14.520
668.75	11.378
668.93	15.292
669.12	12.073
669.30	13.908
669.49	13.301
669.68	14.238
669.86	13.014
670.05	13.639
670.23	12.350
670.42	13.004
670.61	12.965
670.79	15.310
670.98	12.522
671.16	14.367
671.35	12.181
671.54	14.010
671.72	12.908
671.91	13.258
672.09	11.121
672.28	13.880
672.46	14.278
672.65	13.802
672.84	13.987
673.02	15.551
673.21	10.763
673.39	13.643
673.58	14.474
673.77	11.984
673.95	14.716
674.14	15.072
674.32	12.862
674.51	14.335
674.69	13.845
674.88	13.424
675.07	13.234
675.25	16.225
675.44	14.044
675.62	13.776
675.81	14.059
675.99	17.831
676.18	14.539
676.36	13.475
676.55	12.969
676.74	15.183
676.92	15.429
677.11	14.337
677.29	13.834
677.48	16.157
677.66	15.695
677.85	16.163
678.03	15.351
678.22	16.164
678.40	15.760
678.59	13.512
678.78	11.943
678.96	14.631
679.15	13.598
679.33	17.965
679.52	15.551
679.70	16.833
679.89	16.415
680.07	16.386
680.26	14.992
680.44	15.902
680.63	15.470
680.81	15.962
681.00	13.842
681.18	16.022
681.37	14.821
681.55	17.463
681.74	16.789
681.92	17.229
682.11	16.439
682.29	17.245
682.48	16.194
682.66	17.757
682.85	17.392
683.03	18.371
683.22	18.441
683.40	19.284
683.59	19.583
683.77	19.030
683.96	16.104
684.14	19.813
684.33	15.538
684.51	20.745
684.70	19.208
684.88	21.009
685.07	19.111
685.25	19.459
685.44	19.546
685.62	20.208
685.81	18.983
685.99	20.131
686.18	17.861
686.36	20.192
686.55	18.289
686.73	20.303
686.92	20.141
687.10	21.862
687.29	22.607
687.47	22.532
687.65	22.868
687.84	22.509
688.02	23.474
688.21	23.858
688.39	21.229
688.58	25.155
688.76	21.415
688.95	21.697
689.13	21.309
689.32	25.329
689.50	23.981
689.68	25.363
689.87	23.238
690.05	26.281
690.24	25.330
690.42	25.821
690.61	27.167
690.79	27.243
690.98	26.874
691.16	26.474
691.34	23.742
691.53	28.774
691.71	25.417
691.90	29.203
692.08	25.544
692.27	29.451
692.45	28.717
692.63	27.305
692.82	29.939
693.00	30.588
693.19	27.079
693.37	32.191
693.56	28.396
693.74	30.806
693.92	30.854
694.11	30.203
694.29	28.725
694.48	32.315
694.66	30.548
694.84	33.275
695.03	29.791
695.21	33.075
695.40	32.782
695.58	33.272
695.76	31.862
695.95	33.925
696.13	31.208
696.32	33.506
696.50	35.394
696.68	34.218
696.87	32.624
697.05	35.700
697.24	33.387
697.42	36.669
697.60	36.786
697.79	35.901
697.97	34.531
698.16	35.648
698.34	34.121
698.52	34.591
698.71	35.298
698.89	35.104
699.07	34.835
699.26	35.502
699.44	35.397
699.63	35.982
699.81	35.490
699.99	36.794
700.18	36.331
700.36	36.462
700.54	36.291
700.73	39.022
700.91	37.020
701.09	37.523
701.28	38.024
701.46	38.363
701.64	37.589
701.83	39.049
702.01	36.230
702.20	39.497
702.38	37.857
702.56	38.545
702.75	38.948
702.93	37.235
703.11	38.637
703.30	39.904
703.48	39.051
703.66	40.886
703.85	37.872
704.03	41.182
704.21	38.551
704.40	42.221
704.58	37.925
704.76	40.230
704.95	37.623
705.13	40.074
705.31	39.501
705.50	40.412
705.68	39.402
705.86	43.267
706.04	40.331
706.23	40.358
706.41	39.482
706.59	40.114
706.78	40.562
706.96	40.681
707.14	42.598
707.33	40.043
707.51	40.341
707.69	41.387
707.88	41.171
708.06	41.041
708.24	40.676
708.42	41.597
708.61	42.643
708.79	41.652
708.97	42.383
709.16	41.384
709.34	43.988
709.52	42.457
709.71	41.357
709.89	41.216
710.07	38.186
710.25	41.771
710.44	42.629
710.62	41.876
710.80	41.073
710.98	43.562
711.17	41.344
711.35	41.553
711.53	41.029
711.72	42.045
711.90	43.030
712.08	42.176
712.26	40.084
712.45	43.233
712.63	42.742
712.81	42.842
712.99	40.531
713.18	42.093
713.36	41.495
713.54	42.442
713.72	42.011
713.91	43.407
714.09	40.948
714.27	44.952
714.45	42.733
714.64	42.214
714.82	41.920
715.00	43.932
715.18	40.481
715.37	42.794
715.55	41.619
715.73	43.548
715.91	41.469
716.10	43.540
716.28	39.296
716.46	41.665
716.64	41.506
716.83	43.313
717.01	40.749
717.19	42.678
717.37	40.934
717.55	41.312
717.74	42.379
717.92	42.016
718.10	38.591
718.28	42.145
718.47	41.115
718.65	41.163
718.83	42.514
719.01	43.268
719.19	38.841
719.38	41.214
719.56	42.028
719.74	43.045
719.92	40.168
720.10	42.020
720.29	40.296
720.47	42.539
720.65	42.419
720.83	41.758
721.01	39.528
721.20	44.231
721.38	41.924
721.56	42.324
721.74	41.840
721.92	43.788
722.11	42.209
722.29	42.635
722.47	41.378
722.65	45.273
722.83	44.390
723.01	41.778
723.20	44.774
723.38	43.818
723.56	39.709
723.74	45.860
723.92	41.559
724.10	45.436
724.29	38.144
724.47	45.852
724.65	41.063
724.83	43.909
725.01	41.885
725.19	46.122
725.38	42.168
725.56	45.268
725.74	43.599
725.92	43.256
726.10	41.682
726.28	43.993
726.46	45.033
726.65	46.040
726.83	43.088
727.01	44.039
727.19	42.797
727.37	42.906
727.55	43.188
727.73	41.801
727.92	44.077
728.10	43.291
728.28	40.411
728.46	43.820
728.64	42.022
728.82	44.852
729.00	41.118
729.19	42.489
729.37	43.211
729.55	44.341
729.73	40.558
729.91	44.470
730.09	41.329
730.27	44.175
730.45	41.987
730.63	42.808
730.82	41.041
731.00	44.072
731.18	43.466
731.36	43.377
731.54	39.840
731.72	44.789
731.90	43.047
732.08	42.123
732.26	42.492
732.45	44.045
732.63	43.380
732.81	44.066
732.99	45.175
733.17	45.752
733.35	41.642
733.53	46.019
733.71	43.618
733.89	44.918
734.07	42.143
734.25	45.407
734.44	43.771
734.62	43.788
734.80	42.599
734.98	47.049
735.16	44.913
735.34	44.915
735.52	44.286
735.70	46.899
735.88	45.799
736.06	45.959
736.24	48.170
736.42	45.489
736.60	45.695
736.78	47.400
736.97	44.158
737.15	46.503
737.33	47.047
737.51	48.678
737.69	46.326
737.87	48.789
738.05	46.203
738.23	46.221
738.41	44.232
738.59	48.439
738.77	48.221
738.95	47.741
739.13	46.296
739.31	48.341
739.49	47.846
739.67	49.286
739.85	44.684
740.03	47.354
740.21	48.219
740.39	47.379
740.57	46.351
740.75	47.777
740.93	46.265
741.11	45.511
741.30	44.354
741.48	48.566
741.66	49.849
741.84	50.168
742.02	44.653
742.20	48.026
742.38	43.723
742.56	49.907
742.74	45.870
742.92	46.614
743.10	47.421
743.28	48.967
743.46	48.992
743.64	48.070
743.82	46.119
744.00	51.547
744.18	48.085
744.36	47.505
744.54	47.861
744.72	48.293
744.90	48.897
745.08	48.241
745.26	45.366
745.44	46.426
745.62	46.769
745.80	47.835
745.98	44.444
746.16	51.120
746.34	46.207
746.52	46.434
746.70	42.678
746.87	49.313
747.05	49.291
747.23	47.636
747.41	49.084
747.59	48.424
747.77	46.009
747.95	47.680
748.13	48.122
748.31	53.723
748.49	51.433
748.67	50.088
748.85	49.136
749.03	49.281
749.21	41.759
749.39	49.550
749.57	45.249
749.75	48.913
749.93	48.899
750.11	49.290
750.29	45.584
750.47	49.435
750.65	47.979
750.83	48.786
751.01	46.669
751.18	50.269
751.36	44.197
751.54	53.121
751.72	52.337
751.90	47.664
752.08	46.803
752.26	46.914
752.44	47.821
752.62	48.601
752.80	44.590
752.98	49.111
753.16	45.900
753.34	46.225
753.52	46.403
753.69	46.422
753.87	47.249
754.05	47.886
754.23	46.576
754.41	48.212
754.59	45.333
754.77	47.871
754.95	47.138
755.13	48.215
755.31	47.884
755.49	49.800
755.66	47.504
755.84	49.565
756.02	47.012
756.20	48.832
756.38	46.982
756.56	49.370
756.74	46.993
756.92	45.829
757.10	47.194
757.28	49.148
757.45	53.924
757.63	47.327
757.81	46.279
757.99	52.751
758.17	48.071
758.35	50.908
758.53	47.935
758.71	48.796
758.88	45.793
759.06	49.698
759.24	43.369
759.42	46.814
759.60	41.923
759.78	45.243
759.96	40.936
760.13	42.445
760.31	37.210
760.49	40.398
760.67	38.311
760.85	41.769
761.03	35.843
761.21	35.482
761.38	34.565
761.56	39.783
761.74	35.765
761.92	39.752
762.10	31.129
762.28	38.994
762.46	31.684
762.63	37.968
762.81	35.177
762.99	35.388
763.17	37.044
763.35	36.582
763.53	37.641
763.70	39.220
763.88	37.282
764.06	39.945
764.24	38.303
764.42	40.381
764.60	38.998
764.77	41.096
764.95	38.314
765.13	39.477
765.31	39.668
765.49	41.091
765.66	39.066
765.84	43.061
766.02	40.667
766.20	43.410
766.38	41.515
766.56	42.886
766.73	40.461
766.91	44.384
767.09	44.600
767.27	45.000
767.45	43.839
767.62	44.959
767.80	42.658
767.98	43.713
768.16	42.120
768.33	46.698
768.51	46.063
768.69	45.833
768.87	47.356
769.05	46.201
769.22	45.948
769.40	48.966
769.58	46.090
769.76	48.251
769.94	48.038
770.11	49.460
770.29	47.056
770.47	49.136
770.65	46.883
770.82	47.540
771.00	48.592
771.18	48.988
771.36	46.926
771.53	53.161
771.71	44.523
771.89	53.687
772.07	46.203
772.25	52.144
772.42	44.542
772.60	50.506
772.78	47.429
772.96	47.181
773.13	49.388
773.31	49.680
773.49	44.372
773.67	48.693
773.84	48.658
774.02	50.303
774.20	40.539
774.37	50.203
774.55	44.524
774.73	49.440
774.91	47.461
775.08	51.148
775.26	55.211
775.44	51.773
775.62	51.803
775.79	50.862
775.97	46.641
776.15	46.603
776.32	43.454
776.50	52.157
776.68	48.707
776.86	53.407
777.03	51.010
777.21	46.848
777.39	48.188
777.56	52.594
777.74	45.806
777.92	45.426
778.10	45.523
778.27	51.379
778.45	48.330
778.63	49.400
778.80	52.955
778.98	45.258
779.16	51.540
779.34	49.082
779.51	45.161
779.69	50.875
779.87	47.331
780.04	46.167
780.22	44.652
780.40	52.807
780.57	48.393
780.75	48.165
780.93	49.434
781.10	51.441
781.28	52.961
781.46	50.524
781.63	52.094
781.81	50.137
781.99	48.258
782.16	45.529
782.34	45.339
782.52	49.230
782.69	51.671
782.87	50.621
783.05	46.489
783.22	51.495
783.40	46.930
783.58	54.750
783.75	47.240
783.93	57.118
784.11	46.045
784.28	54.819
784.46	47.541
784.64	47.619
784.81	45.826
784.99	58.109
785.17	49.611
785.34	51.373
785.52	48.345
785.69	49.684
785.87	43.289
786.05	49.940
786.22	45.568
786.40	53.035
786.58	48.467
786.75	52.761
786.93	51.794
787.11	49.290
787.28	44.962
787.46	55.087
787.63	45.868
787.81	44.817
787.99	43.501
788.16	43.383
788.34	45.126
788.51	46.835
788.69	43.464
788.87	42.499
789.04	45.815
789.22	47.513
789.39	44.182
789.57	42.338
789.75	42.827
789.92	49.453
790.10	44.525
790.27	46.175
790.45	42.881
790.63	48.175
790.80	41.671
790.98	44.608
791.15	45.936
791.33	41.852
791.51	49.510
791.68	47.221
791.86	42.159
792.03	47.522
792.21	39.221
792.39	49.809
792.56	48.692
792.74	46.082
792.91	49.258
793.09	41.184
793.26	44.044
793.44	54.045
793.62	40.872
793.79	49.400
793.97	48.392
794.14	41.340
794.32	49.493
794.49	50.800
794.67	37.933
794.84	40.054
795.02	43.652
795.20	46.409
795.37	44.646
795.55	47.594
795.72	44.022
795.90	43.520
796.07	46.906
796.25	44.779
796.42	43.366
796.60	43.707
796.77	41.499
796.95	43.006
797.13	39.605
797.30	50.333
797.48	44.936
797.65	44.199
797.83	44.192
798.00	43.393
798.18	41.752
798.35	50.322
798.53	43.186
798.70	43.746
798.88	38.228
799.05	41.454
799.23	43.820
799.40	43.678
799.58	40.587
799.75	46.521
799.93	45.425
800.10	50.031
800.28	40.189
800.45	51.230
800.63	42.430
800.80	51.261
800.98	50.813
801.15	47.544
801.33	45.319
801.50	44.500
801.68	45.108
801.85	45.903
802.03	37.719
802.20	47.015
802.38	41.432
802.55	40.424
802.73	42.272
802.90	43.075
803.08	35.430
803.25	50.326
803.43	44.130
803.60	43.965
803.78	43.231
803.95	47.186
804.13	46.939
804.30	43.507
804.48	45.056
804.65	40.015
804.83	45.775
805.00	42.611
805.17	47.467
805.35	47.779
805.52	34.234
805.70	43.371
805.87	44.867
806.05	46.257
806.22	44.284
806.40	38.861
806.57	38.769
806.75	47.212
806.92	46.571
807.09	44.034
807.27	44.286
807.44	44.864
807.62	42.680
807.79	41.270
807.97	46.361
808.14	44.955
808.31	43.548
808.49	46.996
808.66	33.534
808.84	43.446
809.01	41.329
809.19	46.028
809.36	46.656
809.53	37.977
809.71	43.984
809.88	40.989
810.06	48.722
810.23	43.050
810.41	45.485
810.58	48.891
810.75	36.356
810.93	46.553
811.10	45.809
811.28	46.188
811.45	43.616
811.62	43.272
811.80	38.388
811.97	47.263
812.15	47.973
812.32	41.853
812.49	44.859
812.67	45.369
812.84	43.246
813.02	45.581
813.19	43.290
813.36	42.071
813.54	38.304
813.71	43.039
813.89	43.248
814.06	45.897
814.23	44.176
814.41	41.226
814.58	44.676
814.75	40.849
814.93	36.069
815.10	33.991
815.28	39.474
815.45	39.352
815.62	41.892
815.80	37.718
815.97	32.591
816.14	39.651
816.32	44.190
816.49	39.787
816.66	36.431
816.84	41.030
817.01	38.505
817.18	36.523
817.36	40.348
817.53	44.284
817.71	37.997
817.88	48.033
818.05	39.643
818.23	39.296
818.40	36.935
818.57	39.111
818.75	37.704
818.92	43.948
819.09	43.022
819.27	43.272
819.44	41.109
819.61	41.558
819.79	40.000
819.96	42.174
820.13	35.943
820.31	40.343
820.48	39.197
820.65	38.832
820.82	32.422
821.00	39.128
821.17	32.126
821.34	38.164
821.52	37.298
821.69	32.318
821.86	35.749
822.04	36.055
822.21	37.045
822.38	35.697
822.56	35.642
822.73	39.688
822.90	37.687
823.07	38.451
823.25	37.768
823.42	37.117
823.59	37.185
823.77	38.500
823.94	37.992
824.11	39.294
824.29	36.058
824.46	39.214
824.63	40.885
824.80	39.904
824.98	37.650
825.15	39.449
825.32	36.525
825.49	38.433
825.67	35.239
825.84	38.842
826.01	35.653
826.19	40.991
826.36	34.471
826.53	40.100
826.70	36.279
826.88	37.435
827.05	33.747
827.22	37.400
827.39	35.994
827.57	32.361
827.74	35.299
827.91	38.734
828.08	32.172
828.26	36.292
828.43	31.375
828.60	39.150
828.77	33.848
828.95	37.486
829.12	31.086
829.29	35.185
829.46	32.871
829.64	35.308
829.81	28.863
829.98	37.528
830.15	36.045
830.32	39.363
830.50	32.158
830.67	40.330
830.84	29.775
831.01	30.946
831.19	33.269
831.36	33.165
831.53	34.086
831.70	43.413
831.87	35.884
832.05	41.207
832.22	41.829
832.39	33.845
832.56	33.741
832.74	31.746
832.91	33.800
833.08	42.422
833.25	32.200
833.42	31.198
833.60	29.821
833.77	28.843
833.94	28.694
834.11	32.138
834.28	30.835
834.45	33.672
834.63	29.066
834.80	34.281
834.97	31.171
835.14	32.288
835.31	33.126
835.49	31.152
835.66	32.116
835.83	32.648
836.00	31.719
836.17	32.912
836.34	34.572
836.52	34.500
836.69	35.273
836.86	35.117
837.03	41.732
837.20	37.432
837.37	38.913
837.55	28.191
837.72	36.561
837.89	40.206
838.06	39.621
838.23	48.815
838.40	45.808
838.58	36.391
838.75	44.548
838.92	43.729
839.09	52.101
839.26	49.421
839.43	50.119
839.60	49.873
839.78	59.109
839.95	38.152
840.12	40.670
840.29	49.399
840.46	43.460
840.63	49.035
840.80	49.362
840.98	49.637
841.15	43.021
841.32	42.716
841.49	35.721
841.66	39.631
841.83	35.359
842.00	36.213
842.17	51.373
842.34	44.887
842.52	56.250
842.69	44.226
842.86	50.535
843.03	62.516
843.20	60.163
843.37	39.685
843.54	53.940
843.71	50.580
843.88	57.027
844.06	67.445
844.23	58.929
844.40	52.752
844.57	47.833
844.74	65.314
844.91	64.619
845.08	68.607
845.25	60.506
845.42	67.495
845.59	62.292
845.76	57.253
845.94	61.353
846.11	62.553
846.28	76.630
846.45	72.435
846.62	67.412
846.79	70.158
846.96	59.919
847.13	60.153
847.30	65.171
847.47	56.950
847.64	55.274
847.81	71.024
847.98	79.310
848.15	61.619
848.32	84.668
848.50	73.585
848.67	73.970
848.84	67.153
849.01	69.249
849.18	74.318
849.35	83.535
849.52	76.986
849.69	94.568
849.86	97.094
850.03	71.340
850.20	79.075
850.37	75.862
850.54	90.244
850.71	61.864
850.88	62.242
851.05	69.856
851.22	75.743
851.39	80.130
851.56	57.426
851.73	106.250
851.90	57.426
852.07	63.472
852.24	71.461
852.41	66.667
852.58	81.152
852.75	69.476
852.92	60.050
853.09	93.668
853.26	72.143
853.43	73.479
853.60	71.512
853.77	59.705
853.94	83.023
854.11	90.634
854.28	82.864
854.45	61.373
854.62	78.427
854.79	76.519
854.96	55.069
855.13	80.576
855.30	70.091
855.47	71.341
855.64	74.455
855.81	59.424
855.98	47.222
856.15	84.896
856.32	81.481
856.49	62.564
856.66	63.782
856.83	61.071
857.00	70.219
857.17	90.591
857.34	69.681
857.51	76.613
857.68	69.350
857.85	91.691
858.02	79.724
858.19	107.051
858.36	79.540
858.53	71.557
858.70	75.648
858.87	99.691
859.04	59.444
859.21	81.556
859.38	66.427
859.55	85.309
859.72	81.492
859.89	93.575
860.05	75.676
860.22	103.205
860.39	100.305
860.56	76.596
860.73	83.059
860.90	67.085
861.07	60.000
861.24	80.907
861.41	83.914
861.58	75.735
861.75	78.931
861.92	92.512
862.09	77.979
862.26	91.627
862.43	79.032
862.59	97.849
862.76	71.739
862.93	105.676
863.10	79.710
863.27	67.458
863.44	79.147
863.61	78.834
863.78	79.054
863.95	71.466
864.12	73.333
864.29	73.554
864.45	69.375
864.62	75.597
864.79	59.126
864.96	64.649
865.13	60.440
865.30	89.136
865.47	72.103
865.64	75.263
865.81	58.177
865.97	52.681
866.14	76.842
866.31	84.896
866.48	92.099
866.65	50.656
866.82	85.480
866.99	81.493
867.16	63.712
867.33	100.627
867.49	130.612
867.66	57.922
867.83	84.097
868.00	63.704
868.17	61.364
868.34	76.923
868.51	63.753
868.67	65.396
868.84	80.952
869.01	112.581
869.18	56.811
869.35	74.462
869.52	79.944
869.69	80.802
869.85	62.953
870.02	91.946
870.19	95.527
870.36	92.000
870.53	63.380
870.70	61.708
870.86	69.394
871.03	75.272
871.20	77.322
871.37	86.076
871.54	77.874
871.71	70.516
871.87	72.900
872.04	79.620
872.21	69.828
872.38	85.119
872.55	102.535
872.72	60.763
872.88	95.533
873.05	60.480
873.22	106.809
873.39	72.193
873.56	86.377
873.72	66.492
873.89	53.247
874.06	68.622
874.23	69.582
874.40	90.491
874.56	91.317
874.73	64.484
874.90	64.706
875.07	69.360
875.24	77.468
875.40	62.100
875.57	77.247
875.74	65.352
875.91	71.046
876.08	83.582
876.24	87.534
876.41	86.969
876.58	81.845
876.75	91.831
876.92	92.810
877.08	73.684
877.25	56.599
877.42	71.633
877.59	49.258
877.75	77.168
877.92	85.106
878.09	71.540
878.26	71.540
878.42	81.471
878.59	75.332
878.76	57.606
878.93	77.482
879.09	72.468
879.26	51.359
879.43	69.595
879.60	55.696
879.76	64.612
879.93	48.315
880.10	52.439
880.27	36.138
880.43	58.242
880.60	43.084
880.77	47.028
880.94	51.720
881.10	33.250
881.27	35.125
881.44	25.547
881.61	35.214
881.77	38.127
881.94	29.760
882.11	25.195
882.28	26.480
882.44	25.049
882.61	30.317
882.78	29.092
882.94	33.765
883.11	30.589
883.28	28.856
883.45	32.921
883.61	27.641
883.78	28.015
883.95	32.567
884.11	33.720
884.28	28.919
>>>>>End Processed Spectral Data<<<<<
