SpectraSuite Data File
++++++++++++++++++++++++++++++++++++
Date: Sat Sep 21 04:41:13 EST 2019
User: sgrac
Dark Spectrum Present: Yes
Reference Spectrum Present: Yes
Number of Sampled Component Spectra: 1
Spectrometers: USB4E01596
Integration Time (usec): 100000 (USB4E01596)
Spectra Averaged: 1 (USB4E01596)
Boxcar Smoothing: 0 (USB4E01596)
Correct for Electrical Dark: No (USB4E01596)
Strobe/Lamp Enabled: Yes (USB4E01596)
Correct for Detector Non-linearity: No (USB4E01596)
Correct for Stray Light: No (USB4E01596)
Number of Pixels in Processed Spectrum: 3648
>>>>>Begin Processed Spectral Data<<<<<
178.44	-278.571
178.66	-278.571
178.87	-278.571
179.09	-671.429
179.30	-830.769
179.52	0.000
179.74	-1825.000
179.95	866.667
180.17	586.667
180.38	10500.000
180.60	0.000
180.82	850.000
181.03	-447.368
181.25	317.391
181.46	-232.258
181.68	391.667
181.89	12700.000
182.11	260.000
182.33	-253.333
182.54	-296.875
182.76	-6600.000
182.97	680.000
183.19	2950.000
183.40	182.759
183.62	-100.000
183.84	-388.889
184.05	426.087
184.27	458.333
184.48	1228.571
184.70	156.000
184.91	-633.333
185.13	182.222
185.34	-239.286
185.56	166.667
185.78	0.000
185.99	626.667
186.21	520.690
186.42	393.333
186.64	203.226
186.85	281.481
187.07	134.545
187.28	653.333
187.50	-306.667
187.72	2420.000
187.93	-12200.000
188.15	264.000
188.36	-317.647
188.58	-4500.000
188.79	386.364
189.01	327.778
189.22	1960.000
189.44	4100.000
189.65	240.000
189.87	1437.500
190.09	-2240.000
190.30	787.500
190.52	-4550.000
190.73	189.286
190.95	385.714
191.16	251.111
191.38	820.000
191.59	204.762
191.81	330.556
192.02	280.851
192.24	582.353
192.45	-1940.000
192.67	371.429
192.88	641.667
193.10	372.000
193.31	540.000
193.53	-12800.000
193.74	143.902
193.96	520.833
194.18	293.548
194.39	-300.000
194.61	510.526
194.82	414.286
195.04	285.714
195.25	2800.000
195.47	212.195
195.68	263.830
195.90	780.000
196.11	225.455
196.33	210.638
196.54	-3500.000
196.76	371.429
196.97	-2233.333
197.19	396.429
197.40	255.882
197.62	185.938
197.83	152.703
198.05	-426.316
198.26	268.571
198.48	275.000
198.69	218.605
198.91	250.980
199.12	-251.429
199.34	-1600.000
199.55	9000.000
199.77	2175.000
199.98	316.000
200.20	97.183
200.41	614.286
200.63	-833.333
200.84	196.078
201.06	800.000
201.27	278.378
201.49	1050.000
201.70	314.815
201.91	213.043
202.13	133.333
202.34	237.736
202.56	-1057.143
202.77	177.778
202.99	407.143
203.20	4200.000
203.42	1362.500
203.63	251.163
203.85	271.429
204.06	240.741
204.28	-690.000
204.49	231.429
204.71	197.436
204.92	0.000
205.14	-314.286
205.35	594.444
205.56	-1840.000
205.78	523.810
205.99	950.000
206.21	-241.935
206.42	238.710
206.64	207.143
206.85	1775.000
207.07	-630.769
207.28	564.286
207.50	-547.368
207.71	143.590
207.93	288.636
208.14	652.941
208.35	510.526
208.57	-7100.000
208.78	1069.231
209.00	411.111
209.21	-5200.000
209.43	172.414
209.64	452.941
209.86	957.143
210.07	0.000
210.28	-447.059
210.50	187.755
210.71	177.193
210.93	447.619
211.14	-183.333
211.36	-167.742
211.57	-271.429
211.78	-317.391
212.00	0.000
212.21	318.605
212.43	-327.273
212.64	141.379
212.86	-987.500
213.07	-222.727
213.29	218.421
213.50	6500.000
213.71	207.547
213.93	1371.429
214.14	165.152
214.36	6100.000
214.57	488.462
214.78	462.500
215.00	3300.000
215.21	177.778
215.43	292.000
215.64	269.231
215.86	182.857
216.07	9700.000
216.28	264.000
216.50	-1042.857
216.71	-1460.000
216.93	268.085
217.14	328.125
217.35	337.037
217.57	360.714
217.78	825.000
218.00	-1100.000
218.21	542.105
218.42	-1966.667
218.64	735.294
218.85	-744.444
219.07	664.286
219.28	2725.000
219.49	94.737
219.71	1900.000
219.92	252.778
220.14	283.333
220.35	410.000
220.56	212.821
220.78	158.824
220.99	-8200.000
221.21	328.571
221.42	741.667
221.63	227.500
221.85	161.290
222.06	353.571
222.28	190.909
222.49	-3400.000
222.70	0.000
222.92	372.222
223.13	316.667
223.34	-1500.000
223.56	213.158
223.77	111.236
223.99	330.769
224.20	85.714
224.41	308.108
224.63	250.000
224.84	160.345
225.05	103.571
225.27	154.286
225.48	241.304
225.69	1114.286
225.91	251.852
226.12	133.333
226.34	104.902
226.55	155.556
226.76	201.613
226.98	144.000
227.19	222.727
227.40	85.124
227.62	114.634
227.83	67.000
228.04	98.901
228.26	69.307
228.47	86.207
228.69	40.789
228.90	71.831
229.11	53.333
229.33	61.353
229.54	47.368
229.75	35.217
229.97	32.189
230.18	38.710
230.39	5.485
230.61	22.642
230.82	46.058
231.03	11.203
231.25	40.741
231.46	28.102
231.67	31.225
231.89	44.706
232.10	40.081
232.31	53.365
232.53	32.768
232.74	44.792
232.95	60.843
233.17	65.318
233.38	42.537
233.59	63.235
233.81	52.427
234.02	69.737
234.23	45.989
234.45	65.132
234.66	54.237
234.87	51.678
235.09	65.185
235.30	44.828
235.51	44.175
235.73	40.881
235.94	59.067
236.15	45.918
236.36	62.434
236.58	53.555
236.79	43.455
237.00	37.681
237.22	54.321
237.43	29.412
237.64	54.585
237.86	30.978
238.07	67.337
238.28	57.377
238.50	45.652
238.71	38.462
238.92	21.429
239.13	45.143
239.35	25.175
239.56	33.854
239.77	58.049
239.99	33.962
240.20	18.947
240.41	37.500
240.63	33.198
240.84	43.825
241.05	40.146
241.26	30.992
241.48	32.448
241.69	37.342
241.90	37.465
242.12	24.235
242.33	22.414
242.54	9.382
242.75	23.529
242.97	22.241
243.18	14.815
243.39	21.131
243.61	13.643
243.82	13.007
244.03	11.511
244.24	7.209
244.46	14.667
244.67	11.677
244.88	17.840
245.09	22.538
245.31	9.213
245.52	23.529
245.73	26.848
245.95	31.130
246.16	14.317
246.37	23.837
246.58	18.692
246.80	15.311
247.01	7.541
247.22	16.753
247.43	14.719
247.65	13.362
247.86	8.993
248.07	7.776
248.28	8.294
248.50	9.837
248.71	8.223
248.92	9.825
249.13	7.546
249.35	8.047
249.56	13.072
249.77	12.388
249.98	9.273
250.20	9.556
250.41	13.296
250.62	12.651
250.83	19.882
251.05	16.212
251.26	19.601
251.47	17.838
251.68	17.367
251.90	16.667
252.11	20.383
252.32	21.248
252.53	17.018
252.75	16.160
252.96	15.224
253.17	13.731
253.38	13.919
253.59	12.994
253.81	14.129
254.02	11.765
254.23	18.142
254.44	16.484
254.66	14.380
254.87	16.787
255.08	17.766
255.29	30.522
255.50	18.495
255.72	20.642
255.93	22.384
256.14	26.818
256.35	19.204
256.57	26.772
256.78	24.658
256.99	24.869
257.20	17.718
257.41	39.545
257.63	18.814
257.84	24.689
258.05	9.375
258.26	16.396
258.47	18.426
258.69	18.167
258.90	15.373
259.11	2.652
259.32	12.060
259.53	6.568
259.75	4.044
259.96	6.141
260.17	7.989
260.38	6.068
260.59	6.593
260.81	7.599
261.02	6.001
261.23	8.229
261.44	6.085
261.65	4.491
261.87	4.667
262.08	7.419
262.29	8.725
262.50	9.039
262.71	8.220
262.92	6.932
263.14	13.408
263.35	5.817
263.56	7.059
263.77	12.399
263.98	10.714
264.20	14.249
264.41	6.077
264.62	11.590
264.83	12.288
265.04	19.526
265.25	7.994
265.47	20.846
265.68	14.286
265.89	5.824
266.10	6.086
266.31	17.070
266.52	18.169
266.74	11.111
266.95	5.890
267.16	14.046
267.37	12.000
267.58	9.762
267.79	11.902
268.01	13.626
268.22	15.369
268.43	8.144
268.64	7.225
268.85	9.178
269.06	6.618
269.27	8.808
269.49	6.549
269.70	12.233
269.91	10.139
270.12	8.801
270.33	14.647
270.54	8.471
270.75	7.719
270.97	10.905
271.18	8.205
271.39	9.919
271.60	12.969
271.81	10.745
272.02	10.197
272.23	14.220
272.45	9.581
272.66	9.892
272.87	5.802
273.08	7.711
273.29	6.756
273.50	7.449
273.71	9.271
273.92	6.830
274.14	4.694
274.35	6.316
274.56	8.025
274.77	5.441
274.98	13.186
275.19	10.835
275.40	9.888
275.61	5.572
275.83	14.106
276.04	9.865
276.25	9.902
276.46	8.526
276.67	8.727
276.88	9.928
277.09	6.343
277.30	13.202
277.51	12.860
277.73	6.100
277.94	7.547
278.15	7.900
278.36	5.978
278.57	10.041
278.78	13.800
278.99	15.415
279.20	8.351
279.41	8.333
279.62	10.791
279.84	4.270
280.05	8.668
280.26	9.110
280.47	11.089
280.68	6.987
280.89	13.462
281.10	7.221
281.31	9.316
281.52	12.966
281.73	9.724
281.94	5.000
282.16	8.499
282.37	10.838
282.58	10.679
282.79	9.824
283.00	13.033
283.21	7.581
283.42	4.700
283.63	5.681
283.84	9.464
284.05	9.076
284.26	8.469
284.47	7.422
284.68	8.280
284.89	7.814
285.11	6.989
285.32	6.782
285.53	3.389
285.74	8.826
285.95	8.699
286.16	7.407
286.37	5.729
286.58	4.965
286.79	7.023
287.00	7.299
287.21	5.338
287.42	5.799
287.63	5.189
287.84	6.792
288.05	6.057
288.26	7.282
288.48	10.414
288.69	6.384
288.90	4.818
289.11	5.039
289.32	5.108
289.53	9.164
289.74	4.143
289.95	3.542
290.16	13.177
290.37	7.037
290.58	8.159
290.79	4.111
291.00	8.479
291.21	4.153
291.42	4.762
291.63	4.167
291.84	9.274
292.05	5.106
292.26	6.342
292.47	6.383
292.68	5.274
292.89	7.089
293.10	4.599
293.31	6.205
293.52	8.926
293.73	7.390
293.94	6.843
294.15	5.977
294.36	6.770
294.57	9.741
294.79	11.171
295.00	7.251
295.21	5.101
295.42	4.523
295.63	6.781
295.84	5.107
296.05	5.874
296.26	7.827
296.47	7.317
296.68	6.388
296.89	5.657
297.10	7.929
297.31	6.564
297.52	6.769
297.73	6.073
297.94	6.351
298.15	4.664
298.36	7.013
298.57	4.279
298.78	7.003
298.99	3.356
299.20	4.391
299.41	3.008
299.62	4.941
299.83	5.005
300.04	5.635
300.25	7.352
300.46	5.695
300.67	6.680
300.88	5.352
301.09	3.136
301.30	7.405
301.50	8.296
301.71	9.015
301.92	6.484
302.13	7.678
302.34	5.918
302.55	6.568
302.76	5.777
302.97	8.158
303.18	2.736
303.39	3.586
303.60	6.337
303.81	9.541
304.02	9.084
304.23	5.381
304.44	5.344
304.65	6.523
304.86	7.861
305.07	6.479
305.28	7.180
305.49	4.336
305.70	7.395
305.91	6.894
306.12	3.597
306.33	5.675
306.54	6.676
306.75	7.952
306.96	8.662
307.17	6.753
307.38	3.130
307.58	7.586
307.79	8.732
308.00	6.335
308.21	5.478
308.42	8.582
308.63	9.606
308.84	10.183
309.05	6.315
309.26	5.816
309.47	9.072
309.68	4.437
309.89	7.730
310.10	8.229
310.31	4.299
310.52	3.816
310.73	6.810
310.94	4.010
311.14	4.858
311.35	3.956
311.56	4.762
311.77	5.185
311.98	3.993
312.19	2.174
312.40	3.264
312.61	6.270
312.82	6.935
313.03	4.772
313.24	6.798
313.45	5.659
313.66	4.767
313.86	4.790
314.07	3.557
314.28	5.948
314.49	5.267
314.70	7.002
314.91	4.287
315.12	8.930
315.33	7.850
315.54	7.212
315.75	7.109
315.96	9.348
316.16	5.655
316.37	8.630
316.58	6.885
316.79	5.194
317.00	7.793
317.21	4.720
317.42	6.755
317.63	9.907
317.84	7.554
318.05	10.014
318.25	7.824
318.46	6.917
318.67	4.867
318.88	4.944
319.09	5.074
319.30	6.452
319.51	6.607
319.72	8.873
319.93	7.919
320.13	5.799
320.34	10.993
320.55	5.695
320.76	6.023
320.97	7.076
321.18	7.746
321.39	7.016
321.60	9.544
321.80	10.618
322.01	7.393
322.22	6.231
322.43	4.423
322.64	6.121
322.85	3.147
323.06	7.486
323.27	6.456
323.47	6.886
323.68	6.977
323.89	2.547
324.10	5.763
324.31	8.276
324.52	6.573
324.73	7.857
324.93	6.026
325.14	6.720
325.35	5.196
325.56	4.835
325.77	6.077
325.98	5.967
326.19	8.240
326.39	6.729
326.60	6.226
326.81	5.253
327.02	6.813
327.23	4.961
327.44	8.491
327.64	7.428
327.85	5.025
328.06	4.320
328.27	7.457
328.48	5.756
328.69	4.386
328.90	6.765
329.10	5.109
329.31	0.834
329.52	7.970
329.73	6.944
329.94	3.186
330.15	4.206
330.35	6.481
330.56	7.584
330.77	5.389
330.98	8.462
331.19	7.430
331.39	7.776
331.60	6.033
331.81	9.146
332.02	7.631
332.23	8.060
332.44	5.343
332.64	5.907
332.85	9.152
333.06	8.317
333.27	2.941
333.48	6.345
333.68	5.926
333.89	2.508
334.10	1.994
334.31	4.301
334.52	6.733
334.72	4.727
334.93	5.167
335.14	7.405
335.35	6.775
335.56	3.911
335.76	3.655
335.97	8.780
336.18	8.096
336.39	3.560
336.60	6.899
336.80	7.425
337.01	4.808
337.22	2.955
337.43	7.468
337.64	4.069
337.84	4.518
338.05	5.761
338.26	7.318
338.47	8.081
338.68	7.074
338.88	5.060
339.09	8.323
339.30	5.689
339.51	2.473
339.71	6.439
339.92	6.863
340.13	5.218
340.34	6.843
340.55	5.197
340.75	4.630
340.96	4.532
341.17	5.606
341.38	5.263
341.58	4.019
341.79	3.082
342.00	6.151
342.21	6.495
342.41	5.999
342.62	5.929
342.83	6.138
343.04	4.678
343.24	4.430
343.45	3.506
343.66	6.166
343.87	5.833
344.07	5.377
344.28	5.832
344.49	8.562
344.70	6.678
344.90	4.263
345.11	5.356
345.32	5.341
345.53	4.688
345.73	4.016
345.94	6.318
346.15	4.985
346.36	4.306
346.56	5.335
346.77	5.378
346.98	4.972
347.19	6.410
347.39	4.184
347.60	6.282
347.81	5.519
348.02	5.309
348.22	5.051
348.43	5.671
348.64	5.586
348.84	5.853
349.05	4.638
349.26	9.389
349.47	6.392
349.67	5.697
349.88	7.902
350.09	6.593
350.30	5.954
350.50	6.247
350.71	9.230
350.92	7.947
351.12	6.169
351.33	6.023
351.54	7.733
351.74	7.368
351.95	6.467
352.16	7.595
352.37	10.657
352.57	5.300
352.78	6.775
352.99	7.952
353.19	6.427
353.40	5.274
353.61	10.329
353.82	8.819
354.02	9.158
354.23	7.872
354.44	7.230
354.64	8.903
354.85	7.176
355.06	7.221
355.26	5.114
355.47	6.020
355.68	5.988
355.88	11.429
356.09	9.193
356.30	6.992
356.51	10.055
356.71	8.986
356.92	4.401
357.13	6.633
357.33	7.738
357.54	4.951
357.75	8.226
357.95	8.662
358.16	6.472
358.37	11.896
358.57	6.489
358.78	9.263
358.99	8.215
359.19	7.670
359.40	10.332
359.61	6.751
359.81	9.603
360.02	8.570
360.23	6.978
360.43	9.478
360.64	7.512
360.85	8.834
361.05	6.646
361.26	10.033
361.47	7.333
361.67	9.936
361.88	5.530
362.09	8.855
362.29	6.944
362.50	5.983
362.70	6.669
362.91	9.175
363.12	6.574
363.32	7.225
363.53	7.830
363.74	8.840
363.94	4.841
364.15	11.257
364.36	7.957
364.56	6.859
364.77	9.812
364.98	11.486
365.18	8.510
365.39	9.022
365.59	8.196
365.80	8.629
366.01	9.849
366.21	8.198
366.42	6.328
366.63	9.609
366.83	6.330
367.04	5.135
367.24	10.797
367.45	7.500
367.66	4.896
367.86	11.078
368.07	6.999
368.28	8.282
368.48	7.474
368.69	6.267
368.89	9.436
369.10	8.926
369.31	8.384
369.51	7.959
369.72	9.394
369.92	10.181
370.13	5.513
370.34	8.775
370.54	5.564
370.75	11.033
370.95	6.566
371.16	9.711
371.37	7.791
371.57	9.724
371.78	7.284
371.98	8.699
372.19	9.204
372.40	10.847
372.60	10.817
372.81	10.728
373.01	6.969
373.22	8.710
373.43	8.066
373.63	11.761
373.84	7.755
374.04	8.327
374.25	8.563
374.46	9.078
374.66	8.851
374.87	8.954
375.07	6.193
375.28	9.939
375.48	7.009
375.69	11.630
375.90	6.286
376.10	7.687
376.31	8.211
376.51	8.814
376.72	8.040
376.92	6.538
377.13	10.497
377.34	12.274
377.54	7.023
377.75	10.191
377.95	9.479
378.16	10.059
378.36	8.710
378.57	11.242
378.77	9.751
378.98	12.014
379.19	9.715
379.39	8.381
379.60	9.057
379.80	10.156
380.01	11.419
380.21	9.943
380.42	11.025
380.62	8.824
380.83	12.476
381.04	10.797
381.24	10.148
381.45	10.870
381.65	8.033
381.86	11.100
382.06	12.953
382.27	6.790
382.47	10.255
382.68	13.685
382.88	8.037
383.09	9.088
383.29	9.271
383.50	12.763
383.71	10.867
383.91	11.225
384.12	9.314
384.32	14.075
384.53	12.020
384.73	9.195
384.94	9.835
385.14	11.642
385.35	8.854
385.55	11.796
385.76	9.666
385.96	13.495
386.17	12.764
386.37	13.581
386.58	10.766
386.78	14.437
386.99	10.035
387.19	14.597
387.40	9.691
387.60	16.499
387.81	13.074
388.01	13.107
388.22	16.671
388.42	15.784
388.63	15.704
388.83	16.960
389.04	9.636
389.24	15.374
389.45	12.400
389.65	15.058
389.86	12.094
390.06	12.174
390.27	12.805
390.47	14.103
390.68	12.961
390.88	15.581
391.09	15.137
391.29	18.043
391.50	14.110
391.70	18.032
391.91	14.959
392.11	15.383
392.32	17.463
392.52	18.441
392.73	15.497
392.93	17.826
393.14	16.747
393.34	17.112
393.55	16.315
393.75	17.725
393.95	16.452
394.16	19.640
394.36	19.568
394.57	21.717
394.77	18.177
394.98	17.423
395.18	18.133
395.39	19.719
395.59	17.728
395.80	18.069
396.00	18.466
396.21	21.006
396.41	17.288
396.61	20.316
396.82	18.856
397.02	22.771
397.23	18.114
397.43	20.866
397.64	14.434
397.84	20.659
398.05	15.145
398.25	20.193
398.45	17.154
398.66	19.688
398.86	20.055
399.07	21.402
399.27	17.368
399.48	20.833
399.68	16.947
399.89	18.627
400.09	20.733
400.29	18.384
400.50	18.005
400.70	19.154
400.91	18.252
401.11	18.852
401.32	17.243
401.52	17.047
401.72	18.668
401.93	20.131
402.13	18.187
402.34	19.917
402.54	17.645
402.75	20.942
402.95	14.587
403.15	20.523
403.36	16.148
403.56	20.501
403.77	15.771
403.97	18.354
404.17	16.587
404.38	20.638
404.58	17.122
404.79	20.578
404.99	19.710
405.19	19.434
405.40	18.750
405.60	21.898
405.81	20.018
406.01	19.665
406.21	18.009
406.42	20.299
406.62	18.859
406.83	20.009
407.03	20.023
407.23	19.625
407.44	19.251
407.64	21.086
407.85	19.793
408.05	18.610
408.25	16.715
408.46	20.015
408.66	19.965
408.87	18.496
409.07	16.074
409.27	17.373
409.48	17.553
409.68	18.766
409.88	15.178
410.09	19.033
410.29	16.748
410.50	19.855
410.70	13.881
410.90	18.108
411.11	16.855
411.31	17.575
411.51	18.067
411.72	19.080
411.92	16.079
412.12	18.450
412.33	15.069
412.53	16.978
412.74	13.721
412.94	16.273
413.14	16.312
413.35	18.318
413.55	16.420
413.75	19.665
413.96	13.451
414.16	16.482
414.36	18.032
414.57	17.097
414.77	15.649
414.97	16.378
415.18	15.878
415.38	16.872
415.58	17.078
415.79	16.180
415.99	14.899
416.19	17.873
416.40	16.909
416.60	17.596
416.80	15.190
417.01	17.820
417.21	15.282
417.41	18.177
417.62	16.927
417.82	16.327
418.02	15.263
418.23	17.216
418.43	16.471
418.63	17.543
418.84	17.850
419.04	17.807
419.24	17.431
419.45	17.540
419.65	18.314
419.85	18.299
420.06	17.325
420.26	17.723
420.46	17.706
420.67	19.482
420.87	17.477
421.07	17.655
421.28	17.101
421.48	18.195
421.68	17.831
421.88	18.071
422.09	17.917
422.29	17.832
422.49	17.311
422.70	18.319
422.90	17.343
423.10	17.653
423.31	17.644
423.51	18.881
423.71	17.663
423.91	18.261
424.12	17.618
424.32	17.516
424.52	17.575
424.73	18.008
424.93	17.878
425.13	17.580
425.33	16.717
425.54	17.838
425.74	17.636
425.94	17.929
426.15	17.394
426.35	17.297
426.55	17.865
426.75	18.017
426.96	17.483
427.16	17.489
427.36	17.753
427.57	18.926
427.77	17.564
427.97	18.166
428.17	16.940
428.38	18.372
428.58	15.725
428.78	17.128
428.98	16.268
429.19	15.968
429.39	14.522
429.59	17.349
429.79	15.510
430.00	15.095
430.20	15.129
430.40	15.929
430.60	14.894
430.81	17.663
431.01	14.432
431.21	17.036
431.41	15.206
431.62	16.689
431.82	16.376
432.02	17.473
432.22	16.122
432.43	16.164
432.63	14.297
432.83	16.331
433.03	16.620
433.24	16.894
433.44	16.843
433.64	16.731
433.84	16.602
434.05	18.246
434.25	16.881
434.45	17.584
434.65	17.362
434.85	18.379
435.06	17.127
435.26	18.414
435.46	17.606
435.66	17.102
435.87	17.753
436.07	18.175
436.27	18.069
436.47	17.840
436.67	17.194
436.88	18.564
437.08	17.814
437.28	18.795
437.48	18.376
437.69	19.147
437.89	17.776
438.09	18.914
438.29	17.290
438.49	19.032
438.70	17.525
438.90	18.033
439.10	17.445
439.30	18.589
439.50	17.254
439.71	18.720
439.91	18.353
440.11	18.767
440.31	18.414
440.51	18.103
440.72	18.486
440.92	19.331
441.12	19.128
441.32	18.952
441.52	19.045
441.72	18.913
441.93	19.105
442.13	18.893
442.33	18.876
442.53	20.069
442.73	19.436
442.94	19.729
443.14	18.289
443.34	19.408
443.54	19.736
443.74	19.677
443.94	19.596
444.15	18.738
444.35	19.051
444.55	20.652
444.75	18.977
444.95	18.977
445.15	18.895
445.36	19.223
445.56	19.724
445.76	19.757
445.96	18.950
446.16	18.802
446.36	18.766
446.57	19.698
446.77	19.018
446.97	19.291
447.17	19.379
447.37	19.275
447.57	20.153
447.77	19.286
447.98	20.416
448.18	19.844
448.38	20.031
448.58	20.051
448.78	20.391
448.98	19.976
449.18	19.864
449.39	19.837
449.59	19.745
449.79	19.955
449.99	19.467
450.19	20.370
450.39	19.559
450.59	19.841
450.79	19.789
451.00	20.308
451.20	21.308
451.40	20.415
451.60	19.194
451.80	20.157
452.00	18.932
452.20	19.301
452.40	19.324
452.61	20.071
452.81	19.762
453.01	20.642
453.21	19.051
453.41	19.698
453.61	19.375
453.81	19.894
454.01	18.839
454.21	20.612
454.42	19.833
454.62	20.549
454.82	19.862
455.02	19.404
455.22	19.731
455.42	20.971
455.62	18.840
455.82	20.357
456.02	19.608
456.23	19.588
456.43	19.724
456.63	20.707
456.83	19.113
457.03	19.936
457.23	19.294
457.43	20.226
457.63	19.228
457.83	19.089
458.03	18.066
458.23	19.391
458.43	20.070
458.64	19.160
458.84	19.673
459.04	19.447
459.24	19.044
459.44	19.664
459.64	18.912
459.84	19.578
460.04	19.057
460.24	19.104
460.44	19.399
460.64	19.789
460.84	19.322
461.04	19.572
461.24	19.432
461.45	20.180
461.65	20.540
461.85	19.891
462.05	20.445
462.25	20.664
462.45	20.110
462.65	19.911
462.85	19.909
463.05	20.523
463.25	19.577
463.45	19.408
463.65	19.312
463.85	19.441
464.05	18.927
464.25	18.810
464.45	20.940
464.65	19.862
464.85	18.632
465.05	19.757
465.26	18.798
465.46	20.352
465.66	19.212
465.86	19.640
466.06	19.907
466.26	19.968
466.46	18.975
466.66	19.850
466.86	20.370
467.06	18.914
467.26	19.224
467.46	19.357
467.66	18.897
467.86	20.395
468.06	19.209
468.26	19.118
468.46	19.172
468.66	19.666
468.86	18.691
469.06	19.929
469.26	19.428
469.46	20.262
469.66	19.202
469.86	20.410
470.06	19.373
470.26	20.091
470.46	19.549
470.66	19.623
470.86	20.044
471.06	20.091
471.26	18.192
471.46	19.255
471.66	20.115
471.86	20.562
472.06	20.319
472.26	20.088
472.46	20.900
472.66	20.058
472.86	19.844
473.06	20.578
473.26	19.686
473.46	19.294
473.66	19.761
473.86	20.173
474.06	20.440
474.26	19.609
474.46	19.556
474.66	19.933
474.86	20.608
475.06	20.200
475.26	19.033
475.46	20.157
475.66	19.818
475.86	20.882
476.06	20.197
476.26	20.437
476.46	20.210
476.66	19.722
476.86	19.403
477.06	20.288
477.26	19.951
477.46	20.830
477.65	19.634
477.85	20.092
478.05	20.826
478.25	20.496
478.45	20.456
478.65	20.886
478.85	20.521
479.05	20.787
479.25	20.863
479.45	21.232
479.65	20.818
479.85	21.595
480.05	20.578
480.25	20.360
480.45	20.822
480.65	21.309
480.85	20.302
481.05	21.099
481.25	21.089
481.44	20.853
481.64	20.943
481.84	21.145
482.04	20.547
482.24	20.776
482.44	20.664
482.64	20.547
482.84	20.824
483.04	20.557
483.24	20.259
483.44	20.307
483.64	19.480
483.84	20.094
484.04	19.961
484.23	20.307
484.43	20.779
484.63	20.345
484.83	21.105
485.03	21.088
485.23	21.506
485.43	21.393
485.63	21.845
485.83	21.757
486.03	21.864
486.23	21.775
486.42	21.715
486.62	21.487
486.82	21.284
487.02	21.282
487.22	21.083
487.42	21.036
487.62	21.040
487.82	20.944
488.02	20.707
488.22	20.228
488.41	20.803
488.61	20.693
488.81	21.434
489.01	20.595
489.21	21.331
489.41	21.124
489.61	21.511
489.81	20.609
490.01	21.504
490.20	21.139
490.40	21.395
490.60	21.655
490.80	21.644
491.00	21.619
491.20	20.618
491.40	20.467
491.60	20.579
491.79	20.309
491.99	20.647
492.19	20.655
492.39	20.228
492.59	20.236
492.79	20.864
492.99	20.869
493.19	21.108
493.38	21.074
493.58	21.352
493.78	22.157
493.98	22.093
494.18	21.603
494.38	22.081
494.58	21.591
494.77	21.697
494.97	21.351
495.17	21.744
495.37	21.941
495.57	22.118
495.77	20.865
495.96	22.198
496.16	20.805
496.36	21.207
496.56	21.200
496.76	21.207
496.96	20.750
497.15	22.131
497.35	21.164
497.55	20.688
497.75	21.621
497.95	21.204
498.15	21.486
498.34	21.764
498.54	21.577
498.74	21.727
498.94	21.495
499.14	22.157
499.34	21.776
499.53	21.061
499.73	22.004
499.93	22.639
500.13	22.074
500.33	22.131
500.52	21.224
500.72	22.025
500.92	22.938
501.12	22.141
501.32	22.692
501.52	21.997
501.71	22.371
501.91	22.868
502.11	22.628
502.31	22.786
502.51	23.300
502.70	22.365
502.90	22.378
503.10	23.220
503.30	22.753
503.50	23.714
503.69	22.847
503.89	23.813
504.09	22.616
504.29	23.313
504.48	23.265
504.68	23.388
504.88	23.213
505.08	23.453
505.28	23.674
505.47	24.055
505.67	24.243
505.87	24.591
506.07	24.481
506.27	23.752
506.46	24.586
506.66	25.166
506.86	25.154
507.06	25.554
507.25	26.164
507.45	25.875
507.65	25.441
507.85	25.183
508.04	25.940
508.24	26.040
508.44	24.902
508.64	24.855
508.83	25.456
509.03	25.539
509.23	25.368
509.43	25.823
509.63	26.084
509.82	25.942
510.02	26.083
510.22	26.162
510.42	26.130
510.61	26.631
510.81	26.719
511.01	27.564
511.21	26.966
511.40	26.688
511.60	27.339
511.80	27.799
511.99	27.634
512.19	27.876
512.39	28.018
512.59	27.854
512.78	27.466
512.98	28.254
513.18	28.259
513.38	27.888
513.57	28.227
513.77	28.259
513.97	28.432
514.17	29.038
514.36	29.151
514.56	30.016
514.76	29.672
514.95	29.666
515.15	30.649
515.35	30.365
515.55	30.233
515.74	31.537
515.94	30.594
516.14	30.782
516.33	30.367
516.53	31.438
516.73	31.395
516.93	31.505
517.12	31.283
517.32	30.278
517.52	30.239
517.71	30.734
517.91	29.823
518.11	30.127
518.30	30.992
518.50	29.553
518.70	29.306
518.90	29.153
519.09	29.141
519.29	29.085
519.49	29.758
519.68	29.785
519.88	28.707
520.08	29.325
520.27	29.371
520.47	29.905
520.67	30.240
520.86	29.670
521.06	30.852
521.26	30.443
521.45	30.868
521.65	30.310
521.85	30.580
522.04	30.386
522.24	30.757
522.44	31.225
522.63	30.895
522.83	30.005
523.03	31.653
523.22	31.150
523.42	31.093
523.62	30.835
523.81	30.911
524.01	30.839
524.21	30.953
524.40	30.528
524.60	30.587
524.80	29.838
524.99	29.668
525.19	29.487
525.39	29.242
525.58	28.454
525.78	28.783
525.98	28.929
526.17	27.935
526.37	28.344
526.57	27.576
526.76	28.037
526.96	28.036
527.15	28.071
527.35	28.115
527.55	27.819
527.74	28.180
527.94	27.251
528.14	26.632
528.33	26.522
528.53	26.415
528.72	25.825
528.92	26.013
529.12	26.543
529.31	25.663
529.51	26.178
529.71	26.379
529.90	26.712
530.10	26.375
530.29	27.135
530.49	26.877
530.69	27.953
530.88	27.132
531.08	27.088
531.28	27.584
531.47	27.757
531.67	27.184
531.86	27.295
532.06	27.248
532.26	27.496
532.45	27.824
532.65	27.587
532.84	26.278
533.04	26.847
533.24	26.794
533.43	26.342
533.63	26.236
533.82	26.668
534.02	26.912
534.22	26.623
534.41	26.211
534.61	26.727
534.80	26.526
535.00	27.010
535.19	26.874
535.39	27.873
535.59	27.808
535.78	27.849
535.98	27.287
536.17	27.608
536.37	27.857
536.57	27.275
536.76	26.164
536.96	27.053
537.15	26.956
537.35	28.005
537.54	26.589
537.74	27.883
537.93	27.313
538.13	27.370
538.33	27.063
538.52	27.490
538.72	27.927
538.91	27.618
539.11	27.984
539.30	28.550
539.50	27.861
539.70	27.714
539.89	28.261
540.09	27.714
540.28	27.443
540.48	26.992
540.67	26.887
540.87	27.115
541.06	26.114
541.26	26.573
541.45	26.529
541.65	26.081
541.85	26.158
542.04	25.639
542.24	26.165
542.43	26.274
542.63	25.926
542.82	26.450
543.02	26.356
543.21	27.204
543.41	27.211
543.60	28.004
543.80	27.178
543.99	26.964
544.19	27.564
544.38	28.071
544.58	27.614
544.77	27.738
544.97	27.916
545.16	27.582
545.36	28.737
545.56	28.471
545.75	28.283
545.95	27.536
546.14	28.097
546.34	28.057
546.53	28.196
546.73	27.748
546.92	27.343
547.12	28.064
547.31	27.935
547.51	28.884
547.70	28.407
547.90	28.429
548.09	28.224
548.29	28.282
548.48	27.751
548.68	28.823
548.87	29.097
549.07	28.685
549.26	28.678
549.46	29.189
549.65	29.783
549.84	29.696
550.04	30.340
550.23	29.900
550.43	31.178
550.62	29.579
550.82	30.126
551.01	30.228
551.21	29.724
551.40	30.244
551.60	29.027
551.79	29.798
551.99	30.611
552.18	29.313
552.38	30.648
552.57	29.934
552.77	29.317
552.96	30.378
553.16	30.219
553.35	28.893
553.54	29.582
553.74	29.149
553.93	29.823
554.13	29.831
554.32	29.594
554.52	30.913
554.71	30.725
554.91	30.092
555.10	30.460
555.29	30.801
555.49	30.981
555.68	31.565
555.88	30.968
556.07	30.511
556.27	30.819
556.46	31.290
556.66	30.141
556.85	31.474
557.04	30.944
557.24	31.081
557.43	30.326
557.63	31.991
557.82	31.091
558.02	31.638
558.21	31.269
558.40	31.642
558.60	32.118
558.79	31.535
558.99	29.494
559.18	31.177
559.38	32.344
559.57	31.523
559.76	31.467
559.96	31.564
560.15	30.998
560.35	30.707
560.54	31.279
560.73	30.947
560.93	31.004
561.12	31.783
561.32	31.350
561.51	30.367
561.70	30.289
561.90	30.103
562.09	31.301
562.29	31.570
562.48	31.010
562.67	30.020
562.87	30.278
563.06	30.125
563.26	31.278
563.45	30.927
563.64	31.826
563.84	31.508
564.03	31.057
564.23	30.798
564.42	31.819
564.61	30.136
564.81	31.423
565.00	30.642
565.20	31.755
565.39	29.806
565.58	30.971
565.78	30.363
565.97	31.488
566.16	30.364
566.36	31.167
566.55	30.157
566.74	29.077
566.94	30.877
567.13	30.648
567.33	29.320
567.52	29.929
567.71	31.196
567.91	30.183
568.10	30.830
568.29	31.052
568.49	30.945
568.68	31.678
568.87	30.224
569.07	31.037
569.26	30.957
569.45	30.648
569.65	30.422
569.84	30.699
570.04	31.221
570.23	29.725
570.42	30.201
570.62	31.646
570.81	31.379
571.00	29.686
571.20	30.419
571.39	30.942
571.58	30.892
571.78	30.889
571.97	30.261
572.16	31.046
572.36	29.919
572.55	30.244
572.74	30.438
572.94	30.151
573.13	30.516
573.32	30.507
573.51	29.845
573.71	30.640
573.90	30.845
574.09	30.403
574.29	30.211
574.48	30.467
574.67	30.055
574.87	29.614
575.06	29.752
575.25	29.215
575.45	29.595
575.64	30.069
575.83	29.946
576.03	31.357
576.22	29.404
576.41	29.906
576.60	29.843
576.80	29.695
576.99	29.779
577.18	29.744
577.38	30.169
577.57	30.046
577.76	30.651
577.95	30.394
578.15	30.221
578.34	30.652
578.53	31.471
578.73	30.457
578.92	30.094
579.11	30.954
579.30	30.390
579.50	31.938
579.69	30.552
579.88	30.979
580.08	30.470
580.27	30.651
580.46	31.359
580.65	29.751
580.85	30.670
581.04	29.263
581.23	30.336
581.42	29.582
581.62	30.168
581.81	31.460
582.00	30.788
582.19	30.355
582.39	29.261
582.58	30.411
582.77	30.626
582.96	30.517
583.16	31.105
583.35	29.507
583.54	29.859
583.73	30.959
583.93	30.385
584.12	30.263
584.31	30.845
584.50	30.637
584.70	29.581
584.89	30.284
585.08	30.891
585.27	30.004
585.47	30.605
585.66	29.705
585.85	29.679
586.04	30.395
586.24	30.441
586.43	30.002
586.62	29.917
586.81	30.441
587.00	29.820
587.20	31.220
587.39	32.072
587.58	30.648
587.77	30.291
587.97	29.522
588.16	31.179
588.35	28.528
588.54	30.146
588.73	30.381
588.93	31.894
589.12	30.338
589.31	30.093
589.50	30.649
589.69	29.978
589.89	30.862
590.08	29.069
590.27	29.884
590.46	30.125
590.65	31.117
590.85	29.158
591.04	31.214
591.23	29.745
591.42	30.047
591.61	29.941
591.81	29.575
592.00	30.104
592.19	30.320
592.38	30.799
592.57	30.402
592.77	31.522
592.96	29.972
593.15	30.307
593.34	30.600
593.53	30.243
593.72	30.404
593.92	30.605
594.11	31.731
594.30	30.862
594.49	29.954
594.68	31.935
594.87	32.192
595.07	30.148
595.26	29.902
595.45	31.318
595.64	30.583
595.83	30.249
596.02	31.827
596.22	30.733
596.41	31.168
596.60	30.993
596.79	29.810
596.98	30.173
597.17	30.280
597.37	30.681
597.56	31.148
597.75	31.879
597.94	30.938
598.13	31.394
598.32	31.272
598.51	30.810
598.71	31.234
598.90	31.137
599.09	32.046
599.28	32.131
599.47	32.251
599.66	32.440
599.85	31.476
600.05	31.072
600.24	32.365
600.43	30.850
600.62	33.038
600.81	31.399
601.00	32.497
601.19	31.561
601.38	32.516
601.58	34.475
601.77	33.366
601.96	32.607
602.15	33.089
602.34	32.776
602.53	32.626
602.72	32.432
602.91	33.737
603.10	31.878
603.30	33.528
603.49	32.148
603.68	33.209
603.87	31.110
604.06	31.886
604.25	32.124
604.44	31.842
604.63	32.175
604.82	32.398
605.01	32.579
605.21	32.238
605.40	32.285
605.59	32.627
605.78	32.011
605.97	32.740
606.16	32.744
606.35	32.394
606.54	33.226
606.73	32.162
606.92	32.799
607.11	32.663
607.30	33.636
607.50	33.861
607.69	33.582
607.88	31.841
608.07	31.913
608.26	32.409
608.45	34.206
608.64	33.383
608.83	33.396
609.02	32.140
609.21	33.095
609.40	33.132
609.59	31.803
609.78	32.115
609.97	32.959
610.16	32.301
610.35	32.458
610.55	32.579
610.74	33.104
610.93	32.507
611.12	32.983
611.31	32.783
611.50	32.695
611.69	33.310
611.88	32.881
612.07	33.769
612.26	32.055
612.45	33.469
612.64	31.822
612.83	33.280
613.02	32.931
613.21	32.984
613.40	32.035
613.59	34.655
613.78	31.322
613.97	33.481
614.16	33.596
614.35	32.622
614.54	35.463
614.73	33.492
614.92	31.886
615.11	32.554
615.30	32.338
615.49	32.686
615.68	33.180
615.87	33.571
616.07	31.842
616.26	33.889
616.45	31.746
616.64	32.210
616.83	32.592
617.02	33.318
617.21	32.493
617.40	32.623
617.59	31.719
617.78	33.590
617.97	31.581
618.16	32.634
618.35	32.535
618.54	33.486
618.73	31.925
618.92	33.341
619.11	33.050
619.30	33.884
619.49	31.619
619.68	33.068
619.86	32.226
620.05	32.903
620.24	32.134
620.43	31.765
620.62	31.623
620.81	33.024
621.00	33.056
621.19	33.544
621.38	31.760
621.57	33.061
621.76	33.285
621.95	32.825
622.14	32.676
622.33	32.734
622.52	32.668
622.71	33.272
622.90	31.667
623.09	32.298
623.28	31.189
623.47	33.167
623.66	32.015
623.85	32.028
624.04	32.478
624.23	31.983
624.42	32.052
624.61	32.671
624.80	32.588
624.99	31.806
625.18	31.442
625.36	31.679
625.55	32.065
625.74	31.409
625.93	31.160
626.12	33.123
626.31	31.640
626.50	31.199
626.69	33.191
626.88	31.726
627.07	31.200
627.26	31.464
627.45	31.689
627.64	31.899
627.83	30.503
628.02	31.447
628.20	31.055
628.39	31.146
628.58	30.897
628.77	31.436
628.96	31.814
629.15	32.523
629.34	30.362
629.53	31.326
629.72	31.771
629.91	32.287
630.10	32.375
630.29	30.388
630.47	31.404
630.66	31.185
630.85	30.596
631.04	30.983
631.23	31.510
631.42	30.994
631.61	30.364
631.80	32.498
631.99	31.250
632.18	30.665
632.36	30.358
632.55	32.470
632.74	30.578
632.93	31.066
633.12	31.745
633.31	30.952
633.50	31.041
633.69	31.710
633.88	31.828
634.06	31.291
634.25	29.931
634.44	30.507
634.63	31.058
634.82	29.962
635.01	30.584
635.20	32.387
635.39	29.800
635.57	32.099
635.76	32.362
635.95	31.063
636.14	31.721
636.33	32.846
636.52	29.369
636.71	31.725
636.89	29.554
637.08	32.905
637.27	29.692
637.46	31.062
637.65	30.221
637.84	32.118
638.03	30.025
638.21	31.135
638.40	31.375
638.59	31.847
638.78	29.114
638.97	30.297
639.16	31.160
639.34	30.375
639.53	29.928
639.72	30.562
639.91	30.857
640.10	31.036
640.29	30.292
640.47	31.944
640.66	29.360
640.85	31.560
641.04	29.048
641.23	29.505
641.42	30.129
641.60	29.757
641.79	29.972
641.98	30.166
642.17	29.167
642.36	31.838
642.54	30.986
642.73	30.537
642.92	29.469
643.11	32.073
643.30	31.259
643.49	30.265
643.67	29.807
643.86	31.504
644.05	30.356
644.24	30.467
644.43	29.943
644.61	31.500
644.80	29.725
644.99	29.169
645.18	30.077
645.37	30.639
645.55	30.733
645.74	31.879
645.93	29.849
646.12	31.585
646.31	29.393
646.49	29.528
646.68	29.318
646.87	30.872
647.06	29.193
647.24	31.664
647.43	28.110
647.62	30.445
647.81	29.282
648.00	28.511
648.18	29.422
648.37	30.731
648.56	28.283
648.75	30.060
648.93	29.139
649.12	30.945
649.31	30.354
649.50	29.334
649.68	27.912
649.87	29.087
650.06	28.322
650.25	31.095
650.43	29.645
650.62	31.193
650.81	31.303
651.00	30.555
651.18	28.979
651.37	28.432
651.56	28.354
651.75	30.435
651.93	29.491
652.12	31.593
652.31	28.901
652.50	29.213
652.68	28.484
652.87	30.456
653.06	30.821
653.25	30.492
653.43	28.774
653.62	30.018
653.81	28.711
654.00	31.499
654.18	28.876
654.37	29.439
654.56	28.812
654.74	29.200
654.93	29.865
655.12	28.372
655.31	29.699
655.49	30.499
655.68	27.425
655.87	28.668
656.05	26.998
656.24	28.553
656.43	24.950
656.62	29.542
656.80	28.283
656.99	27.769
657.18	25.591
657.36	26.238
657.55	28.796
657.74	28.382
657.93	28.718
658.11	30.750
658.30	27.899
658.49	28.308
658.67	26.418
658.86	27.667
659.05	28.714
659.23	27.999
659.42	25.997
659.61	28.473
659.79	25.497
659.98	28.585
660.17	25.856
660.35	27.478
660.54	25.858
660.73	29.364
660.91	24.601
661.10	27.298
661.29	25.653
661.47	27.356
661.66	24.623
661.85	27.502
662.03	25.455
662.22	25.194
662.41	24.364
662.59	23.888
662.78	24.432
662.97	24.984
663.15	24.823
663.34	24.867
663.53	22.838
663.71	25.427
663.90	21.069
664.09	23.972
664.27	22.263
664.46	23.439
664.65	23.066
664.83	23.395
665.02	21.369
665.21	21.612
665.39	17.771
665.58	22.606
665.77	21.718
665.95	21.934
666.14	19.134
666.32	21.932
666.51	18.443
666.70	18.127
666.88	19.892
667.07	21.367
667.26	17.643
667.44	20.638
667.63	17.933
667.81	19.285
668.00	19.218
668.19	22.635
668.37	18.153
668.56	20.961
668.75	16.972
668.93	20.878
669.12	17.639
669.30	21.816
669.49	17.540
669.68	19.309
669.86	19.417
670.05	19.036
670.23	17.969
670.42	18.529
670.61	18.465
670.79	20.827
670.98	19.024
671.16	20.177
671.35	18.622
671.54	19.947
671.72	16.036
671.91	19.569
672.09	16.704
672.28	20.162
672.46	19.692
672.65	19.432
672.84	21.036
673.02	21.234
673.21	14.736
673.39	16.863
673.58	18.040
673.77	19.219
673.95	16.224
674.14	21.067
674.32	17.860
674.51	21.055
674.69	16.100
674.88	19.657
675.07	17.593
675.25	22.147
675.44	17.124
675.62	19.016
675.81	16.472
675.99	24.003
676.18	19.813
676.36	19.292
676.55	16.579
676.74	22.130
676.92	22.160
677.11	20.327
677.29	19.453
677.48	20.425
677.66	18.706
677.85	19.267
678.03	18.726
678.22	21.138
678.40	20.559
678.59	19.127
678.78	19.206
678.96	21.858
679.15	17.856
679.33	22.398
679.52	21.645
679.70	21.614
679.89	19.581
680.07	21.909
680.26	19.260
680.44	23.421
680.63	20.757
680.81	20.974
681.00	18.748
681.18	23.646
681.37	23.245
681.55	23.742
681.74	23.544
681.92	24.509
682.11	22.109
682.29	23.736
682.48	20.749
682.66	25.162
682.85	23.162
683.03	22.513
683.22	24.904
683.40	25.192
683.59	22.458
683.77	24.764
683.96	23.228
684.14	25.523
684.33	20.420
684.51	28.213
684.70	23.393
684.88	28.155
685.07	27.537
685.25	27.333
685.44	22.765
685.62	28.486
685.81	23.838
685.99	27.676
686.18	22.491
686.36	28.179
686.55	23.548
686.73	26.815
686.92	26.324
687.10	28.820
687.29	27.386
687.47	27.446
687.65	28.351
687.84	27.743
688.02	28.571
688.21	30.859
688.39	27.549
688.58	32.453
688.76	26.437
688.95	30.400
689.13	26.521
689.32	32.706
689.50	28.011
689.68	30.419
689.87	27.666
690.05	30.109
690.24	29.910
690.42	32.801
690.61	32.988
690.79	30.756
690.98	31.136
691.16	34.125
691.34	30.541
691.53	35.530
691.71	31.442
691.90	32.404
692.08	32.544
692.27	36.283
692.45	31.181
692.63	36.240
692.82	34.872
693.00	39.745
693.19	34.249
693.37	37.263
693.56	33.273
693.74	37.799
693.92	35.636
694.11	37.535
694.29	34.995
694.48	38.713
694.66	35.599
694.84	36.312
695.03	35.537
695.21	41.414
695.40	39.674
695.58	39.894
695.76	35.167
695.95	39.510
696.13	35.602
696.32	39.338
696.50	40.381
696.68	39.353
696.87	35.668
697.05	41.263
697.24	40.186
697.42	41.147
697.60	36.431
697.79	39.154
697.97	38.651
698.16	39.845
698.34	39.042
698.52	40.268
698.71	40.841
698.89	40.726
699.07	39.956
699.26	39.381
699.44	39.350
699.63	41.630
699.81	39.682
699.99	39.475
700.18	39.670
700.36	41.423
700.54	42.386
700.73	41.554
700.91	43.337
701.09	40.999
701.28	39.113
701.46	43.359
701.64	41.421
701.83	43.290
702.01	40.715
702.20	44.832
702.38	45.349
702.56	42.813
702.75	43.417
702.93	45.128
703.11	44.082
703.30	45.318
703.48	46.518
703.66	46.792
703.85	44.498
704.03	45.777
704.21	48.482
704.40	45.203
704.58	45.114
704.76	46.848
704.95	45.833
705.13	50.368
705.31	47.282
705.50	46.813
705.68	45.943
705.86	47.406
706.04	46.231
706.23	49.161
706.41	44.916
706.59	46.028
706.78	47.043
706.96	49.259
707.14	46.335
707.33	52.159
707.51	49.913
707.69	49.861
707.88	51.202
708.06	46.710
708.24	48.369
708.42	45.764
708.61	47.861
708.79	48.557
708.97	48.762
709.16	49.573
709.34	48.466
709.52	48.291
709.71	48.804
709.89	47.548
710.07	45.633
710.25	48.919
710.44	45.440
710.62	52.256
710.80	49.398
710.98	52.012
711.17	48.470
711.35	50.857
711.53	50.813
711.72	49.150
711.90	47.056
712.08	49.849
712.26	49.280
712.45	48.512
712.63	49.752
712.81	51.349
712.99	51.157
713.18	51.397
713.36	52.755
713.54	50.000
713.72	49.634
713.91	50.495
714.09	48.677
714.27	50.130
714.45	49.740
714.64	52.505
714.82	51.695
715.00	50.942
715.18	48.287
715.37	49.947
715.55	49.640
715.73	48.647
715.91	51.698
716.10	52.176
716.28	49.213
716.46	52.428
716.64	47.663
716.83	48.081
717.01	49.767
717.19	49.401
717.37	50.153
717.55	52.301
717.74	51.087
717.92	49.219
718.10	50.114
718.28	49.588
718.47	48.047
718.65	51.385
718.83	46.755
719.01	47.860
719.19	52.341
719.38	51.353
719.56	50.601
719.74	53.088
719.92	46.019
720.10	51.401
720.29	48.228
720.47	50.964
720.65	48.753
720.83	51.237
721.01	48.752
721.20	54.189
721.38	51.582
721.56	51.645
721.74	54.071
721.92	57.094
722.11	48.548
722.29	56.925
722.47	55.196
722.65	57.392
722.83	53.941
723.01	55.746
723.20	55.539
723.38	55.903
723.56	55.822
723.74	56.084
723.92	53.406
724.10	53.333
724.29	48.476
724.47	52.519
724.65	53.012
724.83	51.555
725.01	50.000
725.19	56.382
725.38	51.031
725.56	57.695
725.74	57.372
725.92	55.360
726.10	54.623
726.28	54.855
726.46	57.027
726.65	50.563
726.83	54.090
727.01	59.565
727.19	49.832
727.37	55.833
727.55	52.845
727.73	51.381
727.92	55.000
728.10	53.949
728.28	52.469
728.46	53.053
728.64	53.914
728.82	52.572
729.00	54.088
729.19	55.342
729.37	56.432
729.55	51.210
729.73	51.946
729.91	57.939
730.09	55.334
730.27	56.599
730.45	53.208
730.63	53.604
730.82	50.907
731.00	54.973
731.18	52.109
731.36	55.619
731.54	55.643
731.72	55.830
731.90	52.282
732.08	54.551
732.26	53.467
732.45	60.367
732.63	58.910
732.81	59.727
732.99	54.279
733.17	55.131
733.35	57.746
733.53	56.895
733.71	55.016
733.89	60.400
734.07	56.807
734.25	57.241
734.44	54.521
734.62	61.122
734.80	57.191
734.98	60.998
735.16	60.888
735.34	62.402
735.52	57.697
735.70	58.460
735.88	62.925
736.06	66.171
736.24	63.397
736.42	61.189
736.60	63.323
736.78	71.236
736.97	58.466
737.15	66.529
737.33	65.185
737.51	61.607
737.69	67.842
737.87	61.133
738.05	68.318
738.23	66.033
738.41	61.587
738.59	64.380
738.77	64.478
738.95	67.047
739.13	70.513
739.31	66.535
739.49	61.164
739.67	64.895
739.85	63.401
740.03	66.276
740.21	64.003
740.39	63.397
740.57	67.797
740.75	64.144
740.93	65.303
741.11	69.352
741.30	65.911
741.48	61.161
741.66	64.130
741.84	67.857
742.02	68.462
742.20	70.337
742.38	63.681
742.56	66.053
742.74	71.867
742.92	70.237
743.10	69.028
743.28	74.300
743.46	70.412
743.64	68.831
743.82	70.772
744.00	70.701
744.18	68.522
744.36	70.489
744.54	70.059
744.72	74.977
744.90	73.384
745.08	69.691
745.26	74.244
745.44	72.410
745.62	71.702
745.80	75.542
745.98	72.598
746.16	70.286
746.34	73.057
746.52	77.152
746.70	71.443
746.87	68.615
747.05	72.340
747.23	70.961
747.41	70.851
747.59	74.542
747.77	72.892
747.95	77.034
748.13	73.216
748.31	70.229
748.49	70.884
748.67	76.476
748.85	79.485
749.03	70.300
749.21	72.309
749.39	73.019
749.57	72.027
749.75	73.607
749.93	69.880
750.11	71.916
750.29	70.885
750.47	73.821
750.65	68.683
750.83	82.390
751.01	69.447
751.18	73.690
751.36	69.547
751.54	72.690
751.72	70.430
751.90	68.314
752.08	70.407
752.26	74.578
752.44	74.839
752.62	75.446
752.80	74.538
752.98	75.540
753.16	74.200
753.34	69.149
753.52	74.031
753.69	67.844
753.87	71.675
754.05	80.632
754.23	70.842
754.41	73.235
754.59	72.808
754.77	74.875
754.95	71.691
755.13	78.706
755.31	80.162
755.49	77.586
755.66	71.198
755.84	75.388
756.02	76.465
756.20	73.396
756.38	74.739
756.56	72.066
756.74	74.801
756.92	75.051
757.10	75.385
757.28	75.176
757.45	74.180
757.63	80.659
757.81	71.992
757.99	71.963
758.17	79.318
758.35	73.275
758.53	73.900
758.71	74.723
758.88	69.962
759.06	72.424
759.24	64.447
759.42	62.941
759.60	60.539
759.78	61.723
759.96	54.020
760.13	59.007
760.31	53.846
760.49	53.067
760.67	50.847
760.85	52.008
761.03	44.165
761.21	47.768
761.38	44.530
761.56	46.549
761.74	41.794
761.92	54.757
762.10	44.641
762.28	48.624
762.46	43.333
762.63	50.778
762.81	48.159
762.99	52.876
763.17	46.403
763.35	48.735
763.53	44.113
763.70	45.351
763.88	45.336
764.06	46.619
764.24	45.337
764.42	47.813
764.60	46.679
764.77	47.130
764.95	45.994
765.13	50.631
765.31	49.213
765.49	50.384
765.66	55.510
765.84	52.654
766.02	52.858
766.20	57.079
766.38	56.303
766.56	62.075
766.73	60.708
766.91	60.453
767.09	63.530
767.27	60.691
767.45	63.785
767.62	71.863
767.80	64.976
767.98	66.931
768.16	73.936
768.33	77.789
768.51	64.105
768.69	74.456
768.87	76.327
769.05	76.402
769.22	69.791
769.40	79.864
769.58	73.665
769.76	76.068
769.94	78.293
770.11	72.814
770.29	78.358
770.47	82.411
770.65	79.782
770.82	72.293
771.00	80.233
771.18	77.561
771.36	75.781
771.53	73.614
771.71	79.474
771.89	81.224
772.07	82.514
772.25	81.492
772.42	80.446
772.60	90.896
772.78	83.309
772.96	82.120
773.13	87.363
773.31	81.586
773.49	84.906
773.67	88.208
773.84	86.744
774.02	82.519
774.20	86.131
774.37	77.469
774.55	69.640
774.73	82.087
774.91	87.102
775.08	79.884
775.26	86.988
775.44	85.056
775.62	79.285
775.79	80.631
775.97	83.692
776.15	78.551
776.32	84.284
776.50	86.822
776.68	84.226
776.86	83.230
777.03	89.873
777.21	83.359
777.39	87.373
777.56	81.377
777.74	77.259
777.92	80.529
778.10	79.100
778.27	88.837
778.45	74.429
778.63	90.363
778.80	85.510
778.98	78.745
779.16	88.107
779.34	71.698
779.51	80.675
779.69	96.192
779.87	80.952
780.04	84.648
780.22	71.471
780.40	76.487
780.57	73.525
780.75	81.285
780.93	81.319
781.10	91.916
781.28	86.326
781.46	85.765
781.63	85.455
781.81	83.742
781.99	79.934
782.16	82.947
782.34	80.471
782.52	88.567
782.69	77.695
782.87	82.432
783.05	79.188
783.22	86.071
783.40	83.438
783.58	82.322
783.75	82.474
783.93	89.396
784.11	85.589
784.28	82.872
784.46	87.654
784.64	86.607
784.81	82.437
784.99	87.762
785.17	91.650
785.34	88.612
785.52	82.476
785.69	80.144
785.87	82.123
786.05	82.679
786.22	83.774
786.40	87.226
786.58	88.087
786.75	80.222
786.93	86.796
787.11	85.664
787.28	88.660
787.46	88.809
787.63	84.706
787.81	83.060
787.99	71.705
788.16	82.131
788.34	71.543
788.51	78.495
788.69	64.677
788.87	70.958
789.04	77.845
789.22	71.843
789.39	80.066
789.57	72.823
789.75	65.620
789.92	70.796
790.10	68.580
790.27	75.571
790.45	75.197
790.63	72.727
790.80	70.227
790.98	81.162
791.15	69.099
791.33	72.104
791.51	82.534
791.68	79.533
791.86	78.783
792.03	73.254
792.21	79.044
792.39	75.177
792.56	79.756
792.74	81.474
792.91	70.741
793.09	81.195
793.26	91.614
793.44	71.347
793.62	79.921
793.79	75.746
793.97	84.990
794.14	76.402
794.32	85.341
794.49	79.041
794.67	71.138
794.84	77.568
795.02	79.017
795.20	72.212
795.37	75.800
795.55	79.024
795.72	72.388
795.90	82.456
796.07	86.706
796.25	69.620
796.42	71.678
796.60	73.456
796.77	72.064
796.95	81.013
797.13	70.435
797.30	83.154
797.48	64.415
797.65	75.762
797.83	66.785
798.00	74.067
798.18	74.816
798.35	78.793
798.53	77.087
798.70	69.204
798.88	95.635
799.05	74.688
799.23	70.674
799.40	68.683
799.58	75.130
799.75	73.997
799.93	84.512
800.10	81.579
800.28	69.565
800.45	78.672
800.63	65.779
800.80	76.799
800.98	76.938
801.15	75.271
801.33	74.419
801.50	68.459
801.68	70.870
801.85	74.131
802.03	72.144
802.20	69.293
802.38	70.037
802.55	79.046
802.73	76.879
802.90	71.111
803.08	82.574
803.25	84.569
803.43	80.328
803.60	93.157
803.78	71.120
803.95	81.385
804.13	67.939
804.30	75.839
804.48	77.511
804.65	84.494
804.83	67.002
805.00	78.587
805.17	82.090
805.35	64.273
805.52	76.578
805.70	84.855
805.87	67.748
806.05	74.498
806.22	79.375
806.40	69.376
806.57	81.008
806.75	82.377
806.92	75.926
807.09	79.368
807.27	81.633
807.44	68.566
807.62	68.251
807.79	71.589
807.97	68.200
808.14	66.528
808.31	65.570
808.49	86.998
808.66	75.062
808.84	70.020
809.01	71.954
809.19	82.864
809.36	77.035
809.53	70.938
809.71	76.068
809.88	79.592
810.06	67.177
810.23	74.833
810.41	75.891
810.58	83.252
810.75	81.053
810.93	77.626
811.10	65.284
811.28	79.101
811.45	82.957
811.62	73.146
811.80	66.583
811.97	75.879
812.15	72.210
812.32	84.031
812.49	66.339
812.67	77.566
812.84	73.558
813.02	80.952
813.19	73.366
813.36	69.613
813.54	61.209
813.71	65.206
813.89	68.394
814.06	77.694
814.23	77.647
814.41	61.364
814.58	85.675
814.75	67.847
814.93	71.287
815.10	70.557
815.28	58.706
815.45	69.321
815.62	75.862
815.80	59.942
815.97	50.000
816.14	65.252
816.32	70.026
816.49	56.464
816.66	56.800
816.84	49.431
817.01	61.123
817.18	79.896
817.36	51.414
817.53	65.777
817.71	65.810
817.88	48.843
818.05	58.691
818.23	63.504
818.40	60.533
818.57	56.948
818.75	55.368
818.92	59.148
819.09	61.209
819.27	64.000
819.44	53.207
819.61	47.113
819.79	56.376
819.96	56.164
820.13	57.028
820.31	56.042
820.48	67.210
820.65	52.110
820.82	51.977
821.00	51.973
821.17	47.173
821.34	50.383
821.52	52.727
821.69	46.667
821.86	47.630
822.04	45.849
822.21	42.003
822.38	44.614
822.56	37.429
822.73	40.771
822.90	40.534
823.07	39.227
823.25	40.122
823.42	39.832
823.59	40.574
823.77	40.234
823.94	40.015
824.11	41.204
824.29	39.163
824.46	41.157
824.63	40.662
824.80	44.713
824.98	41.365
825.15	44.381
825.32	42.430
825.49	42.704
825.67	48.106
825.84	44.305
826.01	46.167
826.19	48.917
826.36	46.852
826.53	46.917
826.70	43.349
826.88	46.730
827.05	42.683
827.22	43.013
827.39	42.049
827.57	40.461
827.74	39.901
827.91	46.341
828.08	43.292
828.26	46.704
828.43	41.105
828.60	47.675
828.77	43.089
828.95	42.097
829.12	41.783
829.29	45.164
829.46	40.952
829.64	39.278
829.81	38.252
829.98	50.995
830.15	47.572
830.32	46.850
830.50	37.791
830.67	45.033
830.84	57.246
831.01	46.195
831.19	46.481
831.36	49.602
831.53	57.175
831.70	57.241
831.87	45.339
832.05	61.916
832.22	60.222
832.39	61.702
832.56	56.728
832.74	51.152
832.91	49.875
833.08	61.538
833.25	48.030
833.42	58.455
833.60	44.909
833.77	43.229
833.94	45.367
834.11	42.225
834.28	40.223
834.45	42.092
834.63	39.708
834.80	46.014
834.97	46.284
835.14	43.048
835.31	39.704
835.49	43.626
835.66	47.500
835.83	41.357
836.00	40.503
836.17	48.153
836.34	44.363
836.52	49.693
836.69	47.881
836.86	54.856
837.03	52.919
837.20	53.333
837.37	50.984
837.55	55.417
837.72	49.658
837.89	61.869
838.06	74.571
838.23	63.480
838.40	63.253
838.58	61.960
838.75	60.066
838.92	69.040
839.09	63.574
839.26	81.188
839.43	85.324
839.60	61.862
839.78	70.779
839.95	72.207
840.12	77.133
840.29	75.593
840.46	73.620
840.63	74.608
840.80	74.110
840.98	76.923
841.15	71.250
841.32	68.182
841.49	66.013
841.66	71.899
841.83	69.255
842.00	74.751
842.17	64.489
842.34	61.824
842.52	81.333
842.69	61.695
842.86	70.930
843.03	91.882
843.20	77.011
843.37	88.192
843.54	62.547
843.71	68.304
843.88	98.222
844.06	101.200
844.23	89.524
844.40	92.000
844.57	90.608
844.74	100.610
844.91	83.575
845.08	136.932
845.25	80.193
845.42	105.376
845.59	96.316
845.76	111.795
845.94	106.436
846.11	121.233
846.28	107.738
846.45	113.483
846.62	130.519
846.79	141.096
846.96	90.123
847.13	123.837
847.30	86.897
847.47	98.561
847.64	159.690
847.81	138.983
847.98	96.482
848.15	137.226
848.32	112.579
848.50	125.150
848.67	99.425
848.84	111.644
849.01	77.654
849.18	97.423
849.35	129.688
849.52	87.069
849.69	94.702
849.86	106.803
850.03	111.940
850.20	105.263
850.37	129.412
850.54	101.676
850.71	100.662
850.88	92.179
851.05	141.525
851.22	114.045
851.39	164.865
851.56	133.929
851.73	100.000
851.90	101.863
852.07	130.827
852.24	106.579
852.41	114.286
852.58	135.915
852.75	160.920
852.92	94.634
853.09	133.594
853.26	71.429
853.43	136.792
853.60	89.888
853.77	170.886
853.94	129.927
854.11	109.091
854.28	115.200
854.45	63.281
854.62	107.107
854.79	119.608
854.96	125.600
855.13	97.076
855.30	160.204
855.47	155.172
855.64	124.060
855.81	97.312
855.98	116.667
856.15	132.432
856.32	82.390
856.49	117.054
856.66	102.098
856.83	131.818
857.00	88.889
857.17	130.769
857.34	103.158
857.51	128.058
857.68	89.730
857.85	118.182
858.02	72.593
858.19	118.018
858.36	111.818
858.53	103.226
858.70	97.605
858.87	93.038
859.04	124.194
859.21	72.973
859.38	130.702
859.55	170.149
859.72	129.885
859.89	105.755
860.05	142.342
860.22	109.424
860.39	112.500
860.56	113.740
860.73	150.407
860.90	97.248
861.07	93.421
861.24	100.658
861.41	138.889
861.58	170.833
861.75	89.630
861.92	110.526
862.09	106.667
862.26	128.205
862.43	150.495
862.59	100.000
862.76	104.895
862.93	139.326
863.10	142.857
863.27	101.709
863.44	144.828
863.61	75.182
863.78	115.429
863.95	152.941
864.12	125.287
864.29	104.274
864.45	112.069
864.62	84.181
864.79	87.597
864.96	101.626
865.13	100.901
865.30	122.981
865.47	110.366
865.64	85.612
865.81	88.550
865.97	104.000
866.14	102.721
866.31	116.667
866.48	131.788
866.65	85.897
866.82	103.165
866.99	129.915
867.16	96.992
867.33	165.591
867.49	119.753
867.66	127.835
867.83	109.449
868.00	112.329
868.17	124.793
868.34	135.965
868.51	128.571
868.67	112.025
868.84	89.167
869.01	107.200
869.18	100.709
869.35	100.000
869.52	112.698
869.69	113.014
869.85	104.673
870.02	110.577
870.19	157.627
870.36	168.966
870.53	80.714
870.70	91.824
870.86	108.000
871.03	81.481
871.20	118.349
871.37	115.517
871.54	89.865
871.71	106.429
871.87	63.522
872.04	74.857
872.21	121.739
872.38	97.561
872.55	106.173
872.72	137.500
872.88	111.732
873.05	133.333
873.22	102.041
873.39	143.878
873.56	94.083
873.72	97.647
873.89	80.745
874.06	95.522
874.23	161.017
874.40	116.000
874.56	177.895
874.73	121.951
874.90	111.017
875.07	85.000
875.24	85.714
875.40	125.210
875.57	103.670
875.74	102.400
875.91	94.495
876.08	103.478
876.24	102.326
876.41	152.800
876.58	85.106
876.75	117.730
876.92	117.647
877.08	131.618
877.25	119.130
877.42	125.781
877.59	127.551
877.75	90.000
877.92	54.762
878.09	87.500
878.26	83.234
878.42	81.875
878.59	129.565
878.76	109.211
878.93	117.164
879.09	105.051
879.26	79.878
879.43	91.892
879.60	62.238
879.76	72.159
879.93	77.222
880.10	66.000
880.27	52.795
880.43	74.860
880.60	57.078
880.77	67.045
880.94	63.682
881.10	49.853
881.27	57.377
881.44	34.844
881.61	44.843
881.77	42.639
881.94	32.742
882.11	29.401
882.28	29.450
882.44	25.482
882.61	32.489
882.78	30.201
882.94	31.925
883.11	36.880
883.28	32.082
883.45	33.851
883.61	28.344
883.78	29.564
883.95	28.052
884.11	29.502
884.28	26.546
>>>>>End Processed Spectral Data<<<<<
