SpectraSuite Data File
++++++++++++++++++++++++++++++++++++
Date: Sat Sep 21 04:10:43 EST 2019
User: sgrac
Dark Spectrum Present: Yes
Reference Spectrum Present: Yes
Number of Sampled Component Spectra: 1
Spectrometers: USB4E01596
Integration Time (usec): 100000 (USB4E01596)
Spectra Averaged: 1 (USB4E01596)
Boxcar Smoothing: 0 (USB4E01596)
Correct for Electrical Dark: No (USB4E01596)
Strobe/Lamp Enabled: Yes (USB4E01596)
Correct for Detector Non-linearity: No (USB4E01596)
Correct for Stray Light: No (USB4E01596)
Number of Pixels in Processed Spectrum: 3648
>>>>>Begin Processed Spectral Data<<<<<
178.44	-314.286
178.66	-314.286
178.87	-314.286
179.09	-642.857
179.30	-707.692
179.52	0.000
179.74	-2550.000
179.95	966.667
180.17	533.333
180.38	8700.000
180.60	0.000
180.82	583.333
181.03	-389.474
181.25	300.000
181.46	-245.161
181.68	312.500
181.89	9100.000
182.11	234.286
182.33	-168.889
182.54	-275.000
182.76	-3650.000
182.97	680.000
183.19	2350.000
183.40	217.241
183.62	-181.481
183.84	-133.333
184.05	508.696
184.27	458.333
184.48	1257.143
184.70	220.000
184.91	-540.000
185.13	317.778
185.34	-260.714
185.56	141.667
185.78	0.000
185.99	573.333
186.21	310.345
186.42	420.000
186.64	177.419
186.85	266.667
187.07	183.636
187.28	446.667
187.50	-333.333
187.72	1120.000
187.93	-11500.000
188.15	166.000
188.36	-552.941
188.58	-4250.000
188.79	400.000
189.01	211.111
189.22	1400.000
189.44	3400.000
189.65	253.333
189.87	425.000
190.09	-2000.000
190.30	693.750
190.52	-5250.000
190.73	217.857
190.95	314.286
191.16	260.000
191.38	220.000
191.59	259.524
191.81	194.444
192.02	263.830
192.24	470.588
192.45	-2260.000
192.67	454.286
192.88	570.833
193.10	252.000
193.31	490.000
193.53	-9300.000
193.74	135.366
193.96	433.333
194.18	296.774
194.39	-444.444
194.61	636.842
194.82	404.762
195.04	238.095
195.25	4300.000
195.47	170.732
195.68	212.766
195.90	1260.000
196.11	189.091
196.33	121.277
196.54	-3000.000
196.76	450.000
196.97	-2000.000
197.19	417.857
197.40	264.706
197.62	156.250
197.83	163.514
198.05	-384.211
198.26	297.143
198.48	236.111
198.69	262.791
198.91	239.216
199.12	-194.286
199.34	-1620.000
199.55	5100.000
199.77	2275.000
199.98	208.000
200.20	88.732
200.41	664.286
200.63	-477.778
200.84	172.549
201.06	707.692
201.27	300.000
201.49	1350.000
201.70	381.481
201.91	243.478
202.13	172.464
202.34	207.547
202.56	-1028.571
202.77	977.778
202.99	435.714
203.20	3550.000
203.42	862.500
203.63	253.488
203.85	260.000
204.06	259.259
204.28	-1040.000
204.49	225.714
204.71	205.128
204.92	0.000
205.14	-500.000
205.35	427.778
205.56	-1580.000
205.78	695.238
205.99	1050.000
206.21	-109.677
206.42	238.710
206.64	307.143
206.85	1425.000
207.07	-638.462
207.28	514.286
207.50	-394.737
207.71	251.282
207.93	193.182
208.14	464.706
208.35	426.316
208.57	-11100.000
208.78	576.923
209.00	472.222
209.21	-4800.000
209.43	255.172
209.64	276.471
209.86	514.286
210.07	0.000
210.28	-470.588
210.50	189.796
210.71	245.614
210.93	304.762
211.14	-188.889
211.36	-219.355
211.57	-242.857
211.78	-195.652
212.00	0.000
212.21	288.372
212.43	-313.636
212.64	187.931
212.86	-850.000
213.07	-254.545
213.29	286.842
213.50	8600.000
213.71	266.038
213.93	1271.429
214.14	125.758
214.36	4500.000
214.57	380.769
214.78	412.500
215.00	4000.000
215.21	211.111
215.43	396.000
215.64	297.436
215.86	354.286
216.07	3500.000
216.28	224.000
216.50	-1228.571
216.71	-1740.000
216.93	217.021
217.14	281.250
217.35	340.741
217.57	175.000
217.78	687.500
218.00	-600.000
218.21	457.895
218.42	-1966.667
218.64	458.824
218.85	-822.222
219.07	321.429
219.28	1800.000
219.49	135.526
219.71	2333.333
219.92	294.444
220.14	400.000
220.35	395.000
220.56	161.538
220.78	288.235
220.99	-7600.000
221.21	395.238
221.42	441.667
221.63	302.500
221.85	187.097
222.06	207.143
222.28	238.636
222.49	-3650.000
222.70	0.000
222.92	450.000
223.13	220.000
223.34	-1675.000
223.56	192.105
223.77	77.528
223.99	289.744
224.20	159.524
224.41	313.514
224.63	394.444
224.84	167.241
225.05	210.714
225.27	122.857
225.48	132.609
225.69	542.857
225.91	259.259
226.12	261.111
226.34	117.647
226.55	150.000
226.76	191.935
226.98	126.000
227.19	165.909
227.40	92.562
227.62	85.366
227.83	123.000
228.04	90.110
228.26	57.426
228.47	106.897
228.69	48.684
228.90	66.197
229.11	68.148
229.33	39.130
229.54	46.711
229.75	27.826
229.97	46.781
230.18	33.692
230.39	23.207
230.61	27.673
230.82	32.780
231.03	11.203
231.25	31.313
231.46	24.818
231.67	40.711
231.89	54.902
232.10	29.555
232.31	43.750
232.53	27.684
232.74	25.521
232.95	68.072
233.17	42.197
233.38	36.567
233.59	72.059
233.81	49.515
234.02	69.737
234.23	56.150
234.45	64.474
234.66	57.627
234.87	47.651
235.09	55.556
235.30	48.851
235.51	49.515
235.73	43.396
235.94	52.332
236.15	25.510
236.36	59.259
236.58	48.815
236.79	50.785
237.00	31.401
237.22	50.000
237.43	42.157
237.64	40.611
237.86	36.957
238.07	69.347
238.28	49.180
238.50	50.435
238.71	14.201
238.92	31.548
239.13	51.429
239.35	36.364
239.56	56.771
239.77	62.439
239.99	33.491
240.20	29.474
240.41	29.741
240.63	22.672
240.84	44.622
241.05	20.073
241.26	36.777
241.48	35.103
241.69	30.380
241.90	19.437
242.12	19.643
242.33	21.552
242.54	17.697
242.75	14.042
242.97	24.138
243.18	17.677
243.39	15.774
243.61	15.742
243.82	21.818
244.03	12.950
244.24	10.583
244.46	18.815
244.67	16.317
244.88	17.840
245.09	19.199
245.31	12.668
245.52	22.610
245.73	20.233
245.95	33.475
246.16	17.570
246.37	27.132
246.58	17.944
246.80	20.255
247.01	18.401
247.22	17.273
247.43	12.809
247.65	15.302
247.86	7.527
248.07	11.538
248.28	10.348
248.50	9.911
248.71	8.957
248.92	10.189
249.13	10.256
249.35	11.250
249.56	15.237
249.77	9.156
249.98	9.465
250.20	10.667
250.41	13.073
250.62	10.482
250.83	13.991
251.05	20.706
251.26	13.430
251.47	23.243
251.68	26.143
251.90	17.029
252.11	18.641
252.32	17.032
252.53	19.449
252.75	14.400
252.96	17.788
253.17	14.147
253.38	11.757
253.59	15.254
253.81	16.324
254.02	13.725
254.23	22.206
254.44	22.135
254.66	11.405
254.87	12.635
255.08	15.568
255.29	22.289
255.50	13.333
255.72	26.147
255.93	23.358
256.14	31.364
256.35	26.698
256.57	24.147
256.78	34.932
256.99	20.419
257.20	28.641
257.41	25.052
257.63	14.724
257.84	25.519
258.05	18.333
258.26	12.613
258.47	23.614
258.69	15.385
258.90	14.596
259.11	9.828
259.32	9.892
259.53	12.466
259.75	6.885
259.96	7.984
260.17	10.862
260.38	4.935
260.59	8.667
260.81	8.046
261.02	9.602
261.23	9.535
261.44	9.421
261.65	7.542
261.87	6.061
262.08	7.606
262.29	10.671
262.50	10.402
262.71	7.797
262.92	10.904
263.14	10.987
263.35	12.538
263.56	9.059
263.77	12.399
263.98	13.757
264.20	15.285
264.41	8.978
264.62	18.464
264.83	14.407
265.04	12.134
265.25	10.320
265.47	14.955
265.68	19.388
265.89	10.483
266.10	8.059
266.31	18.777
266.52	15.673
266.74	5.479
266.95	6.545
267.16	14.820
267.37	15.000
267.58	9.167
267.79	12.125
268.01	8.681
268.22	15.369
268.43	12.165
268.64	11.518
268.85	9.605
269.06	7.239
269.27	12.460
269.49	10.915
269.70	13.692
269.91	12.380
270.12	10.121
270.33	16.649
270.54	11.260
270.75	9.474
270.97	13.992
271.18	9.641
271.39	10.628
271.60	11.145
271.81	13.384
272.02	10.286
272.23	11.634
272.45	11.721
272.66	7.980
272.87	7.167
273.08	8.450
273.29	8.091
273.50	9.406
273.71	10.334
273.92	7.905
274.14	8.215
274.35	3.725
274.56	10.185
274.77	8.162
274.98	10.647
275.19	9.769
275.40	9.544
275.61	8.934
275.83	12.464
276.04	8.897
276.25	16.275
276.46	14.744
276.67	9.856
276.88	9.617
277.09	5.946
277.30	12.474
277.51	11.626
277.73	8.900
277.94	10.168
278.15	7.900
278.36	14.286
278.57	11.475
278.78	14.200
278.99	12.683
279.20	8.244
279.41	17.886
279.62	11.325
279.84	9.235
280.05	10.571
280.26	9.938
280.47	12.702
280.68	6.987
280.89	13.942
281.10	10.880
281.31	9.316
281.52	13.153
281.73	12.202
281.94	6.545
282.16	11.031
282.37	11.516
282.58	11.093
282.79	13.770
283.00	13.784
283.21	7.016
283.42	8.089
283.63	7.393
283.84	8.044
284.05	8.273
284.26	8.936
284.47	10.234
284.68	8.119
284.89	5.525
285.11	8.909
285.32	7.008
285.53	7.982
285.74	14.107
285.95	9.589
286.16	8.598
286.37	7.161
286.58	8.548
286.79	10.204
287.00	8.516
287.21	7.533
287.42	7.278
287.63	8.314
287.84	7.987
288.05	7.382
288.26	9.223
288.48	12.150
288.69	10.484
288.90	5.401
289.11	10.291
289.32	8.849
289.53	8.138
289.74	5.857
289.95	10.406
290.16	12.536
290.37	4.504
290.58	8.520
290.79	8.154
291.00	8.285
291.21	5.405
291.42	6.812
291.63	6.376
291.84	10.852
292.05	8.090
292.26	6.983
292.47	5.803
292.68	5.753
292.89	11.631
293.10	9.343
293.31	11.905
293.52	7.413
293.73	6.265
293.94	10.302
294.15	2.299
294.36	3.813
294.57	11.111
294.79	9.310
295.00	6.174
295.21	7.759
295.42	10.578
295.63	9.636
295.84	7.384
296.05	6.154
296.26	7.568
296.47	7.647
296.68	8.855
296.89	4.319
297.10	6.761
297.31	8.733
297.52	8.937
297.73	6.649
297.94	8.115
298.15	4.369
298.36	6.107
298.57	6.490
298.78	8.815
298.99	2.189
299.20	6.301
299.41	7.469
299.62	7.030
299.83	5.735
300.04	7.878
300.25	8.788
300.46	7.734
300.67	8.730
300.88	8.159
301.09	5.385
301.30	8.492
301.50	8.296
301.71	10.622
301.92	9.759
302.13	5.950
302.34	7.979
302.55	5.609
302.76	8.253
302.97	11.111
303.18	6.695
303.39	7.243
303.60	6.755
303.81	9.469
304.02	7.066
304.23	7.757
304.44	6.384
304.65	8.302
304.86	9.159
305.07	5.904
305.28	11.097
305.49	7.915
305.70	6.565
305.91	7.430
306.12	7.770
306.33	6.228
306.54	7.924
306.75	10.415
306.96	11.446
307.17	7.974
307.38	8.092
307.58	8.199
307.79	7.669
308.00	10.633
308.21	11.651
308.42	7.313
308.63	10.538
308.84	8.778
309.05	5.944
309.26	5.603
309.47	6.420
309.68	5.352
309.89	9.462
310.10	7.731
310.31	6.417
310.52	5.512
310.73	10.454
310.94	6.044
311.14	4.627
311.35	6.225
311.56	5.154
311.77	5.869
311.98	5.306
312.19	7.772
312.40	5.822
312.61	4.378
312.82	6.559
313.03	4.827
313.24	6.392
313.45	8.715
313.66	5.407
313.86	9.940
314.07	6.046
314.28	7.712
314.49	6.957
314.70	6.186
314.91	9.756
315.12	7.430
315.33	5.092
315.54	5.563
315.75	7.847
315.96	7.932
316.16	5.586
316.37	5.753
316.58	6.016
316.79	8.941
317.00	10.414
317.21	3.899
317.42	5.432
317.63	10.192
317.84	8.273
318.05	8.824
318.25	7.539
318.46	8.462
318.67	7.080
318.88	10.028
319.09	6.397
319.30	7.025
319.51	4.454
319.72	10.540
319.93	7.343
320.13	5.941
320.34	6.738
320.55	8.062
320.76	9.361
320.97	9.578
321.18	10.844
321.39	8.272
321.60	10.846
321.80	12.758
322.01	9.300
322.22	6.776
322.43	6.951
322.64	6.809
322.85	6.830
323.06	7.250
323.27	8.680
323.47	10.329
323.68	10.029
323.89	3.521
324.10	7.729
324.31	4.993
324.52	7.552
324.73	5.130
324.93	9.487
325.14	6.919
325.35	7.885
325.56	7.283
325.77	5.832
325.98	7.637
326.19	9.294
326.39	6.854
326.60	6.604
326.81	8.380
327.02	6.569
327.23	5.505
327.44	9.080
327.64	5.918
327.85	6.107
328.06	7.811
328.27	11.039
328.48	7.900
328.69	6.454
328.90	7.594
329.10	8.494
329.31	5.355
329.52	6.335
329.73	11.442
329.94	6.302
330.15	6.342
330.35	10.941
330.56	7.785
330.77	6.063
330.98	9.402
331.19	8.384
331.39	7.913
331.60	7.767
331.81	9.079
332.02	11.446
332.23	8.203
332.44	5.805
332.64	8.327
332.85	6.680
333.06	10.603
333.27	4.118
333.48	6.218
333.68	7.346
333.89	4.884
334.10	3.738
334.31	8.033
334.52	9.788
334.72	5.939
334.93	4.802
335.14	7.278
335.35	3.957
335.56	4.966
335.76	7.309
335.97	9.268
336.18	7.911
336.39	6.993
336.60	9.524
336.80	6.634
337.01	8.173
337.22	5.083
337.43	9.107
337.64	6.905
337.84	7.021
338.05	6.232
338.26	7.204
338.47	7.427
338.68	6.651
338.88	6.369
339.09	8.563
339.30	5.103
339.51	7.420
339.71	8.063
339.92	5.882
340.13	9.174
340.34	6.535
340.55	6.153
340.75	7.817
340.96	7.251
341.17	7.252
341.38	5.324
341.58	4.950
341.79	5.136
342.00	5.624
342.21	5.793
342.41	7.319
342.62	7.127
342.83	7.254
343.04	4.735
343.24	5.696
343.45	6.379
343.66	4.765
343.87	8.056
344.07	6.375
344.28	5.346
344.49	8.670
344.70	7.340
344.90	6.206
345.11	5.624
345.32	5.500
345.53	5.807
345.73	5.171
345.94	5.697
346.15	7.554
346.36	4.205
346.56	6.070
346.77	6.673
346.98	5.676
347.19	7.742
347.39	7.194
347.60	6.180
347.81	7.677
348.02	6.330
348.22	4.782
348.43	5.886
348.64	5.805
348.84	6.078
349.05	6.787
349.26	9.667
349.47	5.417
349.67	6.457
349.88	8.069
350.09	6.482
350.30	8.959
350.50	5.866
350.71	6.991
350.92	10.347
351.12	7.206
351.33	6.023
351.54	7.470
351.74	7.947
351.95	6.625
352.16	4.641
352.37	8.235
352.57	5.949
352.78	7.090
352.99	8.333
353.19	6.427
353.40	6.553
353.61	11.372
353.82	6.719
354.02	9.158
354.23	6.649
354.44	8.554
354.64	9.155
354.85	7.125
355.06	8.556
355.26	3.719
355.47	6.119
355.68	8.483
355.88	10.169
356.09	6.504
356.30	4.879
356.51	6.290
356.71	8.245
356.92	5.197
357.13	4.180
357.33	9.103
357.54	5.172
357.75	5.469
357.95	5.665
358.16	5.964
358.37	8.881
358.57	6.735
358.78	9.666
358.99	6.507
359.19	6.691
359.40	8.257
359.61	6.954
359.81	8.017
360.02	7.705
360.23	6.557
360.43	7.533
360.64	6.479
360.85	6.509
361.05	6.921
361.26	10.106
361.47	6.275
361.67	7.194
361.88	3.290
362.09	7.773
362.29	5.093
362.50	5.115
362.70	4.750
362.91	7.274
363.12	4.259
363.32	5.057
363.53	6.389
363.74	8.042
363.94	4.490
364.15	8.377
364.36	7.889
364.56	5.316
364.77	6.801
364.98	8.110
365.18	7.172
365.39	7.097
365.59	6.849
365.80	6.216
366.01	7.156
366.21	5.931
366.42	4.547
366.63	7.383
366.83	7.813
367.04	3.652
367.24	8.166
367.45	4.104
367.66	5.127
367.86	5.821
368.07	5.763
368.28	4.892
368.48	6.345
368.69	4.383
368.89	6.203
369.10	4.985
369.31	5.704
369.51	6.147
369.72	7.627
369.92	8.923
370.13	5.231
370.34	7.654
370.54	4.491
370.75	9.304
370.95	3.621
371.16	7.887
371.37	5.446
371.57	4.977
371.78	7.061
371.98	7.091
372.19	6.921
372.40	7.125
372.60	8.209
372.81	6.785
373.01	4.737
373.22	5.954
373.43	5.996
373.63	7.232
373.84	6.979
374.04	5.648
374.25	4.263
374.46	5.660
374.66	5.396
374.87	6.271
375.07	4.116
375.28	6.482
375.48	5.321
375.69	7.481
375.90	5.536
376.10	5.381
376.31	6.426
376.51	5.491
376.72	4.520
376.92	3.182
377.13	6.552
377.34	7.216
377.54	5.720
377.75	6.752
377.95	5.055
378.16	6.592
378.36	5.910
378.57	5.621
378.77	5.923
378.98	4.768
379.19	6.132
379.39	4.033
379.60	5.193
379.80	5.830
380.01	6.603
380.21	4.908
380.42	7.101
380.62	4.363
380.83	7.518
381.04	5.886
381.24	6.904
381.45	4.885
381.65	4.495
381.86	7.183
382.06	6.786
382.27	3.065
382.47	4.386
382.68	8.074
382.88	3.491
383.09	4.544
383.29	5.543
383.50	7.076
383.71	5.583
383.91	6.626
384.12	4.253
384.32	5.852
384.53	5.824
384.73	4.070
384.94	4.484
385.14	4.722
385.35	4.292
385.55	4.713
385.76	4.200
385.96	6.438
386.17	6.227
386.37	5.610
386.58	6.132
386.78	6.146
386.99	3.824
387.19	6.419
387.40	3.769
387.60	7.788
387.81	5.084
388.01	5.480
388.22	7.075
388.42	8.537
388.63	7.255
388.83	7.315
389.04	5.334
389.24	6.745
389.45	5.167
389.65	6.296
389.86	6.285
390.06	4.811
390.27	6.300
390.47	5.584
390.68	5.093
390.88	9.186
391.09	7.013
391.29	6.098
391.50	5.478
391.70	6.106
391.91	6.900
392.11	6.194
392.32	5.506
392.52	6.825
392.73	5.462
392.93	6.329
393.14	4.695
393.34	6.408
393.55	6.869
393.75	5.283
393.95	5.905
394.16	7.080
394.36	8.904
394.57	7.427
394.77	6.485
394.98	5.643
395.18	6.413
395.39	6.370
395.59	5.644
395.80	5.895
396.00	7.106
396.21	7.313
396.41	5.738
396.61	7.356
396.82	6.976
397.02	9.718
397.23	7.915
397.43	6.667
397.64	4.784
397.84	8.242
398.05	4.904
398.25	7.572
398.45	5.952
398.66	9.441
398.86	7.462
399.07	8.962
399.27	7.432
399.48	7.703
399.68	5.054
399.89	7.048
400.09	8.196
400.29	5.260
400.50	6.943
400.70	7.203
400.91	6.577
401.11	6.076
401.32	6.946
401.52	4.563
401.72	6.531
401.93	9.739
402.13	7.211
402.34	6.094
402.54	6.651
402.75	8.712
402.95	5.386
403.15	9.848
403.36	5.401
403.56	7.705
403.77	5.051
403.97	8.100
404.17	4.880
404.38	7.155
404.58	6.222
404.79	7.824
404.99	5.424
405.19	6.677
405.40	5.583
405.60	7.243
405.81	8.034
406.01	6.126
406.21	6.477
406.42	6.652
406.62	6.644
406.83	7.044
407.03	7.908
407.23	5.471
407.44	5.380
407.64	9.162
407.85	8.081
408.05	7.787
408.25	5.141
408.46	8.857
408.66	7.477
408.87	6.342
409.07	5.891
409.27	6.797
409.48	6.815
409.68	7.790
409.88	5.598
410.09	7.037
410.29	6.607
410.50	8.765
410.70	3.773
410.90	6.677
411.11	5.810
411.31	6.740
411.51	7.438
411.72	8.860
411.92	5.426
412.12	6.476
412.33	5.225
412.53	6.290
412.74	5.236
412.94	5.159
413.14	6.002
413.35	6.848
413.55	6.683
413.75	7.943
413.96	5.478
414.16	7.006
414.36	7.041
414.57	6.882
414.77	7.148
414.97	6.903
415.18	6.725
415.38	7.665
415.58	6.428
415.79	5.771
415.99	6.088
416.19	6.538
416.40	6.599
416.60	6.335
416.80	6.183
417.01	7.625
417.21	5.634
417.41	8.410
417.62	6.974
417.82	6.812
418.02	4.717
418.23	7.414
418.43	7.250
418.63	8.206
418.84	8.323
419.04	7.005
419.24	8.522
419.45	9.737
419.65	9.012
419.85	8.930
420.06	8.232
420.26	8.735
420.46	8.665
420.67	9.591
420.87	9.160
421.07	9.391
421.28	8.043
421.48	10.024
421.68	8.856
421.88	10.260
422.09	9.027
422.29	9.814
422.49	8.128
422.70	9.512
422.90	8.617
423.10	9.292
423.31	8.365
423.51	9.635
423.71	7.683
423.91	10.453
424.12	9.127
424.32	9.907
424.52	8.599
424.73	10.368
424.93	8.789
425.13	8.936
425.33	8.769
425.54	9.729
425.74	9.119
425.94	10.138
426.15	9.684
426.35	9.022
426.55	9.309
426.75	9.450
426.96	8.783
427.16	9.065
427.36	8.297
427.57	9.800
427.77	7.673
427.97	8.967
428.17	8.265
428.38	9.706
428.58	5.527
428.78	8.089
428.98	6.109
429.19	6.855
429.39	6.192
429.59	8.792
429.79	6.557
430.00	5.302
430.20	4.840
430.40	7.350
430.60	7.595
430.81	7.829
431.01	6.926
431.21	7.969
431.41	6.371
431.62	9.848
431.82	7.358
432.02	9.256
432.22	6.532
432.43	6.394
432.63	5.558
432.83	7.777
433.03	7.641
433.24	7.392
433.44	7.796
433.64	8.477
433.84	7.470
434.05	9.220
434.25	7.727
434.45	9.068
434.65	9.411
434.85	10.248
435.06	9.460
435.26	9.307
435.46	8.684
435.66	9.310
435.87	8.505
436.07	8.786
436.27	8.678
436.47	8.402
436.67	7.948
436.88	9.536
437.08	8.580
437.28	9.550
437.48	8.677
437.69	9.858
437.89	8.574
438.09	10.561
438.29	8.088
438.49	10.416
438.70	9.108
438.90	8.902
439.10	8.526
439.30	10.685
439.50	8.581
439.71	10.408
439.91	9.240
440.11	10.998
440.31	10.113
440.51	10.116
440.72	9.812
440.92	10.657
441.12	11.115
441.32	11.365
441.52	10.970
441.72	11.499
441.93	10.345
442.13	12.564
442.33	10.925
442.53	12.039
442.73	10.937
442.94	11.535
443.14	10.752
443.34	12.036
443.54	11.380
443.74	12.284
443.94	10.342
444.15	10.683
444.35	9.451
444.55	11.827
444.75	10.784
444.95	11.133
445.15	10.256
445.36	11.561
445.56	9.321
445.76	11.298
445.96	10.944
446.16	11.457
446.36	10.668
446.57	12.417
446.77	10.428
446.97	12.114
447.17	12.226
447.37	11.994
447.57	11.926
447.77	12.072
447.98	11.736
448.18	12.607
448.38	11.890
448.58	13.099
448.78	11.992
448.98	11.824
449.18	11.386
449.39	12.404
449.59	11.745
449.79	12.085
449.99	10.508
450.19	12.404
450.39	11.755
450.59	12.208
450.79	10.822
451.00	11.976
451.20	12.633
451.40	11.781
451.60	9.921
451.80	11.926
452.00	10.649
452.20	11.650
452.40	10.990
452.61	11.692
452.81	11.677
453.01	12.777
453.21	10.399
453.41	12.262
453.61	10.832
453.81	11.544
454.01	10.867
454.21	11.960
454.42	12.181
454.62	11.962
454.82	11.146
455.02	11.849
455.22	10.229
455.42	12.187
455.62	9.748
455.82	11.886
456.02	10.361
456.23	11.422
456.43	11.704
456.63	11.208
456.83	9.895
457.03	12.613
457.23	10.913
457.43	11.250
457.63	9.982
457.83	12.190
458.03	10.973
458.23	12.442
458.43	10.942
458.64	12.036
458.84	11.604
459.04	12.158
459.24	11.935
459.44	12.071
459.64	12.244
459.84	12.818
460.04	11.871
460.24	12.808
460.44	12.446
460.64	13.181
460.84	12.436
461.04	13.039
461.24	12.975
461.45	13.660
461.65	13.528
461.85	14.123
462.05	14.026
462.25	13.776
462.45	13.927
462.65	13.676
462.85	12.144
463.05	13.359
463.25	11.426
463.45	13.050
463.65	11.926
463.85	13.120
464.05	11.228
464.25	11.984
464.45	12.696
464.65	12.770
464.85	11.737
465.05	13.385
465.26	11.924
465.46	12.625
465.66	13.443
465.86	13.729
466.06	12.498
466.26	13.679
466.46	10.973
466.66	12.640
466.86	12.783
467.06	12.579
467.26	12.749
467.46	13.857
467.66	12.756
467.86	14.032
468.06	13.090
468.26	13.569
468.46	13.061
468.66	13.170
468.86	11.502
469.06	14.181
469.26	12.050
469.46	13.709
469.66	12.713
469.86	13.982
470.06	12.616
470.26	14.656
470.46	12.838
470.66	14.475
470.86	12.486
471.06	13.795
471.26	12.422
471.46	13.324
471.66	13.172
471.86	13.822
472.06	13.606
472.26	14.518
472.46	14.208
472.66	15.134
472.86	13.596
473.06	14.008
473.26	12.882
473.46	14.150
473.66	13.827
473.86	14.486
474.06	13.461
474.26	13.224
474.46	14.101
474.66	14.470
474.86	14.188
475.06	14.910
475.26	12.835
475.46	15.193
475.66	14.049
475.86	15.069
476.06	13.922
476.26	15.020
476.46	14.282
476.66	13.996
476.86	13.614
477.06	14.571
477.26	13.808
477.46	14.979
477.65	14.063
477.85	15.470
478.05	13.329
478.25	15.742
478.45	14.282
478.65	15.501
478.85	14.436
479.05	15.942
479.25	14.276
479.45	15.266
479.65	14.069
479.85	15.299
480.05	14.528
480.25	15.536
480.45	14.840
480.65	15.761
480.85	14.809
481.05	16.116
481.25	15.750
481.44	15.477
481.64	14.917
481.84	16.245
482.04	15.126
482.24	15.407
482.44	15.157
482.64	15.936
482.84	15.501
483.04	15.359
483.24	15.297
483.44	15.345
483.64	14.762
483.84	15.104
484.04	15.852
484.23	15.835
484.43	15.650
484.63	15.906
484.83	15.585
485.03	16.334
485.23	16.297
485.43	16.698
485.63	16.733
485.83	16.930
486.03	16.478
486.23	16.818
486.42	15.690
486.62	16.354
486.82	16.429
487.02	16.260
487.22	15.835
487.42	16.192
487.62	16.240
487.82	15.901
488.02	15.651
488.22	16.029
488.41	15.925
488.61	16.186
488.81	16.139
489.01	16.388
489.21	16.065
489.41	16.893
489.61	16.152
489.81	16.260
490.01	16.693
490.20	16.655
490.40	16.927
490.60	16.143
490.80	16.071
491.00	16.739
491.20	15.780
491.40	15.852
491.60	15.655
491.79	15.501
491.99	15.614
492.19	15.476
492.39	15.786
492.59	16.113
492.79	15.773
492.99	16.405
493.19	16.006
493.38	16.432
493.58	16.248
493.78	16.998
493.98	16.047
494.18	17.006
494.38	16.845
494.58	16.983
494.77	16.298
494.97	17.409
495.17	16.689
495.37	16.327
495.57	16.581
495.77	16.353
495.96	16.781
496.16	15.854
496.36	15.890
496.56	15.632
496.76	15.565
496.96	16.625
497.15	16.033
497.35	15.624
497.55	16.057
497.75	16.357
497.95	16.149
498.15	17.215
498.34	15.860
498.54	16.563
498.74	16.435
498.94	16.110
499.14	16.064
499.34	17.010
499.53	15.831
499.73	16.070
499.93	16.095
500.13	16.649
500.33	15.555
500.52	16.226
500.72	16.493
500.92	16.564
501.12	15.831
501.32	17.041
501.52	16.003
501.71	16.765
501.91	16.655
502.11	16.711
502.31	16.424
502.51	16.616
502.70	16.019
502.90	16.194
503.10	15.780
503.30	16.252
503.50	16.206
503.69	16.169
503.89	15.941
504.09	16.942
504.29	15.595
504.48	16.874
504.68	16.162
504.88	16.593
505.08	15.621
505.28	16.901
505.47	16.110
505.67	16.457
505.87	16.722
506.07	16.379
506.27	15.406
506.46	17.031
506.66	16.537
506.86	17.231
507.06	16.783
507.25	16.458
507.45	16.856
507.65	17.196
507.85	16.343
508.04	16.667
508.24	16.240
508.44	16.196
508.64	16.424
508.83	16.964
509.03	16.321
509.23	17.044
509.43	16.726
509.63	17.078
509.82	16.570
510.02	16.660
510.22	16.331
510.42	16.397
510.61	16.847
510.81	16.336
511.01	16.878
511.21	17.100
511.40	16.823
511.60	16.711
511.80	17.123
511.99	17.186
512.19	16.547
512.39	16.795
512.59	17.286
512.78	17.162
512.98	17.581
513.18	17.155
513.38	16.518
513.57	17.185
513.77	17.002
513.97	17.007
514.17	17.173
514.36	17.595
514.56	16.577
514.76	17.086
514.95	16.571
515.15	17.684
515.35	17.199
515.55	16.608
515.74	17.409
515.94	17.371
516.14	17.933
516.33	16.988
516.53	17.081
516.73	16.809
516.93	17.974
517.12	17.022
517.32	16.743
517.52	17.519
517.71	16.359
517.91	17.137
518.11	16.579
518.30	17.419
518.50	16.560
518.70	17.135
518.90	16.630
519.09	17.199
519.29	17.349
519.49	17.226
519.68	16.624
519.88	17.262
520.08	17.313
520.27	17.417
520.47	17.183
520.67	17.770
520.86	16.726
521.06	17.605
521.26	17.651
521.45	17.140
521.65	17.454
521.85	17.332
522.04	17.099
522.24	17.253
522.44	16.958
522.63	17.420
522.83	17.018
523.03	17.370
523.22	17.890
523.42	17.510
523.62	17.170
523.81	17.503
524.01	17.448
524.21	17.874
524.40	17.144
524.60	16.951
524.80	16.191
524.99	16.544
525.19	16.558
525.39	17.467
525.58	17.069
525.78	17.248
525.98	16.536
526.17	17.682
526.37	17.575
526.57	17.043
526.76	17.282
526.96	17.127
527.15	17.299
527.35	16.441
527.55	17.279
527.74	17.271
527.94	17.033
528.14	16.920
528.33	16.501
528.53	16.631
528.72	16.656
528.92	16.875
529.12	16.983
529.31	17.190
529.51	17.395
529.71	17.303
529.90	17.266
530.10	17.142
530.29	17.596
530.49	17.971
530.69	18.086
530.88	18.018
531.08	17.482
531.28	17.587
531.47	17.778
531.67	17.285
531.86	17.337
532.06	17.273
532.26	16.996
532.45	17.746
532.65	17.286
532.84	16.585
533.04	16.835
533.24	16.704
533.43	17.204
533.63	17.173
533.82	17.054
534.02	17.130
534.22	17.525
534.41	17.267
534.61	17.420
534.80	16.980
535.00	17.461
535.19	16.925
535.39	18.000
535.59	17.419
535.78	17.267
535.98	16.908
536.17	17.350
536.37	17.429
536.57	17.408
536.76	17.217
536.96	16.710
537.15	17.043
537.35	17.843
537.54	17.627
537.74	17.276
537.93	17.674
538.13	17.048
538.33	17.481
538.52	17.179
538.72	17.349
538.91	17.434
539.11	17.844
539.30	16.929
539.50	17.566
539.70	16.536
539.89	17.907
540.09	16.589
540.28	17.278
540.48	16.426
540.67	16.970
540.87	16.346
541.06	16.442
541.26	15.893
541.45	16.743
541.65	16.556
541.85	16.484
542.04	16.492
542.24	17.064
542.43	17.258
542.63	17.059
542.82	17.134
543.02	17.342
543.21	17.467
543.41	17.367
543.60	17.843
543.80	17.597
543.99	17.253
544.19	17.638
544.38	17.446
544.58	17.507
544.77	17.356
544.97	17.566
545.16	17.339
545.36	17.879
545.56	17.435
545.75	17.322
545.95	16.895
546.14	17.479
546.34	16.808
546.53	17.350
546.73	17.317
546.92	16.864
547.12	17.107
547.31	17.365
547.51	17.249
547.70	17.911
547.90	17.833
548.09	18.098
548.29	17.374
548.48	17.948
548.68	18.014
548.87	18.479
549.07	17.773
549.26	16.843
549.46	17.105
549.65	18.168
549.84	18.535
550.04	18.785
550.23	17.231
550.43	16.964
550.62	17.159
550.82	17.833
551.01	17.137
551.21	17.582
551.40	17.045
551.60	18.276
551.79	17.963
551.99	18.345
552.18	17.940
552.38	17.470
552.57	17.484
552.77	18.042
552.96	18.043
553.16	17.809
553.35	17.801
553.54	17.693
553.74	18.019
553.93	18.926
554.13	17.999
554.32	18.773
554.52	18.184
554.71	18.592
554.91	18.190
555.10	18.321
555.29	17.903
555.49	19.107
555.68	17.801
555.88	19.116
556.07	17.304
556.27	18.823
556.46	18.855
556.66	17.580
556.85	18.759
557.04	18.558
557.24	18.602
557.43	18.449
557.63	18.353
557.82	18.901
558.02	18.651
558.21	18.894
558.40	18.350
558.60	19.050
558.79	19.124
558.99	19.286
559.18	17.717
559.38	19.533
559.57	18.669
559.76	18.057
559.96	19.501
560.15	18.574
560.35	18.522
560.54	19.454
560.73	18.614
560.93	19.249
561.12	19.118
561.32	19.128
561.51	17.087
561.70	19.864
561.90	19.132
562.09	19.921
562.29	19.307
562.48	19.635
562.67	19.620
562.87	19.912
563.06	18.803
563.26	19.771
563.45	19.973
563.64	20.345
563.84	19.278
564.03	19.709
564.23	19.285
564.42	20.164
564.61	18.894
564.81	19.838
565.00	19.539
565.20	19.918
565.39	19.311
565.58	20.037
565.78	19.404
565.97	21.032
566.16	20.208
566.36	20.630
566.55	19.462
566.74	19.630
566.94	19.756
567.13	21.467
567.33	19.196
567.52	20.342
567.71	19.964
567.91	20.646
568.10	20.853
568.29	20.580
568.49	19.680
568.68	20.449
568.87	20.110
569.07	20.682
569.26	20.765
569.45	20.753
569.65	19.959
569.84	20.606
570.04	20.055
570.23	20.764
570.42	19.834
570.62	20.028
570.81	20.304
571.00	20.633
571.20	20.266
571.39	20.116
571.58	20.296
571.78	20.652
571.97	20.922
572.16	20.576
572.36	20.340
572.55	21.094
572.74	20.876
572.94	20.284
573.13	20.267
573.32	20.934
573.51	20.779
573.71	21.300
573.90	20.690
574.09	20.592
574.29	19.207
574.48	21.220
574.67	20.530
574.87	20.841
575.06	20.297
575.25	21.295
575.45	20.191
575.64	21.156
575.83	21.250
576.03	21.826
576.22	20.299
576.41	21.307
576.60	20.952
576.80	20.949
576.99	21.316
577.18	20.617
577.38	20.246
577.57	21.334
577.76	20.955
577.95	20.347
578.15	20.871
578.34	21.800
578.53	21.277
578.73	22.735
578.92	20.748
579.11	21.945
579.30	20.629
579.50	21.995
579.69	20.503
579.88	20.767
580.08	20.408
580.27	20.490
580.46	20.565
580.65	20.822
580.85	20.041
581.04	21.020
581.23	20.434
581.42	22.037
581.62	19.536
581.81	21.437
582.00	20.221
582.19	21.315
582.39	20.896
582.58	20.752
582.77	20.076
582.96	21.854
583.16	20.695
583.35	21.543
583.54	20.671
583.73	20.078
583.93	21.235
584.12	20.444
584.31	21.884
584.50	20.225
584.70	20.627
584.89	21.500
585.08	20.479
585.27	22.066
585.47	20.833
585.66	20.422
585.85	19.247
586.04	22.173
586.24	20.026
586.43	20.908
586.62	20.018
586.81	21.211
587.00	19.205
587.20	20.857
587.39	21.351
587.58	21.413
587.77	20.663
587.97	20.441
588.16	20.000
588.35	20.554
588.54	19.105
588.73	20.420
588.93	22.034
589.12	20.267
589.31	20.143
589.50	21.554
589.69	20.803
589.89	21.233
590.08	20.232
590.27	19.905
590.46	19.918
590.65	20.795
590.85	20.291
591.04	20.659
591.23	20.707
591.42	20.762
591.61	19.916
591.81	22.238
592.00	20.859
592.19	21.313
592.38	20.617
592.57	20.323
592.77	20.691
592.96	20.111
593.15	21.285
593.34	21.651
593.53	20.970
593.72	21.633
593.92	20.379
594.11	21.607
594.30	21.083
594.49	20.380
594.68	20.633
594.87	21.638
595.07	21.512
595.26	21.258
595.45	20.527
595.64	21.420
595.83	20.878
596.02	22.016
596.22	20.239
596.41	21.922
596.60	20.546
596.79	21.627
596.98	20.316
597.17	22.038
597.37	20.817
597.56	22.452
597.75	21.129
597.94	22.118
598.13	21.808
598.32	22.067
598.51	21.056
598.71	22.946
598.90	20.563
599.09	22.881
599.28	22.536
599.47	22.847
599.66	22.136
599.85	22.830
600.05	22.080
600.24	23.044
600.43	21.893
600.62	22.122
600.81	21.261
601.00	23.358
601.19	20.536
601.38	22.771
601.58	22.631
601.77	22.350
601.96	21.454
602.15	22.734
602.34	22.030
602.53	22.053
602.72	22.665
602.91	22.349
603.10	22.594
603.30	22.099
603.49	21.380
603.68	23.680
603.87	21.701
604.06	22.041
604.25	22.993
604.44	22.435
604.63	22.132
604.82	22.354
605.01	22.805
605.21	23.142
605.40	23.220
605.59	23.141
605.78	23.017
605.97	23.155
606.16	23.067
606.35	23.019
606.54	23.034
606.73	23.326
606.92	22.878
607.11	23.704
607.30	22.653
607.50	24.495
607.69	23.609
607.88	22.398
608.07	22.123
608.26	22.769
608.45	23.514
608.64	23.536
608.83	22.339
609.02	22.445
609.21	22.604
609.40	23.952
609.59	22.889
609.78	22.661
609.97	23.144
610.16	24.688
610.35	22.702
610.55	23.024
610.74	23.910
610.93	23.122
611.12	23.096
611.31	23.328
611.50	23.012
611.69	25.064
611.88	22.658
612.07	25.182
612.26	21.760
612.45	23.832
612.64	21.783
612.83	23.648
613.02	22.452
613.21	22.471
613.40	21.974
613.59	23.169
613.78	21.025
613.97	23.123
614.16	22.719
614.35	22.906
614.54	21.817
614.73	22.895
614.92	21.456
615.11	21.799
615.30	22.197
615.49	22.515
615.68	22.043
615.87	23.031
616.07	21.236
616.26	22.124
616.45	20.622
616.64	22.404
616.83	23.180
617.02	23.714
617.21	21.462
617.40	21.914
617.59	20.912
617.78	23.966
617.97	20.838
618.16	21.888
618.35	21.256
618.54	22.309
618.73	21.709
618.92	22.515
619.11	22.072
619.30	23.785
619.49	21.011
619.68	22.667
619.86	21.554
620.05	22.570
620.24	19.512
620.43	21.984
620.62	20.692
620.81	21.490
621.00	21.389
621.19	22.550
621.38	22.248
621.57	22.546
621.76	20.579
621.95	22.790
622.14	21.831
622.33	23.361
622.52	21.049
622.71	22.677
622.90	21.329
623.09	22.089
623.28	21.502
623.47	23.134
623.66	21.553
623.85	22.307
624.04	22.020
624.23	21.258
624.42	21.408
624.61	22.080
624.80	20.250
624.99	22.025
625.18	19.906
625.36	20.423
625.55	23.860
625.74	22.085
625.93	20.941
626.12	21.029
626.31	21.717
626.50	20.397
626.69	20.831
626.88	23.465
627.07	21.844
627.26	22.224
627.45	20.938
627.64	22.023
627.83	21.575
628.02	22.784
628.20	22.584
628.39	23.278
628.58	21.542
628.77	22.546
628.96	22.383
629.15	21.871
629.34	20.913
629.53	21.403
629.72	21.475
629.91	23.508
630.10	22.386
630.29	22.435
630.47	21.623
630.66	21.755
630.85	20.693
631.04	23.307
631.23	21.572
631.42	22.026
631.61	20.213
631.80	23.436
631.99	20.995
632.18	21.536
632.36	20.979
632.55	21.717
632.74	19.626
632.93	20.934
633.12	21.738
633.31	21.922
633.50	20.495
633.69	22.174
633.88	20.998
634.06	22.850
634.25	21.222
634.44	20.957
634.63	21.187
634.82	22.649
635.01	19.405
635.20	22.345
635.39	20.805
635.57	21.627
635.76	21.817
635.95	20.960
636.14	18.456
636.33	22.416
636.52	19.223
636.71	21.978
636.89	21.055
637.08	21.791
637.27	19.448
637.46	22.034
637.65	20.172
637.84	20.979
638.03	19.492
638.21	21.852
638.40	18.881
638.59	20.944
638.78	18.716
638.97	21.801
639.16	20.250
639.34	21.055
639.53	18.599
639.72	20.810
639.91	18.078
640.10	20.864
640.29	21.169
640.47	20.643
640.66	20.254
640.85	22.586
641.04	17.490
641.23	20.978
641.42	19.367
641.60	18.695
641.79	19.547
641.98	19.720
642.17	18.963
642.36	20.318
642.54	18.417
642.73	19.419
642.92	16.466
643.11	18.997
643.30	18.171
643.49	20.775
643.67	17.149
643.86	20.704
644.05	18.045
644.24	20.810
644.43	18.397
644.61	19.706
644.80	19.498
644.99	18.587
645.18	19.684
645.37	19.566
645.55	17.574
645.74	20.622
645.93	19.920
646.12	17.890
646.31	17.925
646.49	19.941
646.68	17.626
646.87	19.915
647.06	15.962
647.24	19.069
647.43	17.524
647.62	19.877
647.81	17.709
648.00	19.248
648.18	17.024
648.37	20.284
648.56	18.735
648.75	18.423
648.93	19.307
649.12	19.025
649.31	18.052
649.50	18.596
649.68	16.943
649.87	17.854
650.06	16.836
650.25	19.260
650.43	19.326
650.62	19.473
650.81	18.337
651.00	20.912
651.18	17.435
651.37	20.046
651.56	17.632
651.75	21.974
651.93	18.364
652.12	19.625
652.31	17.387
652.50	20.000
652.68	17.828
652.87	19.804
653.06	19.836
653.25	21.968
653.43	18.730
653.62	17.815
653.81	17.532
654.00	21.388
654.18	17.484
654.37	21.385
654.56	18.865
654.74	17.135
654.93	16.787
655.12	19.422
655.31	17.955
655.49	20.607
655.68	16.310
655.87	18.533
656.05	15.536
656.24	18.228
656.43	14.673
656.62	19.695
656.80	16.846
656.99	18.009
657.18	13.201
657.36	18.345
657.55	16.950
657.74	17.565
657.93	18.179
658.11	19.141
658.30	19.052
658.49	19.036
658.67	16.493
658.86	16.942
659.05	17.498
659.23	18.485
659.42	17.141
659.61	19.748
659.79	17.276
659.98	19.407
660.17	16.830
660.35	18.945
660.54	17.239
660.73	21.507
660.91	19.715
661.10	20.045
661.29	15.775
661.47	18.377
661.66	16.676
661.85	18.399
662.03	17.179
662.22	15.409
662.41	13.788
662.59	18.292
662.78	14.804
662.97	15.717
663.15	13.443
663.34	14.622
663.53	12.666
663.71	16.997
663.90	12.546
664.09	16.235
664.27	14.125
664.46	15.895
664.65	12.136
664.83	13.766
665.02	13.189
665.21	13.516
665.39	11.181
665.58	15.227
665.77	13.931
665.95	13.005
666.14	10.072
666.32	14.547
666.51	12.343
666.70	12.198
666.88	13.022
667.07	14.307
667.26	11.244
667.44	13.846
667.63	11.819
667.81	11.765
668.00	13.500
668.19	16.426
668.37	13.231
668.56	14.410
668.75	12.879
668.93	15.882
669.12	11.807
669.30	14.405
669.49	12.539
669.68	12.011
669.86	13.002
670.05	12.101
670.23	12.561
670.42	12.091
670.61	10.828
670.79	13.885
670.98	13.048
671.16	14.938
671.35	11.486
671.54	12.293
671.72	10.903
671.91	13.108
672.09	10.582
672.28	14.910
672.46	14.356
672.65	13.182
672.84	14.127
673.02	15.255
673.21	9.888
673.39	12.627
673.58	13.512
673.77	13.766
673.95	11.600
674.14	15.810
674.32	10.579
674.51	17.906
674.69	13.052
674.88	12.067
675.07	12.195
675.25	16.501
675.44	12.316
675.62	12.795
675.81	11.330
675.99	18.792
676.18	14.972
676.36	13.007
676.55	8.673
676.74	14.438
676.92	17.156
677.11	16.939
677.29	13.984
677.48	14.286
677.66	14.497
677.85	13.239
678.03	12.549
678.22	16.436
678.40	15.012
678.59	11.687
678.78	11.107
678.96	16.076
679.15	10.796
679.33	15.196
679.52	18.759
679.70	15.864
679.89	14.016
680.07	15.346
680.26	13.129
680.44	17.139
680.63	16.166
680.81	16.626
681.00	13.883
681.18	17.620
681.37	14.165
681.55	18.896
681.74	17.690
681.92	19.499
682.11	17.000
682.29	16.940
682.48	14.946
682.66	17.817
682.85	16.096
683.03	17.182
683.22	18.435
683.40	19.512
683.59	16.791
683.77	17.295
683.96	15.631
684.14	19.170
684.33	11.565
684.51	21.635
684.70	18.028
684.88	22.121
685.07	18.164
685.25	21.540
685.44	15.439
685.62	20.956
685.81	17.778
685.99	18.930
686.18	16.100
686.36	18.490
686.55	14.677
686.73	18.387
686.92	18.479
687.10	20.389
687.29	18.716
687.47	20.911
687.65	21.487
687.84	20.506
688.02	19.618
688.21	21.875
688.39	18.608
688.58	23.329
688.76	15.839
688.95	21.760
689.13	16.788
689.32	24.683
689.50	20.253
689.68	22.039
689.87	20.810
690.05	21.570
690.24	22.925
690.42	22.400
690.61	22.296
690.79	20.560
690.98	19.444
691.16	23.018
691.34	20.876
691.53	24.630
691.71	19.922
691.90	25.436
692.08	19.709
692.27	24.071
692.45	23.751
692.63	24.808
692.82	27.285
693.00	26.785
693.19	21.612
693.37	25.613
693.56	24.427
693.74	27.273
693.92	23.059
694.11	26.777
694.29	22.650
694.48	31.141
694.66	23.178
694.84	26.341
695.03	22.406
695.21	30.076
695.40	31.670
695.58	27.508
695.76	22.440
695.95	27.534
696.13	27.511
696.32	30.544
696.50	32.203
696.68	30.393
696.87	26.844
697.05	28.637
697.24	27.889
697.42	31.725
697.60	29.831
697.79	31.290
697.97	28.906
698.16	31.456
698.34	30.634
698.52	31.014
698.71	30.970
698.89	32.050
699.07	30.100
699.26	31.734
699.44	32.641
699.63	31.883
699.81	30.622
699.99	31.373
700.18	30.812
700.36	34.549
700.54	32.306
700.73	35.207
700.91	33.676
701.09	31.964
701.28	30.177
701.46	34.073
701.64	33.530
701.83	35.679
702.01	29.817
702.20	35.998
702.38	31.574
702.56	32.977
702.75	30.543
702.93	30.464
703.11	31.576
703.30	33.200
703.48	33.108
703.66	36.229
703.85	34.783
704.03	34.605
704.21	35.575
704.40	34.062
704.58	34.962
704.76	37.065
704.95	32.658
705.13	35.474
705.31	37.146
705.50	32.780
705.68	35.636
705.86	35.651
706.04	33.724
706.23	34.172
706.41	34.637
706.59	35.528
706.78	33.352
706.96	38.883
707.14	34.792
707.33	38.194
707.51	33.699
707.69	35.679
707.88	33.818
708.06	35.780
708.24	36.277
708.42	38.910
708.61	33.102
708.79	35.003
708.97	36.709
709.16	38.301
709.34	36.243
709.52	37.019
709.71	37.337
709.89	37.633
710.07	33.457
710.25	36.541
710.44	35.366
710.62	37.701
710.80	36.578
710.98	37.575
711.17	36.528
711.35	38.021
711.53	34.451
711.72	39.700
711.90	37.494
712.08	37.399
712.26	37.916
712.45	41.220
712.63	35.565
712.81	39.237
712.99	34.704
713.18	38.344
713.36	36.684
713.54	41.538
713.72	35.969
713.91	35.554
714.09	36.793
714.27	38.753
714.45	38.502
714.64	37.161
714.82	38.654
715.00	37.494
715.18	34.368
715.37	37.792
715.55	35.288
715.73	38.336
715.91	37.962
716.10	39.820
716.28	38.484
716.46	38.799
716.64	34.197
716.83	37.879
717.01	34.247
717.19	37.874
717.37	35.685
717.55	40.429
717.74	36.957
717.92	35.324
718.10	35.836
718.28	34.524
718.47	33.353
718.65	37.592
718.83	33.027
719.01	39.241
719.19	34.060
719.38	35.855
719.56	31.752
719.74	37.804
719.92	28.840
720.10	36.178
720.29	34.746
720.47	36.504
720.65	37.020
720.83	38.672
721.01	35.611
721.20	36.622
721.38	39.057
721.56	37.789
721.74	38.274
721.92	38.131
722.11	35.270
722.29	41.967
722.47	39.849
722.65	35.983
722.83	41.070
723.01	38.440
723.20	38.771
723.38	40.139
723.56	40.830
723.74	40.245
723.92	38.768
724.10	33.617
724.29	33.877
724.47	39.556
724.65	33.310
724.83	38.829
725.01	37.660
725.19	41.284
725.38	37.357
725.56	41.190
725.74	36.058
725.92	42.666
726.10	38.051
726.28	41.142
726.46	39.867
726.65	36.620
726.83	37.878
727.01	41.014
727.19	39.638
727.37	41.528
727.55	34.211
727.73	38.743
727.92	39.792
728.10	41.098
728.28	36.694
728.46	40.446
728.64	37.449
728.82	39.147
729.00	39.812
729.19	43.014
729.37	41.379
729.55	43.312
729.73	38.262
729.91	42.766
730.09	39.974
730.27	40.799
730.45	39.404
730.63	41.284
730.82	38.731
731.00	41.114
731.18	37.619
731.36	39.365
731.54	38.189
731.72	40.621
731.90	38.396
732.08	38.462
732.26	39.867
732.45	45.322
732.63	44.348
732.81	41.770
732.99	36.415
733.17	46.781
733.35	38.028
733.53	43.554
733.71	42.208
733.89	43.910
734.07	45.420
734.25	43.134
734.44	40.857
734.62	42.166
734.80	43.011
734.98	42.613
735.16	43.123
735.34	43.497
735.52	43.440
735.70	42.266
735.88	46.529
736.06	44.610
736.24	48.023
736.42	43.584
736.60	46.160
736.78	48.444
736.97	43.530
737.15	47.321
737.33	39.424
737.51	47.159
737.69	45.037
737.87	44.841
738.05	46.385
738.23	46.318
738.41	46.111
738.59	47.355
738.77	49.158
738.95	47.390
739.13	49.199
739.31	47.480
739.49	45.933
739.67	46.055
739.85	45.992
740.03	45.980
740.21	47.711
740.39	49.841
740.57	43.606
740.75	47.936
740.93	44.138
741.11	49.419
741.30	47.206
741.48	45.953
741.66	46.154
741.84	46.346
742.02	50.342
742.20	49.734
742.38	45.357
742.56	47.719
742.74	48.783
742.92	49.868
743.10	43.597
743.28	55.072
743.46	48.127
743.64	47.959
743.82	50.049
744.00	51.201
744.18	52.828
744.36	47.467
744.54	51.482
744.72	56.232
744.90	51.616
745.08	55.598
745.26	53.073
745.44	50.726
745.62	49.748
745.80	57.688
745.98	49.096
746.16	48.470
746.34	46.943
746.52	51.844
746.70	49.264
746.87	50.667
747.05	47.553
747.23	47.955
747.41	47.234
747.59	51.324
747.77	49.699
747.95	48.095
748.13	47.363
748.31	52.576
748.49	53.514
748.67	51.181
748.85	52.062
749.03	47.600
749.21	48.141
749.39	52.859
749.57	51.949
749.75	47.116
749.93	48.092
750.11	50.251
750.29	53.663
750.47	51.755
750.65	52.293
750.83	54.927
751.01	44.221
751.18	59.251
751.36	53.909
751.54	53.909
751.72	47.053
751.90	52.132
752.08	41.410
752.26	51.837
752.44	52.074
752.62	49.703
752.80	53.285
752.98	58.787
753.16	50.900
753.34	48.453
753.52	47.853
753.69	54.008
753.87	47.273
754.05	58.818
754.23	48.665
754.41	47.647
754.59	50.837
754.77	51.351
754.95	49.758
755.13	55.950
755.31	51.721
755.49	57.471
755.66	50.856
755.84	50.291
756.02	50.745
756.20	50.472
756.38	47.808
756.56	50.145
756.74	50.199
756.92	49.287
757.10	52.103
757.28	55.075
757.45	52.169
757.63	55.604
757.81	44.773
757.99	51.713
758.17	53.945
758.35	54.107
758.53	54.936
758.71	51.360
758.88	50.192
759.06	46.909
759.24	43.809
759.42	48.039
759.60	45.754
759.78	45.291
759.96	37.941
760.13	37.098
760.31	35.256
760.49	35.054
760.67	27.119
760.85	34.990
761.03	29.980
761.21	29.820
761.38	28.751
761.56	31.623
761.74	30.439
761.92	36.214
762.10	29.543
762.28	38.440
762.46	27.963
762.63	37.054
762.81	30.123
762.99	38.325
763.17	30.800
763.35	32.515
763.53	32.787
763.70	35.050
763.88	34.362
764.06	35.891
764.24	30.570
764.42	38.586
764.60	34.231
764.77	34.320
764.95	34.896
765.13	37.838
765.31	32.725
765.49	39.245
765.66	38.017
765.84	37.011
766.02	39.272
766.20	41.142
766.38	35.600
766.56	42.857
766.73	41.451
766.91	45.760
767.09	43.280
767.27	44.490
767.45	40.218
767.62	46.569
767.80	42.146
767.98	49.355
768.16	42.783
768.33	51.721
768.51	50.421
768.69	54.296
768.87	47.788
769.05	54.439
769.22	48.732
769.40	57.240
769.58	49.689
769.76	55.067
769.94	52.561
770.11	51.856
770.29	51.866
770.47	52.645
770.65	51.332
770.82	51.106
771.00	53.488
771.18	57.927
771.36	57.292
771.53	47.590
771.71	49.868
771.89	57.959
772.07	48.907
772.25	59.807
772.42	51.050
772.60	64.464
772.78	49.492
772.96	46.616
773.13	54.808
773.31	57.124
773.49	56.749
773.67	51.455
773.84	58.934
774.02	56.000
774.20	52.263
774.37	53.964
774.55	54.101
774.73	55.607
774.91	58.574
775.08	55.282
775.26	55.556
775.44	62.989
775.62	57.228
775.79	56.815
775.97	56.154
776.15	54.545
776.32	49.461
776.50	58.760
776.68	54.414
776.86	54.814
777.03	58.861
777.21	57.300
777.39	55.878
777.56	51.643
777.74	48.343
777.92	61.335
778.10	57.235
778.27	58.450
778.45	48.554
778.63	66.667
778.80	57.484
778.98	57.347
779.16	58.961
779.34	52.250
779.51	52.914
779.69	61.424
779.87	56.528
780.04	54.507
780.22	49.706
780.40	52.408
780.57	60.447
780.75	50.419
780.93	50.706
781.10	65.905
781.28	58.155
781.46	51.246
781.63	49.091
781.81	57.515
781.99	49.836
782.16	51.490
782.34	53.704
782.52	56.039
782.69	51.796
782.87	55.574
783.05	57.868
783.22	63.571
783.40	53.155
783.58	67.591
783.75	52.405
783.93	64.274
784.11	55.888
784.28	63.149
784.46	56.261
784.64	56.429
784.81	55.197
784.99	56.039
785.17	57.864
785.34	52.313
785.52	49.714
785.69	47.834
785.87	47.300
786.05	61.250
786.22	65.283
786.40	62.774
786.58	58.054
786.75	57.301
786.93	63.908
787.11	58.217
787.28	53.780
787.46	54.152
787.63	50.980
787.81	48.998
787.99	56.415
788.16	50.820
788.34	42.765
788.51	54.992
788.69	46.269
788.87	42.066
789.04	48.103
789.22	47.605
789.39	49.423
789.57	49.099
789.75	39.174
789.92	52.507
790.10	43.759
790.27	50.000
790.45	49.131
790.63	48.166
790.80	49.191
790.98	50.352
791.15	57.919
791.33	48.940
791.51	59.117
791.68	56.553
791.86	56.870
792.03	55.196
792.21	51.103
792.39	49.291
792.56	47.120
792.74	54.253
792.91	51.111
793.09	46.573
793.26	57.442
793.44	57.685
793.62	56.693
793.79	50.497
793.97	54.971
794.14	43.520
794.32	53.414
794.49	57.194
794.67	43.496
794.84	46.541
795.02	56.900
795.20	46.125
795.37	52.000
795.55	51.899
795.72	57.463
795.90	50.877
796.07	53.770
796.25	52.080
796.42	49.301
796.60	52.588
796.77	50.356
796.95	55.515
797.13	41.565
797.30	59.319
797.48	40.692
797.65	49.117
797.83	46.181
798.00	49.067
798.18	51.838
798.35	55.172
798.53	55.728
798.70	44.425
798.88	58.730
799.05	51.515
799.23	40.984
799.40	41.993
799.58	51.478
799.75	57.941
799.93	47.610
800.10	51.316
800.28	44.513
800.45	51.911
800.63	44.297
800.80	53.237
800.98	54.064
801.15	49.639
801.33	54.264
801.50	45.161
801.68	49.565
801.85	47.876
802.03	49.098
802.20	49.293
802.38	44.007
802.55	56.639
802.73	45.472
802.90	45.657
803.08	47.921
803.25	55.511
803.43	57.787
803.60	49.448
803.78	53.831
803.95	45.455
804.13	52.290
804.30	47.204
804.48	58.079
804.65	54.382
804.83	49.698
805.00	58.720
805.17	60.128
805.35	54.512
805.52	45.621
805.70	60.166
805.87	53.053
806.05	53.414
806.22	58.125
806.40	44.991
806.57	57.946
806.75	57.377
806.92	55.556
807.09	52.842
807.27	44.082
807.44	51.277
807.62	45.627
807.79	57.009
807.97	46.000
808.14	53.222
808.31	37.281
808.49	50.355
808.66	47.901
808.84	47.485
809.01	45.747
809.19	35.681
809.36	57.203
809.53	46.911
809.71	53.419
809.88	58.957
810.06	54.267
810.23	58.129
810.41	56.394
810.58	71.845
810.75	42.632
810.93	40.411
811.10	39.956
811.28	47.416
811.45	51.378
811.62	47.826
811.80	48.995
811.97	50.251
812.15	53.303
812.32	57.592
812.49	48.403
812.67	51.790
812.84	53.125
813.02	51.587
813.19	55.206
813.36	50.829
813.54	46.599
813.71	47.165
813.89	56.995
814.06	46.867
814.23	49.412
814.41	50.253
814.58	64.463
814.75	55.858
814.93	53.960
815.10	54.642
815.28	50.746
815.45	42.857
815.62	47.701
815.80	32.749
815.97	38.000
816.14	41.114
816.32	50.129
816.49	39.842
816.66	32.267
816.84	43.052
817.01	38.877
817.18	48.042
817.36	46.787
817.53	49.515
817.71	47.301
817.88	37.500
818.05	54.402
818.23	38.200
818.40	36.533
818.57	41.458
818.75	43.789
818.92	47.118
819.09	32.997
819.27	30.750
819.44	35.154
819.61	40.878
819.79	38.255
819.96	30.137
820.13	41.968
820.31	37.303
820.48	45.825
820.65	43.119
820.82	44.256
821.00	42.710
821.17	27.232
821.34	35.969
821.52	33.706
821.69	29.383
821.86	26.351
822.04	36.624
822.21	27.717
822.38	34.707
822.56	28.482
822.73	34.483
822.90	29.897
823.07	31.024
823.25	30.710
823.42	29.912
823.59	29.694
823.77	32.786
823.94	30.156
824.11	31.861
824.29	29.108
824.46	34.915
824.63	30.865
824.80	34.190
824.98	33.422
825.15	34.166
825.32	27.477
825.49	31.887
825.67	29.593
825.84	30.621
826.01	29.917
826.19	33.250
826.36	29.722
826.53	32.887
826.70	28.612
826.88	32.891
827.05	23.734
827.22	25.590
827.39	28.525
827.57	30.757
827.74	28.489
827.91	31.250
828.08	28.861
828.26	30.500
828.43	29.001
828.60	34.437
828.77	30.325
828.95	29.075
829.12	28.863
829.29	27.136
829.46	25.905
829.64	29.299
829.81	28.263
829.98	37.438
830.15	31.009
830.32	31.890
830.50	23.256
830.67	33.444
830.84	36.232
831.01	35.575
831.19	38.333
831.36	36.653
831.53	45.291
831.70	38.391
831.87	34.110
832.05	49.533
832.22	44.889
832.39	40.426
832.56	36.675
832.74	42.857
832.91	36.409
833.08	49.145
833.25	37.685
833.42	39.040
833.60	32.545
833.77	30.382
833.94	30.671
834.11	27.882
834.28	30.446
834.45	31.995
834.63	28.989
834.80	30.638
834.97	35.023
835.14	26.585
835.31	28.669
835.49	30.760
835.66	33.125
835.83	28.937
836.00	32.327
836.17	31.083
836.34	32.796
836.52	28.374
836.69	39.403
836.86	31.655
837.03	30.320
837.20	25.556
837.37	40.748
837.55	36.875
837.72	37.358
837.89	41.667
838.06	50.857
838.23	44.118
838.40	41.867
838.58	39.769
838.75	56.766
838.92	64.706
839.09	46.735
839.26	60.396
839.43	63.823
839.60	55.856
839.78	61.039
839.95	45.777
840.12	51.195
840.29	49.153
840.46	57.362
840.63	73.354
840.80	34.628
840.98	58.013
841.15	49.375
841.32	46.970
841.49	44.118
841.66	50.633
841.83	48.447
842.00	57.143
842.17	54.545
842.34	34.797
842.52	56.000
842.69	47.458
842.86	67.442
843.03	65.314
843.20	47.510
843.37	61.255
843.54	40.824
843.71	60.714
843.88	69.778
844.06	71.200
844.23	50.476
844.40	73.333
844.57	53.039
844.74	84.146
844.91	69.565
845.08	110.795
845.25	53.140
845.42	73.656
845.59	73.684
845.76	69.744
845.94	102.475
846.11	74.658
846.28	63.690
846.45	98.315
846.62	94.805
846.79	97.260
846.96	75.926
847.13	87.209
847.30	108.276
847.47	69.065
847.64	96.124
847.81	101.695
847.98	75.879
848.15	105.109
848.32	83.648
848.50	90.419
848.67	62.644
848.84	98.630
849.01	70.391
849.18	77.320
849.35	106.250
849.52	78.448
849.69	90.066
849.86	102.721
850.03	81.343
850.20	87.719
850.37	66.387
850.54	68.715
850.71	68.874
850.88	66.480
851.05	106.780
851.22	89.888
851.39	124.324
851.56	79.464
851.73	95.597
851.90	87.578
852.07	108.271
852.24	90.789
852.41	103.810
852.58	91.549
852.75	101.149
852.92	55.610
853.09	113.281
853.26	79.894
853.43	97.170
853.60	73.034
853.77	83.544
853.94	99.270
854.11	86.014
854.28	105.600
854.45	75.781
854.62	83.249
854.79	105.229
854.96	116.800
855.13	93.567
855.30	134.694
855.47	106.897
855.64	90.977
855.81	85.484
855.98	70.635
856.15	80.180
856.32	67.925
856.49	93.798
856.66	94.406
856.83	88.636
857.00	49.020
857.17	93.077
857.34	72.632
857.51	126.619
857.68	100.000
857.85	53.409
858.02	52.593
858.19	108.108
858.36	71.818
858.53	72.258
858.70	71.257
858.87	73.418
859.04	112.903
859.21	59.459
859.38	93.860
859.55	146.269
859.72	122.989
859.89	83.453
860.05	135.135
860.22	72.775
860.39	120.536
860.56	104.580
860.73	104.878
860.90	80.734
861.07	70.395
861.24	89.474
861.41	91.667
861.58	129.167
861.75	73.333
861.92	101.974
862.09	99.259
862.26	71.795
862.43	91.089
862.59	77.941
862.76	94.406
862.93	78.652
863.10	101.905
863.27	65.812
863.44	119.540
863.61	62.044
863.78	72.000
863.95	91.503
864.12	92.529
864.29	94.017
864.45	71.552
864.62	74.011
864.79	70.543
864.96	64.228
865.13	79.279
865.30	89.441
865.47	91.463
865.64	86.331
865.81	80.916
865.97	73.333
866.14	76.871
866.31	60.833
866.48	96.026
866.65	65.385
866.82	84.810
866.99	126.496
867.16	76.692
867.33	96.774
867.49	91.358
867.66	74.227
867.83	74.803
868.00	95.205
868.17	72.727
868.34	117.544
868.51	130.476
868.67	101.266
868.84	65.000
869.01	82.400
869.18	58.156
869.35	75.194
869.52	95.238
869.69	63.014
869.85	108.411
870.02	99.038
870.19	116.102
870.36	91.724
870.53	65.000
870.70	81.132
870.86	110.000
871.03	67.901
871.20	81.651
871.37	75.000
871.54	85.135
871.71	80.714
871.87	54.717
872.04	58.857
872.21	94.783
872.38	95.122
872.55	77.160
872.72	129.688
872.88	70.391
873.05	94.253
873.22	97.959
873.39	123.469
873.56	85.799
873.72	86.471
873.89	54.037
874.06	65.672
874.23	110.169
874.40	122.000
874.56	101.053
874.73	87.805
874.90	104.237
875.07	95.000
875.24	62.112
875.40	85.714
875.57	94.495
875.74	100.000
875.91	117.431
876.08	100.870
876.24	104.651
876.41	134.400
876.58	59.574
876.75	90.780
876.92	72.059
877.08	91.912
877.25	86.957
877.42	128.125
877.59	104.082
877.75	62.667
877.92	57.738
878.09	67.708
878.26	62.874
878.42	71.875
878.59	77.391
878.76	48.684
878.93	114.179
879.09	50.505
879.26	61.585
879.43	85.405
879.60	72.028
879.76	61.932
879.93	38.889
880.10	50.000
880.27	31.677
880.43	61.453
880.60	34.247
880.77	40.341
880.94	42.786
881.10	40.118
881.27	31.803
881.44	22.380
881.61	32.511
881.77	36.711
881.94	21.696
882.11	22.535
882.28	14.078
882.44	19.697
882.61	31.083
882.78	25.188
882.94	26.708
883.11	25.998
883.28	20.460
883.45	23.196
883.61	20.064
883.78	24.853
883.95	17.840
884.11	21.584
884.28	22.423
>>>>>End Processed Spectral Data<<<<<
