SpectraSuite Data File
++++++++++++++++++++++++++++++++++++
Date: Sat Sep 21 04:16:18 EST 2019
User: sgrac
Dark Spectrum Present: Yes
Reference Spectrum Present: Yes
Number of Sampled Component Spectra: 1
Spectrometers: USB4E01596
Integration Time (usec): 100000 (USB4E01596)
Spectra Averaged: 1 (USB4E01596)
Boxcar Smoothing: 0 (USB4E01596)
Correct for Electrical Dark: No (USB4E01596)
Strobe/Lamp Enabled: Yes (USB4E01596)
Correct for Detector Non-linearity: No (USB4E01596)
Correct for Stray Light: No (USB4E01596)
Number of Pixels in Processed Spectrum: 3648
>>>>>Begin Processed Spectral Data<<<<<
178.44	-292.857
178.66	-292.857
178.87	-292.857
179.09	-128.571
179.30	-307.692
179.52	0.000
179.74	-1850.000
179.95	1400.000
180.17	720.000
180.38	6500.000
180.60	0.000
180.82	925.000
181.03	-321.053
181.25	326.087
181.46	-116.129
181.68	387.500
181.89	6700.000
182.11	337.143
182.33	-128.889
182.54	-325.000
182.76	-5400.000
182.97	620.000
183.19	3150.000
183.40	251.724
183.62	-85.185
183.84	-318.519
184.05	539.130
184.27	441.667
184.48	728.571
184.70	216.000
184.91	-686.667
185.13	268.889
185.34	-164.286
185.56	133.333
185.78	0.000
185.99	713.333
186.21	406.897
186.42	660.000
186.64	195.161
186.85	437.037
187.07	163.636
187.28	480.000
187.50	-340.000
187.72	1980.000
187.93	-10500.000
188.15	212.000
188.36	-464.706
188.58	-2800.000
188.79	327.273
189.01	377.778
189.22	1580.000
189.44	3400.000
189.65	290.000
189.87	925.000
190.09	-1440.000
190.30	618.750
190.52	-4250.000
190.73	200.000
190.95	314.286
191.16	206.667
191.38	620.000
191.59	180.952
191.81	222.222
192.02	182.979
192.24	576.471
192.45	-1880.000
192.67	271.429
192.88	450.000
193.10	392.000
193.31	595.000
193.53	-12100.000
193.74	148.780
193.96	441.667
194.18	322.581
194.39	-466.667
194.61	563.158
194.82	457.143
195.04	247.619
195.25	3050.000
195.47	285.366
195.68	265.957
195.90	760.000
196.11	203.636
196.33	89.362
196.54	-3133.333
196.76	357.143
196.97	-2933.333
197.19	475.000
197.40	282.353
197.62	168.750
197.83	174.324
198.05	-578.947
198.26	322.857
198.48	241.667
198.69	230.233
198.91	182.353
199.12	-205.714
199.34	-1460.000
199.55	6500.000
199.77	2300.000
199.98	280.000
200.20	128.169
200.41	421.429
200.63	-511.111
200.84	241.176
201.06	638.462
201.27	272.973
201.49	1300.000
201.70	255.556
201.91	134.783
202.13	175.362
202.34	201.887
202.56	-785.714
202.77	777.778
202.99	439.286
203.20	3100.000
203.42	1037.500
203.63	165.116
203.85	322.857
204.06	190.741
204.28	-820.000
204.49	260.000
204.71	238.462
204.92	0.000
205.14	-657.143
205.35	438.889
205.56	-1600.000
205.78	304.762
205.99	630.000
206.21	-277.419
206.42	354.839
206.64	275.000
206.85	1675.000
207.07	-430.769
207.28	514.286
207.50	-426.316
207.71	256.410
207.93	234.091
208.14	623.529
208.35	342.105
208.57	-3400.000
208.78	792.308
209.00	577.778
209.21	-5800.000
209.43	200.000
209.64	273.529
209.86	1185.714
210.07	0.000
210.28	-664.706
210.50	181.633
210.71	214.035
210.93	447.619
211.14	-311.111
211.36	-116.129
211.57	-261.905
211.78	-195.652
212.00	0.000
212.21	223.256
212.43	-318.182
212.64	124.138
212.86	-987.500
213.07	-340.909
213.29	286.842
213.50	4100.000
213.71	166.038
213.93	1171.429
214.14	171.212
214.36	6400.000
214.57	369.231
214.78	568.750
215.00	2950.000
215.21	277.778
215.43	256.000
215.64	282.051
215.86	165.714
216.07	7700.000
216.28	276.000
216.50	-1028.571
216.71	-1820.000
216.93	240.426
217.14	234.375
217.35	359.259
217.57	303.571
217.78	1250.000
218.00	-740.000
218.21	478.947
218.42	-1933.333
218.64	582.353
218.85	-1033.333
219.07	471.429
219.28	2425.000
219.49	156.579
219.71	3066.667
219.92	202.778
220.14	466.667
220.35	490.000
220.56	241.026
220.78	494.118
220.99	-6300.000
221.21	400.000
221.42	450.000
221.63	257.500
221.85	225.806
222.06	342.857
222.28	181.818
222.49	-4200.000
222.70	0.000
222.92	388.889
223.13	170.000
223.34	-1325.000
223.56	228.947
223.77	105.618
223.99	225.641
224.20	102.381
224.41	289.189
224.63	288.889
224.84	227.586
225.05	182.143
225.27	154.286
225.48	158.696
225.69	1114.286
225.91	237.037
226.12	311.111
226.34	155.882
226.55	179.630
226.76	166.129
226.98	132.000
227.19	109.091
227.40	72.727
227.62	92.683
227.83	108.000
228.04	103.297
228.26	71.287
228.47	67.241
228.69	40.789
228.90	87.324
229.11	45.926
229.33	59.420
229.54	42.105
229.75	51.304
229.97	28.326
230.18	31.183
230.39	20.675
230.61	37.421
230.82	60.996
231.03	19.087
231.25	42.088
231.46	25.912
231.67	58.498
231.89	67.843
232.10	27.530
232.31	46.635
232.53	38.418
232.74	30.729
232.95	39.759
233.17	72.254
233.38	33.582
233.59	72.794
233.81	56.796
234.02	68.421
234.23	50.802
234.45	67.763
234.66	60.452
234.87	78.523
235.09	47.407
235.30	44.828
235.51	46.117
235.73	50.943
235.94	41.969
236.15	43.878
236.36	65.608
236.58	51.659
236.79	47.644
237.00	36.715
237.22	58.642
237.43	44.118
237.64	48.908
237.86	60.326
238.07	61.809
238.28	43.169
238.50	57.391
238.71	33.728
238.92	36.310
239.13	62.857
239.35	30.769
239.56	42.708
239.77	53.171
239.99	33.491
240.20	32.105
240.41	56.466
240.63	36.842
240.84	31.076
241.05	45.985
241.26	41.322
241.48	34.808
241.69	32.278
241.90	24.507
242.12	30.357
242.33	26.293
242.54	16.844
242.75	20.873
242.97	25.517
243.18	20.034
243.39	20.536
243.61	20.240
243.82	29.231
244.03	17.986
244.24	13.497
244.46	20.593
244.67	16.018
244.88	24.883
245.09	24.207
245.31	18.234
245.52	29.779
245.73	21.401
245.95	37.100
246.16	18.872
246.37	22.674
246.58	26.916
246.80	18.979
247.01	19.608
247.22	17.273
247.43	19.551
247.65	22.845
247.86	18.964
248.07	15.134
248.28	21.090
248.50	22.485
248.71	18.209
248.92	20.888
249.13	20.220
249.35	22.969
249.56	22.398
249.77	22.262
249.98	12.811
250.20	20.667
250.41	22.235
250.62	17.108
250.83	25.479
251.05	19.262
251.26	11.434
251.47	21.081
251.68	27.422
251.90	27.717
252.11	19.861
252.32	19.056
252.53	27.877
252.75	16.960
252.96	26.923
253.17	15.118
253.38	19.730
253.59	20.339
253.81	15.089
254.02	13.876
254.23	24.093
254.44	21.821
254.66	18.512
254.87	18.412
255.08	17.582
255.29	31.526
255.50	24.086
255.72	23.165
255.93	28.467
256.14	18.864
256.35	25.293
256.57	23.885
256.78	26.484
256.99	25.131
257.20	18.932
257.41	32.712
257.63	13.497
257.84	20.539
258.05	21.042
258.26	20.541
258.47	23.256
258.69	18.658
258.90	14.286
259.11	16.225
259.32	13.008
259.53	13.807
259.75	9.508
259.96	11.464
260.17	13.465
260.38	14.725
260.59	14.667
260.81	17.752
261.02	17.372
261.23	20.375
261.44	15.740
261.65	17.329
261.87	14.606
262.08	18.267
262.29	17.987
262.50	17.145
262.71	13.729
262.92	16.399
263.14	13.966
263.35	10.832
263.56	14.941
263.77	16.454
263.98	14.153
264.20	25.389
264.41	9.530
264.62	19.003
264.83	11.017
265.04	19.107
265.25	22.529
265.47	20.091
265.68	12.828
265.89	9.983
266.10	10.033
266.31	23.471
266.52	18.169
266.74	10.654
266.95	11.780
267.16	16.753
267.37	17.375
267.58	13.452
267.79	10.567
268.01	17.033
268.22	16.766
268.43	17.113
268.64	15.707
268.85	12.380
269.06	9.721
269.27	21.590
269.49	15.177
269.70	13.805
269.91	13.447
270.12	13.421
270.33	22.023
270.54	15.186
270.75	7.018
270.97	16.461
271.18	11.897
271.39	14.575
271.60	18.237
271.81	11.216
272.02	15.474
272.23	13.666
272.45	12.186
272.66	13.466
272.87	12.116
273.08	16.407
273.29	17.046
273.50	15.199
273.71	13.982
273.92	10.668
274.14	11.065
274.35	13.198
274.56	15.895
274.77	13.685
274.98	15.643
275.19	15.808
275.40	12.640
275.61	13.641
275.83	16.232
276.04	19.536
276.25	17.549
276.46	17.954
276.67	18.070
276.88	21.200
277.09	11.893
277.30	17.983
277.51	16.975
277.73	15.000
277.94	13.417
278.15	12.139
278.36	20.669
278.57	11.168
278.78	16.200
278.99	16.488
279.20	13.812
279.41	16.362
279.62	12.393
279.84	10.924
280.05	13.002
280.26	17.184
280.47	18.145
280.68	8.515
280.89	15.673
281.10	14.441
281.31	15.114
281.52	18.843
281.73	15.157
281.94	12.727
282.16	14.647
282.37	15.665
282.58	13.990
282.79	19.983
283.00	20.718
283.21	14.839
283.42	13.328
283.63	11.284
283.84	11.514
284.05	13.976
284.26	14.375
284.47	17.266
284.68	14.711
284.89	11.760
285.11	11.828
285.32	12.057
285.53	12.877
285.74	18.763
285.95	13.014
286.16	14.352
286.37	12.109
286.58	14.645
286.79	12.545
287.00	15.024
287.21	11.744
287.42	11.953
287.63	13.325
287.84	10.503
288.05	12.303
288.26	12.015
288.48	14.887
288.69	10.551
288.90	10.657
289.11	14.336
289.32	11.439
289.53	13.270
289.74	7.571
289.95	11.144
290.16	14.103
290.37	10.978
290.58	10.903
290.79	9.636
291.00	12.362
291.21	8.174
291.42	10.780
291.63	8.270
291.84	15.457
292.05	10.477
292.26	9.673
292.47	7.930
292.68	10.685
292.89	13.558
293.10	11.898
293.31	13.131
293.52	7.943
293.73	10.281
293.94	12.730
294.15	8.276
294.36	6.770
294.57	14.155
294.79	12.102
295.00	10.050
295.21	10.920
295.42	15.170
295.63	12.777
295.84	9.317
296.05	8.811
296.26	10.737
296.47	10.877
296.68	9.551
296.89	11.131
297.10	11.678
297.31	9.932
297.52	12.692
297.73	10.419
297.94	11.946
298.15	8.640
298.36	10.830
298.57	8.029
298.78	14.251
298.99	8.609
299.20	11.742
299.41	12.967
299.62	11.615
299.83	8.759
300.04	11.328
300.25	12.579
300.46	12.710
300.67	11.905
300.88	11.097
301.09	9.134
301.30	11.141
301.50	9.397
301.71	14.605
301.92	13.904
302.13	8.829
302.34	12.434
302.55	8.266
302.76	10.041
302.97	11.322
303.18	9.359
303.39	10.056
303.60	7.103
303.81	13.199
304.02	7.714
304.23	11.111
304.44	7.564
304.65	10.230
304.86	10.458
305.07	9.071
305.28	10.966
305.49	12.663
305.70	12.301
305.91	10.174
306.12	8.777
306.33	9.481
306.54	7.924
306.75	10.767
306.96	14.540
307.17	11.279
307.38	7.023
307.58	12.184
307.79	12.756
308.00	12.896
308.21	10.957
308.42	11.343
308.63	12.903
308.84	10.815
309.05	8.618
309.26	7.660
309.47	9.770
309.68	8.662
309.89	10.823
310.10	9.975
310.31	10.156
310.52	8.177
310.73	15.591
310.94	8.318
311.14	6.478
311.35	9.424
311.56	8.796
311.77	9.801
311.98	6.236
312.19	9.076
312.40	8.107
312.61	9.405
312.82	9.409
313.03	8.502
313.24	11.098
313.45	12.450
313.66	8.779
313.86	10.240
314.07	10.077
314.28	9.085
314.49	8.778
314.70	10.537
314.91	14.412
315.12	10.975
315.33	9.547
315.54	11.607
315.75	10.530
315.96	8.215
316.16	9.517
316.37	12.055
316.58	8.088
316.79	9.665
317.00	10.414
317.21	6.156
317.42	11.003
317.63	10.192
317.84	12.302
318.05	8.683
318.25	13.229
318.46	8.683
318.67	5.236
318.88	11.838
319.09	10.588
319.30	7.814
319.51	9.280
319.72	10.607
319.93	8.711
320.13	12.164
320.34	9.645
320.55	6.657
320.76	10.595
320.97	8.935
321.18	9.605
321.39	10.931
321.60	10.195
321.80	12.044
322.01	8.903
322.22	7.788
322.43	8.531
322.64	10.252
322.85	7.291
323.06	11.269
323.27	9.684
323.47	11.189
323.68	11.047
323.89	6.966
324.10	7.593
324.31	9.850
324.52	9.860
324.73	8.896
324.93	10.897
325.14	11.843
325.35	10.697
325.56	10.343
325.77	11.541
325.98	11.158
326.19	11.710
326.39	9.346
326.60	10.818
326.81	8.005
327.02	7.421
327.23	6.836
327.44	12.736
327.64	7.065
327.85	8.906
328.06	12.781
328.27	16.676
328.48	13.166
328.69	6.892
328.90	9.636
329.10	9.887
329.31	7.302
329.52	10.559
329.73	11.574
329.94	8.033
330.15	9.346
330.35	12.265
330.56	10.067
330.77	11.078
330.98	11.148
331.19	11.111
331.39	10.641
331.60	7.351
331.81	11.314
332.02	14.726
332.23	10.271
332.44	7.124
332.64	10.819
332.85	11.289
333.06	11.111
333.27	6.275
333.48	11.739
333.68	11.111
333.89	10.495
334.10	7.601
334.31	13.219
334.52	10.910
334.72	9.636
334.93	11.125
335.14	11.076
335.35	9.472
335.56	11.794
335.76	9.641
335.97	15.671
336.18	8.776
336.39	14.050
336.60	14.103
336.80	13.086
337.01	10.877
337.22	10.934
337.43	13.965
337.64	14.797
337.84	14.652
338.05	11.640
338.26	17.439
338.47	17.350
338.68	9.190
338.88	15.417
339.09	14.371
339.30	13.196
339.51	13.074
339.71	18.910
339.92	14.764
340.13	14.966
340.34	13.070
340.55	14.815
340.75	13.830
340.96	12.810
341.17	15.417
341.38	13.975
341.58	13.803
341.79	15.891
342.00	11.892
342.21	15.916
342.41	10.858
342.62	15.393
342.83	17.076
343.04	9.755
343.24	16.974
343.45	20.345
343.66	14.182
343.87	16.833
344.07	14.024
344.28	16.577
344.49	19.925
344.70	22.958
344.90	15.920
345.11	19.122
345.32	16.658
345.53	16.942
345.73	16.215
345.94	22.424
346.15	22.354
346.36	19.250
346.56	21.194
346.77	25.000
346.98	20.944
347.19	22.929
347.39	21.837
347.60	22.290
347.81	18.816
348.02	20.623
348.22	17.732
348.43	20.332
348.64	19.222
348.84	22.397
349.05	19.910
349.26	28.167
349.47	17.335
349.67	18.502
349.88	22.871
350.09	22.825
350.30	25.320
350.50	20.478
350.71	22.884
350.92	24.907
351.12	20.892
351.33	19.211
351.54	20.516
351.74	22.421
351.95	23.134
352.16	23.629
352.37	28.741
352.57	19.903
352.78	18.330
352.99	22.495
353.19	18.355
353.40	22.376
353.61	26.082
353.82	22.362
354.02	23.600
354.23	26.223
354.44	24.847
354.64	23.642
354.85	23.461
355.06	23.046
355.26	20.300
355.47	23.582
355.68	26.148
355.88	27.022
356.09	25.575
356.30	20.473
356.51	23.003
356.71	26.540
356.92	18.258
357.13	26.533
357.33	30.041
357.54	23.121
357.75	21.059
357.95	25.739
358.16	23.139
358.37	33.457
358.57	25.051
358.78	30.689
358.99	22.936
359.19	22.766
359.40	26.473
359.61	26.474
359.81	27.223
360.02	31.562
360.23	21.774
360.43	23.815
360.64	24.444
360.85	28.322
361.05	22.729
361.26	28.347
361.47	25.173
361.67	28.134
361.88	23.381
362.09	29.583
362.29	24.352
362.50	25.277
362.70	21.559
362.91	30.404
363.12	26.204
363.32	27.122
363.53	26.339
363.74	30.724
363.94	24.140
364.15	29.876
364.36	27.478
364.56	27.092
364.77	26.638
364.98	30.642
365.18	24.563
365.39	26.878
365.59	22.942
365.80	26.910
366.01	26.485
366.21	25.274
366.42	21.864
366.63	29.688
366.83	25.521
367.04	20.768
367.24	27.167
367.45	24.291
367.66	20.547
367.86	27.375
368.07	23.016
368.28	23.344
368.48	23.861
368.69	22.530
368.89	24.511
369.10	24.691
369.31	22.014
369.51	24.704
369.72	25.853
369.92	26.847
370.13	20.201
370.34	26.247
370.54	15.143
370.75	26.513
370.95	20.454
371.16	27.071
371.37	20.877
371.57	24.119
371.78	23.634
371.98	25.950
372.19	25.045
372.40	27.473
372.60	25.183
372.81	25.293
373.01	20.460
373.22	22.389
373.43	25.803
373.63	27.340
373.84	25.074
374.04	26.503
374.25	23.312
374.46	26.828
374.66	22.865
374.87	23.612
375.07	19.902
375.28	23.118
375.48	24.477
375.69	25.333
375.90	20.536
376.10	22.886
376.31	22.028
376.51	24.869
376.72	20.980
376.92	22.552
377.13	24.563
377.34	27.899
377.54	22.307
377.75	27.803
377.95	24.771
378.16	26.617
378.36	24.346
378.57	26.988
378.77	24.544
378.98	29.705
379.19	24.742
379.39	23.819
379.60	24.297
379.80	27.861
380.01	25.136
380.21	24.857
380.42	25.008
380.62	24.790
380.83	23.914
381.04	25.496
381.24	24.920
381.45	24.976
381.65	21.772
381.86	27.228
382.06	25.481
382.27	21.918
382.47	20.574
382.68	27.369
382.88	19.730
383.09	24.589
383.29	22.399
383.50	26.107
383.71	23.662
383.91	26.729
384.12	22.726
384.32	25.408
384.53	23.358
384.73	21.591
384.94	23.604
385.14	25.661
385.35	22.299
385.55	26.437
385.76	22.583
385.96	26.511
386.17	23.471
386.37	26.808
386.58	23.255
386.78	27.473
386.99	22.312
387.19	27.351
387.40	23.916
387.60	29.498
387.81	25.276
388.01	26.893
388.22	28.327
388.42	28.136
388.63	27.994
388.83	28.854
389.04	23.229
389.24	28.331
389.45	25.480
389.65	26.463
389.86	26.631
390.06	25.667
390.27	25.846
390.47	25.556
390.68	24.750
390.88	27.791
391.09	28.677
391.29	27.411
391.50	25.655
391.70	27.923
391.91	23.466
392.11	27.899
392.32	27.116
392.52	30.252
392.73	25.704
392.93	28.961
393.14	26.525
393.34	26.359
393.55	26.742
393.75	26.321
393.95	27.509
394.16	28.471
394.36	28.423
394.57	30.030
394.77	26.283
394.98	28.286
395.18	25.283
395.39	27.564
395.59	26.242
395.80	28.684
396.00	29.530
396.21	28.908
396.41	26.538
396.61	30.388
396.82	28.321
397.02	30.421
397.23	27.809
397.43	27.375
397.64	25.150
397.84	28.742
398.05	23.273
398.25	27.453
398.45	27.868
398.66	29.571
398.86	28.066
399.07	28.809
399.27	25.679
399.48	28.591
399.68	26.442
399.89	27.292
400.09	27.797
400.29	28.274
400.50	25.285
400.70	27.975
400.91	24.856
401.11	27.370
401.32	26.656
401.52	25.413
401.72	25.534
401.93	28.890
402.13	26.166
402.34	27.671
402.54	23.974
402.75	30.114
402.95	23.681
403.15	28.236
403.36	23.863
403.56	26.708
403.77	24.239
403.97	28.505
404.17	24.475
404.38	27.817
404.58	25.766
404.79	27.454
404.99	25.953
405.19	27.746
405.40	26.846
405.60	27.425
405.81	27.605
406.01	27.916
406.21	25.209
406.42	27.377
406.62	25.951
406.83	27.031
407.03	26.636
407.23	27.900
407.44	25.848
407.64	28.878
407.85	28.499
408.05	27.254
408.25	23.733
408.46	26.058
408.66	25.554
408.87	26.904
409.07	25.190
409.27	25.869
409.48	25.942
409.68	26.779
409.88	22.618
410.09	26.844
410.29	25.634
410.50	27.288
410.70	22.588
410.90	26.890
411.11	24.874
411.31	25.650
411.51	27.506
411.72	27.510
411.92	23.820
412.12	25.767
412.33	23.536
412.53	26.909
412.74	23.515
412.94	24.446
413.14	24.516
413.35	27.654
413.55	24.415
413.75	26.292
413.96	23.013
414.16	24.849
414.36	24.117
414.57	25.863
414.77	24.578
414.97	25.507
415.18	23.477
415.38	25.368
415.58	25.047
415.79	24.782
415.99	23.888
416.19	25.557
416.40	24.310
416.60	25.841
416.80	24.444
417.01	26.295
417.21	23.976
417.41	25.726
417.62	23.284
417.82	25.597
418.02	24.848
418.23	26.026
418.43	23.623
418.63	25.373
418.84	26.719
419.04	25.319
419.24	25.670
419.45	25.584
419.65	25.850
419.85	26.145
420.06	25.146
420.26	25.659
420.46	25.291
420.67	26.470
420.87	25.149
421.07	24.721
421.28	24.444
421.48	24.689
421.68	25.003
421.88	24.625
422.09	24.932
422.29	24.752
422.49	25.233
422.70	25.091
422.90	24.517
423.10	25.201
423.31	25.032
423.51	25.000
423.71	24.978
423.91	24.799
424.12	24.911
424.32	23.956
424.52	24.584
424.73	25.341
424.93	25.116
425.13	24.766
425.33	24.138
425.54	24.622
425.74	24.890
425.94	24.226
426.15	25.384
426.35	25.230
426.55	24.323
426.75	24.918
426.96	25.160
427.16	24.433
427.36	25.344
427.57	26.015
427.77	24.618
427.97	24.880
428.17	25.064
428.38	25.139
428.58	23.618
428.78	24.516
428.98	25.299
429.19	24.137
429.39	24.543
429.59	25.265
429.79	23.046
430.00	23.972
430.20	23.398
430.40	23.729
430.60	23.931
430.81	24.760
431.01	23.200
431.21	25.359
431.41	23.378
431.62	24.088
431.82	22.465
432.02	24.229
432.22	22.222
432.43	23.977
432.63	23.309
432.83	23.520
433.03	23.458
433.24	22.894
433.44	24.242
433.64	23.710
433.84	25.271
434.05	24.661
434.25	23.985
434.45	24.916
434.65	24.405
434.85	25.123
435.06	25.000
435.26	23.688
435.46	25.247
435.66	25.755
435.87	24.787
436.07	25.165
436.27	25.238
436.47	24.763
436.67	24.664
436.88	25.425
437.08	24.797
437.28	24.805
437.48	24.801
437.69	24.872
437.89	24.371
438.09	24.557
438.29	24.404
438.49	26.464
438.70	25.295
438.90	25.398
439.10	25.284
439.30	24.750
439.50	23.610
439.71	24.560
439.91	24.857
440.11	24.788
440.31	25.307
440.51	24.477
440.72	24.664
440.92	24.829
441.12	25.310
441.32	25.153
441.52	25.300
441.72	24.876
441.93	25.091
442.13	25.765
442.33	25.111
442.53	25.769
442.73	25.353
442.94	25.722
443.14	25.201
443.34	25.680
443.54	26.821
443.74	25.912
443.94	25.130
444.15	24.693
444.35	25.415
444.55	25.038
444.75	25.244
444.95	24.881
445.15	24.580
445.36	25.097
445.56	24.944
445.76	25.458
445.96	24.333
446.16	24.593
446.36	24.823
446.57	24.961
446.77	24.932
446.97	24.847
447.17	24.950
447.37	24.508
447.57	25.082
447.77	24.959
447.98	25.425
448.18	25.693
448.38	25.533
448.58	25.421
448.78	26.626
448.98	24.803
449.18	25.444
449.39	25.458
449.59	25.403
449.79	25.836
449.99	25.161
450.19	26.806
450.39	25.704
450.59	25.174
450.79	25.045
451.00	26.454
451.20	26.645
451.40	25.387
451.60	24.760
451.80	25.126
452.00	24.921
452.20	25.615
452.40	25.103
452.61	25.452
452.81	25.171
453.01	26.112
453.21	25.050
453.41	26.479
453.61	25.138
453.81	25.779
454.01	25.552
454.21	25.075
454.42	26.249
454.62	26.015
454.82	24.990
455.02	25.448
455.22	25.257
455.42	25.498
455.62	24.270
455.82	25.657
456.02	24.986
456.23	25.237
456.43	26.259
456.63	26.021
456.83	24.543
457.03	25.855
457.23	25.339
457.43	25.859
457.63	24.692
457.83	25.781
458.03	24.812
458.23	26.340
458.43	25.122
458.64	24.433
458.84	25.011
459.04	25.132
459.24	25.150
459.44	24.651
459.64	24.014
459.84	23.997
460.04	24.190
460.24	25.014
460.44	25.011
460.64	24.899
460.84	24.889
461.04	25.152
461.24	25.588
461.45	25.420
461.65	25.577
461.85	25.484
462.05	25.896
462.25	25.867
462.45	26.153
462.65	25.318
462.85	25.647
463.05	25.454
463.25	25.728
463.45	25.676
463.65	25.202
463.85	25.510
464.05	25.014
464.25	25.539
464.45	24.897
464.65	25.314
464.85	25.697
465.05	24.986
465.26	25.771
465.46	25.710
465.66	25.904
465.86	25.783
466.06	25.447
466.26	25.315
466.46	25.014
466.66	25.691
466.86	25.472
467.06	25.107
467.26	24.540
467.46	24.804
467.66	25.115
467.86	25.814
468.06	25.417
468.26	26.400
468.46	26.198
468.66	25.820
468.86	25.135
469.06	25.728
469.26	25.492
469.46	25.596
469.66	24.987
469.86	26.214
470.06	25.486
470.26	26.466
470.46	25.661
470.66	25.594
470.86	25.780
471.06	26.402
471.26	26.093
471.46	25.080
471.66	26.568
471.86	25.924
472.06	25.822
472.26	26.158
472.46	25.826
472.66	25.898
472.86	25.063
473.06	25.816
473.26	26.015
473.46	25.454
473.66	26.115
473.86	26.267
474.06	26.070
474.26	25.860
474.46	26.260
474.66	26.809
474.86	26.341
475.06	26.434
475.26	26.261
475.46	26.303
475.66	26.028
475.86	25.538
476.06	26.347
476.26	26.194
476.46	25.246
476.66	25.673
476.86	25.879
477.06	25.460
477.26	26.440
477.46	26.238
477.65	26.021
477.85	26.280
478.05	26.479
478.25	25.507
478.45	26.131
478.65	26.573
478.85	26.034
479.05	26.784
479.25	25.559
479.45	26.704
479.65	26.099
479.85	26.794
480.05	26.199
480.25	26.169
480.45	27.153
480.65	25.749
480.85	26.291
481.05	26.126
481.25	26.279
481.44	26.176
481.64	25.980
481.84	26.715
482.04	25.842
482.24	26.022
482.44	25.587
482.64	25.419
482.84	25.822
483.04	25.802
483.24	25.250
483.44	25.128
483.64	24.534
483.84	25.065
484.04	25.192
484.23	25.675
484.43	25.919
484.63	26.047
484.83	26.330
485.03	26.206
485.23	26.689
485.43	27.113
485.63	27.123
485.83	27.156
486.03	27.224
486.23	27.153
486.42	26.943
486.62	26.712
486.82	26.413
487.02	26.241
487.22	26.190
487.42	25.998
487.62	26.317
487.82	25.602
488.02	25.860
488.22	25.966
488.41	25.846
488.61	25.485
488.81	26.781
489.01	26.254
489.21	26.479
489.41	26.281
489.61	26.696
489.81	26.663
490.01	26.773
490.20	26.838
490.40	27.039
490.60	26.837
490.80	26.359
491.00	26.451
491.20	25.701
491.40	25.237
491.60	26.177
491.79	25.078
491.99	25.687
492.19	25.429
492.39	26.024
492.59	25.473
492.79	26.676
492.99	26.407
493.19	26.849
493.38	26.357
493.58	26.629
493.78	26.192
493.98	27.123
494.18	27.279
494.38	26.675
494.58	27.384
494.77	26.635
494.97	26.980
495.17	27.542
495.37	26.277
495.57	26.142
495.77	25.699
495.96	27.449
496.16	26.932
496.36	26.742
496.56	25.896
496.76	25.863
496.96	26.043
497.15	26.623
497.35	26.053
497.55	25.929
497.75	26.477
497.95	25.914
498.15	26.061
498.34	25.914
498.54	26.557
498.74	27.303
498.94	25.952
499.14	26.493
499.34	26.916
499.53	26.685
499.73	26.815
499.93	26.786
500.13	26.920
500.33	27.797
500.52	26.212
500.72	26.485
500.92	26.999
501.12	26.928
501.32	26.416
501.52	27.613
501.71	27.146
501.91	27.075
502.11	26.977
502.31	26.519
502.51	27.371
502.70	27.471
502.90	26.881
503.10	28.314
503.30	26.414
503.50	26.845
503.69	26.574
503.89	28.318
504.09	26.569
504.29	27.014
504.48	26.976
504.68	26.851
504.88	26.964
505.08	27.528
505.28	26.397
505.47	26.920
505.67	26.983
505.87	27.490
506.07	26.798
506.27	27.237
506.46	26.340
506.66	28.004
506.86	27.578
507.06	27.563
507.25	27.855
507.45	27.564
507.65	27.238
507.85	27.889
508.04	27.763
508.24	27.326
508.44	26.023
508.64	27.346
508.83	27.149
509.03	27.168
509.23	27.333
509.43	27.917
509.63	27.552
509.82	27.150
510.02	27.433
510.22	27.624
510.42	27.674
510.61	28.157
510.81	27.797
511.01	27.837
511.21	27.662
511.40	28.259
511.60	28.262
511.80	28.162
511.99	28.234
512.19	27.662
512.39	27.696
512.59	28.030
512.78	28.425
512.98	28.137
513.18	27.999
513.38	27.888
513.57	28.081
513.77	28.327
513.97	28.149
514.17	28.879
514.36	28.007
514.56	28.596
514.76	27.853
514.95	28.598
515.15	28.024
515.35	28.450
515.55	28.591
515.74	28.568
515.94	28.893
516.14	28.660
516.33	28.623
516.53	27.876
516.73	29.139
516.93	29.366
517.12	28.876
517.32	28.935
517.52	28.490
517.71	28.538
517.91	28.320
518.11	28.311
518.30	28.770
518.50	27.454
518.70	27.783
518.90	28.543
519.09	27.983
519.29	28.668
519.49	28.181
519.68	27.713
519.88	28.459
520.08	28.713
520.27	28.523
520.47	29.867
520.67	29.393
520.86	29.424
521.06	28.904
521.26	29.795
521.45	28.625
521.65	29.078
521.85	28.856
522.04	28.984
522.24	29.145
522.44	29.220
522.63	29.026
522.83	29.618
523.03	28.991
523.22	28.987
523.42	28.615
523.62	28.795
523.81	29.171
524.01	28.917
524.21	29.122
524.40	29.328
524.60	28.811
524.80	28.661
524.99	28.997
525.19	28.115
525.39	28.623
525.58	28.446
525.78	28.751
525.98	28.223
526.17	28.038
526.37	28.351
526.57	28.048
526.76	28.766
526.96	28.808
527.15	28.480
527.35	28.629
527.55	28.979
527.74	28.252
527.94	28.758
528.14	27.828
528.33	27.798
528.53	27.829
528.72	28.266
528.92	28.108
529.12	28.452
529.31	28.365
529.51	29.088
529.71	28.955
529.90	29.180
530.10	28.765
530.29	29.653
530.49	29.093
530.69	29.857
530.88	29.694
531.08	29.484
531.28	29.147
531.47	29.804
531.67	28.954
531.86	29.605
532.06	29.273
532.26	28.667
532.45	28.286
532.65	29.117
532.84	27.735
533.04	28.076
533.24	28.305
533.43	28.305
533.63	28.552
533.82	29.134
534.02	28.744
534.22	28.869
534.41	28.735
534.61	29.099
534.80	28.426
535.00	29.357
535.19	29.243
535.39	29.318
535.59	29.764
535.78	29.216
535.98	28.838
536.17	29.202
536.37	28.384
536.57	28.928
536.76	28.352
536.96	29.176
537.15	28.587
537.35	29.382
537.54	29.174
537.74	29.337
537.93	29.524
538.13	29.460
538.33	29.566
538.52	29.859
538.72	29.523
538.91	28.855
539.11	29.369
539.30	29.608
539.50	30.594
539.70	28.771
539.89	30.147
540.09	29.028
540.28	28.588
540.48	28.694
540.67	28.443
540.87	28.600
541.06	28.348
541.26	28.227
541.45	28.209
541.65	28.113
541.85	28.522
542.04	29.127
542.24	28.677
542.43	28.982
542.63	29.009
542.82	28.960
543.02	28.894
543.21	29.844
543.41	29.250
543.60	29.967
543.80	29.452
543.99	29.570
544.19	29.316
544.38	29.384
544.58	30.106
544.77	30.480
544.97	29.817
545.16	30.338
545.36	29.428
545.56	29.758
545.75	29.484
545.95	28.975
546.14	29.405
546.34	29.383
546.53	29.130
546.73	29.247
546.92	29.080
547.12	29.398
547.31	29.055
547.51	29.694
547.70	29.968
547.90	30.225
548.09	29.842
548.29	30.485
548.48	29.761
548.68	30.264
548.87	30.844
549.07	30.227
549.26	30.432
549.46	30.084
549.65	30.954
549.84	31.376
550.04	31.239
550.23	30.451
550.43	30.084
550.62	30.960
550.82	30.113
551.01	31.022
551.21	30.649
551.40	31.325
551.60	30.687
551.79	30.999
551.99	31.818
552.18	30.809
552.38	30.728
552.57	30.154
552.77	30.275
552.96	30.353
553.16	30.910
553.35	29.720
553.54	31.033
553.74	30.303
553.93	31.057
554.13	30.728
554.32	30.636
554.52	31.527
554.71	31.085
554.91	32.039
555.10	31.196
555.29	31.903
555.49	31.345
555.68	31.496
555.88	31.400
556.07	30.688
556.27	31.718
556.46	32.040
556.66	31.173
556.85	31.969
557.04	30.959
557.24	31.126
557.43	32.075
557.63	32.305
557.82	32.027
558.02	32.039
558.21	32.513
558.40	31.627
558.60	32.058
558.79	31.808
558.99	32.159
559.18	31.073
559.38	32.208
559.57	31.753
559.76	32.012
559.96	32.461
560.15	31.686
560.35	32.631
560.54	32.926
560.73	33.142
560.93	31.734
561.12	32.601
561.32	32.131
561.51	32.168
561.70	32.681
561.90	33.353
562.09	32.829
562.29	33.338
562.48	33.256
562.67	32.739
562.87	33.411
563.06	32.053
563.26	33.451
563.45	32.488
563.64	33.090
563.84	31.757
564.03	33.476
564.23	32.211
564.42	33.110
564.61	32.621
564.81	32.683
565.00	32.555
565.20	32.120
565.39	32.166
565.58	31.633
565.78	31.338
565.97	32.289
566.16	32.848
566.36	33.147
566.55	32.370
566.74	33.734
566.94	33.277
567.13	32.709
567.33	33.150
567.52	33.157
567.71	33.098
567.91	32.957
568.10	34.357
568.29	32.905
568.49	33.574
568.68	34.003
568.87	33.378
569.07	33.516
569.26	33.828
569.45	33.491
569.65	33.569
569.84	34.162
570.04	32.954
570.23	32.853
570.42	33.218
570.62	33.699
570.81	33.700
571.00	33.302
571.20	33.188
571.39	34.079
571.58	33.152
571.78	34.365
571.97	33.135
572.16	33.781
572.36	32.827
572.55	33.213
572.74	33.408
572.94	32.051
573.13	32.681
573.32	34.164
573.51	33.628
573.71	33.191
573.90	33.712
574.09	33.653
574.29	32.274
574.48	33.740
574.67	34.948
574.87	33.957
575.06	33.024
575.25	33.350
575.45	34.071
575.64	33.845
575.83	34.131
576.03	34.720
576.22	32.728
576.41	33.321
576.60	33.089
576.80	33.077
576.99	32.736
577.18	33.303
577.38	34.092
577.57	34.010
577.76	34.822
577.95	34.419
578.15	34.447
578.34	33.940
578.53	34.198
578.73	34.236
578.92	33.555
579.11	34.305
579.30	33.944
579.50	34.849
579.69	33.393
579.88	34.666
580.08	33.879
580.27	33.233
580.46	34.474
580.65	33.137
580.85	34.716
581.04	33.522
581.23	34.430
581.42	34.080
581.62	32.943
581.81	33.461
582.00	33.425
582.19	33.590
582.39	33.148
582.58	34.628
582.77	32.622
582.96	34.831
583.16	33.871
583.35	34.709
583.54	33.145
583.73	33.014
583.93	34.091
584.12	33.143
584.31	34.806
584.50	33.974
584.70	32.880
584.89	32.973
585.08	33.814
585.27	35.619
585.47	34.126
585.66	32.690
585.85	33.958
586.04	32.908
586.24	33.608
586.43	32.997
586.62	32.909
586.81	34.189
587.00	32.009
587.20	34.250
587.39	33.918
587.58	33.885
587.77	32.716
587.97	33.750
588.16	34.217
588.35	32.793
588.54	34.215
588.73	32.248
588.93	35.247
589.12	33.416
589.31	31.838
589.50	32.605
589.69	33.288
589.89	34.222
590.08	32.276
590.27	32.669
590.46	32.806
590.65	32.938
590.85	33.667
591.04	32.603
591.23	32.770
591.42	32.626
591.61	32.586
591.81	34.425
592.00	33.870
592.19	33.497
592.38	32.069
592.57	33.956
592.77	34.753
592.96	32.774
593.15	33.585
593.34	33.619
593.53	34.493
593.72	34.844
593.92	33.723
594.11	33.636
594.30	34.330
594.49	33.210
594.68	34.654
594.87	35.387
595.07	33.610
595.26	34.188
595.45	33.449
595.64	33.351
595.83	32.133
596.02	35.208
596.22	32.530
596.41	33.600
596.60	32.697
596.79	32.715
596.98	33.273
597.17	33.286
597.37	32.999
597.56	33.832
597.75	32.829
597.94	34.400
598.13	33.780
598.32	32.791
598.51	33.600
598.71	34.924
598.90	34.237
599.09	34.789
599.28	34.328
599.47	35.143
599.66	34.432
599.85	34.531
600.05	34.544
600.24	35.288
600.43	35.565
600.62	33.925
600.81	34.842
601.00	34.889
601.19	32.880
601.38	33.578
601.58	35.370
601.77	35.051
601.96	33.320
602.15	35.628
602.34	33.791
602.53	34.497
602.72	35.175
602.91	34.800
603.10	34.562
603.30	34.446
603.49	34.784
603.68	35.376
603.87	34.203
604.06	34.896
604.25	34.845
604.44	33.415
604.63	34.735
604.82	34.112
605.01	35.629
605.21	34.116
605.40	35.552
605.59	34.759
605.78	34.015
605.97	34.671
606.16	34.772
606.35	35.112
606.54	35.862
606.73	35.087
606.92	33.686
607.11	35.933
607.30	36.322
607.50	37.013
607.69	34.560
607.88	35.044
608.07	34.753
608.26	35.127
608.45	37.458
608.64	35.062
608.83	35.364
609.02	35.793
609.21	34.333
609.40	35.134
609.59	34.359
609.78	33.967
609.97	35.112
610.16	35.776
610.35	34.271
610.55	34.689
610.74	36.255
610.93	34.850
611.12	36.274
611.31	34.774
611.50	34.930
611.69	35.625
611.88	36.164
612.07	36.365
612.26	34.575
612.45	35.941
612.64	36.008
612.83	34.808
613.02	34.711
613.21	35.183
613.40	33.846
613.59	34.894
613.78	34.285
613.97	36.815
614.16	34.045
614.35	35.755
614.54	35.052
614.73	35.376
614.92	33.241
615.11	34.358
615.30	34.982
615.49	36.038
615.68	34.332
615.87	35.118
616.07	33.665
616.26	35.675
616.45	33.349
616.64	33.733
616.83	35.893
617.02	34.633
617.21	35.176
617.40	35.655
617.59	33.450
617.78	36.066
617.97	34.684
618.16	34.312
618.35	34.302
618.54	33.966
618.73	34.432
618.92	34.624
619.11	34.819
619.30	37.187
619.49	32.785
619.68	33.705
619.86	35.479
620.05	33.220
620.24	34.620
620.43	33.489
620.62	33.461
620.81	33.186
621.00	33.773
621.19	36.592
621.38	33.629
621.57	33.574
621.76	34.578
621.95	35.569
622.14	34.789
622.33	35.456
622.52	33.798
622.71	33.501
622.90	34.227
623.09	33.098
623.28	34.681
623.47	35.069
623.66	33.896
623.85	35.706
624.04	34.661
624.23	33.103
624.42	32.436
624.61	33.901
624.80	32.800
624.99	32.809
625.18	33.998
625.36	34.091
625.55	34.265
625.74	34.599
625.93	33.892
626.12	33.798
626.31	34.424
626.50	34.104
626.69	33.659
626.88	35.147
627.07	34.801
627.26	33.496
627.45	33.208
627.64	34.060
627.83	33.243
628.02	32.784
628.20	35.318
628.39	33.122
628.58	32.797
628.77	34.046
628.96	31.775
629.15	33.052
629.34	32.793
629.53	33.771
629.72	33.999
629.91	33.505
630.10	34.739
630.29	33.319
630.47	33.421
630.66	32.818
630.85	33.109
631.04	33.541
631.23	32.983
631.42	34.085
631.61	33.032
631.80	34.223
631.99	32.269
632.18	32.818
632.36	33.294
632.55	34.966
632.74	32.854
632.93	33.725
633.12	34.475
633.31	32.627
633.50	31.912
633.69	32.146
633.88	34.192
634.06	33.674
634.25	33.221
634.44	32.168
634.63	33.682
634.82	34.741
635.01	32.925
635.20	33.274
635.39	32.967
635.57	33.894
635.76	32.749
635.95	32.960
636.14	32.877
636.33	36.126
636.52	32.371
636.71	34.711
636.89	32.227
637.08	34.361
637.27	33.422
637.46	32.629
637.65	33.170
637.84	33.562
638.03	33.503
638.21	33.026
638.40	31.529
638.59	34.116
638.78	32.779
638.97	33.265
639.16	33.528
639.34	32.738
639.53	31.971
639.72	33.856
639.91	33.288
640.10	34.208
640.29	33.297
640.47	34.314
640.66	34.603
640.85	34.643
641.04	30.731
641.23	32.234
641.42	30.493
641.60	33.103
641.79	30.680
641.98	32.763
642.17	31.774
642.36	33.864
642.54	32.063
642.73	33.383
642.92	31.670
643.11	34.828
643.30	32.048
643.49	32.260
643.67	33.544
643.86	33.174
644.05	31.050
644.24	31.230
644.43	32.097
644.61	34.353
644.80	31.639
644.99	33.899
645.18	32.043
645.37	32.191
645.55	32.028
645.74	33.038
645.93	32.347
646.12	33.174
646.31	32.754
646.49	31.150
646.68	30.267
646.87	31.992
647.06	31.443
647.24	31.927
647.43	31.100
647.62	32.845
647.81	28.497
648.00	32.692
648.18	31.932
648.37	31.689
648.56	31.054
648.75	31.429
648.93	30.693
649.12	32.521
649.31	31.486
649.50	30.264
649.68	30.367
649.87	30.446
650.06	29.951
650.25	32.485
650.43	32.449
650.62	32.880
650.81	32.443
651.00	32.123
651.18	31.657
651.37	31.304
651.56	29.817
651.75	32.432
651.93	29.662
652.12	32.444
652.31	30.976
652.50	32.274
652.68	32.114
652.87	35.104
653.06	31.697
653.25	33.128
653.43	30.606
653.62	32.482
653.81	30.299
654.00	32.695
654.18	29.607
654.37	33.405
654.56	31.307
654.74	31.613
654.93	28.859
655.12	31.387
655.31	31.349
655.49	31.068
655.68	31.273
655.87	30.051
656.05	28.271
656.24	31.230
656.43	27.892
656.62	33.052
656.80	27.436
656.99	30.923
657.18	28.022
657.36	30.297
657.55	30.048
657.74	31.820
657.93	30.433
658.11	33.302
658.30	32.101
658.49	30.365
658.67	29.919
658.86	30.216
659.05	29.631
659.23	30.533
659.42	29.881
659.61	30.277
659.79	29.227
659.98	30.593
660.17	29.878
660.35	29.879
660.54	29.789
660.73	31.205
660.91	29.389
661.10	29.791
661.29	29.351
661.47	29.319
661.66	28.960
661.85	30.902
662.03	27.730
662.22	29.469
662.41	24.303
662.59	28.660
662.78	26.799
662.97	27.865
663.15	26.338
663.34	28.581
663.53	23.939
663.71	28.020
663.90	24.450
664.09	26.874
664.27	25.703
664.46	25.719
664.65	23.882
664.83	27.853
665.02	22.955
665.21	25.343
665.39	19.769
665.58	25.342
665.77	23.473
665.95	26.269
666.14	20.686
666.32	24.618
666.51	24.543
666.70	25.038
666.88	23.489
667.07	23.310
667.26	21.186
667.44	24.353
667.63	21.638
667.81	22.561
668.00	23.779
668.19	24.729
668.37	23.645
668.56	25.873
668.75	19.866
668.93	23.233
669.12	20.413
669.30	23.695
669.49	21.686
669.68	23.464
669.86	23.190
670.05	21.117
670.23	19.888
670.42	22.684
670.61	23.019
670.79	23.668
670.98	23.762
671.16	26.513
671.35	19.527
671.54	23.756
671.72	22.143
671.91	25.251
672.09	19.199
672.28	25.670
672.46	24.352
672.65	21.970
672.84	22.802
673.02	23.189
673.21	17.353
673.39	20.392
673.58	21.566
673.77	21.616
673.95	19.030
674.14	24.405
674.32	19.670
674.51	25.645
674.69	23.017
674.88	21.682
675.07	21.032
675.25	29.742
675.44	21.414
675.62	21.929
675.81	20.892
675.99	26.688
676.18	24.736
676.36	23.866
676.55	17.063
676.74	27.495
676.92	25.338
677.11	26.026
677.29	22.031
677.48	24.358
677.66	22.642
677.85	23.562
678.03	21.618
678.22	23.746
678.40	21.994
678.59	22.750
678.78	20.247
678.96	25.849
679.15	20.620
679.33	25.207
679.52	26.696
679.70	25.251
679.89	23.428
680.07	25.257
680.26	21.926
680.44	26.933
680.63	25.412
680.81	26.118
681.00	22.095
681.18	26.993
681.37	25.242
681.55	26.534
681.74	28.108
681.92	27.204
682.11	25.909
682.29	28.341
682.48	25.135
682.66	27.916
682.85	24.304
683.03	27.538
683.22	26.887
683.40	28.920
683.59	26.390
683.77	26.396
683.96	23.555
684.14	28.484
684.33	22.824
684.51	29.163
684.70	26.588
684.88	28.785
685.07	26.220
685.25	30.093
685.44	25.522
685.62	28.566
685.81	27.232
685.99	29.193
686.18	24.744
686.36	30.480
686.55	24.556
686.73	28.387
686.92	27.041
687.10	29.550
687.29	29.471
687.47	29.149
687.65	28.716
687.84	28.405
688.02	31.954
688.21	31.523
688.39	28.155
688.58	34.894
688.76	29.175
688.95	31.946
689.13	29.603
689.32	35.203
689.50	31.033
689.68	31.990
689.87	30.072
690.05	30.716
690.24	31.594
690.42	34.234
690.61	32.739
690.79	32.261
690.98	30.017
691.16	35.481
691.34	31.615
691.53	36.037
691.71	32.395
691.90	33.188
692.08	32.089
692.27	36.018
692.45	35.383
692.63	36.195
692.82	36.243
693.00	36.744
693.19	29.670
693.37	39.390
693.56	33.094
693.74	37.943
693.92	34.588
694.11	37.904
694.29	31.529
694.48	37.577
694.66	36.284
694.84	37.253
695.03	35.170
695.21	40.655
695.40	39.476
695.58	42.199
695.76	35.455
695.95	36.492
696.13	37.649
696.32	40.426
696.50	39.312
696.68	39.630
696.87	35.061
697.05	40.256
697.24	39.490
697.42	42.467
697.60	40.512
697.79	40.211
697.97	39.679
698.16	41.320
698.34	41.923
698.52	42.564
698.71	40.502
698.89	40.000
699.07	41.391
699.26	39.350
699.44	41.185
699.63	43.487
699.81	40.116
699.99	39.879
700.18	41.730
700.36	43.515
700.54	42.386
700.73	43.195
700.91	42.035
701.09	44.832
701.28	43.475
701.46	44.395
701.64	42.952
701.83	45.172
702.01	42.938
702.20	45.981
702.38	42.665
702.56	43.658
702.75	41.312
702.93	42.100
703.11	41.160
703.30	43.115
703.48	43.139
703.66	46.249
703.85	42.941
704.03	44.196
704.21	44.902
704.40	46.269
704.58	44.083
704.76	44.620
704.95	45.721
705.13	46.895
705.31	46.206
705.50	46.599
705.68	43.202
705.86	49.283
706.04	45.226
706.23	48.770
706.41	45.754
706.59	47.334
706.78	44.524
706.96	47.891
707.14	44.584
707.33	47.280
707.51	45.817
707.69	49.806
707.88	42.426
708.06	47.580
708.24	46.682
708.42	50.189
708.61	42.781
708.79	48.884
708.97	46.835
709.16	44.979
709.34	47.884
709.52	46.100
709.71	46.033
709.89	47.548
710.07	45.103
710.25	48.811
710.44	43.796
710.62	48.765
710.80	47.776
710.98	49.044
711.17	43.803
711.35	49.290
711.53	47.459
711.72	47.100
711.90	46.804
712.08	49.950
712.26	46.898
712.45	51.389
712.63	47.173
712.81	50.229
712.99	46.632
713.18	46.978
713.36	47.755
713.54	50.568
713.72	46.963
713.91	49.401
714.09	47.483
714.27	47.792
714.45	47.242
714.64	50.992
714.82	47.939
715.00	48.141
715.18	47.752
715.37	47.505
715.55	46.091
715.73	49.107
715.91	48.352
716.10	48.724
716.28	46.457
716.46	48.146
716.64	46.697
716.83	46.768
717.01	48.939
717.19	50.798
717.37	45.961
717.55	46.548
717.74	50.109
717.92	43.973
718.10	48.009
718.28	47.609
718.47	47.580
718.65	49.633
718.83	45.778
719.01	47.679
719.19	46.119
719.38	45.387
719.56	46.490
719.74	47.910
719.92	41.254
720.10	45.159
720.29	46.352
720.47	44.409
720.65	45.314
720.83	46.094
721.01	47.372
721.20	46.351
721.38	42.828
721.56	47.236
721.74	46.068
721.92	51.705
722.11	46.404
722.29	49.307
722.47	50.447
722.65	48.815
722.83	48.518
723.01	50.342
723.20	50.835
723.38	51.389
723.56	49.491
723.74	50.828
723.92	44.565
724.10	52.270
724.29	45.074
724.47	52.000
724.65	44.791
724.83	47.795
725.01	48.359
725.19	50.839
725.38	50.420
725.56	51.450
725.74	49.051
725.92	51.410
726.10	47.155
726.28	50.778
726.46	52.737
726.65	52.183
726.83	50.847
727.01	53.043
727.19	48.491
727.37	51.250
727.55	49.075
727.73	52.901
727.92	52.917
728.10	50.602
728.28	48.971
728.46	52.988
728.64	51.080
728.82	48.306
729.00	49.732
729.19	53.014
729.37	55.305
729.55	50.446
729.73	46.368
729.91	55.328
730.09	51.671
730.27	51.523
730.45	46.727
730.63	52.621
730.82	47.409
731.00	51.459
731.18	48.367
731.36	51.810
731.54	45.669
731.72	52.535
731.90	50.326
732.08	52.821
732.26	52.200
732.45	47.914
732.63	55.053
732.81	52.440
732.99	49.282
733.17	52.964
733.35	52.241
733.53	53.175
733.71	53.060
733.89	54.966
734.07	55.153
734.25	54.494
734.44	56.932
734.62	54.288
734.80	53.275
734.98	54.498
735.16	52.794
735.34	53.305
735.52	52.209
735.70	54.902
735.88	56.425
736.06	56.877
736.24	60.761
736.42	57.199
736.60	56.975
736.78	59.882
736.97	55.032
737.15	61.665
737.33	58.601
737.51	59.334
737.69	59.803
737.87	58.185
738.05	59.383
738.23	60.570
738.41	58.968
738.59	58.843
738.77	60.269
738.95	60.114
739.13	59.135
739.31	60.630
739.49	57.974
739.67	61.514
739.85	59.028
740.03	59.173
740.21	57.719
740.39	57.416
740.57	64.638
740.75	61.544
740.93	56.963
741.11	63.704
741.30	58.704
741.48	60.098
741.66	58.946
741.84	56.977
742.02	58.547
742.20	60.391
742.38	57.108
742.56	60.000
742.74	62.038
742.92	55.312
743.10	58.765
743.28	67.826
743.46	62.453
743.64	58.813
743.82	61.193
744.00	59.846
744.18	60.858
744.36	59.378
744.54	65.119
744.72	63.730
744.90	60.171
745.08	61.390
745.26	68.098
745.44	62.439
745.62	62.336
745.80	66.254
745.98	61.846
746.16	60.316
746.34	61.451
746.52	67.316
746.70	56.820
746.87	65.333
747.05	67.447
747.23	61.247
747.41	65.000
747.59	67.312
747.77	59.940
747.95	64.573
748.13	60.290
748.31	62.977
748.49	62.952
748.67	63.976
748.85	62.577
749.03	56.500
749.21	65.362
749.39	67.101
749.57	58.187
749.75	64.027
749.93	64.458
750.11	66.199
750.29	54.424
750.47	62.287
750.65	62.732
750.83	66.352
751.01	59.196
751.18	69.198
751.36	67.593
751.54	70.761
751.72	59.740
751.90	65.019
752.08	57.994
752.26	65.541
752.44	60.184
752.62	63.168
752.80	61.910
752.98	68.551
753.16	66.200
753.34	61.799
753.52	62.827
753.69	66.221
753.87	55.311
754.05	69.827
754.23	62.012
754.41	64.608
754.59	63.350
754.77	67.968
754.95	65.990
755.13	71.399
755.31	69.737
755.49	68.678
755.66	61.128
755.84	61.047
756.02	62.562
756.20	61.132
756.38	61.378
756.56	63.337
756.74	60.359
756.92	66.497
757.10	64.308
757.28	69.548
757.45	67.619
757.63	67.912
757.81	58.185
757.99	69.159
758.17	69.296
758.35	66.375
758.53	70.577
758.71	62.034
758.88	57.294
759.06	59.961
759.24	51.782
759.42	58.725
759.60	53.946
759.78	58.918
759.96	47.157
760.13	51.315
760.31	43.162
760.49	46.738
760.67	38.701
760.85	43.595
761.03	39.235
761.21	38.462
761.38	40.174
761.56	41.604
761.74	42.176
761.92	48.835
762.10	38.304
762.28	51.284
762.46	36.204
762.63	46.203
762.81	40.510
762.99	49.154
763.17	39.450
763.35	44.494
763.53	43.517
763.70	47.711
763.88	44.102
764.06	44.863
764.24	44.365
764.42	47.873
764.60	46.140
764.77	50.030
764.95	45.104
765.13	49.069
765.31	45.249
765.49	45.455
765.66	47.658
765.84	48.184
766.02	49.592
766.20	52.780
766.38	51.337
766.56	52.381
766.73	51.727
766.91	52.561
767.09	54.301
767.27	50.658
767.45	55.869
767.62	58.824
767.80	56.976
767.98	60.874
768.16	56.594
768.33	67.675
768.51	61.368
768.69	65.750
768.87	61.283
769.05	67.991
769.22	61.301
769.40	66.742
769.58	64.224
769.76	72.650
769.94	63.780
770.11	62.156
770.29	64.055
770.47	65.068
770.65	68.160
770.82	64.377
771.00	69.897
771.18	71.829
771.36	66.797
771.53	60.482
771.71	69.605
771.89	70.476
772.07	60.929
772.25	73.481
772.42	66.010
772.60	74.743
772.78	65.602
772.96	69.093
773.13	67.033
773.31	61.559
773.49	69.666
773.67	70.904
773.84	67.867
774.02	70.074
774.20	70.365
774.37	70.236
774.55	59.568
774.73	68.224
774.91	70.713
775.08	65.123
775.26	68.275
775.44	71.229
775.62	70.641
775.79	70.732
775.97	67.538
776.15	58.665
776.32	69.492
776.50	79.380
776.68	67.438
776.86	65.839
777.03	69.937
777.21	69.545
777.39	67.199
777.56	69.484
777.74	71.386
777.92	63.839
778.10	63.826
778.27	83.101
778.45	68.189
778.63	74.724
778.80	68.153
778.98	71.184
779.16	71.189
779.34	68.215
779.51	66.871
779.69	77.815
779.87	68.356
780.04	67.606
780.22	60.294
780.40	65.722
780.57	69.537
780.75	62.430
780.93	71.900
781.10	75.395
781.28	76.442
781.46	62.633
781.63	65.455
781.81	68.405
781.99	69.901
782.16	72.020
782.34	67.003
782.52	61.353
782.69	62.725
782.87	73.480
783.05	62.606
783.22	65.179
783.40	67.981
783.58	66.031
783.75	63.746
783.93	71.778
784.11	71.353
784.28	64.706
784.46	72.134
784.64	70.179
784.81	64.158
784.99	70.209
785.17	82.913
785.34	70.463
785.52	72.000
785.69	66.787
785.87	68.715
786.05	67.500
786.22	75.849
786.40	72.993
786.58	68.121
786.75	68.577
786.93	70.423
787.11	63.462
787.28	67.698
787.46	76.895
787.63	69.020
787.81	65.392
787.99	69.069
788.16	58.361
788.34	56.592
788.51	62.673
788.69	52.570
788.87	58.683
789.04	58.877
789.22	65.602
789.39	54.860
789.57	66.817
789.75	57.190
789.92	67.109
790.10	58.250
790.27	59.286
790.45	60.032
790.63	63.955
790.80	59.223
790.98	63.028
791.15	51.087
791.33	65.579
791.51	73.704
791.68	68.582
791.86	62.435
792.03	61.840
792.21	64.706
792.39	71.986
792.56	64.921
792.74	65.217
792.91	59.815
793.09	72.232
793.26	66.876
793.44	64.137
793.62	65.551
793.79	68.390
793.97	63.158
794.14	66.731
794.32	64.056
794.49	63.410
794.67	68.496
794.84	64.361
795.02	63.327
795.20	57.467
795.37	60.200
795.55	60.217
795.72	63.993
795.90	61.404
796.07	58.929
796.25	60.217
796.42	56.818
796.60	52.588
796.77	66.548
796.95	65.642
797.13	59.130
797.30	73.477
797.48	48.600
797.65	59.069
797.83	62.167
798.00	64.739
798.18	60.110
798.35	65.690
798.53	69.515
798.70	46.903
798.88	66.468
799.05	63.102
799.23	56.831
799.40	61.210
799.58	60.174
799.75	65.969
799.93	48.948
800.10	65.038
800.28	63.147
800.45	57.344
800.63	46.008
800.80	67.806
800.98	56.333
801.15	60.289
801.33	60.078
801.50	48.925
801.68	58.261
801.85	68.340
802.03	63.527
802.20	67.879
802.38	66.854
802.55	69.295
802.73	60.501
802.90	48.081
803.08	61.584
803.25	66.333
803.43	59.631
803.60	71.523
803.78	56.582
803.95	59.524
804.13	56.679
804.30	55.705
804.48	67.904
804.65	62.921
804.83	61.972
805.00	65.784
805.17	66.311
805.35	60.589
805.52	50.916
805.70	70.747
805.87	64.122
806.05	62.048
806.22	66.458
806.40	61.815
806.57	66.860
806.75	64.344
806.92	62.346
807.09	62.526
807.27	64.286
807.44	66.798
807.62	56.084
807.79	54.019
807.97	53.200
808.14	55.509
808.31	53.289
808.49	61.229
808.66	56.543
808.84	57.746
809.01	64.828
809.19	64.085
809.36	63.466
809.53	70.938
809.71	59.615
809.88	67.574
810.06	62.144
810.23	65.702
810.41	61.216
810.58	65.777
810.75	53.421
810.93	63.014
811.10	59.170
811.28	59.326
811.45	68.922
811.62	63.427
811.80	58.040
811.97	64.824
812.15	61.048
812.32	56.545
812.49	62.162
812.67	63.723
812.84	59.375
813.02	83.598
813.19	62.712
813.36	66.851
813.54	49.118
813.71	55.412
813.89	60.104
814.06	49.875
814.23	59.412
814.41	51.263
814.58	56.749
814.75	62.125
814.93	60.396
815.10	51.724
815.28	64.677
815.45	59.016
815.62	60.920
815.80	47.368
815.97	41.500
816.14	50.928
816.32	56.848
816.49	56.201
816.66	50.667
816.84	38.497
817.01	48.380
817.18	55.614
817.36	52.442
817.53	59.223
817.71	41.131
817.88	49.537
818.05	58.465
818.23	41.849
818.40	50.400
818.57	51.936
818.75	39.368
818.92	55.639
819.09	43.073
819.27	43.500
819.44	44.181
819.61	49.423
819.79	48.098
819.96	45.205
820.13	44.378
820.31	51.313
820.48	57.434
820.65	48.073
820.82	49.529
821.00	38.422
821.17	38.542
821.34	42.602
821.52	38.741
821.69	44.074
821.86	39.030
822.04	42.897
822.21	39.829
822.38	44.415
822.56	38.505
822.73	41.734
822.90	42.081
823.07	43.816
823.25	40.892
823.42	41.320
823.59	44.843
823.77	43.885
823.94	41.506
824.11	41.861
824.29	39.163
824.46	44.070
824.63	42.732
824.80	43.626
824.98	39.446
825.15	42.054
825.32	38.941
825.49	42.830
825.67	36.383
825.84	41.790
826.01	40.417
826.19	43.917
826.36	40.000
826.53	42.091
826.70	37.033
826.88	43.886
827.05	30.675
827.22	38.203
827.39	36.475
827.57	43.421
827.74	33.087
827.91	41.692
828.08	33.541
828.26	43.368
828.43	37.774
828.60	42.002
828.77	39.350
828.95	37.101
829.12	38.512
829.29	36.338
829.46	35.238
829.64	36.837
829.81	35.982
829.98	41.294
830.15	38.979
830.32	42.520
830.50	29.360
830.67	43.212
830.84	36.594
831.01	47.611
831.19	37.593
831.36	44.622
831.53	42.601
831.70	46.897
831.87	36.864
832.05	49.533
832.22	56.889
832.39	49.409
832.56	57.784
832.74	42.396
832.91	36.160
833.08	51.068
833.25	40.640
833.42	45.094
833.60	44.909
833.77	42.361
833.94	37.220
834.11	34.987
834.28	35.272
834.45	37.835
834.63	38.124
834.80	40.433
834.97	42.680
835.14	36.596
835.31	32.196
835.49	36.257
835.66	38.500
835.83	38.668
836.00	38.616
836.17	43.439
836.34	38.507
836.52	35.583
836.69	40.031
836.86	42.446
837.03	38.795
837.20	42.778
837.37	37.205
837.55	47.708
837.72	38.952
837.89	59.848
838.06	62.857
838.23	49.510
838.40	54.819
838.58	44.669
838.75	51.815
838.92	67.802
839.09	70.103
839.26	66.007
839.43	60.410
839.60	45.345
839.78	70.779
839.95	45.777
840.12	66.894
840.29	57.627
840.46	54.601
840.63	72.100
840.80	69.903
840.98	63.141
841.15	54.687
841.32	59.394
841.49	60.131
841.66	49.114
841.83	63.975
842.00	53.488
842.17	58.807
842.34	51.014
842.52	74.000
842.69	55.932
842.86	62.403
843.03	69.004
843.20	60.153
843.37	67.159
843.54	54.307
843.71	65.179
843.88	87.111
844.06	84.800
844.23	65.238
844.40	78.667
844.57	71.823
844.74	80.488
844.91	69.565
845.08	96.591
845.25	73.430
845.42	66.129
845.59	74.211
845.76	68.718
845.94	94.554
846.11	87.671
846.28	84.524
846.45	113.483
846.62	90.909
846.79	104.110
846.96	82.716
847.13	95.349
847.30	85.517
847.47	80.576
847.64	132.558
847.81	120.339
847.98	55.779
848.15	118.248
848.32	94.969
848.50	116.168
848.67	66.092
848.84	73.288
849.01	84.358
849.18	85.052
849.35	106.250
849.52	72.414
849.69	92.715
849.86	134.014
850.03	88.806
850.20	91.228
850.37	95.798
850.54	93.296
850.71	98.013
850.88	81.564
851.05	105.932
851.22	88.202
851.39	123.423
851.56	118.750
851.73	69.811
851.90	92.547
852.07	124.812
852.24	117.105
852.41	97.143
852.58	102.817
852.75	149.425
852.92	92.195
853.09	107.031
853.26	76.720
853.43	124.528
853.60	83.708
853.77	125.316
853.94	113.869
854.11	96.503
854.28	105.600
854.45	79.687
854.62	92.386
854.79	90.850
854.96	118.400
855.13	98.830
855.30	146.939
855.47	109.483
855.64	118.045
855.81	89.247
855.98	56.349
856.15	100.000
856.32	76.730
856.49	103.101
856.66	82.517
856.83	74.242
857.00	70.588
857.17	99.231
857.34	66.316
857.51	101.439
857.68	95.135
857.85	96.591
858.02	72.593
858.19	97.297
858.36	104.545
858.53	65.161
858.70	91.617
858.87	97.468
859.04	72.581
859.21	70.270
859.38	112.281
859.55	107.463
859.72	119.540
859.89	82.734
860.05	130.631
860.22	82.199
860.39	123.214
860.56	77.099
860.73	139.024
860.90	99.083
861.07	75.000
861.24	94.079
861.41	124.074
861.58	135.417
861.75	88.148
861.92	96.053
862.09	105.185
862.26	109.402
862.43	110.891
862.59	108.824
862.76	108.392
862.93	131.461
863.10	79.048
863.27	70.940
863.44	88.506
863.61	81.752
863.78	99.429
863.95	97.386
864.12	91.379
864.29	114.530
864.45	91.379
864.62	76.271
864.79	75.194
864.96	86.992
865.13	90.991
865.30	92.547
865.47	109.146
865.64	82.014
865.81	101.527
865.97	98.667
866.14	87.075
866.31	108.333
866.48	77.483
866.65	79.487
866.82	68.987
866.99	77.778
867.16	102.256
867.33	81.720
867.49	111.111
867.66	84.536
867.83	84.252
868.00	99.315
868.17	62.810
868.34	74.561
868.51	116.190
868.67	108.861
868.84	82.500
869.01	101.600
869.18	93.617
869.35	93.023
869.52	77.778
869.69	117.808
869.85	87.850
870.02	57.692
870.19	114.407
870.36	128.966
870.53	50.714
870.70	104.403
870.86	93.000
871.03	77.778
871.20	52.294
871.37	103.448
871.54	68.919
871.71	75.000
871.87	71.069
872.04	53.143
872.21	99.130
872.38	83.740
872.55	90.123
872.72	125.000
872.88	106.704
873.05	82.759
873.22	92.517
873.39	110.204
873.56	86.391
873.72	67.059
873.89	75.155
874.06	70.149
874.23	84.746
874.40	95.000
874.56	112.632
874.73	80.488
874.90	94.068
875.07	83.571
875.24	93.168
875.40	72.269
875.57	98.165
875.74	89.600
875.91	89.908
876.08	111.304
876.24	84.884
876.41	122.400
876.58	75.532
876.75	84.397
876.92	72.794
877.08	78.676
877.25	94.783
877.42	103.125
877.59	141.837
877.75	94.667
877.92	80.952
878.09	96.875
878.26	68.862
878.42	91.875
878.59	88.696
878.76	85.526
878.93	76.866
879.09	51.515
879.26	53.049
879.43	81.081
879.60	97.203
879.76	65.341
879.93	58.333
880.10	47.333
880.27	45.963
880.43	65.922
880.60	49.315
880.77	75.000
880.94	41.294
881.10	45.723
881.27	29.836
881.44	26.912
881.61	38.789
881.77	37.667
881.94	27.613
882.11	29.225
882.28	27.184
882.44	22.727
882.61	27.145
882.78	27.945
882.94	31.304
883.11	31.560
883.28	27.482
883.45	30.300
883.61	27.070
883.78	30.860
883.95	27.934
884.11	26.692
884.28	31.959
>>>>>End Processed Spectral Data<<<<<
