SpectraSuite Data File
++++++++++++++++++++++++++++++++++++
Date: Sat Sep 21 04:24:04 EST 2019
User: sgrac
Dark Spectrum Present: Yes
Reference Spectrum Present: Yes
Number of Sampled Component Spectra: 1
Spectrometers: USB4E01596
Integration Time (usec): 100000 (USB4E01596)
Spectra Averaged: 1 (USB4E01596)
Boxcar Smoothing: 0 (USB4E01596)
Correct for Electrical Dark: No (USB4E01596)
Strobe/Lamp Enabled: Yes (USB4E01596)
Correct for Detector Non-linearity: No (USB4E01596)
Correct for Stray Light: No (USB4E01596)
Number of Pixels in Processed Spectrum: 3648
>>>>>Begin Processed Spectral Data<<<<<
178.44	-307.143
178.66	-307.143
178.87	-307.143
179.09	-471.429
179.30	-453.846
179.52	0.000
179.74	-975.000
179.95	1083.333
180.17	533.333
180.38	9700.000
180.60	0.000
180.82	950.000
181.03	-447.368
181.25	456.522
181.46	-193.548
181.68	270.833
181.89	8100.000
182.11	340.000
182.33	-164.444
182.54	-290.625
182.76	-3850.000
182.97	600.000
183.19	2200.000
183.40	175.862
183.62	-81.481
183.84	-137.037
184.05	343.478
184.27	483.333
184.48	1028.571
184.70	208.000
184.91	-620.000
185.13	155.556
185.34	-146.429
185.56	168.333
185.78	0.000
185.99	533.333
186.21	331.034
186.42	420.000
186.64	206.452
186.85	337.037
187.07	174.545
187.28	433.333
187.50	-393.333
187.72	760.000
187.93	-9600.000
188.15	272.000
188.36	-235.294
188.58	-2300.000
188.79	368.182
189.01	361.111
189.22	1400.000
189.44	3900.000
189.65	326.667
189.87	1037.500
190.09	-1440.000
190.30	568.750
190.52	-4500.000
190.73	182.143
190.95	435.714
191.16	246.667
191.38	900.000
191.59	180.952
191.81	283.333
192.02	197.872
192.24	605.882
192.45	-1860.000
192.67	325.714
192.88	508.333
193.10	416.000
193.31	455.000
193.53	-8200.000
193.74	146.341
193.96	558.333
194.18	322.581
194.39	-322.222
194.61	515.789
194.82	538.095
195.04	309.524
195.25	4700.000
195.47	170.732
195.68	251.064
195.90	1360.000
196.11	200.000
196.33	142.553
196.54	-3500.000
196.76	353.571
196.97	-3000.000
197.19	425.000
197.40	229.412
197.62	159.375
197.83	136.486
198.05	-384.211
198.26	314.286
198.48	186.111
198.69	206.977
198.91	260.784
199.12	-240.000
199.34	-1660.000
199.55	4500.000
199.77	1950.000
199.98	216.000
200.20	105.634
200.41	550.000
200.63	-688.889
200.84	192.157
201.06	892.308
201.27	275.676
201.49	1487.500
201.70	240.741
201.91	226.087
202.13	117.391
202.34	226.415
202.56	-1714.286
202.77	866.667
202.99	600.000
203.20	3650.000
203.42	987.500
203.63	190.698
203.85	262.857
204.06	225.926
204.28	-1060.000
204.49	237.143
204.71	197.436
204.92	0.000
205.14	-571.429
205.35	500.000
205.56	-2500.000
205.78	609.524
205.99	980.000
206.21	-219.355
206.42	400.000
206.64	321.429
206.85	1950.000
207.07	-492.308
207.28	528.571
207.50	-673.684
207.71	166.667
207.93	238.636
208.14	658.824
208.35	226.316
208.57	-9000.000
208.78	807.692
209.00	527.778
209.21	-4200.000
209.43	262.069
209.64	252.941
209.86	557.143
210.07	0.000
210.28	-629.412
210.50	126.531
210.71	217.544
210.93	419.048
211.14	-372.222
211.36	-309.677
211.57	-180.952
211.78	-252.174
212.00	0.000
212.21	230.233
212.43	-254.545
212.64	131.034
212.86	-487.500
213.07	-309.091
213.29	260.526
213.50	5500.000
213.71	186.792
213.93	1571.429
214.14	154.545
214.36	6800.000
214.57	419.231
214.78	618.750
215.00	4900.000
215.21	111.111
215.43	360.000
215.64	294.872
215.86	168.571
216.07	4800.000
216.28	260.000
216.50	-885.714
216.71	-1720.000
216.93	214.894
217.14	296.875
217.35	348.148
217.57	300.000
217.78	850.000
218.00	-140.000
218.21	394.737
218.42	-3000.000
218.64	652.941
218.85	-600.000
219.07	757.143
219.28	1225.000
219.49	128.947
219.71	1566.667
219.92	319.444
220.14	270.833
220.35	470.000
220.56	182.051
220.78	317.647
220.99	-8600.000
221.21	338.095
221.42	291.667
221.63	245.000
221.85	166.129
222.06	146.429
222.28	313.636
222.49	-2900.000
222.70	0.000
222.92	211.111
223.13	153.333
223.34	-1950.000
223.56	228.947
223.77	106.742
223.99	282.051
224.20	180.952
224.41	235.135
224.63	263.889
224.84	156.897
225.05	225.000
225.27	168.571
225.48	204.348
225.69	857.143
225.91	351.852
226.12	344.444
226.34	78.431
226.55	127.778
226.76	146.774
226.98	158.000
227.19	134.091
227.40	80.165
227.62	46.341
227.83	84.000
228.04	107.692
228.26	71.287
228.47	125.862
228.69	65.789
228.90	53.521
229.11	42.963
229.33	57.005
229.54	40.132
229.75	37.826
229.97	49.356
230.18	27.957
230.39	5.907
230.61	28.931
230.82	45.643
231.03	21.162
231.25	31.650
231.46	25.182
231.67	57.312
231.89	44.314
232.10	29.960
232.31	58.173
232.53	46.893
232.74	55.729
232.95	57.831
233.17	54.913
233.38	44.776
233.59	68.382
233.81	46.117
234.02	53.947
234.23	54.011
234.45	74.342
234.66	63.277
234.87	25.503
235.09	79.259
235.30	24.138
235.51	55.825
235.73	40.252
235.94	45.596
236.15	39.796
236.36	42.328
236.58	39.336
236.79	43.455
237.00	33.816
237.22	38.889
237.43	54.902
237.64	30.131
237.86	43.478
238.07	77.387
238.28	66.667
238.50	40.870
238.71	12.426
238.92	27.381
239.13	66.286
239.35	46.853
239.56	34.896
239.77	54.146
239.99	25.472
240.20	31.579
240.41	27.155
240.63	26.721
240.84	35.060
241.05	34.307
241.26	42.149
241.48	29.794
241.69	29.747
241.90	30.704
242.12	29.847
242.33	26.293
242.54	21.322
242.75	20.873
242.97	18.966
243.18	21.044
243.39	20.387
243.61	14.993
243.82	20.559
244.03	13.237
244.24	11.963
244.46	12.444
244.67	12.874
244.88	16.745
245.09	20.868
245.31	13.244
245.52	20.772
245.73	21.401
245.95	24.307
246.16	18.655
246.37	21.124
246.58	21.682
246.80	15.311
247.01	17.496
247.22	11.039
247.43	14.157
247.65	17.241
247.86	8.309
248.07	8.361
248.28	11.453
248.50	7.396
248.71	10.132
248.92	9.025
249.13	10.623
249.35	12.500
249.56	12.073
249.77	11.311
249.98	9.560
250.20	15.000
250.41	16.313
250.62	6.988
250.83	13.402
251.05	16.693
251.26	9.982
251.47	23.604
251.68	20.658
251.90	16.848
252.11	16.551
252.32	16.695
252.53	15.397
252.75	13.760
252.96	23.397
253.17	13.315
253.38	14.730
253.59	17.797
253.81	12.346
254.02	11.011
254.23	20.755
254.44	19.937
254.66	18.678
254.87	23.646
255.08	11.905
255.29	30.723
255.50	27.097
255.72	23.624
255.93	24.574
256.14	19.545
256.35	22.717
256.57	16.535
256.78	26.712
256.99	21.204
257.20	23.301
257.41	27.950
257.63	16.360
257.84	26.141
258.05	20.833
258.26	20.541
258.47	21.467
258.69	11.620
258.90	12.422
259.11	14.353
259.32	10.569
259.53	8.981
259.75	12.022
259.96	7.984
260.17	13.016
260.38	8.091
260.59	8.741
260.81	8.301
261.02	7.328
261.23	10.613
261.44	7.080
261.65	6.678
261.87	5.455
262.08	7.855
262.29	9.060
262.50	11.119
262.71	8.136
262.92	13.948
263.14	11.453
263.35	8.826
263.56	11.059
263.77	15.527
263.98	13.624
264.20	16.969
264.41	4.834
264.62	15.768
264.83	11.582
265.04	22.315
265.25	8.285
265.47	17.825
265.68	12.682
265.89	15.308
266.10	12.007
266.31	24.467
266.52	14.979
266.74	7.610
266.95	8.377
267.16	13.531
267.37	11.500
267.58	8.452
267.79	10.234
268.01	9.560
268.22	12.076
268.43	11.546
268.64	12.880
268.85	10.032
269.06	9.100
269.27	13.749
269.49	7.380
269.70	11.111
269.91	12.166
270.12	9.241
270.33	16.122
270.54	10.950
270.75	7.485
270.97	13.580
271.18	11.692
271.39	12.348
271.60	10.436
271.81	8.106
272.02	12.522
272.23	11.265
272.45	11.256
272.66	5.819
272.87	5.119
273.08	5.496
273.29	11.862
273.50	10.609
273.71	8.207
273.92	8.365
274.14	6.873
274.35	8.016
274.56	12.269
274.77	6.925
274.98	11.957
275.19	10.568
275.40	12.124
275.61	11.623
275.83	13.430
276.04	11.509
276.25	11.078
276.46	9.729
276.67	8.419
276.88	13.237
277.09	9.019
277.30	9.875
277.51	15.123
277.73	6.200
277.94	7.652
278.15	11.561
278.36	7.599
278.57	10.861
278.78	14.700
278.99	13.463
279.20	11.991
279.41	17.378
279.62	10.150
279.84	10.526
280.05	8.879
280.26	7.039
280.47	9.980
280.68	6.114
280.89	9.327
281.10	12.661
281.31	8.555
281.52	18.470
281.73	11.916
281.94	8.091
282.16	10.488
282.37	12.616
282.58	12.666
282.79	13.014
283.00	11.947
283.21	7.903
283.42	6.703
283.63	8.638
283.84	8.281
284.05	11.647
284.26	13.753
284.47	9.922
284.68	12.138
284.89	7.182
285.11	8.909
285.32	6.782
285.53	7.154
285.74	11.397
285.95	11.027
286.16	7.209
286.37	7.161
286.58	4.525
286.79	7.563
287.00	8.212
287.21	4.923
287.42	8.639
287.63	9.611
287.84	7.547
288.05	6.309
288.26	8.859
288.48	9.947
288.69	7.796
288.90	7.299
289.11	11.285
289.32	7.626
289.53	9.311
289.74	6.071
289.95	9.815
290.16	10.969
290.37	7.178
290.58	8.809
290.79	9.097
291.00	8.091
291.21	5.933
291.42	6.878
291.63	4.735
291.84	11.924
292.05	7.162
292.26	7.559
292.47	7.350
292.68	5.479
292.89	7.639
293.10	10.365
293.31	10.606
293.52	4.917
293.73	8.514
293.94	6.623
294.15	7.050
294.36	4.903
294.57	10.502
294.79	9.154
295.00	9.907
295.21	6.968
295.42	10.090
295.63	6.495
295.84	6.211
296.05	6.014
296.26	7.568
296.47	5.867
296.68	8.665
296.89	5.900
297.10	8.236
297.31	5.479
297.52	10.048
297.73	6.597
297.94	7.258
298.15	6.431
298.36	8.588
298.57	5.577
298.78	6.513
298.99	3.064
299.20	5.442
299.41	6.846
299.62	6.266
299.83	7.039
300.04	6.843
300.25	7.984
300.46	9.772
300.67	6.746
300.88	8.877
301.09	4.431
301.30	9.171
301.50	9.592
301.71	10.063
301.92	9.425
302.13	6.526
302.34	8.112
302.55	5.314
302.76	8.116
302.97	10.056
303.18	6.839
303.39	5.134
303.60	5.919
303.81	8.178
304.02	7.714
304.23	8.386
304.44	7.148
304.65	5.115
304.86	8.134
305.07	4.032
305.28	7.572
305.49	8.672
305.70	7.878
305.91	8.969
306.12	4.604
306.33	6.505
306.54	6.456
306.75	9.852
306.96	11.214
307.17	8.693
307.38	4.809
307.58	10.192
307.79	5.923
308.00	8.899
308.21	7.639
308.42	7.687
308.63	9.032
308.84	11.025
309.05	8.024
309.26	7.518
309.47	7.746
309.68	4.577
309.89	9.957
310.10	7.170
310.31	5.670
310.52	4.906
310.73	9.379
310.94	4.309
311.14	6.536
311.35	7.330
311.56	4.650
311.77	6.667
311.98	6.400
312.19	6.630
312.40	5.658
312.61	5.838
312.82	9.516
313.03	6.253
313.24	5.288
313.45	6.395
313.66	6.977
313.86	8.323
314.07	8.417
314.28	6.993
314.49	8.453
314.70	7.274
314.91	10.939
315.12	8.112
315.33	6.860
315.54	9.135
315.75	9.390
315.96	7.932
316.16	6.897
316.37	8.425
316.58	6.283
316.79	7.429
317.00	10.690
317.21	8.071
317.42	7.103
317.63	10.549
317.84	8.417
318.05	9.034
318.25	7.752
318.46	11.111
318.67	4.720
318.88	8.217
319.09	10.000
319.30	8.100
319.51	6.830
319.72	8.739
319.93	7.343
320.13	10.679
320.34	10.922
320.55	6.731
320.76	9.361
320.97	9.578
321.18	10.147
321.39	7.386
321.60	8.026
321.80	11.727
322.01	9.141
322.22	9.813
322.43	6.082
322.64	6.427
322.85	6.293
323.06	6.619
323.27	9.397
323.47	7.042
323.68	9.448
323.89	8.390
324.10	6.441
324.31	8.413
324.52	7.552
324.73	8.506
324.93	7.179
325.14	7.186
325.35	7.518
325.56	9.058
325.77	7.244
325.98	7.637
326.19	8.612
326.39	5.794
326.60	7.233
326.81	5.941
327.02	9.672
327.23	5.989
327.44	8.550
327.64	5.737
327.85	5.980
328.06	11.361
328.27	11.627
328.48	9.553
328.69	6.767
328.90	6.956
329.10	9.423
329.31	7.510
329.52	10.150
329.73	8.399
329.94	6.233
330.15	8.211
330.35	8.711
330.56	7.651
330.77	6.287
330.98	9.872
331.19	10.429
331.39	7.708
331.60	8.530
331.81	9.146
332.02	10.643
332.23	7.632
332.44	8.179
332.64	6.762
332.85	9.218
333.06	9.333
333.27	6.340
333.48	6.916
333.68	8.457
333.89	7.459
334.10	2.056
334.31	9.677
334.52	7.606
334.72	7.515
334.93	9.301
335.14	7.722
335.35	5.396
335.56	10.677
335.76	6.553
335.97	10.000
336.18	8.344
336.39	9.218
336.60	11.905
336.80	8.338
337.01	8.474
337.22	7.388
337.43	11.415
337.64	10.851
337.84	7.082
338.05	8.054
338.26	11.378
338.47	10.339
338.68	6.530
338.88	8.869
339.09	9.581
339.30	9.032
339.51	8.598
339.71	9.513
339.92	8.420
340.13	11.353
340.34	10.481
340.55	9.976
340.75	9.741
340.96	6.949
341.17	11.883
341.38	9.014
341.58	7.397
341.79	7.130
342.00	6.678
342.21	8.836
342.41	7.918
342.62	8.666
342.83	10.937
343.04	5.134
343.24	9.724
343.45	11.782
343.66	7.904
343.87	11.056
344.07	7.040
344.28	12.149
344.49	13.139
344.70	15.728
344.90	9.984
345.11	8.570
345.32	9.783
345.53	9.057
345.73	9.137
345.94	14.138
346.15	11.768
346.36	11.702
346.56	13.607
346.77	13.297
346.98	8.990
347.19	11.884
347.39	12.041
347.60	11.854
347.81	13.096
348.02	12.711
348.22	7.953
348.43	11.129
348.64	11.172
348.84	12.718
349.05	12.443
349.26	15.722
349.47	9.751
349.67	11.937
349.88	15.582
350.09	11.302
350.30	13.745
350.50	10.864
350.71	12.507
350.92	12.747
351.12	11.716
351.33	10.800
351.54	12.046
351.74	13.263
351.95	8.885
352.16	16.139
352.37	14.747
352.57	11.682
352.78	10.452
352.99	15.850
353.19	11.983
353.40	11.454
353.61	15.441
353.82	11.234
354.02	13.134
354.23	13.830
354.44	13.951
354.64	16.398
354.85	11.959
355.06	13.749
355.26	8.626
355.47	12.637
355.68	15.669
355.88	17.433
356.09	15.599
356.30	11.922
356.51	13.590
356.71	14.034
356.92	11.002
357.13	16.038
357.33	15.931
357.54	12.732
357.75	9.862
357.95	14.778
358.16	12.648
358.37	19.248
358.57	12.402
358.78	18.647
358.99	13.257
359.19	13.790
359.40	17.427
359.61	14.884
359.81	16.994
360.02	15.740
360.23	12.358
360.43	14.095
360.64	13.394
360.85	15.537
361.05	12.505
361.26	19.701
361.47	13.280
361.67	19.160
361.88	11.411
362.09	18.137
362.29	14.012
362.50	13.371
362.70	11.724
362.91	18.498
363.12	14.691
363.32	15.593
363.53	16.881
363.74	18.662
363.94	10.573
364.15	19.175
364.36	17.060
364.56	15.912
364.77	15.728
364.98	19.890
365.18	15.793
365.39	18.724
365.59	13.735
365.80	15.905
366.01	15.714
366.21	15.640
366.42	11.974
366.63	18.008
366.83	15.345
367.04	11.183
367.24	16.718
367.45	14.590
367.66	9.985
367.86	14.983
368.07	13.211
368.28	15.293
368.48	13.040
368.69	12.918
368.89	13.534
369.10	16.499
369.31	12.634
369.51	14.657
369.72	15.094
369.92	17.807
370.13	10.262
370.34	16.738
370.54	7.870
370.75	15.603
370.95	12.376
371.16	15.973
371.37	12.935
371.57	13.093
371.78	12.598
371.98	15.351
372.19	14.092
372.40	16.661
372.60	15.791
372.81	16.554
373.01	9.131
373.22	14.291
373.43	14.561
373.63	16.627
373.84	13.552
374.04	15.206
374.25	12.712
374.46	18.339
374.66	13.859
374.87	15.716
375.07	10.272
375.28	14.368
375.48	12.000
375.69	17.407
375.90	10.786
376.10	11.810
376.31	13.317
376.51	11.892
376.72	11.629
376.92	12.203
377.13	15.060
377.34	16.753
377.54	13.982
377.75	17.070
377.95	14.502
378.16	15.714
378.36	15.420
378.57	17.950
378.77	15.128
378.98	17.629
379.19	15.543
379.39	13.831
379.60	14.003
379.80	15.772
380.01	16.683
380.21	14.818
380.42	16.101
380.62	14.738
380.83	16.008
381.04	14.569
381.24	15.928
381.45	15.335
381.65	12.273
381.86	17.369
382.06	15.693
382.27	10.547
382.47	12.577
382.68	17.893
382.88	10.343
383.09	13.696
383.29	12.998
383.50	17.803
383.71	13.227
383.91	16.436
384.12	11.767
384.32	16.230
384.53	13.817
384.73	11.246
384.94	11.773
385.14	13.514
385.35	12.365
385.55	16.094
385.76	12.601
385.96	14.732
386.17	15.300
386.37	16.947
386.58	12.744
386.78	17.181
386.99	11.156
387.19	16.020
387.40	12.383
387.60	18.670
387.81	14.265
388.01	14.011
388.22	16.845
388.42	18.391
388.63	17.354
388.83	19.940
389.04	13.221
389.24	16.695
389.45	13.552
389.65	17.137
389.86	15.311
390.06	13.582
390.27	12.305
390.47	14.501
390.68	14.278
390.88	17.703
391.09	16.448
391.29	16.713
391.50	15.981
391.70	16.858
391.91	13.932
392.11	15.255
392.32	15.814
392.52	18.683
392.73	15.843
392.93	18.309
393.14	16.457
393.34	16.942
393.55	15.800
393.75	16.867
393.95	15.456
394.16	18.314
394.36	19.172
394.57	19.921
394.77	16.482
394.98	16.271
395.18	17.518
395.39	17.002
395.59	16.739
395.80	17.805
396.00	16.204
396.21	19.092
396.41	14.358
396.61	19.452
396.82	14.789
397.02	19.979
397.23	18.539
397.43	16.063
397.64	12.274
397.84	18.772
398.05	12.544
398.25	17.226
398.45	15.016
398.66	18.570
398.86	15.556
399.07	19.004
399.27	13.852
399.48	17.845
399.68	14.370
399.89	16.375
400.09	17.336
400.29	15.178
400.50	14.611
400.70	17.797
400.91	14.662
401.11	15.892
401.32	15.956
401.52	13.874
401.72	14.657
401.93	20.457
402.13	15.668
402.34	16.649
402.54	14.106
402.75	19.372
402.95	11.989
403.15	19.536
403.36	12.345
403.56	16.989
403.77	13.692
403.97	15.343
404.17	13.628
404.38	17.474
404.58	13.797
404.79	16.738
404.99	15.618
405.19	17.062
405.40	14.213
405.60	17.493
405.81	15.800
406.01	16.117
406.21	15.933
406.42	16.631
406.62	16.488
406.83	17.587
407.03	16.647
407.23	15.103
407.44	14.596
407.64	16.860
407.85	17.220
408.05	16.779
408.25	13.377
408.46	17.568
408.66	15.962
408.87	15.950
409.07	14.144
409.27	15.547
409.48	14.326
409.68	16.949
409.88	12.142
410.09	16.106
410.29	16.082
410.50	17.506
410.70	11.487
410.90	15.437
411.11	13.782
411.31	13.757
411.51	15.753
411.72	17.380
411.92	12.660
412.12	14.497
412.33	12.363
412.53	15.346
412.74	12.655
412.94	15.501
413.14	13.625
413.35	17.346
413.55	13.914
413.75	17.081
413.96	13.280
414.16	13.508
414.36	15.873
414.57	14.682
414.77	14.391
414.97	16.032
415.18	14.761
415.38	15.899
415.58	13.449
415.79	14.416
415.99	14.147
416.19	15.814
416.40	15.792
416.60	15.795
416.80	13.768
417.01	16.991
417.21	12.931
417.41	17.966
417.62	15.401
417.82	16.187
418.02	14.808
418.23	16.896
418.43	16.487
418.63	17.379
418.84	17.433
419.04	16.236
419.24	17.208
419.45	18.074
419.65	17.260
419.85	17.380
420.06	16.994
420.26	17.124
420.46	16.566
420.67	17.838
420.87	16.997
421.07	17.747
421.28	16.751
421.48	17.695
421.68	17.972
421.88	18.619
422.09	18.190
422.29	17.653
422.49	16.918
422.70	18.218
422.90	16.725
423.10	18.531
423.31	17.360
423.51	17.527
423.71	17.395
423.91	17.686
424.12	17.283
424.32	17.162
424.52	17.450
424.73	17.475
424.93	16.937
425.13	16.926
425.33	16.910
425.54	17.760
425.74	17.035
425.94	17.232
426.15	17.810
426.35	17.692
426.55	17.745
426.75	17.960
426.96	17.851
427.16	17.242
427.36	16.871
427.57	18.582
427.77	16.820
427.97	17.323
428.17	17.464
428.38	17.965
428.58	15.149
428.78	16.478
428.98	15.106
429.19	16.961
429.39	13.436
429.59	17.248
429.79	13.551
430.00	14.611
430.20	13.405
430.40	15.790
430.60	14.790
430.81	16.966
431.01	15.012
431.21	15.424
431.41	13.252
431.62	16.284
431.82	15.204
432.02	17.392
432.22	14.826
432.43	15.397
432.63	13.044
432.83	15.918
433.03	15.624
433.24	15.831
433.44	15.122
433.64	16.246
433.84	15.547
434.05	16.721
434.25	15.390
434.45	16.373
434.65	16.172
434.85	17.257
435.06	15.745
435.26	16.838
435.46	15.653
435.66	17.321
435.87	15.094
436.07	16.940
436.27	14.952
436.47	16.479
436.67	15.240
436.88	17.139
437.08	15.549
437.28	15.973
437.48	15.553
437.69	16.883
437.89	16.120
438.09	17.219
438.29	15.173
438.49	17.122
438.70	16.374
438.90	16.536
439.10	14.823
439.30	17.445
439.50	15.347
439.71	16.448
439.91	15.973
440.11	17.310
440.31	17.078
440.51	16.209
440.72	16.231
440.92	17.242
441.12	16.397
441.32	17.767
441.52	17.390
441.72	17.368
441.93	17.595
442.13	17.723
442.33	17.743
442.53	17.122
442.73	17.686
442.94	17.709
443.14	16.777
443.34	18.151
443.54	17.564
443.74	17.743
443.94	17.250
444.15	16.625
444.35	16.314
444.55	16.983
444.75	16.386
444.95	17.813
445.15	16.444
445.36	17.461
445.56	15.896
445.76	17.273
445.96	16.158
446.16	17.122
446.36	16.320
446.57	17.544
446.77	16.206
446.97	17.005
447.17	17.543
447.37	17.086
447.57	17.551
447.77	17.736
447.98	17.486
448.18	17.834
448.38	17.492
448.58	17.421
448.78	17.731
448.98	17.438
449.18	17.049
449.39	17.374
449.59	17.171
449.79	18.111
449.99	16.179
450.19	18.089
450.39	15.949
450.59	17.566
450.79	17.225
451.00	18.397
451.20	17.687
451.40	17.718
451.60	16.009
451.80	17.567
452.00	15.613
452.20	18.064
452.40	16.399
452.61	17.045
452.81	16.867
453.01	18.139
453.21	16.398
453.41	17.548
453.61	16.133
453.81	17.323
454.01	15.788
454.21	17.382
454.42	17.415
454.62	18.982
454.82	16.246
455.02	17.417
455.22	15.618
455.42	16.728
455.62	15.676
455.82	17.929
456.02	17.010
456.23	16.416
456.43	16.828
456.63	17.347
456.83	15.454
457.03	16.910
457.23	17.195
457.43	17.188
457.63	15.446
457.83	17.703
458.03	15.634
458.23	17.424
458.43	15.883
458.64	17.323
458.84	15.998
459.04	17.803
459.24	16.290
459.44	17.129
459.64	16.445
459.84	17.023
460.04	16.795
460.24	16.648
460.44	16.965
460.64	16.890
460.84	17.611
461.04	16.891
461.24	16.952
461.45	18.325
461.65	17.539
461.85	18.371
462.05	18.184
462.25	18.699
462.45	18.443
462.65	18.105
462.85	17.130
463.05	18.597
463.25	16.802
463.45	17.908
463.65	17.498
463.85	17.718
464.05	16.773
464.25	18.504
464.45	17.807
464.65	17.375
464.85	16.296
465.05	17.554
465.26	17.595
465.46	17.930
465.66	17.997
465.86	18.496
466.06	18.093
466.26	18.005
466.46	16.888
466.66	18.372
466.86	17.090
467.06	17.078
467.26	17.208
467.46	18.175
467.66	17.718
467.86	18.133
468.06	18.255
468.26	17.540
468.46	17.014
468.66	18.020
468.86	16.650
469.06	18.001
469.26	17.222
469.46	18.087
469.66	16.410
469.86	18.213
470.06	18.300
470.26	19.192
470.46	18.184
470.66	18.296
470.86	17.798
471.06	18.268
471.26	16.983
471.46	18.059
471.66	19.287
471.86	18.938
472.06	17.898
472.26	18.364
472.46	18.337
472.66	19.129
472.86	18.313
473.06	17.993
473.26	17.392
473.46	18.065
473.66	18.182
473.86	19.136
474.06	18.476
474.26	18.418
474.46	17.374
474.66	18.148
474.86	19.511
475.06	18.231
475.26	18.181
475.46	18.837
475.66	18.148
475.86	18.704
476.06	18.756
476.26	19.678
476.46	17.866
476.66	19.841
476.86	18.398
477.06	19.017
477.26	18.214
477.46	19.143
477.65	18.346
477.85	19.085
478.05	18.539
478.25	19.634
478.45	18.473
478.65	19.254
478.85	18.384
479.05	18.911
479.25	18.772
479.45	19.680
479.65	18.044
479.85	18.990
480.05	18.591
480.25	19.884
480.45	18.113
480.65	19.564
480.85	18.453
481.05	17.974
481.25	18.725
481.44	19.125
481.64	19.016
481.84	19.406
482.04	18.275
482.24	18.888
482.44	18.170
482.64	18.880
482.84	17.984
483.04	18.489
483.24	17.799
483.44	17.944
483.64	17.258
483.84	17.358
484.04	17.415
484.23	17.555
484.43	17.618
484.63	17.633
484.83	17.902
485.03	18.332
485.23	18.047
485.43	18.678
485.63	18.656
485.83	18.930
486.03	18.900
486.23	19.166
486.42	18.723
486.62	18.860
486.82	18.826
487.02	18.382
487.22	18.864
487.42	18.321
487.62	18.252
487.82	17.962
488.02	17.527
488.22	18.175
488.41	17.750
488.61	18.240
488.81	17.968
489.01	18.062
489.21	17.926
489.41	18.668
489.61	18.615
489.81	18.425
490.01	18.988
490.20	19.093
490.40	19.125
490.60	18.747
490.80	18.700
491.00	19.113
491.20	18.172
491.40	17.660
491.60	17.505
491.79	17.773
491.99	17.967
492.19	17.979
492.39	17.584
492.59	18.006
492.79	18.443
492.99	18.219
493.19	18.214
493.38	18.706
493.58	19.117
493.78	19.169
493.98	19.155
494.18	19.322
494.38	19.478
494.58	19.814
494.77	18.673
494.97	19.683
495.17	19.332
495.37	19.455
495.57	19.566
495.77	18.443
495.96	18.804
496.16	19.515
496.36	18.891
496.56	19.057
496.76	19.018
496.96	18.520
497.15	18.650
497.35	18.821
497.55	18.127
497.75	19.143
497.95	17.981
498.15	18.624
498.34	18.345
498.54	18.934
498.74	19.165
498.94	18.793
499.14	19.559
499.34	19.021
499.53	18.877
499.73	19.845
499.93	19.161
500.13	19.670
500.33	19.073
500.52	19.517
500.72	18.671
500.92	20.028
501.12	18.896
501.32	19.817
501.52	19.484
501.71	19.130
501.91	18.913
502.11	19.595
502.31	19.224
502.51	20.005
502.70	19.016
502.90	19.041
503.10	18.777
503.30	19.256
503.50	19.795
503.69	19.525
503.89	19.180
504.09	19.790
504.29	19.025
504.48	19.879
504.68	19.259
504.88	18.976
505.08	18.710
505.28	19.231
505.47	18.755
505.67	20.289
505.87	20.230
506.07	19.475
506.27	18.255
506.46	19.468
506.66	19.947
506.86	19.872
507.06	20.021
507.25	19.806
507.45	19.063
507.65	20.139
507.85	19.443
508.04	19.980
508.24	19.827
508.44	18.629
508.64	19.819
508.83	20.084
509.03	19.326
509.23	19.611
509.43	19.573
509.63	19.727
509.82	19.990
510.02	19.070
510.22	19.188
510.42	20.315
510.61	19.122
510.81	19.969
511.01	19.052
511.21	20.331
511.40	20.550
511.60	19.927
511.80	19.674
511.99	19.258
512.19	19.535
512.39	20.107
512.59	19.236
512.78	19.452
512.98	20.445
513.18	20.229
513.38	20.398
513.57	19.460
513.77	20.106
513.97	19.924
514.17	20.040
514.36	20.701
514.56	20.385
514.76	20.422
514.95	20.182
515.15	20.129
515.35	19.770
515.55	19.483
515.74	20.623
515.94	20.059
516.14	20.328
516.33	20.161
516.53	19.967
516.73	20.587
516.93	19.505
517.12	20.381
517.32	20.281
517.52	20.478
517.71	19.754
517.91	19.576
518.11	19.822
518.30	20.264
518.50	19.654
518.70	19.510
518.90	19.769
519.09	19.560
519.29	19.466
519.49	20.172
519.68	19.309
519.88	20.039
520.08	19.493
520.27	19.918
520.47	19.954
520.67	20.500
520.86	20.350
521.06	20.295
521.26	20.555
521.45	20.456
521.65	20.206
521.85	20.430
522.04	19.652
522.24	20.591
522.44	20.413
522.63	19.348
522.83	19.868
523.03	19.516
523.22	19.891
523.42	20.192
523.62	19.988
523.81	20.010
524.01	20.010
524.21	20.251
524.40	19.506
524.60	20.571
524.80	20.120
524.99	19.820
525.19	19.213
525.39	19.990
525.58	18.632
525.78	19.801
525.98	18.984
526.17	19.289
526.37	19.384
526.57	19.885
526.76	19.521
526.96	19.946
527.15	19.884
527.35	19.634
527.55	19.710
527.74	19.671
527.94	19.376
528.14	19.556
528.33	18.921
528.53	18.617
528.72	18.752
528.92	18.815
529.12	18.960
529.31	19.069
529.51	19.503
529.71	19.551
529.90	19.244
530.10	19.912
530.29	20.269
530.49	20.435
530.69	20.658
530.88	20.722
531.08	20.513
531.28	20.320
531.47	20.489
531.67	19.902
531.86	20.010
532.06	20.161
532.26	19.447
532.45	20.056
532.65	19.991
532.84	19.440
533.04	19.812
533.24	19.380
533.43	19.592
533.63	19.779
533.82	19.779
534.02	19.674
534.22	19.823
534.41	19.944
534.61	19.990
534.80	19.713
535.00	19.926
535.19	20.598
535.39	20.547
535.59	20.850
535.78	20.610
535.98	20.384
536.17	20.199
536.37	20.338
536.57	20.399
536.76	20.032
536.96	20.047
537.15	20.221
537.35	20.152
537.54	20.212
537.74	20.049
537.93	20.370
538.13	19.973
538.33	20.380
538.52	20.519
538.72	20.611
538.91	20.228
539.11	20.674
539.30	20.477
539.50	20.818
539.70	20.939
539.89	20.605
540.09	19.648
540.28	20.642
540.48	20.100
540.67	20.125
540.87	19.479
541.06	19.534
541.26	19.700
541.45	19.518
541.65	19.362
541.85	19.597
542.04	19.616
542.24	20.044
542.43	20.237
542.63	20.278
542.82	19.935
543.02	20.576
543.21	20.793
543.41	20.509
543.60	20.966
543.80	20.275
543.99	19.945
544.19	20.716
544.38	20.660
544.58	20.293
544.77	20.705
544.97	20.952
545.16	20.801
545.36	21.088
545.56	21.671
545.75	20.576
545.95	19.971
546.14	20.312
546.34	21.066
546.53	20.464
546.73	20.869
546.92	20.228
547.12	20.631
547.31	20.493
547.51	20.323
547.70	21.050
547.90	21.030
548.09	21.066
548.29	21.348
548.48	20.513
548.68	20.859
548.87	21.158
549.07	21.864
549.26	21.800
549.46	21.002
549.65	21.726
549.84	20.834
550.04	21.871
550.23	20.551
550.43	21.596
550.62	21.078
550.82	20.415
551.01	21.129
551.21	22.648
551.40	21.906
551.60	21.824
551.79	21.048
551.99	21.140
552.18	21.117
552.38	21.669
552.57	21.185
552.77	21.788
552.96	21.500
553.16	22.455
553.35	21.107
553.54	22.435
553.74	21.128
553.93	22.056
554.13	21.752
554.32	21.724
554.52	22.337
554.71	21.386
554.91	21.474
555.10	21.800
555.29	22.142
555.49	22.521
555.68	23.602
555.88	22.253
556.07	21.114
556.27	21.660
556.46	22.533
556.66	22.469
556.85	22.793
557.04	22.408
557.24	21.670
557.43	21.641
557.63	22.455
557.82	23.073
558.02	22.506
558.21	22.762
558.40	22.294
558.60	23.664
558.79	21.988
558.99	22.870
559.18	22.393
559.38	22.577
559.57	22.135
559.76	22.083
559.96	22.285
560.15	21.802
560.35	22.965
560.54	23.497
560.73	22.125
560.93	22.899
561.12	22.103
561.32	22.618
561.51	21.366
561.70	22.836
561.90	21.696
562.09	23.443
562.29	23.018
562.48	23.243
562.67	22.972
562.87	22.753
563.06	22.514
563.26	23.176
563.45	22.614
563.64	23.409
563.84	22.170
564.03	23.583
564.23	22.967
564.42	23.492
564.61	23.333
564.81	23.199
565.00	23.335
565.20	23.221
565.39	22.094
565.58	23.235
565.78	23.126
565.97	23.286
566.16	23.251
566.36	23.600
566.55	22.990
566.74	23.416
566.94	22.904
567.13	22.995
567.33	23.097
567.52	23.251
567.71	23.134
567.91	22.628
568.10	23.714
568.29	24.222
568.49	23.134
568.68	23.527
568.87	24.065
569.07	22.723
569.26	24.044
569.45	22.810
569.65	23.297
569.84	23.929
570.04	23.911
570.23	24.912
570.42	22.699
570.62	24.037
570.81	23.887
571.00	24.181
571.20	23.510
571.39	23.888
571.58	23.490
571.78	24.599
571.97	23.572
572.16	24.074
572.36	22.970
572.55	23.595
572.74	23.621
572.94	23.489
573.13	24.102
573.32	23.587
573.51	23.989
573.71	24.521
573.90	23.940
574.09	25.258
574.29	23.271
574.48	24.468
574.67	23.648
574.87	23.537
575.06	23.284
575.25	23.823
575.45	23.711
575.64	24.103
575.83	23.832
576.03	25.065
576.22	24.117
576.41	24.388
576.60	23.428
576.80	24.344
576.99	23.428
577.18	24.360
577.38	23.246
577.57	23.904
577.76	24.309
577.95	23.952
578.15	24.454
578.34	24.516
578.53	25.248
578.73	24.520
578.92	24.579
579.11	24.782
579.30	24.119
579.50	25.446
579.69	24.205
579.88	24.668
580.08	24.319
580.27	25.187
580.46	25.162
580.65	24.680
580.85	24.361
581.04	23.785
581.23	24.633
581.42	25.433
581.62	23.341
581.81	25.265
582.00	24.254
582.19	24.602
582.39	24.505
582.58	22.992
582.77	23.356
582.96	24.403
583.16	24.348
583.35	24.771
583.54	24.028
583.73	24.065
583.93	23.635
584.12	24.522
584.31	25.260
584.50	24.324
584.70	23.709
584.89	22.964
585.08	23.712
585.27	25.522
585.47	24.594
585.66	24.536
585.85	24.004
586.04	24.187
586.24	24.217
586.43	22.047
586.62	23.786
586.81	24.091
587.00	23.657
587.20	25.009
587.39	22.735
587.58	24.540
587.77	23.884
587.97	23.511
588.16	24.070
588.35	23.614
588.54	23.969
588.73	24.511
588.93	24.385
589.12	22.972
589.31	23.809
589.50	23.229
589.69	23.975
589.89	24.108
590.08	23.149
590.27	22.911
590.46	23.131
590.65	24.303
590.85	22.462
591.04	24.373
591.23	23.629
591.42	24.233
591.61	22.326
591.81	24.462
592.00	22.874
592.19	24.263
592.38	23.412
592.57	24.474
592.77	24.276
592.96	23.871
593.15	23.034
593.34	24.366
593.53	24.431
593.72	24.010
593.92	22.532
594.11	23.095
594.30	23.486
594.49	23.143
594.68	24.045
594.87	23.773
595.07	23.596
595.26	24.736
595.45	23.714
595.64	24.703
595.83	23.082
596.02	25.146
596.22	24.148
596.41	23.938
596.60	23.465
596.79	24.532
596.98	23.521
597.17	24.113
597.37	23.672
597.56	24.843
597.75	24.102
597.94	24.385
598.13	23.804
598.32	23.434
598.51	23.915
598.71	24.056
598.90	23.663
599.09	23.678
599.28	25.226
599.47	25.190
599.66	24.712
599.85	24.566
600.05	23.647
600.24	25.060
600.43	23.892
600.62	25.188
600.81	24.802
601.00	24.887
601.19	23.117
601.38	25.106
601.58	25.617
601.77	25.025
601.96	23.633
602.15	25.035
602.34	25.413
602.53	24.947
602.72	23.482
602.91	24.306
603.10	23.399
603.30	24.501
603.49	23.999
603.68	26.490
603.87	23.635
604.06	23.907
604.25	24.308
604.44	23.590
604.63	24.249
604.82	24.496
605.01	25.179
605.21	24.591
605.40	23.996
605.59	25.044
605.78	23.729
605.97	24.141
606.16	24.260
606.35	24.783
606.54	24.616
606.73	24.517
606.92	24.638
607.11	24.358
607.30	25.441
607.50	25.575
607.69	24.516
607.88	24.763
608.07	23.468
608.26	24.862
608.45	24.579
608.64	25.047
608.83	25.469
609.02	24.923
609.21	23.614
609.40	25.142
609.59	24.336
609.78	24.431
609.97	24.664
610.16	24.878
610.35	23.874
610.55	24.079
610.74	24.369
610.93	24.996
611.12	25.447
611.31	24.834
611.50	23.718
611.69	24.756
611.88	24.068
612.07	24.782
612.26	23.038
612.45	24.411
612.64	24.205
612.83	23.085
613.02	24.007
613.21	24.817
613.40	23.300
613.59	23.949
613.78	20.982
613.97	24.823
614.16	24.090
614.35	24.427
614.54	23.094
614.73	24.143
614.92	23.179
615.11	24.293
615.30	22.470
615.49	24.642
615.68	23.150
615.87	24.601
616.07	22.467
616.26	24.196
616.45	23.073
616.64	22.289
616.83	22.711
617.02	24.301
617.21	21.230
617.40	23.004
617.59	22.363
617.78	23.850
617.97	22.088
618.16	23.077
618.35	21.419
618.54	21.440
618.73	22.196
618.92	23.005
619.11	21.842
619.30	24.445
619.49	21.834
619.68	23.851
619.86	21.320
620.05	23.476
620.24	20.957
620.43	23.195
620.62	20.573
620.81	22.836
621.00	21.806
621.19	24.004
621.38	21.407
621.57	23.339
621.76	22.541
621.95	24.220
622.14	23.005
622.33	24.639
622.52	21.891
622.71	23.066
622.90	21.763
623.09	22.465
623.28	22.267
623.47	24.299
623.66	21.770
623.85	23.788
624.04	20.988
624.23	22.688
624.42	19.606
624.61	22.719
624.80	20.155
624.99	23.005
625.18	20.281
625.36	21.594
625.55	23.355
625.74	22.130
625.93	20.643
626.12	23.622
626.31	22.291
626.50	23.241
626.69	21.991
626.88	22.645
627.07	22.294
627.26	21.773
627.45	22.158
627.64	23.021
627.83	21.321
628.02	22.143
628.20	21.279
628.39	23.368
628.58	22.383
628.77	23.113
628.96	21.287
629.15	23.146
629.34	21.546
629.53	21.766
629.72	22.274
629.91	23.239
630.10	21.768
630.29	22.780
630.47	22.500
630.66	21.341
630.85	20.217
631.04	22.232
631.23	22.577
631.42	22.351
631.61	21.230
631.80	23.988
631.99	21.690
632.18	21.770
632.36	20.764
632.55	21.857
632.74	20.585
632.93	22.802
633.12	21.858
633.31	21.690
633.50	21.275
633.69	22.059
633.88	19.201
634.06	22.963
634.25	19.924
634.44	21.416
634.63	21.721
634.82	22.338
635.01	21.308
635.20	22.855
635.39	21.817
635.57	22.217
635.76	23.320
635.95	22.423
636.14	21.053
636.33	23.360
636.52	19.199
636.71	21.906
636.89	21.413
637.08	22.033
637.27	20.877
637.46	20.766
637.65	21.081
637.84	21.322
638.03	20.330
638.21	21.951
638.40	20.472
638.59	22.327
638.78	19.314
638.97	22.211
639.16	21.341
639.34	20.347
639.53	19.422
639.72	22.484
639.91	19.033
640.10	19.770
640.29	19.995
640.47	23.693
640.66	19.536
640.85	22.804
641.04	19.586
641.23	21.404
641.42	18.890
641.60	20.575
641.79	19.150
641.98	19.606
642.17	19.076
642.36	21.187
642.54	18.097
642.73	19.804
642.92	18.345
643.11	19.877
643.30	17.003
643.49	20.433
643.67	17.269
643.86	21.629
644.05	17.139
644.24	19.753
644.43	20.132
644.61	20.412
644.80	18.242
644.99	19.557
645.18	19.267
645.37	20.328
645.55	17.133
645.74	20.287
645.93	19.827
646.12	22.086
646.31	20.077
646.49	19.823
646.68	19.466
646.87	19.764
647.06	18.152
647.24	19.947
647.43	18.421
647.62	21.165
647.81	16.400
648.00	20.842
648.18	16.934
648.37	18.195
648.56	18.253
648.75	19.018
648.93	17.663
649.12	19.649
649.31	17.903
649.50	19.346
649.68	17.475
649.87	19.982
650.06	16.458
650.25	18.698
650.43	18.968
650.62	18.733
650.81	19.808
651.00	18.472
651.18	17.852
651.37	20.391
651.56	17.231
651.75	19.800
651.93	17.105
652.12	19.390
652.31	18.352
652.50	19.446
652.68	18.699
652.87	20.727
653.06	17.821
653.25	21.148
653.43	18.227
653.62	18.141
653.81	17.349
654.00	20.162
654.18	16.875
654.37	19.860
654.56	18.460
654.74	17.288
654.93	16.819
655.12	18.661
655.31	16.597
655.49	18.300
655.68	16.179
655.87	17.696
656.05	15.632
656.24	18.228
656.43	12.657
656.62	17.875
656.80	15.999
656.99	16.628
657.18	13.606
657.36	16.459
657.55	18.876
657.74	17.439
657.93	18.179
658.11	20.853
658.30	18.262
658.49	17.869
658.67	17.998
658.86	17.306
659.05	17.471
659.23	18.278
659.42	18.177
659.61	19.254
659.79	17.521
659.98	19.192
660.17	18.051
660.35	19.159
660.54	17.689
660.73	20.869
660.91	17.628
661.10	20.499
661.29	15.697
661.47	18.455
661.66	17.430
661.85	17.686
662.03	16.297
662.22	15.638
662.41	12.909
662.59	16.966
662.78	14.741
662.97	15.623
663.15	12.701
663.34	15.385
663.53	11.241
663.71	17.133
663.90	12.175
664.09	14.922
664.27	13.298
664.46	14.772
664.65	13.875
664.83	12.696
665.02	13.658
665.21	12.953
665.39	11.251
665.58	13.607
665.77	12.066
665.95	14.190
666.14	10.072
666.32	13.801
666.51	12.020
666.70	12.122
666.88	11.655
667.07	12.253
667.26	10.810
667.44	12.533
667.63	13.116
667.81	12.584
668.00	12.305
668.19	16.318
668.37	12.233
668.56	14.920
668.75	10.692
668.93	14.383
669.12	11.735
669.30	12.665
669.49	11.751
669.68	12.256
669.86	12.762
670.05	10.922
670.23	9.525
670.42	11.955
670.61	11.187
670.79	13.324
670.98	12.765
671.16	13.664
671.35	11.486
671.54	12.707
671.72	9.741
671.91	12.105
672.09	9.864
672.28	13.551
672.46	11.274
672.65	13.409
672.84	11.555
673.02	12.457
673.21	8.580
673.39	11.804
673.58	13.994
673.77	12.761
673.95	12.926
674.14	12.433
674.32	9.051
674.51	16.161
674.69	11.176
674.88	13.858
675.07	11.156
675.25	16.262
675.44	11.998
675.62	11.614
675.81	9.442
675.99	15.989
676.18	14.483
676.36	12.212
676.55	7.987
676.74	12.899
676.92	13.145
677.11	13.830
677.29	10.039
677.48	12.440
677.66	13.718
677.85	11.584
678.03	11.611
678.22	14.856
678.40	13.305
678.59	12.232
678.78	10.181
678.96	14.025
679.15	11.468
679.33	13.720
679.52	14.899
679.70	13.336
679.89	12.229
680.07	15.413
680.26	11.496
680.44	12.758
680.63	14.226
680.81	13.656
681.00	10.474
681.18	13.421
681.37	12.262
681.55	16.074
681.74	15.612
681.92	15.250
682.11	15.100
682.29	15.427
682.48	14.136
682.66	15.165
682.85	14.240
683.03	15.382
683.22	14.783
683.40	17.422
683.59	14.488
683.77	16.207
683.96	12.395
684.14	17.365
684.33	10.763
684.51	18.783
684.70	15.819
684.88	18.927
685.07	15.995
685.25	17.107
685.44	15.124
685.62	18.406
685.81	14.626
685.99	14.936
686.18	13.109
686.36	15.704
686.55	13.911
686.73	15.403
686.92	16.607
687.10	18.687
687.29	16.507
687.47	16.713
687.65	17.669
687.84	16.148
688.02	21.250
688.21	20.117
688.39	15.332
688.58	19.368
688.76	14.001
688.95	19.501
689.13	16.302
689.32	21.081
689.50	18.130
689.68	19.339
689.87	17.642
690.05	18.656
690.24	18.611
690.42	21.253
690.61	19.312
690.79	18.178
690.98	18.035
691.16	19.754
691.34	16.323
691.53	20.997
691.71	18.016
691.90	20.253
692.08	17.706
692.27	22.434
692.45	19.062
692.63	21.283
692.82	19.013
693.00	21.510
693.19	18.315
693.37	24.457
693.56	20.745
693.74	23.732
693.92	21.486
694.11	22.899
694.29	21.368
694.48	23.758
694.66	21.174
694.84	23.095
695.03	20.248
695.21	23.387
695.40	26.334
695.58	25.780
695.76	21.770
695.95	22.819
696.13	23.275
696.32	25.485
696.50	30.530
696.68	26.790
696.87	23.436
697.05	25.618
697.24	23.991
697.42	29.586
697.60	24.837
697.79	27.273
697.97	27.467
698.16	29.476
698.34	24.873
698.52	27.411
698.71	26.459
698.89	28.675
699.07	26.170
699.26	29.412
699.44	26.625
699.63	30.374
699.81	28.278
699.99	28.143
700.18	29.017
700.36	30.992
700.54	28.268
700.73	31.765
700.91	27.989
701.09	30.664
701.28	28.121
701.46	30.633
701.64	28.269
701.83	30.933
702.01	27.768
702.20	32.067
702.38	29.651
702.56	31.909
702.75	25.649
702.93	31.599
703.11	26.929
703.30	28.893
703.48	29.730
703.66	31.589
703.85	31.669
704.03	33.515
704.21	32.158
704.40	31.663
704.58	28.556
704.76	34.565
704.95	31.982
705.13	32.211
705.31	31.710
705.50	34.172
705.68	34.430
705.86	37.031
706.04	32.607
706.23	34.284
706.41	29.609
706.59	33.460
706.78	31.380
706.96	31.414
707.14	31.018
707.33	35.222
707.51	31.275
707.69	35.014
707.88	31.023
708.06	36.650
708.24	32.677
708.42	36.212
708.61	30.749
708.79	34.295
708.97	34.342
709.16	37.393
709.34	36.455
709.52	34.402
709.71	34.946
709.89	36.087
710.07	30.069
710.25	36.811
710.44	31.813
710.62	35.446
710.80	35.165
710.98	37.374
711.17	35.474
711.35	33.660
711.53	31.911
711.72	35.950
711.90	36.185
712.08	34.879
712.26	34.293
712.45	35.417
712.63	33.929
712.81	35.980
712.99	34.242
713.18	36.516
713.36	35.561
713.54	36.017
713.72	32.984
713.91	35.346
714.09	34.302
714.27	37.247
714.45	35.172
714.64	37.735
714.82	35.316
715.00	37.952
715.18	32.976
715.37	33.546
715.55	35.494
715.73	35.937
715.91	35.564
716.10	38.169
716.28	34.941
716.46	34.517
716.64	29.472
716.83	33.990
717.01	35.075
717.19	35.978
717.37	33.231
717.55	35.931
717.74	38.043
717.92	32.701
718.10	34.528
718.28	35.844
718.47	33.644
718.65	37.083
718.83	33.831
719.01	36.528
719.19	30.276
719.38	34.379
719.56	30.234
719.74	33.874
719.92	31.034
720.10	37.643
720.29	32.453
720.47	33.676
720.65	29.602
720.83	35.091
721.01	35.808
721.20	37.770
721.38	34.949
721.56	38.908
721.74	35.699
721.92	37.176
722.11	34.786
722.29	38.019
722.47	35.857
722.65	37.378
722.83	38.106
723.01	37.893
723.20	39.757
723.38	36.250
723.56	35.153
723.74	36.069
723.92	37.754
724.10	39.858
724.29	35.436
724.47	41.481
724.65	32.530
724.83	39.046
725.01	34.950
725.19	39.898
725.38	34.607
725.56	35.985
725.74	36.058
725.92	37.659
726.10	31.223
726.28	39.807
726.46	40.680
726.65	37.324
726.83	37.583
727.01	40.652
727.19	36.419
727.37	40.278
727.55	35.135
727.73	34.738
727.92	34.792
728.10	37.483
728.28	38.820
728.46	39.002
728.64	36.370
728.82	38.143
729.00	36.997
729.19	41.301
729.37	39.257
729.55	38.089
729.73	37.354
729.91	42.343
730.09	40.874
730.27	41.371
730.45	38.237
730.63	38.598
730.82	36.464
731.00	40.252
731.18	34.762
731.36	39.238
731.54	38.583
731.72	38.530
731.90	37.549
732.08	38.205
732.26	38.067
732.45	43.236
732.63	43.085
732.81	40.924
732.99	38.913
733.17	45.061
733.35	41.805
733.53	43.554
733.71	38.297
733.89	40.537
734.07	40.458
734.25	42.634
734.44	41.661
734.62	42.940
734.80	40.243
734.98	43.204
735.16	42.765
735.34	41.365
735.52	41.700
735.70	42.556
735.88	42.984
736.06	46.171
736.24	49.707
736.42	49.061
736.60	40.517
736.78	48.192
736.97	43.530
737.15	51.031
737.33	45.597
737.51	46.104
737.69	48.072
737.87	44.841
738.05	43.542
738.23	49.723
738.41	47.302
738.59	44.132
738.77	45.960
738.95	45.922
739.13	42.067
739.31	46.063
739.49	44.657
739.67	44.928
739.85	45.911
740.03	46.526
740.21	44.143
740.39	47.767
740.57	49.615
740.75	48.394
740.93	45.004
741.11	46.346
741.30	50.688
741.48	48.078
741.66	46.739
741.84	47.093
742.02	48.718
742.20	50.266
742.38	45.686
742.56	46.491
742.74	50.225
742.92	47.937
743.10	48.229
743.28	56.232
743.46	52.903
743.64	54.360
743.82	50.440
744.00	54.179
744.18	51.825
744.36	49.422
744.54	50.494
744.72	53.421
744.90	52.852
745.08	48.649
745.26	53.951
745.44	53.824
745.62	52.165
745.80	51.600
745.98	54.615
746.16	50.346
746.34	53.679
746.52	54.611
746.70	52.699
746.87	57.846
747.05	49.149
747.23	54.397
747.41	57.660
747.59	52.953
747.77	46.787
747.95	53.656
748.13	48.501
748.31	54.866
748.49	52.209
748.67	54.528
748.85	52.062
749.03	53.400
749.21	51.566
749.39	59.077
749.57	43.567
749.75	51.906
749.93	51.406
750.11	47.944
750.29	51.665
750.47	57.272
750.65	51.220
750.83	58.491
751.01	47.839
751.18	59.144
751.36	54.012
751.54	54.416
751.72	49.850
751.90	51.357
752.08	48.560
752.26	56.008
752.44	54.101
752.62	51.089
752.80	53.285
752.98	54.676
753.16	54.100
753.34	49.710
753.52	50.890
753.69	53.531
753.87	50.718
754.05	57.187
754.23	50.103
754.41	55.882
754.59	56.847
754.77	53.353
754.95	57.681
755.13	57.724
755.31	56.275
755.49	58.908
755.66	53.072
755.84	52.713
756.02	52.234
756.20	55.660
756.38	57.307
756.56	52.667
756.74	50.199
756.92	53.360
757.10	60.000
757.28	56.784
757.45	50.053
757.63	55.714
757.81	52.761
757.99	56.282
758.17	59.062
758.35	58.269
758.53	53.470
758.71	54.783
758.88	52.015
759.06	51.914
759.24	45.497
759.42	46.078
759.60	49.351
759.78	44.689
759.96	36.176
760.13	42.941
760.31	32.585
760.49	40.019
760.67	31.733
760.85	33.461
761.03	27.968
761.21	35.613
761.38	27.106
761.56	32.649
761.74	26.908
761.92	34.175
762.10	27.400
762.28	34.495
762.46	28.056
762.63	35.041
762.81	32.483
762.99	33.926
763.17	30.234
763.35	34.821
763.53	32.936
763.70	35.336
763.88	34.568
764.06	33.680
764.24	27.461
764.42	32.534
764.60	32.974
764.77	36.073
764.95	31.276
765.13	36.997
765.31	35.179
765.49	37.708
765.66	37.466
765.84	40.782
766.02	37.713
766.20	45.070
766.38	35.905
766.56	44.473
766.73	43.955
766.91	40.470
767.09	48.387
767.27	42.845
767.45	44.495
767.62	48.039
767.80	45.951
767.98	47.368
768.16	46.002
768.33	55.579
768.51	54.316
768.69	56.701
768.87	53.761
769.05	54.673
769.22	48.732
769.40	60.407
769.58	50.932
769.76	56.777
769.94	54.146
770.11	57.006
770.29	56.219
770.47	60.025
770.65	57.869
770.82	52.852
771.00	54.134
771.18	57.317
771.36	50.911
771.53	53.253
771.71	59.868
771.89	62.449
772.07	56.284
772.25	57.459
772.42	55.906
772.60	59.178
772.78	57.039
772.96	59.387
773.13	60.165
773.31	58.333
773.49	55.152
773.67	63.553
773.84	60.807
774.02	64.296
774.20	63.650
774.37	57.580
774.55	53.957
774.73	57.165
774.91	53.718
775.08	59.190
775.26	60.380
775.44	62.291
775.62	63.636
775.79	55.380
775.97	52.308
776.15	58.381
776.32	61.787
776.50	70.543
776.68	58.177
776.86	61.180
777.03	58.861
777.21	59.027
777.39	64.586
777.56	59.624
777.74	58.735
777.92	61.892
778.10	55.627
778.27	62.946
778.45	59.209
778.63	69.352
778.80	58.917
778.98	55.350
779.16	60.972
779.34	55.588
779.51	61.196
779.69	66.556
779.87	62.980
780.04	58.592
780.22	53.824
780.40	60.907
780.57	57.735
780.75	55.447
780.93	64.678
781.10	72.056
781.28	56.837
781.46	57.117
781.63	55.041
781.81	57.975
781.99	54.770
782.16	58.444
782.34	54.545
782.52	61.997
782.69	58.084
782.87	50.507
783.05	58.037
783.22	60.893
783.40	60.568
783.58	75.910
783.75	57.732
783.93	61.501
784.11	65.202
784.28	64.706
784.46	60.670
784.64	60.536
784.81	58.244
784.99	63.929
785.17	70.874
785.34	66.548
785.52	60.000
785.69	65.343
785.87	62.384
786.05	70.714
786.22	69.057
786.40	72.445
786.58	62.416
786.75	56.192
786.93	65.669
787.11	54.196
787.28	67.869
787.46	73.646
787.63	67.059
787.81	66.302
787.99	60.105
788.16	56.066
788.34	50.482
788.51	57.296
788.69	56.053
788.87	52.994
789.04	52.656
789.22	57.475
789.39	45.140
789.57	50.601
789.75	52.727
789.92	56.932
790.10	53.515
790.27	50.286
790.45	57.820
790.63	59.330
790.80	48.544
790.98	54.577
791.15	57.919
791.33	59.054
791.51	62.956
791.68	58.169
791.86	59.478
792.03	49.744
792.21	57.353
792.39	61.348
792.56	49.913
792.74	65.217
792.91	60.000
793.09	53.076
793.26	64.570
793.44	54.649
793.62	58.661
793.79	61.233
793.97	68.226
794.14	58.221
794.32	56.024
794.49	63.233
794.67	56.504
794.84	53.040
795.02	61.059
795.20	48.582
795.37	59.400
795.55	56.058
795.72	55.597
795.90	53.606
796.07	64.881
796.25	60.036
796.42	57.343
796.60	49.416
796.77	56.228
796.95	58.047
797.13	44.696
797.30	60.215
797.48	43.328
797.65	49.117
797.83	45.293
798.00	60.261
798.18	50.368
798.35	58.621
798.53	66.990
798.70	51.327
798.88	63.294
799.05	53.119
799.23	44.262
799.40	41.637
799.58	57.217
799.75	56.545
799.93	48.184
800.10	60.150
800.28	56.108
800.45	56.942
800.63	46.008
800.80	56.835
800.98	62.382
801.15	49.278
801.33	49.419
801.50	48.566
801.68	53.913
801.85	54.054
802.03	50.100
802.20	62.424
802.38	60.674
802.55	55.187
802.73	54.143
802.90	49.697
803.08	54.455
803.25	58.317
803.43	55.738
803.60	58.278
803.78	54.813
803.95	55.844
804.13	57.634
804.30	49.888
804.48	55.022
804.65	61.124
804.83	53.119
805.00	59.161
805.17	52.665
805.35	59.116
805.52	47.658
805.70	56.639
805.87	54.580
806.05	53.815
806.22	57.292
806.40	53.875
806.57	53.488
806.75	56.352
806.92	54.938
807.09	56.842
807.27	54.490
807.44	61.493
807.62	48.099
807.79	54.019
807.97	56.800
808.14	54.262
808.31	48.246
808.49	48.700
808.66	52.840
808.84	55.131
809.01	51.494
809.19	50.704
809.36	49.896
809.53	52.632
809.71	56.410
809.88	63.719
810.06	55.142
810.23	65.479
810.41	55.765
810.58	71.602
810.75	57.368
810.93	63.014
811.10	43.450
811.28	50.787
811.45	61.905
811.62	60.358
811.80	47.739
811.97	60.302
812.15	58.314
812.32	59.424
812.49	51.351
812.67	48.210
812.84	53.365
813.02	64.815
813.19	62.470
813.36	48.895
813.54	54.156
813.71	49.227
813.89	53.886
814.06	52.381
814.23	47.353
814.41	57.323
814.58	51.240
814.75	58.311
814.93	51.980
815.10	53.581
815.28	42.537
815.45	46.838
815.62	57.759
815.80	51.462
815.97	38.000
816.14	49.337
816.32	54.264
816.49	32.718
816.66	39.200
816.84	44.419
817.01	50.108
817.18	46.475
817.36	53.213
817.53	50.000
817.71	44.730
817.88	45.370
818.05	44.921
818.23	37.956
818.40	42.667
818.57	48.975
818.75	44.211
818.92	54.386
819.09	35.013
819.27	45.000
819.44	35.154
819.61	42.494
819.79	44.966
819.96	29.909
820.13	40.964
820.31	38.529
820.48	49.287
820.65	38.165
820.82	39.171
821.00	41.509
821.17	34.524
821.34	30.230
821.52	33.846
821.69	37.160
821.86	29.438
822.04	30.351
822.21	29.037
822.38	31.051
822.56	27.916
822.73	31.187
822.90	27.694
823.07	30.557
823.25	28.316
823.42	29.874
823.59	29.845
823.77	30.559
823.94	30.266
824.11	31.277
824.29	27.074
824.46	32.168
824.63	32.705
824.80	32.806
824.98	29.424
825.15	36.720
825.32	28.536
825.49	31.509
825.67	32.809
825.84	33.062
826.01	34.833
826.19	32.417
826.36	33.056
826.53	32.887
826.70	27.847
826.88	35.735
827.05	28.987
827.22	29.129
827.39	31.311
827.57	31.414
827.74	28.161
827.91	31.555
828.08	29.407
828.26	31.533
828.43	25.426
828.60	31.127
828.77	30.732
828.95	29.894
829.12	25.838
829.29	28.075
829.46	29.048
829.64	32.272
829.81	25.312
829.98	37.189
830.15	35.741
830.32	32.808
830.50	25.581
830.67	41.225
830.84	36.413
831.01	39.292
831.19	35.741
831.36	35.857
831.53	38.565
831.70	45.287
831.87	34.746
832.05	46.495
832.22	51.111
832.39	43.026
832.56	40.369
832.74	44.240
832.91	43.392
833.08	41.667
833.25	24.138
833.42	40.084
833.60	37.273
833.77	31.771
833.94	28.435
834.11	28.686
834.28	27.847
834.45	27.007
834.63	29.233
834.80	28.018
834.97	32.432
835.14	30.367
835.31	25.256
835.49	32.047
835.66	31.875
835.83	27.401
836.00	33.836
836.17	32.229
836.34	37.335
836.52	29.294
836.69	40.188
836.86	39.928
837.03	35.405
837.20	37.037
837.37	38.976
837.55	31.250
837.72	40.547
837.89	45.455
838.06	43.714
838.23	34.559
838.40	52.410
838.58	44.957
838.75	45.875
838.92	73.684
839.09	52.921
839.26	55.116
839.43	71.331
839.60	64.264
839.78	66.558
839.95	59.401
840.12	65.870
840.29	62.034
840.46	63.804
840.63	60.188
840.80	52.751
840.98	62.500
841.15	64.375
841.32	49.091
841.49	42.157
841.66	54.684
841.83	58.075
842.00	43.522
842.17	58.523
842.34	40.541
842.52	70.667
842.69	31.525
842.86	64.341
843.03	76.753
843.20	48.276
843.37	54.613
843.54	42.322
843.71	56.696
843.88	83.111
844.06	74.000
844.23	63.333
844.40	71.111
844.57	86.188
844.74	100.610
844.91	53.140
845.08	92.045
845.25	70.531
845.42	67.742
845.59	56.316
845.76	78.462
845.94	88.614
846.11	86.301
846.28	86.905
846.45	103.933
846.62	120.779
846.79	75.342
846.96	101.235
847.13	100.000
847.30	83.448
847.47	84.892
847.64	119.380
847.81	116.949
847.98	83.417
848.15	137.956
848.32	106.289
848.50	99.401
848.67	74.138
848.84	88.356
849.01	59.777
849.18	82.990
849.35	118.750
849.52	98.276
849.69	100.000
849.86	91.837
850.03	108.955
850.20	92.398
850.37	65.546
850.54	98.324
850.71	83.444
850.88	74.302
851.05	117.797
851.22	81.461
851.39	109.009
851.56	101.786
851.73	84.906
851.90	90.062
852.07	138.346
852.24	102.632
852.41	107.619
852.58	83.099
852.75	131.034
852.92	60.976
853.09	86.719
853.26	89.418
853.43	115.094
853.60	70.225
853.77	175.949
853.94	102.190
854.11	113.287
854.28	137.600
854.45	53.906
854.62	75.127
854.79	96.732
854.96	88.000
855.13	87.719
855.30	130.612
855.47	125.000
855.64	99.248
855.81	97.312
855.98	65.079
856.15	116.216
856.32	88.050
856.49	89.922
856.66	76.923
856.83	82.576
857.00	58.824
857.17	100.000
857.34	69.474
857.51	110.072
857.68	81.081
857.85	71.023
858.02	103.704
858.19	95.495
858.36	98.182
858.53	69.677
858.70	76.048
858.87	96.203
859.04	95.161
859.21	56.757
859.38	96.491
859.55	142.537
859.72	132.184
859.89	82.014
860.05	100.901
860.22	93.194
860.39	73.214
860.56	72.519
860.73	116.260
860.90	93.578
861.07	84.211
861.24	94.079
861.41	133.333
861.58	95.833
861.75	88.889
861.92	88.158
862.09	122.963
862.26	86.325
862.43	109.901
862.59	111.765
862.76	95.105
862.93	103.371
863.10	107.619
863.27	111.111
863.44	165.517
863.61	82.482
863.78	101.714
863.95	93.464
864.12	88.506
864.29	100.855
864.45	90.517
864.62	65.537
864.79	93.023
864.96	102.439
865.13	43.243
865.30	87.578
865.47	101.829
865.64	90.647
865.81	83.206
865.97	84.000
866.14	87.755
866.31	93.333
866.48	89.404
866.65	78.205
866.82	79.114
866.99	144.444
867.16	78.947
867.33	93.548
867.49	82.099
867.66	65.979
867.83	117.323
868.00	89.041
868.17	106.612
868.34	94.737
868.51	82.857
868.67	107.595
868.84	84.167
869.01	100.800
869.18	87.943
869.35	90.698
869.52	105.556
869.69	76.027
869.85	128.037
870.02	89.423
870.19	116.949
870.36	100.690
870.53	82.857
870.70	88.050
870.86	98.000
871.03	73.457
871.20	96.330
871.37	60.345
871.54	93.919
871.71	93.571
871.87	69.182
872.04	56.000
872.21	86.957
872.38	126.829
872.55	103.704
872.72	131.250
872.88	74.302
873.05	114.943
873.22	103.401
873.39	113.265
873.56	61.538
873.72	95.882
873.89	65.839
874.06	59.701
874.23	116.949
874.40	96.000
874.56	109.474
874.73	100.000
874.90	105.932
875.07	90.000
875.24	72.050
875.40	109.244
875.57	144.037
875.74	85.600
875.91	85.321
876.08	106.087
876.24	54.651
876.41	136.800
876.58	115.426
876.75	80.851
876.92	41.912
877.08	84.559
877.25	89.565
877.42	117.187
877.59	98.980
877.75	92.000
877.92	57.143
878.09	92.708
878.26	79.641
878.42	58.125
878.59	75.652
878.76	86.842
878.93	101.493
879.09	73.737
879.26	76.220
879.43	78.919
879.60	66.434
879.76	36.932
879.93	90.556
880.10	33.333
880.27	50.311
880.43	71.508
880.60	53.425
880.77	51.136
880.94	39.303
881.10	41.003
881.27	42.951
881.44	26.346
881.61	31.839
881.77	34.226
881.94	26.036
882.11	22.183
882.28	20.065
882.44	21.350
882.61	22.363
882.78	24.436
882.94	32.298
883.11	22.128
883.28	24.334
883.45	22.309
883.61	23.355
883.78	26.148
883.95	22.653
884.11	22.989
884.28	25.000
>>>>>End Processed Spectral Data<<<<<
