SpectraSuite Data File
++++++++++++++++++++++++++++++++++++
Date: Sat Sep 21 04:31:52 EST 2019
User: sgrac
Dark Spectrum Present: Yes
Reference Spectrum Present: Yes
Number of Sampled Component Spectra: 1
Spectrometers: USB4E01596
Integration Time (usec): 100000 (USB4E01596)
Spectra Averaged: 1 (USB4E01596)
Boxcar Smoothing: 0 (USB4E01596)
Correct for Electrical Dark: No (USB4E01596)
Strobe/Lamp Enabled: Yes (USB4E01596)
Correct for Detector Non-linearity: No (USB4E01596)
Correct for Stray Light: No (USB4E01596)
Number of Pixels in Processed Spectrum: 3648
>>>>>Begin Processed Spectral Data<<<<<
178.44	-385.714
178.66	-385.714
178.87	-385.714
179.09	-357.143
179.30	-392.308
179.52	0.000
179.74	-1950.000
179.95	1200.000
180.17	360.000
180.38	8800.000
180.60	0.000
180.82	850.000
181.03	-210.526
181.25	495.652
181.46	-174.194
181.68	470.833
181.89	9700.000
182.11	385.714
182.33	-240.000
182.54	-262.500
182.76	-4650.000
182.97	720.000
183.19	2200.000
183.40	306.897
183.62	-96.296
183.84	-196.296
184.05	491.304
184.27	858.333
184.48	1128.571
184.70	252.000
184.91	-673.333
185.13	248.889
185.34	-289.286
185.56	131.667
185.78	0.000
185.99	820.000
186.21	420.690
186.42	873.333
186.64	246.774
186.85	274.074
187.07	178.182
187.28	306.667
187.50	-240.000
187.72	1460.000
187.93	-13300.000
188.15	220.000
188.36	-629.412
188.58	-3250.000
188.79	354.545
189.01	372.222
189.22	2240.000
189.44	3200.000
189.65	260.000
189.87	1312.500
190.09	-1900.000
190.30	600.000
190.52	-4800.000
190.73	201.786
190.95	392.857
191.16	215.556
191.38	860.000
191.59	259.524
191.81	172.222
192.02	276.596
192.24	488.235
192.45	-820.000
192.67	325.714
192.88	450.000
193.10	272.000
193.31	435.000
193.53	-13500.000
193.74	92.683
193.96	545.833
194.18	270.968
194.39	-455.556
194.61	415.789
194.82	476.190
195.04	252.381
195.25	4150.000
195.47	224.390
195.68	178.723
195.90	880.000
196.11	232.727
196.33	234.043
196.54	-3700.000
196.76	407.143
196.97	-3400.000
197.19	442.857
197.40	291.176
197.62	157.813
197.83	175.676
198.05	-494.737
198.26	285.714
198.48	183.333
198.69	186.047
198.91	247.059
199.12	-234.286
199.34	-1160.000
199.55	3400.000
199.77	2750.000
199.98	256.000
200.20	111.268
200.41	600.000
200.63	-711.111
200.84	178.431
201.06	692.308
201.27	354.054
201.49	1362.500
201.70	285.185
201.91	219.565
202.13	163.768
202.34	256.604
202.56	-771.429
202.77	544.444
202.99	332.143
203.20	3900.000
203.42	1212.500
203.63	283.721
203.85	291.429
204.06	224.074
204.28	-1110.000
204.49	262.857
204.71	187.179
204.92	0.000
205.14	-285.714
205.35	488.889
205.56	-2340.000
205.78	404.762
205.99	670.000
206.21	-187.097
206.42	245.161
206.64	300.000
206.85	2225.000
207.07	-676.923
207.28	621.429
207.50	-494.737
207.71	271.795
207.93	247.727
208.14	570.588
208.35	215.789
208.57	-9500.000
208.78	938.462
209.00	327.778
209.21	-5500.000
209.43	303.448
209.64	311.765
209.86	542.857
210.07	0.000
210.28	-582.353
210.50	153.061
210.71	149.123
210.93	504.762
211.14	-377.778
211.36	-248.387
211.57	-328.571
211.78	-252.174
212.00	0.000
212.21	211.628
212.43	-372.727
212.64	186.207
212.86	-725.000
213.07	-336.364
213.29	200.000
213.50	5800.000
213.71	190.566
213.93	1600.000
214.14	174.242
214.36	8800.000
214.57	519.231
214.78	487.500
215.00	3000.000
215.21	238.889
215.43	388.000
215.64	269.231
215.86	251.429
216.07	9200.000
216.28	172.000
216.50	-1371.429
216.71	-1860.000
216.93	193.617
217.14	215.625
217.35	396.296
217.57	339.286
217.78	1225.000
218.00	-680.000
218.21	257.895
218.42	-2766.667
218.64	758.824
218.85	-1133.333
219.07	642.857
219.28	2425.000
219.49	117.105
219.71	2700.000
219.92	305.556
220.14	295.833
220.35	505.000
220.56	253.846
220.78	394.118
220.99	-8900.000
221.21	509.524
221.42	541.667
221.63	160.000
221.85	193.548
222.06	228.571
222.28	270.455
222.49	-4300.000
222.70	0.000
222.92	333.333
223.13	350.000
223.34	-2475.000
223.56	152.632
223.77	115.730
223.99	287.179
224.20	114.286
224.41	264.865
224.63	261.111
224.84	124.138
225.05	153.571
225.27	122.857
225.48	217.391
225.69	814.286
225.91	166.667
226.12	272.222
226.34	113.725
226.55	120.370
226.76	209.677
226.98	150.000
227.19	145.455
227.40	66.942
227.62	75.610
227.83	93.000
228.04	76.923
228.26	47.525
228.47	125.862
228.69	44.737
228.90	105.634
229.11	68.889
229.33	47.826
229.54	40.132
229.75	40.870
229.97	27.039
230.18	29.032
230.39	16.034
230.61	25.157
230.82	35.685
231.03	8.299
231.25	39.394
231.46	34.672
231.67	44.269
231.89	61.176
232.10	28.340
232.31	62.981
232.53	67.797
232.74	45.833
232.95	66.265
233.17	42.775
233.38	37.313
233.59	80.882
233.81	55.340
234.02	70.395
234.23	45.989
234.45	54.605
234.66	52.542
234.87	48.993
235.09	82.222
235.30	25.287
235.51	44.175
235.73	40.881
235.94	63.731
236.15	36.735
236.36	66.667
236.58	63.033
236.79	44.503
237.00	38.164
237.22	36.420
237.43	53.431
237.64	41.485
237.86	31.522
238.07	65.327
238.28	31.694
238.50	49.565
238.71	56.213
238.92	33.333
239.13	61.143
239.35	73.427
239.56	46.354
239.77	58.049
239.99	43.396
240.20	27.895
240.41	51.724
240.63	37.652
240.84	23.904
241.05	37.956
241.26	33.058
241.48	34.808
241.69	29.114
241.90	17.465
242.12	31.633
242.33	21.121
242.54	11.301
242.75	16.888
242.97	21.724
243.18	10.774
243.39	17.262
243.61	8.246
243.82	17.902
244.03	11.511
244.24	9.663
244.46	8.889
244.67	13.024
244.88	17.371
245.09	21.870
245.31	19.386
245.52	32.904
245.73	26.848
245.95	27.719
246.16	14.967
246.37	25.000
246.58	14.766
246.80	17.544
247.01	12.368
247.22	17.792
247.43	10.000
247.65	14.440
247.86	4.692
248.07	9.699
248.28	9.005
248.50	8.506
248.71	11.307
248.92	6.186
249.13	8.205
249.35	9.453
249.56	9.076
249.77	8.797
249.98	7.648
250.20	12.000
250.41	13.184
250.62	13.253
250.83	14.433
251.05	12.360
251.26	12.523
251.47	19.279
251.68	14.625
251.90	19.928
252.11	20.035
252.32	15.683
252.53	18.963
252.75	16.160
252.96	18.429
253.17	14.563
253.38	13.919
253.59	12.712
253.81	9.328
254.02	9.502
254.23	17.126
254.44	17.582
254.66	19.669
254.87	17.509
255.08	12.637
255.29	23.695
255.50	18.710
255.72	15.826
255.93	26.277
256.14	19.545
256.35	18.970
256.57	20.997
256.78	29.452
256.99	16.230
257.20	18.932
257.41	25.673
257.63	19.427
257.84	20.124
258.05	30.417
258.26	16.036
258.47	19.678
258.69	16.530
258.90	15.528
259.11	7.800
259.32	10.434
259.53	5.228
259.75	10.710
259.96	5.527
260.17	6.194
260.38	5.421
260.59	6.148
260.81	7.918
261.02	6.759
261.23	8.229
261.44	8.075
261.65	5.757
261.87	3.636
262.08	6.234
262.29	9.732
262.50	7.963
262.71	8.729
262.92	11.412
263.14	12.477
263.35	5.015
263.56	8.471
263.77	9.502
263.98	14.947
264.20	14.637
264.41	6.906
264.62	15.633
264.83	11.582
265.04	19.386
265.25	19.767
265.47	14.048
265.68	16.327
265.89	18.636
266.10	9.704
266.31	17.923
266.52	13.870
266.74	4.110
266.95	7.853
267.16	14.175
267.37	11.375
267.58	4.167
267.79	8.454
268.01	11.429
268.22	10.978
268.43	11.443
268.64	11.099
268.85	11.740
269.06	6.825
269.27	11.815
269.49	10.291
269.70	12.121
269.91	10.672
270.12	6.161
270.33	11.907
270.54	10.744
270.75	12.749
270.97	12.449
271.18	8.000
271.39	9.211
271.60	13.779
271.81	6.315
272.02	10.018
272.23	9.603
272.45	9.209
272.66	6.318
272.87	5.973
273.08	8.942
273.29	7.306
273.50	9.105
273.71	8.283
273.92	5.449
274.14	3.101
274.35	2.834
274.56	11.497
274.77	7.420
274.98	9.910
275.19	10.124
275.40	10.060
275.61	5.572
275.83	14.300
276.04	8.704
276.25	6.275
276.46	9.027
276.67	8.419
276.88	9.721
277.09	5.253
277.30	13.202
277.51	13.272
277.73	8.300
277.94	10.273
278.15	7.322
278.36	9.119
278.57	8.197
278.78	14.400
278.99	10.146
279.20	10.921
279.41	12.703
279.62	9.829
279.84	9.633
280.05	11.628
280.26	11.180
280.47	11.794
280.68	2.838
280.89	13.269
281.10	11.869
281.31	5.894
281.52	12.780
281.73	12.011
281.94	8.909
282.16	8.137
282.37	11.516
282.58	9.685
282.79	10.411
283.00	12.030
283.21	7.823
283.42	9.168
283.63	6.926
283.84	7.019
284.05	10.522
284.26	8.936
284.47	8.438
284.68	9.084
284.89	8.919
285.11	8.449
285.32	9.043
285.53	6.627
285.74	10.354
285.95	7.055
286.16	5.886
286.37	5.208
286.58	4.965
286.79	9.904
287.00	6.813
287.21	5.813
287.42	5.385
287.63	5.307
287.84	6.226
288.05	5.868
288.26	6.553
288.48	11.949
288.69	6.384
288.90	4.818
289.11	10.149
289.32	7.410
289.53	4.619
289.74	4.714
289.95	6.273
290.16	9.117
290.37	4.926
290.58	7.076
290.79	3.841
291.00	8.803
291.21	5.208
291.42	4.497
291.63	5.177
291.84	7.950
292.05	6.499
292.26	4.997
292.47	8.833
292.68	3.562
292.89	7.089
293.10	8.175
293.31	6.854
293.52	6.278
293.73	4.016
293.94	5.887
294.15	8.736
294.36	6.381
294.57	9.437
294.79	7.913
295.00	7.322
295.21	6.466
295.42	8.003
295.63	5.924
295.84	7.177
296.05	6.923
296.26	2.717
296.47	7.053
296.68	7.590
296.89	4.805
297.10	4.856
297.31	5.594
297.52	8.250
297.73	6.335
297.94	6.452
298.15	3.191
298.36	6.775
298.57	5.288
298.78	5.828
298.99	5.302
299.20	4.439
299.41	3.320
299.62	4.941
299.83	5.996
300.04	5.808
300.25	3.963
300.46	7.974
300.67	5.688
300.88	6.919
301.09	2.795
301.30	8.696
301.50	8.944
301.71	10.412
301.92	8.222
302.13	7.742
302.34	4.521
302.55	4.133
302.76	5.846
302.97	9.423
303.18	6.263
303.39	6.259
303.60	6.337
303.81	6.600
304.02	4.831
304.23	7.268
304.44	6.384
304.65	4.893
304.86	5.537
305.07	2.880
305.28	5.940
305.49	7.639
305.70	7.049
305.91	9.839
306.12	4.173
306.33	3.599
306.54	5.796
306.75	8.234
306.96	7.270
307.17	8.333
307.38	6.107
307.58	7.280
307.79	5.847
308.00	8.296
308.21	8.951
308.42	7.015
308.63	12.043
308.84	8.427
309.05	6.389
309.26	7.943
309.47	6.071
309.68	3.732
309.89	7.669
310.10	9.414
310.31	5.421
310.52	4.058
310.73	9.200
310.94	4.249
311.14	5.263
311.35	4.770
311.56	7.339
311.77	5.755
311.98	3.720
312.19	7.174
312.40	4.951
312.61	4.541
312.82	4.301
313.03	4.992
313.24	7.379
313.45	5.093
313.66	7.267
313.86	6.707
314.07	4.683
314.28	5.948
314.49	6.697
314.70	8.362
314.91	5.765
315.12	7.771
315.33	5.446
315.54	7.349
315.75	7.780
315.96	5.453
316.16	7.241
316.37	6.781
316.58	5.615
316.79	6.049
317.00	5.724
317.21	6.019
317.42	4.944
317.63	6.771
317.84	8.777
318.05	7.283
318.25	7.112
318.46	6.990
318.67	5.457
318.88	5.362
319.09	5.294
319.30	7.455
319.51	3.489
319.72	9.873
319.93	7.919
320.13	6.436
320.34	6.383
320.55	5.251
320.76	6.096
320.97	8.149
321.18	4.880
321.39	6.278
321.60	7.448
321.80	11.410
322.01	6.439
322.22	5.607
322.43	3.712
322.64	4.744
322.85	3.914
323.06	9.141
323.27	9.469
323.47	8.764
323.68	9.012
323.89	4.120
324.10	7.729
324.31	5.677
324.52	7.622
324.73	5.065
324.93	7.821
325.14	4.790
325.35	5.440
325.56	4.345
325.77	6.262
325.98	6.504
326.19	7.249
326.39	6.667
326.60	5.723
326.81	4.378
327.02	7.299
327.23	3.206
327.44	8.491
327.64	6.582
327.85	3.690
328.06	7.574
328.27	8.514
328.48	6.062
328.69	4.449
328.90	5.488
329.10	8.892
329.31	4.103
329.52	6.812
329.73	9.590
329.94	3.740
330.15	3.538
330.35	8.571
330.56	3.960
330.77	7.485
330.98	9.469
331.19	6.680
331.39	9.209
331.60	4.161
331.81	7.995
332.02	8.835
332.23	9.344
332.44	5.343
332.64	6.548
332.85	5.077
333.06	8.190
333.27	4.510
333.48	5.203
333.68	7.593
333.89	5.743
334.10	4.611
334.31	10.626
334.52	8.853
334.72	4.788
334.93	4.620
335.14	5.823
335.35	4.736
335.56	5.276
335.76	5.545
335.97	7.256
336.18	4.883
336.39	6.484
336.60	6.899
336.80	5.660
337.01	6.430
337.22	1.832
337.43	7.650
337.64	7.028
337.84	5.067
338.05	6.232
338.26	7.490
338.47	8.378
338.68	6.711
338.88	4.345
339.09	6.048
339.30	4.692
339.51	7.185
339.71	4.988
339.92	5.075
340.13	6.365
340.34	5.549
340.55	7.706
340.75	6.855
340.96	4.411
341.17	3.473
341.38	5.747
341.58	4.601
341.79	5.921
342.00	4.745
342.21	4.740
342.41	4.199
342.62	5.758
342.83	6.585
343.04	3.879
343.24	6.214
343.45	3.966
343.66	5.661
343.87	6.944
344.07	4.157
344.28	5.130
344.49	6.731
344.70	6.457
344.90	3.346
345.11	5.999
345.32	7.615
345.53	5.008
345.73	3.213
345.94	4.402
346.15	6.115
346.36	3.799
346.56	4.846
346.77	6.076
346.98	6.278
347.19	5.769
347.39	4.796
347.60	6.434
347.81	5.820
348.02	6.228
348.22	4.299
348.43	4.280
348.64	5.148
348.84	6.190
349.05	6.618
349.26	9.333
349.47	6.826
349.67	5.969
349.88	7.067
350.09	5.817
350.30	6.177
350.50	5.866
350.71	5.735
350.92	6.080
351.12	5.236
351.33	5.192
351.54	7.207
351.74	5.895
351.95	6.414
352.16	5.538
352.37	7.266
352.57	6.328
352.78	5.200
352.99	8.115
353.19	3.758
353.40	3.463
353.61	8.033
353.82	4.619
354.02	7.483
354.23	7.234
354.44	5.804
354.64	7.847
354.85	6.361
355.06	6.627
355.26	2.893
355.47	6.468
355.68	4.940
355.88	7.409
356.09	4.352
356.30	4.175
356.51	6.107
356.71	6.670
356.92	3.792
357.13	4.180
357.33	5.234
357.54	2.520
357.75	5.469
357.95	5.788
358.16	3.807
358.37	7.105
358.57	4.600
358.78	6.041
358.99	5.124
359.19	4.080
359.40	4.813
359.61	4.880
359.81	5.261
360.02	4.821
360.23	3.699
360.43	5.589
360.64	4.253
360.85	4.921
361.05	5.505
361.26	5.618
361.47	3.065
361.67	5.983
361.88	2.870
362.09	3.345
362.29	3.735
362.50	3.290
362.70	3.167
362.91	3.919
363.12	2.500
363.32	3.131
363.53	3.664
363.74	4.052
363.94	3.790
364.15	4.974
364.36	3.372
364.56	2.778
364.77	4.286
364.98	5.174
365.18	3.196
365.39	2.982
365.59	4.454
365.80	3.364
366.01	4.058
366.21	5.100
366.42	3.183
366.63	3.789
366.83	4.567
367.04	2.320
367.24	6.115
367.45	4.701
367.66	4.588
367.86	5.445
368.07	4.042
368.28	3.929
368.48	4.243
368.69	3.076
368.89	4.962
369.10	5.023
369.31	3.982
369.51	3.191
369.72	4.055
369.92	4.442
370.13	3.501
370.34	4.368
370.54	3.975
370.75	6.175
370.95	5.611
371.16	4.281
371.37	3.328
371.57	4.977
371.78	4.236
371.98	4.496
372.19	5.209
372.40	4.218
372.60	5.322
372.81	4.867
373.01	4.188
373.22	2.722
373.43	3.890
373.63	6.353
373.84	4.394
374.04	4.381
374.25	3.697
374.46	4.043
374.66	4.697
374.87	3.476
375.07	4.909
375.28	5.077
375.48	4.587
375.69	4.148
375.90	4.536
376.10	4.123
376.31	4.748
376.51	4.407
376.72	3.830
376.92	2.483
377.13	4.391
377.34	4.381
377.54	4.226
377.75	2.803
377.95	4.487
378.16	3.811
378.36	5.078
378.57	3.789
378.77	3.797
378.98	4.078
379.19	4.311
379.39	2.363
379.60	4.389
379.80	4.419
380.01	5.040
380.21	4.461
380.42	4.360
380.62	3.006
380.83	4.018
381.04	3.740
381.24	3.532
381.45	3.106
381.65	4.590
381.86	4.799
382.06	4.666
382.27	2.011
382.47	3.676
382.68	5.143
382.88	2.437
383.09	2.900
383.29	2.658
383.50	4.297
383.71	3.656
383.91	2.895
384.12	2.639
384.32	3.480
384.53	4.492
384.73	1.864
384.94	4.802
385.14	2.822
385.35	1.981
385.55	3.142
385.76	3.423
385.96	3.964
386.17	4.001
386.37	2.982
386.58	3.363
386.78	2.830
386.99	2.904
387.19	4.075
387.40	2.834
387.60	5.319
387.81	3.370
388.01	4.435
388.22	4.958
388.42	3.816
388.63	5.548
388.83	4.795
389.04	3.441
389.24	3.822
389.45	3.809
389.65	4.960
389.86	3.634
390.06	3.696
390.27	4.062
390.47	3.333
390.68	3.290
390.88	5.494
391.09	4.475
391.29	4.435
391.50	4.196
391.70	3.523
391.91	4.293
392.11	3.583
392.32	3.614
392.52	5.324
392.73	3.040
392.93	4.155
393.14	3.969
393.34	3.155
393.55	3.435
393.75	3.383
393.95	3.475
394.16	3.678
394.36	5.035
394.57	5.534
394.77	4.864
394.98	3.597
395.18	3.071
395.39	3.068
395.59	4.076
395.80	3.834
396.00	4.450
396.21	4.368
396.41	4.455
396.61	5.233
396.82	4.930
397.02	6.901
397.23	5.339
397.43	3.858
397.64	3.745
397.84	5.211
398.05	4.308
398.25	5.230
398.45	3.815
398.66	5.800
398.86	6.145
399.07	6.062
399.27	5.594
399.48	5.208
399.68	2.859
399.89	3.816
400.09	4.988
400.29	3.973
400.50	6.088
400.70	4.645
400.91	3.124
401.11	4.986
401.32	6.141
401.52	2.754
401.72	4.474
401.93	6.474
402.13	4.719
402.34	4.590
402.54	4.666
402.75	6.358
402.95	3.843
403.15	6.459
403.36	3.637
403.56	5.418
403.77	3.342
403.97	4.180
404.17	3.565
404.38	6.279
404.58	4.370
404.79	5.642
404.99	5.378
405.19	4.789
405.40	4.093
405.60	4.638
405.81	4.887
406.01	3.255
406.21	4.920
406.42	4.691
406.62	4.586
406.83	4.534
407.03	4.902
407.23	3.708
407.44	4.444
407.64	6.541
407.85	6.061
408.05	5.145
408.25	4.167
408.46	5.187
408.66	5.287
408.87	4.012
409.07	4.418
409.27	3.906
409.48	5.343
409.68	5.326
409.88	4.006
410.09	5.998
410.29	5.045
410.50	5.811
410.70	2.854
410.90	4.120
411.11	2.833
411.31	5.038
411.51	4.876
411.72	6.186
411.92	3.970
412.12	3.954
412.33	3.639
412.53	4.233
412.74	3.685
412.94	3.737
413.14	4.380
413.35	5.024
413.55	3.604
413.75	5.335
413.96	4.304
414.16	3.604
414.36	5.275
414.57	4.347
414.77	3.823
414.97	4.453
415.18	4.564
415.38	5.244
415.58	3.155
415.79	3.615
415.99	4.937
416.19	4.521
416.40	4.913
416.60	4.556
416.80	3.380
417.01	5.947
417.21	3.587
417.41	5.696
417.62	4.795
417.82	3.968
418.02	3.049
418.23	4.018
418.43	4.448
418.63	3.980
418.84	5.704
419.04	3.895
419.24	4.499
419.45	5.682
419.65	5.362
419.85	5.103
420.06	4.825
420.26	4.887
420.46	4.478
420.67	6.365
420.87	5.529
421.07	5.524
421.28	3.971
421.48	5.839
421.68	4.792
421.88	6.650
422.09	4.803
422.29	5.388
422.49	4.633
422.70	5.089
422.90	4.547
423.10	5.677
423.31	4.865
423.51	5.772
423.71	4.839
423.91	5.563
424.12	5.481
424.32	5.570
424.52	5.157
424.73	5.507
424.93	5.367
425.13	4.945
425.33	3.923
425.54	6.205
425.74	4.825
425.94	5.830
426.15	4.998
426.35	4.239
426.55	5.310
426.75	5.586
426.96	5.336
427.16	4.341
427.36	4.968
427.57	6.043
427.77	4.739
427.97	4.563
428.17	4.925
428.38	5.230
428.58	3.285
428.78	4.520
428.98	4.167
429.19	3.773
429.39	3.208
429.59	5.491
429.79	3.130
430.00	3.247
430.20	2.960
430.40	4.099
430.60	4.171
430.81	5.301
431.01	3.992
431.21	4.551
431.41	2.956
431.62	4.375
431.82	4.493
432.02	5.050
432.22	3.663
432.43	3.376
432.63	3.936
432.83	3.650
433.03	4.252
433.24	3.501
433.44	4.001
433.64	3.912
433.84	3.988
434.05	5.341
434.25	3.630
434.45	4.709
434.65	5.378
434.85	5.458
435.06	5.197
435.26	4.607
435.46	3.722
435.66	4.716
435.87	4.455
436.07	5.305
436.27	4.514
436.47	4.822
436.67	3.460
436.88	5.480
437.08	4.588
437.28	4.500
437.48	4.414
437.69	5.564
437.89	4.739
438.09	5.644
438.29	4.037
438.49	5.898
438.70	4.748
438.90	4.195
439.10	4.095
439.30	5.482
439.50	4.105
439.71	4.593
439.91	4.442
440.11	5.948
440.31	5.498
440.51	4.725
440.72	4.486
440.92	5.213
441.12	5.335
441.32	6.434
441.52	5.924
441.72	6.242
441.93	4.915
442.13	6.381
442.33	5.039
442.53	6.849
442.73	4.791
442.94	6.050
443.14	4.752
443.34	6.598
443.54	5.801
443.74	6.185
443.94	5.949
444.15	5.189
444.35	4.220
444.55	6.157
444.75	5.033
444.95	5.767
445.15	4.656
445.36	5.875
445.56	3.816
445.76	6.204
445.96	4.867
446.16	5.165
446.36	4.017
446.57	7.183
446.77	4.650
446.97	6.030
447.17	6.690
447.37	6.231
447.57	6.382
447.77	6.969
447.98	5.787
448.18	7.264
448.38	5.385
448.58	6.868
448.78	6.264
448.98	6.370
449.18	5.467
449.39	5.708
449.59	5.449
449.79	5.400
449.99	4.661
450.19	6.128
450.39	4.999
450.59	6.527
450.79	5.050
451.00	6.531
451.20	6.499
451.40	5.633
451.60	4.002
451.80	5.221
452.00	4.719
452.20	5.350
452.40	5.268
452.61	5.271
452.81	6.323
453.01	5.715
453.21	3.694
453.41	5.889
453.61	5.313
453.81	5.169
454.01	5.310
454.21	5.238
454.42	5.460
454.62	5.881
454.82	4.412
455.02	4.561
455.22	4.278
455.42	5.182
455.62	4.119
455.82	5.314
456.02	3.741
456.23	4.994
456.43	4.560
456.63	5.662
456.83	4.263
457.03	5.890
457.23	4.660
457.43	5.098
457.63	4.128
457.83	5.764
458.03	4.169
458.23	5.988
458.43	4.229
458.64	4.995
458.84	4.732
459.04	5.276
459.24	4.885
459.44	5.449
459.64	5.204
459.84	6.409
460.04	5.665
460.24	6.145
460.44	5.667
460.64	6.687
460.84	5.993
461.04	7.165
461.24	6.672
461.45	7.590
461.65	6.986
461.85	6.758
462.05	6.294
462.25	6.978
462.45	6.574
462.65	6.315
462.85	5.106
463.05	6.097
463.25	4.526
463.45	5.974
463.65	4.725
463.85	5.301
464.05	4.753
464.25	5.436
464.45	6.279
464.65	5.170
464.85	4.813
465.05	5.480
465.26	5.870
465.46	5.562
465.66	6.385
465.86	6.061
466.06	5.308
466.26	5.984
466.46	3.814
466.66	5.157
466.86	5.467
467.06	5.210
467.26	5.115
467.46	5.912
467.66	5.154
467.86	5.767
468.06	5.559
468.26	5.847
468.46	5.634
468.66	5.800
468.86	4.647
469.06	6.441
469.26	4.778
469.46	5.190
469.66	5.239
469.86	6.075
470.06	5.322
470.26	6.456
470.46	4.595
470.66	6.899
470.86	4.997
471.06	6.448
471.26	4.168
471.46	5.066
471.66	5.541
471.86	5.171
472.06	5.420
472.26	6.881
472.46	7.147
472.66	6.423
472.86	4.731
473.06	5.891
473.26	5.142
473.46	5.585
473.66	5.381
473.86	6.462
474.06	6.377
474.26	6.010
474.46	4.962
474.66	6.636
474.86	5.945
475.06	6.825
475.26	4.026
475.46	6.077
475.66	4.720
475.86	6.711
476.06	6.497
476.26	6.830
476.46	5.742
476.66	6.083
476.86	5.181
477.06	6.222
477.26	5.288
477.46	6.677
477.65	5.620
477.85	7.328
478.05	5.210
478.25	7.423
478.45	5.532
478.65	7.051
478.85	5.279
479.05	7.263
479.25	6.320
479.45	7.897
479.65	5.548
479.85	7.004
480.05	6.310
480.25	7.655
480.45	6.365
480.65	8.356
480.85	5.549
481.05	7.174
481.25	7.051
481.44	7.541
481.64	5.760
481.84	7.604
482.04	6.740
482.24	7.713
482.44	6.215
482.64	7.720
482.84	7.315
483.04	8.808
483.24	7.932
483.44	8.276
483.64	8.015
483.84	8.598
484.04	8.365
484.23	8.488
484.43	8.716
484.63	8.699
484.83	8.486
485.03	8.951
485.23	8.979
485.43	9.054
485.63	9.198
485.83	9.212
486.03	9.341
486.23	9.285
486.42	8.977
486.62	9.386
486.82	8.785
487.02	8.636
487.22	8.688
487.42	8.921
487.62	8.926
487.82	8.805
488.02	8.457
488.22	8.724
488.41	8.934
488.61	9.018
488.81	8.582
489.01	8.939
489.21	8.772
489.41	8.905
489.61	8.779
489.81	9.101
490.01	8.993
490.20	9.342
490.40	9.128
490.60	9.187
490.80	8.740
491.00	9.140
491.20	8.728
491.40	8.533
491.60	8.232
491.79	8.616
491.99	8.582
492.19	8.847
492.39	8.337
492.59	8.789
492.79	8.910
492.99	8.560
493.19	9.335
493.38	9.155
493.58	8.802
493.78	9.073
493.98	9.004
494.18	9.229
494.38	8.938
494.58	9.002
494.77	7.096
494.97	8.645
495.17	7.505
495.37	8.168
495.57	7.827
495.77	7.911
495.96	7.700
496.16	7.344
496.36	7.810
496.56	8.612
496.76	7.102
496.96	7.686
497.15	7.608
497.35	8.142
497.55	7.629
497.75	8.478
497.95	7.632
498.15	8.342
498.34	7.692
498.54	8.782
498.74	8.528
498.94	8.330
499.14	7.474
499.34	9.040
499.53	7.751
499.73	8.470
499.93	7.655
500.13	9.006
500.33	7.302
500.52	7.775
500.72	7.710
500.92	8.538
501.12	7.628
501.32	8.983
501.52	7.874
501.71	8.338
501.91	6.958
502.11	8.218
502.31	7.148
502.51	8.849
502.70	7.037
502.90	8.704
503.10	7.345
503.30	8.507
503.50	8.403
503.69	8.530
503.89	7.721
504.09	9.138
504.29	7.177
504.48	9.362
504.68	8.758
504.88	9.411
505.08	7.504
505.28	9.692
505.47	8.496
505.67	9.697
505.87	8.234
506.07	8.947
506.27	7.239
506.46	9.321
506.66	8.297
506.86	9.170
507.06	9.402
507.25	8.939
507.45	9.109
507.65	10.300
507.85	8.301
508.04	9.506
508.24	8.828
508.44	9.151
508.64	8.866
508.83	10.021
509.03	8.813
509.23	9.855
509.43	9.018
509.63	10.359
509.82	9.498
510.02	10.332
510.22	9.081
510.42	10.906
510.61	10.154
510.81	10.256
511.01	9.663
511.21	10.707
511.40	10.675
511.60	10.797
511.80	10.578
511.99	11.048
512.19	10.512
512.39	11.427
512.59	10.568
512.78	11.791
512.98	11.263
513.18	11.027
513.38	10.842
513.57	11.100
513.77	10.814
513.97	10.899
514.17	11.171
514.36	11.331
514.56	10.846
514.76	11.172
514.95	10.395
515.15	11.885
515.35	10.068
515.55	11.597
515.74	11.249
515.94	12.608
516.14	10.946
516.33	11.896
516.53	11.340
516.73	11.837
516.93	11.957
517.12	11.619
517.32	11.116
517.52	12.425
517.71	12.018
517.91	12.355
518.11	11.834
518.30	12.182
518.50	11.357
518.70	11.631
518.90	11.422
519.09	12.041
519.29	12.790
519.49	12.044
519.68	12.103
519.88	12.349
520.08	11.731
520.27	12.311
520.47	12.318
520.67	12.477
520.86	12.591
521.06	12.723
521.26	11.341
521.45	12.488
521.65	11.878
521.85	13.073
522.04	12.471
522.24	12.755
522.44	11.825
522.63	12.645
522.83	11.939
523.03	13.129
523.22	12.351
523.42	12.676
523.62	12.605
523.81	12.692
524.01	12.557
524.21	12.695
524.40	12.204
524.60	12.429
524.80	12.157
524.99	11.811
525.19	12.495
525.39	12.483
525.58	11.945
525.78	12.333
525.98	12.124
526.17	12.732
526.37	12.291
526.57	12.430
526.76	11.616
526.96	12.400
527.15	12.014
527.35	12.194
527.55	11.910
527.74	12.625
527.94	11.875
528.14	12.075
528.33	11.750
528.53	11.951
528.72	11.842
528.92	11.852
529.12	12.045
529.31	12.089
529.51	11.901
529.71	12.388
529.90	12.055
530.10	12.097
530.29	12.394
530.49	12.336
530.69	12.703
530.88	12.761
531.08	12.767
531.28	12.493
531.47	12.534
531.67	12.517
531.86	12.487
532.06	12.774
532.26	12.137
532.45	12.616
532.65	11.972
532.84	12.476
533.04	12.252
533.24	12.238
533.43	12.266
533.63	12.334
533.82	12.333
534.02	12.590
534.22	12.298
534.41	12.081
534.61	12.209
534.80	12.204
535.00	12.578
535.19	12.779
535.39	12.787
535.59	12.748
535.78	13.186
535.98	12.792
536.17	12.502
536.37	13.066
536.57	12.507
536.76	12.546
536.96	12.018
537.15	12.656
537.35	12.844
537.54	12.905
537.74	12.738
537.93	13.132
538.13	12.397
538.33	13.057
538.52	12.919
538.72	12.798
538.91	12.813
539.11	13.398
539.30	12.848
539.50	13.047
539.70	12.198
539.89	13.659
540.09	12.626
540.28	12.970
540.48	12.179
540.67	12.995
540.87	11.769
541.06	12.676
541.26	12.507
541.45	13.067
541.65	12.804
541.85	12.656
542.04	12.380
542.24	12.655
542.43	12.389
542.63	12.505
542.82	13.316
543.02	12.963
543.21	13.001
543.41	13.075
543.60	13.057
543.80	13.279
543.99	12.864
544.19	13.322
544.38	13.135
544.58	13.153
544.77	13.226
544.97	13.357
545.16	13.705
545.36	13.423
545.56	13.500
545.75	13.183
545.95	13.434
546.14	13.382
546.34	13.483
546.53	13.570
546.73	13.611
546.92	13.692
547.12	13.734
547.31	13.466
547.51	12.648
547.70	14.135
547.90	13.252
548.09	13.935
548.29	13.251
548.48	13.912
548.68	13.157
548.87	14.181
549.07	13.155
549.26	14.113
549.46	13.536
549.65	14.530
549.84	13.651
550.04	14.654
550.23	13.383
550.43	13.922
550.62	13.904
550.82	13.701
551.01	12.554
551.21	14.299
551.40	13.513
551.60	14.179
551.79	13.787
551.99	13.867
552.18	13.187
552.38	13.905
552.57	13.278
552.77	13.338
552.96	13.815
553.16	14.666
553.35	12.865
553.54	14.897
553.74	13.626
553.93	14.752
554.13	14.306
554.32	14.639
554.52	14.621
554.71	13.785
554.91	14.448
555.10	14.830
555.29	13.534
555.49	14.290
555.68	13.268
555.88	14.598
556.07	14.108
556.27	14.651
556.46	13.402
556.66	13.794
556.85	14.827
557.04	14.939
557.24	14.442
557.43	14.894
557.63	14.266
557.82	14.803
558.02	13.788
558.21	15.279
558.40	14.361
558.60	14.556
558.79	14.563
558.99	15.011
559.18	13.833
559.38	15.162
559.57	14.358
559.76	14.333
559.96	14.938
560.15	15.698
560.35	14.811
560.54	15.121
560.73	13.363
560.93	15.629
561.12	14.816
561.32	15.491
561.51	14.830
561.70	14.775
561.90	14.673
562.09	15.934
562.29	14.118
562.48	16.244
562.67	15.233
562.87	15.695
563.06	14.120
563.26	15.969
563.45	14.241
563.64	16.002
563.84	15.005
564.03	15.773
564.23	15.091
564.42	16.183
564.61	14.152
564.81	16.116
565.00	16.285
565.20	15.490
565.39	15.694
565.58	15.302
565.78	15.312
565.97	16.138
566.16	15.631
566.36	17.443
566.55	15.909
566.74	15.697
566.94	16.259
567.13	16.716
567.33	16.096
567.52	16.690
567.71	15.598
567.91	16.491
568.10	16.525
568.29	16.459
568.49	15.737
568.68	16.539
568.87	15.887
569.07	16.614
569.26	17.077
569.45	16.705
569.65	16.471
569.84	17.381
570.04	16.657
570.23	16.236
570.42	16.872
570.62	17.215
570.81	17.128
571.00	17.684
571.20	17.181
571.39	16.490
571.58	16.556
571.78	17.112
571.97	17.664
572.16	17.659
572.36	16.624
572.55	17.763
572.74	17.893
572.94	16.621
573.13	17.193
573.32	17.209
573.51	16.963
573.71	17.213
573.90	16.916
574.09	17.534
574.29	17.010
574.48	17.797
574.67	17.227
574.87	17.422
575.06	16.791
575.25	18.294
575.45	16.507
575.64	17.913
575.83	17.141
576.03	19.659
576.22	17.630
576.41	18.325
576.60	17.845
576.80	17.895
576.99	17.655
577.18	18.949
577.38	18.881
577.57	17.992
577.76	19.152
577.95	19.187
578.15	17.630
578.34	19.568
578.53	18.521
578.73	19.432
578.92	18.554
579.11	19.296
579.30	18.496
579.50	19.002
579.69	18.571
579.88	19.194
580.08	18.653
580.27	19.873
580.46	19.969
580.65	19.525
580.85	18.584
581.04	18.290
581.23	19.192
581.42	20.252
581.62	18.558
581.81	19.854
582.00	18.635
582.19	19.357
582.39	18.761
582.58	18.758
582.77	18.758
582.96	18.788
583.16	18.744
583.35	19.211
583.54	19.876
583.73	18.837
583.93	19.015
584.12	19.138
584.31	19.456
584.50	19.100
584.70	18.216
584.89	19.982
585.08	19.017
585.27	19.906
585.47	18.178
585.66	18.966
585.85	18.439
586.04	18.699
586.24	18.323
586.43	18.317
586.62	19.169
586.81	19.937
587.00	17.403
587.20	19.117
587.39	17.457
587.58	19.739
587.77	18.534
587.97	19.044
588.16	18.085
588.35	18.341
588.54	17.644
588.73	18.090
588.93	18.790
589.12	18.808
589.31	18.031
589.50	17.994
589.69	17.699
589.89	18.514
590.08	17.349
590.27	17.289
590.46	17.512
590.65	18.039
590.85	17.335
591.04	18.735
591.23	17.837
591.42	19.026
591.61	17.238
591.81	18.683
592.00	17.553
592.19	19.048
592.38	17.241
592.57	17.785
592.77	18.487
592.96	17.364
593.15	16.940
593.34	17.792
593.53	16.306
593.72	17.984
593.92	17.223
594.11	18.433
594.30	17.505
594.49	17.441
594.68	17.149
594.87	18.249
595.07	17.785
595.26	17.867
595.45	16.698
595.64	18.326
595.83	16.521
596.02	18.667
596.22	17.396
596.41	18.174
596.60	17.769
596.79	19.118
596.98	17.201
597.17	17.816
597.37	18.711
597.56	18.174
597.75	17.330
597.94	18.876
598.13	18.878
598.32	17.955
598.51	16.469
598.71	18.867
598.90	17.777
599.09	18.192
599.28	17.615
599.47	18.775
599.66	17.998
599.85	19.531
600.05	16.809
600.24	18.809
600.43	17.933
600.62	18.959
600.81	19.559
601.00	18.808
601.19	16.887
601.38	18.333
601.58	17.854
601.77	19.616
601.96	18.601
602.15	18.885
602.34	17.771
602.53	19.178
602.72	17.626
602.91	19.571
603.10	18.408
603.30	18.848
603.49	17.479
603.68	19.448
603.87	17.980
604.06	17.887
604.25	18.730
604.44	18.511
604.63	17.411
604.82	18.831
605.01	18.332
605.21	18.031
605.40	17.926
605.59	19.053
605.78	18.096
605.97	19.417
606.16	18.723
606.35	18.552
606.54	18.099
606.73	18.079
606.92	19.156
607.11	18.588
607.30	18.002
607.50	19.307
607.69	18.027
607.88	19.323
608.07	17.003
608.26	18.123
608.45	19.346
608.64	19.041
608.83	17.260
609.02	19.154
609.21	17.219
609.40	18.896
609.59	18.348
609.78	18.405
609.97	17.857
610.16	18.370
610.35	16.385
610.55	18.208
610.74	19.183
610.93	18.060
611.12	18.584
611.31	18.504
611.50	18.575
611.69	19.184
611.88	18.091
612.07	18.428
612.26	16.758
612.45	18.849
612.64	17.752
612.83	18.560
613.02	17.847
613.21	17.864
613.40	17.112
613.59	17.274
613.78	16.656
613.97	18.883
614.16	16.831
614.35	17.775
614.54	18.097
614.73	17.540
614.92	16.632
615.11	17.457
615.30	16.887
615.49	17.268
615.68	16.394
615.87	16.702
616.07	15.909
616.26	16.956
616.45	15.720
616.64	17.559
616.83	18.333
617.02	17.938
617.21	15.611
617.40	15.873
617.59	16.889
617.78	17.075
617.97	15.698
618.16	15.035
618.35	16.721
618.54	16.274
618.73	16.137
618.92	16.239
619.11	15.090
619.30	17.437
619.49	15.386
619.68	17.114
619.86	13.761
620.05	16.655
620.24	15.558
620.43	15.952
620.62	14.916
620.81	17.057
621.00	15.532
621.19	18.425
621.38	15.471
621.57	17.533
621.76	15.004
621.95	18.077
622.14	15.469
622.33	17.964
622.52	15.372
622.71	16.133
622.90	15.531
623.09	17.196
623.28	15.642
623.47	16.405
623.66	15.863
623.85	17.913
624.04	14.848
624.23	15.086
624.42	16.482
624.61	15.887
624.80	14.128
624.99	16.872
625.18	14.584
625.36	15.621
625.55	16.296
625.74	16.738
625.93	15.155
626.12	16.147
626.31	15.703
626.50	16.162
626.69	15.272
626.88	17.584
627.07	16.070
627.26	15.864
627.45	15.704
627.64	17.338
627.83	13.809
628.02	16.703
628.20	15.527
628.39	17.440
628.58	15.823
628.77	17.250
628.96	16.161
629.15	15.516
629.34	15.299
629.53	14.491
629.72	14.667
629.91	16.794
630.10	15.953
630.29	15.625
630.47	15.811
630.66	16.050
630.85	15.775
631.04	16.083
631.23	14.605
631.42	15.520
631.61	14.266
631.80	18.399
631.99	15.440
632.18	15.894
632.36	13.699
632.55	17.471
632.74	14.258
632.93	16.120
633.12	16.663
633.31	17.035
633.50	14.260
633.69	16.498
633.88	15.512
634.06	17.155
634.25	14.260
634.44	15.931
634.63	15.851
634.82	16.915
635.01	14.067
635.20	15.939
635.39	15.021
635.57	16.174
635.76	15.896
635.95	14.880
636.14	12.060
636.33	15.809
636.52	13.847
636.71	15.002
636.89	14.944
637.08	16.622
637.27	13.950
637.46	15.991
637.65	14.177
637.84	14.933
638.03	13.934
638.21	16.600
638.40	16.239
638.59	16.067
638.78	13.231
638.97	16.172
639.16	16.205
639.34	14.151
639.53	11.568
639.72	15.660
639.91	12.589
640.10	14.028
640.29	13.958
640.47	15.332
640.66	14.294
640.85	16.694
641.04	12.193
641.23	15.975
641.42	13.789
641.60	15.265
641.79	12.918
641.98	14.583
642.17	14.172
642.36	15.832
642.54	12.656
642.73	13.312
642.92	12.122
643.11	13.369
643.30	13.030
643.49	15.047
643.67	11.724
643.86	14.678
644.05	12.583
644.24	14.940
644.43	13.850
644.61	15.265
644.80	12.650
644.99	12.856
645.18	15.575
645.37	14.499
645.55	12.334
645.74	14.704
645.93	14.585
646.12	13.425
646.31	13.237
646.49	12.389
646.68	12.878
646.87	14.013
647.06	11.461
647.24	12.976
647.43	12.620
647.62	13.671
647.81	11.021
648.00	15.368
648.18	10.977
648.37	14.423
648.56	12.169
648.75	13.006
648.93	12.672
649.12	13.436
649.31	12.452
649.50	13.437
649.68	11.384
649.87	13.627
650.06	10.555
650.25	13.491
650.43	12.347
650.62	12.223
650.81	13.205
651.00	12.780
651.18	11.901
651.37	14.101
651.56	12.471
651.75	14.336
651.93	11.871
652.12	15.488
652.31	13.530
652.50	13.703
652.68	12.631
652.87	14.781
653.06	14.490
653.25	14.118
653.43	13.412
653.62	13.688
653.81	10.599
654.00	14.747
654.18	11.270
654.37	14.643
654.56	12.192
654.74	12.095
654.93	10.468
655.12	13.678
655.31	12.358
655.49	12.832
655.68	11.509
655.87	11.293
656.05	10.379
656.24	12.747
656.43	8.724
656.62	12.317
656.80	11.079
656.99	10.483
657.18	8.677
657.36	11.761
657.55	12.263
657.74	11.416
657.93	13.502
658.11	13.601
658.30	11.248
658.49	10.746
658.67	10.069
658.86	10.165
659.05	10.272
659.23	12.590
659.42	11.264
659.61	12.234
659.79	9.374
659.98	11.592
660.17	10.749
660.35	10.887
660.54	10.940
660.73	13.553
660.91	12.890
661.10	11.861
661.29	9.930
661.47	10.445
661.66	8.971
661.85	11.132
662.03	10.381
662.22	7.805
662.41	8.273
662.59	9.720
662.78	7.828
662.97	8.641
663.15	7.995
663.34	9.450
663.53	6.252
663.71	9.147
663.90	7.474
664.09	10.259
664.27	8.865
664.46	8.702
664.65	6.317
664.83	9.058
665.02	7.459
665.21	6.653
665.39	5.889
665.58	7.415
665.77	7.239
665.95	7.373
666.14	5.848
666.32	7.348
666.51	6.889
666.70	4.796
666.88	7.914
667.07	5.342
667.26	6.038
667.44	6.041
667.63	6.669
667.81	5.510
668.00	5.863
668.19	8.303
668.37	7.668
668.56	7.569
668.75	7.022
668.93	8.030
669.12	6.935
669.30	8.072
669.49	6.269
669.68	6.913
669.86	6.792
670.05	5.028
670.23	6.664
670.42	6.403
670.61	5.235
670.79	6.381
670.98	8.593
671.16	8.850
671.35	6.335
671.54	5.618
671.72	5.920
671.91	6.053
672.09	5.291
672.28	7.455
672.46	5.900
672.65	6.970
672.84	8.560
673.02	7.781
673.21	5.271
673.39	4.549
673.58	6.830
673.77	6.419
673.95	7.430
674.14	6.754
674.32	6.235
674.51	7.322
674.69	6.682
674.88	6.345
675.07	6.437
675.25	9.583
675.44	6.834
675.62	5.354
675.81	5.223
675.99	8.764
676.18	7.648
676.36	5.648
676.55	5.365
676.74	6.667
676.92	8.539
677.11	7.732
677.29	7.227
677.48	7.263
677.66	7.716
677.85	6.777
678.03	5.473
678.22	6.638
678.40	6.633
678.59	6.817
678.78	4.898
678.96	8.728
679.15	7.807
679.33	7.526
679.52	6.999
679.70	6.824
679.89	6.183
680.07	7.524
680.26	5.965
680.44	8.602
680.63	7.792
680.81	6.093
681.00	6.291
681.18	7.760
681.37	7.863
681.55	7.853
681.74	8.152
681.92	8.497
682.11	6.027
682.29	7.794
682.48	7.625
682.66	8.467
682.85	6.888
683.03	7.301
683.22	9.670
683.40	8.955
683.59	8.962
683.77	8.013
683.96	5.852
684.14	11.011
684.33	4.160
684.51	11.065
684.70	8.442
684.88	9.267
685.07	8.947
685.25	9.798
685.44	8.074
685.62	9.721
685.81	8.404
685.99	9.944
686.18	6.964
686.36	8.680
686.55	8.427
686.73	10.000
686.92	11.350
687.10	10.296
687.29	10.546
687.47	8.990
687.65	9.626
687.84	9.805
688.02	12.575
688.21	11.914
688.39	10.194
688.58	12.005
688.76	9.660
688.95	11.098
689.13	9.327
689.32	12.485
689.50	11.107
689.68	10.637
689.87	11.989
690.05	10.320
690.24	9.942
690.42	12.817
690.61	12.516
690.79	11.743
690.98	12.977
691.16	14.201
691.34	11.082
691.53	14.406
691.71	12.863
691.90	13.850
692.08	12.608
692.27	15.177
692.45	16.939
692.63	12.472
692.82	15.722
693.00	14.870
693.19	11.996
693.37	17.291
693.56	14.594
693.74	18.038
693.92	14.054
694.11	16.759
694.29	13.865
694.48	18.741
694.66	16.333
694.84	19.144
695.03	14.692
695.21	20.588
695.40	21.640
695.58	19.059
695.76	14.211
695.95	17.727
696.13	17.230
696.32	19.385
696.50	24.257
696.68	18.430
696.87	18.534
697.05	21.134
697.24	20.418
697.42	22.440
697.60	21.667
697.79	21.522
697.97	21.546
698.16	21.437
698.34	20.942
698.52	23.631
698.71	22.999
698.89	22.587
699.07	22.084
699.26	21.207
699.44	24.519
699.63	26.371
699.81	22.518
699.99	23.760
700.18	24.073
700.36	24.268
700.54	24.075
700.73	24.566
700.91	23.193
701.09	24.196
701.28	23.369
701.46	26.008
701.64	24.107
701.83	24.059
702.01	21.404
702.20	27.032
702.38	24.776
702.56	23.765
702.75	23.886
702.93	26.443
703.11	23.622
703.30	26.340
703.48	27.235
703.66	28.825
703.85	26.194
704.03	29.700
704.21	25.813
704.40	27.186
704.58	26.602
704.76	27.283
704.95	27.252
705.13	28.579
705.31	28.709
705.50	29.245
705.68	24.013
705.86	31.954
706.04	28.867
706.23	27.349
706.41	27.654
706.59	29.489
706.78	27.437
706.96	29.875
707.14	29.814
707.33	29.837
707.51	28.217
707.69	29.751
707.88	26.495
708.06	31.376
708.24	31.327
708.42	32.650
708.61	29.412
708.79	31.573
708.97	28.949
709.16	29.754
709.34	29.312
709.52	30.609
709.71	32.446
709.89	32.196
710.07	28.428
710.25	30.000
710.44	26.246
710.62	30.559
710.80	32.915
710.98	33.602
711.17	30.406
711.35	31.014
711.53	31.301
711.72	34.300
711.90	32.964
712.08	32.611
712.26	29.578
712.45	34.474
712.63	32.440
712.81	33.740
712.99	33.111
713.18	31.996
713.36	32.551
713.54	32.301
713.72	28.325
713.91	30.401
714.09	30.254
714.27	34.130
714.45	33.611
714.64	34.969
714.82	32.238
715.00	31.788
715.18	32.976
715.37	31.051
715.55	31.481
715.73	33.742
715.91	32.667
716.10	33.917
716.28	31.102
716.46	32.010
716.64	29.675
716.83	30.606
717.01	30.885
717.19	33.134
717.37	31.339
717.55	32.845
717.74	30.489
717.92	30.301
718.10	30.830
718.28	33.370
718.47	29.738
718.65	30.582
718.83	31.993
719.01	32.429
719.19	30.083
719.38	31.488
719.56	29.538
719.74	33.749
719.92	28.777
720.10	30.955
720.29	30.507
720.47	32.391
720.65	29.939
720.83	31.836
721.01	34.034
721.20	31.081
721.38	28.687
721.56	32.610
721.74	32.150
721.92	35.471
722.11	33.195
722.29	34.211
722.47	35.375
722.65	36.750
722.83	35.213
723.01	36.252
723.20	33.308
723.38	38.750
723.56	35.298
723.74	37.725
723.92	33.043
724.10	34.610
724.29	32.247
724.47	34.593
724.65	33.097
724.83	35.719
725.01	34.379
725.19	35.449
725.38	35.752
725.56	34.201
725.74	34.307
725.92	40.762
726.10	33.855
726.28	34.989
726.46	37.944
726.65	38.169
726.83	35.667
727.01	38.478
727.19	35.949
727.37	38.472
727.55	35.206
727.73	36.602
727.92	32.917
728.10	36.948
728.28	36.145
728.46	35.653
728.64	34.143
728.82	35.132
729.00	34.450
729.19	36.849
729.37	39.987
729.55	34.968
729.73	34.112
729.91	37.897
730.09	34.640
730.27	39.594
730.45	35.450
730.63	37.811
730.82	36.269
731.00	40.451
731.18	34.014
731.36	37.206
731.54	36.220
731.72	36.882
731.90	36.441
732.08	36.923
732.26	35.533
732.45	42.099
732.63	41.955
732.81	38.126
732.99	33.791
733.17	40.535
733.35	38.732
733.53	39.641
733.71	37.161
733.89	38.726
734.07	38.995
734.25	40.262
734.44	41.929
734.62	39.136
734.80	40.108
734.98	41.563
735.16	41.762
735.34	40.370
735.52	40.361
735.70	41.249
735.88	40.842
736.06	45.725
736.24	49.341
736.42	39.124
736.60	43.652
736.78	46.341
736.97	43.450
737.15	39.819
737.33	42.881
737.51	44.318
737.69	47.908
737.87	42.824
738.05	45.816
738.23	45.922
738.41	43.492
738.59	41.818
738.77	49.327
738.95	46.493
739.13	41.186
739.31	45.512
739.49	42.743
739.67	48.953
739.85	46.559
740.03	42.935
740.21	44.608
740.39	44.896
740.57	45.994
740.75	42.125
740.93	43.194
741.11	52.076
741.30	44.858
741.48	43.827
741.66	43.896
741.84	45.930
742.02	46.325
742.20	50.000
742.38	41.824
742.56	50.175
742.74	45.897
742.92	47.410
743.10	47.139
743.28	50.821
743.46	51.779
743.64	48.145
743.82	48.680
744.00	53.026
744.18	48.631
744.36	46.578
744.54	50.395
744.72	54.733
744.90	50.665
745.08	52.317
745.26	51.902
745.44	52.565
745.62	50.151
745.80	53.148
745.98	53.283
746.16	52.813
746.34	53.057
746.52	58.607
746.70	49.460
746.87	51.487
747.05	52.128
747.23	56.748
747.41	53.830
747.59	51.018
747.77	50.100
747.95	50.772
748.13	50.465
748.31	48.569
748.49	56.627
748.67	54.626
748.85	49.794
749.03	49.000
749.21	51.174
749.39	56.871
749.57	50.390
749.75	54.643
749.93	51.305
750.11	49.749
750.29	49.191
750.47	53.260
750.65	55.220
750.83	57.547
751.01	46.231
751.18	54.759
751.36	54.630
751.54	51.269
751.72	51.449
751.90	49.322
752.08	49.156
752.26	56.405
752.44	49.677
752.62	49.109
752.80	48.460
752.98	56.115
753.16	53.500
753.34	52.708
753.52	55.183
753.69	51.813
753.87	49.856
754.05	56.065
754.23	52.361
754.41	55.294
754.59	55.271
754.77	49.750
754.95	50.048
755.13	56.472
755.31	54.049
755.49	54.119
755.66	48.540
755.84	48.643
756.02	48.858
756.20	57.736
756.38	53.758
756.56	51.309
756.74	52.390
756.92	47.352
757.10	55.282
757.28	57.085
757.45	54.180
757.63	59.560
757.81	47.436
757.99	55.036
758.17	52.878
758.35	55.312
758.53	50.635
758.71	54.179
758.88	51.344
759.06	49.166
759.24	43.527
759.42	43.137
759.60	46.753
759.78	43.587
759.96	32.745
760.13	37.390
760.31	31.838
760.49	35.930
760.67	27.966
760.85	32.696
761.03	29.477
761.21	30.009
761.38	25.653
761.56	28.918
761.74	27.958
761.92	36.311
762.10	25.909
762.28	34.587
762.46	27.130
762.63	31.747
762.81	30.217
762.99	34.941
763.17	27.971
763.35	29.613
763.53	30.328
763.70	29.757
763.88	28.258
764.06	29.584
764.24	26.166
764.42	29.059
764.60	31.119
764.77	31.360
764.95	30.208
765.13	31.832
765.31	30.711
765.49	32.843
765.66	36.915
765.84	35.684
766.02	34.001
766.20	37.139
766.38	35.752
766.56	42.517
766.73	43.005
766.91	44.165
767.09	46.237
767.27	42.434
767.45	51.228
767.62	47.549
767.80	46.244
767.98	46.475
768.16	54.621
768.33	57.456
768.51	53.474
768.69	54.296
768.87	53.761
769.05	53.972
769.22	48.512
769.40	59.502
769.58	57.764
769.76	58.242
769.94	61.707
770.11	55.928
770.29	50.622
770.47	59.041
770.65	60.291
770.82	56.112
771.00	56.848
771.18	56.829
771.36	60.286
771.53	57.470
771.71	54.342
771.89	63.129
772.07	56.694
772.25	59.530
772.42	57.218
772.60	70.778
772.78	59.071
772.96	61.047
773.13	61.264
773.31	65.323
773.49	63.135
773.67	58.193
773.84	59.510
774.02	63.259
774.20	61.606
774.37	58.414
774.55	59.856
774.73	64.953
774.91	57.056
775.08	58.755
775.26	64.181
775.44	59.637
775.62	59.314
775.79	58.393
775.97	59.538
776.15	65.625
776.32	61.787
776.50	69.922
776.68	61.795
776.86	60.404
777.03	69.937
777.21	60.597
777.39	66.328
777.56	57.746
777.74	57.380
777.92	63.282
778.10	63.023
778.27	65.116
778.45	61.492
778.63	62.875
778.80	62.739
778.98	60.913
779.16	62.647
779.34	56.604
779.51	63.804
779.69	75.662
779.87	59.447
780.04	64.930
780.22	52.794
780.40	56.091
780.57	63.477
780.75	58.659
780.93	69.859
781.10	68.190
781.28	59.308
781.46	57.473
781.63	57.355
781.81	65.031
781.99	60.855
782.16	59.603
782.34	53.872
782.52	61.031
782.69	61.527
782.87	62.838
783.05	57.530
783.22	65.179
783.40	61.672
783.58	64.645
783.75	58.247
783.93	66.232
784.11	63.620
784.28	63.149
784.46	63.316
784.64	69.464
784.81	60.573
784.99	66.184
785.17	65.243
785.34	68.683
785.52	63.810
785.69	67.329
785.87	70.205
786.05	66.964
786.22	65.283
786.40	66.241
786.58	67.953
786.75	63.771
786.93	62.324
787.11	66.958
787.28	57.560
787.46	70.036
787.63	58.039
787.81	68.670
787.99	63.796
788.16	60.492
788.34	45.820
788.51	52.995
788.69	56.219
788.87	55.838
789.04	53.869
789.22	48.041
789.39	52.059
789.57	54.204
789.75	53.058
789.92	52.507
790.10	55.524
790.27	51.571
790.45	57.346
790.63	55.981
790.80	56.311
790.98	57.218
791.15	56.366
791.33	53.344
791.51	59.309
791.68	56.014
791.86	56.348
792.03	63.032
792.21	55.331
792.39	60.284
792.56	56.719
792.74	70.888
792.91	57.778
793.09	58.699
793.26	60.168
793.44	60.721
793.62	61.811
793.79	58.250
793.97	64.522
794.14	58.221
794.32	61.245
794.49	67.318
794.67	58.740
794.84	55.765
795.02	66.730
795.20	54.253
795.37	56.200
795.55	58.228
795.72	62.313
795.90	59.649
796.07	64.484
796.25	56.781
796.42	60.490
796.60	59.432
796.77	54.448
796.95	56.420
797.13	47.478
797.30	60.753
797.48	52.224
797.65	50.883
797.83	53.464
798.00	62.127
798.18	52.757
798.35	59.483
798.53	56.505
798.70	58.407
798.88	59.325
799.05	57.576
799.23	46.084
799.40	49.110
799.58	53.391
799.75	52.880
799.93	53.537
800.10	56.015
800.28	54.037
800.45	57.948
800.63	45.057
800.80	59.712
800.98	61.248
801.15	55.596
801.33	60.659
801.50	55.197
801.68	53.261
801.85	47.490
802.03	54.108
802.20	65.253
802.38	58.240
802.55	51.660
802.73	57.611
802.90	57.374
803.08	47.723
803.25	60.922
803.43	58.811
803.60	56.954
803.78	53.438
803.95	51.732
804.13	57.824
804.30	62.416
804.48	65.721
804.65	64.719
804.83	56.539
805.00	70.640
805.17	63.966
805.35	53.591
805.52	49.287
805.70	57.469
805.87	55.916
806.05	59.237
806.22	58.542
806.40	57.089
806.57	59.302
806.75	60.041
806.92	60.288
807.09	66.105
807.27	64.694
807.44	54.813
807.62	47.909
807.79	51.776
807.97	51.800
808.14	56.549
808.31	56.140
808.49	62.175
808.66	60.247
808.84	53.924
809.01	47.816
809.19	54.460
809.36	57.620
809.53	57.208
809.71	60.897
809.88	63.265
810.06	57.112
810.23	64.811
810.41	48.847
810.58	60.922
810.75	55.263
810.93	52.740
811.10	52.183
811.28	43.371
811.45	63.659
811.62	52.430
811.80	55.528
811.97	56.784
812.15	56.720
812.32	53.665
812.49	57.002
812.67	47.971
812.84	53.365
813.02	63.757
813.19	61.985
813.36	63.812
813.54	48.866
813.71	45.619
813.89	50.777
814.06	60.150
814.23	52.941
814.41	57.071
814.58	51.791
814.75	58.583
814.93	56.683
815.10	62.599
815.28	49.751
815.45	56.206
815.62	51.149
815.80	39.766
815.97	44.750
816.14	46.684
816.32	50.129
816.49	36.675
816.66	49.600
816.84	40.547
817.01	46.868
817.18	54.308
817.36	42.159
817.53	56.068
817.71	38.046
817.88	53.241
818.05	54.853
818.23	40.389
818.40	50.933
818.57	53.759
818.75	43.158
818.92	48.371
819.09	47.103
819.27	42.250
819.44	35.867
819.61	42.263
819.79	38.255
819.96	43.836
820.13	41.767
820.31	38.179
820.48	51.527
820.65	42.202
820.82	35.782
821.00	43.053
821.17	37.500
821.34	31.505
821.52	28.112
821.69	33.951
821.86	29.217
822.04	33.948
822.21	26.941
822.38	28.457
822.56	24.405
822.73	25.456
822.90	21.884
823.07	24.224
823.25	22.677
823.42	25.525
823.59	26.332
823.77	25.995
823.94	23.718
824.11	24.307
824.29	23.552
824.46	27.216
824.63	26.173
824.80	25.247
824.98	25.213
825.15	29.909
825.32	24.611
825.49	25.912
825.67	29.450
825.84	29.438
826.01	27.667
826.19	35.417
826.36	32.870
826.53	31.278
826.70	26.316
826.88	31.374
827.05	25.797
827.22	27.314
827.39	27.049
827.57	28.372
827.74	25.616
827.91	28.582
828.08	26.287
828.26	27.959
828.43	23.477
828.60	28.999
828.77	28.130
828.95	27.273
829.12	24.857
829.29	25.634
829.46	27.524
829.64	29.193
829.81	28.036
829.98	34.950
830.15	32.005
830.32	32.021
830.50	27.471
830.67	38.411
830.84	31.884
831.01	36.991
831.19	41.296
831.36	39.442
831.53	52.466
831.70	43.218
831.87	36.864
832.05	52.336
832.22	50.222
832.39	46.572
832.56	42.744
832.74	34.793
832.91	38.903
833.08	48.077
833.25	36.700
833.42	44.259
833.60	29.091
833.77	33.681
833.94	33.706
834.11	28.686
834.28	33.416
834.45	30.170
834.63	30.451
834.80	28.588
834.97	35.135
835.14	28.031
835.31	28.100
835.49	30.760
835.66	29.125
835.83	25.864
836.00	31.195
836.17	34.013
836.34	35.871
836.52	36.043
836.69	40.031
836.86	41.367
837.03	33.522
837.20	37.037
837.37	41.929
837.55	38.958
837.72	36.446
837.89	48.990
838.06	59.143
838.23	54.657
838.40	57.831
838.58	51.873
838.75	54.455
838.92	63.777
839.09	54.296
839.26	60.066
839.43	68.942
839.60	72.673
839.78	70.455
839.95	55.586
840.12	51.877
840.29	57.288
840.46	55.828
840.63	68.025
840.80	60.518
840.98	74.038
841.15	65.312
841.32	56.364
841.49	56.209
841.66	57.722
841.83	53.416
842.00	59.136
842.17	59.091
842.34	51.014
842.52	78.667
842.69	47.797
842.86	53.876
843.03	77.491
843.20	59.004
843.37	51.661
843.54	55.805
843.71	58.036
843.88	77.778
844.06	85.600
844.23	71.429
844.40	67.111
844.57	89.503
844.74	101.220
844.91	69.565
845.08	86.932
845.25	81.159
845.42	95.161
845.59	80.526
845.76	86.667
845.94	111.386
846.11	100.000
846.28	73.810
846.45	108.989
846.62	103.247
846.79	110.959
846.96	82.716
847.13	105.814
847.30	82.759
847.47	70.504
847.64	124.031
847.81	140.678
847.98	85.930
848.15	119.708
848.32	91.824
848.50	114.371
848.67	91.954
848.84	112.329
849.01	84.916
849.18	77.835
849.35	146.094
849.52	86.207
849.69	111.921
849.86	108.844
850.03	94.030
850.20	102.924
850.37	126.891
850.54	72.067
850.71	97.351
850.88	72.626
851.05	108.475
851.22	87.640
851.39	133.333
851.56	89.286
851.73	83.648
851.90	99.379
852.07	117.293
852.24	114.474
852.41	104.762
852.58	111.972
852.75	157.471
852.92	86.829
853.09	118.750
853.26	100.000
853.43	144.340
853.60	79.775
853.77	129.114
853.94	106.569
854.11	96.503
854.28	88.000
854.45	76.562
854.62	88.832
854.79	104.575
854.96	105.600
855.13	97.661
855.30	155.102
855.47	132.759
855.64	94.737
855.81	95.161
855.98	88.095
856.15	116.216
856.32	82.390
856.49	92.248
856.66	86.014
856.83	106.818
857.00	74.510
857.17	86.154
857.34	85.263
857.51	102.878
857.68	84.865
857.85	72.727
858.02	105.926
858.19	112.613
858.36	130.000
858.53	68.387
858.70	85.030
858.87	87.342
859.04	103.226
859.21	70.946
859.38	115.789
859.55	137.313
859.72	148.276
859.89	99.281
860.05	136.036
860.22	78.010
860.39	112.500
860.56	86.260
860.73	114.634
860.90	137.615
861.07	103.289
861.24	88.816
861.41	119.444
861.58	107.292
861.75	88.148
861.92	125.000
862.09	87.407
862.26	84.615
862.43	166.337
862.59	126.471
862.76	130.070
862.93	167.416
863.10	115.238
863.27	100.000
863.44	132.184
863.61	81.022
863.78	109.143
863.95	115.686
864.12	106.322
864.29	150.427
864.45	87.931
864.62	64.972
864.79	60.465
864.96	121.138
865.13	50.450
865.30	113.043
865.47	128.049
865.64	106.475
865.81	105.344
865.97	116.000
866.14	75.510
866.31	85.000
866.48	93.377
866.65	84.615
866.82	122.785
866.99	94.872
867.16	87.218
867.33	144.086
867.49	77.160
867.66	101.031
867.83	95.276
868.00	115.753
868.17	125.620
868.34	85.088
868.51	108.571
868.67	100.000
868.84	80.833
869.01	94.400
869.18	122.695
869.35	107.752
869.52	80.159
869.69	64.384
869.85	140.187
870.02	117.308
870.19	126.271
870.36	113.793
870.53	62.857
870.70	113.208
870.86	75.000
871.03	106.173
871.20	85.321
871.37	113.793
871.54	118.243
871.71	73.571
871.87	77.987
872.04	54.286
872.21	95.652
872.38	82.114
872.55	90.123
872.72	76.562
872.88	98.324
873.05	118.391
873.22	87.075
873.39	81.633
873.56	97.041
873.72	68.235
873.89	79.503
874.06	59.701
874.23	85.593
874.40	87.000
874.56	93.684
874.73	114.634
874.90	98.305
875.07	65.714
875.24	80.745
875.40	115.126
875.57	142.202
875.74	108.800
875.91	85.321
876.08	88.696
876.24	104.651
876.41	118.400
876.58	81.915
876.75	81.560
876.92	80.882
877.08	95.588
877.25	130.435
877.42	94.531
877.59	88.776
877.75	72.000
877.92	62.500
878.09	89.583
878.26	61.677
878.42	91.875
878.59	95.652
878.76	59.868
878.93	111.194
879.09	33.333
879.26	82.927
879.43	75.135
879.60	47.552
879.76	55.682
879.93	66.667
880.10	64.667
880.27	55.280
880.43	68.715
880.60	30.594
880.77	44.318
880.94	32.836
881.10	46.608
881.27	40.000
881.44	29.745
881.61	34.753
881.77	29.254
881.94	24.852
882.11	26.761
882.28	23.948
882.44	24.105
882.61	23.488
882.78	24.687
882.94	29.441
883.11	25.514
883.28	18.160
883.45	25.416
883.61	21.338
883.78	21.437
883.95	24.061
884.11	19.796
884.28	23.196
>>>>>End Processed Spectral Data<<<<<
