SpectraSuite Data File
++++++++++++++++++++++++++++++++++++
Date: Sat Sep 21 04:38:47 EST 2019
User: sgrac
Dark Spectrum Present: Yes
Reference Spectrum Present: Yes
Number of Sampled Component Spectra: 1
Spectrometers: USB4E01596
Integration Time (usec): 100000 (USB4E01596)
Spectra Averaged: 1 (USB4E01596)
Boxcar Smoothing: 0 (USB4E01596)
Correct for Electrical Dark: No (USB4E01596)
Strobe/Lamp Enabled: Yes (USB4E01596)
Correct for Detector Non-linearity: No (USB4E01596)
Correct for Stray Light: No (USB4E01596)
Number of Pixels in Processed Spectrum: 3648
>>>>>Begin Processed Spectral Data<<<<<
178.44	-250.000
178.66	-250.000
178.87	-250.000
179.09	-471.429
179.30	-453.846
179.52	0.000
179.74	-1750.000
179.95	683.333
180.17	640.000
180.38	11200.000
180.60	0.000
180.82	783.333
181.03	-463.158
181.25	365.217
181.46	-277.419
181.68	395.833
181.89	10900.000
182.11	314.286
182.33	-271.111
182.54	-268.750
182.76	-4700.000
182.97	1020.000
183.19	2250.000
183.40	224.138
183.62	-233.333
183.84	-233.333
184.05	421.739
184.27	566.667
184.48	1385.714
184.70	172.000
184.91	-586.667
185.13	142.222
185.34	-207.143
185.56	171.667
185.78	0.000
185.99	840.000
186.21	455.172
186.42	886.667
186.64	187.097
186.85	262.963
187.07	181.818
187.28	733.333
187.50	-380.000
187.72	1860.000
187.93	-8600.000
188.15	198.000
188.36	-582.353
188.58	-3850.000
188.79	490.909
189.01	416.667
189.22	1960.000
189.44	3950.000
189.65	300.000
189.87	712.500
190.09	-2380.000
190.30	893.750
190.52	-4300.000
190.73	228.571
190.95	364.286
191.16	286.667
191.38	760.000
191.59	269.048
191.81	227.778
192.02	248.936
192.24	658.824
192.45	-1460.000
192.67	397.143
192.88	508.333
193.10	280.000
193.31	340.000
193.53	-9500.000
193.74	178.049
193.96	566.667
194.18	293.548
194.39	-461.111
194.61	363.158
194.82	423.810
195.04	271.429
195.25	4400.000
195.47	300.000
195.68	272.340
195.90	940.000
196.11	205.455
196.33	193.617
196.54	-2700.000
196.76	264.286
196.97	-3266.667
197.19	353.571
197.40	314.706
197.62	179.688
197.83	183.784
198.05	-384.211
198.26	377.143
198.48	280.556
198.69	225.581
198.91	237.255
199.12	-231.429
199.34	-2320.000
199.55	6700.000
199.77	2550.000
199.98	352.000
200.20	171.831
200.41	800.000
200.63	-444.444
200.84	149.020
201.06	692.308
201.27	335.135
201.49	1287.500
201.70	218.519
201.91	226.087
202.13	191.304
202.34	286.792
202.56	-1300.000
202.77	711.111
202.99	446.429
203.20	3700.000
203.42	1312.500
203.63	227.907
203.85	260.000
204.06	331.481
204.28	-980.000
204.49	228.571
204.71	217.949
204.92	0.000
205.14	-685.714
205.35	544.444
205.56	-1700.000
205.78	547.619
205.99	830.000
206.21	-138.710
206.42	341.935
206.64	260.714
206.85	1875.000
207.07	-630.769
207.28	585.714
207.50	-526.316
207.71	271.795
207.93	279.545
208.14	558.824
208.35	468.421
208.57	-8000.000
208.78	1084.615
209.00	422.222
209.21	-4200.000
209.43	344.828
209.64	185.294
209.86	1414.286
210.07	0.000
210.28	-682.353
210.50	202.041
210.71	196.491
210.93	347.619
211.14	-522.222
211.36	-283.871
211.57	-357.143
211.78	-286.957
212.00	0.000
212.21	313.953
212.43	-254.545
212.64	210.345
212.86	-100.000
213.07	-400.000
213.29	260.526
213.50	10900.000
213.71	196.226
213.93	1700.000
214.14	153.030
214.36	7100.000
214.57	430.769
214.78	556.250
215.00	3700.000
215.21	225.000
215.43	272.000
215.64	315.385
215.86	297.143
216.07	4600.000
216.28	412.000
216.50	-1057.143
216.71	-2240.000
216.93	278.723
217.14	237.500
217.35	448.148
217.57	396.429
217.78	825.000
218.00	-670.000
218.21	357.895
218.42	-2900.000
218.64	547.059
218.85	-1300.000
219.07	428.571
219.28	2375.000
219.49	132.895
219.71	3166.667
219.92	325.000
220.14	179.167
220.35	465.000
220.56	197.436
220.78	441.176
220.99	-6300.000
221.21	461.905
221.42	558.333
221.63	355.000
221.85	222.581
222.06	296.429
222.28	209.091
222.49	-4850.000
222.70	0.000
222.92	344.444
223.13	250.000
223.34	-2550.000
223.56	173.684
223.77	122.472
223.99	297.436
224.20	154.762
224.41	313.514
224.63	258.333
224.84	127.586
225.05	339.286
225.27	128.571
225.48	100.000
225.69	1000.000
225.91	344.444
226.12	222.222
226.34	137.255
226.55	77.778
226.76	206.452
226.98	124.000
227.19	138.636
227.40	69.421
227.62	95.122
227.83	119.000
228.04	91.209
228.26	78.218
228.47	108.621
228.69	55.263
228.90	77.465
229.11	68.148
229.33	50.725
229.54	51.974
229.75	22.609
229.97	36.910
230.18	31.900
230.39	21.941
230.61	31.132
230.82	42.739
231.03	23.651
231.25	33.333
231.46	29.562
231.67	43.874
231.89	60.000
232.10	26.721
232.31	54.327
232.53	55.932
232.74	40.625
232.95	59.036
233.17	52.601
233.38	30.597
233.59	77.206
233.81	48.544
234.02	78.947
234.23	46.524
234.45	69.737
234.66	47.458
234.87	69.799
235.09	46.667
235.30	43.678
235.51	58.738
235.73	28.931
235.94	52.850
236.15	56.633
236.36	52.910
236.58	48.341
236.79	40.838
237.00	36.232
237.22	63.580
237.43	57.843
237.64	30.131
237.86	45.652
238.07	62.312
238.28	36.066
238.50	50.435
238.71	37.278
238.92	42.262
239.13	40.571
239.35	48.252
239.56	41.146
239.77	57.561
239.99	35.849
240.20	36.842
240.41	32.328
240.63	37.652
240.84	26.295
241.05	35.766
241.26	34.298
241.48	39.823
241.69	21.519
241.90	29.577
242.12	20.408
242.33	13.578
242.54	9.808
242.75	18.027
242.97	22.069
243.18	16.667
243.39	20.387
243.61	13.493
243.82	14.545
244.03	11.511
244.24	11.810
244.46	17.333
244.67	10.629
244.88	12.520
245.09	20.534
245.31	15.355
245.52	26.654
245.73	15.953
245.95	22.814
246.16	17.570
246.37	17.636
246.58	17.570
246.80	17.544
247.01	15.385
247.22	14.545
247.43	17.753
247.65	12.177
247.86	6.940
248.07	8.863
248.28	9.163
248.50	6.509
248.71	8.664
248.92	6.914
249.13	8.205
249.35	6.875
249.56	12.906
249.77	8.169
249.98	6.119
250.20	4.556
250.41	10.838
250.62	7.590
250.83	15.758
251.05	14.767
251.26	17.241
251.47	14.955
251.68	19.744
251.90	17.029
252.11	20.557
252.32	13.153
252.53	17.666
252.75	13.920
252.96	19.551
253.17	14.008
253.38	14.459
253.59	9.887
253.81	13.580
254.02	10.709
254.23	19.303
254.44	13.972
254.66	10.744
254.87	18.592
255.08	24.359
255.29	21.084
255.50	19.785
255.72	26.147
255.93	29.197
256.14	21.818
256.35	24.590
256.57	21.260
256.78	27.169
256.99	21.990
257.20	21.117
257.41	21.739
257.63	23.926
257.84	19.710
258.05	15.000
258.26	17.658
258.47	17.889
258.69	13.912
258.90	12.733
259.11	6.708
259.32	3.659
259.53	9.517
259.75	9.727
259.96	6.039
260.17	8.169
260.38	5.583
260.59	5.333
260.81	6.258
261.02	5.875
261.23	9.421
261.44	7.373
261.65	5.757
261.87	4.000
262.08	6.421
262.29	8.926
262.50	9.039
262.71	5.254
262.92	8.115
263.14	10.056
263.35	9.428
263.56	2.588
263.77	12.283
263.98	13.095
264.20	16.192
264.41	7.320
264.62	19.542
264.83	12.994
265.04	17.434
265.25	11.192
265.47	11.782
265.68	17.493
265.89	13.644
266.10	9.539
266.31	18.634
266.52	15.395
266.74	7.763
266.95	7.068
267.16	9.923
267.37	13.250
267.58	4.167
267.79	6.674
268.01	9.121
268.22	11.577
268.43	11.443
268.64	11.728
268.85	8.004
269.06	11.479
269.27	9.452
269.49	10.395
269.70	7.969
269.91	14.621
270.12	11.221
270.33	13.488
270.54	10.537
270.75	5.497
270.97	10.288
271.18	10.462
271.39	9.413
271.60	11.348
271.81	9.896
272.02	10.555
272.23	7.941
272.45	7.256
272.66	7.149
272.87	7.082
273.08	7.957
273.29	10.134
273.50	5.493
273.71	9.119
273.92	8.212
274.14	4.526
274.35	3.644
274.56	9.259
274.77	4.452
274.98	11.630
275.19	11.545
275.40	11.092
275.61	8.934
275.83	11.787
276.04	9.284
276.25	13.235
276.46	8.325
276.67	9.446
276.88	9.721
277.09	7.631
277.30	8.732
277.51	10.597
277.73	6.700
277.94	6.918
278.15	8.960
278.36	10.334
278.57	9.426
278.78	9.400
278.99	10.634
279.20	10.600
279.41	12.297
279.62	6.731
279.84	11.023
280.05	13.108
280.26	9.317
280.47	8.367
280.68	3.493
280.89	10.096
281.10	9.100
281.31	8.365
281.52	12.034
281.73	10.582
281.94	5.182
282.16	11.031
282.37	12.701
282.58	8.858
282.79	10.495
283.00	9.858
283.21	6.694
283.42	7.935
283.63	4.358
283.84	9.385
284.05	6.506
284.26	8.625
284.47	9.453
284.68	11.576
284.89	8.208
285.11	6.298
285.32	5.426
285.53	2.937
285.74	10.354
285.95	8.493
286.16	6.481
286.37	6.901
286.58	3.960
286.79	8.643
287.00	8.881
287.21	7.117
287.42	6.272
287.63	4.658
287.84	4.088
288.05	7.382
288.26	7.888
288.48	9.146
288.69	4.704
288.90	7.445
289.11	8.730
289.32	7.482
289.53	9.384
289.74	6.000
289.95	3.469
290.16	9.259
290.37	4.574
290.58	8.736
290.79	4.919
291.00	8.220
291.21	5.537
291.42	3.373
291.63	6.503
291.84	9.148
292.05	7.825
292.26	6.726
292.47	7.672
292.68	5.616
292.89	6.263
293.10	6.934
293.31	9.524
293.52	9.002
293.73	5.141
293.94	7.947
294.15	8.123
294.36	6.226
294.57	10.578
294.79	8.766
295.00	6.533
295.21	4.885
295.42	8.699
295.63	9.350
295.84	6.211
296.05	3.357
296.26	6.404
296.47	5.339
296.68	7.780
296.89	3.467
297.10	6.269
297.31	5.879
297.52	8.461
297.73	5.916
297.94	6.956
298.15	2.700
298.36	6.059
298.57	5.048
298.78	6.807
298.99	2.481
299.20	3.580
299.41	5.342
299.62	5.706
299.83	5.370
300.04	6.038
300.25	6.203
300.46	5.995
300.67	5.688
300.88	6.919
301.09	4.090
301.30	4.823
301.50	7.453
301.71	8.316
301.92	7.353
302.13	6.334
302.34	6.383
302.55	6.642
302.76	8.253
302.97	8.087
303.18	4.536
303.39	5.767
303.60	6.407
303.81	6.815
304.02	4.903
304.23	4.542
304.44	6.523
304.65	4.744
304.86	7.724
305.07	4.536
305.28	6.593
305.49	8.672
305.70	7.049
305.91	8.902
306.12	3.597
306.33	6.920
306.54	7.924
306.75	7.248
306.96	10.982
307.17	7.040
307.38	8.015
307.58	8.506
307.79	8.125
308.00	8.597
308.21	7.870
308.42	4.403
308.63	10.609
308.84	8.216
309.05	9.510
309.26	5.603
309.47	5.862
309.68	4.296
309.89	5.813
310.10	8.603
310.31	5.296
310.52	3.574
310.73	6.810
310.94	6.703
311.14	5.668
311.35	4.770
311.56	5.210
311.77	5.869
311.98	6.729
312.19	5.054
312.40	5.822
312.61	4.541
312.82	5.484
313.03	4.882
313.24	5.869
313.45	4.075
313.66	6.105
313.86	5.868
314.07	7.232
314.28	7.386
314.49	7.217
314.70	5.099
314.91	4.804
315.12	7.498
315.33	9.123
315.54	7.212
315.75	6.573
315.96	7.224
316.16	5.793
316.37	5.822
316.58	7.487
316.79	5.457
317.00	7.517
317.21	3.078
317.42	5.501
317.63	5.274
317.84	6.259
318.05	11.204
318.25	6.401
318.46	7.432
318.67	3.614
318.88	9.053
319.09	8.529
319.30	9.606
319.51	7.275
319.72	6.938
319.93	7.631
320.13	7.567
320.34	10.851
320.55	5.251
320.76	7.620
320.97	7.863
321.18	6.662
321.39	7.090
321.60	7.303
321.80	11.094
322.01	5.405
322.22	5.919
322.43	6.003
322.64	5.815
322.85	7.214
323.06	7.486
323.27	10.976
323.47	8.998
323.68	8.503
323.89	5.543
324.10	5.153
324.31	7.592
324.52	9.231
324.73	8.117
324.93	8.013
325.14	4.325
325.35	5.501
325.56	5.447
325.77	6.016
325.98	6.504
326.19	8.116
326.39	6.791
326.60	5.157
326.81	3.940
327.02	7.908
327.23	3.630
327.44	8.255
327.64	5.374
327.85	6.679
328.06	5.503
328.27	6.283
328.48	4.470
328.69	7.018
328.90	5.871
329.10	4.844
329.31	2.782
329.52	9.060
329.73	6.812
329.94	6.925
330.15	4.539
330.35	6.969
330.56	7.651
330.77	4.716
330.98	10.544
331.19	5.385
331.39	6.480
331.60	6.519
331.81	7.995
332.02	10.174
332.23	4.565
332.44	5.541
332.64	6.619
332.85	7.281
333.06	7.302
333.27	4.706
333.48	6.028
333.68	7.222
333.89	3.366
334.10	3.738
334.31	8.792
334.52	8.479
334.72	8.788
334.93	5.410
335.14	5.570
335.35	4.736
335.56	5.338
335.76	3.403
335.97	9.024
336.18	5.068
336.39	5.086
336.60	5.739
336.80	6.999
337.01	4.988
337.22	1.300
337.43	6.315
337.64	5.672
337.84	7.143
338.05	4.879
338.26	7.147
338.47	7.427
338.68	5.018
338.88	6.250
339.09	8.683
339.30	5.279
339.51	4.064
339.71	6.206
339.92	7.670
340.13	7.511
340.34	6.473
340.55	6.452
340.75	6.855
340.96	3.927
341.17	6.520
341.38	5.929
341.58	4.252
341.79	5.136
342.00	6.034
342.21	5.149
342.41	4.439
342.62	3.763
342.83	6.362
343.04	3.309
343.24	4.891
343.45	3.851
343.66	5.886
343.87	7.167
344.07	5.155
344.28	5.778
344.49	6.300
344.70	7.726
344.90	5.990
345.11	5.624
345.32	5.605
345.53	5.487
345.73	5.070
345.94	5.748
346.15	4.882
346.36	4.205
346.56	4.112
346.77	5.329
346.98	4.671
347.19	5.276
347.39	4.490
347.60	5.623
347.81	4.867
348.02	7.963
348.22	2.472
348.43	4.976
348.64	7.503
348.84	4.952
349.05	6.335
349.26	8.611
349.47	4.984
349.67	7.054
349.88	5.398
350.09	4.765
350.30	7.401
350.50	4.834
350.71	5.079
350.92	6.133
351.12	5.132
351.33	5.192
351.54	5.313
351.74	7.368
351.95	3.838
352.16	4.852
352.37	7.266
352.57	5.030
352.78	5.725
352.99	7.952
353.19	6.046
353.40	6.446
353.61	8.033
353.82	3.097
354.02	6.750
354.23	6.862
354.44	7.281
354.64	9.759
354.85	5.191
355.06	7.221
355.26	4.804
355.47	4.527
355.68	6.088
355.88	6.199
356.09	5.966
356.30	3.873
356.51	7.300
356.71	7.920
356.92	4.822
357.13	3.589
357.33	6.509
357.54	4.553
357.75	5.383
357.95	6.322
358.16	3.934
358.37	7.765
358.57	5.503
358.78	8.377
358.99	4.514
359.19	5.182
359.40	6.680
359.61	6.222
359.81	8.309
360.02	6.881
360.23	5.717
360.43	6.723
360.64	7.035
360.85	6.122
361.05	5.741
361.26	7.078
361.47	5.035
361.67	7.692
361.88	4.130
362.09	7.248
362.29	6.481
362.50	5.085
362.70	5.177
362.91	6.176
363.12	3.796
363.32	3.883
363.53	4.792
363.74	8.103
363.94	4.586
364.15	6.872
364.36	6.473
364.56	3.841
364.77	8.714
364.98	8.183
365.18	5.760
365.39	8.267
365.59	6.325
365.80	7.898
366.01	7.451
366.21	7.594
366.42	3.372
366.63	5.703
366.83	6.330
367.04	5.972
367.24	9.288
367.45	6.381
367.66	3.161
367.86	6.196
368.07	6.587
368.28	5.740
368.48	5.917
368.69	4.191
368.89	7.180
369.10	7.187
369.31	7.389
369.51	7.171
369.72	8.189
369.92	8.373
370.13	4.708
370.34	7.847
370.54	6.359
370.75	9.222
370.95	6.407
371.16	8.482
371.37	6.278
371.57	4.824
371.78	7.915
371.98	6.542
372.19	7.064
372.40	7.976
372.60	8.174
372.81	7.425
373.01	4.772
373.22	6.431
373.43	7.316
373.63	8.483
373.84	5.096
374.04	7.169
374.25	6.035
374.46	6.395
374.66	6.832
374.87	5.893
375.07	4.456
375.28	7.490
375.48	6.349
375.69	8.704
375.90	6.036
376.10	6.150
376.31	5.034
376.51	6.681
376.72	5.590
376.92	5.594
377.13	5.626
377.34	8.215
377.54	5.243
377.75	5.987
377.95	7.014
378.16	6.186
378.36	7.418
378.57	8.012
378.77	6.713
378.98	6.305
379.19	8.409
379.39	5.388
379.60	6.739
379.80	5.983
380.01	6.826
380.21	6.628
380.42	7.319
380.62	7.304
380.83	8.717
381.04	5.333
381.24	7.001
381.45	6.212
381.65	5.355
381.86	6.856
382.06	6.819
382.27	4.054
382.47	5.805
382.68	8.510
382.88	4.875
383.09	5.156
383.29	5.770
383.50	6.753
383.71	6.115
383.91	6.626
384.12	5.464
384.32	6.745
384.53	6.970
384.73	5.064
384.94	5.178
385.14	6.207
385.35	5.702
385.55	5.691
385.76	4.862
385.96	6.775
386.17	6.002
386.37	6.200
386.58	5.595
386.78	7.233
386.99	3.795
387.19	6.810
387.40	5.781
387.60	7.843
387.81	5.985
388.01	5.254
388.22	7.335
388.42	6.890
388.63	8.051
388.83	7.369
389.04	5.047
389.24	7.757
389.45	5.314
389.65	6.445
389.86	6.017
390.06	5.544
390.27	5.652
390.47	6.125
390.68	6.094
390.88	8.517
391.09	7.412
391.29	8.149
391.50	6.601
391.70	7.255
391.91	6.663
392.11	6.604
392.32	6.864
392.52	8.083
392.73	6.574
392.93	6.763
393.14	6.196
393.34	6.942
393.55	4.735
393.75	6.719
393.95	5.735
394.16	7.431
394.36	8.259
394.57	8.731
394.77	7.124
394.98	6.372
395.18	6.462
395.39	6.253
395.59	7.260
395.80	6.854
396.00	6.836
396.21	8.908
396.41	5.545
396.61	7.850
396.82	8.381
397.02	9.796
397.23	9.402
397.43	6.850
397.64	4.210
397.84	8.110
398.05	5.554
398.25	7.442
398.45	5.844
398.66	7.984
398.86	7.764
399.07	9.620
399.27	5.807
399.48	7.484
399.68	6.177
399.89	7.207
400.09	9.194
400.29	7.123
400.50	6.192
400.70	7.698
400.91	6.468
401.11	7.868
401.32	7.267
401.52	6.216
401.72	6.480
401.93	8.243
402.13	7.794
402.34	6.976
402.54	7.267
402.75	9.226
402.95	5.656
403.15	9.074
403.36	5.787
403.56	7.650
403.77	5.150
403.97	7.892
404.17	5.310
404.38	7.471
404.58	6.649
404.79	7.918
404.99	7.622
405.19	8.036
405.40	6.383
405.60	8.132
405.81	7.833
406.01	7.640
406.21	6.093
406.42	7.527
406.62	8.166
406.83	7.528
407.03	8.301
407.23	6.828
407.44	7.111
407.64	8.076
407.85	9.211
408.05	7.578
408.25	6.019
408.46	9.616
408.66	8.182
408.87	7.399
409.07	6.805
409.27	6.061
409.48	8.080
409.68	7.616
409.88	5.872
410.09	9.262
410.29	6.658
410.50	8.523
410.70	5.248
410.90	7.379
411.11	5.954
411.31	7.729
411.51	8.764
411.72	8.588
411.92	6.528
412.12	7.021
412.33	6.251
412.53	7.472
412.74	5.382
412.94	4.773
413.14	7.551
413.35	6.754
413.55	7.088
413.75	7.990
413.96	6.921
414.16	6.855
414.36	7.851
414.57	6.834
414.77	6.958
414.97	7.942
415.18	6.822
415.38	6.787
415.58	6.713
415.79	6.642
415.99	7.062
416.19	6.474
416.40	7.485
416.60	7.724
416.80	5.462
417.01	7.232
417.21	6.141
417.41	9.404
417.62	7.065
417.82	8.023
418.02	6.469
418.23	7.128
418.43	7.413
418.63	7.338
418.84	8.435
419.04	7.938
419.24	7.569
419.45	9.070
419.65	9.038
419.85	8.669
420.06	7.887
420.26	8.908
420.46	8.386
420.67	9.554
420.87	8.727
421.07	9.713
421.28	8.314
421.48	9.791
421.68	9.530
421.88	9.552
422.09	9.574
422.29	9.381
422.49	8.087
422.70	9.815
422.90	8.205
423.10	9.355
423.31	8.586
423.51	9.803
423.71	8.530
423.91	9.900
424.12	9.537
424.32	9.048
424.52	8.934
424.73	9.353
424.93	8.996
425.13	8.915
425.33	7.512
425.54	9.788
425.74	8.698
425.94	10.059
426.15	8.687
426.35	8.734
426.55	9.036
426.75	9.088
426.96	9.758
427.16	8.473
427.36	9.305
427.57	9.993
427.77	8.582
427.97	8.632
428.17	8.774
428.38	8.772
428.58	6.337
428.78	8.005
428.98	7.570
429.19	7.512
429.39	6.106
429.59	8.557
429.79	6.225
430.00	6.425
430.20	6.285
430.40	7.800
430.60	7.317
430.81	8.300
431.01	6.704
431.21	8.111
431.41	7.255
431.62	8.497
431.82	7.846
432.02	8.834
432.22	6.791
432.43	8.335
432.63	5.896
432.83	8.078
433.03	8.117
433.24	7.990
433.44	7.532
433.64	9.212
433.84	7.759
434.05	10.100
434.25	8.116
434.45	9.444
434.65	9.795
434.85	10.576
435.06	9.306
435.26	9.561
435.46	9.502
435.66	10.431
435.87	9.275
436.07	9.965
436.27	9.754
436.47	9.645
436.67	8.679
436.88	10.190
437.08	9.669
437.28	10.160
437.48	8.978
437.69	10.165
437.89	9.847
438.09	10.047
438.29	9.047
438.49	11.350
438.70	10.043
438.90	10.116
439.10	9.424
439.30	10.951
439.50	8.885
439.71	10.820
439.91	10.246
440.11	11.265
440.31	10.960
440.51	10.806
440.72	10.365
440.92	11.491
441.12	11.231
441.32	12.000
441.52	11.694
441.72	11.883
441.93	11.223
442.13	12.522
442.33	11.073
442.53	12.538
442.73	11.539
442.94	11.749
443.14	11.244
443.34	12.266
443.54	12.083
443.74	11.816
443.94	12.208
444.15	11.581
444.35	10.638
444.55	11.750
444.75	11.788
444.95	12.159
445.15	11.567
445.36	12.756
445.56	10.439
445.76	12.122
445.96	11.314
446.16	11.561
446.36	11.293
446.57	12.554
446.77	11.907
446.97	12.551
447.17	12.540
447.37	12.629
447.57	12.096
447.77	13.042
447.98	12.712
448.18	12.891
448.38	12.450
448.58	13.670
448.78	13.382
448.98	13.059
449.18	11.469
449.39	13.272
449.59	11.733
449.79	13.125
449.99	12.352
450.19	13.366
450.39	12.438
450.59	13.153
450.79	11.543
451.00	14.052
451.20	13.255
451.40	12.931
451.60	11.147
451.80	13.522
452.00	12.237
452.20	12.887
452.40	12.239
452.61	11.788
452.81	12.251
453.01	13.077
453.21	11.676
453.41	13.351
453.61	12.080
453.81	13.506
454.01	12.711
454.21	13.759
454.42	13.828
454.62	13.744
454.82	11.577
455.02	12.871
455.22	12.025
455.42	13.226
455.62	11.201
455.82	13.257
456.02	12.338
456.23	12.994
456.43	11.882
456.63	13.380
456.83	12.199
457.03	12.789
457.23	11.791
457.43	13.647
457.63	11.813
457.83	13.635
458.03	12.001
458.23	13.709
458.43	11.975
458.64	12.926
458.84	12.379
459.04	13.066
459.24	12.304
459.44	13.919
459.64	12.863
459.84	13.372
460.04	13.639
460.24	13.589
460.44	13.162
460.64	13.612
460.84	13.321
461.04	13.680
461.24	14.197
461.45	14.137
461.65	14.469
461.85	14.514
462.05	14.236
462.25	14.999
462.45	14.717
462.65	14.993
462.85	14.028
463.05	14.340
463.25	13.527
463.45	14.242
463.65	13.170
463.85	13.530
464.05	12.757
464.25	13.805
464.45	13.616
464.65	14.070
464.85	13.819
465.05	15.240
465.26	13.211
465.46	14.831
465.66	13.413
465.86	15.146
466.06	13.972
466.26	14.555
466.46	13.557
466.66	14.186
466.86	13.364
467.06	13.963
467.26	14.135
467.46	15.318
467.66	14.949
467.86	15.051
468.06	14.057
468.26	14.862
468.46	14.015
468.66	14.993
468.86	12.991
469.06	15.303
469.26	13.967
469.46	15.308
469.66	13.617
469.86	15.961
470.06	14.948
470.26	15.528
470.46	13.979
470.66	15.165
470.86	13.787
471.06	15.313
471.26	13.264
471.46	14.402
471.66	14.883
471.86	15.855
472.06	14.899
472.26	15.230
472.46	15.675
472.66	15.689
472.86	14.834
473.06	15.167
473.26	15.467
473.46	14.885
473.66	15.393
473.86	16.049
474.06	16.053
474.26	15.580
474.46	15.219
474.66	15.750
474.86	15.324
475.06	15.330
475.26	14.773
475.46	15.509
475.66	14.877
475.86	15.410
476.06	15.556
476.26	15.910
476.46	14.935
476.66	15.891
476.86	15.424
477.06	15.971
477.26	14.778
477.46	16.950
477.65	15.672
477.85	17.253
478.05	16.060
478.25	16.185
478.45	15.493
478.65	16.317
478.85	15.791
479.05	16.402
479.25	15.445
479.45	16.519
479.65	15.748
479.85	16.899
480.05	16.176
480.25	16.703
480.45	16.116
480.65	16.969
480.85	15.588
481.05	16.961
481.25	16.638
481.44	15.925
481.64	15.950
481.84	16.438
482.04	15.550
482.24	16.592
482.44	16.538
482.64	16.856
482.84	15.867
483.04	16.247
483.24	15.793
483.44	15.926
483.64	15.280
483.84	15.414
484.04	15.566
484.23	15.779
484.43	15.480
484.63	16.219
484.83	16.068
485.03	16.151
485.23	16.218
485.43	16.741
485.63	16.662
485.83	16.779
486.03	16.839
486.23	17.167
486.42	16.613
486.62	16.748
486.82	16.295
487.02	16.286
487.22	16.592
487.42	16.398
487.62	16.534
487.82	16.440
488.02	15.866
488.22	16.091
488.41	16.118
488.61	16.242
488.81	16.203
489.01	16.190
489.21	16.715
489.41	16.582
489.61	16.709
489.81	16.433
490.01	16.840
490.20	16.796
490.40	16.348
490.60	16.257
490.80	16.740
491.00	16.691
491.20	16.310
491.40	16.207
491.60	15.912
491.79	16.111
491.99	15.794
492.19	16.077
492.39	15.858
492.59	16.202
492.79	16.506
492.99	16.161
493.19	16.686
493.38	16.806
493.58	16.898
493.78	17.167
493.98	17.254
494.18	17.364
494.38	17.532
494.58	17.206
494.77	16.454
494.97	16.896
495.17	17.789
495.37	17.406
495.57	16.803
495.77	16.156
495.96	16.833
496.16	17.310
496.36	16.201
496.56	16.874
496.76	16.206
496.96	16.434
497.15	16.149
497.35	16.228
497.55	16.293
497.75	16.611
497.95	16.521
498.15	16.441
498.34	16.433
498.54	16.914
498.74	16.319
498.94	16.758
499.14	16.165
499.34	17.075
499.53	16.609
499.73	16.680
499.93	17.353
500.13	17.492
500.33	16.241
500.52	16.791
500.72	15.868
500.92	17.640
501.12	16.661
501.32	16.670
501.52	16.782
501.71	16.332
501.91	16.930
502.11	16.962
502.31	16.003
502.51	16.875
502.70	17.283
502.90	17.781
503.10	16.906
503.30	16.733
503.50	17.336
503.69	17.315
503.89	16.580
504.09	17.329
504.29	16.701
504.48	17.412
504.68	16.284
504.88	17.498
505.08	16.431
505.28	16.629
505.47	16.848
505.67	16.943
505.87	16.888
506.07	17.609
506.27	15.864
506.46	17.262
506.66	16.720
506.86	18.420
507.06	17.541
507.25	17.101
507.45	17.126
507.65	16.792
507.85	17.387
508.04	17.034
508.24	16.823
508.44	17.529
508.64	17.099
508.83	17.667
509.03	16.999
509.23	17.498
509.43	17.133
509.63	17.240
509.82	17.643
510.02	16.782
510.22	16.692
510.42	17.359
510.61	17.387
510.81	17.716
511.01	16.936
511.21	17.429
511.40	17.369
511.60	17.714
511.80	17.388
511.99	17.312
512.19	17.257
512.39	17.545
512.59	17.188
512.78	17.211
512.98	17.320
513.18	17.020
513.38	18.045
513.57	17.185
513.77	17.641
513.97	17.211
514.17	17.470
514.36	18.095
514.56	17.432
514.76	18.136
514.95	17.712
515.15	18.139
515.35	17.565
515.55	18.024
515.74	18.156
515.94	17.985
516.14	17.911
516.33	17.959
516.53	16.906
516.73	18.057
516.93	18.136
517.12	17.770
517.32	16.946
517.52	17.326
517.71	17.115
517.91	17.849
518.11	18.126
518.30	17.898
518.50	17.151
518.70	17.626
518.90	17.866
519.09	17.491
519.29	16.947
519.49	17.381
519.68	17.053
519.88	17.437
520.08	17.313
520.27	17.730
520.47	17.922
520.67	17.905
520.86	18.328
521.06	18.086
521.26	17.936
521.45	17.149
521.65	17.418
521.85	18.051
522.04	17.521
522.24	17.742
522.44	17.742
522.63	17.548
522.83	18.107
523.03	17.816
523.22	17.273
523.42	18.366
523.62	17.705
523.81	17.932
524.01	17.722
524.21	18.521
524.40	16.927
524.60	17.245
524.80	17.415
524.99	17.617
525.19	16.739
525.39	17.764
525.58	17.345
525.78	17.894
525.98	17.319
526.17	17.147
526.37	17.180
526.57	17.140
526.76	17.191
526.96	17.435
527.15	17.044
527.35	16.935
527.55	16.733
527.74	17.413
527.94	17.071
528.14	16.687
528.33	16.578
528.53	16.420
528.72	16.070
528.92	16.595
529.12	16.518
529.31	16.758
529.51	16.738
529.71	17.044
529.90	16.976
530.10	17.074
530.29	17.322
530.49	17.328
530.69	17.296
530.88	17.742
531.08	16.935
531.28	17.453
531.47	17.515
531.67	17.198
531.86	17.375
532.06	17.324
532.26	16.963
532.45	17.552
532.65	17.313
532.84	16.263
533.04	16.899
533.24	16.486
533.43	16.348
533.63	16.682
533.82	16.504
534.02	16.918
534.22	16.821
534.41	16.453
534.61	16.683
534.80	16.443
535.00	16.947
535.19	17.380
535.39	17.073
535.59	17.457
535.78	17.178
535.98	16.602
536.17	17.155
536.37	16.947
536.57	16.713
536.76	16.505
536.96	16.703
537.15	17.001
537.35	17.140
537.54	16.896
537.74	17.071
537.93	17.117
538.13	16.784
538.33	16.646
538.52	17.208
538.72	17.254
538.91	16.828
539.11	17.305
539.30	16.689
539.50	17.748
539.70	16.647
539.89	17.431
540.09	16.458
540.28	17.846
540.48	16.964
540.67	16.440
540.87	16.298
541.06	16.112
541.26	15.920
541.45	16.292
541.65	15.794
541.85	16.121
542.04	15.795
542.24	16.309
542.43	16.338
542.63	16.119
542.82	16.561
543.02	16.592
543.21	16.618
543.41	16.858
543.60	17.080
543.80	16.408
543.99	17.013
544.19	16.667
544.38	17.087
544.58	16.625
544.77	16.596
544.97	17.099
545.16	16.617
545.36	17.307
545.56	17.093
545.75	17.161
545.95	16.047
546.14	17.026
546.34	16.712
546.53	16.935
546.73	17.317
546.92	16.595
547.12	16.579
547.31	16.867
547.51	16.734
547.70	17.046
547.90	16.647
548.09	17.258
548.29	16.626
548.48	17.042
548.68	17.631
548.87	17.704
549.07	16.697
549.26	16.686
549.46	17.662
549.65	17.537
549.84	17.534
550.04	17.315
550.23	17.343
550.43	17.905
550.62	17.368
550.82	16.582
551.01	17.903
551.21	17.288
551.40	17.812
551.60	17.887
551.79	17.963
551.99	17.910
552.18	17.344
552.38	17.483
552.57	16.565
552.77	17.195
552.96	17.197
553.16	18.265
553.35	17.741
553.54	17.716
553.74	17.277
553.93	18.475
554.13	17.509
554.32	17.461
554.52	18.258
554.71	17.424
554.91	17.783
555.10	18.766
555.29	16.801
555.49	17.946
555.68	17.856
555.88	17.164
556.07	17.550
556.27	17.924
556.46	18.393
556.66	17.580
556.85	18.089
557.04	17.837
557.24	18.469
557.43	17.823
557.63	18.698
557.82	18.456
558.02	18.191
558.21	19.250
558.40	17.899
558.60	19.021
558.79	17.730
558.99	17.450
559.18	18.240
559.38	17.995
559.57	18.040
559.76	17.451
559.96	18.421
560.15	18.314
560.35	17.972
560.54	18.828
560.73	17.116
560.93	18.757
561.12	17.952
561.32	18.804
561.51	17.899
561.70	18.341
561.90	17.937
562.09	19.529
562.29	18.379
562.48	18.302
562.67	18.196
562.87	19.092
563.06	17.918
563.26	18.303
563.45	18.277
563.64	19.988
563.84	19.322
564.03	19.311
564.23	19.315
564.42	18.888
564.61	17.485
564.81	19.313
565.00	18.439
565.20	19.363
565.39	18.237
565.58	19.417
565.78	18.058
565.97	19.232
566.16	18.596
566.36	18.535
566.55	18.871
566.74	19.042
566.94	18.261
567.13	18.730
567.33	18.478
567.52	18.940
567.71	18.337
567.91	19.013
568.10	19.287
568.29	18.639
568.49	19.165
568.68	19.221
568.87	18.960
569.07	19.217
569.26	19.023
569.45	19.385
569.65	19.414
569.84	20.075
570.04	19.556
570.23	19.472
570.42	19.294
570.62	19.339
570.81	19.978
571.00	18.948
571.20	19.001
571.39	19.137
571.58	19.543
571.78	18.971
571.97	18.989
572.16	19.378
572.36	19.134
572.55	19.680
572.74	19.030
572.94	19.025
573.13	19.173
573.32	20.046
573.51	19.049
573.71	18.968
573.90	19.114
574.09	19.705
574.29	19.231
574.48	19.141
574.67	19.458
574.87	19.219
575.06	19.021
575.25	19.265
575.45	18.557
575.64	19.398
575.83	18.669
576.03	19.858
576.22	18.755
576.41	19.760
576.60	19.007
576.80	19.750
576.99	18.179
577.18	19.554
577.38	18.827
577.57	19.832
577.76	19.772
577.95	19.830
578.15	18.829
578.34	20.288
578.53	19.025
578.73	19.387
578.92	19.481
579.11	20.075
579.30	19.728
579.50	20.769
579.69	19.058
579.88	20.046
580.08	18.653
580.27	19.190
580.46	20.020
580.65	20.064
580.85	19.424
581.04	19.028
581.23	18.702
581.42	19.657
581.62	19.588
581.81	20.828
582.00	18.635
582.19	19.287
582.39	20.201
582.58	19.633
582.77	18.948
582.96	19.109
583.16	18.815
583.35	19.946
583.54	19.223
583.73	18.625
583.93	18.765
584.12	18.458
584.31	19.383
584.50	19.862
584.70	18.960
584.89	19.012
585.08	18.323
585.27	19.348
585.47	18.953
585.66	19.439
585.85	18.916
586.04	19.420
586.24	18.763
586.43	17.343
586.62	17.747
586.81	20.085
587.00	17.439
587.20	19.921
587.39	18.786
587.58	20.125
587.77	19.200
587.97	18.051
588.16	17.827
588.35	19.096
588.54	18.328
588.73	19.139
588.93	20.266
589.12	19.306
589.31	18.659
589.50	19.387
589.69	17.767
589.89	19.086
590.08	18.321
590.27	18.622
590.46	19.007
590.65	19.643
590.85	18.537
591.04	19.488
591.23	18.298
591.42	18.554
591.61	18.410
591.81	19.664
592.00	19.639
592.19	19.206
592.38	19.020
592.57	18.365
592.77	19.869
592.96	19.171
593.15	18.799
593.34	19.293
593.53	19.447
593.72	21.282
593.92	18.708
594.11	19.956
594.30	19.963
594.49	18.444
594.68	19.886
594.87	19.273
595.07	20.982
595.26	19.606
595.45	20.094
595.64	20.268
595.83	18.405
596.02	20.325
596.22	20.239
596.41	20.373
596.60	20.136
596.79	20.198
596.98	20.286
597.17	20.392
597.37	19.856
597.56	20.467
597.75	19.615
597.94	20.278
598.13	20.734
598.32	20.673
598.51	19.895
598.71	20.871
598.90	19.814
599.09	20.996
599.28	20.289
599.47	20.973
599.66	21.106
599.85	20.243
600.05	21.617
600.24	21.398
600.43	21.516
600.62	21.581
600.81	21.552
601.00	22.769
601.19	19.235
601.38	21.555
601.58	21.935
601.77	22.073
601.96	21.593
602.15	22.377
602.34	22.547
602.53	22.265
602.72	21.634
602.91	22.367
603.10	20.250
603.30	21.180
603.49	21.190
603.68	22.427
603.87	20.541
604.06	21.602
604.25	21.240
604.44	21.584
604.63	21.388
604.82	21.539
605.01	22.350
605.21	21.774
605.40	21.927
605.59	21.819
605.78	22.076
605.97	22.292
606.16	21.121
606.35	22.251
606.54	23.268
606.73	23.191
606.92	22.053
607.11	22.315
607.30	21.545
607.50	23.085
607.69	22.844
607.88	23.672
608.07	21.338
608.26	23.724
608.45	23.963
608.64	23.816
608.83	22.620
609.02	22.988
609.21	21.209
609.40	23.814
609.59	22.536
609.78	22.271
609.97	21.703
610.16	23.109
610.35	22.467
610.55	22.948
610.74	23.528
610.93	22.518
611.12	22.861
611.31	23.005
611.50	23.365
611.69	23.007
611.88	22.926
612.07	24.201
612.26	22.764
612.45	23.890
612.64	23.547
612.83	24.191
613.02	24.007
613.21	23.979
613.40	22.269
613.59	24.144
613.78	22.691
613.97	23.498
614.16	22.270
614.35	23.632
614.54	22.022
614.73	23.803
614.92	23.156
615.11	23.670
615.30	22.675
615.49	22.977
615.68	23.657
615.87	23.340
616.07	22.609
616.26	23.101
616.45	22.790
616.64	23.143
616.83	23.531
617.02	23.597
617.21	23.265
617.40	22.672
617.59	22.596
617.78	25.368
617.97	22.297
618.16	21.911
618.35	22.814
618.54	21.737
618.73	23.752
618.92	22.375
619.11	23.197
619.30	24.139
619.49	23.137
619.68	22.371
619.86	23.707
620.05	22.932
620.24	21.975
620.43	24.127
620.62	22.243
620.81	23.996
621.00	22.963
621.19	24.308
621.38	23.907
621.57	22.593
621.76	23.140
621.95	24.103
622.14	22.113
622.33	24.308
622.52	22.083
622.71	23.043
622.90	23.237
623.09	22.465
623.28	22.172
623.47	23.585
623.66	24.132
623.85	23.095
624.04	23.099
624.23	22.355
624.42	21.913
624.61	23.239
624.80	21.286
624.99	22.800
625.18	23.869
625.36	22.996
625.55	23.172
625.74	22.849
625.93	23.215
626.12	22.358
626.31	22.949
626.50	21.809
626.69	23.234
626.88	23.185
627.07	22.705
627.26	22.488
627.45	21.857
627.64	23.911
627.83	22.392
628.02	23.040
628.20	22.602
628.39	24.420
628.58	22.584
628.77	22.886
628.96	23.381
629.15	23.656
629.34	22.752
629.53	23.222
629.72	21.664
629.91	23.198
630.10	23.706
630.29	22.629
630.47	23.684
630.66	22.757
630.85	22.557
631.04	23.178
631.23	23.180
631.42	22.653
631.61	22.180
631.80	24.241
631.99	23.750
632.18	23.127
632.36	22.339
632.55	23.140
632.74	22.238
632.93	23.066
633.12	22.361
633.31	22.714
633.50	22.604
633.69	23.483
633.88	22.937
634.06	23.622
634.25	22.991
634.44	22.028
634.63	21.276
634.82	23.339
635.01	22.358
635.20	23.254
635.39	21.839
635.57	22.626
635.76	22.865
635.95	23.246
636.14	21.454
636.33	24.115
636.52	20.945
636.71	23.316
636.89	22.846
637.08	24.363
637.27	22.669
637.46	23.427
637.65	23.022
637.84	24.284
638.03	21.827
638.21	23.171
638.40	22.473
638.59	22.379
638.78	19.938
638.97	23.695
639.16	21.873
639.34	22.499
639.53	21.438
639.72	22.510
639.91	23.211
640.10	23.927
640.29	22.835
640.47	25.191
640.66	22.185
640.85	23.295
641.04	20.303
641.23	21.489
641.42	20.824
641.60	23.396
641.79	20.057
641.98	21.718
642.17	21.740
642.36	23.531
642.54	19.727
642.73	22.324
642.92	21.896
643.11	20.962
643.30	19.749
643.49	20.975
643.67	21.941
643.86	23.628
644.05	20.097
644.24	23.011
644.43	21.388
644.61	23.382
644.80	21.531
644.99	21.680
645.18	22.275
645.37	21.822
645.55	20.106
645.74	23.215
645.93	21.523
646.12	21.966
646.31	21.079
646.49	22.065
646.68	19.347
646.87	21.792
647.06	20.732
647.24	23.140
647.43	21.292
647.62	21.633
647.81	20.558
648.00	21.805
648.18	20.048
648.37	22.838
648.56	20.783
648.75	20.893
648.93	21.279
649.12	22.800
649.31	21.031
649.50	21.656
649.68	19.929
649.87	22.406
650.06	19.075
650.25	22.456
650.43	21.891
650.62	20.509
650.81	21.609
651.00	21.464
651.18	19.697
651.37	20.735
651.56	20.126
651.75	22.444
651.93	21.310
652.12	22.323
652.31	20.134
652.50	21.953
652.68	20.790
652.87	22.517
653.06	20.216
653.25	23.081
653.43	20.118
653.62	22.417
653.81	19.853
654.00	22.106
654.18	20.225
654.37	22.849
654.56	19.988
654.74	20.709
654.93	20.151
655.12	21.898
655.31	19.249
655.49	22.630
655.68	18.875
655.87	21.557
656.05	19.134
656.24	20.045
656.43	17.449
656.62	21.027
656.80	17.726
656.99	19.717
657.18	17.016
657.36	19.942
657.55	19.775
657.74	21.034
657.93	20.985
658.11	21.569
658.30	20.569
658.49	22.321
658.67	19.358
658.86	19.882
659.05	19.817
659.23	20.605
659.42	18.281
659.61	19.871
659.79	18.528
659.98	20.985
660.17	19.392
660.35	20.918
660.54	20.081
660.73	21.655
660.91	20.648
661.10	21.632
661.29	20.481
661.47	20.209
661.66	19.504
661.85	21.113
662.03	19.113
662.22	18.508
662.41	16.182
662.59	19.234
662.78	16.824
662.97	19.224
663.15	16.763
663.34	18.137
663.53	16.165
663.71	18.225
663.90	17.687
664.09	19.275
664.27	16.374
664.46	17.018
664.65	16.359
664.83	18.331
665.02	17.081
665.21	15.875
665.39	14.441
665.58	16.199
665.77	15.868
665.95	16.636
666.14	15.054
666.32	17.307
666.51	14.281
666.70	15.068
666.88	16.043
667.07	15.054
667.26	13.991
667.44	15.197
667.63	14.598
667.81	15.934
668.00	14.332
668.19	17.473
668.37	14.765
668.56	17.467
668.75	15.349
668.93	17.737
669.12	14.829
669.30	17.328
669.49	14.594
669.68	14.176
669.86	13.859
670.05	14.771
670.23	13.992
670.42	15.736
670.61	13.733
670.79	16.480
670.98	15.382
671.16	17.947
671.35	14.932
671.54	15.309
671.72	14.949
671.91	17.044
672.09	12.472
672.28	15.461
672.46	16.422
672.65	15.985
672.84	15.931
673.02	17.286
673.21	12.813
673.39	14.510
673.58	16.036
673.77	14.772
673.95	14.026
674.14	15.464
674.32	12.993
674.51	15.933
674.69	13.912
674.88	14.519
675.07	13.115
675.25	17.893
675.44	13.111
675.62	14.252
675.81	13.057
675.99	18.279
676.18	16.192
676.36	16.388
676.55	12.868
676.74	15.424
676.92	16.561
677.11	15.464
677.29	14.453
677.48	15.770
677.66	15.082
677.85	15.800
678.03	14.894
678.22	16.120
678.40	15.400
678.59	15.271
678.78	13.421
678.96	17.344
679.15	12.477
679.33	15.412
679.52	16.017
679.70	17.735
679.89	15.596
680.07	17.534
680.26	13.995
680.44	18.235
680.63	16.941
680.81	17.881
681.00	14.874
681.18	18.472
681.37	16.661
681.55	18.344
681.74	19.263
681.92	18.865
682.11	17.000
682.29	17.327
682.48	16.937
682.66	18.191
682.85	15.917
683.03	17.114
683.22	17.948
683.40	17.213
683.59	19.518
683.77	18.854
683.96	16.503
684.14	18.448
684.33	14.466
684.51	21.179
684.70	18.067
684.88	19.992
685.07	17.971
685.25	20.101
685.44	17.408
685.62	20.159
685.81	16.808
685.99	19.409
686.18	15.076
686.36	19.580
686.55	16.371
686.73	19.395
686.92	18.359
687.10	20.957
687.29	19.091
687.47	19.129
687.65	19.618
687.84	20.856
688.02	22.762
688.21	22.930
688.39	20.429
688.58	22.649
688.76	20.258
688.95	22.473
689.13	19.708
689.32	22.513
689.50	21.151
689.68	22.079
689.87	21.251
690.05	21.894
690.24	23.172
690.42	21.990
690.61	21.467
690.79	22.524
690.98	21.434
691.16	23.866
691.34	22.637
691.53	24.166
691.71	23.950
691.90	23.998
692.08	23.805
692.27	24.558
692.45	23.662
692.63	24.401
692.82	24.909
693.00	26.512
693.19	21.932
693.37	28.340
693.56	24.023
693.74	28.373
693.92	27.870
694.11	27.793
694.29	25.119
694.48	27.638
694.66	26.308
694.84	27.611
695.03	26.309
695.21	29.364
695.40	29.496
695.58	27.796
695.76	25.789
695.95	31.825
696.13	26.940
696.32	29.929
696.50	32.528
696.68	29.099
696.87	26.331
697.05	30.741
697.24	29.977
697.42	30.587
697.60	27.746
697.79	31.543
697.97	30.263
698.16	30.563
698.34	28.221
698.52	30.731
698.71	30.054
698.89	30.789
699.07	30.037
699.26	31.115
699.44	29.964
699.63	32.956
699.81	29.870
699.99	30.075
700.18	30.959
700.36	33.981
700.54	31.350
700.73	33.249
700.91	32.100
701.09	33.573
701.28	30.887
701.46	33.148
701.64	30.703
701.83	34.452
702.01	32.912
702.20	36.087
702.38	33.631
702.56	33.066
702.75	33.040
702.93	35.147
703.11	34.547
703.30	34.201
703.48	37.786
703.66	37.660
703.85	36.447
704.03	36.567
704.21	38.612
704.40	36.674
704.58	38.436
704.76	36.576
704.95	38.288
705.13	34.421
705.31	38.052
705.50	40.493
705.68	33.772
705.86	43.212
706.04	34.618
706.23	37.919
706.41	35.307
706.59	36.017
706.78	35.487
706.96	39.681
707.14	35.832
707.33	38.811
707.51	36.584
707.69	40.831
707.88	37.898
708.06	37.955
708.24	38.470
708.42	39.881
708.61	37.326
708.79	37.507
708.97	39.571
709.16	38.782
709.34	38.889
709.52	39.156
709.71	40.054
709.89	41.045
710.07	38.857
710.25	39.838
710.44	38.547
710.62	40.333
710.80	39.403
710.98	41.097
711.17	38.685
711.35	41.352
711.53	38.516
711.72	39.650
711.90	41.470
712.08	38.508
712.26	40.943
712.45	43.056
712.63	40.823
712.81	44.173
712.99	40.103
713.18	43.017
713.36	41.378
713.54	41.434
713.72	40.628
713.91	38.574
714.09	39.751
714.27	39.429
714.45	38.814
714.64	41.806
714.82	42.045
715.00	40.194
715.18	40.096
715.37	38.535
715.55	39.660
715.73	42.471
715.91	41.758
716.10	41.471
716.28	39.370
716.46	46.736
716.64	39.278
716.83	41.010
717.01	37.817
717.19	40.070
717.37	38.497
717.55	40.010
717.74	40.000
717.92	39.118
718.10	40.671
718.28	40.572
718.47	38.367
718.65	42.227
718.83	38.943
719.01	40.325
719.19	42.591
719.38	40.406
719.56	38.773
719.74	38.303
719.92	38.307
720.10	40.318
720.29	39.402
720.47	40.553
720.65	35.738
720.83	39.062
721.01	40.999
721.20	42.703
721.38	40.135
721.56	42.757
721.74	41.893
721.92	44.543
722.11	43.084
722.29	45.845
722.47	46.869
722.65	46.234
722.83	47.505
723.01	45.964
723.20	45.372
723.38	42.083
723.56	44.614
723.74	46.364
723.92	44.638
724.10	44.681
724.29	41.956
724.47	45.037
724.65	45.216
724.83	45.264
725.01	42.011
725.19	47.338
725.38	42.246
725.56	45.948
725.74	44.453
725.92	46.897
726.10	42.461
726.28	50.778
726.46	45.932
726.65	45.845
726.83	43.331
727.01	46.667
727.19	48.424
727.37	49.792
727.55	43.457
727.73	43.508
727.92	46.597
728.10	48.059
728.28	47.051
728.46	45.831
728.64	44.332
728.82	45.420
729.00	45.107
729.19	46.986
729.37	47.745
729.55	44.713
729.73	43.126
729.91	48.836
730.09	47.108
730.27	47.335
730.45	46.014
730.63	48.100
730.82	45.596
731.00	47.082
731.18	45.578
731.36	45.333
731.54	45.407
731.72	48.669
731.90	48.175
732.08	48.141
732.26	46.533
732.45	48.799
732.63	49.468
732.81	50.358
732.99	47.033
733.17	45.634
733.35	47.311
733.53	48.236
733.71	45.615
733.89	51.156
734.07	50.445
734.25	51.498
734.44	52.981
734.62	52.224
734.80	49.359
734.98	50.098
735.16	52.292
735.34	53.021
735.52	53.012
735.70	51.707
735.88	54.210
736.06	54.275
736.24	56.589
736.42	52.034
736.60	56.661
736.78	61.060
736.97	51.198
737.15	57.461
737.33	55.144
737.51	57.224
737.69	56.850
737.87	50.504
738.05	59.545
738.23	60.412
738.41	54.444
738.59	54.876
738.77	55.219
738.95	57.667
739.13	54.968
739.31	59.606
739.49	54.545
739.67	59.420
739.85	58.704
740.03	54.723
740.21	55.004
740.39	56.938
740.57	59.861
740.75	61.468
740.93	55.075
741.11	61.047
741.30	57.409
741.48	57.155
741.66	56.856
741.84	54.485
742.02	59.402
742.20	62.877
742.38	58.587
742.56	60.263
742.74	61.948
742.92	60.404
743.10	60.036
743.28	67.150
743.46	61.423
743.64	58.998
743.82	64.027
744.00	65.514
744.18	64.507
744.36	56.889
744.54	60.968
744.72	65.042
744.90	66.350
745.08	66.795
745.26	63.512
745.44	63.601
745.62	65.358
745.80	65.738
745.98	67.555
746.16	62.389
746.34	64.041
746.52	63.320
746.70	61.433
746.87	68.205
747.05	68.617
747.23	68.098
747.41	63.511
747.59	69.145
747.77	62.450
747.95	64.882
748.13	67.425
748.31	65.267
748.49	65.863
748.67	66.339
748.85	69.278
749.03	66.200
749.21	67.613
749.39	69.408
749.57	64.327
749.75	64.223
749.93	69.980
750.11	66.901
750.29	64.605
750.47	59.178
750.65	68.195
750.83	73.690
751.01	61.407
751.18	68.342
751.36	67.695
751.54	69.543
751.72	64.036
751.90	67.345
752.08	57.498
752.26	68.520
752.44	63.410
752.62	68.812
752.80	67.454
752.98	71.223
753.16	65.200
753.34	65.280
753.52	64.188
753.69	59.256
753.87	64.211
754.05	67.992
754.23	70.534
754.41	67.157
754.59	66.995
754.77	65.666
754.95	69.372
755.13	73.695
755.31	67.611
755.49	69.732
755.66	63.444
755.84	65.795
756.02	65.740
756.20	70.000
756.38	72.651
756.56	62.755
756.74	66.733
756.92	64.053
757.10	65.436
757.28	68.342
757.45	71.429
757.63	67.912
757.81	62.722
757.99	65.421
758.17	70.256
758.35	72.618
758.53	66.178
758.71	63.142
758.88	63.532
759.06	60.059
759.24	54.597
759.42	57.255
759.60	55.544
759.78	52.204
759.96	49.706
760.13	44.888
760.31	49.145
760.49	44.206
760.67	38.795
760.85	41.874
761.03	41.751
761.21	39.696
761.38	36.205
761.56	45.149
761.74	41.412
761.92	39.806
762.10	38.863
762.28	47.615
762.46	40.093
762.63	43.275
762.81	43.815
762.99	44.332
763.17	36.621
763.35	41.592
763.53	36.215
763.70	39.628
763.88	36.557
764.06	37.971
764.24	37.565
764.42	39.005
764.60	38.121
764.77	41.148
764.95	40.890
765.13	41.622
765.31	40.025
765.49	41.997
765.66	44.490
765.84	47.346
766.02	46.845
766.20	52.706
766.38	49.656
766.56	55.102
766.73	49.223
766.91	51.637
767.09	57.885
767.27	53.125
767.45	58.781
767.62	63.725
767.80	59.415
767.98	59.881
768.16	64.382
768.33	66.215
768.51	67.053
768.69	64.376
768.87	65.265
769.05	68.107
769.22	62.734
769.40	72.624
769.58	74.410
769.76	72.161
769.94	77.195
770.11	71.737
770.29	70.771
770.47	68.758
770.65	72.034
770.82	70.198
771.00	71.964
771.18	77.561
771.36	69.531
771.53	63.855
771.71	74.211
771.89	82.041
772.07	80.601
772.25	80.110
772.42	70.472
772.60	80.617
772.78	78.520
772.96	79.693
773.13	78.571
773.31	76.882
773.49	80.116
773.67	82.083
773.84	74.784
774.02	76.444
774.20	82.190
774.37	80.529
774.55	71.079
774.73	76.480
774.91	83.005
775.08	74.674
775.26	81.433
775.44	79.609
775.62	83.607
775.79	75.323
775.97	76.308
776.15	71.733
776.32	81.356
776.50	82.481
776.68	80.318
776.86	87.888
777.03	74.209
777.21	79.906
777.39	84.906
777.56	80.595
777.74	73.645
777.92	77.191
778.10	82.315
778.27	81.395
778.45	74.125
778.63	88.784
778.80	76.911
778.98	73.181
779.16	80.402
779.34	76.488
779.51	81.442
779.69	82.781
779.87	80.492
780.04	82.535
780.22	64.265
780.40	75.354
780.57	79.107
780.75	75.279
780.93	75.353
781.10	89.104
781.28	73.476
781.46	80.071
781.63	81.818
781.81	81.442
781.99	75.987
782.16	73.013
782.34	76.599
782.52	77.778
782.69	79.641
782.87	81.250
783.05	79.695
783.22	82.143
783.40	77.445
783.58	83.882
783.75	76.976
783.93	90.865
784.11	78.910
784.28	83.218
784.46	80.071
784.64	83.571
784.81	78.495
784.99	72.142
785.17	93.786
785.34	82.384
785.52	84.762
785.69	76.534
785.87	82.682
786.05	87.857
786.22	81.132
786.40	88.139
786.58	78.020
786.75	73.937
786.93	80.458
787.11	77.448
787.28	84.708
787.46	85.921
787.63	86.275
787.81	87.250
787.99	78.910
788.16	78.852
788.34	65.434
788.51	68.356
788.69	68.988
788.87	66.916
789.04	64.795
789.22	70.247
789.39	69.852
789.57	65.465
789.75	62.479
789.92	62.242
790.10	62.984
790.27	66.714
790.45	66.035
790.63	68.740
790.80	68.608
790.98	71.479
791.15	68.478
791.33	63.948
791.51	74.088
791.68	72.711
791.86	68.870
792.03	73.595
792.21	70.956
792.39	76.596
792.56	72.251
792.74	76.181
792.91	68.519
793.09	75.220
793.26	85.535
793.44	72.865
793.62	76.378
793.79	75.547
793.97	78.752
794.14	66.731
794.32	71.486
794.49	84.547
794.67	71.138
794.84	72.956
795.02	68.809
795.20	74.291
795.37	78.600
795.55	67.450
795.72	72.575
795.90	71.345
796.07	79.960
796.25	69.439
796.42	76.224
796.60	68.447
796.77	70.641
796.95	79.024
797.13	65.391
797.30	76.703
797.48	65.239
797.65	56.982
797.83	75.311
798.00	74.813
798.18	59.559
798.35	71.034
798.53	77.476
798.70	65.664
798.88	78.175
799.05	80.214
799.23	66.849
799.40	62.989
799.58	69.043
799.75	71.204
799.93	65.392
800.10	74.060
800.28	77.226
800.45	72.233
800.63	72.433
800.80	67.086
800.98	78.639
801.15	62.816
801.33	74.419
801.50	67.921
801.68	67.609
801.85	68.340
802.03	72.545
802.20	78.384
802.38	69.101
802.55	78.838
802.73	70.328
802.90	60.606
803.08	80.000
803.25	78.357
803.43	74.795
803.60	72.627
803.78	65.422
803.95	75.974
804.13	66.985
804.30	80.761
804.48	71.834
804.65	82.247
804.83	68.209
805.00	83.002
805.17	73.561
805.35	69.613
805.52	72.912
805.70	76.141
805.87	73.664
806.05	75.301
806.22	72.708
806.40	68.431
806.57	71.318
806.75	67.623
806.92	75.926
807.09	80.632
807.27	69.184
807.44	75.442
807.62	72.243
807.79	63.551
807.97	66.200
808.14	67.983
808.31	67.105
808.49	82.270
808.66	64.691
808.84	71.227
809.01	71.034
809.19	71.127
809.36	71.399
809.53	73.913
809.71	69.231
809.88	78.912
810.06	68.271
810.23	76.169
810.41	75.472
810.58	76.456
810.75	81.579
810.93	59.589
811.10	62.445
811.28	62.921
811.45	73.183
811.62	70.332
811.80	74.874
811.97	81.407
812.15	70.159
812.32	70.419
812.49	75.921
812.67	64.678
812.84	65.865
813.02	70.635
813.19	64.407
813.36	72.099
813.54	63.980
813.71	70.361
813.89	70.466
814.06	62.406
814.23	67.647
814.41	77.273
814.58	66.667
814.75	60.763
814.93	72.772
815.10	68.170
815.28	59.204
815.45	61.358
815.62	61.494
815.80	50.877
815.97	52.250
816.14	60.212
816.32	57.364
816.49	60.158
816.66	49.333
816.84	48.975
817.01	56.156
817.18	58.486
817.36	62.211
817.53	63.592
817.71	57.584
817.88	65.972
818.05	64.108
818.23	56.934
818.40	61.333
818.57	56.036
818.75	48.211
818.92	66.416
819.09	44.332
819.27	51.500
819.44	52.257
819.61	49.192
819.79	59.955
819.96	46.804
820.13	50.602
820.31	47.986
820.48	65.173
820.65	51.560
820.82	55.179
821.00	57.633
821.17	41.220
821.34	44.898
821.52	32.587
821.69	45.802
821.86	39.250
822.04	41.052
822.21	41.925
822.38	36.104
822.56	32.786
822.73	36.258
822.90	31.865
823.07	31.832
823.25	30.223
823.42	32.965
823.59	32.263
823.77	33.662
823.94	31.575
824.11	34.489
824.29	32.473
824.46	32.127
824.63	33.901
824.80	35.672
824.98	33.316
825.15	36.606
825.32	33.084
825.49	36.101
825.67	35.239
825.84	37.426
826.01	39.417
826.19	41.333
826.36	33.611
826.53	41.644
826.70	38.756
826.88	39.810
827.05	35.835
827.22	37.477
827.39	39.262
827.57	36.184
827.74	34.072
827.91	39.024
828.08	34.711
828.26	36.140
828.43	35.825
828.60	37.116
828.77	34.390
828.95	34.644
829.12	34.914
829.29	36.338
829.46	34.667
829.64	37.473
829.81	35.528
829.98	42.164
830.15	40.349
830.32	40.814
830.50	34.593
830.67	42.384
830.84	44.384
831.01	45.133
831.19	49.259
831.36	41.036
831.53	59.417
831.70	54.483
831.87	44.915
832.05	56.075
832.22	53.333
832.39	51.300
832.56	61.214
832.74	49.309
832.91	51.621
833.08	51.068
833.25	35.468
833.42	48.017
833.60	48.727
833.77	42.188
833.94	39.297
834.11	42.627
834.28	38.738
834.45	36.861
834.63	35.688
834.80	37.585
834.97	41.216
835.14	36.819
835.31	37.429
835.49	39.298
835.66	38.125
835.83	37.004
836.00	38.113
836.17	42.930
836.34	43.485
836.52	39.110
836.69	42.072
836.86	49.101
837.03	43.879
837.20	42.963
837.37	45.276
837.55	50.625
837.72	51.481
837.89	57.828
838.06	58.857
838.23	55.882
838.40	55.120
838.58	64.841
838.75	63.696
838.92	74.923
839.09	70.447
839.26	54.125
839.43	77.474
839.60	82.282
839.78	77.273
839.95	59.401
840.12	68.942
840.29	70.847
840.46	70.552
840.63	72.727
840.80	68.285
840.98	74.359
841.15	73.750
841.32	70.606
841.49	63.725
841.66	63.291
841.83	68.323
842.00	62.791
842.17	60.227
842.34	59.459
842.52	80.000
842.69	59.322
842.86	70.155
843.03	75.277
843.20	61.686
843.37	80.443
843.54	71.536
843.71	83.036
843.88	101.778
844.06	89.600
844.23	79.524
844.40	81.778
844.57	102.762
844.74	97.561
844.91	73.430
845.08	116.477
845.25	87.923
845.42	112.903
845.59	111.579
845.76	92.308
845.94	110.396
846.11	139.726
846.28	125.000
846.45	119.101
846.62	114.286
846.79	130.137
846.96	106.790
847.13	115.698
847.30	126.207
847.47	102.878
847.64	147.287
847.81	167.797
847.98	79.899
848.15	127.737
848.32	116.981
848.50	129.341
848.67	100.575
848.84	102.055
849.01	100.559
849.18	92.268
849.35	124.219
849.52	106.897
849.69	117.881
849.86	100.000
850.03	132.090
850.20	108.187
850.37	152.941
850.54	96.089
850.71	109.934
850.88	84.358
851.05	149.153
851.22	103.371
851.39	152.252
851.56	121.429
851.73	122.013
851.90	85.093
852.07	132.331
852.24	109.211
852.41	134.286
852.58	113.380
852.75	136.782
852.92	96.585
853.09	117.969
853.26	111.111
853.43	141.509
853.60	87.640
853.77	177.215
853.94	118.248
854.11	83.916
854.28	145.600
854.45	99.219
854.62	104.061
854.79	141.830
854.96	119.200
855.13	99.415
855.30	157.143
855.47	150.000
855.64	117.293
855.81	113.441
855.98	111.905
856.15	129.730
856.32	88.050
856.49	115.504
856.66	104.895
856.83	134.091
857.00	91.503
857.17	126.154
857.34	89.474
857.51	95.683
857.68	101.622
857.85	94.886
858.02	101.481
858.19	134.234
858.36	100.000
858.53	104.516
858.70	86.826
858.87	114.557
859.04	135.484
859.21	72.973
859.38	126.316
859.55	141.045
859.72	134.483
859.89	113.669
860.05	142.342
860.22	91.099
860.39	134.821
860.56	101.527
860.73	142.276
860.90	121.101
861.07	88.158
861.24	98.026
861.41	140.741
861.58	162.500
861.75	97.037
861.92	111.842
862.09	127.407
862.26	123.932
862.43	148.515
862.59	123.529
862.76	125.874
862.93	134.831
863.10	119.048
863.27	100.000
863.44	158.621
863.61	110.219
863.78	117.714
863.95	126.144
864.12	95.402
864.29	134.188
864.45	102.586
864.62	88.701
864.79	112.403
864.96	80.488
865.13	86.486
865.30	127.329
865.47	93.293
865.64	103.597
865.81	96.183
865.97	104.667
866.14	115.646
866.31	116.667
866.48	82.119
866.65	96.795
866.82	115.823
866.99	136.752
867.16	81.955
867.33	139.785
867.49	102.469
867.66	127.835
867.83	109.449
868.00	100.685
868.17	130.579
868.34	123.684
868.51	136.190
868.67	110.759
868.84	93.333
869.01	116.000
869.18	104.965
869.35	103.876
869.52	111.905
869.69	92.466
869.85	117.757
870.02	123.077
870.19	144.915
870.36	131.724
870.53	72.857
870.70	115.723
870.86	110.000
871.03	104.938
871.20	111.009
871.37	132.759
871.54	108.784
871.71	118.571
871.87	68.553
872.04	66.857
872.21	137.391
872.38	107.317
872.55	117.284
872.72	131.250
872.88	114.525
873.05	135.632
873.22	106.122
873.39	129.592
873.56	68.047
873.72	69.412
873.89	96.894
874.06	122.388
874.23	137.288
874.40	150.000
874.56	91.579
874.73	158.537
874.90	100.000
875.07	97.857
875.24	60.870
875.40	152.941
875.57	114.679
875.74	109.600
875.91	112.844
876.08	147.826
876.24	112.791
876.41	143.200
876.58	95.745
876.75	80.851
876.92	84.559
877.08	112.500
877.25	92.174
877.42	111.719
877.59	143.878
877.75	100.000
877.92	73.214
878.09	120.833
878.26	98.204
878.42	78.125
878.59	108.696
878.76	89.474
878.93	94.030
879.09	97.980
879.26	73.171
879.43	81.081
879.60	99.301
879.76	74.432
879.93	69.444
880.10	61.333
880.27	47.205
880.43	83.799
880.60	41.553
880.77	46.023
880.94	31.841
881.10	43.953
881.27	39.672
881.44	35.694
881.61	41.031
881.77	41.491
881.94	24.852
882.11	28.345
882.28	25.566
882.44	32.507
882.61	28.833
882.78	29.198
882.94	30.807
883.11	27.570
883.28	23.608
883.45	24.528
883.61	21.868
883.78	25.088
883.95	28.521
884.11	25.926
884.28	30.928
>>>>>End Processed Spectral Data<<<<<
