SpectraSuite Data File
++++++++++++++++++++++++++++++++++++
Date: Sun Sep 22 03:49:24 EST 2019
User: sgrac
Dark Spectrum Present: Yes
Reference Spectrum Present: Yes
Number of Sampled Component Spectra: 1
Spectrometers: USB4E01596
Integration Time (usec): 100000 (USB4E01596)
Spectra Averaged: 3 (USB4E01596)
Boxcar Smoothing: 0 (USB4E01596)
Correct for Electrical Dark: No (USB4E01596)
Strobe/Lamp Enabled: Yes (USB4E01596)
Correct for Detector Non-linearity: No (USB4E01596)
Correct for Stray Light: No (USB4E01596)
Number of Pixels in Processed Spectrum: 3648
>>>>>Begin Processed Spectral Data<<<<<
178.44	676.190
178.66	676.190
178.87	676.190
179.09	-169.444
179.30	-450.000
179.52	225.269
179.74	10600.000
179.95	1240.741
180.17	11100.000
180.38	304.938
180.60	-758.333
180.82	3883.333
181.03	-284.444
181.25	571.014
181.46	-194.048
181.68	-361.667
181.89	412.745
182.11	471.429
182.33	1738.095
182.54	400.000
182.76	984.848
182.97	-690.476
183.19	367.521
183.40	-352.381
183.62	349.383
183.84	315.238
184.05	12400.000
184.27	285.833
184.48	270.922
184.70	540.476
184.91	753.333
185.13	-7383.333
185.34	1026.190
185.56	-742.857
185.78	378.889
185.99	345.098
186.21	300.725
186.42	2416.667
186.64	167.544
186.85	-530.556
187.07	435.417
187.28	-1991.667
187.50	1266.667
187.72	860.606
187.93	-708.333
188.15	469.697
188.36	403.604
188.58	190.769
188.79	359.140
189.01	492.308
189.22	-1190.000
189.44	220.548
189.65	5183.333
189.87	2600.000
190.09	0.000
190.30	994.444
190.52	-405.128
190.73	539.130
190.95	533.333
191.16	630.000
191.38	-853.846
191.59	12066.667
191.81	244.444
192.02	953.333
192.24	-6216.667
192.45	-704.444
192.67	277.778
192.88	200.505
193.10	9800.000
193.31	-723.810
193.53	1303.333
193.74	236.752
193.96	294.558
194.18	328.947
194.39	-2188.889
194.61	1044.444
194.82	260.000
195.04	1171.429
195.25	1000.000
195.47	-578.431
195.68	-301.190
195.90	333.333
196.11	915.385
196.33	308.642
196.54	463.636
196.76	1705.556
196.97	-550.000
197.19	973.810
197.40	501.010
197.62	318.182
197.83	-1416.667
198.05	2327.778
198.26	217.413
198.48	964.444
198.69	-471.212
198.91	-2988.889
199.12	400.000
199.34	230.864
199.55	631.579
199.77	-564.912
199.98	-702.564
200.20	330.370
200.41	379.825
200.63	302.721
200.84	-1545.833
201.06	2293.333
201.27	566.667
201.49	-1561.905
201.70	0.000
201.91	618.333
202.13	282.639
202.34	432.099
202.56	960.606
202.77	327.586
202.99	-877.778
203.20	-1166.667
203.42	197.807
203.63	375.926
203.85	280.503
204.06	823.077
204.28	766.667
204.49	-12966.667
204.71	381.982
204.92	505.556
205.14	506.061
205.35	517.460
205.56	231.293
205.78	1516.667
205.99	10200.000
206.21	870.588
206.42	229.444
206.64	3733.333
206.85	245.139
207.07	208.889
207.28	220.219
207.50	500.000
207.71	510.667
207.93	488.406
208.14	-1106.667
208.35	-2455.556
208.57	1083.333
208.78	280.435
209.00	218.687
209.21	401.010
209.43	143.961
209.64	1583.333
209.86	292.929
210.07	951.282
210.28	783.333
210.50	286.667
210.71	284.397
210.93	808.333
211.14	-12466.667
211.36	376.667
211.57	-11000.000
211.78	-3100.000
212.00	428.070
212.21	1196.667
212.43	272.340
212.64	1069.697
212.86	412.644
213.07	-3391.667
213.29	261.111
213.50	-550.877
213.71	232.787
213.93	1253.333
214.14	919.048
214.36	1012.821
214.57	527.273
214.78	190.909
215.00	186.667
215.21	638.889
215.43	537.333
215.64	-10500.000
215.86	1113.889
216.07	-835.897
216.28	1040.000
216.50	-361.538
216.71	2000.000
216.93	709.804
217.14	-419.048
217.35	213.542
217.57	808.889
217.78	637.255
218.00	3211.111
218.21	264.151
218.42	1148.148
218.64	3333.333
218.85	1605.556
219.07	-729.630
219.28	-437.037
219.49	402.469
219.71	303.704
219.92	329.915
220.14	414.493
220.35	6300.000
220.56	216.959
220.78	392.222
220.99	-1633.333
221.21	0.000
221.42	442.529
221.63	1033.333
221.85	225.989
222.06	183.673
222.28	311.494
222.49	407.692
222.70	1306.667
222.92	312.667
223.13	210.556
223.34	-911.111
223.56	165.801
223.77	253.901
223.99	958.333
224.20	217.886
224.41	315.909
224.63	186.667
224.84	319.540
225.05	229.630
225.27	172.947
225.48	246.667
225.69	288.889
225.91	153.498
226.12	229.577
226.34	130.744
226.55	136.232
226.76	167.251
226.98	185.965
227.19	209.140
227.40	327.083
227.62	137.000
227.83	119.595
228.04	126.804
228.26	93.664
228.47	160.163
228.69	72.189
228.90	77.451
229.11	66.806
229.33	45.798
229.54	42.521
229.75	47.388
229.97	40.941
230.18	31.025
230.39	32.929
230.61	41.121
230.82	57.495
231.03	23.824
231.25	40.650
231.46	46.063
231.67	46.429
231.89	51.358
232.10	49.129
232.31	38.418
232.53	49.288
232.74	46.250
232.95	57.307
233.17	53.776
233.38	56.906
233.59	65.299
233.81	58.000
234.02	58.571
234.23	48.471
234.45	73.619
234.66	46.106
234.87	56.925
235.09	74.037
235.30	51.707
235.51	49.282
235.73	48.974
235.94	45.274
236.15	58.635
236.36	65.675
236.58	46.163
236.79	39.535
237.00	54.417
237.22	49.673
237.43	38.938
237.64	54.867
237.86	44.543
238.07	61.620
238.28	49.002
238.50	56.197
238.71	53.005
238.92	54.239
239.13	42.231
239.35	53.918
239.56	44.958
239.77	49.874
239.99	47.654
240.20	43.508
240.41	27.339
240.63	44.576
240.84	48.413
241.05	33.837
241.26	29.905
241.48	25.401
241.69	31.368
241.90	22.011
242.12	25.053
242.33	16.969
242.54	19.660
242.75	19.577
242.97	20.523
243.18	17.958
243.39	15.556
243.61	19.416
243.82	19.179
244.03	17.193
244.24	16.553
244.46	19.533
244.67	16.346
244.88	21.561
245.09	14.466
245.31	17.001
245.52	18.318
245.73	22.013
245.95	33.020
246.16	26.116
246.37	21.688
246.58	20.790
246.80	16.689
247.01	17.311
247.22	10.172
247.43	9.630
247.65	11.047
247.86	12.016
248.07	9.169
248.28	7.876
248.50	9.667
248.71	8.517
248.92	6.264
249.13	10.715
249.35	10.134
249.56	10.250
249.77	9.093
249.98	9.731
250.20	12.621
250.41	13.870
250.62	17.693
250.83	16.089
251.05	18.625
251.26	18.399
251.47	21.926
251.68	17.215
251.90	14.601
252.11	22.323
252.32	20.604
252.53	20.362
252.75	19.460
252.96	18.392
253.17	8.996
253.38	15.894
253.59	11.728
253.81	11.268
254.02	13.152
254.23	14.248
254.44	16.289
254.66	13.632
254.87	13.293
255.08	16.640
255.29	24.906
255.50	21.437
255.72	22.047
255.93	23.730
256.14	20.513
256.35	24.070
256.57	27.242
256.78	14.641
256.99	17.296
257.20	25.970
257.41	22.807
257.63	15.275
257.84	22.397
258.05	25.943
258.26	17.288
258.47	17.821
258.69	15.021
258.90	11.653
259.11	18.813
259.32	17.502
259.53	9.533
259.75	14.691
259.96	7.303
260.17	9.722
260.38	9.387
260.59	8.937
260.81	8.008
261.02	7.335
261.23	6.430
261.44	7.864
261.65	7.839
261.87	6.635
262.08	4.335
262.29	7.943
262.50	7.825
262.71	10.075
262.92	11.426
263.14	9.103
263.35	11.948
263.56	11.495
263.77	12.612
263.98	16.667
264.20	14.264
264.41	15.442
264.62	14.173
264.83	15.038
265.04	17.570
265.25	12.636
265.47	14.026
265.68	14.626
265.89	9.458
266.10	13.276
266.31	13.634
266.52	17.836
266.74	13.262
266.95	10.259
267.16	14.266
267.37	11.076
267.58	13.607
267.79	9.283
268.01	11.111
268.22	11.247
268.43	9.123
268.64	8.915
268.85	13.084
269.06	9.044
269.27	11.822
269.49	12.085
269.70	11.737
269.91	12.456
270.12	10.760
270.33	10.197
270.54	11.424
270.75	12.409
270.97	12.859
271.18	11.341
271.39	8.891
271.60	10.427
271.81	8.620
272.02	9.651
272.23	11.152
272.45	9.089
272.66	7.832
272.87	8.985
273.08	7.442
273.29	7.570
273.50	8.011
273.71	7.525
273.92	6.201
274.14	7.140
274.35	6.009
274.56	9.764
274.77	9.993
274.98	8.438
275.19	8.382
275.40	10.342
275.61	9.623
275.83	12.185
276.04	11.671
276.25	13.854
276.46	9.692
276.67	10.613
276.88	9.146
277.09	9.832
277.30	8.838
277.51	9.553
277.73	13.033
277.94	11.865
278.15	10.429
278.36	10.868
278.57	7.467
278.78	9.121
278.99	9.280
279.20	11.622
279.41	15.501
279.62	7.934
279.84	11.018
280.05	10.915
280.26	10.814
280.47	8.934
280.68	16.267
280.89	12.848
281.10	11.573
281.31	13.835
281.52	10.863
281.73	8.678
281.94	6.193
282.16	9.992
282.37	10.570
282.58	8.747
282.79	8.518
283.00	8.973
283.21	9.588
283.42	9.014
283.63	10.290
283.84	9.719
284.05	9.471
284.26	9.251
284.47	7.526
284.68	8.896
284.89	10.445
285.11	8.436
285.32	9.008
285.53	9.841
285.74	8.034
285.95	7.705
286.16	6.231
286.37	7.587
286.58	5.853
286.79	5.058
287.00	8.976
287.21	5.624
287.42	5.487
287.63	6.106
287.84	6.874
288.05	10.167
288.26	6.537
288.48	10.500
288.69	6.801
288.90	7.753
289.11	9.988
289.32	8.313
289.53	7.383
289.74	7.793
289.95	6.795
290.16	5.701
290.37	9.390
290.58	8.906
290.79	7.109
291.00	5.681
291.21	5.431
291.42	6.704
291.63	7.992
291.84	5.928
292.05	5.310
292.26	7.624
292.47	6.434
292.68	8.361
292.89	6.288
293.10	9.283
293.31	8.250
293.52	9.724
293.73	6.688
293.94	7.775
294.15	8.123
294.36	8.735
294.57	10.210
294.79	7.419
295.00	6.237
295.21	7.850
295.42	8.574
295.63	6.932
295.84	7.858
296.05	8.298
296.26	6.154
296.47	6.078
296.68	5.241
296.89	5.329
297.10	7.174
297.31	7.949
297.52	5.742
297.73	6.403
297.94	5.351
298.15	4.971
298.36	4.878
298.57	5.413
298.78	6.215
298.99	4.730
299.20	5.098
299.41	5.387
299.62	5.056
299.83	5.348
300.04	5.004
300.25	4.928
300.46	6.368
300.67	7.249
300.88	6.489
301.09	5.099
301.30	6.798
301.50	5.824
301.71	8.050
301.92	9.703
302.13	5.662
302.34	7.629
302.55	6.891
302.76	6.218
302.97	3.087
303.18	7.421
303.39	8.045
303.60	5.739
303.81	7.232
304.02	7.416
304.23	4.304
304.44	6.460
304.65	6.996
304.86	7.858
305.07	6.990
305.28	8.583
305.49	7.416
305.70	9.126
305.91	8.563
306.12	6.372
306.33	6.485
306.54	6.598
306.75	6.897
306.96	9.364
307.17	6.490
307.38	8.271
307.58	7.361
307.79	7.787
308.00	6.703
308.21	9.655
308.42	5.697
308.63	8.691
308.84	7.190
309.05	9.180
309.26	7.208
309.47	4.962
309.68	6.649
309.89	7.165
310.10	5.918
310.31	5.810
310.52	5.853
310.73	7.565
310.94	3.607
311.14	5.695
311.35	4.618
311.56	8.584
311.77	5.959
311.98	4.609
312.19	5.834
312.40	5.770
312.61	5.042
312.82	4.749
313.03	6.138
313.24	6.016
313.45	6.112
313.66	5.625
313.86	5.197
314.07	7.234
314.28	7.918
314.49	8.022
314.70	6.140
314.91	7.782
315.12	5.528
315.33	7.249
315.54	6.433
315.75	5.373
315.96	4.359
316.16	7.512
316.37	8.437
316.58	6.117
316.79	7.236
317.00	7.496
317.21	6.412
317.42	8.998
317.63	6.785
317.84	5.177
318.05	9.484
318.25	7.442
318.46	6.410
318.67	7.324
318.88	6.964
319.09	5.183
319.30	4.281
319.51	9.116
319.72	7.559
319.93	9.369
320.13	7.433
320.34	8.085
320.55	8.193
320.76	9.992
320.97	6.834
321.18	8.758
321.39	7.031
321.60	5.281
321.80	7.137
322.01	8.194
322.22	7.703
322.43	8.485
322.64	8.833
322.85	8.756
323.06	8.449
323.27	7.457
323.47	9.916
323.68	7.595
323.89	5.410
324.10	8.661
324.31	5.788
324.52	7.995
324.73	6.890
324.93	6.292
325.14	8.498
325.35	7.234
325.56	7.344
325.77	8.576
325.98	5.809
326.19	4.590
326.39	5.174
326.60	8.186
326.81	5.360
327.02	4.568
327.23	5.879
327.44	5.801
327.64	5.391
327.85	4.023
328.06	6.373
328.27	8.984
328.48	8.190
328.69	5.207
328.90	6.078
329.10	6.939
329.31	5.867
329.52	6.208
329.73	7.143
329.94	7.179
330.15	8.226
330.35	5.407
330.56	6.370
330.77	4.893
330.98	8.653
331.19	6.154
331.39	7.977
331.60	7.672
331.81	5.889
332.02	6.982
332.23	6.029
332.44	4.834
332.64	6.104
332.85	7.354
333.06	8.391
333.27	6.627
333.48	7.543
333.68	5.602
333.89	5.553
334.10	5.313
334.31	9.767
334.52	5.870
334.72	5.833
334.93	7.594
335.14	6.124
335.35	5.407
335.56	6.080
335.76	4.201
335.97	5.258
336.18	7.822
336.39	6.654
336.60	7.491
336.80	6.153
337.01	4.263
337.22	6.670
337.43	6.319
337.64	6.196
337.84	5.633
338.05	6.335
338.26	8.216
338.47	8.055
338.68	6.710
338.88	7.146
339.09	4.932
339.30	5.914
339.51	4.487
339.71	4.805
339.92	6.864
340.13	6.720
340.34	5.874
340.55	4.946
340.75	7.681
340.96	4.680
341.17	7.551
341.38	5.974
341.58	8.370
341.79	4.417
342.00	7.719
342.21	6.151
342.41	5.123
342.62	5.950
342.83	5.573
343.04	4.753
343.24	5.431
343.45	6.464
343.66	7.084
343.87	7.206
344.07	6.702
344.28	4.566
344.49	6.237
344.70	6.286
344.90	5.326
345.11	5.401
345.32	5.288
345.53	5.223
345.73	6.116
345.94	6.245
346.15	4.899
346.36	5.806
346.56	5.005
346.77	5.714
346.98	6.593
347.19	6.508
347.39	4.042
347.60	5.005
347.81	5.866
348.02	7.014
348.22	4.857
348.43	5.363
348.64	4.865
348.84	6.871
349.05	5.330
349.26	6.598
349.47	6.970
349.67	5.447
349.88	5.691
350.09	5.211
350.30	7.972
350.50	5.239
350.71	4.258
350.92	5.215
351.12	6.481
351.33	5.300
351.54	7.453
351.74	5.779
351.95	4.878
352.16	5.674
352.37	6.211
352.57	5.178
352.78	5.693
352.99	6.852
353.19	6.509
353.40	4.798
353.61	7.278
353.82	8.198
354.02	5.718
354.23	5.269
354.44	7.058
354.64	6.052
354.85	6.189
355.06	6.537
355.26	5.110
355.47	6.638
355.68	6.995
355.88	7.456
356.09	7.593
356.30	5.943
356.51	6.070
356.71	5.283
356.92	5.034
357.13	8.510
357.33	7.658
357.54	6.411
357.75	4.846
357.95	7.760
358.16	6.386
358.37	9.558
358.57	6.114
358.78	8.099
358.99	8.138
359.19	8.442
359.40	7.517
359.61	8.212
359.81	10.706
360.02	10.022
360.23	7.628
360.43	8.093
360.64	8.349
360.85	9.086
361.05	6.965
361.26	11.290
361.47	9.552
361.67	10.823
361.88	8.099
362.09	9.402
362.29	8.703
362.50	9.286
362.70	8.360
362.91	12.298
363.12	10.673
363.32	11.167
363.53	11.278
363.74	12.565
363.94	9.607
364.15	12.778
364.36	11.965
364.56	11.414
364.77	12.277
364.98	14.337
365.18	11.981
365.39	13.444
365.59	9.534
365.80	11.510
366.01	13.722
366.21	12.141
366.42	11.905
366.63	13.118
366.83	13.120
367.04	11.063
367.24	13.494
367.45	12.341
367.66	10.996
367.86	14.464
368.07	12.998
368.28	12.509
368.48	12.324
368.69	11.521
368.89	13.424
369.10	13.258
369.31	11.822
369.51	14.278
369.72	15.244
369.92	14.125
370.13	13.879
370.34	14.038
370.54	9.734
370.75	13.776
370.95	11.985
371.16	13.028
371.37	11.942
371.57	12.262
371.78	11.873
371.98	13.039
372.19	13.386
372.40	15.125
372.60	12.856
372.81	12.371
373.01	10.510
373.22	12.351
373.43	13.529
373.63	13.320
373.84	12.472
374.04	13.054
374.25	13.855
374.46	13.173
374.66	13.291
374.87	13.940
375.07	11.291
375.28	13.031
375.48	13.785
375.69	13.834
375.90	10.584
376.10	10.862
376.31	11.477
376.51	11.703
376.72	11.714
376.92	11.284
377.13	12.868
377.34	13.465
377.54	11.921
377.75	14.747
377.95	11.944
378.16	12.756
378.36	12.825
378.57	12.779
378.77	12.511
378.98	12.696
379.19	11.438
379.39	12.109
379.60	12.379
379.80	12.009
380.01	12.478
380.21	11.365
380.42	13.507
380.62	12.237
380.83	12.220
381.04	11.558
381.24	12.909
381.45	11.722
381.65	10.799
381.86	12.236
382.06	12.030
382.27	9.894
382.47	11.346
382.68	12.892
382.88	10.643
383.09	10.621
383.29	10.003
383.50	13.254
383.71	10.825
383.91	11.108
384.12	10.013
384.32	12.358
384.53	10.217
384.73	9.409
384.94	9.697
385.14	11.258
385.35	9.276
385.55	11.155
385.76	10.202
385.96	10.419
386.17	11.641
386.37	12.032
386.58	10.493
386.78	11.916
386.99	9.242
387.19	11.926
387.40	9.461
387.60	11.580
387.81	10.417
388.01	10.575
388.22	11.509
388.42	12.547
388.63	11.804
388.83	11.479
389.04	9.675
389.24	10.548
389.45	10.536
389.65	10.595
389.86	9.631
390.06	10.011
390.27	9.811
390.47	10.993
390.68	9.379
390.88	11.339
391.09	10.722
391.29	12.196
391.50	9.577
391.70	11.060
391.91	9.714
392.11	10.139
392.32	10.274
392.52	11.316
392.73	10.667
392.93	10.549
393.14	9.548
393.34	9.974
393.55	11.072
393.75	11.360
393.95	9.974
394.16	10.757
394.36	11.018
394.57	11.354
394.77	10.461
394.98	10.478
395.18	10.769
395.39	9.773
395.59	10.624
395.80	10.329
396.00	9.903
396.21	11.427
396.41	8.921
396.61	10.896
396.82	10.404
397.02	11.076
397.23	11.060
397.43	10.637
397.64	8.343
397.84	11.242
398.05	8.775
398.25	10.997
398.45	8.751
398.66	11.064
398.86	9.721
399.07	11.708
399.27	8.998
399.48	10.749
399.68	9.156
399.89	9.850
400.09	10.404
400.29	8.778
400.50	9.251
400.70	10.101
400.91	9.473
401.11	9.945
401.32	9.658
401.52	9.231
401.72	9.479
401.93	10.529
402.13	9.475
402.34	9.253
402.54	8.713
402.75	11.723
402.95	8.308
403.15	11.040
403.36	9.387
403.56	9.806
403.77	9.071
403.97	10.393
404.17	8.374
404.38	10.462
404.58	8.724
404.79	9.314
404.99	9.885
405.19	9.251
405.40	9.255
405.60	10.072
405.81	8.477
406.01	10.199
406.21	8.957
406.42	9.275
406.62	9.649
406.83	9.527
407.03	10.387
407.23	9.106
407.44	9.410
407.64	9.338
407.85	9.196
408.05	8.952
408.25	9.322
408.46	10.249
408.66	9.737
408.87	9.315
409.07	9.331
409.27	8.858
409.48	9.040
409.68	10.167
409.88	8.178
410.09	8.835
410.29	9.977
410.50	10.473
410.70	8.419
410.90	8.812
411.11	8.596
411.31	8.632
411.51	9.451
411.72	10.052
411.92	8.563
412.12	8.677
412.33	8.563
412.53	9.226
412.74	7.852
412.94	8.975
413.14	9.129
413.35	9.351
413.55	9.025
413.75	10.065
413.96	8.426
414.16	9.676
414.36	9.082
414.57	10.036
414.77	8.745
414.97	9.505
415.18	8.658
415.38	8.990
415.58	9.360
415.79	9.003
415.99	8.882
416.19	9.379
416.40	9.652
416.60	8.576
416.80	9.248
417.01	9.255
417.21	8.841
417.41	10.451
417.62	9.229
417.82	10.166
418.02	8.413
418.23	10.180
418.43	8.956
418.63	10.008
418.84	9.075
419.04	9.599
419.24	9.916
419.45	10.379
419.65	10.160
419.85	10.036
420.06	10.070
420.26	10.466
420.46	10.071
420.67	10.875
420.87	9.901
421.07	10.087
421.28	9.974
421.48	10.408
421.68	10.173
421.88	10.393
422.09	10.424
422.29	10.876
422.49	10.328
422.70	10.940
422.90	10.745
423.10	10.401
423.31	10.553
423.51	10.963
423.71	10.485
423.91	10.698
424.12	10.609
424.32	11.128
424.52	10.463
424.73	10.738
424.93	10.680
425.13	10.839
425.33	10.507
425.54	10.718
425.74	10.691
425.94	11.042
426.15	11.023
426.35	10.787
426.55	11.044
426.75	11.008
426.96	10.812
427.16	11.015
427.36	11.621
427.57	11.475
427.77	11.076
427.97	11.585
428.17	11.529
428.38	11.427
428.58	10.591
428.78	10.943
428.98	10.537
429.19	11.147
429.39	10.142
429.59	10.748
429.79	10.276
430.00	10.744
430.20	10.538
430.40	11.376
430.60	10.688
430.81	11.542
431.01	10.518
431.21	11.307
431.41	10.667
431.62	11.282
431.82	10.608
432.02	12.204
432.22	10.959
432.43	11.263
432.63	10.620
432.83	11.403
433.03	10.572
433.24	10.690
433.44	11.266
433.64	11.775
433.84	11.468
434.05	11.552
434.25	10.962
434.45	12.100
434.65	12.120
434.85	11.872
435.06	12.215
435.26	11.386
435.46	11.520
435.66	12.310
435.87	11.803
436.07	11.978
436.27	12.146
436.47	12.489
436.67	11.559
436.88	12.030
437.08	12.273
437.28	12.209
437.48	11.707
437.69	12.657
437.89	11.878
438.09	12.697
438.29	11.476
438.49	12.556
438.70	12.333
438.90	12.171
439.10	12.072
439.30	12.053
439.50	11.883
439.71	11.955
439.91	11.966
440.11	12.413
440.31	11.773
440.51	11.916
440.72	11.844
440.92	12.396
441.12	12.158
441.32	12.320
441.52	12.070
441.72	12.447
441.93	13.025
442.13	12.730
442.33	12.548
442.53	12.840
442.73	12.100
442.94	13.027
443.14	12.964
443.34	13.401
443.54	13.001
443.74	12.595
443.94	12.951
444.15	12.621
444.35	12.950
444.55	12.942
444.75	12.697
444.95	13.132
445.15	12.718
445.36	12.374
445.56	12.155
445.76	12.858
445.96	12.414
446.16	12.435
446.36	12.499
446.57	12.182
446.77	12.288
446.97	12.319
447.17	12.528
447.37	12.459
447.57	12.603
447.77	12.562
447.98	12.915
448.18	12.807
448.38	13.038
448.58	13.095
448.78	13.028
448.98	13.066
449.18	13.037
449.39	13.241
449.59	13.738
449.79	13.173
449.99	12.832
450.19	13.851
450.39	13.459
450.59	13.515
450.79	13.261
451.00	13.590
451.20	14.414
451.40	13.169
451.60	13.257
451.80	13.123
452.00	12.642
452.20	13.252
452.40	12.490
452.61	13.538
452.81	12.308
453.01	13.042
453.21	12.993
453.41	13.393
453.61	13.002
453.81	12.949
454.01	13.319
454.21	13.587
454.42	13.040
454.62	12.864
454.82	13.125
455.02	13.084
455.22	12.443
455.42	13.165
455.62	12.940
455.82	13.325
456.02	13.336
456.23	13.103
456.43	12.767
456.63	13.271
456.83	12.400
457.03	13.572
457.23	12.678
457.43	12.716
457.63	12.798
457.83	13.107
458.03	12.403
458.23	12.953
458.43	11.959
458.64	12.590
458.84	12.957
459.04	12.715
459.24	12.705
459.44	12.172
459.64	12.646
459.84	12.580
460.04	12.149
460.24	12.776
460.44	12.861
460.64	13.090
460.84	12.943
461.04	12.440
461.24	13.037
461.45	12.856
461.65	13.166
461.85	13.320
462.05	13.126
462.25	13.720
462.45	13.599
462.65	13.661
462.85	12.692
463.05	13.618
463.25	13.307
463.45	13.213
463.65	13.075
463.85	13.430
464.05	13.380
464.25	13.460
464.45	13.648
464.65	12.485
464.85	12.547
465.05	12.793
465.26	12.872
465.46	13.931
465.66	13.221
465.86	13.237
466.06	13.056
466.26	13.389
466.46	12.787
466.66	13.088
466.86	12.983
467.06	12.988
467.26	13.092
467.46	12.798
467.66	13.150
467.86	13.230
468.06	13.080
468.26	12.938
468.46	13.090
468.66	12.901
468.86	13.054
469.06	13.362
469.26	13.243
469.46	13.235
469.66	13.082
469.86	13.833
470.06	12.904
470.26	13.534
470.46	12.762
470.66	13.449
470.86	12.632
471.06	13.388
471.26	13.063
471.46	12.950
471.66	13.056
471.86	13.111
472.06	13.250
472.26	13.660
472.46	13.105
472.66	13.679
472.86	13.206
473.06	13.069
473.26	13.178
473.46	12.950
473.66	13.246
473.86	13.511
474.06	13.458
474.26	13.381
474.46	13.025
474.66	13.606
474.86	13.557
475.06	13.629
475.26	13.406
475.46	13.594
475.66	13.099
475.86	13.712
476.06	13.678
476.26	13.664
476.46	13.930
476.66	13.627
476.86	13.450
477.06	13.636
477.26	13.133
477.46	13.822
477.65	13.185
477.85	13.402
478.05	13.141
478.25	13.676
478.45	13.158
478.65	13.588
478.85	13.263
479.05	13.335
479.25	13.409
479.45	13.847
479.65	13.371
479.85	13.348
480.05	13.359
480.25	14.480
480.45	13.752
480.65	13.755
480.85	13.180
481.05	14.177
481.25	13.356
481.44	13.552
481.64	13.300
481.84	13.597
482.04	13.191
482.24	13.888
482.44	12.986
482.64	12.968
482.84	13.075
483.04	13.199
483.24	12.754
483.44	12.577
483.64	12.342
483.84	12.387
484.04	12.312
484.23	12.587
484.43	12.998
484.63	14.063
484.83	14.481
485.03	15.205
485.23	15.306
485.43	15.251
485.63	14.969
485.83	14.446
486.03	13.714
486.23	14.140
486.42	14.082
486.62	13.763
486.82	13.641
487.02	13.532
487.22	13.303
487.42	13.208
487.62	13.025
487.82	13.052
488.02	12.960
488.22	13.133
488.41	12.963
488.61	13.327
488.81	13.164
489.01	13.562
489.21	13.733
489.41	13.786
489.61	13.635
489.81	13.898
490.01	13.779
490.20	13.990
490.40	13.942
490.60	13.819
490.80	13.821
491.00	13.622
491.20	13.284
491.40	13.227
491.60	12.639
491.79	12.795
491.99	13.019
492.19	13.035
492.39	13.192
492.59	13.348
492.79	13.498
492.99	13.381
493.19	13.631
493.38	13.785
493.58	14.184
493.78	14.298
493.98	14.263
494.18	14.342
494.38	14.251
494.58	14.181
494.77	13.868
494.97	14.203
495.17	13.775
495.37	14.067
495.57	14.442
495.77	13.888
495.96	13.937
496.16	13.983
496.36	13.760
496.56	13.639
496.76	13.572
496.96	14.127
497.15	14.088
497.35	14.004
497.55	13.673
497.75	13.718
497.95	14.009
498.15	13.873
498.34	13.836
498.54	14.446
498.74	14.369
498.94	14.055
499.14	14.028
499.34	14.177
499.53	14.152
499.73	14.218
499.93	14.104
500.13	14.157
500.33	14.173
500.52	14.133
500.72	14.625
500.92	14.654
501.12	14.175
501.32	14.645
501.52	14.412
501.71	14.934
501.91	14.650
502.11	14.494
502.31	14.446
502.51	14.128
502.70	14.634
502.90	15.013
503.10	14.774
503.30	14.488
503.50	14.861
503.69	14.690
503.89	14.705
504.09	14.698
504.29	14.565
504.48	14.730
504.68	14.332
504.88	14.689
505.08	14.401
505.28	14.159
505.47	14.722
505.67	15.026
505.87	14.809
506.07	14.456
506.27	14.838
506.46	14.885
506.66	14.872
506.86	14.626
507.06	14.824
507.25	15.275
507.45	15.061
507.65	14.807
507.85	14.584
508.04	14.680
508.24	15.142
508.44	15.398
508.64	14.508
508.83	14.814
509.03	14.893
509.23	14.799
509.43	14.795
509.63	14.921
509.82	15.213
510.02	14.697
510.22	15.057
510.42	15.566
510.61	15.078
510.81	15.165
511.01	15.103
511.21	15.388
511.40	14.755
511.60	15.506
511.80	15.081
511.99	15.235
512.19	14.913
512.39	15.345
512.59	15.343
512.78	15.090
512.98	15.491
513.18	15.471
513.38	15.561
513.57	15.144
513.77	15.374
513.97	15.985
514.17	15.364
514.36	15.549
514.56	15.279
514.76	15.628
514.95	15.566
515.15	15.922
515.35	15.949
515.55	15.787
515.74	15.412
515.94	16.254
516.14	15.461
516.33	15.687
516.53	15.744
516.73	15.490
516.93	15.065
517.12	15.787
517.32	15.406
517.52	15.648
517.71	15.303
517.91	15.432
518.11	15.484
518.30	14.894
518.50	15.089
518.70	15.029
518.90	15.312
519.09	15.475
519.29	15.372
519.49	15.570
519.68	15.478
519.88	15.527
520.08	15.682
520.27	15.564
520.47	15.772
520.67	16.043
520.86	16.274
521.06	16.300
521.26	15.969
521.45	15.911
521.65	15.880
521.85	16.232
522.04	15.994
522.24	15.978
522.44	16.242
522.63	15.692
522.83	16.355
523.03	15.772
523.22	15.842
523.42	16.721
523.62	15.788
523.81	16.517
524.01	15.755
524.21	15.957
524.40	16.189
524.60	15.873
524.80	15.814
524.99	16.354
525.19	15.349
525.39	15.411
525.58	15.375
525.78	15.078
525.98	15.690
526.17	15.848
526.37	15.769
526.57	15.738
526.76	15.837
526.96	15.693
527.15	15.455
527.35	15.827
527.55	15.498
527.74	15.753
527.94	15.493
528.14	15.433
528.33	14.590
528.53	14.991
528.72	14.891
528.92	15.295
529.12	15.521
529.31	15.601
529.51	15.803
529.71	15.805
529.90	16.079
530.10	16.259
530.29	16.022
530.49	16.449
530.69	16.240
530.88	16.710
531.08	16.361
531.28	16.456
531.47	16.317
531.67	16.332
531.86	16.077
532.06	16.047
532.26	15.989
532.45	15.898
532.65	15.912
532.84	15.770
533.04	15.722
533.24	15.486
533.43	15.460
533.63	15.771
533.82	15.649
534.02	15.560
534.22	15.740
534.41	15.793
534.61	15.973
534.80	16.115
535.00	16.174
535.19	16.475
535.39	16.593
535.59	16.565
535.78	16.707
535.98	16.425
536.17	16.562
536.37	16.029
536.57	15.951
536.76	16.199
536.96	15.714
537.15	16.135
537.35	16.243
537.54	16.394
537.74	16.099
537.93	16.331
538.13	16.565
538.33	16.474
538.52	16.763
538.72	17.144
538.91	16.790
539.11	16.481
539.30	16.911
539.50	16.980
539.70	16.825
539.89	16.770
540.09	16.583
540.28	16.497
540.48	16.281
540.67	15.866
540.87	15.597
541.06	15.763
541.26	15.391
541.45	15.624
541.65	15.738
541.85	15.691
542.04	15.953
542.24	16.140
542.43	16.185
542.63	16.001
542.82	16.276
543.02	16.500
543.21	16.656
543.41	16.767
543.60	16.813
543.80	16.656
543.99	16.828
544.19	16.525
544.38	16.631
544.58	16.685
544.77	16.628
544.97	16.451
545.16	16.827
545.36	17.285
545.56	16.840
545.75	16.909
545.95	16.868
546.14	16.738
546.34	16.777
546.53	16.564
546.73	16.697
546.92	16.751
547.12	16.535
547.31	16.518
547.51	16.783
547.70	16.949
547.90	16.678
548.09	17.006
548.29	17.035
548.48	17.242
548.68	17.597
548.87	17.422
549.07	17.525
549.26	17.556
549.46	17.774
549.65	18.034
549.84	18.092
550.04	17.600
550.23	17.725
550.43	17.823
550.62	17.928
550.82	17.949
551.01	17.907
551.21	18.230
551.40	17.471
551.60	17.656
551.79	18.191
551.99	17.805
552.18	17.679
552.38	17.917
552.57	17.512
552.77	17.226
552.96	17.291
553.16	17.954
553.35	17.401
553.54	17.663
553.74	17.779
553.93	17.666
554.13	17.893
554.32	17.948
554.52	18.515
554.71	17.846
554.91	18.020
555.10	17.610
555.29	18.317
555.49	18.384
555.68	18.534
555.88	18.020
556.07	17.859
556.27	18.898
556.46	18.787
556.66	17.908
556.85	18.368
557.04	17.651
557.24	18.125
557.43	18.761
557.63	19.031
557.82	18.338
558.02	17.646
558.21	18.786
558.40	18.430
558.60	18.604
558.79	18.325
558.99	19.012
559.18	18.133
559.38	19.036
559.57	19.012
559.76	18.370
559.96	19.649
560.15	18.923
560.35	17.936
560.54	18.382
560.73	18.453
560.93	18.743
561.12	18.943
561.32	18.473
561.51	19.352
561.70	18.666
561.90	18.554
562.09	18.498
562.29	19.344
562.48	19.471
562.67	18.885
562.87	19.059
563.06	19.012
563.26	18.768
563.45	18.786
563.64	19.467
563.84	18.813
564.03	19.117
564.23	19.442
564.42	19.372
564.61	18.572
564.81	19.206
565.00	19.324
565.20	18.982
565.39	19.107
565.58	18.676
565.78	18.342
565.97	18.906
566.16	18.651
566.36	19.337
566.55	18.881
566.74	18.639
566.94	18.489
567.13	19.631
567.33	18.964
567.52	18.439
567.71	18.825
567.91	18.947
568.10	19.532
568.29	19.627
568.49	19.287
568.68	19.827
568.87	19.257
569.07	19.520
569.26	19.710
569.45	19.293
569.65	18.817
569.84	19.126
570.04	19.029
570.23	18.914
570.42	18.701
570.62	19.213
570.81	19.522
571.00	18.954
571.20	18.956
571.39	19.278
571.58	19.321
571.78	19.258
571.97	19.337
572.16	19.070
572.36	18.990
572.55	19.422
572.74	19.253
572.94	19.258
573.13	19.613
573.32	18.843
573.51	19.244
573.71	19.518
573.90	19.120
574.09	19.586
574.29	19.758
574.48	19.650
574.67	19.110
574.87	19.700
575.06	18.798
575.25	19.434
575.45	19.342
575.64	19.988
575.83	19.026
576.03	19.656
576.22	18.656
576.41	19.703
576.60	19.219
576.80	19.447
576.99	19.673
577.18	20.305
577.38	19.849
577.57	19.596
577.76	19.744
577.95	19.909
578.15	19.200
578.34	19.707
578.53	19.990
578.73	20.069
578.92	19.974
579.11	20.182
579.30	20.108
579.50	20.354
579.69	19.828
579.88	19.908
580.08	20.116
580.27	20.823
580.46	20.329
580.65	20.580
580.85	19.999
581.04	19.974
581.23	20.009
581.42	20.605
581.62	20.015
581.81	20.220
582.00	19.396
582.19	20.301
582.39	20.284
582.58	19.782
582.77	20.443
582.96	19.777
583.16	19.843
583.35	20.205
583.54	19.670
583.73	20.815
583.93	19.702
584.12	20.429
584.31	19.834
584.50	20.085
584.70	19.542
584.89	19.715
585.08	20.128
585.27	20.518
585.47	19.721
585.66	20.020
585.85	19.744
586.04	20.189
586.24	20.517
586.43	19.998
586.62	19.869
586.81	19.966
587.00	20.072
587.20	20.283
587.39	19.727
587.58	19.869
587.77	19.595
587.97	19.966
588.16	20.648
588.35	20.512
588.54	19.655
588.73	19.680
588.93	20.026
589.12	20.100
589.31	19.382
589.50	19.729
589.69	19.238
589.89	19.962
590.08	20.148
590.27	20.097
590.46	19.936
590.65	19.758
590.85	19.540
591.04	20.083
591.23	19.402
591.42	19.963
591.61	19.316
591.81	20.044
592.00	19.274
592.19	19.523
592.38	20.681
592.57	21.395
592.77	20.064
592.96	20.162
593.15	20.593
593.34	20.054
593.53	19.922
593.72	20.069
593.92	19.925
594.11	19.974
594.30	19.613
594.49	19.990
594.68	19.801
594.87	20.271
595.07	19.130
595.26	19.829
595.45	19.715
595.64	20.393
595.83	19.976
596.02	19.837
596.22	19.904
596.41	19.994
596.60	19.429
596.79	20.020
596.98	19.503
597.17	19.383
597.37	19.410
597.56	18.981
597.75	19.603
597.94	19.827
598.13	19.405
598.32	20.015
598.51	19.713
598.71	20.078
598.90	20.324
599.09	20.092
599.28	20.042
599.47	19.872
599.66	20.134
599.85	19.731
600.05	19.558
600.24	20.543
600.43	20.763
600.62	20.274
600.81	20.361
601.00	20.285
601.19	21.021
601.38	20.534
601.58	20.986
601.77	20.156
601.96	20.666
602.15	20.641
602.34	20.690
602.53	21.026
602.72	20.764
602.91	20.238
603.10	19.775
603.30	19.641
603.49	19.604
603.68	20.071
603.87	20.314
604.06	19.496
604.25	19.866
604.44	20.082
604.63	19.384
604.82	19.503
605.01	19.590
605.21	20.288
605.40	19.503
605.59	20.159
605.78	19.584
605.97	19.629
606.16	20.074
606.35	19.641
606.54	20.407
606.73	20.887
606.92	20.160
607.11	20.623
607.30	19.742
607.50	20.424
607.69	20.135
607.88	20.890
608.07	20.103
608.26	20.634
608.45	21.209
608.64	20.450
608.83	19.550
609.02	20.571
609.21	20.542
609.40	20.785
609.59	19.525
609.78	19.347
609.97	19.940
610.16	20.393
610.35	19.967
610.55	19.477
610.74	20.203
610.93	19.838
611.12	19.668
611.31	20.332
611.50	19.838
611.69	20.294
611.88	20.081
612.07	20.015
612.26	19.880
612.45	21.012
612.64	20.272
612.83	20.459
613.02	19.958
613.21	19.990
613.40	20.608
613.59	20.682
613.78	20.213
613.97	20.713
614.16	19.803
614.35	21.137
614.54	20.154
614.73	19.368
614.92	19.824
615.11	19.953
615.30	19.988
615.49	19.434
615.68	19.876
615.87	19.497
616.07	19.529
616.26	19.584
616.45	20.020
616.64	21.098
616.83	19.878
617.02	20.435
617.21	20.194
617.40	20.134
617.59	19.853
617.78	20.810
617.97	19.928
618.16	19.585
618.35	19.295
618.54	19.644
618.73	20.149
618.92	20.125
619.11	19.099
619.30	19.598
619.49	18.752
619.68	19.492
619.86	19.341
620.05	19.262
620.24	18.880
620.43	20.180
620.62	19.015
620.81	19.264
621.00	19.096
621.19	20.808
621.38	19.844
621.57	19.913
621.76	19.782
621.95	19.372
622.14	19.526
622.33	20.536
622.52	18.509
622.71	19.813
622.90	19.074
623.09	18.993
623.28	18.259
623.47	19.795
623.66	18.837
623.85	19.316
624.04	19.588
624.23	19.899
624.42	19.540
624.61	19.434
624.80	18.430
624.99	19.140
625.18	19.578
625.36	18.770
625.55	18.411
625.74	18.792
625.93	18.846
626.12	20.146
626.31	19.704
626.50	19.154
626.69	19.223
626.88	19.056
627.07	19.234
627.26	19.378
627.45	19.679
627.64	18.412
627.83	18.690
628.02	17.898
628.20	19.493
628.39	19.274
628.58	18.691
628.77	19.452
628.96	18.705
629.15	19.228
629.34	18.090
629.53	19.227
629.72	19.130
629.91	18.842
630.10	18.950
630.29	18.962
630.47	19.821
630.66	19.490
630.85	18.890
631.04	19.066
631.23	19.707
631.42	18.611
631.61	18.907
631.80	20.130
631.99	19.128
632.18	18.808
632.36	18.545
632.55	19.760
632.74	19.027
632.93	19.042
633.12	18.836
633.31	19.551
633.50	19.466
633.69	18.910
633.88	18.320
634.06	19.080
634.25	19.128
634.44	19.737
634.63	18.961
634.82	19.860
635.01	18.322
635.20	18.724
635.39	18.563
635.57	19.410
635.76	19.808
635.95	18.429
636.14	18.110
636.33	19.846
636.52	19.214
636.71	18.478
636.89	18.700
637.08	18.232
637.27	19.106
637.46	19.231
637.65	18.340
637.84	19.286
638.03	18.748
638.21	19.856
638.40	19.210
638.59	18.859
638.78	18.233
638.97	19.316
639.16	18.686
639.34	19.596
639.53	19.179
639.72	19.087
639.91	18.431
640.10	18.523
640.29	19.290
640.47	20.577
640.66	19.312
640.85	20.027
641.04	18.050
641.23	19.002
641.42	19.277
641.60	19.263
641.79	18.253
641.98	19.678
642.17	18.752
642.36	19.422
642.54	19.812
642.73	18.225
642.92	18.432
643.11	19.338
643.30	18.078
643.49	19.285
643.67	17.930
643.86	18.572
644.05	19.022
644.24	19.372
644.43	18.295
644.61	19.444
644.80	18.272
644.99	19.140
645.18	19.795
645.37	18.581
645.55	19.178
645.74	20.056
645.93	18.835
646.12	20.276
646.31	18.796
646.49	18.843
646.68	19.308
646.87	18.871
647.06	18.301
647.24	19.844
647.43	18.137
647.62	20.215
647.81	18.436
648.00	18.492
648.18	18.519
648.37	18.349
648.56	18.890
648.75	19.354
648.93	18.570
649.12	19.538
649.31	18.805
649.50	18.276
649.68	17.857
649.87	19.319
650.06	18.143
650.25	19.200
650.43	17.763
650.62	18.645
650.81	19.710
651.00	18.264
651.18	18.753
651.37	19.326
651.56	17.643
651.75	18.825
651.93	17.956
652.12	20.100
652.31	18.117
652.50	19.653
652.68	19.296
652.87	20.141
653.06	18.622
653.25	18.333
653.43	18.877
653.62	18.065
653.81	18.657
654.00	19.101
654.18	17.727
654.37	18.321
654.56	19.269
654.74	17.395
654.93	19.329
655.12	18.765
655.31	17.236
655.49	17.347
655.68	16.704
655.87	18.291
656.05	16.148
656.24	17.710
656.43	18.247
656.62	18.189
656.80	18.052
656.99	18.052
657.18	16.648
657.36	17.883
657.55	18.038
657.74	19.380
657.93	17.501
658.11	19.488
658.30	17.530
658.49	17.637
658.67	17.177
658.86	16.528
659.05	17.137
659.23	17.364
659.42	16.955
659.61	18.129
659.79	17.079
659.98	17.549
660.17	16.742
660.35	17.798
660.54	16.612
660.73	17.016
660.91	17.289
661.10	17.435
661.29	16.333
661.47	17.585
661.66	16.013
661.85	17.791
662.03	17.549
662.22	17.410
662.41	15.918
662.59	16.584
662.78	16.627
662.97	17.015
663.15	15.250
663.34	16.870
663.53	15.442
663.71	15.897
663.90	15.778
664.09	16.356
664.27	16.414
664.46	16.242
664.65	15.852
664.83	14.748
665.02	15.093
665.21	14.994
665.39	14.572
665.58	16.143
665.77	15.038
665.95	15.556
666.14	15.258
666.32	15.556
666.51	14.350
666.70	14.926
666.88	14.277
667.07	14.916
667.26	12.800
667.44	15.302
667.63	14.886
667.81	13.106
668.00	14.432
668.19	17.033
668.37	14.275
668.56	15.958
668.75	13.191
668.93	16.496
669.12	12.512
669.30	15.701
669.49	13.936
669.68	15.241
669.86	14.430
670.05	13.163
670.23	14.339
670.42	13.596
670.61	14.822
670.79	16.081
670.98	15.447
671.16	16.819
671.35	13.791
671.54	15.342
671.72	13.194
671.91	14.718
672.09	12.471
672.28	15.103
672.46	14.180
672.65	16.363
672.84	14.051
673.02	14.777
673.21	12.310
673.39	14.451
673.58	13.820
673.77	15.538
673.95	14.248
674.14	15.126
674.32	14.576
674.51	16.825
674.69	14.178
674.88	13.962
675.07	13.821
675.25	15.823
675.44	15.410
675.62	15.974
675.81	14.700
675.99	16.580
676.18	14.769
676.36	14.382
676.55	14.583
676.74	16.442
676.92	15.813
677.11	15.239
677.29	13.871
677.48	16.776
677.66	14.833
677.85	16.350
678.03	15.111
678.22	16.431
678.40	14.880
678.59	15.179
678.78	13.697
678.96	13.992
679.15	15.644
679.33	15.919
679.52	15.315
679.70	16.605
679.89	15.361
680.07	16.672
680.26	15.844
680.44	15.811
680.63	15.292
680.81	16.011
681.00	14.135
681.18	14.518
681.37	15.046
681.55	16.524
681.74	15.783
681.92	16.360
682.11	16.168
682.29	16.072
682.48	16.548
682.66	17.060
682.85	16.384
683.03	17.595
683.22	17.132
683.40	17.002
683.59	16.667
683.77	18.280
683.96	15.362
684.14	18.323
684.33	15.738
684.51	19.753
684.70	18.014
684.88	19.713
685.07	17.719
685.25	18.257
685.44	17.220
685.62	19.238
685.81	16.632
685.99	18.411
686.18	16.453
686.36	19.125
686.55	16.471
686.73	19.378
686.92	17.732
687.10	18.896
687.29	19.695
687.47	19.203
687.65	18.297
687.84	18.683
688.02	19.085
688.21	20.654
688.39	18.908
688.58	19.774
688.76	18.828
688.95	18.433
689.13	18.770
689.32	20.628
689.50	18.563
689.68	19.820
689.87	18.769
690.05	19.021
690.24	19.824
690.42	21.123
690.61	19.028
690.79	21.423
690.98	20.297
691.16	19.462
691.34	19.639
691.53	20.784
691.71	19.774
691.90	21.498
692.08	20.441
692.27	21.194
692.45	20.528
692.63	19.700
692.82	22.161
693.00	21.048
693.19	22.063
693.37	22.153
693.56	21.161
693.74	22.110
693.92	22.689
694.11	24.364
694.29	22.910
694.48	22.572
694.66	22.378
694.84	22.222
695.03	20.705
695.21	24.237
695.40	21.532
695.58	23.823
695.76	23.032
695.95	23.614
696.13	22.618
696.32	25.969
696.50	26.783
696.68	23.501
696.87	21.975
697.05	23.982
697.24	24.497
697.42	25.016
697.60	22.932
697.79	23.430
697.97	23.400
698.16	24.171
698.34	21.319
698.52	23.692
698.71	22.358
698.89	24.271
699.07	22.342
699.26	22.625
699.44	23.250
699.63	23.644
699.81	22.396
699.99	23.711
700.18	23.506
700.36	23.876
700.54	23.096
700.73	23.045
700.91	23.326
701.09	23.847
701.28	23.372
701.46	24.347
701.64	22.826
701.83	24.707
702.01	24.182
702.20	27.447
702.38	24.446
702.56	24.994
702.75	25.950
702.93	24.749
703.11	26.036
703.30	25.980
703.48	25.534
703.66	25.544
703.85	24.431
704.03	25.340
704.21	25.230
704.40	25.738
704.58	24.820
704.76	25.069
704.95	25.125
705.13	27.398
705.31	24.420
705.50	26.967
705.68	26.276
705.86	26.724
706.04	26.793
706.23	26.776
706.41	25.977
706.59	26.172
706.78	25.504
706.96	27.450
707.14	28.702
707.33	27.102
707.51	27.083
707.69	26.026
707.88	25.981
708.06	26.758
708.24	25.286
708.42	29.507
708.61	26.187
708.79	27.874
708.97	26.206
709.16	26.733
709.34	28.409
709.52	27.085
709.71	27.325
709.89	27.710
710.07	26.822
710.25	27.561
710.44	26.612
710.62	27.731
710.80	25.836
710.98	25.111
711.17	26.468
711.35	27.984
711.53	26.646
711.72	28.551
711.90	28.790
712.08	28.406
712.26	25.257
712.45	29.351
712.63	26.238
712.81	26.363
712.99	26.606
713.18	28.163
713.36	25.427
713.54	26.852
713.72	27.579
713.91	27.972
714.09	25.525
714.27	28.101
714.45	27.405
714.64	27.607
714.82	26.695
715.00	27.403
715.18	26.114
715.37	28.445
715.55	27.017
715.73	28.429
715.91	27.651
716.10	27.103
716.28	25.211
716.46	26.763
716.64	25.126
716.83	26.104
717.01	26.114
717.19	28.491
717.37	26.691
717.55	26.281
717.74	25.815
717.92	25.275
718.10	24.153
718.28	26.070
718.47	24.451
718.65	27.806
718.83	26.584
719.01	25.409
719.19	27.221
719.38	25.559
719.56	24.708
719.74	24.467
719.92	24.968
720.10	25.548
720.29	26.674
720.47	28.003
720.65	25.316
720.83	29.204
721.01	25.314
721.20	26.555
721.38	26.734
721.56	28.270
721.74	27.820
721.92	28.588
722.11	27.928
722.29	27.572
722.47	28.043
722.65	27.087
722.83	28.077
723.01	26.992
723.20	25.933
723.38	28.460
723.56	26.308
723.74	29.156
723.92	28.752
724.10	28.507
724.29	25.423
724.47	27.812
724.65	27.045
724.83	27.708
725.01	22.958
725.19	28.512
725.38	26.023
725.56	30.133
725.74	28.671
725.92	28.670
726.10	26.711
726.28	27.015
726.46	26.939
726.65	29.071
726.83	26.278
727.01	25.389
727.19	26.169
727.37	28.185
727.55	27.348
727.73	26.504
727.92	27.835
728.10	26.988
728.28	24.789
728.46	27.390
728.64	27.944
728.82	28.263
729.00	29.638
729.19	28.064
729.37	25.324
729.55	28.035
729.73	25.871
729.91	28.795
730.09	26.800
730.27	28.477
730.45	24.677
730.63	29.123
730.82	27.871
731.00	25.989
731.18	24.521
731.36	29.186
731.54	24.346
731.72	27.465
731.90	28.247
732.08	26.503
732.26	28.766
732.45	28.317
732.63	28.272
732.81	27.183
732.99	27.800
733.17	28.141
733.35	31.274
733.53	30.268
733.71	25.573
733.89	28.329
734.07	31.989
734.25	29.701
734.44	28.426
734.62	29.926
734.80	28.649
734.98	31.119
735.16	28.847
735.34	30.326
735.52	29.827
735.70	30.378
735.88	29.974
736.06	29.446
736.24	33.021
736.42	31.111
736.60	32.677
736.78	29.781
736.97	30.297
737.15	32.416
737.33	29.790
737.51	33.688
737.69	31.823
737.87	31.800
738.05	30.755
738.23	31.256
738.41	31.855
738.59	32.419
738.77	31.186
738.95	33.450
739.13	31.378
739.31	31.796
739.49	30.781
739.67	31.242
739.85	29.887
740.03	34.126
740.21	33.591
740.39	31.921
740.57	33.474
740.75	30.404
740.93	32.638
741.11	31.498
741.30	30.271
741.48	33.454
741.66	32.566
741.84	34.068
742.02	31.371
742.20	34.275
742.38	34.583
742.56	36.331
742.74	31.835
742.92	31.871
743.10	28.553
743.28	35.137
743.46	34.046
743.64	34.437
743.82	34.251
744.00	34.758
744.18	35.908
744.36	32.133
744.54	36.168
744.72	37.068
744.90	36.369
745.08	39.123
745.26	33.361
745.44	34.568
745.62	32.134
745.80	35.937
745.98	37.024
746.16	37.066
746.34	32.956
746.52	33.794
746.70	34.127
746.87	39.269
747.05	35.847
747.23	38.507
747.41	35.313
747.59	36.822
747.77	34.235
747.95	36.224
748.13	32.351
748.31	35.745
748.49	33.973
748.67	34.198
748.85	35.054
749.03	38.083
749.21	36.672
749.39	35.326
749.57	30.728
749.75	33.420
749.93	35.195
750.11	37.173
750.29	34.041
750.47	35.048
750.65	38.187
750.83	33.469
751.01	37.278
751.18	35.823
751.36	34.415
751.54	37.605
751.72	35.227
751.90	32.808
752.08	33.631
752.26	36.216
752.44	31.880
752.62	35.207
752.80	33.305
752.98	34.099
753.16	36.132
753.34	35.573
753.52	35.424
753.69	33.305
753.87	33.603
754.05	35.886
754.23	35.759
754.41	34.492
754.59	33.030
754.77	34.714
754.95	37.011
755.13	35.347
755.31	32.345
755.49	34.424
755.66	36.848
755.84	36.291
756.02	29.383
756.20	36.979
756.38	37.202
756.56	33.157
756.74	36.195
756.92	38.498
757.10	34.514
757.28	37.443
757.45	37.269
757.63	34.949
757.81	31.224
757.99	40.018
758.17	36.576
758.35	34.559
758.53	35.133
758.71	38.200
758.88	34.144
759.06	34.559
759.24	32.723
759.42	33.736
759.60	30.210
759.78	28.246
759.96	26.391
760.13	30.000
760.31	26.535
760.49	26.457
760.67	21.812
760.85	25.917
761.03	22.250
761.21	23.050
761.38	19.194
761.56	24.800
761.74	24.235
761.92	26.905
762.10	20.536
762.28	25.261
762.46	19.815
762.63	24.854
762.81	25.346
762.99	23.128
763.17	26.477
763.35	22.852
763.53	23.128
763.70	25.967
763.88	25.494
764.06	23.249
764.24	22.656
764.42	25.211
764.60	23.644
764.77	23.790
764.95	22.350
765.13	26.885
765.31	23.666
765.49	25.065
765.66	24.898
765.84	25.440
766.02	26.804
766.20	27.797
766.38	29.178
766.56	30.085
766.73	26.550
766.91	31.439
767.09	31.908
767.27	31.289
767.45	30.950
767.62	33.096
767.80	28.912
767.98	30.845
768.16	29.127
768.33	34.526
768.51	35.040
768.69	32.524
768.87	29.978
769.05	34.062
769.22	35.581
769.40	35.615
769.58	34.660
769.76	39.492
769.94	36.027
770.11	35.900
770.29	34.230
770.47	32.082
770.65	40.097
770.82	37.546
771.00	35.771
771.18	36.584
771.36	35.445
771.53	37.296
771.71	37.851
771.89	42.366
772.07	37.519
772.25	39.086
772.42	36.178
772.60	46.170
772.78	37.092
772.96	44.901
773.13	40.056
773.31	37.505
773.49	43.936
773.67	37.401
773.84	42.482
774.02	41.456
774.20	42.173
774.37	39.523
774.55	37.389
774.73	41.120
774.91	39.809
775.08	38.929
775.26	40.294
775.44	42.244
775.62	40.278
775.79	43.184
775.97	36.285
776.15	36.903
776.32	40.923
776.50	43.410
776.68	43.009
776.86	41.238
777.03	43.571
777.21	43.083
777.39	40.969
777.56	35.872
777.74	40.019
777.92	41.943
778.10	37.672
778.27	42.883
778.45	41.779
778.63	43.716
778.80	33.866
778.98	37.395
779.16	39.096
779.34	40.907
779.51	39.473
779.69	41.542
779.87	39.789
780.04	39.842
780.22	40.637
780.40	36.163
780.57	40.000
780.75	39.596
780.93	44.590
781.10	42.691
781.28	46.288
781.46	38.946
781.63	35.817
781.81	45.098
781.99	40.741
782.16	40.502
782.34	37.272
782.52	40.366
782.69	39.259
782.87	35.062
783.05	36.840
783.22	40.393
783.40	41.800
783.58	44.116
783.75	35.444
783.93	42.871
784.11	39.446
784.28	42.369
784.46	40.430
784.64	39.516
784.81	36.510
784.99	42.731
785.17	41.939
785.34	38.430
785.52	42.332
785.69	37.569
785.87	37.435
786.05	44.974
786.22	38.045
786.40	46.377
786.58	44.977
786.75	45.812
786.93	40.319
787.11	37.342
787.28	42.310
787.46	44.296
787.63	43.730
787.81	39.605
787.99	40.010
788.16	39.518
788.34	33.971
788.51	41.678
788.69	40.840
788.87	40.460
789.04	37.617
789.22	32.713
789.39	36.992
789.57	30.711
789.75	35.725
789.92	36.396
790.10	34.755
790.27	37.500
790.45	32.210
790.63	38.360
790.80	33.860
790.98	36.814
791.15	36.718
791.33	37.362
791.51	39.244
791.68	41.124
791.86	38.974
792.03	36.710
792.21	32.364
792.39	38.563
792.56	38.633
792.74	38.978
792.91	43.824
793.09	33.547
793.26	38.141
793.44	42.226
793.62	45.114
793.79	38.554
793.97	38.889
794.14	45.380
794.32	44.574
794.49	36.869
794.67	32.473
794.84	37.725
795.02	39.485
795.20	48.714
795.37	35.003
795.55	42.577
795.72	35.965
795.90	38.950
796.07	43.644
796.25	36.842
796.42	37.910
796.60	32.758
796.77	36.195
796.95	34.848
797.13	36.284
797.30	37.801
797.48	36.556
797.65	38.832
797.83	37.863
798.00	42.938
798.18	37.599
798.35	33.382
798.53	35.371
798.70	33.897
798.88	43.246
799.05	39.748
799.23	37.437
799.40	32.631
799.58	38.126
799.75	41.013
799.93	40.677
800.10	35.467
800.28	38.582
800.45	40.560
800.63	37.810
800.80	39.297
800.98	37.759
801.15	41.543
801.33	36.034
801.50	37.929
801.68	39.562
801.85	31.944
802.03	46.256
802.20	45.062
802.38	41.913
802.55	36.156
802.73	41.978
802.90	32.214
803.08	31.947
803.25	44.841
803.43	44.050
803.60	44.424
803.78	43.942
803.95	39.816
804.13	41.113
804.30	43.308
804.48	39.119
804.65	39.633
804.83	41.131
805.00	30.483
805.17	34.699
805.35	44.167
805.52	43.548
805.70	38.948
805.87	44.660
806.05	38.841
806.22	35.868
806.40	40.577
806.57	33.086
806.75	42.662
806.92	40.809
807.09	36.005
807.27	36.832
807.44	42.953
807.62	36.393
807.79	34.264
807.97	38.374
808.14	40.290
808.31	39.631
808.49	34.854
808.66	39.177
808.84	37.516
809.01	42.669
809.19	41.238
809.36	42.062
809.53	39.667
809.71	35.908
809.88	47.619
810.06	42.177
810.23	41.217
810.41	46.304
810.58	40.051
810.75	35.863
810.93	39.088
811.10	37.240
811.28	46.095
811.45	37.586
811.62	35.489
811.80	41.366
811.97	41.181
812.15	50.218
812.32	39.672
812.49	44.421
812.67	41.141
812.84	31.303
813.02	35.285
813.19	39.004
813.36	49.107
813.54	35.932
813.71	43.541
813.89	47.981
814.06	46.220
814.23	50.331
814.41	40.519
814.58	47.468
814.75	46.377
814.93	36.830
815.10	48.894
815.28	44.792
815.45	39.415
815.62	38.084
815.80	40.997
815.97	35.827
816.14	51.754
816.32	39.454
816.49	33.410
816.66	35.547
816.84	32.337
817.01	40.327
817.18	33.996
817.36	41.919
817.53	40.034
817.71	36.371
817.88	42.297
818.05	35.324
818.23	35.762
818.40	37.879
818.57	35.835
818.75	40.292
818.92	37.378
819.09	31.026
819.27	40.258
819.44	33.981
819.61	37.326
819.79	36.443
819.96	37.245
820.13	28.777
820.31	31.300
820.48	32.808
820.65	28.149
820.82	34.410
821.00	32.849
821.17	25.162
821.34	33.461
821.52	23.113
821.69	25.611
821.86	23.857
822.04	23.503
822.21	21.896
822.38	21.697
822.56	21.026
822.73	21.179
822.90	20.011
823.07	22.664
823.25	20.529
823.42	19.991
823.59	19.254
823.77	21.293
823.94	21.792
824.11	22.655
824.29	20.683
824.46	21.829
824.63	22.440
824.80	21.866
824.98	22.726
825.15	20.637
825.32	21.238
825.49	25.423
825.67	23.037
825.84	26.712
826.01	23.423
826.19	24.705
826.36	20.830
826.53	24.832
826.70	22.623
826.88	28.186
827.05	25.856
827.22	24.750
827.39	22.083
827.57	19.872
827.74	21.082
827.91	24.988
828.08	19.314
828.26	20.009
828.43	18.709
828.60	25.685
828.77	20.973
828.95	23.642
829.12	21.284
829.29	20.342
829.46	25.345
829.64	21.808
829.81	23.603
829.98	28.511
830.15	27.335
830.32	25.585
830.50	27.313
830.67	30.251
830.84	26.752
831.01	27.228
831.19	35.598
831.36	29.180
831.53	37.454
831.70	34.268
831.87	33.399
832.05	38.056
832.22	36.395
832.39	34.513
832.56	40.030
832.74	34.581
832.91	31.221
833.08	38.889
833.25	26.026
833.42	32.585
833.60	29.085
833.77	21.652
833.94	24.271
834.11	19.693
834.28	22.776
834.45	25.874
834.63	22.680
834.80	21.846
834.97	23.350
835.14	24.286
835.31	22.623
835.49	25.176
835.66	25.548
835.83	22.881
836.00	22.682
836.17	24.859
836.34	22.870
836.52	25.820
836.69	30.152
836.86	31.350
837.03	29.522
837.20	34.435
837.37	28.669
837.55	31.920
837.72	34.316
837.89	33.630
838.06	36.515
838.23	33.995
838.40	51.736
838.58	34.635
838.75	48.864
838.92	49.950
839.09	57.002
839.26	54.333
839.43	44.341
839.60	50.108
839.78	60.360
839.95	50.258
840.12	45.562
840.29	45.463
840.46	54.561
840.63	48.359
840.80	43.137
840.98	45.122
841.15	43.316
841.32	36.675
841.49	35.781
841.66	54.670
841.83	42.244
842.00	47.607
842.17	53.583
842.34	36.466
842.52	47.265
842.69	46.005
842.86	40.680
843.03	53.793
843.20	66.531
843.37	44.578
843.54	53.096
843.71	48.194
843.88	57.216
844.06	61.638
844.23	71.186
844.40	67.336
844.57	73.529
844.74	58.429
844.91	50.997
845.08	85.008
845.25	61.478
845.42	82.040
845.59	60.684
845.76	63.388
845.94	78.974
846.11	61.667
846.28	83.173
846.45	95.935
846.62	75.758
846.79	65.303
846.96	77.778
847.13	79.857
847.30	57.292
847.47	96.586
847.64	74.266
847.81	72.846
847.98	86.453
848.15	86.111
848.32	86.081
848.50	111.198
848.67	81.771
848.84	82.123
849.01	97.778
849.18	75.565
849.35	121.290
849.52	78.363
849.69	85.249
849.86	86.735
850.03	82.197
850.20	97.257
850.37	67.636
850.54	87.302
850.71	85.481
850.88	78.476
851.05	100.871
851.22	70.000
851.39	73.638
851.56	72.667
851.73	91.883
851.90	94.343
852.07	84.635
852.24	69.364
852.41	100.487
852.58	100.000
852.75	89.357
852.92	94.103
853.09	91.209
853.26	91.204
853.43	80.510
853.60	90.727
853.77	89.223
853.94	87.742
854.11	91.026
854.28	80.976
854.45	74.534
854.62	99.057
854.79	86.193
854.96	102.500
855.13	81.192
855.30	83.864
855.47	94.103
855.64	69.444
855.81	78.990
855.98	90.520
856.15	91.160
856.32	100.256
856.49	87.696
856.66	122.989
856.83	104.071
857.00	75.649
857.17	114.510
857.34	79.680
857.51	124.484
857.68	87.165
857.85	83.333
858.02	88.160
858.19	97.011
858.36	102.462
858.53	96.575
858.70	85.124
858.87	89.323
859.04	89.892
859.21	68.831
859.38	84.952
859.55	93.706
859.72	93.711
859.89	103.483
860.05	104.008
860.22	85.428
860.39	96.991
860.56	87.270
860.73	94.412
860.90	126.941
861.07	102.206
861.24	77.519
861.41	88.449
861.58	72.560
861.75	107.087
861.92	87.859
862.09	87.626
862.26	142.308
862.43	93.047
862.59	81.884
862.76	113.636
862.93	130.453
863.10	120.606
863.27	78.355
863.44	84.848
863.61	97.945
863.78	124.740
863.95	95.385
864.12	93.148
864.29	82.495
864.45	97.930
864.62	90.857
864.79	92.671
864.96	117.560
865.13	79.845
865.30	120.000
865.47	103.590
865.64	127.063
865.81	73.665
865.97	75.592
866.14	86.979
866.31	73.158
866.48	83.085
866.65	72.222
866.82	112.667
866.99	94.216
867.16	100.000
867.33	67.840
867.49	84.795
867.66	89.234
867.83	93.694
868.00	68.007
868.17	99.462
868.34	109.817
868.51	135.873
868.67	97.821
868.84	126.446
869.01	78.889
869.18	70.625
869.35	86.503
869.52	87.708
869.69	84.615
869.85	79.053
870.02	97.297
870.19	104.965
870.36	101.208
870.53	68.871
870.70	133.333
870.86	109.524
871.03	90.234
871.20	92.079
871.37	96.129
871.54	112.654
871.71	69.961
871.87	82.188
872.04	84.925
872.21	101.541
872.38	94.762
872.55	93.144
872.72	72.947
872.88	99.581
873.05	77.568
873.22	59.325
873.39	81.458
873.56	72.320
873.72	104.762
873.89	85.743
874.06	95.022
874.23	91.139
874.40	129.052
874.56	85.870
874.73	116.384
874.90	78.395
875.07	87.146
875.24	62.963
875.40	104.872
875.57	101.990
875.74	105.556
875.91	98.529
876.08	113.946
876.24	95.455
876.41	82.667
876.58	80.702
876.75	58.398
876.92	83.644
877.08	92.398
877.25	72.889
877.42	84.116
877.59	102.610
877.75	76.471
877.92	98.623
878.09	114.933
878.26	92.051
878.42	94.372
878.59	78.090
878.76	92.045
878.93	69.732
879.09	87.759
879.26	80.886
879.43	80.100
879.60	77.558
879.76	77.663
879.93	78.954
880.10	53.030
880.27	58.865
880.43	56.289
880.60	66.540
880.77	40.707
880.94	57.506
881.10	40.803
881.27	39.420
881.44	38.262
881.61	34.343
881.77	35.396
881.94	26.321
882.11	23.045
882.28	23.055
882.44	20.984
882.61	23.330
882.78	23.449
882.94	25.922
883.11	25.988
883.28	21.659
883.45	20.616
883.61	24.309
883.78	15.954
883.95	24.544
884.11	22.295
884.28	21.552
>>>>>End Processed Spectral Data<<<<<
