SpectraSuite Data File
++++++++++++++++++++++++++++++++++++
Date: Sun Sep 22 02:50:15 EST 2019
User: sgrac
Dark Spectrum Present: Yes
Reference Spectrum Present: Yes
Number of Sampled Component Spectra: 1
Spectrometers: USB4E01596
Integration Time (usec): 100000 (USB4E01596)
Spectra Averaged: 1 (USB4E01596)
Boxcar Smoothing: 0 (USB4E01596)
Correct for Electrical Dark: No (USB4E01596)
Strobe/Lamp Enabled: Yes (USB4E01596)
Correct for Detector Non-linearity: No (USB4E01596)
Correct for Stray Light: No (USB4E01596)
Number of Pixels in Processed Spectrum: 3648
>>>>>Begin Processed Spectral Data<<<<<
178.44	478.571
178.66	478.571
178.87	478.571
179.09	-16.667
179.30	-77.778
179.52	122.581
179.74	4700.000
179.95	511.111
180.17	4600.000
180.38	146.296
180.60	-100.000
180.82	1025.000
181.03	-150.000
181.25	217.391
181.46	-92.857
181.68	-110.000
181.89	197.059
182.11	80.952
182.33	557.143
182.54	72.414
182.76	481.818
182.97	-21.429
183.19	97.436
183.40	-109.524
183.62	48.148
183.84	57.143
184.05	3800.000
184.27	115.000
184.48	74.468
184.70	182.143
184.91	266.667
185.13	-2900.000
185.34	164.286
185.56	-71.429
185.78	143.333
185.99	117.647
186.21	97.826
186.42	1050.000
186.64	25.000
186.85	-100.000
187.07	118.750
187.28	-400.000
187.50	257.143
187.72	163.636
187.93	-87.500
188.15	260.606
188.36	189.189
188.58	81.538
188.79	193.548
189.01	157.692
189.22	-510.000
189.44	93.151
189.65	1250.000
189.87	1040.000
190.09	0.000
190.30	400.000
190.52	-215.385
190.73	326.087
190.95	117.857
191.16	-40.000
191.38	-123.077
191.59	400.000
191.81	94.737
192.02	300.000
192.24	-1750.000
192.45	26.667
192.67	102.083
192.88	90.909
193.10	2100.000
193.31	-364.286
193.53	210.000
193.74	10.256
193.96	108.163
194.18	147.368
194.39	-316.667
194.61	75.000
194.82	85.455
195.04	142.857
195.25	270.000
195.47	-117.647
195.68	-125.000
195.90	81.250
196.11	369.231
196.33	142.593
196.54	187.879
196.76	233.333
196.97	-206.250
197.19	364.286
197.40	275.758
197.62	-27.273
197.83	-262.500
198.05	533.333
198.26	105.970
198.48	60.000
198.69	-159.091
198.91	-800.000
199.12	114.286
199.34	83.333
199.55	178.947
199.77	-73.684
199.98	-138.462
200.20	113.333
200.41	126.316
200.63	153.061
200.84	-700.000
201.06	400.000
201.27	33.333
201.49	-157.143
201.70	0.000
201.91	210.000
202.13	66.667
202.34	114.815
202.56	90.909
202.77	155.172
202.99	-166.667
203.20	-511.111
203.42	77.632
203.63	55.556
203.85	156.604
204.06	146.154
204.28	-6.667
204.49	-1400.000
204.71	89.189
204.92	220.000
205.14	268.182
205.35	90.476
205.56	87.755
205.78	670.000
205.99	8800.000
206.21	229.412
206.42	96.667
206.64	1766.667
206.85	118.750
207.07	83.333
207.28	39.344
207.50	110.714
207.71	216.000
207.93	217.391
208.14	-330.000
208.35	-400.000
208.57	360.000
208.78	123.913
209.00	121.212
209.21	196.970
209.43	163.768
209.64	87.500
209.86	160.606
210.07	161.538
210.28	308.333
210.50	85.000
210.71	119.149
210.93	593.750
211.14	-2100.000
211.36	153.333
211.57	-4100.000
211.78	-1825.000
212.00	73.684
212.21	300.000
212.43	129.787
212.64	18.182
212.86	75.862
213.07	-1000.000
213.29	162.500
213.50	-268.421
213.71	103.279
213.93	670.000
214.14	357.143
214.36	307.692
214.57	186.364
214.78	84.416
215.00	140.000
215.21	105.556
215.43	280.000
215.64	-4200.000
215.86	383.333
216.07	-276.923
216.28	100.000
216.50	-138.462
216.71	540.000
216.93	-35.294
217.14	-52.381
217.35	87.500
217.57	286.667
217.78	311.765
218.00	866.667
218.21	190.566
218.42	466.667
218.64	633.333
218.85	333.333
219.07	-100.000
219.28	-140.741
219.49	18.519
219.71	184.444
219.92	143.590
220.14	134.783
220.35	550.000
220.56	110.526
220.78	56.667
220.99	-883.333
221.21	0.000
221.42	193.103
221.63	90.909
221.85	62.712
222.06	59.184
222.28	168.966
222.49	15.385
222.70	300.000
222.92	144.000
223.13	115.000
223.34	-175.000
223.56	70.130
223.77	89.362
223.99	8.333
224.20	70.732
224.41	54.545
224.63	44.000
224.84	120.690
225.05	122.222
225.27	94.203
225.48	68.000
225.69	54.762
225.91	25.926
226.12	59.155
226.34	41.748
226.55	34.783
226.76	14.035
226.98	39.474
227.19	74.194
227.40	78.125
227.62	29.000
227.83	48.649
228.04	21.649
228.26	23.967
228.47	37.805
228.69	42.604
228.90	23.529
229.11	23.431
229.33	16.807
229.54	21.555
229.75	17.910
229.97	7.207
230.18	3.601
230.39	15.152
230.61	14.330
230.82	26.627
231.03	6.135
231.25	15.679
231.46	20.712
231.67	14.935
231.89	11.481
232.10	0.746
232.31	1.695
232.53	13.248
232.74	26.667
232.95	31.527
233.17	5.859
233.38	3.867
233.59	35.385
233.81	16.000
234.02	29.048
234.23	14.220
234.45	20.856
234.66	12.150
234.87	13.242
235.09	23.618
235.30	18.049
235.51	21.552
235.73	19.615
235.94	0.498
236.15	29.719
236.36	35.688
236.58	11.511
236.79	25.581
237.00	23.675
237.22	25.817
237.43	4.425
237.64	30.531
237.86	7.080
238.07	25.000
238.28	37.327
238.50	20.578
238.71	34.973
238.92	29.268
239.13	12.749
239.35	25.263
239.56	14.706
239.77	25.000
239.99	19.259
240.20	21.802
240.41	7.018
240.63	11.243
240.84	25.893
241.05	16.012
241.26	21.429
241.48	5.288
241.69	9.070
241.90	-2.138
242.12	6.105
242.33	11.775
242.54	8.731
242.75	5.916
242.97	6.612
243.18	10.546
243.39	7.931
243.61	7.958
243.82	4.785
244.03	6.885
244.24	5.251
244.46	7.407
244.67	10.655
244.88	6.495
245.09	5.056
245.31	9.197
245.52	5.108
245.73	6.918
245.95	12.989
246.16	13.240
246.37	12.981
246.58	10.795
246.80	8.482
247.01	8.636
247.22	6.701
247.43	2.516
247.65	3.536
247.86	7.597
248.07	9.169
248.28	3.133
248.50	1.632
248.71	2.262
248.92	1.365
249.13	7.064
249.35	6.213
249.56	4.468
249.77	4.783
249.98	5.263
250.20	2.817
250.41	6.084
250.62	10.722
250.83	4.084
251.05	4.235
251.26	7.725
251.47	8.296
251.68	1.645
251.90	10.951
252.11	7.240
252.32	7.578
252.53	7.636
252.75	4.121
252.96	5.898
253.17	4.337
253.38	9.988
253.59	1.889
253.81	4.370
254.02	8.175
254.23	2.902
254.44	9.320
254.66	5.322
254.87	4.871
255.08	6.699
255.29	15.543
255.50	9.108
255.72	9.252
255.93	6.134
256.14	3.846
256.35	7.828
256.57	16.466
256.78	-4.478
256.99	7.170
257.20	7.298
257.41	5.848
257.63	1.942
257.84	5.759
258.05	13.488
258.26	4.348
258.47	2.899
258.69	5.424
258.90	3.298
259.11	3.747
259.32	4.793
259.53	2.724
259.75	5.180
259.96	2.344
260.17	5.336
260.38	5.411
260.59	4.243
260.81	2.798
261.02	3.616
261.23	3.069
261.44	3.773
261.65	3.126
261.87	1.527
262.08	1.401
262.29	3.840
262.50	1.825
262.71	4.121
262.92	5.675
263.14	3.189
263.35	5.475
263.56	1.992
263.77	6.598
263.98	10.108
264.20	6.704
264.41	7.242
264.62	7.987
264.83	6.586
265.04	8.827
265.25	6.801
265.47	7.787
265.68	1.312
265.89	0.757
266.10	3.556
266.31	9.034
266.52	7.134
266.74	2.138
266.95	6.333
267.16	7.415
267.37	4.167
267.58	3.920
267.79	0.276
268.01	5.525
268.22	6.016
268.43	1.228
268.64	0.626
268.85	5.375
269.06	5.164
269.27	2.682
269.49	3.044
269.70	2.413
269.91	2.739
270.12	2.989
270.33	2.773
270.54	3.455
270.75	6.553
270.97	1.582
271.18	5.685
271.39	1.982
271.60	1.830
271.81	2.002
272.02	6.650
272.23	2.915
272.45	3.612
272.66	4.147
272.87	3.980
273.08	2.354
273.29	2.394
273.50	2.790
273.71	3.578
273.92	-1.175
274.14	4.189
274.35	2.214
274.56	3.844
274.77	5.778
274.98	1.464
275.19	3.097
275.40	3.499
275.61	2.309
275.83	5.037
276.04	4.716
276.25	6.290
276.46	4.016
276.67	5.680
276.88	5.867
277.09	3.728
277.30	3.028
277.51	2.960
277.73	6.672
277.94	3.183
278.15	0.332
278.36	5.546
278.57	1.422
278.78	0.586
278.99	-0.168
279.20	2.508
279.41	6.485
279.62	3.471
279.84	3.701
280.05	4.377
280.26	2.920
280.47	3.434
280.68	9.360
280.89	6.286
281.10	6.275
281.31	4.344
281.52	6.764
281.73	2.027
281.94	-0.625
282.16	1.460
282.37	6.288
282.58	3.404
282.79	3.436
283.00	3.706
283.21	4.435
283.42	2.334
283.63	4.348
283.84	1.790
284.05	3.164
284.26	4.951
284.47	2.758
284.68	4.180
284.89	4.212
285.11	3.272
285.32	5.355
285.53	3.792
285.74	3.712
285.95	2.397
286.16	2.009
286.37	3.513
286.58	3.459
286.79	1.532
287.00	4.464
287.21	1.290
287.42	2.175
287.63	1.642
287.84	2.495
288.05	5.358
288.26	3.337
288.48	4.111
288.69	4.372
288.90	2.359
289.11	6.287
289.32	4.486
289.53	2.567
289.74	2.747
289.95	2.098
290.16	1.010
290.37	5.513
290.58	2.308
290.79	2.720
291.00	-1.185
291.21	2.130
291.42	5.329
291.63	1.830
291.84	3.088
292.05	0.594
292.26	3.686
292.47	2.400
292.68	4.689
292.89	2.838
293.10	3.023
293.31	4.586
293.52	6.982
293.73	2.922
293.94	2.771
294.15	4.874
294.36	5.066
294.57	6.659
294.79	3.144
295.00	2.025
295.21	4.046
295.42	1.672
295.63	1.618
295.84	2.467
296.05	4.053
296.26	3.276
296.47	0.822
296.68	1.972
296.89	2.532
297.10	4.267
297.31	4.699
297.52	3.794
297.73	3.337
297.94	1.981
298.15	2.153
298.36	0.863
298.57	2.446
298.78	3.559
298.99	1.882
299.20	2.762
299.41	1.296
299.62	1.971
299.83	4.703
300.04	1.894
300.25	1.787
300.46	2.786
300.67	2.931
300.88	1.742
301.09	2.667
301.30	3.326
301.50	0.159
301.71	4.508
301.92	5.631
302.13	1.100
302.34	3.470
302.55	2.790
302.76	1.518
302.97	-0.116
303.18	4.713
303.39	2.620
303.60	1.380
303.81	1.558
304.02	0.169
304.23	1.642
304.44	2.580
304.65	3.508
304.86	4.598
305.07	1.906
305.28	2.673
305.49	4.394
305.70	3.485
305.91	3.022
306.12	2.893
306.33	2.382
306.54	3.661
306.75	0.351
306.96	4.444
307.17	1.294
307.38	5.629
307.58	2.647
307.79	2.049
308.00	1.773
308.21	4.583
308.42	2.920
308.63	3.878
308.84	4.902
309.05	4.429
309.26	4.226
309.47	2.330
309.68	3.110
309.89	1.535
310.10	3.499
310.31	2.757
310.52	1.818
310.73	2.941
310.94	2.440
311.14	1.964
311.35	2.659
311.56	3.594
311.77	2.832
311.98	1.170
312.19	2.889
312.40	1.598
312.61	3.494
312.82	1.327
313.03	3.383
313.24	1.980
313.45	3.632
313.66	2.127
313.86	1.808
314.07	4.574
314.28	4.532
314.49	4.476
314.70	3.978
314.91	3.872
315.12	1.593
315.33	2.725
315.54	3.047
315.75	1.666
315.96	0.338
316.16	3.593
316.37	5.505
316.58	2.675
316.79	2.453
317.00	1.870
317.21	3.978
317.42	3.299
317.63	1.936
317.84	0.732
318.05	3.857
318.25	3.721
318.46	3.733
318.67	3.964
318.88	1.374
319.09	2.629
319.30	0.228
319.51	4.076
319.72	3.583
319.93	3.935
320.13	1.494
320.34	3.857
320.55	1.462
320.76	6.598
320.97	2.336
321.18	4.154
321.39	3.546
321.60	0.183
321.80	1.176
322.01	4.200
322.22	4.794
322.43	2.977
322.64	4.054
322.85	2.781
323.06	1.149
323.27	2.278
323.47	2.449
323.68	3.182
323.89	0.968
324.10	6.004
324.31	1.709
324.52	4.006
324.73	4.782
324.93	2.092
325.14	3.707
325.35	3.519
325.56	1.971
325.77	4.845
325.98	2.255
326.19	-0.101
326.39	3.172
326.60	4.372
326.81	0.151
327.02	0.392
327.23	1.938
327.44	3.614
327.64	2.564
327.85	1.772
328.06	2.873
328.27	2.979
328.48	4.196
328.69	3.064
328.90	2.634
329.10	1.990
329.31	-0.317
329.52	2.134
329.73	1.606
329.94	2.597
330.15	1.340
330.35	1.820
330.56	3.864
330.77	-1.237
330.98	3.238
331.19	3.925
331.39	1.816
331.60	5.008
331.81	1.541
332.02	2.524
332.23	2.144
332.44	2.524
332.64	1.442
332.85	3.382
333.06	4.088
333.27	1.393
333.48	2.599
333.68	2.185
333.89	2.089
334.10	1.038
334.31	5.005
334.52	2.832
334.72	3.547
334.93	2.443
335.14	3.145
335.35	3.638
335.56	3.164
335.76	0.711
335.97	3.342
336.18	5.059
336.39	2.599
336.60	2.797
336.80	4.520
337.01	1.394
337.22	3.351
337.43	2.202
337.64	1.882
337.84	1.397
338.05	2.122
338.26	4.384
338.47	3.524
338.68	2.675
338.88	4.130
339.09	1.886
339.30	1.826
339.51	1.630
339.71	1.944
339.92	3.283
340.13	3.742
340.34	3.009
340.55	2.261
340.75	2.545
340.96	2.160
341.17	4.764
341.38	2.399
341.58	3.193
341.79	2.745
342.00	1.120
342.21	2.860
342.41	-0.466
342.62	1.974
342.83	2.642
343.04	1.260
343.24	2.994
343.45	4.344
343.66	4.939
343.87	4.966
344.07	2.318
344.28	2.260
344.49	1.709
344.70	2.140
344.90	2.342
345.11	2.405
345.32	2.219
345.53	1.281
345.73	5.481
345.94	4.501
346.15	2.956
346.36	4.671
346.56	3.802
346.77	3.983
346.98	4.680
347.19	4.123
347.39	1.531
347.60	2.671
347.81	2.562
348.02	3.803
348.22	2.769
348.43	3.287
348.64	1.819
348.84	3.527
349.05	2.789
349.26	5.809
349.47	4.251
349.67	3.477
349.88	4.982
350.09	4.582
350.30	7.440
350.50	4.380
350.71	4.611
350.92	4.945
351.12	4.882
351.33	4.525
351.54	5.671
351.74	5.295
351.95	5.441
352.16	4.684
352.37	7.295
352.57	4.500
352.78	4.623
352.99	6.345
353.19	5.193
353.40	3.968
353.61	8.517
353.82	7.086
354.02	6.277
354.23	6.122
354.44	6.750
354.64	7.076
354.85	7.120
355.06	6.019
355.26	4.195
355.47	7.425
355.68	7.797
355.88	10.034
356.09	10.137
356.30	6.150
356.51	8.993
356.71	8.968
356.92	5.286
357.13	10.752
357.33	11.763
357.54	9.530
357.75	5.646
357.95	11.857
358.16	7.959
358.37	15.254
358.57	7.778
358.78	13.060
358.99	8.930
359.19	9.572
359.40	10.251
359.61	9.854
359.81	12.512
360.02	14.272
360.23	7.934
360.43	9.660
360.64	8.505
360.85	10.198
361.05	7.855
361.26	14.451
361.47	11.383
361.67	15.941
361.88	9.397
362.09	14.384
362.29	10.389
362.50	11.863
362.70	8.239
362.91	15.866
363.12	11.272
363.32	12.401
363.53	13.078
363.74	15.210
363.94	8.070
364.15	16.896
364.36	13.219
364.56	11.441
364.77	13.883
364.98	16.490
365.18	10.927
365.39	14.481
365.59	8.595
365.80	11.199
366.01	13.054
366.21	10.936
366.42	10.576
366.63	15.034
366.83	10.891
367.04	8.336
367.24	12.854
367.45	10.771
367.66	7.960
367.86	11.587
368.07	11.128
368.28	11.881
368.48	10.440
368.69	9.418
368.89	9.851
369.10	10.558
369.31	9.113
369.51	11.414
369.72	11.825
369.92	13.965
370.13	9.410
370.34	12.973
370.54	2.989
370.75	10.642
370.95	7.955
371.16	11.565
371.37	9.088
371.57	11.293
371.78	8.754
371.98	12.338
372.19	10.322
372.40	13.495
372.60	10.486
372.81	11.726
373.01	8.293
373.22	10.202
373.43	11.552
373.63	12.147
373.84	8.673
374.04	12.069
374.25	11.384
374.46	12.249
374.66	10.365
374.87	12.587
375.07	7.267
375.28	8.959
375.48	10.253
375.69	12.592
375.90	6.285
376.10	7.441
376.31	7.714
376.51	8.343
376.72	8.952
376.92	8.067
377.13	11.408
377.34	13.354
377.54	10.087
377.75	11.889
377.95	9.370
378.16	12.448
378.36	11.511
378.57	12.787
378.77	10.922
378.98	13.100
379.19	9.556
379.39	9.766
379.60	9.005
379.80	10.813
380.01	11.680
380.21	8.232
380.42	11.100
380.62	10.135
380.83	11.011
381.04	9.421
381.24	11.017
381.45	11.428
381.65	8.068
381.86	11.517
382.06	9.865
382.27	6.487
382.47	7.895
382.68	11.400
382.88	6.717
383.09	7.380
383.29	6.973
383.50	11.980
383.71	9.272
383.91	10.336
384.12	8.268
384.32	11.617
384.53	8.044
384.73	6.267
384.94	7.047
385.14	8.550
385.35	8.684
385.55	9.380
385.76	7.593
385.96	9.446
386.17	9.905
386.37	10.300
386.58	7.801
386.78	11.030
386.99	6.732
387.19	9.978
387.40	7.713
387.60	13.201
387.81	7.272
388.01	9.546
388.22	8.780
388.42	11.563
388.63	10.795
388.83	12.495
389.04	5.267
389.24	8.797
389.45	6.706
389.65	8.124
389.86	7.153
390.06	7.618
390.27	6.140
390.47	8.944
390.68	7.334
390.88	10.192
391.09	9.496
391.29	11.080
391.50	7.373
391.70	10.400
391.91	7.653
392.11	9.345
392.32	10.047
392.52	11.496
392.73	9.327
392.93	10.074
393.14	8.309
393.34	9.291
393.55	8.962
393.75	10.385
393.95	9.183
394.16	10.590
394.36	10.151
394.57	10.980
394.77	8.885
394.98	8.222
395.18	10.191
395.39	9.420
395.59	9.566
395.80	8.509
396.00	8.189
396.21	10.271
396.41	6.940
396.61	10.432
396.82	9.105
397.02	10.755
397.23	10.533
397.43	8.693
397.64	5.354
397.84	11.049
398.05	5.130
398.25	10.237
398.45	6.531
398.66	10.415
398.86	7.665
399.07	11.558
399.27	6.567
399.48	10.176
399.68	7.524
399.89	7.781
400.09	8.878
400.29	8.078
400.50	7.684
400.70	9.649
400.91	6.625
401.11	7.562
401.32	7.549
401.52	6.577
401.72	7.611
401.93	10.766
402.13	6.966
402.34	7.712
402.54	6.898
402.75	11.232
402.95	4.937
403.15	11.590
403.36	8.201
403.56	8.879
403.77	6.798
403.97	8.926
404.17	8.135
404.38	9.341
404.58	6.071
404.79	8.682
404.99	8.779
405.19	8.145
405.40	7.912
405.60	9.452
405.81	6.969
406.01	9.292
406.21	6.455
406.42	9.035
406.62	7.779
406.83	8.788
407.03	9.541
407.23	6.405
407.44	7.694
407.64	8.845
407.85	6.892
408.05	7.778
408.25	6.386
408.46	9.503
408.66	8.003
408.87	7.286
409.07	6.636
409.27	6.732
409.48	5.858
409.68	8.112
409.88	5.770
410.09	8.221
410.29	7.847
410.50	9.420
410.70	5.423
410.90	8.383
411.11	6.218
411.31	6.597
411.51	8.256
411.72	9.566
411.92	6.596
412.12	6.480
412.33	6.465
412.53	6.843
412.74	4.061
412.94	5.887
413.14	6.190
413.35	6.785
413.55	5.643
413.75	8.556
413.96	6.078
414.16	6.657
414.36	7.484
414.57	7.440
414.77	5.231
414.97	7.870
415.18	5.450
415.38	6.187
415.58	6.898
415.79	6.359
415.99	6.339
416.19	7.462
416.40	7.362
416.60	6.398
416.80	6.702
417.01	7.949
417.21	5.268
417.41	10.144
417.62	7.472
417.82	7.979
418.02	5.957
418.23	9.217
418.43	7.288
418.63	8.407
418.84	8.372
419.04	8.405
419.24	10.271
419.45	10.550
419.65	10.135
419.85	10.584
420.06	9.183
420.26	10.848
420.46	10.131
420.67	10.865
420.87	9.828
421.07	11.107
421.28	9.853
421.48	11.512
421.68	10.208
421.88	11.549
422.09	10.375
422.29	10.928
422.49	10.402
422.70	11.585
422.90	10.230
423.10	10.668
423.31	10.468
423.51	11.013
423.71	9.786
423.91	11.153
424.12	10.230
424.32	11.062
424.52	10.348
424.73	10.846
424.93	10.488
425.13	10.889
425.33	10.116
425.54	11.032
425.74	10.338
425.94	11.248
426.15	10.903
426.35	10.120
426.55	10.349
426.75	10.267
426.96	9.263
427.16	9.667
427.36	9.500
427.57	9.278
427.77	8.194
427.97	9.619
428.17	9.477
428.38	9.561
428.58	6.436
428.78	8.703
428.98	6.618
429.19	8.100
429.39	6.156
429.59	8.004
429.79	5.529
430.00	7.027
430.20	5.809
430.40	8.245
430.60	6.654
430.81	8.002
431.01	6.878
431.21	9.108
431.41	6.227
431.62	8.032
431.82	6.154
432.02	9.715
432.22	6.772
432.43	7.590
432.63	5.540
432.83	8.171
433.03	7.507
433.24	7.952
433.44	6.853
433.64	8.963
433.84	8.392
434.05	9.129
434.25	8.482
434.45	10.648
434.65	9.363
434.85	10.392
435.06	9.179
435.26	9.817
435.46	8.790
435.66	9.660
435.87	7.665
436.07	8.622
436.27	7.925
436.47	7.967
436.67	6.354
436.88	8.412
437.08	8.465
437.28	8.360
437.48	7.265
437.69	9.006
437.89	8.041
438.09	9.726
438.29	7.479
438.49	9.385
438.70	9.020
438.90	8.793
439.10	8.697
439.30	8.946
439.50	7.872
439.71	9.646
439.91	8.685
440.11	10.181
440.31	9.475
440.51	9.447
440.72	8.852
440.92	9.964
441.12	9.228
441.32	10.742
441.52	9.884
441.72	10.396
441.93	10.077
442.13	10.602
442.33	8.986
442.53	10.481
442.73	8.320
442.94	10.354
443.14	9.058
443.34	10.931
443.54	9.506
443.74	10.030
443.94	8.605
444.15	9.006
444.35	7.932
444.55	10.041
444.75	8.444
444.95	9.722
445.15	9.551
445.36	9.317
445.56	7.817
445.76	10.201
445.96	9.475
446.16	9.997
446.36	9.125
446.57	10.608
446.77	9.484
446.97	10.140
447.17	10.843
447.37	10.848
447.57	10.257
447.77	10.377
447.98	10.069
448.18	10.740
448.38	9.947
448.58	10.548
448.78	9.571
448.98	10.391
449.18	9.535
449.39	10.176
449.59	8.952
449.79	9.941
449.99	8.601
450.19	9.791
450.39	9.803
450.59	9.845
450.79	8.020
451.00	10.377
451.20	8.373
451.40	8.637
451.60	7.624
451.80	9.686
452.00	7.316
452.20	8.769
452.40	7.942
452.61	8.832
452.81	8.562
453.01	9.320
453.21	9.032
453.41	9.778
453.61	8.362
453.81	9.216
454.01	8.587
454.21	9.111
454.42	8.410
454.62	9.080
454.82	8.036
455.02	8.345
455.22	6.993
455.42	7.759
455.62	7.163
455.82	8.656
456.02	6.670
456.23	9.038
456.43	7.799
456.63	8.924
456.83	6.480
457.03	8.966
457.23	6.823
457.43	8.075
457.63	6.999
457.83	8.800
458.03	6.757
458.23	8.757
458.43	6.552
458.64	8.596
458.84	7.852
459.04	8.680
459.24	8.849
459.44	9.400
459.64	8.831
459.84	10.171
460.04	9.054
460.24	9.916
460.44	9.823
460.64	10.974
460.84	9.582
461.04	10.212
461.24	10.334
461.45	10.536
461.65	9.999
461.85	10.594
462.05	9.557
462.25	10.120
462.45	9.766
462.65	9.758
462.85	7.311
463.05	8.801
463.25	6.858
463.45	9.245
463.65	7.808
463.85	8.980
464.05	7.851
464.25	8.059
464.45	8.278
464.65	8.528
464.85	6.501
465.05	8.204
465.26	8.387
465.46	9.191
465.66	8.372
465.86	8.399
466.06	7.555
466.26	9.001
466.46	6.624
466.66	8.247
466.86	7.316
467.06	8.744
467.26	7.730
467.46	8.938
467.66	8.227
467.86	8.908
468.06	7.876
468.26	8.584
468.46	8.201
468.66	8.670
468.86	6.161
469.06	9.613
469.26	6.965
469.46	8.395
469.66	7.049
469.86	9.049
470.06	7.960
470.26	9.038
470.46	6.645
470.66	9.592
470.86	7.357
471.06	8.353
471.26	6.759
471.46	8.052
471.66	7.091
471.86	8.071
472.06	8.036
472.26	9.383
472.46	8.843
472.66	8.594
472.86	7.276
473.06	8.881
473.26	7.538
473.46	8.498
473.66	8.188
473.86	9.680
474.06	7.773
474.26	9.216
474.46	7.607
474.66	9.232
474.86	8.134
475.06	9.529
475.26	6.483
475.46	9.046
475.66	7.371
475.86	9.231
476.06	8.965
476.26	9.852
476.46	8.146
476.66	9.426
476.86	7.930
477.06	8.814
477.26	7.331
477.46	9.338
477.65	7.997
477.85	10.354
478.05	7.172
478.25	10.952
478.45	8.324
478.65	9.770
478.85	8.593
479.05	10.856
479.25	9.315
479.45	10.368
479.65	9.386
479.85	10.114
480.05	8.371
480.25	10.322
480.45	10.205
480.65	10.474
480.85	9.118
481.05	11.081
481.25	10.195
481.44	10.475
481.64	8.900
481.84	11.080
482.04	10.309
482.24	11.258
482.44	9.847
482.64	10.964
482.84	10.798
483.04	10.638
483.24	11.395
483.44	11.267
483.64	11.231
483.84	11.124
484.04	11.549
484.23	11.221
484.43	11.698
484.63	12.716
484.83	12.829
485.03	13.468
485.23	13.336
485.43	13.235
485.63	13.162
485.83	12.218
486.03	11.484
486.23	11.779
486.42	11.864
486.62	11.712
486.82	11.610
487.02	11.535
487.22	11.632
487.42	11.735
487.62	11.627
487.82	11.462
488.02	11.805
488.22	11.557
488.41	11.803
488.61	11.719
488.81	11.638
489.01	11.850
489.21	11.594
489.41	11.831
489.61	11.978
489.81	12.081
490.01	11.743
490.20	11.970
490.40	11.811
490.60	11.644
490.80	11.887
491.00	11.983
491.20	11.157
491.40	11.854
491.60	11.420
491.79	11.484
491.99	11.580
492.19	11.913
492.39	11.793
492.59	12.131
492.79	11.793
492.99	11.916
493.19	11.801
493.38	12.340
493.58	12.267
493.78	12.057
493.98	12.306
494.18	12.169
494.38	11.755
494.58	11.684
494.77	11.549
494.97	12.437
495.17	11.514
495.37	11.978
495.57	11.587
495.77	12.274
495.96	10.993
496.16	11.846
496.36	11.304
496.56	11.956
496.76	10.774
496.96	12.113
497.15	11.914
497.35	12.463
497.55	12.050
497.75	12.140
497.95	11.965
498.15	12.228
498.34	11.316
498.54	12.703
498.74	12.306
498.94	12.344
499.14	11.187
499.34	12.470
499.53	12.122
499.73	12.775
499.93	11.812
500.13	12.070
500.33	11.603
500.52	12.751
500.72	12.062
500.92	12.260
501.12	11.553
501.32	12.439
501.52	11.856
501.71	12.023
501.91	11.109
502.11	11.704
502.31	11.062
502.51	12.248
502.70	11.160
502.90	12.060
503.10	11.226
503.30	12.287
503.50	11.380
503.69	12.579
503.89	11.861
504.09	12.186
504.29	11.280
504.48	12.593
504.68	11.979
504.88	12.852
505.08	10.673
505.28	12.525
505.47	11.754
505.67	12.698
505.87	11.214
506.07	12.233
506.27	12.308
506.46	12.107
506.66	11.582
506.86	12.243
507.06	12.232
507.25	12.828
507.45	11.905
507.65	12.628
507.85	11.494
508.04	12.675
508.24	12.345
508.44	13.121
508.64	12.190
508.83	12.517
509.03	12.212
509.23	12.812
509.43	11.950
509.63	13.405
509.82	12.451
510.02	12.645
510.22	12.334
510.42	13.411
510.61	12.905
510.81	13.673
511.01	13.100
511.21	12.976
511.40	12.476
511.60	13.235
511.80	12.795
511.99	13.519
512.19	12.712
512.39	13.813
512.59	13.425
512.78	13.612
512.98	13.507
513.18	13.405
513.38	12.909
513.57	13.344
513.77	13.225
513.97	14.032
514.17	12.679
514.36	13.814
514.56	13.660
514.76	13.585
514.95	12.903
515.15	12.925
515.35	12.674
515.55	13.616
515.74	13.054
515.94	14.652
516.14	12.687
516.33	13.013
516.53	13.394
516.73	13.385
516.93	12.976
517.12	14.525
517.32	12.846
517.52	13.745
517.71	13.508
517.91	13.779
518.11	13.684
518.30	14.202
518.50	13.780
518.70	13.663
518.90	13.794
519.09	14.064
519.29	14.572
519.49	13.973
519.68	13.827
519.88	14.409
520.08	13.979
520.27	14.343
520.47	14.223
520.67	14.161
520.86	14.125
521.06	14.457
521.26	13.971
521.45	13.774
521.65	14.263
521.85	14.242
522.04	13.584
522.24	14.281
522.44	13.827
522.63	14.408
522.83	14.242
523.03	14.181
523.22	14.055
523.42	14.537
523.62	13.859
523.81	14.684
524.01	14.062
524.21	14.289
524.40	14.185
524.60	14.354
524.80	13.926
524.99	14.180
525.19	13.402
525.39	14.562
525.58	14.086
525.78	14.362
525.98	13.908
526.17	14.669
526.37	14.411
526.57	14.355
526.76	14.778
526.96	14.346
527.15	14.535
527.35	14.110
527.55	14.086
527.74	14.309
527.94	14.310
528.14	14.314
528.33	14.284
528.53	14.476
528.72	14.462
528.92	14.519
529.12	14.819
529.31	14.967
529.51	14.542
529.71	15.070
529.90	15.051
530.10	15.169
530.29	14.894
530.49	14.697
530.69	14.915
530.88	14.786
531.08	14.815
531.28	14.707
531.47	14.899
531.67	14.906
531.86	14.606
532.06	14.544
532.26	14.781
532.45	14.794
532.65	14.554
532.84	15.203
533.04	14.821
533.24	14.708
533.43	14.730
533.63	14.698
533.82	14.689
534.02	14.500
534.22	14.777
534.41	15.129
534.61	15.129
534.80	14.911
535.00	14.834
535.19	15.221
535.39	14.789
535.59	15.237
535.78	14.895
535.98	14.747
536.17	14.853
536.37	15.243
536.57	14.956
536.76	15.040
536.96	14.960
537.15	15.147
537.35	15.005
537.54	15.334
537.74	15.205
537.93	14.833
538.13	15.109
538.33	15.115
538.52	15.120
538.72	14.833
538.91	15.230
539.11	15.467
539.30	15.173
539.50	15.075
539.70	15.192
539.89	15.526
540.09	15.032
540.28	15.230
540.48	14.433
540.67	15.001
540.87	14.717
541.06	15.053
541.26	14.900
541.45	14.931
541.65	15.420
541.85	15.251
542.04	15.693
542.24	15.108
542.43	15.389
542.63	15.575
542.82	15.527
543.02	15.496
543.21	15.409
543.41	15.380
543.60	16.153
543.80	15.792
543.99	15.666
544.19	15.261
544.38	15.202
544.58	15.524
544.77	15.524
544.97	15.633
545.16	14.938
545.36	16.205
545.56	15.353
545.75	15.427
545.95	15.246
546.14	15.457
546.34	15.988
546.53	16.038
546.73	15.807
546.92	15.836
547.12	15.229
547.31	16.116
547.51	15.874
547.70	15.994
547.90	15.866
548.09	15.344
548.29	15.854
548.48	16.162
548.68	15.630
548.87	15.883
549.07	15.243
549.26	15.817
549.46	16.094
549.65	15.928
549.84	15.600
550.04	16.076
550.23	15.637
550.43	15.711
550.62	15.691
550.82	15.606
551.01	14.538
551.21	16.224
551.40	14.740
551.60	16.073
551.79	14.642
551.99	16.559
552.18	14.987
552.38	15.847
552.57	15.478
552.77	16.111
552.96	15.721
553.16	16.296
553.35	15.581
553.54	16.556
553.74	16.078
553.93	15.657
554.13	16.492
554.32	17.021
554.52	16.035
554.71	16.741
554.91	16.005
555.10	16.421
555.29	14.963
555.49	17.062
555.68	14.776
555.88	16.539
556.07	14.931
556.27	16.673
556.46	16.042
556.66	16.648
556.85	15.497
557.04	16.902
557.24	15.175
557.43	17.431
557.63	17.076
557.82	16.161
558.02	15.214
558.21	16.690
558.40	15.376
558.60	16.592
558.79	16.253
558.99	16.722
559.18	15.986
559.38	17.128
559.57	15.649
559.76	16.864
559.96	16.678
560.15	17.340
560.35	15.614
560.54	16.561
560.73	15.329
560.93	17.186
561.12	16.426
561.32	16.923
561.51	17.593
561.70	17.483
561.90	17.378
562.09	16.791
562.29	16.593
562.48	17.638
562.67	17.434
562.87	17.540
563.06	16.577
563.26	17.879
563.45	16.673
563.64	18.093
563.84	16.609
564.03	18.268
564.23	16.783
564.42	17.834
564.61	17.323
564.81	18.318
565.00	17.942
565.20	18.508
565.39	17.285
565.58	17.896
565.78	17.474
565.97	18.052
566.16	18.237
566.36	19.088
566.55	18.420
566.74	17.924
566.94	17.698
567.13	19.128
567.33	17.983
567.52	18.600
567.71	18.777
567.91	18.702
568.10	18.986
568.29	18.974
568.49	18.598
568.68	18.653
568.87	17.986
569.07	19.110
569.26	18.333
569.45	19.088
569.65	18.285
569.84	19.078
570.04	18.341
570.23	18.338
570.42	17.520
570.62	18.833
570.81	19.074
571.00	18.491
571.20	18.861
571.39	19.555
571.58	19.298
571.78	19.805
571.97	19.862
572.16	18.811
572.36	18.977
572.55	19.285
572.74	18.879
572.94	19.406
573.13	19.308
573.32	18.738
573.51	19.428
573.71	19.753
573.90	18.892
574.09	19.866
574.29	19.112
574.48	20.095
574.67	19.165
574.87	19.604
575.06	18.806
575.25	19.620
575.45	18.997
575.64	19.148
575.83	18.712
576.03	19.638
576.22	19.163
576.41	20.015
576.60	18.633
576.80	19.564
576.99	19.175
577.18	19.205
577.38	18.904
577.57	19.276
577.76	18.796
577.95	18.829
578.15	17.976
578.34	19.481
578.53	17.976
578.73	19.158
578.92	17.189
579.11	18.842
579.30	18.303
579.50	18.406
579.69	17.844
579.88	19.088
580.08	17.029
580.27	19.301
580.46	18.593
580.65	19.379
580.85	16.364
581.04	18.074
581.23	17.031
581.42	18.325
581.62	18.052
581.81	18.577
582.00	17.160
582.19	17.858
582.39	17.969
582.58	17.391
582.77	17.961
582.96	17.417
583.16	16.892
583.35	19.646
583.54	17.544
583.73	18.739
583.93	17.237
584.12	17.914
584.31	15.898
584.50	18.455
584.70	16.755
584.89	18.118
585.08	17.241
585.27	18.663
585.47	15.448
585.66	17.567
585.85	15.761
586.04	17.792
586.24	16.623
586.43	17.634
586.62	15.131
586.81	17.916
587.00	15.271
587.20	17.753
587.39	15.178
587.58	17.784
587.77	16.119
587.97	16.998
588.16	15.566
588.35	18.537
588.54	16.174
588.73	17.782
588.93	17.189
589.12	17.811
589.31	16.662
589.50	17.052
589.69	17.915
589.89	17.765
590.08	16.941
590.27	18.211
590.46	16.897
590.65	17.100
590.85	16.409
591.04	19.018
591.23	16.694
591.42	18.014
591.61	16.743
591.81	17.617
592.00	16.190
592.19	17.915
592.38	16.330
592.57	17.558
592.77	16.471
592.96	17.542
593.15	18.194
593.34	17.450
593.53	16.899
593.72	18.109
593.92	17.104
594.11	18.346
594.30	15.591
594.49	18.117
594.68	17.919
594.87	18.446
595.07	15.802
595.26	18.428
595.45	15.900
595.64	18.060
595.83	16.471
596.02	18.465
596.22	16.664
596.41	18.613
596.60	17.600
596.79	18.549
596.98	17.817
597.17	18.567
597.37	17.970
597.56	18.952
597.75	17.771
597.94	18.737
598.13	18.428
598.32	18.714
598.51	16.897
598.71	18.995
598.90	18.449
599.09	18.696
599.28	16.863
599.47	17.858
599.66	17.322
599.85	17.860
600.05	15.767
600.24	18.407
600.43	16.737
600.62	18.046
600.81	17.806
601.00	18.107
601.19	16.060
601.38	17.638
601.58	15.894
601.77	16.777
601.96	16.592
602.15	17.932
602.34	18.956
602.53	18.791
602.72	16.076
602.91	18.755
603.10	16.981
603.30	18.108
603.49	17.080
603.68	18.626
603.87	16.336
604.06	18.737
604.25	18.334
604.44	19.035
604.63	18.391
604.82	18.833
605.01	18.417
605.21	19.539
605.40	18.297
605.59	19.357
605.78	18.879
605.97	20.242
606.16	18.607
606.35	19.172
606.54	18.150
606.73	19.252
606.92	16.714
607.11	19.009
607.30	17.150
607.50	18.268
607.69	17.542
607.88	18.449
608.07	17.705
608.26	18.065
608.45	17.191
608.64	18.049
608.83	16.174
609.02	18.715
609.21	18.271
609.40	18.299
609.59	17.325
609.78	18.090
609.97	17.342
610.16	19.035
610.35	18.099
610.55	18.390
610.74	17.901
610.93	18.342
611.12	17.611
611.31	18.618
611.50	16.430
611.69	17.711
611.88	16.718
612.07	17.520
612.26	16.527
612.45	17.829
612.64	16.516
612.83	17.678
613.02	14.941
613.21	15.486
613.40	15.387
613.59	17.160
613.78	13.609
613.97	17.504
614.16	14.533
614.35	17.194
614.54	13.370
614.73	16.048
614.92	14.093
615.11	15.307
615.30	12.370
615.49	13.797
615.68	13.121
615.87	14.849
616.07	14.559
616.26	13.642
616.45	15.061
616.64	15.333
616.83	14.675
617.02	15.802
617.21	12.622
617.40	13.355
617.59	15.186
617.78	16.003
617.97	13.024
618.16	13.094
618.35	11.473
618.54	14.095
618.73	13.104
618.92	15.697
619.11	12.480
619.30	14.628
619.49	10.357
619.68	14.674
619.86	12.803
620.05	14.319
620.24	12.388
620.43	14.107
620.62	9.695
620.81	14.223
621.00	14.498
621.19	15.960
621.38	13.185
621.57	15.383
621.76	13.000
621.95	14.886
622.14	12.437
622.33	16.243
622.52	10.288
622.71	13.297
622.90	12.287
623.09	15.042
623.28	12.727
623.47	14.686
623.66	12.058
623.85	13.058
624.04	12.594
624.23	13.963
624.42	12.422
624.61	12.635
624.80	11.033
624.99	14.697
625.18	10.878
625.36	13.584
625.55	13.360
625.74	13.763
625.93	11.242
626.12	16.194
626.31	14.302
626.50	15.660
626.69	13.811
626.88	16.479
627.07	15.269
627.26	15.075
627.45	14.473
627.64	15.081
627.83	14.338
628.02	15.029
628.20	14.376
628.39	16.385
628.58	14.455
628.77	15.004
628.96	12.351
629.15	14.782
629.34	13.779
629.53	14.177
629.72	11.641
629.91	16.640
630.10	13.294
630.29	15.367
630.47	12.240
630.66	12.893
630.85	14.756
631.04	13.283
631.23	13.872
631.42	14.047
631.61	12.216
631.80	15.804
631.99	12.435
632.18	13.483
632.36	12.032
632.55	14.454
632.74	12.176
632.93	12.203
633.12	11.178
633.31	12.659
633.50	12.886
633.69	13.023
633.88	11.240
634.06	13.628
634.25	11.799
634.44	12.221
634.63	13.530
634.82	15.514
635.01	12.392
635.20	14.912
635.39	10.991
635.57	13.798
635.76	12.242
635.95	13.529
636.14	10.662
636.33	14.642
636.52	12.138
636.71	12.609
636.89	11.828
637.08	12.573
637.27	11.294
637.46	12.532
637.65	10.188
637.84	11.929
638.03	9.333
638.21	13.198
638.40	10.988
638.59	11.302
638.78	9.830
638.97	12.537
639.16	12.231
639.34	12.704
639.53	8.864
639.72	13.061
639.91	8.483
640.10	8.886
640.29	10.585
640.47	14.386
640.66	11.098
640.85	13.227
641.04	7.058
641.23	10.960
641.42	10.288
641.60	9.253
641.79	10.217
641.98	9.471
642.17	10.784
642.36	13.212
642.54	8.707
642.73	9.973
642.92	7.633
643.11	9.350
643.30	8.774
643.49	10.473
643.67	6.216
643.86	10.440
644.05	8.115
644.24	11.423
644.43	9.204
644.61	11.265
644.80	10.092
644.99	10.606
645.18	11.778
645.37	11.747
645.55	8.351
645.74	11.021
645.93	9.886
646.12	11.855
646.31	10.454
646.49	9.589
646.68	11.085
646.87	9.568
647.06	7.877
647.24	12.204
647.43	7.538
647.62	12.201
647.81	6.742
648.00	11.001
648.18	6.790
648.37	9.302
648.56	10.455
648.75	10.055
648.93	8.716
649.12	9.502
649.31	10.181
649.50	9.373
649.68	8.831
649.87	10.116
650.06	7.029
650.25	10.274
650.43	7.077
650.62	8.839
650.81	8.884
651.00	8.420
651.18	8.712
651.37	13.235
651.56	8.579
651.75	11.637
651.93	8.272
652.12	11.321
652.31	8.780
652.50	8.983
652.68	12.777
652.87	9.964
653.06	11.078
653.25	11.097
653.43	10.163
653.62	10.321
653.81	9.320
654.00	10.815
654.18	8.135
654.37	11.778
654.56	8.297
654.74	7.815
654.93	9.079
655.12	6.825
655.31	7.993
655.49	8.669
655.68	6.403
655.87	6.849
656.05	4.025
656.24	9.193
656.43	6.255
656.62	9.248
656.80	8.592
656.99	6.966
657.18	5.552
657.36	7.799
657.55	8.653
657.74	8.225
657.93	8.914
658.11	11.010
658.30	8.716
658.49	6.569
658.67	6.920
658.86	7.303
659.05	7.188
659.23	10.133
659.42	8.013
659.61	11.539
659.79	8.576
659.98	9.153
660.17	10.248
660.35	11.258
660.54	10.437
660.73	12.105
660.91	10.209
661.10	10.728
661.29	6.364
661.47	8.793
661.66	8.387
661.85	9.420
662.03	8.692
662.22	6.369
662.41	5.191
662.59	7.763
662.78	5.989
662.97	7.032
663.15	4.600
663.34	4.783
663.53	4.758
663.71	5.572
663.90	5.808
664.09	7.456
664.27	5.445
664.46	6.879
664.65	5.446
664.83	4.418
665.02	4.969
665.21	3.479
665.39	3.698
665.58	5.751
665.77	5.108
665.95	4.217
666.14	3.999
666.32	4.035
666.51	5.074
666.70	3.954
666.88	4.696
667.07	4.484
667.26	3.324
667.44	3.772
667.63	3.955
667.81	2.136
668.00	4.779
668.19	5.568
668.37	5.183
668.56	5.594
668.75	2.005
668.93	5.980
669.12	3.438
669.30	5.433
669.49	4.112
669.68	5.734
669.86	4.606
670.05	3.913
670.23	2.764
670.42	3.643
670.61	4.985
670.79	5.091
670.98	4.235
671.16	7.191
671.35	3.249
671.54	4.938
671.72	4.047
671.91	5.547
672.09	3.273
672.28	5.821
672.46	6.370
672.65	5.966
672.84	4.307
673.02	5.322
673.21	2.554
673.39	4.597
673.58	3.356
673.77	5.359
673.95	4.574
674.14	5.331
674.32	2.278
674.51	6.089
674.69	4.760
674.88	3.645
675.07	3.464
675.25	6.304
675.44	5.757
675.62	4.501
675.81	4.073
675.99	7.921
676.18	3.186
676.36	4.026
676.55	4.474
676.74	7.061
676.92	4.974
677.11	5.152
677.29	4.421
677.48	4.853
677.66	5.448
677.85	5.352
678.03	5.484
678.22	6.102
678.40	5.122
678.59	3.440
678.78	4.602
678.96	2.939
679.15	5.236
679.33	5.146
679.52	6.800
679.70	6.906
679.89	5.443
680.07	6.709
680.26	5.964
680.44	5.879
680.63	5.709
680.81	6.044
681.00	5.064
681.18	3.832
681.37	5.216
681.55	7.777
681.74	6.639
681.92	7.650
682.11	7.092
682.29	6.525
682.48	7.333
682.66	7.952
682.85	6.020
683.03	7.558
683.22	7.057
683.40	8.664
683.59	6.974
683.77	7.714
683.96	4.009
684.14	9.006
684.33	4.310
684.51	10.710
684.70	6.565
684.88	9.856
685.07	6.248
685.25	6.971
685.44	5.991
685.62	7.679
685.81	5.366
685.99	6.471
686.18	4.448
686.36	6.180
686.55	4.835
686.73	5.929
686.92	7.714
687.10	8.810
687.29	8.647
687.47	10.087
687.65	9.498
687.84	6.898
688.02	10.058
688.21	10.981
688.39	7.183
688.58	9.986
688.76	6.865
688.95	6.436
689.13	6.221
689.32	9.868
689.50	8.383
689.68	10.843
689.87	7.148
690.05	9.534
690.24	9.344
690.42	9.716
690.61	7.905
690.79	9.939
690.98	9.609
691.16	8.659
691.34	7.675
691.53	10.022
691.71	7.585
691.90	8.783
692.08	5.962
692.27	11.324
692.45	11.833
692.63	6.593
692.82	8.063
693.00	9.026
693.19	6.885
693.37	9.084
693.56	7.997
693.74	9.765
693.92	8.108
694.11	10.771
694.29	9.801
694.48	9.313
694.66	7.294
694.84	10.492
695.03	7.577
695.21	11.814
695.40	11.406
695.58	13.574
695.76	10.105
695.95	11.317
696.13	9.869
696.32	11.382
696.50	17.956
696.68	8.446
696.87	7.316
697.05	12.734
697.24	10.020
697.42	11.433
697.60	10.627
697.79	13.600
697.97	13.115
698.16	16.129
698.34	8.906
698.52	16.528
698.71	12.733
698.89	16.044
699.07	14.829
699.26	16.631
699.44	17.077
699.63	18.108
699.81	13.558
699.99	19.608
700.18	18.671
700.36	16.624
700.54	13.820
700.73	13.760
700.91	13.182
701.09	14.649
701.28	15.571
701.46	14.485
701.64	12.068
701.83	13.670
702.01	10.112
702.20	18.185
702.38	14.324
702.56	13.658
702.75	10.176
702.93	9.740
703.11	12.348
703.30	12.851
703.48	12.544
703.66	12.302
703.85	9.986
704.03	14.223
704.21	11.173
704.40	11.441
704.58	9.631
704.76	9.985
704.95	8.289
705.13	12.712
705.31	8.353
705.50	13.427
705.68	8.764
705.86	13.091
706.04	11.078
706.23	10.406
706.41	8.621
706.59	10.621
706.78	8.979
706.96	10.990
707.14	11.242
707.33	11.490
707.51	12.067
707.69	10.865
707.88	8.929
708.06	12.615
708.24	10.256
708.42	13.662
708.61	12.216
708.79	14.559
708.97	12.476
709.16	13.738
709.34	9.739
709.52	11.542
709.71	11.970
709.89	14.813
710.07	9.402
710.25	12.623
710.44	11.464
710.62	12.880
710.80	13.252
710.98	12.218
711.17	11.726
711.35	14.823
711.53	10.053
711.72	16.455
711.90	16.357
712.08	13.667
712.26	10.529
712.45	15.755
712.63	12.227
712.81	15.561
712.99	11.874
713.18	17.047
713.36	10.388
713.54	11.962
713.72	11.645
713.91	10.276
714.09	9.425
714.27	13.126
714.45	13.771
714.64	17.770
714.82	10.771
715.00	15.165
715.18	10.480
715.37	15.578
715.55	9.654
715.73	14.132
715.91	13.489
716.10	15.016
716.28	8.065
716.46	14.996
716.64	14.585
716.83	12.549
717.01	12.533
717.19	14.253
717.37	9.829
717.55	14.893
717.74	12.824
717.92	13.782
718.10	11.411
718.28	12.083
718.47	11.785
718.65	15.528
718.83	13.630
719.01	14.315
719.19	12.225
719.38	7.684
719.56	8.315
719.74	10.274
719.92	5.860
720.10	8.504
720.29	10.835
720.47	10.565
720.65	9.587
720.83	13.106
721.01	5.719
721.20	7.237
721.38	10.284
721.56	9.403
721.74	11.447
721.92	11.610
722.11	8.202
722.29	12.371
722.47	9.314
722.65	8.905
722.83	11.369
723.01	6.646
723.20	9.396
723.38	8.748
723.56	9.430
723.74	12.657
723.92	9.827
724.10	12.172
724.29	7.013
724.47	11.693
724.65	9.269
724.83	13.527
725.01	7.475
725.19	14.332
725.38	9.844
725.56	9.855
725.74	12.333
725.92	11.405
726.10	6.683
726.28	9.607
726.46	10.678
726.65	12.723
726.83	9.814
727.01	9.459
727.19	14.150
727.37	11.657
727.55	10.219
727.73	9.086
727.92	10.295
728.10	10.321
728.28	6.467
728.46	12.171
728.64	9.487
728.82	12.146
729.00	10.968
729.19	15.184
729.37	9.402
729.55	12.381
729.73	6.659
729.91	14.444
730.09	13.104
730.27	12.818
730.45	10.607
730.63	12.865
730.82	9.612
731.00	7.249
731.18	10.598
731.36	12.326
731.54	6.143
731.72	9.767
731.90	10.229
732.08	8.630
732.26	7.755
732.45	10.312
732.63	11.524
732.81	11.817
732.99	7.875
733.17	12.140
733.35	8.696
733.53	12.698
733.71	7.439
733.89	9.122
734.07	12.436
734.25	15.653
734.44	8.947
734.62	9.640
734.80	7.461
734.98	14.521
735.16	11.435
735.34	11.201
735.52	11.364
735.70	11.273
735.88	12.195
736.06	11.026
736.24	13.070
736.42	13.718
736.60	11.314
736.78	9.343
736.97	10.673
737.15	13.824
737.33	6.213
737.51	9.936
737.69	11.462
737.87	11.080
738.05	8.739
738.23	9.920
738.41	11.962
738.59	11.945
738.77	7.946
738.95	14.506
739.13	8.936
739.31	11.041
739.49	7.314
739.67	15.047
739.85	9.580
740.03	14.416
740.21	13.062
740.39	13.315
740.57	11.769
740.75	6.733
740.93	9.137
741.11	10.656
741.30	8.191
741.48	11.833
741.66	8.544
741.84	11.462
742.02	8.793
742.20	11.812
742.38	11.563
742.56	14.450
742.74	9.596
742.92	8.853
743.10	6.712
743.28	9.660
743.46	6.101
743.64	8.805
743.82	9.520
744.00	10.081
744.18	12.790
744.36	9.040
744.54	8.918
744.72	14.606
744.90	11.424
745.08	14.840
745.26	6.401
745.44	13.460
745.62	7.113
745.80	8.247
745.98	14.148
746.16	14.436
746.34	10.444
746.52	6.267
746.70	9.877
746.87	10.162
747.05	9.156
747.23	11.329
747.41	9.083
747.59	9.147
747.77	8.551
747.95	10.701
748.13	8.214
748.31	11.160
748.49	7.383
748.67	7.692
748.85	9.361
749.03	16.539
749.21	10.434
749.39	12.212
749.57	6.306
749.75	9.351
749.93	9.773
750.11	9.162
750.29	11.520
750.47	9.612
750.65	12.632
750.83	11.401
751.01	10.417
751.18	11.160
751.36	7.404
751.54	6.580
751.72	13.706
751.90	8.224
752.08	8.029
752.26	10.541
752.44	8.799
752.62	9.899
752.80	9.418
752.98	9.277
753.16	11.839
753.34	10.573
753.52	7.990
753.69	12.162
753.87	7.554
754.05	10.270
754.23	8.545
754.41	9.746
754.59	2.548
754.77	13.090
754.95	8.534
755.13	8.231
755.31	9.661
755.49	10.065
755.66	9.273
755.84	8.410
756.02	4.102
756.20	12.686
756.38	6.964
756.56	8.730
756.74	7.075
756.92	12.378
757.10	5.450
757.28	13.146
757.45	18.068
757.63	7.665
757.81	6.600
757.99	10.750
758.17	5.000
758.35	11.646
758.53	10.216
758.71	14.325
758.88	6.216
759.06	10.158
759.24	8.370
759.42	10.276
759.60	8.056
759.78	8.193
759.96	8.887
760.13	12.500
760.31	8.950
760.49	11.433
760.67	5.337
760.85	7.791
761.03	7.511
761.21	3.968
761.38	3.710
761.56	8.353
761.74	6.683
761.92	11.635
762.10	2.736
762.28	5.272
762.46	5.038
762.63	7.576
762.81	8.614
762.99	5.103
763.17	8.826
763.35	7.861
763.53	4.658
763.70	8.814
763.88	10.690
764.06	10.310
764.24	7.632
764.42	14.557
764.60	8.860
764.77	7.106
764.95	10.094
765.13	12.546
765.31	8.472
765.49	12.237
765.66	6.724
765.84	9.108
766.02	8.119
766.20	5.288
766.38	10.724
766.56	10.256
766.73	7.413
766.91	9.274
767.09	8.009
767.27	10.322
767.45	7.481
767.62	6.667
767.80	9.113
767.98	6.531
768.16	2.959
768.33	12.165
768.51	8.592
768.69	9.337
768.87	3.643
769.05	6.859
769.22	9.538
769.40	11.310
769.58	8.458
769.76	10.752
769.94	8.374
770.11	9.791
770.29	8.997
770.47	9.549
770.65	10.248
770.82	10.989
771.00	13.594
771.18	8.520
771.36	5.995
771.53	9.778
771.71	11.959
771.89	12.470
772.07	5.760
772.25	11.771
772.42	5.889
772.60	11.040
772.78	10.137
772.96	14.027
773.13	12.245
773.31	7.532
773.49	8.911
773.67	6.600
773.84	12.530
774.02	10.859
774.20	8.021
774.37	8.738
774.55	10.646
774.73	10.131
774.91	7.953
775.08	10.584
775.26	13.208
775.44	9.280
775.62	8.838
775.79	11.097
775.97	2.734
776.15	9.103
776.32	7.057
776.50	11.032
776.68	13.889
776.86	12.780
777.03	9.347
777.21	12.385
777.39	6.675
777.56	3.949
777.74	6.638
777.92	14.834
778.10	8.119
778.27	12.551
778.45	10.782
778.63	5.216
778.80	8.123
778.98	10.199
779.16	10.323
779.34	13.061
779.51	11.673
779.69	8.435
779.87	6.319
780.04	12.413
780.22	4.494
780.40	7.560
780.57	10.571
780.75	6.056
780.93	11.645
781.10	10.196
781.28	10.762
781.46	6.352
781.63	8.883
781.81	17.934
781.99	6.006
782.16	-0.157
782.34	9.306
782.52	8.237
782.69	8.593
782.87	4.920
783.05	8.069
783.22	8.775
783.40	10.595
783.58	10.783
783.75	11.782
783.93	8.197
784.11	9.248
784.28	12.048
784.46	11.345
784.64	6.129
784.81	3.750
784.99	13.084
785.17	12.753
785.34	9.174
785.52	8.626
785.69	5.381
785.87	6.239
786.05	17.316
786.22	12.932
786.40	13.205
786.58	18.702
786.75	12.821
786.93	6.886
787.11	6.962
787.28	12.373
787.46	13.333
787.63	11.442
787.81	6.519
787.99	6.480
788.16	9.550
788.34	10.735
788.51	12.308
788.69	10.765
788.87	9.608
789.04	10.977
789.22	8.378
789.39	12.851
789.57	9.264
789.75	4.783
789.92	11.185
790.10	6.460
790.27	14.691
790.45	7.725
790.63	4.100
790.80	5.029
790.98	5.441
791.15	13.681
791.33	4.892
791.51	6.390
791.68	16.568
791.86	5.945
792.03	9.325
792.21	9.884
792.39	6.815
792.56	13.672
792.74	9.032
792.91	14.552
793.09	11.859
793.26	7.692
793.44	10.638
793.62	13.903
793.79	8.735
793.97	8.660
794.14	9.298
794.32	11.519
794.49	6.439
794.67	3.442
794.84	8.615
795.02	15.604
795.20	15.107
795.37	8.408
795.55	6.759
795.72	12.829
795.90	10.764
796.07	12.111
796.25	8.882
796.42	11.343
796.60	2.198
796.77	5.723
796.95	5.966
797.13	5.410
797.30	17.084
797.48	7.765
797.65	10.162
797.83	2.363
798.00	10.940
798.18	11.374
798.35	4.234
798.53	0.170
798.70	7.231
798.88	9.739
799.05	8.717
799.23	12.462
799.40	6.807
799.58	9.370
799.75	16.528
799.93	14.458
800.10	12.945
800.28	7.538
800.45	10.588
800.63	10.841
800.80	10.245
800.98	8.403
801.15	10.744
801.33	8.103
801.50	7.309
801.68	15.571
801.85	7.118
802.03	10.507
802.20	8.333
802.38	16.522
802.55	9.283
802.73	17.229
802.90	9.011
803.08	6.872
803.25	8.255
803.43	10.467
803.60	9.689
803.78	15.075
803.95	14.114
804.13	13.969
804.30	13.826
804.48	13.396
804.65	12.008
804.83	3.314
805.00	7.155
805.17	6.762
805.35	18.654
805.52	17.742
805.70	11.348
805.87	8.803
806.05	10.261
806.22	7.985
806.40	0.000
806.57	2.041
806.75	2.799
806.92	8.824
807.09	12.544
807.27	7.634
807.44	13.603
807.62	13.767
807.79	6.108
807.97	12.854
808.14	6.957
808.31	10.115
808.49	7.341
808.66	9.481
808.84	2.510
809.01	10.651
809.19	15.020
809.36	20.206
809.53	5.566
809.71	1.980
809.88	12.059
810.06	21.521
810.23	8.091
810.41	14.565
810.58	16.507
810.75	15.564
810.93	5.605
811.10	20.605
811.28	20.381
811.45	6.173
811.62	2.309
811.80	9.685
811.97	6.726
812.15	10.262
812.32	8.120
812.49	17.364
812.67	12.424
812.84	2.311
813.02	6.098
813.19	18.715
813.36	13.170
813.54	7.350
813.71	18.421
813.89	21.766
814.06	17.927
814.23	17.660
814.41	15.111
814.58	12.236
814.75	19.082
814.93	8.259
815.10	19.194
815.28	19.952
815.45	5.213
815.62	10.633
815.80	17.857
815.97	7.980
816.14	11.722
816.32	6.203
816.49	10.624
816.66	16.992
816.84	19.124
817.01	9.152
817.18	2.649
817.36	19.048
817.53	11.082
817.71	10.047
817.88	10.294
818.05	13.053
818.23	6.181
818.40	10.744
818.57	13.245
818.75	12.317
818.92	18.201
819.09	2.387
819.27	5.797
819.44	2.376
819.61	4.563
819.79	14.739
819.96	14.711
820.13	3.558
820.31	9.427
820.48	11.033
820.65	6.689
820.82	8.615
821.00	8.140
821.17	5.679
821.34	12.548
821.52	7.665
821.69	5.739
821.86	7.654
822.04	3.898
822.21	6.767
822.38	9.521
822.56	8.520
822.73	11.450
822.90	9.755
823.07	15.150
823.25	12.190
823.42	10.219
823.59	10.559
823.77	14.649
823.94	12.409
824.11	14.462
824.29	10.833
824.46	11.735
824.63	12.294
824.80	8.162
824.98	10.211
825.15	8.431
825.32	5.802
825.49	10.638
825.67	6.464
825.84	10.396
826.01	7.980
826.19	7.006
826.36	3.911
826.53	12.953
826.70	5.537
826.88	11.520
827.05	7.888
827.22	7.425
827.39	4.945
827.57	5.627
827.74	7.094
827.91	9.928
828.08	7.941
828.26	6.326
828.43	4.366
828.60	8.853
828.77	6.785
828.95	11.050
829.12	6.222
829.29	5.293
829.46	9.310
829.64	3.629
829.81	4.747
829.98	13.622
830.15	15.031
830.32	4.479
830.50	5.312
830.67	5.643
830.84	8.186
831.01	8.863
831.19	12.021
831.36	9.385
831.53	5.904
831.70	10.280
831.87	2.559
832.05	12.917
832.22	12.526
832.39	-2.358
832.56	14.063
832.74	7.489
832.91	5.149
833.08	11.111
833.25	2.692
833.42	13.126
833.60	4.412
833.77	0.302
833.94	5.464
834.11	5.691
834.28	5.492
834.45	5.711
834.63	4.900
834.80	5.744
834.97	6.502
835.14	5.306
835.31	10.906
835.49	7.823
835.66	8.174
835.83	10.169
836.00	5.917
836.17	9.379
836.34	4.400
836.52	7.104
836.69	8.223
836.86	6.374
837.03	11.433
837.20	9.587
837.37	3.584
837.55	3.276
837.72	10.216
837.89	4.009
838.06	9.761
838.23	6.452
838.40	10.156
838.58	11.458
838.75	11.932
838.92	9.851
839.09	17.160
839.26	9.667
839.43	9.034
839.60	3.226
839.78	19.459
839.95	23.969
840.12	19.822
840.29	9.444
840.46	18.947
840.63	22.280
840.80	10.997
840.98	13.171
841.15	27.919
841.32	11.082
841.49	13.924
841.66	16.209
841.83	19.059
842.00	16.302
842.17	7.165
842.34	5.744
842.52	9.598
842.69	8.219
842.86	4.605
843.03	9.310
843.20	11.837
843.37	8.735
843.54	-4.743
843.71	20.124
843.88	36.398
844.06	21.121
844.23	30.085
844.40	22.088
844.57	42.279
844.74	21.839
844.91	12.393
845.08	10.526
845.25	17.453
845.42	23.276
845.59	39.316
845.76	28.689
845.94	17.949
846.11	7.500
846.28	16.827
846.45	14.634
846.62	13.636
846.79	25.000
846.96	26.263
847.13	37.433
847.30	-1.042
847.47	50.602
847.64	9.326
847.81	13.659
847.98	27.807
848.15	34.615
848.32	34.615
848.50	42.187
848.67	43.750
848.84	24.581
849.01	18.519
849.18	17.373
849.35	28.387
849.52	4.678
849.69	36.782
849.86	33.163
850.03	6.250
850.20	37.975
850.37	2.326
850.54	-21.429
850.71	21.472
850.88	26.857
851.05	21.569
851.22	14.118
851.39	0.000
851.56	29.333
851.73	20.725
851.90	43.030
852.07	26.563
852.24	20.809
852.41	35.036
852.58	44.134
852.75	18.072
852.92	3.077
853.09	46.154
853.26	61.806
853.43	28.962
853.60	18.045
853.77	10.526
853.94	16.129
854.11	41.758
854.28	20.202
854.45	29.814
854.62	-9.434
854.79	45.562
854.96	53.125
855.13	17.877
855.30	25.478
855.47	21.538
855.64	-4.167
855.81	13.333
855.98	11.009
856.15	8.287
856.32	39.231
856.49	21.477
856.66	6.034
856.83	29.008
857.00	39.521
857.17	30.588
857.34	-1.370
857.51	41.593
857.68	28.736
857.85	34.946
858.02	40.437
858.19	-4.138
858.36	31.818
858.53	30.822
858.70	-14.050
858.87	-4.687
859.04	18.065
859.21	25.974
859.38	13.143
859.55	46.154
859.72	52.201
859.89	27.612
860.05	31.013
860.22	27.869
860.39	24.306
860.56	26.131
860.73	36.994
860.90	35.616
861.07	11.029
861.24	-0.775
861.41	38.119
861.58	19.890
861.75	-1.575
861.92	30.464
862.09	3.030
862.26	-44.872
862.43	39.264
862.59	21.196
862.76	25.455
862.93	64.815
863.10	-10.000
863.27	23.377
863.44	6.061
863.61	26.712
863.78	18.750
863.95	51.282
864.12	26.111
864.29	2.235
864.45	27.329
864.62	31.429
864.79	41.135
864.96	28.571
865.13	18.605
865.30	26.667
865.47	19.231
865.64	56.436
865.81	37.017
865.97	18.033
866.14	48.958
866.31	29.474
866.48	21.642
866.65	-1.449
866.82	5.000
866.99	40.639
867.16	-8.403
867.33	11.268
867.49	45.614
867.66	20.497
867.83	13.514
868.00	31.658
868.17	8.871
868.34	44.521
868.51	43.810
868.67	40.523
868.84	38.017
869.01	18.333
869.18	18.750
869.35	36.810
869.52	45.625
869.69	41.420
869.85	15.847
870.02	0.901
870.19	34.752
870.36	15.942
870.53	-3.306
870.70	24.167
870.86	42.857
871.03	18.471
871.20	50.495
871.37	6.452
871.54	17.593
871.71	30.814
871.87	-2.290
872.04	37.186
872.21	34.104
872.38	33.571
872.55	40.426
872.72	23.671
872.88	37.107
873.05	16.981
873.22	4.167
873.39	28.125
873.56	2.924
873.72	15.966
873.89	42.771
874.06	22.727
874.23	12.658
874.40	44.954
874.56	40.761
874.73	5.085
874.90	12.963
875.07	25.490
875.24	29.240
875.40	51.538
875.57	17.164
875.74	58.333
875.91	13.235
876.08	18.367
876.24	25.455
876.41	52.500
876.58	14.620
876.75	4.651
876.92	26.708
877.08	48.538
877.25	22.000
877.42	46.980
877.59	39.157
877.75	47.059
877.92	20.661
878.09	16.000
878.26	-0.769
878.42	31.818
878.59	33.708
878.76	31.250
878.93	17.816
879.09	38.418
879.26	20.280
879.43	27.363
879.60	50.000
879.76	6.701
879.93	47.451
880.10	14.141
880.27	12.766
880.43	2.358
880.60	29.545
880.77	3.226
880.94	23.841
881.10	17.057
881.27	7.826
881.44	9.023
881.61	8.009
881.77	13.174
881.94	5.663
882.11	2.160
882.28	6.506
882.44	5.052
882.61	11.593
882.78	10.606
882.94	9.436
883.11	12.994
883.28	6.341
883.45	10.423
883.61	4.496
883.78	6.110
883.95	7.039
884.11	8.882
884.28	3.257
>>>>>End Processed Spectral Data<<<<<
