SpectraSuite Data File
++++++++++++++++++++++++++++++++++++
Date: Sun Sep 22 02:58:05 EST 2019
User: sgrac
Dark Spectrum Present: Yes
Reference Spectrum Present: Yes
Number of Sampled Component Spectra: 1
Spectrometers: USB4E01596
Integration Time (usec): 100000 (USB4E01596)
Spectra Averaged: 1 (USB4E01596)
Boxcar Smoothing: 0 (USB4E01596)
Correct for Electrical Dark: No (USB4E01596)
Strobe/Lamp Enabled: Yes (USB4E01596)
Correct for Detector Non-linearity: No (USB4E01596)
Correct for Stray Light: No (USB4E01596)
Number of Pixels in Processed Spectrum: 3648
>>>>>Begin Processed Spectral Data<<<<<
178.44	314.286
178.66	314.286
178.87	314.286
179.09	-16.667
179.30	-355.556
179.52	130.645
179.74	5500.000
179.95	844.444
180.17	4900.000
180.38	233.333
180.60	-643.750
180.82	2750.000
181.03	-46.667
181.25	221.739
181.46	-125.000
181.68	-140.000
181.89	297.059
182.11	185.714
182.33	900.000
182.54	79.310
182.76	481.818
182.97	-0.000
183.19	246.154
183.40	-319.048
183.62	111.111
183.84	302.857
184.05	4300.000
184.27	137.500
184.48	121.277
184.70	260.714
184.91	446.667
185.13	-4650.000
185.34	421.429
185.56	-157.143
185.78	156.667
185.99	182.353
186.21	130.435
186.42	1800.000
186.64	61.842
186.85	-200.000
187.07	253.125
187.28	-850.000
187.50	785.714
187.72	445.455
187.93	-331.250
188.15	248.485
188.36	178.378
188.58	113.846
188.79	229.032
189.01	226.923
189.22	-670.000
189.44	82.192
189.65	1700.000
189.87	1420.000
190.09	0.000
190.30	525.000
190.52	-253.846
190.73	434.783
190.95	332.143
191.16	410.000
191.38	-584.615
191.59	5300.000
191.81	161.404
192.02	640.000
192.24	-4150.000
192.45	-373.333
192.67	197.917
192.88	125.758
193.10	3400.000
193.31	-328.571
193.53	910.000
193.74	120.513
193.96	102.041
194.18	126.316
194.39	-1183.333
194.61	525.000
194.82	181.818
195.04	714.286
195.25	800.000
195.47	-423.529
195.68	-160.714
195.90	121.875
196.11	476.923
196.33	205.556
196.54	239.394
196.76	1283.333
196.97	-381.250
197.19	428.571
197.40	196.970
197.62	224.242
197.83	-262.500
198.05	1433.333
198.26	122.388
198.48	440.000
198.69	-290.909
198.91	-2066.667
199.12	160.000
199.34	75.926
199.55	336.842
199.77	-321.053
199.98	-361.538
200.20	137.778
200.41	231.579
200.63	185.714
200.84	-662.500
201.06	960.000
201.27	216.667
201.49	-585.714
201.70	0.000
201.91	310.000
202.13	177.083
202.34	270.370
202.56	818.182
202.77	151.724
202.99	-550.000
203.20	-566.667
203.42	111.842
203.63	252.778
203.85	171.698
204.06	153.846
204.28	260.000
204.49	-7400.000
204.71	272.973
204.92	380.000
205.14	154.545
205.35	447.619
205.56	140.816
205.78	670.000
205.99	6200.000
206.21	623.529
206.42	170.000
206.64	1800.000
206.85	91.667
207.07	158.333
207.28	180.328
207.50	421.429
207.71	268.000
207.93	195.652
208.14	-600.000
208.35	-966.667
208.57	400.000
208.78	245.652
209.00	142.424
209.21	118.182
209.43	121.739
209.64	962.500
209.86	139.394
210.07	200.000
210.28	625.000
210.50	45.000
210.71	146.809
210.93	475.000
211.14	-6400.000
211.36	223.333
211.57	-5100.000
211.78	-1900.000
212.00	347.368
212.21	330.000
212.43	117.021
212.64	318.182
212.86	89.655
213.07	-2000.000
213.29	164.583
213.50	-363.158
213.71	154.098
213.93	640.000
214.14	564.286
214.36	261.538
214.57	295.455
214.78	149.351
215.00	167.143
215.21	322.222
215.43	384.000
215.64	-4900.000
215.86	566.667
216.07	-661.538
216.28	450.000
216.50	-211.538
216.71	1100.000
216.93	111.765
217.14	-290.476
217.35	68.750
217.57	566.667
217.78	100.000
218.00	2200.000
218.21	194.340
218.42	1144.444
218.64	433.333
218.85	766.667
219.07	-400.000
219.28	-303.704
219.49	125.926
219.71	193.333
219.92	176.923
220.14	156.522
220.35	2550.000
220.56	156.140
220.78	186.667
220.99	-250.000
221.21	0.000
221.42	306.897
221.63	663.636
221.85	164.407
222.06	118.367
222.28	100.000
222.49	215.385
222.70	880.000
222.92	184.000
223.13	135.000
223.34	-383.333
223.56	101.299
223.77	72.340
223.99	475.000
224.20	158.537
224.41	236.364
224.63	97.333
224.84	237.931
225.05	142.857
225.27	92.754
225.48	140.000
225.69	135.714
225.91	61.728
226.12	125.352
226.34	72.816
226.55	68.116
226.76	38.596
226.98	39.474
227.19	91.935
227.40	231.250
227.62	70.000
227.83	69.595
228.04	13.402
228.26	46.281
228.47	98.780
228.69	52.071
228.90	34.118
229.11	30.962
229.33	21.429
229.54	30.742
229.75	29.104
229.97	21.321
230.18	26.039
230.39	20.303
230.61	10.592
230.82	32.544
231.03	16.871
231.25	30.314
231.46	31.068
231.67	22.078
231.89	35.185
232.10	24.254
232.31	18.220
232.53	21.368
232.74	22.500
232.95	20.690
233.17	29.297
233.38	12.155
233.59	42.564
233.81	25.500
234.02	39.524
234.23	13.303
234.45	44.920
234.66	22.897
234.87	27.397
235.09	58.291
235.30	24.878
235.51	12.931
235.73	27.692
235.94	10.945
236.15	33.735
236.36	26.022
236.58	29.856
236.79	17.442
237.00	39.576
237.22	34.641
237.43	8.407
237.64	15.929
237.86	21.239
238.07	39.085
238.28	35.945
238.50	24.910
238.71	7.104
238.92	39.024
239.13	49.402
239.35	42.807
239.56	36.975
239.77	31.439
239.99	30.370
240.20	20.930
240.41	4.825
240.63	31.953
240.84	24.107
241.05	25.378
241.26	15.714
241.48	23.558
241.69	16.780
241.90	8.076
242.12	14.316
242.33	9.964
242.54	13.674
242.75	13.420
242.97	11.983
243.18	11.817
243.39	12.989
243.61	13.033
243.82	14.593
244.03	9.932
244.24	12.671
244.46	13.624
244.67	11.040
244.88	6.225
245.09	11.657
245.31	8.863
245.52	11.300
245.73	12.421
245.95	16.432
246.16	15.888
246.37	15.705
246.58	7.496
246.80	10.123
247.01	6.591
247.22	6.082
247.43	6.990
247.65	10.609
247.86	6.512
248.07	7.110
248.28	5.418
248.50	7.470
248.71	5.257
248.92	1.691
249.13	10.499
249.35	7.138
249.56	5.453
249.77	6.054
249.98	5.921
250.20	5.220
250.41	9.617
250.62	15.287
250.83	7.054
251.05	13.251
251.26	12.781
251.47	7.556
251.68	11.842
251.90	10.086
252.11	15.988
252.32	14.413
252.53	4.993
252.75	10.027
252.96	14.286
253.17	8.795
253.38	10.583
253.59	7.792
253.81	5.913
254.02	3.318
254.23	6.992
254.44	12.846
254.66	3.501
254.87	5.023
255.08	11.164
255.29	16.854
255.50	13.011
255.72	11.811
255.93	6.877
256.14	-0.481
256.35	11.742
256.57	10.442
256.78	-3.625
256.99	7.358
257.20	15.976
257.41	16.569
257.63	3.495
257.84	5.410
258.05	15.194
258.26	4.814
258.47	11.433
258.69	7.928
258.90	3.034
259.11	12.412
259.32	8.170
259.53	4.280
259.75	9.658
259.96	3.234
260.17	4.898
260.38	6.063
260.59	7.955
260.81	5.755
261.02	8.006
261.23	5.261
261.44	4.024
261.65	4.480
261.87	5.424
262.08	3.419
262.29	5.647
262.50	5.412
262.71	10.340
262.92	8.819
263.14	6.378
263.35	8.212
263.56	1.048
263.77	8.557
263.98	9.892
264.20	11.285
264.41	12.780
264.62	12.148
264.83	9.111
265.04	11.475
265.25	10.327
265.47	7.514
265.68	10.787
265.89	7.818
266.10	4.552
266.31	3.388
266.52	10.226
266.74	7.601
266.95	9.333
267.16	9.110
267.37	7.188
267.58	8.222
267.79	5.882
268.01	5.985
268.22	8.980
268.43	3.596
268.64	6.619
268.85	10.016
269.06	8.197
269.27	4.844
269.49	5.996
269.70	7.417
269.91	9.011
270.12	6.063
270.33	7.066
270.54	10.727
270.75	9.402
270.97	7.996
271.18	7.407
271.39	7.267
271.60	5.824
271.81	6.245
272.02	4.542
272.23	7.580
272.45	5.737
272.66	3.455
272.87	6.075
273.08	4.909
273.29	6.566
273.50	6.468
273.71	3.318
273.92	0.718
274.14	5.000
274.35	2.277
274.56	5.103
274.77	7.818
274.98	3.626
275.19	5.088
275.40	6.454
275.61	6.543
275.83	4.387
276.04	6.715
276.25	8.360
276.46	6.185
276.67	10.720
276.88	5.608
277.09	5.137
277.30	6.874
277.51	6.542
277.73	11.947
277.94	10.134
278.15	4.813
278.36	9.160
278.57	4.889
278.78	7.782
278.99	3.532
279.20	9.030
279.41	7.679
279.62	2.810
279.84	8.326
280.05	10.522
280.26	6.894
280.47	4.355
280.68	13.200
280.89	4.632
281.10	6.927
281.31	9.077
281.52	9.301
281.73	6.080
281.94	6.011
282.16	5.611
282.37	8.114
282.58	4.610
282.79	6.586
283.00	6.372
283.21	6.720
283.42	4.530
283.63	6.894
283.84	5.115
284.05	6.948
284.26	7.231
284.47	5.196
284.68	6.109
284.89	8.105
285.11	4.938
285.32	5.853
285.53	5.484
285.74	4.969
285.95	6.279
286.16	4.743
286.37	4.786
286.58	3.092
286.79	1.532
287.00	6.890
287.21	2.233
287.42	3.411
287.63	2.514
287.84	4.684
288.05	5.410
288.26	3.234
288.48	7.848
288.69	4.148
288.90	4.772
289.11	5.229
289.32	6.519
289.53	5.970
289.74	5.611
289.95	5.935
290.16	2.019
290.37	5.733
290.58	5.770
290.79	5.550
291.00	2.427
291.21	3.514
291.42	6.335
291.63	6.259
291.84	5.378
292.05	3.132
292.26	4.770
292.47	4.538
292.68	7.034
292.89	5.175
293.10	6.686
293.31	4.292
293.52	5.740
293.73	4.805
293.94	5.090
294.15	4.380
294.36	5.816
294.57	9.080
294.79	6.597
295.00	2.331
295.21	5.918
295.42	4.614
295.63	5.026
295.84	3.454
296.05	7.684
296.26	2.444
296.47	2.876
296.68	1.972
296.89	4.568
297.10	5.288
297.31	5.275
297.52	2.878
297.73	3.582
297.94	3.235
298.15	3.150
298.36	3.962
298.57	5.235
298.78	4.101
298.99	2.587
299.20	3.380
299.41	4.212
299.62	3.813
299.83	3.736
300.04	3.095
300.25	3.720
300.46	3.383
300.67	2.931
300.88	3.279
301.09	2.232
301.30	5.234
301.50	2.337
301.71	6.066
301.92	6.644
302.13	3.573
302.34	7.275
302.55	5.524
302.76	5.043
302.97	2.446
303.18	6.013
303.39	4.627
303.60	3.719
303.81	3.751
304.02	4.574
304.23	2.548
304.44	4.702
304.65	1.610
304.86	3.900
305.07	5.174
305.28	4.474
305.49	4.839
305.70	6.914
305.91	5.990
306.12	4.197
306.33	5.105
306.54	4.577
306.75	4.091
306.96	8.604
307.17	3.647
307.38	4.538
307.58	5.054
307.79	4.391
308.00	3.606
308.21	6.580
308.42	4.805
308.63	3.878
308.84	3.806
309.05	5.792
309.26	4.446
309.47	4.034
309.68	4.290
309.89	5.527
310.10	4.804
310.31	4.628
310.52	4.737
310.73	4.951
310.94	1.381
311.14	2.695
311.35	5.970
311.56	7.992
311.77	4.425
311.98	2.774
312.19	4.843
312.40	3.285
312.61	2.919
312.82	3.673
313.03	4.925
313.24	3.600
313.45	4.030
313.66	3.467
313.86	4.301
314.07	4.234
314.28	4.482
314.49	5.055
314.70	3.433
314.91	3.311
315.12	1.977
315.33	5.117
315.54	4.684
315.75	4.084
315.96	2.029
316.16	4.355
316.37	6.854
316.58	4.762
316.79	4.213
317.00	4.647
317.21	4.087
317.42	8.961
317.63	4.535
317.84	4.052
318.05	3.410
318.25	3.837
318.46	6.109
318.67	5.606
318.88	4.751
319.09	6.488
319.30	1.769
319.51	4.194
319.72	5.151
319.93	4.441
320.13	5.057
320.34	7.072
320.55	4.499
320.76	6.200
320.97	4.790
321.18	6.788
321.39	5.048
321.60	2.925
321.80	2.599
322.01	4.632
322.22	4.978
322.43	6.379
322.64	4.994
322.85	4.141
323.06	3.872
323.27	4.614
323.47	6.631
323.68	4.545
323.89	4.100
324.10	5.260
324.31	5.458
324.52	5.752
324.73	5.260
324.93	3.785
325.14	5.688
325.35	5.621
325.56	5.766
325.77	6.444
325.98	3.335
326.19	2.312
326.39	3.604
326.60	8.000
326.81	3.618
327.02	2.252
327.23	2.810
327.44	3.994
327.64	3.501
327.85	2.969
328.06	4.012
328.27	6.543
328.48	5.258
328.69	2.662
328.90	3.306
329.10	2.152
329.31	2.378
329.52	3.522
329.73	5.703
329.94	3.788
330.15	5.081
330.35	2.034
330.56	5.135
330.77	2.643
330.98	5.990
331.19	4.146
331.39	3.472
331.60	4.475
331.81	5.283
332.02	5.424
332.23	4.398
332.44	2.632
332.64	4.218
332.85	5.475
333.06	4.387
333.27	3.698
333.48	5.912
333.68	4.527
333.89	4.432
334.10	1.869
334.31	7.191
334.52	4.686
334.72	3.835
334.93	5.135
335.14	4.893
335.35	4.447
335.56	5.289
335.76	0.915
335.97	4.275
336.18	6.183
336.39	4.512
336.60	5.397
336.80	4.282
337.01	0.673
337.22	6.032
337.43	5.505
337.64	3.671
337.84	3.166
338.05	4.982
338.26	5.796
338.47	5.812
338.68	4.270
338.88	5.893
339.09	4.836
339.30	3.184
339.51	2.375
339.71	4.505
339.92	4.690
340.13	5.051
340.34	4.728
340.55	2.873
340.75	6.975
340.96	3.240
341.17	6.660
341.38	4.657
341.58	7.257
341.79	3.455
342.00	4.622
342.21	5.764
342.41	2.329
342.62	4.298
342.83	3.326
343.04	1.350
343.24	4.756
343.45	5.105
343.66	6.570
343.87	5.009
344.07	4.369
344.28	4.204
344.49	6.705
344.70	5.796
344.90	6.106
345.11	5.654
345.32	6.153
345.53	5.551
345.73	5.798
345.94	9.246
346.15	6.411
346.36	5.859
346.56	4.665
346.77	6.599
346.98	6.528
347.19	8.401
347.39	3.263
347.60	5.221
347.81	7.140
348.02	5.912
348.22	5.624
348.43	5.061
348.64	3.860
348.84	8.712
349.05	5.839
349.26	8.993
349.47	6.655
349.67	6.997
349.88	9.058
350.09	8.094
350.30	11.072
350.50	7.900
350.71	8.376
350.92	10.273
351.12	8.586
351.33	7.430
351.54	8.854
351.74	9.650
351.95	8.520
352.16	7.696
352.37	8.754
352.57	8.827
352.78	8.305
352.99	8.996
353.19	7.983
353.40	8.442
353.61	11.716
353.82	12.589
354.02	10.318
354.23	9.244
354.44	12.053
354.64	9.786
354.85	11.487
355.06	12.194
355.26	8.269
355.47	11.098
355.68	12.258
355.88	13.693
356.09	11.883
356.30	11.133
356.51	13.619
356.71	11.347
356.92	9.529
357.13	15.965
357.33	17.626
357.54	13.467
357.75	9.094
357.95	13.761
358.16	11.136
358.37	18.985
358.57	10.211
358.78	18.086
358.99	13.106
359.19	15.499
359.40	16.531
359.61	16.240
359.81	16.946
360.02	17.824
360.23	12.885
360.43	15.203
360.64	13.209
360.85	15.203
361.05	11.052
361.26	20.012
361.47	15.310
361.67	18.705
361.88	12.093
362.09	17.865
362.29	13.489
362.50	16.332
362.70	12.491
362.91	19.791
363.12	16.663
363.32	18.088
363.53	17.147
363.74	20.703
363.94	13.734
364.15	21.723
364.36	16.689
364.56	16.399
364.77	15.365
364.98	19.463
365.18	15.948
365.39	19.541
365.59	12.339
365.80	14.990
366.01	16.758
366.21	15.158
366.42	13.826
366.63	17.730
366.83	14.909
367.04	12.412
367.24	18.093
367.45	13.921
367.66	11.616
367.86	15.631
368.07	13.432
368.28	14.099
368.48	13.222
368.69	12.222
368.89	12.515
369.10	16.383
369.31	12.821
369.51	16.383
369.72	17.546
369.92	17.400
370.13	13.149
370.34	16.938
370.54	7.690
370.75	16.010
370.95	10.429
371.16	16.821
371.37	13.089
371.57	14.320
371.78	13.031
371.98	16.604
372.19	15.979
372.40	18.217
372.60	14.658
372.81	15.487
373.01	10.959
373.22	12.999
373.43	15.773
373.63	16.727
373.84	12.921
374.04	15.282
374.25	15.061
374.46	16.124
374.66	14.020
374.87	16.763
375.07	8.946
375.28	13.438
375.48	12.866
375.69	17.376
375.90	10.080
376.10	12.112
376.31	11.430
376.51	13.122
376.72	11.144
376.92	10.917
377.13	14.707
377.34	17.191
377.54	13.449
377.75	17.747
377.95	13.143
378.16	16.363
378.36	15.115
378.57	16.663
378.77	14.619
378.98	14.750
379.19	14.069
379.39	13.662
379.60	13.811
379.80	15.133
380.01	15.273
380.21	13.059
380.42	15.616
380.62	13.731
380.83	14.253
381.04	13.159
381.24	15.414
381.45	14.884
381.65	10.015
381.86	13.800
382.06	14.797
382.27	10.171
382.47	11.268
382.68	14.874
382.88	10.462
383.09	11.668
383.29	10.708
383.50	15.982
383.71	11.335
383.91	13.998
384.12	9.619
384.32	14.356
384.53	11.956
384.73	10.122
384.94	10.120
385.14	12.447
385.35	11.335
385.55	13.989
385.76	11.495
385.96	12.822
386.17	13.020
386.37	15.167
386.58	11.348
386.78	15.343
386.99	9.607
387.19	15.222
387.40	11.202
387.60	16.018
387.81	12.384
388.01	12.251
388.22	14.025
388.42	15.879
388.63	13.733
388.83	14.959
389.04	9.457
389.24	12.747
389.45	11.582
389.65	12.975
389.86	10.671
390.06	9.995
390.27	10.018
390.47	12.018
390.68	10.148
390.88	14.546
391.09	12.762
391.29	15.292
391.50	11.627
391.70	14.821
391.91	11.362
392.11	12.672
392.32	14.097
392.52	15.263
392.73	13.463
392.93	13.862
393.14	11.831
393.34	13.839
393.55	13.463
393.75	13.651
393.95	12.160
394.16	14.420
394.36	13.436
394.57	15.230
394.77	13.239
394.98	13.128
395.18	13.621
395.39	12.858
395.59	13.985
395.80	12.383
396.00	12.543
396.21	14.559
396.41	10.499
396.61	14.528
396.82	12.664
397.02	13.978
397.23	12.998
397.43	12.183
397.64	9.209
397.84	14.861
398.05	9.543
398.25	13.820
398.45	10.921
398.66	13.633
398.86	11.850
399.07	15.261
399.27	9.829
399.48	13.547
399.68	11.970
399.89	13.350
400.09	12.763
400.29	10.289
400.50	10.882
400.70	13.180
400.91	10.588
401.11	13.244
401.32	11.538
401.52	9.898
401.72	10.867
401.93	14.585
402.13	11.288
402.34	11.557
402.54	9.588
402.75	14.350
402.95	8.069
403.15	14.102
403.36	10.168
403.56	12.500
403.77	8.832
403.97	12.105
404.17	9.758
404.38	12.951
404.58	10.139
404.79	12.758
404.99	13.064
405.19	11.202
405.40	12.534
405.60	12.707
405.81	11.199
406.01	13.386
406.21	11.127
406.42	12.140
406.62	12.816
406.83	13.190
407.03	13.320
407.23	11.259
407.44	10.111
407.64	12.994
407.85	10.838
408.05	11.885
408.25	9.925
408.46	13.136
408.66	10.886
408.87	10.585
409.07	10.420
409.27	9.474
409.48	9.339
409.68	11.620
409.88	7.510
410.09	12.321
410.29	11.309
410.50	13.100
410.70	8.419
410.90	11.389
411.11	9.861
411.31	11.877
411.51	10.672
411.72	12.748
411.92	8.902
412.12	9.618
412.33	9.774
412.53	11.405
412.74	7.372
412.94	10.490
413.14	8.756
413.35	11.431
413.55	10.381
413.75	12.385
413.96	7.245
414.16	11.185
414.36	9.769
414.57	9.771
414.77	8.190
414.97	10.461
415.18	10.469
415.38	10.383
415.58	9.653
415.79	9.592
415.99	10.260
416.19	11.587
416.40	10.489
416.60	9.699
416.80	10.687
417.01	10.874
417.21	8.312
417.41	13.270
417.62	12.249
417.82	12.787
418.02	9.772
418.23	13.188
418.43	10.540
418.63	12.077
418.84	12.680
419.04	12.130
419.24	13.086
419.45	13.882
419.65	13.542
419.85	13.744
420.06	12.699
420.26	13.571
420.46	13.485
420.67	13.827
420.87	12.780
421.07	13.858
421.28	12.818
421.48	13.598
421.68	13.288
421.88	14.529
422.09	13.874
422.29	13.351
422.49	13.103
422.70	14.098
422.90	13.780
423.10	13.854
423.31	13.469
423.51	13.892
423.71	12.859
423.91	13.716
424.12	13.312
424.32	14.189
424.52	13.436
424.73	13.287
424.93	13.368
425.13	13.399
425.33	13.253
425.54	13.474
425.74	13.225
425.94	14.288
426.15	13.924
426.35	12.787
426.55	13.094
426.75	13.388
426.96	12.646
427.16	13.306
427.36	13.352
427.57	13.529
427.77	12.128
427.97	13.159
428.17	12.449
428.38	13.461
428.58	10.719
428.78	12.528
428.98	10.071
429.19	11.748
429.39	9.603
429.59	11.515
429.79	9.039
430.00	10.190
430.20	8.347
430.40	11.786
430.60	10.046
430.81	11.480
431.01	9.423
431.21	11.064
431.41	9.446
431.62	11.401
431.82	10.708
432.02	12.623
432.22	10.280
432.43	10.067
432.63	9.545
432.83	11.829
433.03	10.446
433.24	10.702
433.44	9.830
433.64	12.569
433.84	11.092
434.05	12.811
434.25	10.969
434.45	12.983
434.65	12.361
434.85	12.869
435.06	12.483
435.26	12.545
435.46	11.788
435.66	12.340
435.87	11.159
436.07	12.327
436.27	11.785
436.47	11.768
436.67	9.346
436.88	11.657
437.08	11.267
437.28	11.947
437.48	10.867
437.69	12.559
437.89	10.798
438.09	12.927
438.29	10.742
438.49	12.506
438.70	11.384
438.90	11.220
439.10	10.429
439.30	12.119
439.50	10.714
439.71	12.882
439.91	11.750
440.11	12.704
440.31	11.271
440.51	11.929
440.72	11.273
440.92	13.042
441.12	12.336
441.32	12.387
441.52	12.456
441.72	12.521
441.93	12.377
442.13	12.949
442.33	12.369
442.53	13.016
442.73	11.595
442.94	13.459
443.14	12.348
443.34	13.181
443.54	12.230
443.74	13.452
443.94	12.127
444.15	12.474
444.35	10.632
444.55	12.744
444.75	12.275
444.95	12.962
445.15	11.397
445.36	11.804
445.56	11.740
445.76	12.649
445.96	11.997
446.16	12.215
446.36	12.570
446.57	13.034
446.77	11.689
446.97	12.827
447.17	13.110
447.37	12.529
447.57	12.961
447.77	12.661
447.98	13.016
448.18	13.259
448.38	13.045
448.58	12.683
448.78	12.313
448.98	12.768
449.18	11.956
449.39	12.960
449.59	12.189
449.79	13.104
449.99	10.815
450.19	12.686
450.39	11.846
450.59	12.533
450.79	10.973
451.00	12.951
451.20	11.570
451.40	11.483
451.60	10.669
451.80	12.429
452.00	10.243
452.20	11.546
452.40	11.047
452.61	12.110
452.81	10.896
453.01	11.875
453.21	11.872
453.41	12.430
453.61	11.048
453.81	11.719
454.01	11.435
454.21	12.592
454.42	11.592
454.62	12.158
454.82	10.579
455.02	11.146
455.22	9.579
455.42	10.848
455.62	10.025
455.82	11.804
456.02	9.916
456.23	11.084
456.43	10.573
456.63	11.846
456.83	9.458
457.03	11.324
457.23	10.433
457.43	11.317
457.63	9.925
457.83	11.422
458.03	9.394
458.23	11.787
458.43	9.099
458.64	11.876
458.84	10.250
459.04	11.129
459.24	11.896
459.44	11.708
459.64	11.416
459.84	12.404
460.04	11.721
460.24	12.479
460.44	12.790
460.64	12.346
460.84	12.286
461.04	12.494
461.24	12.383
461.45	12.630
461.65	12.250
461.85	12.826
462.05	11.847
462.25	12.559
462.45	12.405
462.65	12.685
462.85	10.108
463.05	12.239
463.25	9.683
463.45	12.666
463.65	11.607
463.85	11.247
464.05	10.468
464.25	11.278
464.45	11.400
464.65	10.599
464.85	9.045
465.05	10.928
465.26	10.921
465.46	12.186
465.66	11.207
465.86	11.705
466.06	10.143
466.26	11.623
466.46	9.602
466.66	11.553
466.86	11.359
467.06	11.267
467.26	10.788
467.46	11.104
467.66	11.198
467.86	11.902
468.06	10.761
468.26	11.251
468.46	11.333
468.66	11.574
468.86	9.324
469.06	11.183
469.26	10.003
469.46	11.028
469.66	10.287
469.86	11.762
470.06	10.796
470.26	12.128
470.46	10.251
470.66	11.960
470.86	9.665
471.06	10.635
471.26	8.939
471.46	9.987
471.66	9.969
471.86	11.045
472.06	10.366
472.26	11.510
472.46	11.413
472.66	11.275
472.86	9.922
473.06	11.911
473.26	9.900
473.46	11.194
473.66	10.939
473.86	12.317
474.06	9.647
474.26	11.645
474.46	9.867
474.66	12.246
474.86	10.931
475.06	12.213
475.26	9.234
475.46	11.603
475.66	9.359
475.86	11.274
476.06	11.274
476.26	11.863
476.46	10.516
476.66	12.022
476.86	10.066
477.06	11.781
477.26	11.110
477.46	11.364
477.65	11.069
477.85	12.424
478.05	9.361
478.25	12.936
478.45	11.039
478.65	11.770
478.85	10.891
479.05	12.526
479.25	11.802
479.45	12.392
479.65	10.695
479.85	12.472
480.05	11.369
480.25	13.160
480.45	12.502
480.65	13.064
480.85	11.961
481.05	12.856
481.25	12.595
481.44	12.949
481.64	11.178
481.84	13.437
482.04	12.501
482.24	13.274
482.44	12.261
482.64	12.856
482.84	12.851
483.04	12.782
483.24	12.685
483.44	13.092
483.64	12.557
483.84	12.620
484.04	12.726
484.23	12.807
484.43	13.556
484.63	14.352
484.83	14.991
485.03	15.405
485.23	15.269
485.43	15.309
485.63	14.983
485.83	14.344
486.03	13.787
486.23	13.704
486.42	13.780
486.62	13.464
486.82	13.668
487.02	13.698
487.22	13.463
487.42	13.455
487.62	13.528
487.82	12.963
488.02	13.405
488.22	13.547
488.41	13.629
488.61	13.467
488.81	13.655
489.01	13.662
489.21	13.660
489.41	13.649
489.61	13.703
489.81	14.283
490.01	13.966
490.20	13.869
490.40	13.750
490.60	14.005
490.80	14.153
491.00	14.173
491.20	13.862
491.40	13.832
491.60	13.618
491.79	13.603
491.99	13.623
492.19	13.605
492.39	14.140
492.59	13.775
492.79	13.940
492.99	13.539
493.19	13.978
493.38	14.109
493.58	14.441
493.78	13.848
493.98	14.315
494.18	14.017
494.38	14.525
494.58	14.289
494.77	14.134
494.97	14.397
495.17	13.683
495.37	14.960
495.57	14.385
495.77	14.103
495.96	14.545
496.16	14.363
496.36	14.093
496.56	14.724
496.76	13.655
496.96	14.881
497.15	14.464
497.35	14.699
497.55	14.774
497.75	14.404
497.95	14.051
498.15	15.121
498.34	14.638
498.54	14.826
498.74	14.751
498.94	14.503
499.14	14.504
499.34	14.959
499.53	14.254
499.73	15.025
499.93	14.397
500.13	15.133
500.33	14.351
500.52	14.338
500.72	14.777
500.92	14.836
501.12	14.221
501.32	15.024
501.52	14.532
501.71	15.628
501.91	14.276
502.11	15.223
502.31	14.231
502.51	14.871
502.70	14.352
502.90	14.910
503.10	14.203
503.30	14.960
503.50	14.811
503.69	15.043
503.89	14.645
504.09	15.355
504.29	14.546
504.48	15.218
504.68	14.888
504.88	15.170
505.08	13.879
505.28	15.056
505.47	14.124
505.67	15.302
505.87	14.949
506.07	14.672
506.27	14.639
506.46	15.005
506.66	14.451
506.86	14.988
507.06	14.928
507.25	14.620
507.45	14.799
507.65	14.759
507.85	14.606
508.04	14.733
508.24	15.114
508.44	14.945
508.64	14.910
508.83	14.819
509.03	14.616
509.23	15.200
509.43	14.639
509.63	15.130
509.82	15.077
510.02	15.030
510.22	14.580
510.42	15.463
510.61	15.024
510.81	15.524
511.01	15.243
511.21	15.139
511.40	14.513
511.60	15.759
511.80	15.701
511.99	15.470
512.19	15.661
512.39	15.389
512.59	15.585
512.78	15.339
512.98	15.558
513.18	15.244
513.38	14.729
513.57	14.972
513.77	15.232
513.97	15.937
514.17	14.959
514.36	15.250
514.56	15.215
514.76	15.367
514.95	15.419
515.15	15.825
515.35	15.128
515.55	15.812
515.74	15.486
515.94	16.093
516.14	14.527
516.33	15.733
516.53	15.493
516.73	15.758
516.93	14.854
517.12	16.008
517.32	14.973
517.52	15.668
517.71	15.494
517.91	15.138
518.11	15.474
518.30	15.507
518.50	15.696
518.70	15.572
518.90	15.597
519.09	15.879
519.29	15.234
519.49	15.622
519.68	15.414
519.88	15.672
520.08	15.869
520.27	15.850
520.47	15.638
520.67	15.921
520.86	15.976
521.06	15.913
521.26	15.910
521.45	15.962
521.65	15.362
521.85	16.266
522.04	15.674
522.24	15.525
522.44	15.707
522.63	16.119
522.83	14.624
523.03	15.903
523.22	15.670
523.42	16.085
523.62	15.418
523.81	16.709
524.01	15.483
524.21	16.187
524.40	15.873
524.60	15.896
524.80	15.702
524.99	16.498
525.19	15.370
525.39	15.600
525.58	15.171
525.78	15.127
525.98	15.436
526.17	15.599
526.37	16.014
526.57	15.935
526.76	15.825
526.96	15.938
527.15	15.737
527.35	15.887
527.55	15.960
527.74	15.668
527.94	15.776
528.14	15.450
528.33	14.702
528.53	15.063
528.72	15.683
528.92	15.528
529.12	15.531
529.31	15.897
529.51	15.979
529.71	15.908
529.90	16.066
530.10	16.385
530.29	16.099
530.49	16.423
530.69	16.192
530.88	16.295
531.08	16.088
531.28	16.193
531.47	16.160
531.67	16.173
531.86	15.808
532.06	15.768
532.26	15.899
532.45	15.769
532.65	15.742
532.84	16.034
533.04	16.145
533.24	15.467
533.43	16.273
533.63	15.801
533.82	15.979
534.02	15.584
534.22	16.023
534.41	16.158
534.61	16.015
534.80	16.317
535.00	16.337
535.19	16.413
535.39	16.818
535.59	16.338
535.78	16.263
535.98	16.417
536.17	16.108
536.37	16.090
536.57	15.465
536.76	15.936
536.96	15.971
537.15	16.169
537.35	15.792
537.54	16.137
537.74	15.724
537.93	16.052
538.13	16.296
538.33	16.343
538.52	16.216
538.72	16.479
538.91	16.704
539.11	16.165
539.30	16.343
539.50	16.776
539.70	16.120
539.89	17.115
540.09	16.543
540.28	16.395
540.48	16.325
540.67	16.149
540.87	16.000
541.06	15.750
541.26	15.502
541.45	15.833
541.65	16.228
541.85	15.885
542.04	16.409
542.24	16.760
542.43	16.480
542.63	16.187
542.82	16.152
543.02	16.222
543.21	16.685
543.41	16.858
543.60	16.649
543.80	16.822
543.99	17.030
544.19	16.421
544.38	16.701
544.58	16.214
544.77	16.710
544.97	16.841
545.16	17.000
545.36	17.220
545.56	16.895
545.75	16.816
545.95	16.481
546.14	16.907
546.34	16.064
546.53	16.633
546.73	16.648
546.92	17.271
547.12	16.424
547.31	16.784
547.51	16.947
547.70	17.150
547.90	16.529
548.09	17.095
548.29	16.874
548.48	17.273
548.68	17.285
548.87	16.929
549.07	16.990
549.26	17.110
549.46	17.031
549.65	17.448
549.84	16.451
550.04	17.494
550.23	16.393
550.43	16.740
550.62	16.064
550.82	16.768
551.01	16.234
551.21	17.340
551.40	16.371
551.60	16.602
551.79	16.553
551.99	16.817
552.18	16.607
552.38	17.215
552.57	16.517
552.77	16.846
552.96	17.163
553.16	17.324
553.35	16.242
553.54	17.910
553.74	17.504
553.93	17.088
554.13	17.148
554.32	17.588
554.52	17.280
554.71	17.475
554.91	17.091
555.10	17.015
555.29	16.449
555.49	17.397
555.68	16.365
555.88	17.643
556.07	16.381
556.27	17.674
556.46	18.085
556.66	17.272
556.85	15.971
557.04	17.389
557.24	16.688
557.43	18.115
557.63	17.281
557.82	17.628
558.02	17.076
558.21	17.693
558.40	16.398
558.60	16.823
558.79	17.003
558.99	18.390
559.18	15.999
559.38	18.737
559.57	16.419
559.76	17.958
559.96	17.869
560.15	18.167
560.35	16.435
560.54	17.881
560.73	16.080
560.93	18.220
561.12	17.199
561.32	18.190
561.51	17.403
561.70	17.558
561.90	17.098
562.09	17.987
562.29	17.803
562.48	18.772
562.67	18.292
562.87	18.270
563.06	18.337
563.26	18.463
563.45	17.694
563.64	18.989
563.84	18.448
564.03	18.608
564.23	17.947
564.42	19.315
564.61	17.532
564.81	18.658
565.00	17.814
565.20	18.898
565.39	18.839
565.58	18.176
565.78	17.842
565.97	18.344
566.16	18.192
566.36	19.692
566.55	18.761
566.74	18.009
566.94	18.013
567.13	19.108
567.33	19.502
567.52	18.671
567.71	18.224
567.91	18.440
568.10	18.954
568.29	19.313
568.49	19.587
568.68	19.169
568.87	18.828
569.07	19.672
569.26	19.726
569.45	19.341
569.65	18.794
569.84	18.719
570.04	18.377
570.23	19.745
570.42	18.011
570.62	18.227
570.81	19.764
571.00	19.488
571.20	18.151
571.39	19.669
571.58	19.153
571.78	20.049
571.97	19.560
572.16	19.702
572.36	19.255
572.55	19.060
572.74	19.573
572.94	19.203
573.13	19.932
573.32	18.944
573.51	18.069
573.71	19.569
573.90	18.881
574.09	19.632
574.29	19.722
574.48	19.567
574.67	19.034
574.87	19.571
575.06	18.459
575.25	19.727
575.45	20.085
575.64	19.311
575.83	18.903
576.03	20.024
576.22	19.033
576.41	19.155
576.60	18.678
576.80	19.509
576.99	18.893
577.18	20.438
577.38	19.349
577.57	18.908
577.76	19.215
577.95	19.623
578.15	18.404
578.34	20.350
578.53	19.574
578.73	19.864
578.92	18.444
579.11	19.083
579.30	19.002
579.50	19.161
579.69	19.054
579.88	19.865
580.08	18.122
580.27	19.624
580.46	18.846
580.65	19.174
580.85	18.700
581.04	18.355
581.23	17.305
581.42	19.607
581.62	18.767
581.81	18.727
582.00	17.205
582.19	19.364
582.39	18.233
582.58	18.477
582.77	18.621
582.96	17.801
583.16	17.210
583.35	19.288
583.54	17.437
583.73	19.127
583.93	18.540
584.12	19.482
584.31	17.134
584.50	18.268
584.70	17.565
584.89	18.800
585.08	18.290
585.27	18.487
585.47	16.588
585.66	18.875
585.85	16.877
586.04	17.237
586.24	18.535
586.43	18.214
586.62	16.450
586.81	18.517
587.00	16.750
587.20	18.904
587.39	16.579
587.58	18.612
587.77	16.812
587.97	18.620
588.16	17.570
588.35	18.900
588.54	16.861
588.73	17.517
588.93	17.686
589.12	18.683
589.31	17.519
589.50	17.524
589.69	17.301
589.89	17.901
590.08	17.342
590.27	18.698
590.46	18.040
590.65	18.239
590.85	17.418
591.04	18.622
591.23	17.038
591.42	18.616
591.61	17.323
591.81	18.642
592.00	17.103
592.19	18.007
592.38	17.709
592.57	19.019
592.77	17.422
592.96	18.041
593.15	18.030
593.34	17.258
593.53	16.866
593.72	17.733
593.92	17.715
594.11	18.955
594.30	17.399
594.49	19.105
594.68	17.872
594.87	18.233
595.07	16.567
595.26	18.108
595.45	17.454
595.64	17.940
595.83	16.605
596.02	18.422
596.22	17.627
596.41	18.641
596.60	18.016
596.79	19.605
596.98	17.844
597.17	18.794
597.37	18.266
597.56	18.636
597.75	17.759
597.94	19.246
598.13	17.913
598.32	19.001
598.51	18.264
598.71	19.398
598.90	19.293
599.09	20.038
599.28	17.444
599.47	18.610
599.66	16.947
599.85	18.775
600.05	16.847
600.24	19.425
600.43	17.869
600.62	18.129
600.81	17.757
601.00	18.595
601.19	16.436
601.38	17.276
601.58	18.057
601.77	17.254
601.96	16.524
602.15	18.278
602.34	17.813
602.53	19.421
602.72	17.115
602.91	18.771
603.10	17.569
603.30	18.353
603.49	17.464
603.68	19.083
603.87	17.868
604.06	18.737
604.25	18.744
604.44	18.409
604.63	18.428
604.82	19.028
605.01	18.655
605.21	19.387
605.40	18.415
605.59	19.333
605.78	19.173
605.97	18.947
606.16	18.680
606.35	18.878
606.54	18.491
606.73	19.464
606.92	17.857
607.11	19.437
607.30	18.107
607.50	18.759
607.69	17.369
607.88	19.041
608.07	18.259
608.26	18.511
608.45	18.656
608.64	19.154
608.83	16.672
609.02	18.434
609.21	18.056
609.40	18.868
609.59	16.940
609.78	18.637
609.97	18.772
610.16	18.490
610.35	18.340
610.55	18.603
610.74	18.117
610.93	18.517
611.12	17.500
611.31	19.042
611.50	16.341
611.69	18.421
611.88	18.418
612.07	18.528
612.26	17.090
612.45	18.833
612.64	16.414
612.83	18.303
613.02	15.734
613.21	17.261
613.40	16.633
613.59	17.291
613.78	14.104
613.97	16.573
614.16	16.076
614.35	17.594
614.54	14.041
614.73	16.128
614.92	14.576
615.11	16.354
615.30	13.873
615.49	14.387
615.68	14.130
615.87	16.620
616.07	14.003
616.26	14.814
616.45	14.939
616.64	16.970
616.83	15.935
617.02	16.370
617.21	12.953
617.40	14.370
617.59	15.023
617.78	16.937
617.97	13.556
618.16	14.639
618.35	11.513
618.54	15.859
618.73	13.823
618.92	16.060
619.11	13.750
619.30	15.734
619.49	12.872
619.68	15.427
619.86	12.543
620.05	16.337
620.24	13.560
620.43	15.135
620.62	11.582
620.81	14.822
621.00	14.780
621.19	16.343
621.38	14.909
621.57	16.593
621.76	14.758
621.95	15.921
622.14	14.691
622.33	16.526
622.52	11.782
622.71	15.550
622.90	13.006
623.09	15.348
623.28	12.974
623.47	15.305
623.66	13.969
623.85	15.094
624.04	13.884
624.23	15.238
624.42	13.311
624.61	15.122
624.80	12.376
624.99	14.942
625.18	11.825
625.36	14.570
625.55	13.699
625.74	14.257
625.93	12.169
626.12	16.860
626.31	15.665
626.50	16.341
626.69	13.882
626.88	16.905
627.07	15.792
627.26	15.439
627.45	15.570
627.64	16.119
627.83	15.621
628.02	15.978
628.20	16.080
628.39	16.562
628.58	13.928
628.77	16.415
628.96	14.310
629.15	16.243
629.34	15.629
629.53	15.363
629.72	12.112
629.91	16.622
630.10	13.276
630.29	15.236
630.47	13.506
630.66	14.492
630.85	13.397
631.04	15.181
631.23	15.388
631.42	15.011
631.61	13.040
631.80	17.068
631.99	13.742
632.18	15.036
632.36	12.032
632.55	15.672
632.74	12.661
632.93	13.780
633.12	13.430
633.31	14.262
633.50	12.361
633.69	14.703
633.88	11.524
634.06	15.208
634.25	12.901
634.44	14.038
634.63	14.823
634.82	16.469
635.01	12.315
635.20	15.569
635.39	11.900
635.57	15.061
635.76	13.552
635.95	14.506
636.14	12.823
636.33	15.453
636.52	12.945
636.71	12.528
636.89	14.785
637.08	13.404
637.27	13.050
637.46	14.074
637.65	12.516
637.84	14.459
638.03	11.311
638.21	15.024
638.40	14.447
638.59	12.461
638.78	12.580
638.97	14.273
639.16	13.852
639.34	14.863
639.53	10.957
639.72	13.335
639.91	10.131
640.10	11.630
640.29	12.412
640.47	16.327
640.66	12.096
640.85	14.013
641.04	10.467
641.23	10.811
641.42	11.160
641.60	11.060
641.79	11.766
641.98	11.701
642.17	13.023
642.36	12.837
642.54	11.550
642.73	10.945
642.92	9.931
643.11	12.535
643.30	10.594
643.49	12.016
643.67	7.370
643.86	11.325
644.05	11.200
644.24	12.838
644.43	9.772
644.61	12.960
644.80	10.528
644.99	12.789
645.18	12.480
645.37	11.747
645.55	10.432
645.74	13.199
645.93	12.383
646.12	12.039
646.31	11.236
646.49	12.802
646.68	13.245
646.87	12.404
647.06	9.992
647.24	12.364
647.43	8.923
647.62	13.084
647.81	7.957
648.00	12.838
648.18	9.516
648.37	11.270
648.56	11.886
648.75	11.409
648.93	10.029
649.12	12.957
649.31	10.916
649.50	11.299
649.68	9.714
649.87	11.669
650.06	8.496
650.25	12.099
650.43	8.886
650.62	12.134
650.81	10.697
651.00	9.793
651.18	9.937
651.37	12.955
651.56	9.420
651.75	12.368
651.93	10.212
652.12	14.304
652.31	9.887
652.50	10.871
652.68	12.198
652.87	13.005
653.06	12.283
653.25	12.401
653.43	11.712
653.62	11.785
653.81	10.712
654.00	11.814
654.18	9.936
654.37	12.159
654.56	9.875
654.74	7.951
654.93	9.160
655.12	9.081
655.31	9.437
655.49	11.371
655.68	8.018
655.87	8.463
656.05	6.794
656.24	10.180
656.43	8.322
656.62	9.640
656.80	11.251
656.99	8.371
657.18	7.018
657.36	9.638
657.55	10.569
657.74	10.834
657.93	10.664
658.11	12.637
658.30	9.992
658.49	8.964
658.67	10.138
658.86	8.232
659.05	8.425
659.23	12.638
659.42	8.956
659.61	12.192
659.79	9.726
659.98	11.928
660.17	11.991
660.35	12.769
660.54	11.056
660.73	13.801
660.91	11.979
661.10	11.667
661.29	8.367
661.47	11.491
661.66	8.696
661.85	10.556
662.03	10.515
662.22	7.312
662.41	7.670
662.59	8.523
662.78	8.704
662.97	8.390
663.15	5.715
663.34	8.319
663.53	6.353
663.71	8.256
663.90	8.024
664.09	7.847
664.27	7.944
664.46	8.091
664.65	8.323
664.83	5.621
665.02	6.522
665.21	5.902
665.39	5.547
665.58	9.334
665.77	5.933
665.95	7.411
666.14	6.404
666.32	5.474
666.51	6.058
666.70	4.725
666.88	5.949
667.07	6.566
667.26	3.582
667.44	6.222
667.63	6.380
667.81	4.974
668.00	6.799
668.19	8.781
668.37	6.542
668.56	7.406
668.75	4.195
668.93	9.014
669.12	5.358
669.30	6.955
669.49	6.242
669.68	7.866
669.86	6.742
670.05	5.065
670.23	5.767
670.42	4.867
670.61	6.911
670.79	6.970
670.98	7.592
671.16	9.354
671.35	5.762
671.54	7.091
671.72	5.248
671.91	6.429
672.09	4.714
672.28	7.988
672.46	7.572
672.65	7.988
672.84	7.406
673.02	6.777
673.21	2.789
673.39	5.126
673.58	6.120
673.77	5.595
673.95	6.811
674.14	7.719
674.32	4.940
674.51	8.863
674.69	5.582
674.88	6.169
675.07	4.560
675.25	7.682
675.44	7.437
675.62	4.605
675.81	6.285
675.99	10.619
676.18	6.042
676.36	5.588
676.55	6.357
676.74	8.100
676.92	6.840
677.11	6.312
677.29	5.088
677.48	9.567
677.66	7.733
677.85	6.335
678.03	6.574
678.22	8.597
678.40	6.818
678.59	5.177
678.78	6.114
678.96	4.029
679.15	6.617
679.33	8.409
679.52	9.170
679.70	8.441
679.89	6.788
680.07	7.987
680.26	7.521
680.44	6.735
680.63	7.822
680.81	8.425
681.00	5.443
681.18	7.336
681.37	7.155
681.55	10.102
681.74	9.836
681.92	9.597
682.11	9.655
682.29	7.306
682.48	8.309
682.66	9.321
682.85	7.335
683.03	9.306
683.22	9.205
683.40	9.793
683.59	8.281
683.77	8.869
683.96	5.745
684.14	9.585
684.33	6.134
684.51	13.710
684.70	9.191
684.88	12.696
685.07	8.595
685.25	8.873
685.44	8.079
685.62	9.642
685.81	6.307
685.99	10.113
686.18	6.797
686.36	9.937
686.55	7.430
686.73	8.062
686.92	8.999
687.10	9.407
687.29	9.701
687.47	11.023
687.65	10.032
687.84	8.943
688.02	10.635
688.21	12.151
688.39	8.451
688.58	11.697
688.76	9.951
688.95	9.304
689.13	7.592
689.32	12.300
689.50	10.004
689.68	9.339
689.87	7.989
690.05	9.814
690.24	11.653
690.42	11.839
690.61	11.018
690.79	12.576
690.98	11.851
691.16	8.476
691.34	8.268
691.53	10.244
691.71	9.396
691.90	11.836
692.08	7.975
692.27	12.739
692.45	11.448
692.63	8.843
692.82	11.700
693.00	9.857
693.19	9.549
693.37	12.500
693.56	10.282
693.74	11.669
693.92	9.938
694.11	13.474
694.29	10.267
694.48	12.459
694.66	10.814
694.84	11.276
695.03	7.982
695.21	13.436
695.40	10.916
695.58	13.280
695.76	9.347
695.95	13.814
696.13	11.859
696.32	14.196
696.50	17.046
696.68	10.730
696.87	9.135
697.05	15.400
697.24	12.071
697.42	16.029
697.60	12.017
697.79	12.545
697.97	14.135
698.16	15.423
698.34	11.294
698.52	16.220
698.71	14.073
698.89	16.472
699.07	14.667
699.26	15.600
699.44	15.532
699.63	17.523
699.81	14.592
699.99	19.176
700.18	18.407
700.36	18.156
700.54	15.760
700.73	14.680
700.91	13.879
701.09	15.788
701.28	16.955
701.46	16.494
701.64	14.701
701.83	15.409
702.01	11.386
702.20	20.022
702.38	15.393
702.56	14.553
702.75	12.955
702.93	12.629
703.11	14.148
703.30	12.018
703.48	11.521
703.66	12.963
703.85	11.864
704.03	17.039
704.21	13.090
704.40	16.149
704.58	13.081
704.76	12.811
704.95	11.391
705.13	16.303
705.31	11.330
705.50	13.476
705.68	11.571
705.86	14.286
706.04	11.028
706.23	13.875
706.41	11.034
706.59	14.597
706.78	11.437
706.96	14.462
707.14	16.151
707.33	13.535
707.51	12.596
707.69	13.317
707.88	11.728
708.06	15.413
708.24	12.433
708.42	17.890
708.61	13.665
708.79	16.333
708.97	12.286
709.16	14.211
709.34	12.542
709.52	14.774
709.71	13.367
709.89	16.355
710.07	12.916
710.25	15.157
710.44	14.545
710.62	14.424
710.80	14.186
710.98	14.661
711.17	13.658
711.35	16.878
711.53	12.081
711.72	16.981
711.90	19.126
712.08	14.471
712.26	13.172
712.45	16.849
712.63	14.413
712.81	16.092
712.99	14.492
713.18	16.696
713.36	13.107
713.54	13.620
713.72	14.273
713.91	14.608
714.09	12.506
714.27	15.562
714.45	15.777
714.64	17.543
714.82	11.560
715.00	16.388
715.18	12.063
715.37	18.639
715.55	14.369
715.73	18.068
715.91	15.993
716.10	15.643
716.28	10.982
716.46	15.888
716.64	13.202
716.83	14.604
717.01	12.358
717.19	15.715
717.37	12.702
717.55	15.068
717.74	14.234
717.92	14.194
718.10	11.363
718.28	11.931
718.47	11.111
718.65	14.623
718.83	13.679
719.01	17.364
719.19	12.335
719.38	13.188
719.56	9.136
719.74	12.329
719.92	9.895
720.10	11.761
720.29	11.964
720.47	14.163
720.65	15.729
720.83	15.141
721.01	10.672
721.20	8.493
721.38	11.466
721.56	9.765
721.74	15.912
721.92	13.886
722.11	10.789
722.29	11.401
722.47	11.642
722.65	11.379
722.83	15.770
723.01	10.061
723.20	11.550
723.38	12.702
723.56	11.582
723.74	16.291
723.92	10.790
724.10	11.275
724.29	8.015
724.47	15.408
724.65	10.052
724.83	14.412
725.01	12.010
725.19	14.398
725.38	11.776
725.56	13.392
725.74	14.177
725.92	15.501
726.10	11.239
726.28	10.445
726.46	12.404
726.65	13.613
726.83	9.301
727.01	12.446
727.19	11.545
727.37	14.142
727.55	13.644
727.73	10.629
727.92	13.365
728.10	11.984
728.28	10.464
728.46	14.400
728.64	13.067
728.82	17.293
729.00	14.002
729.19	15.127
729.37	11.085
729.55	12.828
729.73	9.472
729.91	13.226
730.09	14.214
730.27	13.608
730.45	12.958
730.63	15.497
730.82	12.623
731.00	10.674
731.18	10.992
731.36	14.593
731.54	8.532
731.72	14.253
731.90	15.260
732.08	14.644
732.26	12.595
732.45	13.657
732.63	13.053
732.81	11.873
732.99	9.688
733.17	13.581
733.35	12.757
733.53	14.669
733.71	11.755
733.89	12.861
734.07	14.196
734.25	18.252
734.44	12.174
734.62	11.266
734.80	12.146
734.98	14.815
735.16	14.235
735.34	16.117
735.52	14.416
735.70	12.856
735.88	14.827
736.06	12.173
736.24	16.689
736.42	13.718
736.60	11.947
736.78	13.577
736.97	15.228
737.15	17.607
737.33	11.602
737.51	11.923
737.69	9.609
737.87	15.052
738.05	14.398
738.23	14.678
738.41	14.516
738.59	16.188
738.77	13.099
738.95	18.570
739.13	13.779
739.31	12.020
739.49	14.491
739.67	15.655
739.85	11.854
740.03	17.915
740.21	15.801
740.39	17.350
740.57	15.786
740.75	11.623
740.93	13.165
741.11	12.279
741.30	11.254
741.48	15.657
741.66	15.676
741.84	14.842
742.02	14.382
742.20	15.217
742.38	12.188
742.56	16.910
742.74	12.338
742.92	10.778
743.10	9.001
743.28	16.074
743.46	15.214
743.64	13.651
743.82	13.769
744.00	15.806
744.18	16.910
744.36	10.160
744.54	15.772
744.72	19.004
744.90	15.728
745.08	16.105
745.26	14.048
745.44	16.621
745.62	14.812
745.80	18.837
745.98	15.202
746.16	15.661
746.34	12.707
746.52	10.046
746.70	15.256
746.87	16.727
747.05	15.709
747.23	12.578
747.41	12.314
747.59	18.558
747.77	9.686
747.95	11.808
748.13	12.232
748.31	16.391
748.49	12.272
748.67	10.286
748.85	14.961
749.03	17.642
749.21	10.935
749.39	16.994
749.57	7.371
749.75	12.727
749.93	13.787
750.11	14.747
750.29	18.056
750.47	14.418
750.65	15.175
750.83	14.984
751.01	14.917
751.18	19.420
751.36	10.649
751.54	16.450
751.72	17.313
751.90	12.686
752.08	11.597
752.26	10.721
752.44	13.158
752.62	14.513
752.80	12.671
752.98	17.021
753.16	13.938
753.34	11.918
753.52	15.120
753.69	17.145
753.87	15.018
754.05	14.447
754.23	16.328
754.41	14.492
754.59	9.736
754.77	20.050
754.95	14.483
755.13	13.923
755.31	14.661
755.49	16.858
755.66	13.727
755.84	13.863
756.02	9.298
756.20	16.973
756.38	12.857
756.56	15.079
756.74	11.981
756.92	17.542
757.10	10.990
757.28	14.959
757.45	17.710
757.63	11.982
757.81	7.866
757.99	21.229
758.17	12.364
758.35	17.688
758.53	15.947
758.71	19.100
758.88	14.775
759.06	14.974
759.24	13.165
759.42	12.349
759.60	11.208
759.78	13.253
759.96	9.695
760.13	13.000
760.31	10.241
760.49	11.019
760.67	4.844
760.85	8.996
761.03	9.198
761.21	9.798
761.38	5.242
761.56	9.203
761.74	9.984
761.92	12.693
762.10	9.453
762.28	11.120
762.46	6.297
762.63	7.735
762.81	9.554
762.99	8.149
763.17	12.416
763.35	8.144
763.53	9.384
763.70	10.677
763.88	12.951
764.06	10.535
764.24	8.691
764.42	14.979
764.60	12.280
764.77	7.521
764.95	9.937
765.13	13.179
765.31	11.538
765.49	10.133
765.66	9.658
765.84	10.364
766.02	11.405
766.20	10.915
766.38	10.933
766.56	11.355
766.73	12.573
766.91	13.014
767.09	11.820
767.27	11.593
767.45	10.889
767.62	11.733
767.80	9.439
767.98	9.500
768.16	7.659
768.33	12.970
768.51	13.346
768.69	11.578
768.87	10.547
769.05	10.934
769.22	13.295
769.40	13.790
769.58	10.050
769.76	16.493
769.94	15.871
770.11	16.832
770.29	13.340
770.47	12.124
770.65	18.737
770.82	18.462
771.00	12.976
771.18	15.135
771.36	11.991
771.53	11.667
771.71	15.148
771.89	14.748
772.07	12.788
772.25	20.800
772.42	11.298
772.60	17.843
772.78	14.465
772.96	16.445
773.13	14.646
773.31	14.021
773.49	16.584
773.67	12.702
773.84	18.258
774.02	14.394
774.20	16.559
774.37	12.015
774.55	11.407
774.73	16.329
774.91	13.299
775.08	23.601
775.26	11.824
775.44	14.958
775.62	15.025
775.79	15.960
775.97	6.380
776.15	15.930
776.32	13.981
776.50	12.751
776.68	21.250
776.86	19.104
777.03	16.914
777.21	17.260
777.39	13.089
777.56	10.437
777.74	18.615
777.92	21.589
778.10	18.041
778.27	15.280
778.45	20.620
778.63	14.456
778.80	17.177
778.98	16.291
779.16	19.527
779.34	16.463
779.51	19.066
779.69	11.565
779.87	16.621
780.04	21.199
780.22	15.169
780.40	11.273
780.57	12.857
780.75	11.646
780.93	14.556
781.10	16.061
781.28	20.179
781.46	14.476
781.63	14.470
781.81	24.103
781.99	19.069
782.16	12.088
782.34	17.134
782.52	19.220
782.69	16.444
782.87	12.500
783.05	13.112
783.22	13.616
783.40	13.788
783.58	16.396
783.75	17.968
783.93	21.759
784.11	12.069
784.28	17.771
784.46	16.246
784.64	15.161
784.81	13.906
784.99	19.470
785.17	16.485
785.34	18.807
785.52	9.585
785.69	15.695
785.87	10.225
786.05	21.501
786.22	22.857
786.40	19.646
786.58	22.720
786.75	18.120
786.93	16.916
787.11	12.500
787.28	15.721
787.46	17.630
787.63	20.063
787.81	13.926
787.99	18.851
788.16	17.053
788.34	9.706
788.51	18.182
788.69	13.598
788.87	15.832
789.04	16.867
789.22	9.309
789.39	16.198
789.57	13.198
789.75	8.221
789.92	15.579
790.10	11.628
790.27	16.753
790.45	8.848
790.63	16.691
790.80	14.080
790.98	12.794
791.15	15.515
791.33	13.957
791.51	15.815
791.68	16.864
791.86	15.854
792.03	14.309
792.21	11.628
792.39	16.006
792.56	14.944
792.74	18.065
792.91	13.029
793.09	9.615
793.26	14.423
793.44	24.714
793.62	18.425
793.79	19.277
793.97	17.320
794.14	16.140
794.32	16.528
794.49	8.712
794.67	14.114
794.84	13.176
795.02	19.295
795.20	19.212
795.37	13.596
795.55	16.291
795.72	14.638
795.90	11.232
796.07	12.111
796.25	16.612
796.42	13.134
796.60	8.791
796.77	12.878
796.95	18.324
797.13	15.574
797.30	14.728
797.48	12.203
797.65	14.875
797.83	9.897
798.00	22.804
798.18	17.220
798.35	14.161
798.53	9.508
798.70	16.308
798.88	15.478
799.05	17.105
799.23	14.590
799.40	15.235
799.58	22.617
799.75	16.194
799.93	14.974
800.10	17.212
800.28	14.908
800.45	14.622
800.63	16.343
800.80	15.138
800.98	17.311
801.15	17.851
801.33	15.172
801.50	19.767
801.68	17.993
801.85	12.500
802.03	22.826
802.20	8.704
802.38	22.435
802.55	11.075
802.73	16.341
802.90	7.244
803.08	20.434
803.25	18.011
803.43	14.766
803.60	13.346
803.78	25.796
803.95	12.565
804.13	14.480
804.30	19.129
804.48	16.981
804.65	15.551
804.83	15.010
805.00	10.297
805.17	8.197
805.35	18.462
805.52	24.014
805.70	15.780
805.87	16.021
806.05	23.652
806.22	7.985
806.40	16.206
806.57	11.503
806.75	18.843
806.92	16.360
807.09	19.164
807.27	17.557
807.44	16.176
807.62	22.371
807.79	10.122
807.97	14.934
808.14	14.783
808.31	18.893
808.49	15.873
808.66	21.288
808.84	15.444
809.01	24.655
809.19	15.613
809.36	22.062
809.53	11.132
809.71	13.267
809.88	28.200
810.06	23.191
810.23	14.108
810.41	26.522
810.58	24.184
810.75	16.926
810.93	12.108
811.10	16.257
811.28	26.476
811.45	18.724
811.62	13.395
811.80	15.766
811.97	19.058
812.15	21.179
812.32	14.957
812.49	21.339
812.67	11.405
812.84	14.076
813.02	10.976
813.19	22.495
813.36	23.214
813.54	18.486
813.71	18.182
813.89	25.257
814.06	24.190
814.23	18.102
814.41	17.111
814.58	24.051
814.75	16.425
814.93	26.339
815.10	20.379
815.28	25.721
815.45	27.725
815.62	23.756
815.80	16.741
815.97	14.963
816.14	25.359
816.32	28.040
816.49	12.009
816.66	16.602
816.84	19.323
817.01	24.107
817.18	11.700
817.36	21.429
817.53	19.588
817.71	14.486
817.88	15.966
818.05	18.584
818.23	16.115
818.40	19.215
818.57	15.894
818.75	19.207
818.92	22.803
819.09	8.831
819.27	17.150
819.44	18.575
819.61	10.837
819.79	19.963
819.96	19.008
820.13	11.610
820.31	14.603
820.48	12.259
820.65	11.706
820.82	17.231
821.00	17.733
821.17	9.003
821.34	16.645
821.52	8.962
821.69	9.989
821.86	13.221
822.04	8.644
822.21	11.620
822.38	8.563
822.56	8.620
822.73	10.956
822.90	10.032
823.07	13.628
823.25	12.190
823.42	9.696
823.59	10.195
823.77	15.530
823.94	11.964
824.11	12.840
824.29	12.616
824.46	12.063
824.63	14.297
824.80	10.000
824.98	11.081
825.15	8.824
825.32	8.755
825.49	11.729
825.67	8.888
825.84	12.995
826.01	9.040
826.19	9.587
826.36	6.385
826.53	10.217
826.70	7.550
826.88	12.010
827.05	13.804
827.22	5.608
827.39	8.006
827.57	7.906
827.74	9.208
827.91	12.230
828.08	7.806
828.26	8.950
828.43	9.296
828.60	9.703
828.77	6.443
828.95	9.945
829.12	7.556
829.29	7.458
829.46	11.207
829.64	8.978
829.81	11.212
829.98	15.523
830.15	17.178
830.32	7.748
830.50	11.421
830.67	15.831
830.84	10.594
831.01	15.066
831.19	12.195
831.36	20.065
831.53	15.314
831.70	23.364
831.87	6.693
832.05	7.917
832.22	18.998
832.39	10.849
832.56	13.170
832.74	17.181
832.91	6.931
833.08	20.833
833.25	21.346
833.42	16.062
833.60	7.680
833.77	4.079
833.94	11.066
834.11	5.149
834.28	8.812
834.45	10.256
834.63	8.575
834.80	5.436
834.97	10.345
835.14	10.510
835.31	10.127
835.49	10.331
835.66	10.828
835.83	8.263
836.00	12.663
836.17	11.412
836.34	13.199
836.52	11.612
836.69	13.803
836.86	16.997
837.03	14.332
837.20	15.207
837.37	12.116
837.55	10.790
837.72	19.843
837.89	6.904
838.06	9.544
838.23	10.918
838.40	16.927
838.58	14.844
838.75	23.580
838.92	22.687
839.09	19.231
839.26	15.667
839.43	26.168
839.60	17.097
839.78	28.649
839.95	34.794
840.12	22.781
840.29	15.000
840.46	36.316
840.63	18.912
840.80	25.575
840.98	24.634
841.15	21.320
841.32	8.179
841.49	14.937
841.66	25.000
841.83	19.554
842.00	15.085
842.17	10.592
842.34	27.415
842.52	21.362
842.69	19.521
842.86	4.605
843.03	30.690
843.20	26.939
843.37	28.012
843.54	20.949
843.71	29.102
843.88	32.950
844.06	26.293
844.23	31.356
844.40	28.916
844.57	41.912
844.74	32.184
844.91	27.350
845.08	16.268
845.25	31.604
845.42	47.845
845.59	32.906
845.76	37.295
845.94	17.949
846.11	24.500
846.28	42.788
846.45	30.488
846.62	32.323
846.79	36.818
846.96	42.424
847.13	28.342
847.30	33.333
847.47	34.940
847.64	41.451
847.81	20.488
847.98	41.176
848.15	37.179
848.32	59.341
848.50	67.969
848.67	48.437
848.84	42.458
849.01	37.037
849.18	49.153
849.35	65.806
849.52	54.971
849.69	57.471
849.86	54.592
850.03	58.523
850.20	67.722
850.37	20.349
850.54	10.714
850.71	54.601
850.88	50.857
851.05	57.516
851.22	9.412
851.39	42.484
851.56	52.000
851.73	50.777
851.90	65.455
852.07	42.969
852.24	30.058
852.41	58.394
852.58	53.631
852.75	19.277
852.92	28.462
853.09	61.538
853.26	47.917
853.43	35.519
853.60	66.165
853.77	29.323
853.94	56.774
854.11	59.341
854.28	57.576
854.45	46.584
854.62	32.075
854.79	36.095
854.96	56.250
855.13	65.363
855.30	49.045
855.47	47.692
855.64	23.611
855.81	40.606
855.98	43.119
856.15	49.724
856.32	26.923
856.49	13.423
856.66	68.966
856.83	32.824
857.00	33.533
857.17	65.294
857.34	39.041
857.51	38.053
857.68	63.218
857.85	48.925
858.02	28.415
858.19	24.828
858.36	53.977
858.53	32.192
858.70	33.884
858.87	37.500
859.04	25.806
859.21	46.104
859.38	42.286
859.55	34.965
859.72	35.849
859.89	66.418
860.05	41.772
860.22	55.738
860.39	35.417
860.56	59.296
860.73	53.179
860.90	64.384
861.07	43.382
861.24	43.411
861.41	48.020
861.58	44.751
861.75	36.220
861.92	50.331
862.09	13.636
862.26	119.231
862.43	40.491
862.59	29.348
862.76	67.273
862.93	77.778
863.10	64.545
863.27	46.104
863.44	31.313
863.61	60.274
863.78	55.469
863.95	49.744
864.12	33.889
864.29	51.955
864.45	50.311
864.62	53.714
864.79	51.773
864.96	42.857
865.13	36.047
865.30	50.476
865.47	55.385
865.64	57.426
865.81	49.171
865.97	25.683
866.14	58.854
866.31	34.737
866.48	30.597
866.65	28.986
866.82	73.000
866.99	45.205
867.16	44.538
867.33	22.535
867.49	46.784
867.66	21.739
867.83	43.243
868.00	48.241
868.17	45.968
868.34	67.808
868.51	44.762
868.67	49.673
868.84	52.893
869.01	35.000
869.18	31.875
869.35	61.350
869.52	46.875
869.69	33.136
869.85	43.169
870.02	29.730
870.19	55.319
870.36	42.029
870.53	14.876
870.70	65.833
870.86	74.107
871.03	49.045
871.20	53.960
871.37	40.000
871.54	50.000
871.71	48.256
871.87	45.038
872.04	54.774
872.21	66.474
872.38	64.286
872.55	23.404
872.72	34.300
872.88	42.138
873.05	48.428
873.22	18.452
873.39	43.750
873.56	22.807
873.72	12.605
873.89	72.289
874.06	44.805
874.23	30.380
874.40	55.963
874.56	52.717
874.73	66.949
874.90	36.420
875.07	67.320
875.24	36.842
875.40	57.692
875.57	44.030
875.74	37.179
875.91	59.559
876.08	60.204
876.24	38.182
876.41	55.500
876.58	38.596
876.75	27.907
876.92	45.963
877.08	40.351
877.25	50.000
877.42	52.349
877.59	53.012
877.75	35.829
877.92	74.380
878.09	33.600
878.26	47.692
878.42	59.740
878.59	41.573
878.76	40.341
878.93	36.207
879.09	58.192
879.26	32.867
879.43	56.716
879.60	55.941
879.76	31.959
879.93	49.804
880.10	30.808
880.27	30.213
880.43	15.094
880.60	39.394
880.77	17.051
880.94	23.841
881.10	18.060
881.27	15.362
881.44	15.539
881.61	14.935
881.77	13.972
881.94	11.974
882.11	7.870
882.28	8.204
882.44	11.269
882.61	10.076
882.78	14.502
882.94	12.798
883.11	9.044
883.28	10.829
883.45	10.029
883.61	10.889
883.78	7.637
883.95	13.184
884.11	8.443
884.28	10.374
>>>>>End Processed Spectral Data<<<<<
