SpectraSuite Data File
++++++++++++++++++++++++++++++++++++
Date: Sun Sep 22 03:05:12 EST 2019
User: sgrac
Dark Spectrum Present: Yes
Reference Spectrum Present: Yes
Number of Sampled Component Spectra: 1
Spectrometers: USB4E01596
Integration Time (usec): 100000 (USB4E01596)
Spectra Averaged: 1 (USB4E01596)
Boxcar Smoothing: 0 (USB4E01596)
Correct for Electrical Dark: No (USB4E01596)
Strobe/Lamp Enabled: Yes (USB4E01596)
Correct for Detector Non-linearity: No (USB4E01596)
Correct for Stray Light: No (USB4E01596)
Number of Pixels in Processed Spectrum: 3648
>>>>>Begin Processed Spectral Data<<<<<
178.44	457.143
178.66	457.143
178.87	457.143
179.09	-100.000
179.30	-400.000
179.52	170.968
179.74	8000.000
179.95	777.778
180.17	9100.000
180.38	285.185
180.60	-443.750
180.82	3125.000
181.03	-133.333
181.25	334.783
181.46	-135.714
181.68	-205.000
181.89	429.412
182.11	533.333
182.33	1471.429
182.54	227.586
182.76	881.818
182.97	-214.286
183.19	276.923
183.40	-157.143
183.62	244.444
183.84	242.857
184.05	7500.000
184.27	240.000
184.48	148.936
184.70	260.714
184.91	613.333
185.13	-5550.000
185.34	878.571
185.56	-457.143
185.78	186.667
185.99	102.941
186.21	163.043
186.42	1500.000
186.64	92.105
186.85	-333.333
187.07	293.750
187.28	-1625.000
187.50	557.143
187.72	636.364
187.93	-425.000
188.15	348.485
188.36	275.676
188.58	158.462
188.79	258.065
189.01	361.538
189.22	-820.000
189.44	139.726
189.65	4000.000
189.87	2060.000
190.09	0.000
190.30	775.000
190.52	-200.000
190.73	408.696
190.95	300.000
191.16	240.000
191.38	-661.538
191.59	7000.000
191.81	182.456
192.02	660.000
192.24	-5300.000
192.45	-453.333
192.67	254.167
192.88	154.545
193.10	8100.000
193.31	-378.571
193.53	900.000
193.74	187.179
193.96	185.714
194.18	215.789
194.39	-1083.333
194.61	525.000
194.82	212.727
195.04	442.857
195.25	620.000
195.47	-247.059
195.68	-242.857
195.90	196.875
196.11	807.692
196.33	238.889
196.54	239.394
196.76	566.667
196.97	-281.250
197.19	778.571
197.40	351.515
197.62	230.303
197.83	-912.500
198.05	1666.667
198.26	132.836
198.48	540.000
198.69	-227.273
198.91	-2866.667
199.12	357.143
199.34	144.444
199.55	668.421
199.77	-257.895
199.98	-730.769
200.20	264.444
200.41	165.789
200.63	177.551
200.84	-862.500
201.06	1680.000
201.27	495.833
201.49	-442.857
201.70	0.000
201.91	260.000
202.13	172.917
202.34	114.815
202.56	727.273
202.77	289.655
202.99	-550.000
203.20	-422.222
203.42	146.053
203.63	191.667
203.85	198.113
204.06	538.462
204.28	406.667
204.49	-8400.000
204.71	297.297
204.92	300.000
205.14	286.364
205.35	361.905
205.56	208.163
205.78	1130.000
205.99	5500.000
206.21	500.000
206.42	141.667
206.64	2066.667
206.85	164.583
207.07	146.667
207.28	206.557
207.50	332.143
207.71	220.000
207.93	356.522
208.14	-600.000
208.35	-1766.667
208.57	600.000
208.78	180.435
209.00	162.121
209.21	196.970
209.43	144.928
209.64	1150.000
209.86	145.455
210.07	584.615
210.28	666.667
210.50	185.000
210.71	151.064
210.93	593.750
211.14	-9500.000
211.36	213.333
211.57	-7900.000
211.78	-1925.000
212.00	210.526
212.21	660.000
212.43	217.021
212.64	290.909
212.86	313.793
213.07	-2500.000
213.29	206.250
213.50	-205.263
213.71	145.902
213.93	980.000
214.14	550.000
214.36	446.154
214.57	354.545
214.78	167.532
215.00	142.857
215.21	527.778
215.43	424.000
215.64	-5200.000
215.86	825.000
216.07	-569.231
216.28	640.000
216.50	-138.462
216.71	1800.000
216.93	464.706
217.14	-128.571
217.35	137.500
217.57	760.000
217.78	488.235
218.00	2100.000
218.21	152.830
218.42	1211.111
218.64	2100.000
218.85	1033.333
219.07	-744.444
219.28	-322.222
219.49	285.185
219.71	357.778
219.92	274.359
220.14	330.435
220.35	4500.000
220.56	203.509
220.78	223.333
220.99	-1283.333
221.21	0.000
221.42	231.034
221.63	518.182
221.85	166.102
222.06	146.939
222.28	175.862
222.49	207.692
222.70	810.000
222.92	270.000
223.13	140.000
223.34	-633.333
223.56	153.247
223.77	127.660
223.99	508.333
224.20	104.878
224.41	181.818
224.63	162.667
224.84	224.138
225.05	131.746
225.27	82.609
225.48	148.000
225.69	200.000
225.91	95.062
226.12	157.746
226.34	61.165
226.55	123.188
226.76	71.930
226.98	97.368
227.19	145.161
227.40	234.375
227.62	134.000
227.83	83.784
228.04	126.804
228.26	54.545
228.47	102.439
228.69	37.870
228.90	31.176
229.11	46.025
229.33	36.555
229.54	33.216
229.75	38.060
229.97	35.736
230.18	21.053
230.39	29.091
230.61	20.872
230.82	43.787
231.03	16.871
231.25	24.390
231.46	33.010
231.67	28.571
231.89	30.370
232.10	25.000
232.31	22.881
232.53	31.624
232.74	43.750
232.95	46.798
233.17	49.609
233.38	29.834
233.59	45.641
233.81	37.000
234.02	44.762
234.23	24.771
234.45	58.289
234.66	39.252
234.87	34.247
235.09	52.261
235.30	29.756
235.51	31.897
235.73	25.769
235.94	33.831
236.15	53.815
236.36	42.379
236.58	34.892
236.79	23.643
237.00	36.396
237.22	35.948
237.43	20.354
237.64	34.513
237.86	45.133
238.07	54.577
238.28	52.995
238.50	39.350
238.71	34.973
238.92	41.463
239.13	46.215
239.35	42.105
239.56	20.588
239.77	46.212
239.99	38.519
240.20	28.198
240.41	9.211
240.63	36.686
240.84	36.310
241.05	18.429
241.26	30.286
241.48	20.673
241.69	20.408
241.90	13.539
242.12	16.421
242.33	5.435
242.54	16.804
242.75	19.625
242.97	20.937
243.18	13.215
243.39	15.632
243.61	14.418
243.82	16.029
244.03	14.898
244.24	13.242
244.46	16.138
244.67	15.661
244.88	13.802
245.09	11.657
245.31	8.528
245.52	13.622
245.73	8.648
245.95	26.135
246.16	21.184
246.37	14.263
246.58	14.843
246.80	11.628
247.01	11.705
247.22	9.072
247.43	7.642
247.65	7.237
247.86	10.698
248.07	9.369
248.28	6.723
248.50	10.609
248.71	9.169
248.92	8.127
249.13	8.684
249.35	10.839
249.56	9.855
249.77	10.463
249.98	8.141
250.20	8.782
250.41	17.272
250.62	16.561
250.83	8.045
251.05	15.574
251.26	17.837
251.47	18.222
251.68	8.882
251.90	13.545
252.11	15.535
252.32	16.345
252.53	16.740
252.75	14.423
252.96	14.548
253.17	10.723
253.38	9.631
253.59	10.390
253.81	10.668
254.02	9.479
254.23	13.061
254.44	19.018
254.66	10.784
254.87	12.329
255.08	14.195
255.29	22.472
255.50	18.773
255.72	12.598
255.93	15.613
256.14	12.981
256.35	25.440
256.57	23.494
256.78	5.970
256.99	18.679
257.20	25.641
257.41	15.400
257.63	7.184
257.84	14.834
258.05	21.860
258.26	7.453
258.47	9.018
258.69	8.484
258.90	13.984
259.11	13.115
259.32	11.329
259.53	8.560
259.75	10.536
259.96	5.982
260.17	10.161
260.38	9.192
260.59	9.075
260.81	8.765
261.02	8.678
261.23	7.647
261.44	7.847
261.65	8.213
261.87	7.267
262.08	5.998
262.29	8.922
262.50	6.986
262.71	9.328
262.92	10.123
263.14	7.114
263.35	9.837
263.56	8.176
263.77	10.619
263.98	11.828
264.20	14.302
264.41	14.803
264.62	9.899
264.83	12.404
265.04	14.502
265.25	11.965
265.47	10.109
265.68	14.577
265.89	9.710
266.10	9.388
266.31	10.665
266.52	13.674
266.74	14.489
266.95	10.889
267.16	9.534
267.37	14.271
267.58	11.568
267.79	5.423
268.01	10.958
268.22	8.980
268.43	7.456
268.64	10.733
268.85	9.039
269.06	6.639
269.27	10.467
269.49	8.672
269.70	12.064
269.91	8.216
270.12	9.735
270.33	12.701
270.54	12.182
270.75	8.452
270.97	9.754
271.18	11.800
271.39	7.927
271.60	6.323
271.81	7.286
272.02	11.436
272.23	8.163
272.45	8.428
272.66	7.464
272.87	8.589
273.08	5.918
273.29	5.472
273.50	8.497
273.71	6.311
273.92	1.893
274.14	7.365
274.35	8.223
274.56	9.808
274.77	10.265
274.98	6.695
275.19	4.425
275.40	10.264
275.61	4.157
275.83	9.423
276.04	10.791
276.25	12.022
276.46	10.522
276.67	12.320
276.88	12.597
277.09	9.611
277.30	9.083
277.51	8.801
277.73	12.180
277.94	8.878
278.15	7.801
278.36	14.370
278.57	5.067
278.78	7.531
278.99	9.251
279.20	9.699
279.41	12.543
279.62	6.446
279.84	8.579
280.05	9.933
280.26	11.436
280.47	8.878
280.68	16.720
280.89	9.181
281.10	9.046
281.31	10.861
281.52	11.453
281.73	7.171
281.94	5.308
282.16	9.531
282.37	9.804
282.58	4.539
282.79	8.304
283.00	9.948
283.21	8.266
283.42	5.353
283.63	9.379
283.84	9.591
284.05	6.576
284.26	9.967
284.47	6.543
284.68	9.453
284.89	8.679
285.11	9.321
285.32	7.908
285.53	9.568
285.74	6.453
285.95	8.447
286.16	7.310
286.37	7.536
286.58	6.761
286.79	6.970
287.00	9.122
287.21	6.055
287.42	6.080
287.63	4.926
287.84	6.466
288.05	8.655
288.26	6.006
288.48	9.984
288.69	7.679
288.90	7.186
289.11	11.575
289.32	9.809
289.53	8.119
289.74	5.377
289.95	6.775
290.16	7.542
290.37	8.159
290.58	6.463
290.79	6.746
291.00	3.894
291.21	7.668
291.42	7.793
291.63	7.896
291.84	8.307
292.05	4.266
292.26	6.667
292.47	5.008
292.68	7.579
292.89	5.899
293.10	6.163
293.31	9.112
293.52	8.698
293.73	5.130
293.94	6.250
294.15	5.922
294.36	8.380
294.57	11.562
294.79	10.604
295.00	4.294
295.21	7.488
295.42	9.170
295.63	5.199
295.84	5.866
296.05	7.474
296.26	5.200
296.47	7.704
296.68	5.410
296.89	7.498
297.10	9.740
297.31	8.245
297.52	6.106
297.73	7.000
297.94	5.782
298.15	6.340
298.36	8.121
298.57	6.305
298.78	7.737
298.99	5.410
299.20	5.317
299.41	7.695
299.62	6.855
299.83	4.835
300.04	6.143
300.25	6.232
300.46	8.905
300.67	6.632
300.88	7.428
301.09	4.464
301.30	7.470
301.50	5.736
301.71	7.346
301.92	11.430
302.13	5.443
302.34	9.233
302.55	5.239
302.76	5.640
302.97	4.485
303.18	9.372
303.39	7.469
303.60	5.939
303.81	6.694
304.02	5.816
304.23	5.889
304.44	5.677
304.65	6.383
304.86	7.742
305.07	7.789
305.28	7.310
305.49	10.178
305.70	10.011
305.91	6.908
306.12	7.941
306.33	7.601
306.54	9.153
306.75	8.065
306.96	7.692
307.17	5.353
307.38	8.156
307.58	10.108
307.79	7.201
308.00	8.435
308.21	8.754
308.42	6.144
308.63	9.368
308.84	7.093
309.05	7.666
309.26	9.385
309.47	6.989
309.68	7.078
309.89	6.755
310.10	6.162
310.31	7.779
310.52	6.651
310.73	8.284
310.94	4.374
311.14	4.979
311.35	6.250
311.56	9.345
311.77	5.796
311.98	5.375
312.19	6.627
312.40	4.394
312.61	7.386
312.82	5.708
313.03	9.422
313.24	4.860
313.45	7.174
313.66	5.086
313.86	6.012
314.07	6.764
314.28	7.719
314.49	6.161
314.70	6.975
314.91	9.371
315.12	6.041
315.33	6.563
315.54	7.788
315.75	4.782
315.96	6.032
316.16	8.764
316.37	9.174
316.58	8.133
316.79	6.027
317.00	8.013
317.21	7.902
317.42	8.851
317.63	6.471
317.84	7.203
318.05	5.813
318.25	6.628
318.46	5.656
318.67	8.267
318.88	5.953
319.09	6.823
319.30	5.365
319.51	10.100
319.72	7.615
319.93	9.387
320.13	9.023
320.34	7.598
320.55	7.087
320.76	9.329
320.97	5.783
321.18	10.357
321.39	7.813
321.60	5.789
321.80	9.220
322.01	9.018
322.22	7.314
322.43	8.627
322.64	7.638
322.85	9.023
323.06	9.619
323.27	7.418
323.47	9.498
323.68	8.636
323.89	6.492
324.10	9.033
324.31	6.174
324.52	8.269
324.73	8.820
324.93	7.520
325.14	9.954
325.35	7.331
325.56	8.083
325.77	11.725
325.98	7.750
326.19	6.784
326.39	6.103
326.60	9.209
326.81	5.930
327.02	5.874
327.23	6.347
327.44	11.793
327.64	6.558
327.85	4.119
328.06	8.569
328.27	12.744
328.48	11.830
328.69	5.676
328.90	7.283
329.10	4.734
329.31	7.981
329.52	8.004
329.73	9.413
329.94	6.872
330.15	10.999
330.35	6.692
330.56	6.088
330.77	7.312
330.98	8.904
331.19	8.071
331.39	8.440
331.60	9.430
331.81	6.439
332.02	9.989
332.23	8.796
332.44	5.102
332.64	9.237
332.85	8.964
333.06	9.222
333.27	7.878
333.48	9.429
333.68	7.544
333.89	7.641
334.10	7.684
334.31	13.362
334.52	7.930
334.72	10.163
334.93	10.718
335.14	8.088
335.35	7.226
335.56	9.491
335.76	3.862
335.97	10.123
336.18	7.073
336.39	12.163
336.60	9.912
336.80	9.182
337.01	5.817
337.22	12.542
337.43	11.154
337.64	13.553
337.84	9.404
338.05	9.317
338.26	13.736
338.47	13.364
338.68	8.494
338.88	13.132
339.09	8.897
339.30	10.721
339.51	8.710
339.71	10.811
339.92	9.522
340.13	11.880
340.34	9.074
340.55	8.431
340.75	11.970
340.96	7.462
341.17	11.862
341.38	9.125
341.58	11.176
341.79	9.702
342.00	7.563
342.21	12.288
342.41	6.474
342.62	10.614
342.83	10.023
343.04	7.827
343.24	12.241
343.45	15.316
343.66	10.331
343.87	12.414
344.07	9.273
344.28	12.658
344.49	11.963
344.70	15.337
344.90	12.463
345.11	10.970
345.32	11.595
345.53	11.998
345.73	13.463
345.94	17.924
346.15	15.737
346.36	16.073
346.56	14.504
346.77	18.899
346.98	16.123
347.19	20.264
347.39	13.658
347.60	16.147
347.81	16.086
348.02	16.370
348.22	11.973
348.43	15.052
348.64	11.846
348.84	16.957
349.05	13.638
349.26	18.761
349.47	11.464
349.67	15.819
349.88	19.475
350.09	14.604
350.30	20.726
350.50	18.420
350.71	16.794
350.92	19.906
351.12	17.929
351.33	18.514
351.54	16.932
351.74	20.196
351.95	16.660
352.16	21.205
352.37	21.634
352.57	17.352
352.78	15.925
352.99	21.034
353.19	17.554
353.40	19.122
353.61	19.758
353.82	23.301
354.02	20.378
354.23	18.928
354.44	22.178
354.64	20.946
354.85	19.434
355.06	22.641
355.26	18.233
355.47	20.495
355.68	22.731
355.88	23.802
356.09	23.235
356.30	21.176
356.51	22.575
356.71	21.852
356.92	18.411
357.13	25.926
357.33	25.577
357.54	22.894
357.75	18.188
357.95	27.655
358.16	19.865
358.37	27.921
358.57	21.287
358.78	26.953
358.99	22.968
359.19	25.642
359.40	25.675
359.61	23.209
359.81	26.207
360.02	29.115
360.23	20.590
360.43	24.441
360.64	22.555
360.85	27.258
361.05	20.894
361.26	29.557
361.47	24.815
361.67	28.559
361.88	21.101
362.09	26.977
362.29	23.407
362.50	26.818
362.70	20.995
362.91	29.258
363.12	23.991
363.32	26.858
363.53	27.610
363.74	28.613
363.94	21.654
364.15	28.523
364.36	24.901
364.56	25.388
364.77	26.767
364.98	28.722
365.18	23.745
365.39	28.729
365.59	22.072
365.80	24.876
366.01	24.499
366.21	25.182
366.42	23.850
366.63	26.984
366.83	24.294
367.04	21.391
367.24	25.769
367.45	25.143
367.66	20.607
367.86	26.946
368.07	23.347
368.28	25.828
368.48	23.512
368.69	22.280
368.89	24.411
369.10	24.788
369.31	21.069
369.51	26.419
369.72	27.357
369.92	26.035
370.13	22.365
370.34	26.406
370.54	16.127
370.75	23.888
370.95	19.449
371.16	25.139
371.37	21.495
371.57	24.220
371.78	20.235
371.98	24.647
372.19	22.370
372.40	25.147
372.60	23.085
372.81	23.424
373.01	21.513
373.22	22.270
373.43	23.331
373.63	24.714
373.84	24.055
374.04	23.849
374.25	23.993
374.46	23.819
374.66	24.026
374.87	24.768
375.07	18.269
375.28	21.815
375.48	21.453
375.69	24.949
375.90	17.848
376.10	21.678
376.31	21.115
376.51	21.077
376.72	22.341
376.92	21.027
377.13	23.655
377.34	25.352
377.54	20.326
377.75	25.922
377.95	20.715
378.16	24.921
378.36	22.394
378.57	23.848
378.77	22.428
378.98	24.503
379.19	22.056
379.39	22.392
379.60	21.286
379.80	23.871
380.01	21.837
380.21	21.646
380.42	23.552
380.62	22.277
380.83	22.665
381.04	20.893
381.24	21.089
381.45	22.679
381.65	19.272
381.86	23.770
382.06	21.347
382.27	20.057
382.47	18.222
382.68	24.601
382.88	17.825
383.09	19.197
383.29	20.162
383.50	23.831
383.71	18.925
383.91	20.623
384.12	18.147
384.32	22.279
384.53	17.786
384.73	18.428
384.94	18.346
385.14	21.351
385.35	18.836
385.55	20.903
385.76	19.042
385.96	21.675
386.17	22.158
386.37	21.758
386.58	20.178
386.78	23.128
386.99	17.709
387.19	21.889
387.40	18.782
387.60	24.334
387.81	19.563
388.01	21.216
388.22	20.730
388.42	24.625
388.63	21.294
388.83	22.871
389.04	17.018
389.24	20.938
389.45	19.112
389.65	20.389
389.86	17.167
390.06	18.998
390.27	17.936
390.47	20.846
390.68	18.289
390.88	21.865
391.09	19.684
391.29	23.110
391.50	19.372
391.70	21.663
391.91	18.973
392.11	20.620
392.32	20.093
392.52	21.261
392.73	19.707
392.93	21.046
393.14	19.031
393.34	21.122
393.55	21.462
393.75	22.081
393.95	20.992
394.16	20.901
394.36	21.103
394.57	21.724
394.77	19.346
394.98	20.535
395.18	20.993
395.39	20.699
395.59	20.796
395.80	21.401
396.00	19.735
396.21	21.555
396.41	17.458
396.61	21.630
396.82	19.881
397.02	20.339
397.23	19.507
397.43	19.922
397.64	17.206
397.84	21.927
398.05	15.652
398.25	20.431
398.45	18.051
398.66	21.444
398.86	18.326
399.07	21.040
399.27	17.207
399.48	21.039
399.68	17.781
399.89	19.452
400.09	18.667
400.29	17.535
400.50	18.030
400.70	20.714
400.91	17.064
401.11	19.277
401.32	17.542
401.52	17.497
401.72	17.421
401.93	21.014
402.13	17.115
402.34	18.407
402.54	16.573
402.75	20.307
402.95	15.007
403.15	19.940
403.36	15.805
403.56	19.159
403.77	16.049
403.97	19.221
404.17	16.824
404.38	20.287
404.58	16.964
404.79	18.976
404.99	20.004
405.19	18.229
405.40	18.522
405.60	19.749
405.81	18.187
406.01	19.295
406.21	16.280
406.42	19.842
406.62	18.408
406.83	17.732
407.03	18.877
407.23	19.142
407.44	17.786
407.64	18.449
407.85	18.201
408.05	19.001
408.25	16.253
408.46	19.556
408.66	17.844
408.87	17.066
409.07	17.077
409.27	17.203
409.48	15.468
409.68	17.846
409.88	15.449
410.09	17.814
410.29	18.009
410.50	17.840
410.70	15.150
410.90	17.454
411.11	15.792
411.31	17.647
411.51	16.420
411.72	18.364
411.92	17.072
412.12	17.508
412.33	15.345
412.53	17.366
412.74	13.523
412.94	16.950
413.14	17.043
413.35	18.215
413.55	16.083
413.75	19.266
413.96	14.590
414.16	17.863
414.36	17.516
414.57	17.852
414.77	15.929
414.97	17.698
415.18	15.448
415.38	16.374
415.58	16.364
415.79	17.294
415.99	16.511
416.19	17.714
416.40	17.151
416.60	17.328
416.80	15.755
417.01	17.253
417.21	14.529
417.41	19.303
417.62	17.492
417.82	18.642
418.02	16.296
418.23	19.036
418.43	16.182
418.63	18.441
418.84	17.181
419.04	18.384
419.24	18.536
419.45	18.687
419.65	19.019
419.85	18.241
420.06	18.204
420.26	18.823
420.46	19.161
420.67	18.619
420.87	17.446
421.07	18.297
421.28	18.259
421.48	17.833
421.68	18.405
421.88	18.577
422.09	17.670
422.29	18.588
422.49	18.334
422.70	18.789
422.90	18.179
423.10	17.858
423.31	18.198
423.51	19.033
423.71	17.975
423.91	18.149
424.12	18.158
424.32	18.744
424.52	17.696
424.73	17.685
424.93	17.757
425.13	17.837
425.33	18.203
425.54	17.576
425.74	17.608
425.94	17.411
426.15	18.220
426.35	18.077
426.55	18.376
426.75	17.741
426.96	18.303
427.16	18.559
427.36	18.134
427.57	18.601
427.77	17.471
427.97	18.153
428.17	18.544
428.38	17.700
428.58	16.034
428.78	17.919
428.98	15.854
429.19	18.488
429.39	15.319
429.59	17.357
429.79	14.181
430.00	17.017
430.20	15.200
430.40	17.779
430.60	15.148
430.81	17.037
431.01	15.560
431.21	16.976
431.41	15.617
431.62	16.985
431.82	14.975
432.02	17.697
432.22	16.214
432.43	16.238
432.63	14.447
432.83	16.910
433.03	15.369
433.24	16.512
433.44	16.131
433.64	17.594
433.84	16.422
434.05	17.046
434.25	16.867
434.45	17.721
434.65	17.247
434.85	17.225
435.06	17.459
435.26	17.285
435.46	16.221
435.66	17.336
435.87	16.099
436.07	17.231
436.27	15.919
436.47	16.857
436.67	15.169
436.88	17.450
437.08	15.972
437.28	16.746
437.48	16.803
437.69	17.671
437.89	15.866
438.09	17.877
438.29	17.066
438.49	17.464
438.70	17.076
438.90	17.261
439.10	16.370
439.30	16.839
439.50	16.998
439.71	16.906
439.91	16.145
440.11	17.546
440.31	16.497
440.51	17.055
440.72	16.694
440.92	17.355
441.12	16.766
441.32	17.383
441.52	16.631
441.72	17.081
441.93	17.764
442.13	17.055
442.33	16.961
442.53	17.522
442.73	16.394
442.94	17.705
443.14	17.113
443.34	17.852
443.54	16.648
443.74	17.717
443.94	16.788
444.15	17.043
444.35	16.292
444.55	16.908
444.75	16.706
444.95	17.044
445.15	17.054
445.36	17.318
445.56	15.623
445.76	16.825
445.96	17.207
446.16	16.791
446.36	16.877
446.57	16.486
446.77	16.325
446.97	16.104
447.17	16.837
447.37	17.018
447.57	16.689
447.77	16.848
447.98	17.344
448.18	17.016
448.38	17.167
448.58	17.008
448.78	16.860
448.98	17.472
449.18	17.471
449.39	17.732
449.59	16.941
449.79	17.432
449.99	17.162
450.19	17.680
450.39	16.861
450.59	16.491
450.79	16.574
451.00	16.830
451.20	18.033
451.40	17.385
451.60	15.822
451.80	17.267
452.00	16.369
452.20	16.216
452.40	15.814
452.61	16.982
452.81	15.803
453.01	16.513
453.21	16.550
453.41	17.260
453.61	15.811
453.81	16.305
454.01	16.181
454.21	16.823
454.42	16.797
454.62	17.266
454.82	15.778
455.02	16.256
455.22	14.960
455.42	15.898
455.62	15.259
455.82	16.413
456.02	16.657
456.23	16.380
456.43	16.109
456.63	16.641
456.83	15.390
457.03	16.532
457.23	15.668
457.43	15.997
457.63	15.243
457.83	15.653
458.03	15.244
458.23	16.040
458.43	14.320
458.64	16.355
458.84	15.446
459.04	16.428
459.24	16.495
459.44	15.832
459.64	16.331
459.84	15.762
460.04	16.134
460.24	16.392
460.44	15.947
460.64	16.395
460.84	16.269
461.04	16.212
461.24	16.642
461.45	16.253
461.65	16.803
461.85	17.432
462.05	17.006
462.25	16.843
462.45	17.206
462.65	16.781
462.85	15.938
463.05	17.036
463.25	15.737
463.45	16.870
463.65	16.375
463.85	16.249
464.05	16.091
464.25	16.734
464.45	16.521
464.65	16.198
464.85	15.087
465.05	15.959
465.26	15.202
465.46	17.250
465.66	16.240
465.86	16.289
466.06	15.504
466.26	16.845
466.46	15.754
466.66	15.930
466.86	16.453
467.06	15.947
467.26	15.513
467.46	16.904
467.66	16.193
467.86	16.698
468.06	16.200
468.26	16.562
468.46	16.762
468.66	16.037
468.86	15.078
469.06	16.419
469.26	15.817
469.46	17.164
469.66	16.290
469.86	16.754
470.06	16.114
470.26	16.790
470.46	15.706
470.66	16.605
470.86	15.960
471.06	15.871
471.26	14.887
471.46	15.955
471.66	16.034
471.86	16.831
472.06	16.201
472.26	17.481
472.46	16.145
472.66	16.872
472.86	15.992
473.06	16.877
473.26	15.877
473.46	16.270
473.66	16.045
473.86	17.119
474.06	16.245
474.26	16.740
474.46	15.908
474.66	17.238
474.86	16.346
475.06	17.493
475.26	15.752
475.46	17.026
475.66	15.196
475.86	16.487
476.06	16.018
476.26	17.142
476.46	16.258
476.66	17.114
476.86	16.061
477.06	16.428
477.26	16.562
477.46	16.795
477.65	16.424
477.85	17.099
478.05	15.830
478.25	17.572
478.45	16.211
478.65	16.967
478.85	16.404
479.05	16.799
479.25	16.718
479.45	17.402
479.65	16.716
479.85	17.007
480.05	16.570
480.25	18.331
480.45	17.021
480.65	17.661
480.85	16.865
481.05	18.096
481.25	17.124
481.44	16.954
481.64	16.568
481.84	17.480
482.04	16.999
482.24	17.611
482.44	16.210
482.64	17.351
482.84	16.783
483.04	17.244
483.24	16.747
483.44	16.312
483.64	16.507
483.84	16.263
484.04	16.591
484.23	16.745
484.43	17.022
484.63	18.359
484.83	18.968
485.03	20.368
485.23	19.735
485.43	19.726
485.63	19.393
485.83	18.515
486.03	17.349
486.23	18.134
486.42	17.928
486.62	17.871
486.82	17.259
487.02	17.386
487.22	17.204
487.42	17.170
487.62	17.175
487.82	17.189
488.02	17.088
488.22	17.617
488.41	17.198
488.61	17.103
488.81	17.350
489.01	17.927
489.21	17.733
489.41	17.684
489.61	17.664
489.81	18.012
490.01	17.667
490.20	18.445
490.40	17.834
490.60	17.720
490.80	17.730
491.00	17.625
491.20	17.936
491.40	17.935
491.60	16.857
491.79	16.744
491.99	17.372
492.19	17.412
492.39	17.204
492.59	17.770
492.79	17.501
492.99	17.040
493.19	17.281
493.38	18.051
493.58	18.173
493.78	18.274
493.98	18.661
494.18	17.905
494.38	18.086
494.58	18.132
494.77	18.490
494.97	18.652
495.17	17.949
495.37	18.523
495.57	17.987
495.77	17.991
495.96	18.071
496.16	18.256
496.36	17.951
496.56	18.062
496.76	17.279
496.96	17.608
497.15	18.226
497.35	18.270
497.55	18.398
497.75	18.412
497.95	18.238
498.15	17.544
498.34	18.388
498.54	18.515
498.74	17.712
498.94	17.814
499.14	17.853
499.34	18.506
499.53	18.509
499.73	19.191
499.93	18.546
500.13	18.508
500.33	18.422
500.52	18.429
500.72	18.201
500.92	18.522
501.12	18.545
501.32	18.757
501.52	18.200
501.71	19.528
501.91	18.476
502.11	18.587
502.31	18.281
502.51	17.975
502.70	18.470
502.90	19.470
503.10	18.503
503.30	19.308
503.50	18.751
503.69	19.089
503.89	18.744
504.09	18.907
504.29	18.293
504.48	18.651
504.68	18.712
504.88	19.054
505.08	17.873
505.28	18.474
505.47	18.920
505.67	18.893
505.87	18.845
506.07	18.734
506.27	18.352
506.46	18.683
506.66	17.531
506.86	18.672
507.06	18.568
507.25	19.197
507.45	19.480
507.65	19.051
507.85	18.380
508.04	19.315
508.24	19.531
508.44	19.650
508.64	18.657
508.83	19.050
509.03	19.190
509.23	18.918
509.43	18.722
509.63	19.163
509.82	18.673
510.02	18.899
510.22	19.184
510.42	19.255
510.61	18.921
510.81	19.796
511.01	18.813
511.21	18.999
511.40	18.537
511.60	19.399
511.80	18.950
511.99	19.224
512.19	18.888
512.39	19.653
512.59	19.675
512.78	19.292
512.98	19.005
513.18	19.879
513.38	19.186
513.57	19.017
513.77	19.010
513.97	19.816
514.17	19.466
514.36	19.324
514.56	18.854
514.76	19.469
514.95	19.597
515.15	19.342
515.35	19.306
515.55	20.249
515.74	19.670
515.94	20.183
516.14	18.661
516.33	19.491
516.53	19.070
516.73	19.083
516.93	19.197
517.12	19.904
517.32	19.580
517.52	19.912
517.71	19.046
517.91	19.518
518.11	18.926
518.30	19.211
518.50	19.295
518.70	19.495
518.90	18.810
519.09	19.468
519.29	19.282
519.49	19.212
519.68	19.507
519.88	19.480
520.08	19.431
520.27	19.415
520.47	19.635
520.67	19.820
520.86	19.410
521.06	19.978
521.26	19.893
521.45	19.985
521.65	20.092
521.85	20.268
522.04	19.562
522.24	19.964
522.44	20.253
522.63	20.071
522.83	20.096
523.03	20.956
523.22	20.547
523.42	20.983
523.62	19.539
523.81	19.852
524.01	19.610
524.21	19.748
524.40	19.421
524.60	19.772
524.80	18.677
524.99	20.473
525.19	19.502
525.39	19.613
525.58	19.101
525.78	19.116
525.98	19.717
526.17	20.136
526.37	19.691
526.57	19.856
526.76	20.164
526.96	19.492
527.15	19.711
527.35	19.436
527.55	19.702
527.74	19.808
527.94	19.248
528.14	18.971
528.33	18.267
528.53	18.904
528.72	19.026
528.92	19.268
529.12	19.227
529.31	19.479
529.51	19.910
529.71	19.837
529.90	20.241
530.10	20.237
530.29	20.326
530.49	20.770
530.69	20.513
530.88	20.051
531.08	20.115
531.28	20.512
531.47	20.086
531.67	20.122
531.86	19.573
532.06	19.824
532.26	19.893
532.45	20.258
532.65	19.765
532.84	19.674
533.04	19.729
533.24	18.902
533.43	19.138
533.63	19.806
533.82	19.677
534.02	19.659
534.22	19.783
534.41	19.763
534.61	19.942
534.80	19.911
535.00	20.325
535.19	20.097
535.39	20.374
535.59	20.273
535.78	20.408
535.98	19.476
536.17	19.829
536.37	20.184
536.57	19.495
536.76	20.062
536.96	19.531
537.15	19.751
537.35	20.148
537.54	19.947
537.74	20.098
537.93	19.983
538.13	19.885
538.33	20.160
538.52	20.344
538.72	20.656
538.91	20.597
539.11	20.850
539.30	20.301
539.50	20.444
539.70	20.560
539.89	20.292
540.09	20.396
540.28	20.779
540.48	19.757
540.67	20.162
540.87	19.270
541.06	19.554
541.26	19.283
541.45	19.492
541.65	20.075
541.85	20.117
542.04	19.900
542.24	20.199
542.43	19.685
542.63	20.200
542.82	20.271
543.02	20.373
543.21	20.466
543.41	20.562
543.60	20.356
543.80	20.671
543.99	20.614
544.19	20.609
544.38	20.771
544.58	20.411
544.77	20.419
544.97	20.689
545.16	20.202
545.36	20.824
545.56	20.663
545.75	20.961
545.95	20.543
546.14	20.241
546.34	20.641
546.53	20.460
546.73	20.582
546.92	20.612
547.12	19.988
547.31	21.032
547.51	21.030
547.70	20.720
547.90	20.240
548.09	20.791
548.29	20.653
548.48	21.179
548.68	21.580
548.87	20.449
549.07	21.406
549.26	21.023
549.46	21.677
549.65	21.596
549.84	21.631
550.04	21.738
550.23	21.317
550.43	21.258
550.62	20.820
550.82	21.338
551.01	21.241
551.21	21.424
551.40	20.869
551.60	21.540
551.79	21.149
551.99	21.317
552.18	21.224
552.38	21.536
552.57	21.161
552.77	21.673
552.96	21.265
553.16	21.112
553.35	20.937
553.54	21.484
553.74	21.409
553.93	21.167
554.13	21.781
554.32	22.165
554.52	22.303
554.71	21.647
554.91	20.788
555.10	21.352
555.29	21.525
555.49	22.054
555.68	21.586
555.88	22.679
556.07	21.594
556.27	21.543
556.46	21.895
556.66	21.419
556.85	20.933
557.04	22.382
557.24	21.603
557.43	23.562
557.63	22.248
557.82	20.867
558.02	21.383
558.21	22.129
558.40	21.012
558.60	22.448
558.79	21.176
558.99	22.852
559.18	21.201
559.38	21.967
559.57	21.808
559.76	22.242
559.96	23.089
560.15	22.916
560.35	20.991
560.54	22.684
560.73	22.051
560.93	22.919
561.12	22.133
561.32	22.865
561.51	22.554
561.70	22.278
561.90	21.617
562.09	22.160
562.29	22.212
562.48	22.470
562.67	21.610
562.87	22.299
563.06	22.173
563.26	21.524
563.45	22.439
563.64	22.841
563.84	22.064
564.03	22.682
564.23	21.890
564.42	23.215
564.61	22.292
564.81	22.679
565.00	23.407
565.20	22.622
565.39	23.302
565.58	22.187
565.78	22.410
565.97	23.021
566.16	22.225
566.36	23.273
566.55	21.960
566.74	22.099
566.94	22.046
567.13	22.557
567.33	23.171
567.52	22.236
567.71	22.383
567.91	22.871
568.10	23.115
568.29	23.447
568.49	23.035
568.68	22.714
568.87	22.524
569.07	22.787
569.26	22.982
569.45	22.973
569.65	22.850
569.84	22.719
570.04	22.639
570.23	22.869
570.42	22.487
570.62	23.562
570.81	23.013
571.00	23.319
571.20	22.711
571.39	22.611
571.58	22.907
571.78	22.487
571.97	23.302
572.16	22.680
572.36	23.013
572.55	23.288
572.74	22.299
572.94	22.608
573.13	23.030
573.32	22.454
573.51	23.105
573.71	22.807
573.90	23.171
574.09	23.159
574.29	23.401
574.48	23.821
574.67	23.483
574.87	23.030
575.06	21.840
575.25	23.293
575.45	22.303
575.64	23.341
575.83	22.345
576.03	23.655
576.22	22.637
576.41	23.149
576.60	22.968
576.80	22.535
576.99	22.964
577.18	23.224
577.38	22.874
577.57	22.754
577.76	22.427
577.95	23.010
578.15	22.932
578.34	22.805
578.53	23.055
578.73	23.445
578.92	23.102
579.11	23.519
579.30	23.389
579.50	23.175
579.69	22.488
579.88	23.418
580.08	22.465
580.27	24.101
580.46	23.268
580.65	23.597
580.85	22.523
581.04	22.962
581.23	22.288
581.42	23.987
581.62	23.516
581.81	22.075
582.00	22.249
582.19	22.991
582.39	22.155
582.58	22.882
582.77	21.953
582.96	22.347
583.16	23.154
583.35	23.640
583.54	21.658
583.73	23.676
583.93	21.978
584.12	23.545
584.31	23.015
584.50	23.766
584.70	21.021
584.89	22.164
585.08	21.818
585.27	23.429
585.47	21.763
585.66	22.782
585.85	21.242
586.04	23.035
586.24	23.671
586.43	22.776
586.62	22.801
586.81	22.913
587.00	21.652
587.20	22.228
587.39	20.895
587.58	23.006
587.77	21.937
587.97	22.038
588.16	22.924
588.35	23.515
588.54	21.843
588.73	23.569
588.93	22.702
589.12	22.482
589.31	21.884
589.50	21.372
589.69	20.686
589.89	22.470
590.08	21.589
590.27	22.867
590.46	22.346
590.65	23.189
590.85	22.285
591.04	22.493
591.23	21.227
591.42	22.421
591.61	21.517
591.81	22.802
592.00	21.668
592.19	21.959
592.38	21.736
592.57	23.924
592.77	21.639
592.96	22.376
593.15	21.793
593.34	22.419
593.53	21.844
593.72	21.449
593.92	21.319
594.11	21.560
594.30	21.250
594.49	22.901
594.68	21.963
594.87	23.023
595.07	21.259
595.26	21.931
595.45	22.056
595.64	22.985
595.83	22.353
596.02	22.496
596.22	21.976
596.41	22.401
596.60	22.298
596.79	22.407
596.98	23.101
597.17	22.767
597.37	22.058
597.56	21.827
597.75	22.172
597.94	22.588
598.13	21.479
598.32	22.306
598.51	22.137
598.71	22.822
598.90	21.983
599.09	22.044
599.28	21.709
599.47	21.574
599.66	21.360
599.85	22.077
600.05	20.976
600.24	23.033
600.43	21.556
600.62	22.425
600.81	21.209
601.00	23.194
601.19	21.357
601.38	21.948
601.58	21.353
601.77	22.330
601.96	22.455
602.15	21.788
602.34	21.635
602.53	22.417
602.72	21.517
602.91	21.795
603.10	22.346
603.30	22.202
603.49	21.642
603.68	22.784
603.87	21.204
604.06	21.951
604.25	22.626
604.44	22.175
604.63	22.358
604.82	21.781
605.01	22.006
605.21	23.304
605.40	21.336
605.59	22.796
605.78	21.957
605.97	22.820
606.16	21.872
606.35	22.553
606.54	22.921
606.73	23.522
606.92	21.406
607.11	23.193
607.30	21.935
607.50	22.437
607.69	21.613
607.88	22.670
608.07	21.448
608.26	23.110
608.45	21.785
608.64	22.585
608.83	22.042
609.02	22.084
609.21	22.285
609.40	23.136
609.59	21.512
609.78	22.592
609.97	21.239
610.16	22.074
610.35	22.014
610.55	22.222
610.74	21.408
610.93	21.837
611.12	21.772
611.31	22.531
611.50	20.713
611.69	22.028
611.88	21.632
612.07	22.420
612.26	21.790
612.45	23.700
612.64	21.254
612.83	22.232
613.02	21.890
613.21	20.576
613.40	21.213
613.59	21.906
613.78	20.480
613.97	21.056
614.16	20.667
614.35	22.258
614.54	20.410
614.73	20.631
614.92	20.012
615.11	20.544
615.30	19.587
615.49	20.228
615.68	19.499
615.87	21.449
616.07	20.284
616.26	20.089
616.45	20.306
616.64	21.616
616.83	20.325
617.02	21.475
617.21	18.436
617.40	20.357
617.59	20.385
617.78	21.690
617.97	19.158
618.16	20.880
618.35	17.749
618.54	20.645
618.73	19.097
618.92	20.467
619.11	20.141
619.30	20.141
619.49	17.980
619.68	20.920
619.86	18.894
620.05	20.176
620.24	19.575
620.43	20.790
620.62	17.945
620.81	20.176
621.00	20.129
621.19	21.758
621.38	19.615
621.57	20.544
621.76	20.515
621.95	20.621
622.14	19.971
622.33	20.758
622.52	18.399
622.71	21.052
622.90	17.670
623.09	20.499
623.28	19.419
623.47	19.761
623.66	18.796
623.85	20.440
624.04	19.754
624.23	20.831
624.42	19.740
624.61	19.635
624.80	17.252
624.99	20.412
625.18	17.800
625.36	20.326
625.55	17.846
625.74	19.854
625.93	18.061
626.12	21.104
626.31	20.314
626.50	21.717
626.69	19.557
626.88	20.855
627.07	20.432
627.26	21.049
627.45	20.170
627.64	19.295
627.83	19.407
628.02	20.139
628.20	20.006
628.39	20.212
628.58	19.103
628.77	21.461
628.96	18.807
629.15	20.918
629.34	19.450
629.53	20.531
629.72	18.640
629.91	20.796
630.10	18.325
630.29	19.951
630.47	19.286
630.66	21.064
630.85	19.904
631.04	20.529
631.23	20.031
631.42	19.772
631.61	18.746
631.80	22.082
631.99	18.672
632.18	20.552
632.36	18.367
632.55	20.834
632.74	18.401
632.93	20.106
633.12	17.603
633.31	19.133
633.50	18.431
633.69	19.624
633.88	17.569
634.06	19.731
634.25	18.407
634.44	19.961
634.63	18.308
634.82	20.815
635.01	17.983
635.20	19.915
635.39	18.615
635.57	18.970
635.76	19.286
635.95	19.062
636.14	18.704
636.33	20.894
636.52	18.372
636.71	18.802
636.89	19.024
637.08	18.558
637.27	19.014
637.46	19.611
637.65	17.322
637.84	18.967
638.03	17.311
638.21	19.776
638.40	19.150
638.59	18.992
638.78	18.240
638.97	18.782
639.16	19.504
639.34	18.838
639.53	18.058
639.72	19.353
639.91	16.511
640.10	15.826
640.29	17.705
640.47	19.930
640.66	16.801
640.85	19.352
641.04	15.427
641.23	18.225
641.42	16.969
641.60	17.017
641.79	17.187
641.98	17.539
642.17	16.870
642.36	18.831
642.54	15.929
642.73	17.477
642.92	16.186
643.11	17.732
643.30	15.398
643.49	18.897
643.67	14.005
643.86	18.615
644.05	16.127
644.24	18.806
644.43	15.124
644.61	18.853
644.80	15.215
644.99	17.702
645.18	17.369
645.37	17.594
645.55	16.307
645.74	18.473
645.93	16.727
646.12	17.861
646.31	16.137
646.49	17.378
646.68	18.449
646.87	18.049
647.06	15.173
647.24	17.788
647.43	15.846
647.62	19.081
647.81	16.094
648.00	17.805
648.18	15.484
648.37	16.611
648.56	16.177
648.75	18.625
648.93	15.595
649.12	18.013
649.31	15.298
649.50	18.042
649.68	15.280
649.87	18.706
650.06	15.474
650.25	17.314
650.43	14.967
650.62	16.946
650.81	16.343
651.00	16.166
651.18	15.989
651.37	18.758
651.56	14.588
651.75	17.305
651.93	15.828
652.12	18.434
652.31	15.757
652.50	18.067
652.68	17.742
652.87	18.038
653.06	17.634
653.25	18.537
653.43	15.422
653.62	16.958
653.81	16.577
654.00	18.196
654.18	14.653
654.37	16.848
654.56	15.533
654.74	14.247
654.93	15.376
655.12	15.710
655.31	12.906
655.49	16.746
655.68	13.196
655.87	15.228
656.05	11.562
656.24	15.764
656.43	13.869
656.62	14.641
656.80	15.477
656.99	14.860
657.18	12.091
657.36	14.485
657.55	15.530
657.74	15.315
657.93	14.602
658.11	17.622
658.30	15.015
658.49	15.714
658.67	13.100
658.86	13.850
659.05	12.695
659.23	18.290
659.42	14.478
659.61	17.461
659.79	14.090
659.98	17.182
660.17	15.737
660.35	17.488
660.54	16.027
660.73	17.405
660.91	15.713
661.10	17.020
661.29	13.930
661.47	15.957
661.66	15.110
661.85	15.858
662.03	14.750
662.22	13.299
662.41	12.552
662.59	14.792
662.78	12.563
662.97	15.151
663.15	11.904
663.34	13.275
663.53	12.279
663.71	12.962
663.90	13.024
664.09	15.093
664.27	13.181
664.46	14.455
664.65	12.655
664.83	13.586
665.02	8.820
665.21	10.687
665.39	9.903
665.58	14.016
665.77	11.643
665.95	10.791
666.14	10.403
666.32	11.949
666.51	10.670
666.70	11.797
666.88	9.393
667.07	11.915
667.26	8.067
667.44	10.864
667.63	9.761
667.81	8.323
668.00	11.514
668.19	14.763
668.37	10.303
668.56	14.562
668.75	7.249
668.93	13.401
669.12	9.600
669.30	11.194
669.49	9.814
669.68	11.738
669.86	11.104
670.05	9.857
670.23	10.123
670.42	10.212
670.61	11.774
670.79	11.788
670.98	11.918
671.16	13.467
671.35	10.083
671.54	11.997
671.72	9.548
671.91	11.409
672.09	9.787
672.28	12.840
672.46	11.017
672.65	12.231
672.84	9.005
673.02	12.066
673.21	7.460
673.39	10.152
673.58	9.576
673.77	10.853
673.95	9.312
674.14	10.938
674.32	8.234
674.51	13.261
674.69	10.377
674.88	10.375
675.07	10.852
675.25	14.261
675.44	12.234
675.62	10.838
675.81	10.007
675.99	15.808
676.18	11.498
676.36	10.587
676.55	10.121
676.74	13.603
676.92	10.717
677.11	11.839
677.29	9.228
677.48	13.484
677.66	10.369
677.85	10.671
678.03	12.636
678.22	12.508
678.40	11.092
678.59	11.308
678.78	9.533
678.96	9.247
679.15	10.215
679.33	12.551
679.52	12.009
679.70	13.874
679.89	11.244
680.07	15.190
680.26	10.693
680.44	12.129
680.63	12.075
680.81	12.597
681.00	10.046
681.18	11.935
681.37	12.452
681.55	16.569
681.74	13.634
681.92	13.244
682.11	14.497
682.29	12.131
682.48	12.921
682.66	14.128
682.85	11.981
683.03	17.398
683.22	12.826
683.40	15.772
683.59	14.290
683.77	15.771
683.96	11.585
684.14	15.021
684.33	10.477
684.51	16.484
684.70	13.753
684.88	15.804
685.07	12.910
685.25	13.909
685.44	10.887
685.62	17.041
685.81	11.010
685.99	14.003
686.18	11.174
686.36	15.765
686.55	10.807
686.73	14.353
686.92	14.350
687.10	15.865
687.29	14.165
687.47	15.979
687.65	14.408
687.84	14.662
688.02	16.684
688.21	18.417
688.39	12.535
688.58	16.830
688.76	13.211
688.95	14.865
689.13	13.849
689.32	17.443
689.50	16.379
689.68	17.069
689.87	12.719
690.05	17.385
690.24	16.819
690.42	17.344
690.61	14.830
690.79	16.815
690.98	15.836
691.16	15.857
691.34	12.644
691.53	16.605
691.71	14.340
691.90	16.660
692.08	12.427
692.27	16.871
692.45	18.287
692.63	15.634
692.82	15.810
693.00	15.083
693.19	13.648
693.37	18.207
693.56	14.688
693.74	17.747
693.92	13.888
694.11	17.130
694.29	16.334
694.48	15.397
694.66	14.801
694.84	16.357
695.03	15.519
695.21	17.928
695.40	16.803
695.58	20.067
695.76	16.211
695.95	20.701
696.13	15.502
696.32	17.598
696.50	23.707
696.68	16.605
696.87	14.794
697.05	19.538
697.24	16.844
697.42	21.360
697.60	16.035
697.79	19.236
697.97	18.907
698.16	18.851
698.34	15.037
698.52	21.770
698.71	18.619
698.89	20.205
699.07	19.439
699.26	20.756
699.44	20.430
699.63	22.406
699.81	18.952
699.99	23.321
700.18	21.994
700.36	23.264
700.54	20.878
700.73	20.975
700.91	19.338
701.09	20.731
701.28	21.642
701.46	22.035
701.64	17.265
701.83	20.765
702.01	17.341
702.20	25.309
702.38	18.755
702.56	20.739
702.75	18.022
702.93	18.985
703.11	18.753
703.30	20.439
703.48	16.859
703.66	18.254
703.85	16.949
704.03	19.563
704.21	17.859
704.40	22.505
704.58	16.387
704.76	18.363
704.95	16.917
705.13	20.330
705.31	16.275
705.50	19.922
705.68	17.233
705.86	19.876
706.04	19.722
706.23	19.772
706.41	17.635
706.59	20.223
706.78	17.722
706.96	21.123
707.14	21.011
707.33	20.935
707.51	17.692
707.69	16.442
707.88	18.243
708.06	20.321
708.24	16.497
708.42	23.745
708.61	16.079
708.79	22.566
708.97	18.905
709.16	21.506
709.34	19.002
709.52	19.668
709.71	19.609
709.89	21.308
710.07	17.526
710.25	21.070
710.44	19.529
710.62	20.600
710.80	18.572
710.98	20.655
711.17	17.874
711.35	24.443
711.53	18.651
711.72	23.914
711.90	24.578
712.08	20.098
712.26	19.207
712.45	23.895
712.63	21.017
712.81	19.894
712.99	19.819
713.18	22.232
713.36	18.948
713.54	21.685
713.72	21.704
713.91	21.290
714.09	18.260
714.27	20.974
714.45	21.888
714.64	22.529
714.82	19.638
715.00	20.688
715.18	17.792
715.37	22.065
715.55	20.251
715.73	20.528
715.91	18.893
716.10	21.515
716.28	16.988
716.46	21.368
716.64	17.395
716.83	21.513
717.01	16.288
717.19	21.197
717.37	17.145
717.55	20.324
717.74	19.100
717.92	21.383
718.10	15.936
718.28	18.049
718.47	18.326
718.65	22.814
718.83	18.321
719.01	20.879
719.19	21.145
719.38	14.005
719.56	14.442
719.74	17.237
719.92	13.156
720.10	16.400
720.29	14.503
720.47	16.505
720.65	17.623
720.83	18.133
721.01	12.205
721.20	15.490
721.38	15.780
721.56	16.094
721.74	19.245
721.92	19.837
722.11	15.773
722.29	17.041
722.47	17.647
722.65	17.069
722.83	19.743
723.01	19.939
723.20	17.295
723.38	19.533
723.56	17.658
723.74	21.679
723.92	15.222
724.10	18.770
724.29	16.844
724.47	19.671
724.65	14.491
724.83	16.814
725.01	15.012
725.19	21.335
725.38	15.701
725.56	21.605
725.74	18.245
725.92	18.336
726.10	17.011
726.28	17.408
726.46	18.990
726.65	19.593
726.83	17.640
727.01	16.739
727.19	15.749
727.37	19.941
727.55	19.256
727.73	15.855
727.92	17.760
728.10	16.628
728.28	13.698
728.46	20.800
728.64	18.198
728.82	20.706
729.00	18.145
729.19	21.530
729.37	16.193
729.55	19.130
729.73	17.336
729.91	18.982
730.09	19.878
730.27	20.045
730.45	20.284
730.63	19.825
730.82	17.661
731.00	14.897
731.18	16.065
731.36	20.465
731.54	15.984
731.72	18.285
731.90	17.999
732.08	16.425
732.26	18.192
732.45	19.900
732.63	19.607
732.81	17.837
732.99	15.014
733.17	19.401
733.35	17.449
733.53	20.525
733.71	17.717
733.89	21.813
734.07	21.635
734.25	20.243
734.44	17.157
734.62	17.131
734.80	18.045
734.98	24.633
735.16	16.260
735.34	21.344
735.52	23.831
735.70	22.609
735.88	20.603
736.06	22.881
736.24	22.319
736.42	23.205
736.60	19.115
736.78	18.394
736.97	20.530
737.15	21.871
737.33	17.814
737.51	20.795
737.69	20.041
737.87	19.652
738.05	20.559
738.23	21.247
738.41	21.909
738.59	21.540
738.77	19.971
738.95	26.279
739.13	18.827
739.31	21.523
739.49	19.549
739.67	23.279
739.85	20.400
740.03	23.233
740.21	23.736
740.39	27.438
740.57	20.719
740.75	18.001
740.93	21.295
741.11	22.371
741.30	18.447
741.48	20.851
741.66	19.465
741.84	21.161
742.02	19.896
742.20	23.406
742.38	19.844
742.56	24.827
742.74	18.964
742.92	20.477
743.10	15.866
743.28	26.584
743.46	21.315
743.64	22.052
743.82	21.322
744.00	23.387
744.18	25.923
744.36	21.280
744.54	18.827
744.72	25.477
744.90	23.427
745.08	27.656
745.26	22.361
745.44	23.848
745.62	19.833
745.80	21.615
745.98	21.617
746.16	25.459
746.34	21.845
746.52	18.710
746.70	21.252
746.87	25.180
747.05	22.711
747.23	24.264
747.41	23.231
747.59	24.099
747.77	19.197
747.95	22.694
748.13	21.250
748.31	24.324
748.49	19.751
748.67	19.231
748.85	21.172
749.03	26.802
749.21	17.112
749.39	21.178
749.57	17.584
749.75	20.606
749.93	20.506
750.11	19.023
750.29	22.222
750.47	22.344
750.65	23.421
750.83	20.928
751.01	19.917
751.18	20.035
751.36	20.300
751.54	24.416
751.72	23.535
751.90	24.147
752.08	20.339
752.26	20.270
752.44	16.941
752.62	25.419
752.80	19.435
752.98	21.617
753.16	23.342
753.34	23.208
753.52	19.502
753.69	22.720
753.87	22.212
754.05	19.843
754.23	19.797
754.41	22.797
754.59	18.016
754.77	24.109
754.95	22.414
755.13	18.214
755.31	21.695
755.49	21.440
755.66	23.273
755.84	20.980
756.02	16.044
756.20	23.097
756.38	16.875
756.56	23.633
756.74	19.340
756.92	28.050
757.10	17.802
757.28	26.383
757.45	24.776
757.63	19.912
757.81	16.456
757.99	28.636
758.17	21.455
758.35	22.417
758.53	26.744
758.71	24.242
758.88	16.937
759.06	23.292
759.24	21.011
759.42	20.898
759.60	18.389
759.78	15.020
759.96	13.106
760.13	18.417
760.31	13.597
760.49	13.670
760.67	11.741
760.85	15.823
761.03	12.405
761.21	12.065
761.38	11.855
761.56	15.004
761.74	11.192
761.92	16.111
762.10	12.852
762.28	13.921
762.46	9.320
762.63	12.839
762.81	15.662
762.99	12.643
763.17	16.081
763.35	11.473
763.53	9.110
763.70	15.146
763.88	17.349
764.06	14.366
764.24	15.710
764.42	16.561
764.60	15.907
764.77	14.730
764.95	15.115
765.13	20.242
765.31	18.191
765.49	16.224
765.66	12.225
765.84	14.447
766.02	17.204
766.20	18.915
766.38	20.543
766.56	18.022
766.73	17.006
766.91	21.915
767.09	20.995
767.27	18.474
767.45	18.121
767.62	17.778
767.80	12.856
767.98	19.763
768.16	15.666
768.33	20.662
768.51	14.260
768.69	19.514
768.87	16.395
769.05	21.173
769.22	20.713
769.40	22.619
769.58	19.900
769.76	23.800
769.94	18.403
770.11	19.802
770.29	22.130
770.47	16.309
770.65	23.085
770.82	28.242
771.00	24.511
771.18	19.843
771.36	23.190
771.53	20.667
771.71	21.982
771.89	23.261
772.07	21.198
772.25	27.543
772.42	20.673
772.60	28.113
772.78	23.804
772.96	24.063
773.13	20.288
773.31	23.291
773.49	26.733
773.67	18.431
773.84	24.105
774.02	22.096
774.20	25.356
774.37	25.364
774.55	19.265
774.73	29.797
774.91	19.687
775.08	25.912
775.26	25.031
775.44	22.853
775.62	18.182
775.79	25.935
775.97	17.448
776.15	18.474
776.32	28.495
776.50	25.645
776.68	27.917
776.86	25.033
777.03	24.777
777.21	28.986
777.39	20.157
777.56	18.336
777.74	28.139
777.92	25.430
778.10	17.139
778.27	24.829
778.45	24.124
778.63	21.908
778.80	17.577
778.98	25.828
779.16	24.502
779.34	22.721
779.51	22.438
779.69	23.946
779.87	24.725
780.04	28.870
780.22	21.208
780.40	20.690
780.57	25.286
780.75	24.845
780.93	22.416
781.10	26.816
781.28	31.540
781.46	19.645
781.63	22.923
781.81	34.864
781.99	26.577
782.16	24.490
782.34	17.430
782.52	24.133
782.69	23.556
782.87	10.505
783.05	18.300
783.22	18.911
783.40	24.383
783.58	25.406
783.75	21.208
783.93	21.610
784.11	22.100
784.28	25.452
784.46	24.510
784.64	17.581
784.81	17.812
784.99	24.299
785.17	29.860
785.34	21.713
785.52	24.601
785.69	24.365
785.87	16.464
786.05	29.004
786.22	25.113
786.40	24.155
786.58	27.202
786.75	23.590
786.93	20.060
787.11	18.829
787.28	28.384
787.46	29.333
787.63	21.944
787.81	22.963
787.99	26.510
788.16	23.056
788.34	17.059
788.51	24.615
788.69	24.363
788.87	22.327
789.04	23.293
789.22	17.819
789.39	21.017
789.57	14.340
789.75	15.546
789.92	22.104
790.10	18.217
790.27	22.165
790.45	18.258
790.63	25.329
790.80	22.414
790.98	21.765
791.15	28.209
791.33	22.734
791.51	21.885
791.68	32.840
791.86	24.390
792.03	27.974
792.21	18.023
792.39	19.493
792.56	20.668
792.74	23.548
792.91	24.535
793.09	19.071
793.26	22.436
793.44	25.696
793.62	24.288
793.79	25.753
793.97	28.431
794.14	22.632
794.32	26.210
794.49	18.371
794.67	19.966
794.84	21.622
795.02	23.826
795.20	30.378
795.37	19.857
795.55	29.983
795.72	19.737
795.90	14.665
796.07	30.442
796.25	26.480
796.42	20.746
796.60	21.978
796.77	17.488
796.95	22.443
797.13	21.803
797.30	19.735
797.48	14.105
797.65	24.742
797.83	16.691
798.00	23.883
798.18	15.798
798.35	21.022
798.53	19.185
798.70	26.154
798.88	24.000
799.05	19.408
799.23	22.644
799.40	16.532
799.58	22.294
799.75	19.032
799.93	18.589
800.10	27.596
800.28	19.933
800.45	25.042
800.63	18.608
800.80	24.924
800.98	24.706
801.15	25.124
801.33	19.310
801.50	25.249
801.68	20.242
801.85	20.139
802.03	23.913
802.20	29.074
802.38	23.478
802.55	18.567
802.73	27.353
802.90	19.611
803.08	15.009
803.25	24.390
803.43	27.103
803.60	28.885
803.78	26.131
803.95	20.998
804.13	31.687
804.30	28.030
804.48	17.925
804.65	19.488
804.83	23.587
805.00	26.178
805.17	22.951
805.35	32.885
805.52	33.154
805.70	25.000
805.87	29.930
806.05	25.739
806.22	19.011
806.40	17.127
806.57	15.399
806.75	21.455
806.92	26.103
807.09	24.390
807.27	16.412
807.44	24.816
807.62	24.665
807.79	20.768
807.97	14.934
808.14	26.261
808.31	19.847
808.49	25.794
808.66	30.054
808.84	20.463
809.01	22.880
809.19	22.332
809.36	30.722
809.53	12.476
809.71	23.564
809.88	31.354
810.06	27.829
810.23	22.614
810.41	23.913
810.58	26.679
810.75	22.374
810.93	21.300
811.10	29.868
811.28	29.905
811.45	23.457
811.62	27.945
811.80	19.595
811.97	13.004
812.15	34.498
812.32	20.726
812.49	28.033
812.67	31.365
812.84	23.950
813.02	20.488
813.19	20.983
813.36	29.911
813.54	21.604
813.71	39.952
813.89	33.060
814.06	34.557
814.23	29.139
814.41	19.778
814.58	34.177
814.75	24.879
814.93	17.857
815.10	34.597
815.28	34.375
815.45	20.142
815.62	25.792
815.80	22.098
815.97	16.209
816.14	39.234
816.32	28.288
816.49	17.552
816.66	23.828
816.84	30.080
817.01	22.991
817.18	25.166
817.36	27.489
817.53	17.010
817.71	23.598
817.88	22.059
818.05	20.575
818.23	16.556
818.40	23.967
818.57	19.868
818.75	15.658
818.92	26.778
819.09	16.468
819.27	22.705
819.44	12.959
819.61	18.061
819.79	20.336
819.96	24.628
820.13	16.854
820.31	15.527
820.48	14.536
820.65	15.719
820.82	20.154
821.00	16.570
821.17	8.310
821.34	21.255
821.52	13.208
821.69	14.878
821.86	14.712
822.04	13.898
822.21	11.825
822.38	12.994
822.56	14.350
822.73	14.728
822.90	13.863
823.07	17.713
823.25	14.706
823.42	15.116
823.59	14.962
823.77	17.322
823.94	15.995
824.11	17.575
824.29	15.427
824.46	18.258
824.63	18.971
824.80	15.214
824.98	17.079
825.15	15.294
825.32	12.289
825.49	16.148
825.67	11.995
825.84	16.770
826.01	14.972
826.19	13.569
826.36	11.333
826.53	13.998
826.70	12.248
826.88	16.585
827.05	12.818
827.22	12.559
827.39	13.579
827.57	14.601
827.74	16.604
827.91	14.460
828.08	12.786
828.26	12.719
828.43	11.338
828.60	16.926
828.77	12.063
828.95	14.088
829.12	9.704
829.29	11.628
829.46	17.241
829.64	10.602
829.81	14.141
829.98	18.796
830.15	18.814
830.32	13.680
830.50	13.944
830.67	21.003
830.84	12.681
831.01	15.510
831.19	24.564
831.36	23.139
831.53	21.218
831.70	20.748
831.87	16.929
832.05	24.792
832.22	20.042
832.39	11.792
832.56	33.259
832.74	11.894
832.91	14.257
833.08	26.786
833.25	15.192
833.42	22.798
833.60	12.418
833.77	11.782
833.94	14.208
834.11	4.065
834.28	13.410
834.45	16.434
834.63	10.134
834.80	10.051
834.97	14.483
835.14	12.755
835.31	16.358
835.49	13.641
835.66	12.102
835.83	18.750
836.00	13.136
836.17	14.350
836.34	16.528
836.52	12.158
836.69	15.125
836.86	22.946
837.03	23.349
837.20	22.645
837.37	19.454
837.55	21.773
837.72	20.236
837.89	15.813
838.06	19.740
838.23	15.385
838.40	22.656
838.58	13.542
838.75	31.250
838.92	20.299
839.09	42.604
839.26	39.000
839.43	30.218
839.60	28.387
839.78	43.784
839.95	34.278
840.12	24.260
840.29	25.833
840.46	28.158
840.63	30.829
840.80	22.251
840.98	18.049
841.15	37.310
841.32	13.720
841.49	25.823
841.66	25.549
841.83	34.406
842.00	42.336
842.17	29.283
842.34	23.760
842.52	25.387
842.69	27.055
842.86	13.487
843.03	30.690
843.20	30.612
843.37	39.458
843.54	21.344
843.71	30.031
843.88	37.931
844.06	32.759
844.23	41.525
844.40	38.956
844.57	52.206
844.74	46.552
844.91	46.581
845.08	36.364
845.25	34.434
845.42	43.103
845.59	44.017
845.76	31.148
845.94	56.923
846.11	16.500
846.28	51.442
846.45	81.707
846.62	51.010
846.79	41.364
846.96	46.970
847.13	34.759
847.30	41.667
847.47	68.675
847.64	45.078
847.81	40.976
847.98	55.080
848.15	29.487
848.32	46.154
848.50	62.500
848.67	58.333
848.84	40.782
849.01	68.889
849.18	44.492
849.35	65.806
849.52	49.708
849.69	70.115
849.86	64.286
850.03	54.545
850.20	71.519
850.37	37.209
850.54	34.524
850.71	45.399
850.88	56.571
851.05	54.902
851.22	31.176
851.39	56.863
851.56	48.667
851.73	60.104
851.90	67.879
852.07	62.500
852.24	48.555
852.41	59.854
852.58	67.039
852.75	21.687
852.92	56.923
853.09	67.033
853.26	70.139
853.43	46.995
853.60	49.624
853.77	51.128
853.94	51.613
854.11	45.604
854.28	57.576
854.45	47.205
854.62	50.943
854.79	52.663
854.96	75.625
855.13	51.955
855.30	74.522
855.47	37.692
855.64	50.000
855.81	67.879
855.98	44.037
856.15	53.591
856.32	74.615
856.49	42.282
856.66	37.931
856.83	53.435
857.00	55.090
857.17	76.471
857.34	75.342
857.51	68.142
857.68	62.069
857.85	34.409
858.02	63.388
858.19	37.931
858.36	85.227
858.53	53.425
858.70	44.628
858.87	43.750
859.04	52.903
859.21	55.844
859.38	47.429
859.55	46.154
859.72	53.459
859.89	67.164
860.05	80.380
860.22	56.831
860.39	48.611
860.56	65.829
860.73	73.410
860.90	94.521
861.07	82.353
861.24	46.512
861.41	63.861
861.58	48.619
861.75	62.205
861.92	47.020
862.09	50.000
862.26	33.333
862.43	58.282
862.59	47.283
862.76	74.545
862.93	105.556
863.10	68.182
863.27	37.013
863.44	41.414
863.61	57.534
863.78	96.875
863.95	72.308
864.12	60.556
864.29	62.011
864.45	70.807
864.62	67.429
864.79	73.759
864.96	62.500
865.13	31.395
865.30	91.429
865.47	57.692
865.64	73.267
865.81	58.564
865.97	62.295
866.14	56.771
866.31	44.737
866.48	39.552
866.65	52.174
866.82	76.000
866.99	52.055
867.16	63.025
867.33	57.042
867.49	59.064
867.66	55.901
867.83	52.027
868.00	55.779
868.17	62.903
868.34	63.699
868.51	76.190
868.67	37.255
868.84	87.603
869.01	56.111
869.18	18.125
869.35	62.577
869.52	60.000
869.69	64.497
869.85	54.098
870.02	58.559
870.19	56.738
870.36	86.957
870.53	43.802
870.70	94.167
870.86	67.857
871.03	56.688
871.20	52.970
871.37	61.935
871.54	61.111
871.71	54.651
871.87	30.534
872.04	50.754
872.21	63.006
872.38	77.857
872.55	60.993
872.72	43.478
872.88	62.893
873.05	76.101
873.22	32.143
873.39	56.875
873.56	72.515
873.72	36.134
873.89	80.120
874.06	72.727
874.23	65.823
874.40	70.642
874.56	39.674
874.73	51.695
874.90	48.148
875.07	73.203
875.24	46.784
875.40	40.000
875.57	79.851
875.74	71.154
875.91	71.324
876.08	55.102
876.24	27.273
876.41	64.500
876.58	60.819
876.75	52.713
876.92	48.447
877.08	59.649
877.25	47.333
877.42	51.007
877.59	63.855
877.75	63.102
877.92	42.149
878.09	78.400
878.26	63.077
878.42	68.182
878.59	61.798
878.76	43.182
878.93	33.908
879.09	50.847
879.26	38.462
879.43	51.244
879.60	49.505
879.76	36.598
879.93	52.157
880.10	44.949
880.27	52.340
880.43	29.717
880.60	52.273
880.77	19.355
880.94	33.775
881.10	27.090
881.27	26.667
881.44	26.065
881.61	24.459
881.77	26.747
881.94	20.065
882.11	8.951
882.28	14.427
882.44	9.326
882.61	15.276
882.78	18.506
882.94	17.570
883.11	18.295
883.28	13.951
883.45	15.438
883.61	14.286
883.78	9.878
883.95	12.067
884.11	12.390
884.28	13.269
>>>>>End Processed Spectral Data<<<<<
