SpectraSuite Data File
++++++++++++++++++++++++++++++++++++
Date: Wed Sep 18 03:43:54 EST 2019
User: sgrac
Dark Spectrum Present: Yes
Reference Spectrum Present: Yes
Number of Sampled Component Spectra: 1
Spectrometers: USB4E01596
Integration Time (usec): 100000 (USB4E01596)
Spectra Averaged: 3 (USB4E01596)
Boxcar Smoothing: 0 (USB4E01596)
Correct for Electrical Dark: No (USB4E01596)
Strobe/Lamp Enabled: Yes (USB4E01596)
Correct for Detector Non-linearity: No (USB4E01596)
Correct for Stray Light: No (USB4E01596)
Number of Pixels in Processed Spectrum: 3648
>>>>>Begin Processed Spectral Data<<<<<
178.44	-148.387
178.66	-148.387
178.87	-148.387
179.09	-194.000
179.30	240.217
179.52	607.895
179.74	-1000.000
179.95	-1180.000
180.17	441.860
180.38	-796.667
180.60	328.571
180.82	1268.750
181.03	416.279
181.25	-1814.286
181.46	-505.000
181.68	-460.465
181.89	653.061
182.11	717.500
182.33	545.098
182.54	387.719
182.76	630.435
182.97	1864.286
183.19	292.391
183.40	320.455
183.62	421.154
183.84	382.258
184.05	700.000
184.27	367.213
184.48	3400.000
184.70	788.889
184.91	580.435
185.13	-487.500
185.34	-365.000
185.56	-530.303
185.78	1261.111
185.99	478.689
186.21	585.366
186.42	-2490.000
186.64	265.152
186.85	1075.000
187.07	471.429
187.28	554.762
187.50	-764.706
187.72	386.000
187.93	306.024
188.15	445.588
188.36	-1905.882
188.58	272.727
188.79	-10950.000
189.01	178.912
189.22	296.104
189.44	812.500
189.65	348.315
189.87	321.053
190.09	290.426
190.30	1030.000
190.52	1481.250
190.73	310.843
190.95	931.818
191.16	300.000
191.38	-25600.000
191.59	626.087
191.81	330.000
192.02	-533.333
192.24	443.548
192.45	303.333
192.67	342.424
192.88	457.813
193.10	611.364
193.31	439.286
193.53	340.323
193.74	815.152
193.96	450.847
194.18	-956.522
194.39	449.020
194.61	875.862
194.82	1115.385
195.04	517.778
195.25	413.115
195.47	-5450.000
195.68	271.831
195.90	236.264
196.11	366.667
196.33	1700.000
196.54	760.465
196.76	-888.000
196.97	276.000
197.19	1260.000
197.40	175.940
197.62	-600.000
197.83	373.077
198.05	226.174
198.26	-696.000
198.48	375.000
198.69	261.468
198.91	363.768
199.12	-1508.333
199.34	908.000
199.55	16500.000
199.77	310.526
199.98	4300.000
200.20	676.471
200.41	359.155
200.63	525.926
200.84	1161.905
201.06	651.613
201.27	290.123
201.49	428.125
201.70	419.672
201.91	506.818
202.13	1225.000
202.34	-640.000
202.56	505.000
202.77	-152.326
202.99	401.220
203.20	542.553
203.42	368.571
203.63	229.358
203.85	-782.759
204.06	663.636
204.28	1820.000
204.49	569.767
204.71	224.370
204.92	896.154
205.14	1236.842
205.35	5225.000
205.56	276.056
205.78	346.914
205.99	216.031
206.21	244.444
206.42	480.435
206.64	761.765
206.85	282.222
207.07	440.000
207.28	290.909
207.50	1086.957
207.71	527.907
207.93	541.667
208.14	600.000
208.35	352.542
208.57	342.000
208.78	272.340
209.00	274.194
209.21	219.014
209.43	387.500
209.64	796.154
209.86	1327.273
210.07	316.456
210.28	281.928
210.50	394.203
210.71	387.879
210.93	403.636
211.14	517.500
211.36	904.762
211.57	199.167
211.78	1092.308
212.00	610.811
212.21	1622.222
212.43	1869.231
212.64	865.625
212.86	329.091
213.07	538.462
213.29	227.551
213.50	398.333
213.71	245.000
213.93	260.674
214.14	618.750
214.36	463.415
214.57	404.762
214.78	6325.000
215.00	306.098
215.21	544.444
215.43	-4720.000
215.64	384.286
215.86	279.412
216.07	334.247
216.28	412.000
216.50	406.000
216.71	1273.333
216.93	-25900.000
217.14	1215.789
217.35	-310.169
217.57	286.364
217.78	658.621
218.00	238.095
218.21	297.059
218.42	-7600.000
218.64	960.714
218.85	335.294
219.07	472.093
219.28	420.833
219.49	-12800.000
219.71	385.075
219.92	455.263
220.14	-19000.000
220.35	315.068
220.56	408.696
220.78	210.976
220.99	-402.222
221.21	281.928
221.42	207.237
221.63	1792.308
221.85	-456.667
222.06	268.687
222.28	-464.286
222.49	398.246
222.70	217.241
222.92	455.263
223.13	183.562
223.34	2233.333
223.56	225.641
223.77	306.173
223.99	304.040
224.20	154.762
224.41	284.545
224.63	128.409
224.84	230.645
225.05	239.344
225.27	450.909
225.48	301.220
225.69	354.687
225.91	280.000
226.12	322.667
226.34	250.000
226.55	200.943
226.76	204.651
226.98	224.359
227.19	169.286
227.40	178.169
227.62	131.795
227.83	83.333
228.04	142.703
228.26	107.432
228.47	109.135
228.69	43.607
228.90	45.504
229.11	51.124
229.33	57.753
229.54	44.981
229.75	46.858
229.97	40.440
230.18	38.345
230.39	39.125
230.61	34.354
230.82	58.000
231.03	27.630
231.25	48.401
231.46	40.916
231.67	41.002
231.89	36.116
232.10	50.260
232.31	53.585
232.53	58.222
232.74	44.578
232.95	60.396
233.17	52.318
233.38	50.827
233.59	66.004
233.81	64.392
234.02	63.112
234.23	70.833
234.45	64.525
234.66	60.891
234.87	63.596
235.09	62.919
235.30	48.744
235.51	57.143
235.73	62.708
235.94	57.353
236.15	40.938
236.36	55.056
236.58	42.235
236.79	49.813
237.00	57.356
237.22	44.567
237.43	44.235
237.64	37.500
237.86	45.325
238.07	78.174
238.28	49.785
238.50	35.583
238.71	43.462
238.92	34.624
239.13	41.667
239.35	65.863
239.56	53.715
239.77	69.336
239.99	47.679
240.20	54.167
240.41	31.976
240.63	44.301
240.84	50.990
241.05	36.296
241.26	35.528
241.48	38.362
241.69	36.129
241.90	26.856
242.12	28.871
242.33	21.806
242.54	28.769
242.75	18.846
242.97	28.582
243.18	20.250
243.39	17.369
243.61	18.943
243.82	24.797
244.03	21.838
244.24	18.818
244.46	21.117
244.67	23.832
244.88	19.252
245.09	22.527
245.31	20.447
245.52	16.762
245.73	23.768
245.95	43.341
246.16	26.471
246.37	24.488
246.58	23.302
246.80	23.600
247.01	23.819
247.22	22.383
247.43	16.547
247.65	20.017
247.86	18.445
248.07	14.529
248.28	15.600
248.50	16.918
248.71	17.970
248.92	15.000
249.13	15.448
249.35	17.016
249.56	15.643
249.77	14.425
249.98	15.255
250.20	20.608
250.41	22.869
250.62	20.010
250.83	20.676
251.05	23.666
251.26	16.697
251.47	20.877
251.68	24.211
251.90	19.336
252.11	19.488
252.32	24.411
252.53	23.425
252.75	13.500
252.96	19.357
253.17	23.512
253.38	17.595
253.59	14.807
253.81	16.878
254.02	16.425
254.23	21.071
254.44	22.512
254.66	17.485
254.87	22.417
255.08	18.652
255.29	27.475
255.50	27.080
255.72	22.479
255.93	24.211
256.14	31.189
256.35	16.650
256.57	27.124
256.78	32.381
256.99	19.964
257.20	27.053
257.41	23.588
257.63	21.492
257.84	28.213
258.05	18.432
258.26	19.493
258.47	23.362
258.69	23.958
258.90	15.166
259.11	18.075
259.32	18.606
259.53	18.091
259.75	8.767
259.96	15.639
260.17	12.487
260.38	11.810
260.59	13.636
260.81	14.271
261.02	13.287
261.23	12.084
261.44	13.358
261.65	13.048
261.87	12.149
262.08	13.131
262.29	14.071
262.50	11.798
262.71	11.996
262.92	15.847
263.14	12.194
263.35	14.346
263.56	15.015
263.77	13.288
263.98	14.741
264.20	20.902
264.41	17.985
264.62	14.955
264.83	12.325
265.04	20.035
265.25	14.413
265.47	20.559
265.68	20.418
265.89	18.784
266.10	18.860
266.31	21.433
266.52	16.048
266.74	18.425
266.95	15.725
267.16	15.043
267.37	16.972
267.58	11.295
267.79	9.735
268.01	14.353
268.22	12.710
268.43	13.204
268.64	16.230
268.85	15.242
269.06	13.068
269.27	16.785
269.49	13.189
269.70	14.522
269.91	15.816
270.12	14.445
270.33	17.584
270.54	12.828
270.75	12.092
270.97	16.478
271.18	12.965
271.39	13.576
271.60	12.758
271.81	12.729
272.02	15.328
272.23	13.999
272.45	9.581
272.66	10.329
272.87	13.265
273.08	12.774
273.29	14.673
273.50	10.065
273.71	10.196
273.92	11.124
274.14	12.373
274.35	12.423
274.56	16.970
274.77	11.241
274.98	14.025
275.19	12.786
275.40	14.441
275.61	12.611
275.83	12.834
276.04	12.097
276.25	15.033
276.46	14.526
276.67	15.178
276.88	13.674
277.09	11.724
277.30	16.101
277.51	12.260
277.73	12.735
277.94	13.968
278.15	14.822
278.36	19.697
278.57	10.866
278.78	14.275
278.99	14.303
279.20	15.216
279.41	16.249
279.62	13.011
279.84	15.732
280.05	9.668
280.26	12.882
280.47	13.851
280.68	11.157
280.89	11.885
281.10	12.490
281.31	16.120
281.52	13.180
281.73	11.048
281.94	10.892
282.16	11.472
282.37	11.916
282.58	10.956
282.79	13.771
283.00	15.272
283.21	9.908
283.42	11.211
283.63	13.780
283.84	8.150
284.05	9.351
284.26	10.649
284.47	12.691
284.68	11.039
284.89	8.457
285.11	9.736
285.32	11.517
285.53	10.313
285.74	14.400
285.95	12.233
286.16	12.567
286.37	8.557
286.58	12.102
286.79	9.572
287.00	9.359
287.21	9.527
287.42	10.066
287.63	9.875
287.84	10.463
288.05	9.800
288.26	11.355
288.48	11.967
288.69	9.269
288.90	11.529
289.11	11.630
289.32	12.655
289.53	11.655
289.74	10.006
289.95	9.902
290.16	11.634
290.37	9.498
290.58	7.217
290.79	8.055
291.00	8.933
291.21	10.748
291.42	8.238
291.63	9.205
291.84	12.001
292.05	7.883
292.26	9.151
292.47	8.557
292.68	6.679
292.89	10.277
293.10	9.083
293.31	10.482
293.52	7.631
293.73	8.696
293.94	10.904
294.15	9.314
294.36	11.700
294.57	10.815
294.79	9.964
295.00	7.761
295.21	9.894
295.42	11.240
295.63	12.239
295.84	6.872
296.05	8.526
296.26	8.196
296.47	8.080
296.68	10.330
296.89	10.932
297.10	9.960
297.31	9.309
297.52	7.502
297.73	9.565
297.94	6.469
298.15	7.788
298.36	6.770
298.57	7.187
298.78	8.539
298.99	7.923
299.20	8.332
299.41	8.515
299.62	7.213
299.83	7.192
300.04	8.307
300.25	8.840
300.46	8.787
300.67	10.278
300.88	9.173
301.09	7.508
301.30	8.198
301.50	6.581
301.71	11.564
301.92	10.845
302.13	6.961
302.34	9.055
302.55	8.872
302.76	8.665
302.97	9.252
303.18	8.031
303.39	9.241
303.60	8.094
303.81	10.837
304.02	6.579
304.23	9.831
304.44	8.559
304.65	7.291
304.86	10.738
305.07	4.707
305.28	8.218
305.49	10.847
305.70	9.512
305.91	8.944
306.12	6.809
306.33	7.258
306.54	8.835
306.75	9.057
306.96	12.144
307.17	7.589
307.38	7.682
307.58	9.255
307.79	9.850
308.00	11.348
308.21	7.915
308.42	6.514
308.63	8.602
308.84	10.267
309.05	10.310
309.26	7.092
309.47	9.210
309.68	8.724
309.89	9.693
310.10	7.683
310.31	7.654
310.52	6.366
310.73	11.930
310.94	5.157
311.14	7.408
311.35	7.629
311.56	7.644
311.77	7.093
311.98	6.394
312.19	8.800
312.40	6.490
312.61	6.500
312.82	7.208
313.03	8.119
313.24	7.961
313.45	9.545
313.66	8.254
313.86	8.883
314.07	6.930
314.28	7.203
314.49	4.529
314.70	7.670
314.91	10.533
315.12	7.965
315.33	10.360
315.54	6.832
315.75	8.017
315.96	8.124
316.16	6.945
316.37	9.914
316.58	9.448
316.79	9.091
317.00	11.088
317.21	8.377
317.42	10.248
317.63	8.158
317.84	10.310
318.05	7.617
318.25	7.443
318.46	8.662
318.67	8.420
318.88	11.114
319.09	9.768
319.30	8.923
319.51	9.365
319.72	6.511
319.93	7.659
320.13	8.539
320.34	8.515
320.55	6.833
320.76	8.477
320.97	9.556
321.18	11.529
321.39	6.451
321.60	6.799
321.80	10.951
322.01	9.550
322.22	11.722
322.43	8.249
322.64	9.304
322.85	7.790
323.06	9.125
323.27	9.512
323.47	9.186
323.68	8.518
323.89	9.332
324.10	9.565
324.31	8.355
324.52	8.794
324.73	9.075
324.93	6.919
325.14	7.488
325.35	8.982
325.56	10.000
325.77	10.802
325.98	9.093
326.19	7.426
326.39	5.713
326.60	8.901
326.81	6.263
327.02	5.976
327.23	9.300
327.44	11.423
327.64	8.164
327.85	6.316
328.06	9.527
328.27	11.076
328.48	7.545
328.69	5.134
328.90	7.422
329.10	7.371
329.31	8.000
329.52	8.570
329.73	8.648
329.94	8.575
330.15	9.269
330.35	9.900
330.56	7.649
330.77	8.725
330.98	9.818
331.19	8.294
331.39	8.314
331.60	6.327
331.81	7.261
332.02	10.084
332.23	8.174
332.44	7.170
332.64	10.093
332.85	7.727
333.06	10.939
333.27	7.112
333.48	9.813
333.68	6.807
333.89	8.653
334.10	7.051
334.31	8.467
334.52	7.311
334.72	8.287
334.93	8.601
335.14	6.941
335.35	7.578
335.56	9.911
335.76	6.615
335.97	8.172
336.18	7.801
336.39	8.615
336.60	8.243
336.80	8.213
337.01	6.458
337.22	7.246
337.43	9.941
337.64	9.407
337.84	7.042
338.05	8.122
338.26	10.245
338.47	10.261
338.68	7.108
338.88	9.840
339.09	8.112
339.30	8.961
339.51	5.830
339.71	7.844
339.92	5.534
340.13	8.976
340.34	7.958
340.55	6.710
340.75	7.234
340.96	7.843
341.17	7.596
341.38	7.855
341.58	8.172
341.79	8.902
342.00	6.712
342.21	7.202
342.41	7.528
342.62	6.658
342.83	7.749
343.04	6.115
343.24	9.483
343.45	8.961
343.66	6.808
343.87	6.683
344.07	7.412
344.28	8.644
344.49	8.826
344.70	10.062
344.90	6.841
345.11	5.746
345.32	9.075
345.53	7.706
345.73	6.789
345.94	8.911
346.15	9.161
346.36	8.480
346.56	8.427
346.77	8.889
346.98	8.013
347.19	8.414
347.39	8.094
347.60	7.566
347.81	9.396
348.02	7.630
348.22	6.214
348.43	7.122
348.64	7.469
348.84	7.362
349.05	7.089
349.26	8.679
349.47	6.896
349.67	8.154
349.88	8.906
350.09	7.140
350.30	11.061
350.50	6.998
350.71	9.388
350.92	7.591
351.12	8.498
351.33	7.055
351.54	7.427
351.74	7.204
351.95	6.528
352.16	8.504
352.37	9.608
352.57	7.868
352.78	8.479
352.99	9.646
353.19	8.956
353.40	9.653
353.61	11.257
353.82	9.832
354.02	10.170
354.23	8.978
354.44	10.819
354.64	8.311
354.85	10.196
355.06	9.466
355.26	9.096
355.47	9.443
355.68	11.560
355.88	9.845
356.09	7.490
356.30	7.239
356.51	9.163
356.71	8.275
356.92	8.580
357.13	9.829
357.33	12.031
357.54	9.221
357.75	6.599
357.95	9.406
358.16	8.626
358.37	12.347
358.57	7.947
358.78	10.410
358.99	10.468
359.19	8.396
359.40	10.102
359.61	10.565
359.81	11.219
360.02	12.217
360.23	8.654
360.43	8.667
360.64	9.223
360.85	8.914
361.05	9.518
361.26	12.011
361.47	8.611
361.67	11.654
361.88	7.950
362.09	11.101
362.29	8.828
362.50	7.887
362.70	8.285
362.91	10.256
363.12	9.586
363.32	9.965
363.53	9.881
363.74	11.371
363.94	7.494
364.15	11.937
364.36	10.869
364.56	9.353
364.77	10.817
364.98	13.365
365.18	9.863
365.39	11.511
365.59	9.729
365.80	10.600
366.01	10.981
366.21	10.397
366.42	9.673
366.63	10.792
366.83	10.073
367.04	7.358
367.24	11.078
367.45	9.362
367.66	9.724
367.86	9.339
368.07	10.653
368.28	10.322
368.48	10.196
368.69	9.069
368.89	11.022
369.10	12.055
369.31	10.476
369.51	10.880
369.72	12.670
369.92	13.542
370.13	8.850
370.34	10.991
370.54	8.257
370.75	11.339
370.95	9.079
371.16	11.703
371.37	10.406
371.57	10.372
371.78	9.408
371.98	11.721
372.19	11.775
372.40	12.472
372.60	11.473
372.81	11.770
373.01	10.809
373.22	10.078
373.43	12.785
373.63	12.394
373.84	13.012
374.04	11.095
374.25	12.800
374.46	12.895
374.66	12.767
374.87	12.640
375.07	10.396
375.28	10.813
375.48	12.920
375.69	14.099
375.90	8.849
376.10	9.323
376.31	10.635
376.51	10.164
376.72	11.066
376.92	11.224
377.13	14.418
377.34	12.990
377.54	12.308
377.75	13.782
377.95	12.497
378.16	13.143
378.36	14.134
378.57	15.808
378.77	13.518
378.98	14.331
379.19	13.588
379.39	13.159
379.60	12.979
379.80	13.442
380.01	14.216
380.21	14.362
380.42	14.506
380.62	13.520
380.83	15.056
381.04	14.928
381.24	15.835
381.45	15.520
381.65	14.543
381.86	15.238
382.06	16.624
382.27	14.296
382.47	15.315
382.68	16.910
382.88	14.267
383.09	14.679
383.29	15.880
383.50	17.084
383.71	16.565
383.91	17.132
384.12	16.721
384.32	17.941
384.53	17.581
384.73	16.342
384.94	16.331
385.14	18.189
385.35	16.339
385.55	18.687
385.76	18.688
385.96	19.128
386.17	20.469
386.37	19.939
386.58	20.458
386.78	22.130
386.99	19.966
387.19	21.951
387.40	19.847
387.60	23.706
387.81	21.956
388.01	22.560
388.22	24.072
388.42	24.680
388.63	23.357
388.83	25.531
389.04	22.523
389.24	26.031
389.45	24.146
389.65	24.646
389.86	24.419
390.06	24.700
390.27	25.030
390.47	27.220
390.68	25.066
390.88	28.045
391.09	27.407
391.29	28.681
391.50	27.637
391.70	29.270
391.91	27.944
392.11	28.555
392.32	29.522
392.52	30.307
392.73	29.549
392.93	29.574
393.14	31.055
393.34	30.255
393.55	31.769
393.75	31.401
393.95	32.523
394.16	33.575
394.36	32.165
394.57	31.941
394.77	34.049
394.98	34.491
395.18	33.489
395.39	34.463
395.59	33.711
395.80	35.414
396.00	35.239
396.21	35.514
396.41	34.679
396.61	35.124
396.82	36.780
397.02	37.329
397.23	36.134
397.43	36.707
397.64	35.781
397.84	38.950
398.05	35.963
398.25	38.578
398.45	36.956
398.66	38.544
398.86	38.223
399.07	40.379
399.27	37.210
399.48	38.949
399.68	38.490
399.89	38.041
400.09	40.133
400.29	39.408
400.50	40.390
400.70	39.686
400.91	39.383
401.11	39.851
401.32	40.785
401.52	39.882
401.72	40.136
401.93	41.101
402.13	40.122
402.34	42.051
402.54	40.890
402.75	41.645
402.95	40.627
403.15	41.333
403.36	40.578
403.56	41.537
403.77	39.327
403.97	40.831
404.17	39.926
404.38	40.986
404.58	39.583
404.79	41.319
404.99	41.598
405.19	40.029
405.40	41.007
405.60	40.706
405.81	41.010
406.01	40.585
406.21	40.648
406.42	41.449
406.62	41.359
406.83	41.208
407.03	41.563
407.23	41.266
407.44	42.183
407.64	42.416
407.85	41.467
408.05	40.811
408.25	40.855
408.46	40.470
408.66	40.822
408.87	42.017
409.07	41.453
409.27	40.663
409.48	40.115
409.68	40.985
409.88	40.786
410.09	40.403
410.29	40.438
410.50	41.394
410.70	40.026
410.90	39.953
411.11	40.156
411.31	40.889
411.51	40.823
411.72	40.878
411.92	40.540
412.12	40.252
412.33	39.130
412.53	40.808
412.74	39.887
412.94	40.324
413.14	39.824
413.35	39.693
413.55	39.807
413.75	39.917
413.96	39.697
414.16	40.588
414.36	40.029
414.57	40.187
414.77	39.659
414.97	39.271
415.18	39.094
415.38	39.160
415.58	39.435
415.79	39.585
415.99	38.067
416.19	39.507
416.40	38.563
416.60	39.465
416.80	37.620
417.01	37.859
417.21	38.129
417.41	39.080
417.62	38.576
417.82	38.418
418.02	38.109
418.23	37.546
418.43	37.274
418.63	37.772
418.84	37.400
419.04	37.452
419.24	37.530
419.45	37.191
419.65	37.879
419.85	37.229
420.06	36.761
420.26	37.677
420.46	37.033
420.67	36.991
420.87	36.457
421.07	37.080
421.28	37.168
421.48	37.074
421.68	36.537
421.88	37.209
422.09	37.154
422.29	36.629
422.49	36.331
422.70	37.055
422.90	36.860
423.10	36.153
423.31	36.415
423.51	36.368
423.71	36.235
423.91	35.944
424.12	35.967
424.32	36.424
424.52	35.713
424.73	35.687
424.93	35.887
425.13	36.079
425.33	35.538
425.54	35.813
425.74	35.677
425.94	36.351
426.15	35.996
426.35	36.524
426.55	36.337
426.75	36.507
426.96	35.909
427.16	35.839
427.36	36.799
427.57	36.643
427.77	36.554
427.97	37.190
428.17	36.900
428.38	36.570
428.58	35.984
428.78	37.916
428.98	36.192
429.19	36.792
429.39	36.163
429.59	36.662
429.79	35.856
430.00	35.715
430.20	35.851
430.40	36.535
430.60	35.840
430.81	35.118
431.01	35.788
431.21	36.006
431.41	35.563
431.62	36.063
431.82	34.989
432.02	35.577
432.22	36.270
432.43	36.131
432.63	35.837
432.83	35.487
433.03	36.180
433.24	35.092
433.44	35.111
433.64	35.298
433.84	35.755
434.05	35.471
434.25	34.698
434.45	35.343
434.65	35.950
434.85	35.532
435.06	35.812
435.26	36.067
435.46	35.490
435.66	36.016
435.87	36.140
436.07	35.934
436.27	36.088
436.47	36.805
436.67	35.642
436.88	36.654
437.08	35.992
437.28	36.558
437.48	36.000
437.69	35.885
437.89	36.047
438.09	35.558
438.29	35.886
438.49	36.026
438.70	35.690
438.90	35.990
439.10	35.912
439.30	35.341
439.50	35.650
439.71	34.737
439.91	35.926
440.11	35.420
440.31	35.021
440.51	35.162
440.72	35.001
440.92	35.403
441.12	34.959
441.32	35.393
441.52	35.716
441.72	35.349
441.93	35.802
442.13	35.849
442.33	35.760
442.53	35.707
442.73	36.928
442.94	35.837
443.14	36.646
443.34	36.269
443.54	36.280
443.74	36.150
443.94	36.392
444.15	36.244
444.35	35.938
444.55	35.960
444.75	36.064
444.95	34.823
445.15	35.507
445.36	35.528
445.56	34.984
445.76	35.272
445.96	35.169
446.16	35.346
446.36	35.412
446.57	35.556
446.77	34.899
446.97	35.159
447.17	35.958
447.37	35.000
447.57	35.851
447.77	35.387
447.98	35.510
448.18	35.418
448.38	35.743
448.58	35.965
448.78	35.746
448.98	36.290
449.18	36.142
449.39	36.409
449.59	36.357
449.79	36.249
449.99	36.528
450.19	36.412
450.39	36.492
450.59	36.809
450.79	36.383
451.00	36.300
451.20	37.432
451.40	36.292
451.60	36.721
451.80	35.931
452.00	36.395
452.20	36.707
452.40	36.445
452.61	35.860
452.81	35.140
453.01	35.784
453.21	35.844
453.41	35.326
453.61	35.348
453.81	36.866
454.01	35.442
454.21	35.524
454.42	35.996
454.62	35.758
454.82	36.158
455.02	36.320
455.22	35.686
455.42	36.144
455.62	36.259
455.82	35.489
456.02	36.238
456.23	36.366
456.43	36.252
456.63	36.103
456.83	35.310
457.03	36.700
457.23	35.894
457.43	36.746
457.63	34.921
457.83	35.778
458.03	35.504
458.23	34.823
458.43	35.445
458.64	35.641
458.84	35.714
459.04	34.911
459.24	35.367
459.44	35.135
459.64	34.654
459.84	34.118
460.04	34.523
460.24	33.876
460.44	34.518
460.64	35.157
460.84	34.623
461.04	34.774
461.24	34.619
461.45	34.908
461.65	35.308
461.85	35.498
462.05	35.618
462.25	35.401
462.45	35.850
462.65	35.675
462.85	35.823
463.05	35.672
463.25	35.508
463.45	35.561
463.65	35.428
463.85	35.994
464.05	36.027
464.25	35.496
464.45	36.080
464.65	34.957
464.85	35.986
465.05	35.537
465.26	35.547
465.46	35.382
465.66	35.482
465.86	34.997
466.06	35.722
466.26	35.614
466.46	35.017
466.66	35.221
466.86	35.303
467.06	34.239
467.26	34.986
467.46	35.331
467.66	35.459
467.86	35.257
468.06	35.113
468.26	35.652
468.46	35.267
468.66	36.053
468.86	35.360
469.06	35.891
469.26	35.516
469.46	35.866
469.66	35.145
469.86	34.780
470.06	35.020
470.26	35.608
470.46	35.471
470.66	35.892
470.86	35.000
471.06	35.745
471.26	34.965
471.46	34.885
471.66	35.509
471.86	35.380
472.06	35.686
472.26	35.440
472.46	35.185
472.66	35.636
472.86	35.390
473.06	35.511
473.26	36.070
473.46	35.680
473.66	35.294
473.86	35.095
474.06	35.992
474.26	35.047
474.46	36.035
474.66	35.960
474.86	36.612
475.06	35.721
475.26	35.824
475.46	35.882
475.66	34.836
475.86	35.814
476.06	35.699
476.26	36.158
476.46	35.678
476.66	35.819
476.86	35.310
477.06	35.408
477.26	36.105
477.46	35.773
477.65	35.518
477.85	36.082
478.05	35.349
478.25	36.011
478.45	35.197
478.65	35.665
478.85	35.366
479.05	35.546
479.25	35.410
479.45	35.543
479.65	35.888
479.85	36.070
480.05	35.956
480.25	35.692
480.45	35.829
480.65	36.197
480.85	35.812
481.05	35.845
481.25	36.180
481.44	36.149
481.64	35.275
481.84	35.623
482.04	35.857
482.24	35.289
482.44	35.640
482.64	34.549
482.84	35.174
483.04	35.091
483.24	34.151
483.44	34.225
483.64	33.691
483.84	33.173
484.04	33.653
484.23	34.136
484.43	34.624
484.63	34.968
484.83	35.221
485.03	35.622
485.23	35.695
485.43	35.769
485.63	36.317
485.83	36.405
486.03	36.792
486.23	36.767
486.42	36.275
486.62	36.035
486.82	35.954
487.02	35.856
487.22	35.496
487.42	34.990
487.62	34.563
487.82	34.523
488.02	34.931
488.22	34.616
488.41	34.699
488.61	34.737
488.81	35.149
489.01	35.227
489.21	35.556
489.41	35.632
489.61	36.074
489.81	35.787
490.01	36.174
490.20	35.996
490.40	36.459
490.60	36.062
490.80	35.559
491.00	35.492
491.20	35.064
491.40	34.751
491.60	34.657
491.79	34.338
491.99	34.569
492.19	34.665
492.39	34.932
492.59	34.838
492.79	34.837
492.99	35.052
493.19	35.355
493.38	35.674
493.58	35.819
493.78	36.162
493.98	36.232
494.18	36.821
494.38	36.340
494.58	36.227
494.77	36.128
494.97	36.010
495.17	36.172
495.37	35.857
495.57	35.943
495.77	35.853
495.96	35.648
496.16	35.511
496.36	34.984
496.56	34.974
496.76	34.877
496.96	34.895
497.15	35.174
497.35	34.910
497.55	35.317
497.75	35.873
497.95	35.536
498.15	34.972
498.34	35.296
498.54	35.239
498.74	35.704
498.94	35.511
499.14	35.567
499.34	35.408
499.53	35.972
499.73	35.706
499.93	35.562
500.13	35.831
500.33	36.076
500.52	36.763
500.72	35.724
500.92	35.397
501.12	36.053
501.32	36.199
501.52	36.125
501.71	35.956
501.91	36.112
502.11	36.858
502.31	35.670
502.51	36.106
502.70	36.441
502.90	36.412
503.10	35.895
503.30	35.594
503.50	36.306
503.69	36.397
503.89	36.800
504.09	36.323
504.29	35.944
504.48	36.590
504.68	36.403
504.88	36.202
505.08	36.268
505.28	36.857
505.47	37.112
505.67	36.790
505.87	36.913
506.07	36.179
506.27	36.351
506.46	37.085
506.66	36.958
506.86	37.578
507.06	36.475
507.25	36.705
507.45	36.869
507.65	36.734
507.85	36.522
508.04	36.979
508.24	36.849
508.44	36.552
508.64	36.356
508.83	36.696
509.03	36.369
509.23	36.347
509.43	36.927
509.63	36.778
509.82	36.675
510.02	36.628
510.22	36.528
510.42	36.982
510.61	36.749
510.81	36.515
511.01	37.190
511.21	37.213
511.40	37.009
511.60	36.966
511.80	36.775
511.99	37.206
512.19	36.758
512.39	36.958
512.59	37.287
512.78	37.405
512.98	36.859
513.18	37.062
513.38	37.105
513.57	37.561
513.77	37.497
513.97	37.542
514.17	37.829
514.36	37.482
514.56	37.434
514.76	37.619
514.95	37.475
515.15	37.614
515.35	38.455
515.55	37.510
515.74	37.462
515.94	38.039
516.14	37.391
516.33	37.728
516.53	37.812
516.73	37.347
516.93	37.885
517.12	37.360
517.32	37.254
517.52	37.133
517.71	37.218
517.91	36.852
518.11	36.892
518.30	36.812
518.50	36.506
518.70	36.758
518.90	36.715
519.09	36.935
519.29	36.464
519.49	36.666
519.68	37.068
519.88	37.411
520.08	37.362
520.27	37.406
520.47	37.166
520.67	37.612
520.86	37.640
521.06	37.947
521.26	37.267
521.45	37.498
521.65	38.071
521.85	37.906
522.04	37.654
522.24	37.831
522.44	37.149
522.63	37.495
522.83	37.896
523.03	37.344
523.22	37.273
523.42	37.736
523.62	37.754
523.81	37.260
524.01	37.266
524.21	37.410
524.40	37.225
524.60	36.830
524.80	37.284
524.99	36.092
525.19	37.101
525.39	36.282
525.58	37.009
525.78	36.633
525.98	36.594
526.17	36.435
526.37	36.534
526.57	36.617
526.76	36.252
526.96	36.348
527.15	36.654
527.35	36.963
527.55	36.346
527.74	37.125
527.94	36.316
528.14	35.588
528.33	35.036
528.53	35.231
528.72	35.251
528.92	35.651
529.12	35.837
529.31	35.955
529.51	35.939
529.71	35.978
529.90	36.364
530.10	36.799
530.29	37.031
530.49	37.112
530.69	37.306
530.88	37.486
531.08	37.032
531.28	37.270
531.47	37.053
531.67	37.045
531.86	36.858
532.06	36.986
532.26	36.294
532.45	36.540
532.65	36.284
532.84	35.586
533.04	35.918
533.24	35.629
533.43	35.458
533.63	35.725
533.82	36.135
534.02	35.811
534.22	35.873
534.41	36.042
534.61	36.085
534.80	36.155
535.00	36.224
535.19	36.801
535.39	36.683
535.59	37.040
535.78	36.207
535.98	36.695
536.17	36.479
536.37	36.058
536.57	36.092
536.76	36.213
536.96	36.058
537.15	36.324
537.35	35.803
537.54	35.767
537.74	36.345
537.93	36.605
538.13	36.494
538.33	36.604
538.52	37.443
538.72	36.908
538.91	37.003
539.11	36.871
539.30	36.371
539.50	36.928
539.70	36.226
539.89	36.145
540.09	36.481
540.28	35.899
540.48	35.549
540.67	35.260
540.87	35.680
541.06	35.223
541.26	34.630
541.45	35.290
541.65	35.003
541.85	35.855
542.04	35.358
542.24	35.633
542.43	35.670
542.63	35.881
542.82	36.001
543.02	36.385
543.21	36.322
543.41	36.570
543.60	36.745
543.80	36.637
543.99	36.340
544.19	36.888
544.38	36.256
544.58	37.037
544.77	36.593
544.97	37.045
545.16	36.668
545.36	36.598
545.56	36.639
545.75	36.669
545.95	36.715
546.14	36.708
546.34	36.550
546.53	36.547
546.73	35.995
546.92	36.278
547.12	36.124
547.31	36.099
547.51	36.538
547.70	36.432
547.90	36.743
548.09	37.257
548.29	36.525
548.48	37.445
548.68	36.900
548.87	36.889
549.07	37.170
549.26	37.645
549.46	37.780
549.65	37.414
549.84	37.436
550.04	37.398
550.23	37.740
550.43	37.077
550.62	38.200
550.82	37.620
551.01	37.907
551.21	37.840
551.40	38.237
551.60	37.289
551.79	37.350
551.99	37.548
552.18	37.355
552.38	37.277
552.57	37.110
552.77	37.644
552.96	37.361
553.16	37.752
553.35	36.958
553.54	37.463
553.74	36.698
553.93	37.396
554.13	37.585
554.32	37.455
554.52	37.925
554.71	37.178
554.91	38.276
555.10	38.102
555.29	38.162
555.49	38.077
555.68	37.834
555.88	37.712
556.07	37.859
556.27	37.651
556.46	37.775
556.66	37.734
556.85	38.182
557.04	38.197
557.24	38.078
557.43	37.563
557.63	37.604
557.82	38.030
558.02	38.126
558.21	37.901
558.40	38.654
558.60	38.614
558.79	37.771
558.99	37.847
559.18	38.236
559.38	37.500
559.57	37.887
559.76	38.036
559.96	38.396
560.15	37.476
560.35	38.330
560.54	37.663
560.73	37.075
560.93	37.461
561.12	37.705
561.32	37.819
561.51	37.976
561.70	36.939
561.90	37.978
562.09	37.414
562.29	37.475
562.48	37.937
562.67	38.255
562.87	38.018
563.06	37.713
563.26	37.700
563.45	37.445
563.64	37.256
563.84	36.520
564.03	37.732
564.23	36.978
564.42	38.168
564.61	37.737
564.81	37.493
565.00	37.297
565.20	37.372
565.39	37.258
565.58	36.184
565.78	36.323
565.97	37.135
566.16	37.302
566.36	36.262
566.55	36.408
566.74	36.802
566.94	36.983
567.13	36.362
567.33	36.778
567.52	36.607
567.71	36.913
567.91	36.959
568.10	36.192
568.29	36.972
568.49	36.021
568.68	37.296
568.87	36.359
569.07	36.694
569.26	36.647
569.45	35.830
569.65	36.317
569.84	36.834
570.04	36.408
570.23	35.614
570.42	36.055
570.62	35.673
570.81	35.446
571.00	35.990
571.20	35.776
571.39	35.669
571.58	35.743
571.78	35.640
571.97	35.929
572.16	35.001
572.36	34.974
572.55	35.368
572.74	36.397
572.94	35.084
573.13	35.345
573.32	35.444
573.51	35.728
573.71	35.957
573.90	35.484
574.09	35.082
574.29	35.044
574.48	35.029
574.67	34.951
574.87	35.024
575.06	34.250
575.25	34.977
575.45	35.146
575.64	35.346
575.83	34.770
576.03	35.733
576.22	34.660
576.41	34.994
576.60	34.641
576.80	34.813
576.99	35.289
577.18	35.861
577.38	34.577
577.57	35.380
577.76	34.707
577.95	35.683
578.15	35.323
578.34	35.751
578.53	35.242
578.73	34.838
578.92	35.085
579.11	35.097
579.30	35.348
579.50	34.473
579.69	35.445
579.88	34.546
580.08	35.671
580.27	35.509
580.46	35.125
580.65	35.548
580.85	35.609
581.04	34.742
581.23	34.434
581.42	34.712
581.62	35.174
581.81	34.900
582.00	34.813
582.19	34.881
582.39	35.143
582.58	34.102
582.77	35.453
582.96	35.667
583.16	35.439
583.35	35.171
583.54	35.076
583.73	34.961
583.93	35.116
584.12	35.455
584.31	34.655
584.50	34.773
584.70	35.030
584.89	35.448
585.08	35.067
585.27	35.644
585.47	35.078
585.66	34.416
585.85	35.165
586.04	35.191
586.24	36.068
586.43	35.112
586.62	35.044
586.81	34.995
587.00	35.437
587.20	35.143
587.39	35.003
587.58	35.015
587.77	35.656
587.97	35.437
588.16	36.002
588.35	35.354
588.54	36.043
588.73	35.516
588.93	35.684
589.12	35.817
589.31	36.207
589.50	35.803
589.69	35.537
589.89	36.267
590.08	36.426
590.27	35.801
590.46	35.759
590.65	35.448
590.85	36.519
591.04	35.702
591.23	36.978
591.42	37.355
591.61	36.248
591.81	37.004
592.00	37.541
592.19	36.394
592.38	36.694
592.57	36.758
592.77	37.489
592.96	36.595
593.15	37.729
593.34	37.188
593.53	36.828
593.72	37.487
593.92	36.193
594.11	37.667
594.30	37.235
594.49	36.707
594.68	37.391
594.87	37.854
595.07	36.942
595.26	37.506
595.45	37.901
595.64	37.896
595.83	38.791
596.02	37.930
596.22	37.803
596.41	38.200
596.60	37.621
596.79	37.934
596.98	37.364
597.17	37.519
597.37	38.433
597.56	38.279
597.75	37.565
597.94	37.733
598.13	39.586
598.32	38.904
598.51	39.155
598.71	39.703
598.90	39.436
599.09	39.234
599.28	40.427
599.47	40.062
599.66	39.559
599.85	39.432
600.05	39.975
600.24	40.422
600.43	40.703
600.62	40.579
600.81	41.194
601.00	40.650
601.19	40.604
601.38	41.204
601.58	41.905
601.77	41.005
601.96	41.775
602.15	41.948
602.34	42.170
602.53	42.019
602.72	41.150
602.91	42.088
603.10	42.478
603.30	42.149
603.49	41.192
603.68	42.220
603.87	41.448
604.06	41.575
604.25	41.498
604.44	41.725
604.63	41.249
604.82	41.190
605.01	42.381
605.21	42.490
605.40	41.545
605.59	42.220
605.78	42.331
605.97	42.740
606.16	42.349
606.35	42.765
606.54	43.530
606.73	43.112
606.92	43.163
607.11	43.451
607.30	43.798
607.50	43.909
607.69	44.000
607.88	43.805
608.07	43.760
608.26	44.049
608.45	44.276
608.64	43.839
608.83	43.354
609.02	44.386
609.21	43.990
609.40	43.685
609.59	43.269
609.78	43.321
609.97	43.996
610.16	44.216
610.35	43.880
610.55	43.410
610.74	44.297
610.93	44.125
611.12	44.478
611.31	44.578
611.50	44.241
611.69	44.564
611.88	44.385
612.07	44.834
612.26	44.852
612.45	46.225
612.64	45.055
612.83	44.930
613.02	46.387
613.21	45.418
613.40	45.654
613.59	45.994
613.78	45.530
613.97	45.437
614.16	45.728
614.35	45.972
614.54	45.942
614.73	46.721
614.92	46.358
615.11	45.248
615.30	46.330
615.49	46.554
615.68	46.460
615.87	46.791
616.07	45.142
616.26	46.391
616.45	46.638
616.64	45.641
616.83	45.488
617.02	45.920
617.21	45.247
617.40	45.601
617.59	46.265
617.78	46.068
617.97	46.039
618.16	46.482
618.35	45.712
618.54	46.171
618.73	45.916
618.92	44.784
619.11	46.259
619.30	46.753
619.49	45.147
619.68	45.190
619.86	44.947
620.05	45.611
620.24	45.838
620.43	46.419
620.62	44.702
620.81	45.801
621.00	45.611
621.19	46.266
621.38	45.295
621.57	44.436
621.76	46.026
621.95	44.921
622.14	45.532
622.33	45.601
622.52	45.137
622.71	45.592
622.90	45.861
623.09	46.134
623.28	45.076
623.47	46.205
623.66	45.548
623.85	45.032
624.04	46.001
624.23	45.329
624.42	46.240
624.61	46.341
624.80	45.757
624.99	46.089
625.18	45.347
625.36	45.149
625.55	45.261
625.74	45.214
625.93	45.123
626.12	45.406
626.31	46.152
626.50	44.912
626.69	45.668
626.88	44.559
627.07	44.886
627.26	44.802
627.45	44.257
627.64	45.007
627.83	44.157
628.02	44.220
628.20	45.544
628.39	45.873
628.58	44.850
628.77	44.885
628.96	45.370
629.15	44.490
629.34	44.424
629.53	44.856
629.72	44.788
629.91	45.416
630.10	45.111
630.29	45.187
630.47	45.554
630.66	45.698
630.85	46.633
631.04	46.286
631.23	45.529
631.42	46.014
631.61	45.692
631.80	46.346
631.99	45.632
632.18	45.925
632.36	45.058
632.55	45.932
632.74	45.782
632.93	45.374
633.12	45.498
633.31	45.445
633.50	45.727
633.69	45.332
633.88	44.184
634.06	45.557
634.25	45.628
634.44	44.608
634.63	45.470
634.82	44.917
635.01	45.244
635.20	45.116
635.39	45.311
635.57	45.215
635.76	45.094
635.95	46.117
636.14	45.125
636.33	44.587
636.52	46.047
636.71	44.436
636.89	45.130
637.08	45.362
637.27	44.383
637.46	45.517
637.65	46.335
637.84	46.173
638.03	45.220
638.21	44.766
638.40	44.857
638.59	44.997
638.78	44.602
638.97	45.501
639.16	44.147
639.34	44.648
639.53	44.283
639.72	44.852
639.91	44.782
640.10	45.501
640.29	45.850
640.47	45.710
640.66	44.627
640.85	46.143
641.04	46.655
641.23	46.285
641.42	43.725
641.60	44.093
641.79	44.207
641.98	46.272
642.17	44.228
642.36	45.378
642.54	45.169
642.73	46.083
642.92	45.310
643.11	45.675
643.30	44.843
643.49	45.970
643.67	44.947
643.86	44.961
644.05	45.389
644.24	45.177
644.43	44.408
644.61	45.598
644.80	45.344
644.99	45.445
645.18	44.704
645.37	45.756
645.55	45.940
645.74	45.397
645.93	45.353
646.12	45.606
646.31	44.703
646.49	45.333
646.68	44.921
646.87	44.330
647.06	45.116
647.24	45.530
647.43	44.591
647.62	45.909
647.81	45.564
648.00	44.873
648.18	44.199
648.37	45.702
648.56	45.098
648.75	45.448
648.93	44.556
649.12	45.289
649.31	45.496
649.50	45.612
649.68	44.649
649.87	45.213
650.06	44.982
650.25	44.023
650.43	45.003
650.62	44.878
650.81	43.517
651.00	43.657
651.18	44.279
651.37	44.095
651.56	44.097
651.75	44.296
651.93	44.252
652.12	45.373
652.31	43.737
652.50	44.146
652.68	44.279
652.87	45.969
653.06	43.505
653.25	44.843
653.43	44.831
653.62	44.229
653.81	44.465
654.00	44.241
654.18	43.802
654.37	43.691
654.56	43.297
654.74	44.493
654.93	45.428
655.12	45.147
655.31	43.905
655.49	45.359
655.68	44.040
655.87	43.453
656.05	43.044
656.24	42.015
656.43	43.800
656.62	42.733
656.80	42.740
656.99	44.558
657.18	43.277
657.36	43.622
657.55	42.518
657.74	43.796
657.93	42.757
658.11	43.269
658.30	43.078
658.49	42.065
658.67	42.875
658.86	40.421
659.05	42.493
659.23	40.677
659.42	40.166
659.61	41.991
659.79	39.814
659.98	41.552
660.17	40.134
660.35	40.485
660.54	40.691
660.73	41.657
660.91	40.497
661.10	40.862
661.29	39.235
661.47	38.701
661.66	39.827
661.85	40.786
662.03	40.250
662.22	40.378
662.41	39.939
662.59	39.220
662.78	39.611
662.97	40.398
663.15	38.547
663.34	39.364
663.53	40.631
663.71	39.576
663.90	38.804
664.09	39.397
664.27	38.714
664.46	39.098
664.65	38.366
664.83	37.998
665.02	37.818
665.21	37.790
665.39	37.416
665.58	38.600
665.77	37.220
665.95	38.341
666.14	37.021
666.32	37.894
666.51	36.890
666.70	36.430
666.88	37.412
667.07	38.194
667.26	35.660
667.44	36.198
667.63	37.599
667.81	35.995
668.00	36.644
668.19	36.821
668.37	36.243
668.56	36.320
668.75	34.285
668.93	36.629
669.12	33.509
669.30	35.871
669.49	35.622
669.68	36.398
669.86	35.791
670.05	37.223
670.23	35.112
670.42	34.771
670.61	34.562
670.79	36.489
670.98	34.948
671.16	35.919
671.35	35.699
671.54	36.732
671.72	35.525
671.91	36.151
672.09	32.912
672.28	36.021
672.46	35.079
672.65	37.220
672.84	35.822
673.02	36.160
673.21	35.617
673.39	35.418
673.58	36.357
673.77	37.245
673.95	35.103
674.14	36.472
674.32	33.772
674.51	37.069
674.69	35.803
674.88	37.239
675.07	36.138
675.25	38.878
675.44	34.114
675.62	37.657
675.81	35.407
675.99	37.949
676.18	38.325
676.36	37.240
676.55	37.991
676.74	38.155
676.92	37.922
677.11	35.962
677.29	36.598
677.48	37.814
677.66	37.764
677.85	37.372
678.03	37.766
678.22	38.586
678.40	38.624
678.59	36.624
678.78	37.490
678.96	38.602
679.15	37.983
679.33	38.225
679.52	37.926
679.70	37.775
679.89	39.460
680.07	38.061
680.26	36.530
680.44	36.898
680.63	36.929
680.81	38.213
681.00	37.783
681.18	40.160
681.37	38.931
681.55	38.758
681.74	39.050
681.92	40.009
682.11	40.436
682.29	38.924
682.48	39.067
682.66	40.298
682.85	40.134
683.03	39.913
683.22	39.146
683.40	41.018
683.59	42.643
683.77	41.632
683.96	39.553
684.14	42.991
684.33	39.829
684.51	42.681
684.70	41.584
684.88	44.091
685.07	41.088
685.25	43.169
685.44	42.162
685.62	44.655
685.81	43.701
685.99	43.811
686.18	43.895
686.36	45.009
686.55	44.368
686.73	45.368
686.92	44.124
687.10	43.977
687.29	46.047
687.47	46.461
687.65	46.689
687.84	46.461
688.02	46.054
688.21	47.053
688.39	46.208
688.58	48.268
688.76	45.768
688.95	47.127
689.13	47.634
689.32	47.301
689.50	47.158
689.68	48.393
689.87	47.233
690.05	50.312
690.24	48.509
690.42	50.420
690.61	51.856
690.79	50.393
690.98	50.582
691.16	51.052
691.34	49.617
691.53	51.274
691.71	49.651
691.90	51.607
692.08	50.384
692.27	53.174
692.45	52.260
692.63	51.813
692.82	53.660
693.00	52.366
693.19	52.816
693.37	51.624
693.56	52.485
693.74	53.599
693.92	54.084
694.11	53.869
694.29	51.986
694.48	54.684
694.66	54.126
694.84	54.584
695.03	51.851
695.21	54.493
695.40	54.830
695.58	53.995
695.76	55.031
695.95	55.074
696.13	53.189
696.32	55.093
696.50	56.844
696.68	54.805
696.87	54.702
697.05	56.500
697.24	55.392
697.42	56.384
697.60	57.236
697.79	55.577
697.97	55.479
698.16	54.553
698.34	53.753
698.52	53.632
698.71	55.104
698.89	53.427
699.07	53.330
699.26	53.711
699.44	52.735
699.63	54.508
699.81	54.225
699.99	53.810
700.18	54.738
700.36	55.601
700.54	54.281
700.73	55.949
700.91	56.052
701.09	55.896
701.28	56.647
701.46	56.942
701.64	57.509
701.83	57.521
702.01	57.400
702.20	58.905
702.38	57.614
702.56	56.599
702.75	58.413
702.93	56.990
703.11	57.857
703.30	58.387
703.48	57.956
703.66	59.424
703.85	58.798
704.03	59.951
704.21	59.604
704.40	60.476
704.58	59.320
704.76	60.287
704.95	60.472
705.13	59.203
705.31	59.641
705.50	61.986
705.68	60.232
705.86	60.040
706.04	60.275
706.23	60.667
706.41	61.612
706.59	59.669
706.78	58.176
706.96	59.838
707.14	59.668
707.33	60.525
707.51	56.922
707.69	58.420
707.88	60.268
708.06	58.786
708.24	59.684
708.42	59.318
708.61	59.946
708.79	60.057
708.97	60.509
709.16	59.819
709.34	62.550
709.52	60.459
709.71	58.492
709.89	60.011
710.07	58.516
710.25	58.547
710.44	60.399
710.62	61.147
710.80	58.908
710.98	60.798
711.17	59.569
711.35	60.120
711.53	61.534
711.72	58.849
711.90	60.365
712.08	60.137
712.26	59.495
712.45	61.213
712.63	60.047
712.81	60.763
712.99	59.756
713.18	59.543
713.36	58.155
713.54	59.608
713.72	59.909
713.91	60.387
714.09	57.716
714.27	60.690
714.45	59.526
714.64	59.018
714.82	58.778
715.00	60.828
715.18	58.546
715.37	58.307
715.55	57.770
715.73	58.999
715.91	59.657
716.10	58.867
716.28	58.008
716.46	58.089
716.64	57.575
716.83	59.030
717.01	58.782
717.19	60.564
717.37	57.661
717.55	57.214
717.74	58.964
717.92	58.994
718.10	58.387
718.28	57.076
718.47	56.953
718.65	61.167
718.83	59.222
719.01	60.172
719.19	56.627
719.38	57.112
719.56	58.128
719.74	59.028
719.92	58.922
720.10	59.400
720.29	58.786
720.47	57.994
720.65	59.933
720.83	58.382
721.01	56.677
721.20	60.038
721.38	58.952
721.56	59.496
721.74	60.541
721.92	62.832
722.11	60.596
722.29	59.743
722.47	60.674
722.65	61.786
722.83	63.646
723.01	61.788
723.20	61.523
723.38	60.010
723.56	58.782
723.74	63.146
723.92	59.290
724.10	61.173
724.29	59.651
724.47	60.470
724.65	59.409
724.83	62.143
725.01	57.045
725.19	58.852
725.38	59.348
725.56	60.902
725.74	60.524
725.92	64.542
726.10	58.112
726.28	60.768
726.46	63.046
726.65	62.136
726.83	60.071
727.01	62.111
727.19	57.498
727.37	60.010
727.55	60.327
727.73	59.866
727.92	61.454
728.10	58.969
728.28	57.580
728.46	61.385
728.64	58.215
728.82	60.766
729.00	57.284
729.19	60.365
729.37	60.184
729.55	61.642
729.73	57.888
729.91	59.391
730.09	56.266
730.27	60.171
730.45	59.117
730.63	59.070
730.82	58.208
731.00	61.832
731.18	59.655
731.36	63.442
731.54	58.818
731.72	58.151
731.90	61.720
732.08	61.861
732.26	58.452
732.45	59.209
732.63	60.540
732.81	57.784
732.99	61.123
733.17	62.040
733.35	59.341
733.53	60.978
733.71	59.919
733.89	62.105
734.07	59.552
734.25	61.436
734.44	59.494
734.62	60.936
734.80	60.116
734.98	62.630
735.16	59.771
735.34	61.014
735.52	61.935
735.70	62.142
735.88	61.665
736.06	62.643
736.24	62.217
736.42	65.451
736.60	57.147
736.78	64.104
736.97	63.734
737.15	63.008
737.33	60.433
737.51	64.004
737.69	62.615
737.87	64.845
738.05	60.870
738.23	62.799
738.41	63.776
738.59	63.443
738.77	59.709
738.95	63.330
739.13	59.379
739.31	62.517
739.49	62.682
739.67	63.214
739.85	60.299
740.03	62.067
740.21	63.397
740.39	64.901
740.57	62.352
740.75	61.367
740.93	59.206
741.11	62.412
741.30	63.300
741.48	66.164
741.66	66.687
741.84	67.880
742.02	60.423
742.20	64.672
742.38	61.795
742.56	67.329
742.74	61.353
742.92	61.582
743.10	63.282
743.28	63.562
743.46	60.316
743.64	65.886
743.82	62.572
744.00	65.866
744.18	62.804
744.36	63.221
744.54	60.795
744.72	66.644
744.90	62.382
745.08	61.307
745.26	61.506
745.44	63.883
745.62	62.265
745.80	62.513
745.98	61.237
746.16	66.264
746.34	67.269
746.52	65.339
746.70	59.835
746.87	65.329
747.05	68.955
747.23	65.759
747.41	65.861
747.59	64.754
747.77	62.080
747.95	62.952
748.13	62.216
748.31	66.182
748.49	63.216
748.67	65.297
748.85	60.439
749.03	64.887
749.21	60.422
749.39	66.895
749.57	63.123
749.75	62.893
749.93	62.836
750.11	65.431
750.29	61.821
750.47	64.892
750.65	64.580
750.83	64.103
751.01	62.144
751.18	66.380
751.36	60.686
751.54	66.033
751.72	64.556
751.90	61.578
752.08	64.045
752.26	64.989
752.44	61.361
752.62	63.601
752.80	64.379
752.98	63.646
753.16	64.554
753.34	62.634
753.52	61.997
753.69	65.245
753.87	63.102
754.05	63.905
754.23	64.234
754.41	67.044
754.59	62.663
754.77	65.490
754.95	63.517
755.13	62.459
755.31	65.567
755.49	62.714
755.66	62.685
755.84	63.532
756.02	59.181
756.20	64.473
756.38	60.499
756.56	62.946
756.74	58.909
756.92	60.616
757.10	62.222
757.28	63.956
757.45	67.040
757.63	66.108
757.81	59.788
757.99	65.013
758.17	59.752
758.35	65.515
758.53	60.862
758.71	63.102
758.88	59.701
759.06	63.578
759.24	58.371
759.42	59.283
759.60	56.331
759.78	58.421
759.96	53.336
760.13	59.444
760.31	51.921
760.49	56.413
760.67	49.826
760.85	57.599
761.03	51.312
761.21	52.870
761.38	51.506
761.56	56.305
761.74	50.256
761.92	56.832
762.10	49.896
762.28	54.534
762.46	50.602
762.63	52.104
762.81	53.796
762.99	53.319
763.17	52.894
763.35	53.863
763.53	53.717
763.70	56.878
763.88	54.779
764.06	52.320
764.24	53.275
764.42	55.546
764.60	54.858
764.77	55.057
764.95	56.657
765.13	55.829
765.31	55.029
765.49	54.405
765.66	55.850
765.84	58.696
766.02	55.789
766.20	56.347
766.38	57.361
766.56	59.581
766.73	56.878
766.91	56.530
767.09	59.207
767.27	59.737
767.45	59.546
767.62	60.288
767.80	57.445
767.98	59.229
768.16	58.202
768.33	59.796
768.51	58.425
768.69	59.449
768.87	62.624
769.05	60.901
769.22	59.893
769.40	66.450
769.58	59.401
769.76	60.324
769.94	64.292
770.11	63.663
770.29	66.824
770.47	64.261
770.65	62.900
770.82	62.980
771.00	64.396
771.18	64.327
771.36	63.969
771.53	64.069
771.71	57.162
771.89	65.336
772.07	58.813
772.25	63.560
772.42	57.586
772.60	63.695
772.78	62.651
772.96	62.940
773.13	65.596
773.31	66.962
773.49	60.727
773.67	63.819
773.84	61.640
774.02	64.379
774.20	59.124
774.37	65.259
774.55	62.099
774.73	62.322
774.91	61.917
775.08	64.090
775.26	64.967
775.44	64.531
775.62	61.202
775.79	66.110
775.97	60.078
776.15	59.289
776.32	59.175
776.50	65.374
776.68	61.531
776.86	68.846
777.03	58.820
777.21	64.263
777.39	58.049
777.56	66.004
777.74	59.839
777.92	61.915
778.10	63.376
778.27	65.287
778.45	60.830
778.63	63.328
778.80	63.626
778.98	61.102
779.16	67.261
779.34	61.079
779.51	64.405
779.69	63.020
779.87	63.181
780.04	65.472
780.22	58.694
780.40	63.480
780.57	62.644
780.75	60.513
780.93	61.155
781.10	64.468
781.28	67.151
781.46	60.943
781.63	64.484
781.81	65.156
781.99	57.738
782.16	62.420
782.34	57.567
782.52	65.031
782.69	65.594
782.87	62.271
783.05	58.735
783.22	64.892
783.40	63.040
783.58	67.688
783.75	61.746
783.93	69.901
784.11	59.841
784.28	69.462
784.46	59.441
784.64	62.719
784.81	60.240
784.99	64.934
785.17	61.399
785.34	62.782
785.52	63.335
785.69	63.228
785.87	60.113
786.05	63.966
786.22	63.165
786.40	74.650
786.58	62.200
786.75	71.058
786.93	62.830
787.11	65.967
787.28	59.821
787.46	65.068
787.63	60.820
787.81	63.251
787.99	60.059
788.16	60.297
788.34	58.183
788.51	59.144
788.69	57.843
788.87	60.598
789.04	56.057
789.22	63.968
789.39	59.550
789.57	54.081
789.75	53.534
789.92	62.207
790.10	57.151
790.27	58.763
790.45	54.710
790.63	61.258
790.80	53.692
790.98	59.119
791.15	60.306
791.33	62.417
791.51	55.875
791.68	57.483
791.86	57.778
792.03	61.118
792.21	53.571
792.39	58.259
792.56	61.966
792.74	58.875
792.91	55.972
793.09	52.445
793.26	46.362
793.44	61.785
793.62	55.101
793.79	64.667
793.97	60.575
794.14	63.479
794.32	58.080
794.49	63.048
794.67	57.698
794.84	55.616
795.02	54.650
795.20	57.597
795.37	56.027
795.55	55.527
795.72	57.473
795.90	60.573
796.07	57.199
796.25	59.129
796.42	54.822
796.60	54.790
796.77	52.773
796.95	60.920
797.13	51.108
797.30	59.843
797.48	59.197
797.65	62.673
797.83	55.569
798.00	59.048
798.18	51.662
798.35	59.278
798.53	55.569
798.70	53.789
798.88	60.471
799.05	58.808
799.23	55.651
799.40	56.769
799.58	52.521
799.75	58.184
799.93	58.349
800.10	60.238
800.28	54.070
800.45	52.391
800.63	57.765
800.80	63.348
800.98	60.163
801.15	61.937
801.33	56.464
801.50	52.520
801.68	53.022
801.85	53.611
802.03	54.024
802.20	63.817
802.38	52.650
802.55	56.820
802.73	48.836
802.90	56.648
803.08	50.594
803.25	61.059
803.43	53.623
803.60	56.693
803.78	55.459
803.95	57.504
804.13	61.068
804.30	56.053
804.48	51.227
804.65	58.376
804.83	55.399
805.00	58.178
805.17	60.203
805.35	59.505
805.52	51.952
805.70	58.427
805.87	60.837
806.05	57.415
806.22	49.059
806.40	51.388
806.57	54.633
806.75	57.350
806.92	65.260
807.09	54.119
807.27	55.000
807.44	64.479
807.62	53.605
807.79	56.061
807.97	57.787
808.14	60.237
808.31	53.519
808.49	56.198
808.66	47.174
808.84	57.978
809.01	50.243
809.19	55.085
809.36	59.871
809.53	52.639
809.71	52.430
809.88	58.340
810.06	61.670
810.23	57.029
810.41	55.924
810.58	56.826
810.75	52.981
810.93	57.957
811.10	59.668
811.28	56.915
811.45	53.813
811.62	54.402
811.80	52.687
811.97	54.040
812.15	57.095
812.32	48.163
812.49	49.045
812.67	57.118
812.84	55.938
813.02	58.406
813.19	50.823
813.36	48.973
813.54	46.607
813.71	54.244
813.89	53.575
814.06	55.043
814.23	51.792
814.41	52.925
814.58	53.161
814.75	54.730
814.93	54.002
815.10	57.089
815.28	50.487
815.45	55.839
815.62	52.317
815.80	47.648
815.97	44.290
816.14	60.873
816.32	51.418
816.49	46.625
816.66	53.253
816.84	52.714
817.01	48.250
817.18	53.292
817.36	47.392
817.53	57.156
817.71	46.546
817.88	52.608
818.05	45.714
818.23	48.842
818.40	37.984
818.57	56.261
818.75	49.614
818.92	47.417
819.09	51.363
819.27	48.348
819.44	51.876
819.61	50.731
819.79	49.840
819.96	55.362
820.13	46.121
820.31	54.450
820.48	52.839
820.65	51.396
820.82	45.869
821.00	52.442
821.17	42.035
821.34	47.047
821.52	50.208
821.69	47.514
821.86	48.880
822.04	52.622
822.21	53.737
822.38	53.975
822.56	52.856
822.73	53.540
822.90	52.460
823.07	54.011
823.25	53.362
823.42	52.635
823.59	53.594
823.77	52.919
823.94	53.693
824.11	53.393
824.29	52.496
824.46	53.605
824.63	55.077
824.80	54.235
824.98	53.380
825.15	53.735
825.32	51.417
825.49	53.989
825.67	52.207
825.84	53.905
826.01	49.773
826.19	50.752
826.36	50.698
826.53	54.527
826.70	50.513
826.88	51.680
827.05	50.806
827.22	50.337
827.39	49.954
827.57	49.986
827.74	48.946
827.91	53.838
828.08	47.927
828.26	49.851
828.43	48.468
828.60	52.373
828.77	51.882
828.95	53.072
829.12	44.506
829.29	47.712
829.46	47.526
829.64	52.256
829.81	40.400
829.98	53.090
830.15	44.741
830.32	52.929
830.50	42.788
830.67	53.641
830.84	42.764
831.01	40.473
831.19	45.696
831.36	50.144
831.53	41.790
831.70	55.344
831.87	48.514
832.05	50.306
832.22	55.546
832.39	43.700
832.56	40.734
832.74	46.282
832.91	42.292
833.08	51.562
833.25	45.729
833.42	43.802
833.60	41.369
833.77	41.587
833.94	40.516
834.11	43.042
834.28	42.742
834.45	49.580
834.63	43.346
834.80	49.833
834.97	45.410
835.14	47.498
835.31	48.891
835.49	46.545
835.66	45.592
835.83	46.333
836.00	50.024
836.17	44.239
836.34	43.813
836.52	46.829
836.69	48.694
836.86	50.571
837.03	48.893
837.20	44.701
837.37	49.710
837.55	42.052
837.72	47.997
837.89	54.124
838.06	45.213
838.23	52.227
838.40	48.204
838.58	44.037
838.75	47.664
838.92	53.446
839.09	59.784
839.26	53.588
839.43	52.613
839.60	59.160
839.78	71.953
839.95	47.512
840.12	54.904
840.29	62.981
840.46	47.889
840.63	53.348
840.80	54.043
840.98	59.709
841.15	51.146
841.32	49.158
841.49	43.391
841.66	54.506
841.83	46.813
842.00	42.414
842.17	54.119
842.34	49.408
842.52	58.125
842.69	55.643
842.86	50.000
843.03	70.521
843.20	58.808
843.37	57.638
843.54	51.223
843.71	64.348
843.88	59.289
844.06	61.682
844.23	70.714
844.40	55.810
844.57	52.000
844.74	63.100
844.91	65.678
845.08	74.780
845.25	69.455
845.42	68.260
845.59	66.667
845.76	60.155
845.94	75.121
846.11	75.319
846.28	72.283
846.45	70.825
846.62	84.730
846.79	70.751
846.96	65.182
847.13	74.330
847.30	72.863
847.47	61.583
847.64	75.105
847.81	80.392
847.98	87.424
848.15	73.629
848.32	92.220
848.50	74.292
848.67	68.980
848.84	88.564
849.01	68.281
849.18	72.045
849.35	102.906
849.52	79.226
849.69	83.704
849.86	102.663
850.03	83.918
850.20	80.396
850.37	65.517
850.54	90.732
850.71	83.333
850.88	58.407
851.05	77.273
851.22	100.990
851.39	77.322
851.56	57.673
851.73	100.852
851.90	77.558
852.07	72.280
852.24	80.137
852.41	69.231
852.58	102.356
852.75	73.121
852.92	58.809
853.09	94.459
853.26	86.667
853.43	77.372
853.60	85.756
853.77	72.482
853.94	75.776
854.11	92.011
854.28	97.442
854.45	50.000
854.62	76.411
854.79	92.541
854.96	73.963
855.13	88.489
855.30	88.813
855.47	100.305
855.64	64.174
855.81	63.636
855.98	79.722
856.15	105.208
856.32	91.582
856.49	72.564
856.66	94.231
856.83	61.800
857.00	59.836
857.17	113.172
857.34	74.734
857.51	87.634
857.68	83.901
857.85	87.106
858.02	78.802
858.19	104.487
858.36	94.713
858.53	84.431
858.70	68.394
858.87	95.679
859.04	80.556
859.21	59.654
859.38	98.082
859.55	94.330
859.72	89.503
859.89	101.397
860.05	66.585
860.22	90.705
860.39	105.488
860.56	74.772
860.73	76.941
860.90	73.354
861.07	89.014
861.24	57.757
861.41	94.906
861.58	71.569
861.75	72.956
861.92	87.198
862.09	84.974
862.26	91.148
862.43	95.853
862.59	107.885
862.76	94.410
862.93	87.297
863.10	62.899
863.27	74.237
863.44	78.436
863.61	95.092
863.78	80.180
863.95	98.168
864.12	65.287
864.29	105.785
864.45	89.687
864.62	82.228
864.79	77.121
864.96	80.387
865.13	78.846
865.30	85.432
865.47	83.476
865.64	87.105
865.81	67.024
865.97	64.984
866.14	70.789
866.31	80.208
866.48	99.753
866.65	62.992
866.82	99.532
866.99	96.716
867.16	66.759
867.33	106.897
867.49	82.857
867.66	73.766
867.83	74.663
868.00	73.333
868.17	67.424
868.34	105.861
868.51	67.377
868.67	68.328
868.84	88.624
869.01	85.484
869.18	58.140
869.35	86.290
869.52	77.716
869.69	96.562
869.85	70.466
870.02	88.926
870.19	105.431
870.36	84.923
870.53	80.282
870.70	97.245
870.86	83.636
871.03	76.902
871.20	69.126
871.37	114.557
871.54	83.333
871.71	67.568
871.87	92.412
872.04	85.326
872.21	78.161
872.38	110.417
872.55	76.620
872.72	57.493
872.88	91.315
873.05	81.441
873.22	111.915
873.39	79.947
873.56	89.855
873.72	78.534
873.89	59.091
874.06	73.900
874.23	74.144
874.40	85.583
874.56	76.347
874.73	76.826
874.90	74.425
875.07	88.215
875.24	75.190
875.40	60.502
875.57	75.843
875.74	66.197
875.91	69.586
876.08	81.194
876.24	91.599
876.41	108.215
876.58	80.357
876.75	80.563
876.92	83.333
877.08	72.431
877.25	74.112
877.42	73.066
877.59	66.469
877.75	104.624
877.92	61.968
878.09	67.363
878.26	74.935
878.42	88.235
878.59	93.899
878.76	62.344
878.93	65.133
879.09	69.610
879.26	63.587
879.43	72.297
879.60	70.380
879.76	61.233
879.93	63.109
880.10	67.276
880.27	50.287
880.43	58.556
880.60	56.916
880.77	43.461
880.94	51.338
881.10	38.645
881.27	35.029
881.44	36.223
881.61	45.850
881.77	46.438
881.94	41.466
882.11	33.556
882.28	32.139
882.44	38.735
882.61	43.250
882.78	41.509
882.94	47.028
883.11	46.678
883.28	48.300
883.45	42.059
883.61	40.827
883.78	37.367
883.95	45.679
884.11	44.914
884.28	41.877
>>>>>End Processed Spectral Data<<<<<
