SpectraSuite Data File
++++++++++++++++++++++++++++++++++++
Date: Mon Sep 23 04:14:49 EST 2019
User: sgrac
Dark Spectrum Present: Yes
Reference Spectrum Present: Yes
Number of Sampled Component Spectra: 1
Spectrometers: USB4E01596
Integration Time (usec): 100000 (USB4E01596)
Spectra Averaged: 3 (USB4E01596)
Boxcar Smoothing: 0 (USB4E01596)
Correct for Electrical Dark: No (USB4E01596)
Strobe/Lamp Enabled: Yes (USB4E01596)
Correct for Detector Non-linearity: No (USB4E01596)
Correct for Stray Light: No (USB4E01596)
Number of Pixels in Processed Spectrum: 3648
>>>>>Begin Processed Spectral Data<<<<<
178.44	1892.308
178.66	1892.308
178.87	1892.308
179.09	8833.333
179.30	-6950.000
179.52	-706.452
179.74	-581.132
179.95	684.091
180.17	-652.778
180.38	559.649
180.60	-2754.545
180.82	833.333
181.03	4650.000
181.25	-2450.000
181.46	-1296.000
181.68	1625.000
181.89	-543.182
182.11	-1925.000
182.33	-1912.500
182.54	702.083
182.76	4950.000
182.97	-638.298
183.19	1260.000
183.40	301.653
183.62	430.769
183.84	330.000
184.05	3814.286
184.27	478.788
184.48	387.879
184.70	1876.471
184.91	1290.476
185.13	2960.000
185.34	-16150.000
185.56	1330.769
185.78	422.222
185.99	827.778
186.21	453.409
186.42	-6725.000
186.64	2250.000
186.85	-6700.000
187.07	618.000
187.28	481.579
187.50	567.273
187.72	303.846
187.93	827.273
188.15	367.708
188.36	500.000
188.58	591.837
188.79	286.538
189.01	543.662
189.22	854.054
189.44	-851.515
189.65	318.644
189.87	-6675.000
190.09	473.016
190.30	928.571
190.52	560.000
190.73	773.913
190.95	-4933.333
191.16	370.238
191.38	478.378
191.59	475.000
191.81	520.968
192.02	1820.000
192.24	881.250
192.45	1123.529
192.67	-2162.500
192.88	445.283
193.10	514.754
193.31	947.500
193.53	257.258
193.74	397.333
193.96	2092.857
194.18	1069.231
194.39	2060.000
194.61	461.644
194.82	1404.545
195.04	326.829
195.25	-382.456
195.47	-575.926
195.68	4366.667
195.90	636.364
196.11	389.552
196.33	23100.000
196.54	746.341
196.76	2135.714
196.97	432.468
197.19	737.838
197.40	2407.143
197.62	321.101
197.83	970.968
198.05	714.545
198.26	1093.103
198.48	439.437
198.69	428.333
198.91	1666.667
199.12	606.977
199.34	691.304
199.55	465.714
199.77	1789.474
199.98	1011.765
200.20	442.105
200.41	619.355
200.63	303.540
200.84	2114.286
201.06	3522.222
201.27	868.293
201.49	483.099
201.70	-1000.000
201.91	481.944
202.13	516.949
202.34	543.103
202.56	-1068.000
202.77	615.556
202.99	5250.000
203.20	-3937.500
203.42	1743.750
203.63	418.421
203.85	5450.000
204.06	602.000
204.28	332.323
204.49	700.000
204.71	494.915
204.92	980.769
205.14	0.000
205.35	1090.000
205.56	-1340.000
205.78	8300.000
205.99	-1892.857
206.21	13150.000
206.42	672.727
206.64	903.226
206.85	811.111
207.07	-3322.222
207.28	503.448
207.50	660.870
207.71	967.742
207.93	392.771
208.14	-1259.259
208.35	456.364
208.57	884.000
208.78	-3955.556
209.00	380.851
209.21	-14250.000
209.43	-8866.667
209.64	-1826.667
209.86	273.196
210.07	443.023
210.28	408.451
210.50	1075.862
210.71	625.490
210.93	230.147
211.14	503.371
211.36	2031.250
211.57	386.364
211.78	390.000
212.00	371.765
212.21	518.571
212.43	805.128
212.64	419.149
212.86	410.811
213.07	350.459
213.29	-808.333
213.50	302.174
213.71	375.862
213.93	421.951
214.14	1636.364
214.36	469.118
214.57	432.911
214.78	737.778
215.00	373.958
215.21	1076.667
215.43	829.730
215.64	396.825
215.86	351.250
216.07	891.429
216.28	797.368
216.50	319.167
216.71	31100.000
216.93	556.061
217.14	1822.222
217.35	288.636
217.57	309.910
217.78	409.877
218.00	277.778
218.21	1130.435
218.42	689.362
218.64	478.571
218.85	538.000
219.07	1280.000
219.28	329.907
219.49	539.216
219.71	552.308
219.92	234.328
220.14	331.959
220.35	470.667
220.56	396.552
220.78	359.615
220.99	307.258
221.21	297.849
221.42	337.037
221.63	200.000
221.85	449.231
222.06	454.286
222.28	429.231
222.49	196.396
222.70	276.378
222.92	663.265
223.13	509.836
223.34	213.475
223.56	300.000
223.77	372.500
223.99	375.789
224.20	446.429
224.41	398.630
224.63	355.682
224.84	270.946
225.05	143.590
225.27	306.957
225.48	350.000
225.69	291.729
225.91	390.541
226.12	255.814
226.34	218.121
226.55	197.842
226.76	255.625
226.98	151.765
227.19	121.094
227.40	259.375
227.62	163.492
227.83	149.785
228.04	110.894
228.26	75.064
228.47	82.153
228.69	59.898
228.90	54.584
229.11	45.997
229.33	48.903
229.54	35.907
229.75	43.262
229.97	34.051
230.18	40.562
230.39	34.181
230.61	33.817
230.82	38.563
231.03	39.149
231.25	29.366
231.46	46.154
231.67	36.697
231.89	52.646
232.10	46.934
232.31	51.166
232.53	59.253
232.74	60.748
232.95	38.475
233.17	44.600
233.38	49.580
233.59	49.536
233.81	67.935
234.02	62.325
234.23	55.319
234.45	62.153
234.66	47.566
234.87	58.607
235.09	66.077
235.30	46.760
235.51	60.854
235.73	58.998
235.94	50.218
236.15	53.001
236.36	57.944
236.58	43.370
236.79	46.755
237.00	44.428
237.22	56.803
237.43	55.244
237.64	50.866
237.86	40.602
238.07	59.450
238.28	46.452
238.50	52.365
238.71	60.072
238.92	47.812
239.13	43.220
239.35	51.166
239.56	51.060
239.77	50.706
239.99	38.928
240.20	48.476
240.41	49.928
240.63	38.949
240.84	40.920
241.05	36.518
241.26	36.873
241.48	33.028
241.69	21.090
241.90	20.127
242.12	21.373
242.33	19.538
242.54	19.017
242.75	18.453
242.97	18.392
243.18	14.756
243.39	13.866
243.61	12.218
243.82	13.305
244.03	13.279
244.24	11.663
244.46	15.939
244.67	17.327
244.88	16.692
245.09	19.322
245.31	22.943
245.52	18.746
245.73	16.566
245.95	35.802
246.16	18.895
246.37	16.579
246.58	17.647
246.80	13.843
247.01	16.726
247.22	12.456
247.43	13.824
247.65	11.252
247.86	10.215
248.07	8.626
248.28	9.934
248.50	8.409
248.71	7.487
248.92	7.085
249.13	7.396
249.35	8.765
249.56	9.775
249.77	9.424
249.98	11.202
250.20	12.778
250.41	10.987
250.62	12.467
250.83	14.581
251.05	15.974
251.26	17.750
251.47	16.782
251.68	18.634
251.90	17.758
252.11	18.917
252.32	17.149
252.53	16.667
252.75	16.324
252.96	18.251
253.17	13.447
253.38	15.890
253.59	15.489
253.81	15.691
254.02	13.276
254.23	13.263
254.44	13.053
254.66	11.803
254.87	16.519
255.08	21.995
255.29	19.661
255.50	18.719
255.72	18.143
255.93	25.934
256.14	25.655
256.35	20.416
256.57	26.443
256.78	20.505
256.99	20.270
257.20	24.225
257.41	19.170
257.63	23.794
257.84	20.327
258.05	21.778
258.26	18.682
258.47	14.588
258.69	18.187
258.90	11.892
259.11	11.804
259.32	11.178
259.53	10.628
259.75	13.976
259.96	10.707
260.17	8.718
260.38	6.841
260.59	7.950
260.81	7.394
261.02	5.618
261.23	5.820
261.44	7.004
261.65	5.096
261.87	6.080
262.08	4.797
262.29	8.269
262.50	7.270
262.71	7.215
262.92	9.071
263.14	10.461
263.35	9.993
263.56	11.038
263.77	13.107
263.98	16.112
264.20	15.285
264.41	13.751
264.62	12.697
264.83	11.441
265.04	16.546
265.25	15.676
265.47	11.440
265.68	16.108
265.89	16.415
266.10	8.206
266.31	16.329
266.52	11.466
266.74	12.032
266.95	13.215
267.16	15.458
267.37	10.664
267.58	12.839
267.79	12.584
268.01	9.487
268.22	10.050
268.43	10.636
268.64	10.145
268.85	11.365
269.06	9.914
269.27	10.708
269.49	9.542
269.70	10.630
269.91	9.382
270.12	8.566
270.33	11.839
270.54	6.660
270.75	8.854
270.97	9.551
271.18	10.555
271.39	8.789
271.60	10.713
271.81	10.546
272.02	9.153
272.23	9.884
272.45	9.193
272.66	6.426
272.87	8.235
273.08	6.728
273.29	7.431
273.50	6.406
273.71	7.765
273.92	5.639
274.14	7.036
274.35	8.288
274.56	8.487
274.77	7.028
274.98	7.011
275.19	7.381
275.40	8.929
275.61	7.748
275.83	12.197
276.04	10.315
276.25	10.699
276.46	8.321
276.67	9.389
276.88	10.567
277.09	8.704
277.30	9.857
277.51	12.177
277.73	7.241
277.94	9.395
278.15	11.961
278.36	10.755
278.57	8.079
278.78	7.760
278.99	12.084
279.20	10.340
279.41	11.643
279.62	9.579
279.84	7.874
280.05	9.250
280.26	9.201
280.47	10.196
280.68	9.802
280.89	9.385
281.10	10.268
281.31	10.764
281.52	10.341
281.73	8.301
281.94	7.162
282.16	8.567
282.37	7.288
282.58	8.034
282.79	11.935
283.00	10.674
283.21	8.289
283.42	5.907
283.63	7.635
283.84	7.034
284.05	9.877
284.26	7.340
284.47	8.692
284.68	7.681
284.89	8.576
285.11	8.089
285.32	7.543
285.53	9.027
285.74	7.493
285.95	5.689
286.16	5.715
286.37	4.990
286.58	7.192
286.79	6.514
287.00	6.651
287.21	5.922
287.42	5.869
287.63	6.871
287.84	5.746
288.05	7.192
288.26	5.874
288.48	7.267
288.69	4.931
288.90	8.478
289.11	8.138
289.32	7.701
289.53	6.610
289.74	7.370
289.95	8.551
290.16	6.377
290.37	6.579
290.58	5.864
290.79	6.253
291.00	5.607
291.21	5.210
291.42	5.563
291.63	7.160
291.84	7.942
292.05	4.805
292.26	5.660
292.47	6.899
292.68	4.852
292.89	6.025
293.10	8.091
293.31	7.315
293.52	6.023
293.73	7.722
293.94	7.831
294.15	6.492
294.36	8.500
294.57	7.246
294.79	7.032
295.00	6.809
295.21	9.346
295.42	7.034
295.63	8.030
295.84	7.034
296.05	5.887
296.26	5.393
296.47	4.359
296.68	6.389
296.89	7.192
297.10	6.089
297.31	6.836
297.52	4.282
297.73	5.937
297.94	4.647
298.15	4.460
298.36	4.971
298.57	4.304
298.78	5.249
298.99	4.786
299.20	5.376
299.41	5.889
299.62	5.321
299.83	5.107
300.04	4.521
300.25	7.357
300.46	7.163
300.67	6.741
300.88	6.014
301.09	4.722
301.30	6.957
301.50	8.152
301.71	6.567
301.92	7.209
302.13	6.990
302.34	5.312
302.55	6.720
302.76	5.547
302.97	5.705
303.18	7.125
303.39	7.055
303.60	7.353
303.81	7.132
304.02	4.785
304.23	7.458
304.44	6.764
304.65	5.601
304.86	6.130
305.07	4.526
305.28	6.048
305.49	8.037
305.70	7.336
305.91	7.394
306.12	6.891
306.33	5.262
306.54	7.272
306.75	6.893
306.96	11.145
307.17	6.980
307.38	7.278
307.58	8.472
307.79	6.720
308.00	6.890
308.21	7.582
308.42	5.410
308.63	5.444
308.84	5.757
309.05	6.876
309.26	4.656
309.47	6.186
309.68	5.520
309.89	5.913
310.10	7.594
310.31	6.570
310.52	4.682
310.73	6.678
310.94	4.652
311.14	6.230
311.35	4.936
311.56	6.543
311.77	5.024
311.98	5.305
312.19	4.439
312.40	4.662
312.61	3.395
312.82	6.202
313.03	3.548
313.24	6.367
313.45	5.176
313.66	5.800
313.86	7.507
314.07	5.663
314.28	7.304
314.49	4.836
314.70	6.623
314.91	6.914
315.12	5.130
315.33	8.117
315.54	5.977
315.75	6.814
315.96	6.450
316.16	7.537
316.37	5.999
316.58	6.540
316.79	6.360
317.00	6.238
317.21	5.930
317.42	7.472
317.63	6.104
317.84	6.057
318.05	6.881
318.25	8.669
318.46	6.420
318.67	6.508
318.88	6.277
319.09	7.634
319.30	7.283
319.51	6.014
319.72	6.926
319.93	6.621
320.13	5.707
320.34	9.603
320.55	7.601
320.76	7.203
320.97	7.040
321.18	7.896
321.39	5.042
321.60	8.558
321.80	8.033
322.01	7.775
322.22	6.551
322.43	5.985
322.64	7.429
322.85	7.710
323.06	7.682
323.27	6.746
323.47	8.024
323.68	8.394
323.89	6.414
324.10	7.653
324.31	6.531
324.52	7.738
324.73	8.256
324.93	6.138
325.14	7.978
325.35	6.090
325.56	5.751
325.77	6.583
325.98	8.072
326.19	6.954
326.39	5.773
326.60	5.948
326.81	4.602
327.02	5.847
327.23	6.484
327.44	5.065
327.64	5.802
327.85	4.638
328.06	5.759
328.27	6.245
328.48	6.345
328.69	4.307
328.90	6.272
329.10	6.824
329.31	6.842
329.52	6.326
329.73	7.504
329.94	6.456
330.15	7.004
330.35	8.860
330.56	7.930
330.77	7.257
330.98	5.997
331.19	6.986
331.39	8.038
331.60	6.673
331.81	4.884
332.02	6.311
332.23	6.906
332.44	6.362
332.64	6.462
332.85	4.512
333.06	5.917
333.27	5.892
333.48	6.619
333.68	6.065
333.89	6.548
334.10	5.943
334.31	6.520
334.52	7.199
334.72	5.052
334.93	6.542
335.14	5.779
335.35	5.471
335.56	6.240
335.76	5.979
335.97	6.419
336.18	6.454
336.39	6.436
336.60	5.610
336.80	5.347
337.01	4.869
337.22	5.670
337.43	6.990
337.64	7.060
337.84	6.931
338.05	5.490
338.26	8.358
338.47	7.209
338.68	5.838
338.88	5.720
339.09	4.981
339.30	6.793
339.51	6.621
339.71	6.252
339.92	5.423
340.13	6.425
340.34	6.825
340.55	6.036
340.75	7.494
340.96	5.889
341.17	6.285
341.38	6.119
341.58	7.290
341.79	6.511
342.00	4.949
342.21	6.077
342.41	5.189
342.62	5.801
342.83	7.057
343.04	5.310
343.24	6.311
343.45	6.330
343.66	4.987
343.87	6.040
344.07	5.579
344.28	7.353
344.49	6.854
344.70	8.227
344.90	6.027
345.11	5.177
345.32	6.121
345.53	7.248
345.73	7.414
345.94	6.988
346.15	8.117
346.36	5.911
346.56	6.410
346.77	7.495
346.98	7.064
347.19	8.613
347.39	6.912
347.60	7.790
347.81	7.580
348.02	8.360
348.22	7.473
348.43	8.769
348.64	7.544
348.84	8.727
349.05	9.059
349.26	10.320
349.47	6.948
349.67	9.297
349.88	10.414
350.09	9.442
350.30	12.528
350.50	9.178
350.71	9.695
350.92	10.570
351.12	10.507
351.33	10.182
351.54	10.721
351.74	11.650
351.95	10.082
352.16	13.250
352.37	12.818
352.57	11.097
352.78	12.101
352.99	13.098
353.19	12.258
353.40	12.798
353.61	14.785
353.82	14.723
354.02	15.092
354.23	13.601
354.44	16.016
354.64	13.763
354.85	14.938
355.06	13.408
355.26	12.539
355.47	14.849
355.68	17.057
355.88	15.315
356.09	16.318
356.30	15.592
356.51	17.563
356.71	16.281
356.92	14.679
357.13	16.816
357.33	18.406
357.54	17.106
357.75	14.688
357.95	17.861
358.16	16.230
358.37	19.070
358.57	16.520
358.78	20.220
358.99	16.776
359.19	18.047
359.40	19.942
359.61	17.491
359.81	19.772
360.02	21.351
360.23	17.248
360.43	18.754
360.64	17.229
360.85	18.424
361.05	18.076
361.26	19.993
361.47	17.623
361.67	21.139
361.88	17.796
362.09	19.631
362.29	17.113
362.50	18.976
362.70	17.554
362.91	20.332
363.12	18.965
363.32	20.462
363.53	20.184
363.74	20.188
363.94	18.568
364.15	21.932
364.36	20.840
364.56	19.326
364.77	19.151
364.98	21.330
365.18	19.163
365.39	19.991
365.59	18.730
365.80	20.284
366.01	21.119
366.21	19.397
366.42	17.072
366.63	20.397
366.83	18.504
367.04	16.861
367.24	21.456
367.45	19.951
367.66	17.593
367.86	19.967
368.07	17.818
368.28	18.728
368.48	19.411
368.69	17.680
368.89	18.988
369.10	19.471
369.31	18.480
369.51	19.161
369.72	21.215
369.92	20.891
370.13	16.843
370.34	19.184
370.54	15.210
370.75	19.390
370.95	16.684
371.16	18.881
371.37	18.556
371.57	18.318
371.78	17.687
371.98	18.948
372.19	19.191
372.40	19.266
372.60	18.868
372.81	19.438
373.01	15.968
373.22	17.755
373.43	18.526
373.63	19.361
373.84	18.774
374.04	18.437
374.25	17.253
374.46	19.110
374.66	17.580
374.87	20.067
375.07	14.648
375.28	17.006
375.48	18.141
375.69	17.531
375.90	15.656
376.10	17.649
376.31	17.085
376.51	17.489
376.72	17.245
376.92	15.980
377.13	17.577
377.34	18.200
377.54	16.094
377.75	19.566
377.95	16.171
378.16	18.590
378.36	17.719
378.57	18.201
378.77	17.302
378.98	16.730
379.19	16.508
379.39	16.332
379.60	17.116
379.80	16.819
380.01	16.799
380.21	16.262
380.42	17.296
380.62	17.327
380.83	17.002
381.04	16.645
381.24	16.484
381.45	17.503
381.65	15.178
381.86	16.780
382.06	17.327
382.27	15.546
382.47	16.518
382.68	17.175
382.88	14.420
383.09	15.790
383.29	16.352
383.50	17.108
383.71	15.958
383.91	16.202
384.12	15.578
384.32	17.334
384.53	15.525
384.73	15.129
384.94	14.890
385.14	15.715
385.35	14.497
385.55	16.303
385.76	15.062
385.96	15.659
386.17	15.890
386.37	16.635
386.58	14.983
386.78	16.243
386.99	13.263
387.19	16.841
387.40	14.466
387.60	17.599
387.81	14.523
388.01	15.009
388.22	15.739
388.42	16.404
388.63	16.318
388.83	17.966
389.04	13.567
389.24	15.825
389.45	15.518
389.65	15.001
389.86	14.745
390.06	14.314
390.27	14.519
390.47	14.532
390.68	14.816
390.88	15.433
391.09	15.320
391.29	15.877
391.50	15.723
391.70	15.415
391.91	15.221
392.11	14.614
392.32	15.438
392.52	15.863
392.73	14.875
392.93	15.204
393.14	15.261
393.34	14.785
393.55	15.334
393.75	15.746
393.95	14.404
394.16	15.611
394.36	16.030
394.57	15.512
394.77	15.435
394.98	14.894
395.18	15.229
395.39	14.882
395.59	14.717
395.80	15.520
396.00	15.052
396.21	15.952
396.41	13.357
396.61	15.466
396.82	14.367
397.02	16.607
397.23	14.547
397.43	14.536
397.64	13.090
397.84	15.511
398.05	13.370
398.25	15.340
398.45	14.333
398.66	14.221
398.86	14.085
399.07	15.150
399.27	13.673
399.48	15.704
399.68	13.376
399.89	13.895
400.09	14.275
400.29	14.027
400.50	13.110
400.70	14.258
400.91	13.574
401.11	13.981
401.32	13.736
401.52	11.924
401.72	13.349
401.93	15.306
402.13	13.897
402.34	13.591
402.54	12.676
402.75	15.372
402.95	11.880
403.15	15.068
403.36	13.004
403.56	14.227
403.77	12.925
403.97	13.313
404.17	12.246
404.38	14.741
404.58	12.352
404.79	14.079
404.99	13.471
405.19	14.069
405.40	13.784
405.60	13.075
405.81	12.728
406.01	13.166
406.21	12.456
406.42	13.791
406.62	13.340
406.83	13.356
407.03	13.356
407.23	13.501
407.44	12.683
407.64	14.550
407.85	13.047
408.05	12.478
408.25	13.033
408.46	14.252
408.66	13.466
408.87	12.788
409.07	13.388
409.27	12.594
409.48	12.607
409.68	13.222
409.88	10.906
410.09	13.086
410.29	12.721
410.50	14.333
410.70	11.689
410.90	12.133
411.11	11.950
411.31	12.557
411.51	13.126
411.72	13.259
411.92	12.117
412.12	13.022
412.33	11.490
412.53	12.056
412.74	11.327
412.94	12.480
413.14	12.848
413.35	13.393
413.55	13.045
413.75	13.351
413.96	11.894
414.16	12.490
414.36	11.815
414.57	12.691
414.77	11.775
414.97	12.818
415.18	11.355
415.38	12.911
415.58	11.942
415.79	11.079
415.99	11.167
416.19	13.233
416.40	12.477
416.60	12.521
416.80	11.803
417.01	12.647
417.21	11.069
417.41	12.578
417.62	11.768
417.82	12.594
418.02	11.465
418.23	12.179
418.43	11.764
418.63	12.894
418.84	12.271
419.04	12.516
419.24	12.802
419.45	12.820
419.65	12.602
419.85	12.834
420.06	12.654
420.26	13.206
420.46	12.773
420.67	12.765
420.87	12.354
421.07	12.721
421.28	12.345
421.48	12.631
421.68	12.441
421.88	12.704
422.09	12.592
422.29	12.761
422.49	12.457
422.70	12.407
422.90	12.434
423.10	12.657
423.31	12.777
423.51	12.817
423.71	12.377
423.91	12.598
424.12	12.438
424.32	12.693
424.52	12.453
424.73	12.525
424.93	12.573
425.13	12.329
425.33	12.195
425.54	12.185
425.74	12.427
425.94	13.018
426.15	12.997
426.35	12.611
426.55	12.702
426.75	13.091
426.96	12.789
427.16	12.653
427.36	12.836
427.57	13.017
427.77	12.250
427.97	12.761
428.17	12.557
428.38	13.068
428.58	11.743
428.78	13.031
428.98	11.673
429.19	12.066
429.39	11.450
429.59	12.395
429.79	10.881
430.00	11.226
430.20	11.132
430.40	12.084
430.60	11.326
430.81	11.662
431.01	11.187
431.21	12.168
431.41	11.371
431.62	12.242
431.82	11.664
432.02	12.112
432.22	11.074
432.43	12.500
432.63	11.791
432.83	12.150
433.03	11.805
433.24	11.875
433.44	11.449
433.64	11.968
433.84	11.790
434.05	12.230
434.25	12.238
434.45	12.552
434.65	12.466
434.85	12.766
435.06	12.298
435.26	11.958
435.46	12.539
435.66	12.856
435.87	12.779
436.07	12.220
436.27	12.538
436.47	11.789
436.67	11.888
436.88	12.690
437.08	12.099
437.28	12.330
437.48	11.640
437.69	12.726
437.89	11.847
438.09	12.470
438.29	12.374
438.49	12.783
438.70	12.321
438.90	12.310
439.10	11.933
439.30	11.972
439.50	11.548
439.71	12.487
439.91	11.901
440.11	12.685
440.31	12.133
440.51	11.885
440.72	12.011
440.92	12.000
441.12	12.302
441.32	12.400
441.52	12.388
441.72	12.220
441.93	12.405
442.13	12.540
442.33	12.690
442.53	12.707
442.73	12.112
442.94	12.404
443.14	12.983
443.34	12.693
443.54	12.466
443.74	12.629
443.94	12.465
444.15	12.188
444.35	11.958
444.55	12.903
444.75	12.238
444.95	12.552
445.15	12.263
445.36	12.086
445.56	11.989
445.76	12.021
445.96	11.923
446.16	12.265
446.36	11.812
446.57	12.517
446.77	12.346
446.97	12.435
447.17	12.464
447.37	12.206
447.57	12.419
447.77	12.442
447.98	12.259
448.18	12.358
448.38	12.326
448.58	12.789
448.78	12.627
448.98	12.563
449.18	12.809
449.39	12.447
449.59	12.560
449.79	12.623
449.99	12.504
450.19	13.137
450.39	12.194
450.59	12.533
450.79	12.396
451.00	12.721
451.20	13.897
451.40	12.436
451.60	12.003
451.80	13.278
452.00	12.258
452.20	12.617
452.40	12.256
452.61	12.312
452.81	12.400
453.01	12.574
453.21	12.446
453.41	12.357
453.61	12.369
453.81	12.128
454.01	12.210
454.21	12.337
454.42	12.701
454.62	12.239
454.82	11.987
455.02	12.661
455.22	11.977
455.42	12.409
455.62	11.696
455.82	12.535
456.02	12.515
456.23	12.632
456.43	11.637
456.63	12.069
456.83	12.352
457.03	12.773
457.23	12.352
457.43	12.703
457.63	11.653
457.83	12.420
458.03	11.849
458.23	12.127
458.43	11.767
458.64	11.696
458.84	11.755
459.04	12.025
459.24	11.655
459.44	11.711
459.64	11.314
459.84	11.224
460.04	11.736
460.24	11.740
460.44	11.785
460.64	11.930
460.84	11.887
461.04	11.730
461.24	12.050
461.45	11.688
461.65	12.026
461.85	12.480
462.05	11.972
462.25	11.875
462.45	12.129
462.65	12.201
462.85	11.675
463.05	12.519
463.25	11.359
463.45	12.058
463.65	11.995
463.85	12.211
464.05	11.626
464.25	11.960
464.45	11.666
464.65	11.845
464.85	11.335
465.05	11.572
465.26	12.099
465.46	12.079
465.66	12.266
465.86	12.099
466.06	11.845
466.26	11.892
466.46	11.060
466.66	12.076
466.86	11.715
467.06	11.722
467.26	11.877
467.46	11.766
467.66	11.607
467.86	11.778
468.06	11.833
468.26	11.924
468.46	11.588
468.66	11.926
468.86	11.487
469.06	12.046
469.26	11.602
469.46	11.792
469.66	11.226
469.86	11.921
470.06	11.589
470.26	12.312
470.46	11.465
470.66	12.378
470.86	11.293
471.06	12.066
471.26	11.397
471.46	11.537
471.66	11.522
471.86	11.718
472.06	11.232
472.26	12.391
472.46	12.141
472.66	11.890
472.86	11.790
473.06	11.838
473.26	11.608
473.46	12.179
473.66	11.772
473.86	12.252
474.06	11.496
474.26	12.377
474.46	11.510
474.66	12.347
474.86	12.272
475.06	12.253
475.26	11.589
475.46	12.141
475.66	11.380
475.86	11.918
476.06	11.626
476.26	12.317
476.46	11.609
476.66	12.126
476.86	11.675
477.06	12.012
477.26	11.873
477.46	11.630
477.65	11.467
477.85	12.049
478.05	11.648
478.25	12.673
478.45	11.698
478.65	12.124
478.85	11.601
479.05	12.278
479.25	12.190
479.45	12.310
479.65	11.966
479.85	12.280
480.05	11.885
480.25	11.910
480.45	12.073
480.65	12.314
480.85	12.053
481.05	12.225
481.25	12.376
481.44	12.005
481.64	11.622
481.84	11.930
482.04	11.861
482.24	12.118
482.44	11.950
482.64	11.961
482.84	12.020
483.04	11.747
483.24	11.400
483.44	11.647
483.64	11.379
483.84	11.363
484.04	11.434
484.23	11.571
484.43	11.816
484.63	12.027
484.83	12.165
485.03	12.725
485.23	12.637
485.43	12.703
485.63	12.709
485.83	12.580
486.03	12.677
486.23	12.645
486.42	12.599
486.62	12.266
486.82	12.510
487.02	12.226
487.22	11.993
487.42	12.068
487.62	11.933
487.82	11.767
488.02	11.903
488.22	11.873
488.41	12.039
488.61	12.050
488.81	11.996
489.01	12.107
489.21	12.339
489.41	12.475
489.61	12.480
489.81	12.674
490.01	12.651
490.20	12.776
490.40	12.767
490.60	12.835
490.80	12.342
491.00	12.655
491.20	12.426
491.40	12.123
491.60	12.225
491.79	12.272
491.99	12.010
492.19	12.134
492.39	12.446
492.59	12.232
492.79	12.345
492.99	12.344
493.19	12.516
493.38	12.772
493.58	12.803
493.78	12.985
493.98	13.003
494.18	13.166
494.38	12.910
494.58	13.400
494.77	13.483
494.97	13.116
495.17	12.935
495.37	13.485
495.57	13.633
495.77	13.408
495.96	13.576
496.16	13.215
496.36	12.908
496.56	12.908
496.76	13.201
496.96	12.909
497.15	13.104
497.35	13.036
497.55	12.935
497.75	13.465
497.95	13.243
498.15	13.491
498.34	13.066
498.54	13.138
498.74	13.579
498.94	13.401
499.14	13.369
499.34	13.550
499.53	13.333
499.73	13.158
499.93	13.513
500.13	13.535
500.33	13.238
500.52	13.680
500.72	13.462
500.92	13.701
501.12	13.508
501.32	13.441
501.52	13.957
501.71	13.778
501.91	13.637
502.11	13.929
502.31	13.283
502.51	13.618
502.70	13.609
502.90	13.885
503.10	13.793
503.30	14.181
503.50	13.825
503.69	13.792
503.89	13.756
504.09	14.080
504.29	13.715
504.48	14.112
504.68	13.802
504.88	14.276
505.08	13.644
505.28	13.830
505.47	14.124
505.67	14.135
505.87	14.058
506.07	14.087
506.27	13.869
506.46	13.995
506.66	14.155
506.86	14.702
507.06	14.534
507.25	14.447
507.45	14.292
507.65	14.190
507.85	14.005
508.04	14.380
508.24	14.328
508.44	14.311
508.64	14.135
508.83	14.270
509.03	14.182
509.23	13.770
509.43	13.763
509.63	14.284
509.82	14.084
510.02	14.368
510.22	13.907
510.42	14.119
510.61	14.133
510.81	14.490
511.01	14.379
511.21	14.364
511.40	14.038
511.60	14.288
511.80	14.100
511.99	14.393
512.19	14.236
512.39	14.440
512.59	14.480
512.78	14.919
512.98	14.327
513.18	14.582
513.38	14.720
513.57	14.542
513.77	14.955
513.97	14.796
514.17	14.821
514.36	14.589
514.56	14.618
514.76	14.958
514.95	14.632
515.15	14.814
515.35	14.719
515.55	15.134
515.74	14.952
515.94	15.001
516.14	15.067
516.33	15.403
516.53	14.906
516.73	15.005
516.93	14.902
517.12	15.171
517.32	14.462
517.52	14.963
517.71	14.766
517.91	14.828
518.11	14.625
518.30	14.527
518.50	14.474
518.70	14.706
518.90	14.288
519.09	14.645
519.29	14.582
519.49	14.831
519.68	14.568
519.88	14.843
520.08	14.444
520.27	14.709
520.47	15.285
520.67	14.938
520.86	15.121
521.06	15.270
521.26	15.301
521.45	15.736
521.65	15.123
521.85	14.946
522.04	15.190
522.24	15.062
522.44	14.882
522.63	15.198
522.83	15.343
523.03	15.318
523.22	15.211
523.42	15.782
523.62	15.404
523.81	15.462
524.01	15.121
524.21	15.277
524.40	15.627
524.60	14.979
524.80	15.270
524.99	15.282
525.19	14.793
525.39	14.748
525.58	14.870
525.78	14.459
525.98	14.776
526.17	14.752
526.37	14.734
526.57	14.718
526.76	14.825
526.96	14.807
527.15	14.455
527.35	15.105
527.55	14.636
527.74	14.734
527.94	14.675
528.14	14.435
528.33	14.146
528.53	14.282
528.72	14.138
528.92	14.331
529.12	14.315
529.31	14.730
529.51	14.672
529.71	14.861
529.90	14.768
530.10	14.740
530.29	15.030
530.49	15.396
530.69	15.469
530.88	15.457
531.08	15.323
531.28	15.263
531.47	15.295
531.67	15.232
531.86	15.232
532.06	15.259
532.26	15.120
532.45	15.096
532.65	15.040
532.84	14.910
533.04	14.624
533.24	14.917
533.43	14.647
533.63	14.638
533.82	14.937
534.02	14.946
534.22	15.103
534.41	15.008
534.61	15.246
534.80	15.211
535.00	15.402
535.19	15.465
535.39	15.748
535.59	15.572
535.78	15.365
535.98	15.651
536.17	15.382
536.37	15.125
536.57	15.253
536.76	15.318
536.96	15.358
537.15	15.485
537.35	15.174
537.54	15.323
537.74	15.381
537.93	15.722
538.13	15.807
538.33	15.457
538.52	15.713
538.72	16.135
538.91	16.125
539.11	15.983
539.30	16.035
539.50	16.168
539.70	15.885
539.89	15.860
540.09	15.674
540.28	15.837
540.48	15.595
540.67	15.465
540.87	15.302
541.06	14.898
541.26	14.956
541.45	15.323
541.65	15.230
541.85	14.962
542.04	15.015
542.24	15.361
542.43	15.280
542.63	15.331
542.82	15.295
543.02	15.762
543.21	15.917
543.41	15.922
543.60	15.990
543.80	15.835
543.99	15.757
544.19	15.943
544.38	16.049
544.58	15.950
544.77	15.780
544.97	16.314
545.16	16.222
545.36	16.329
545.56	16.202
545.75	16.141
545.95	16.256
546.14	16.354
546.34	16.281
546.53	15.928
546.73	15.969
546.92	16.418
547.12	16.253
547.31	15.835
547.51	16.243
547.70	16.166
547.90	16.500
548.09	16.237
548.29	16.389
548.48	16.441
548.68	16.730
548.87	16.810
549.07	17.100
549.26	16.784
549.46	16.966
549.65	17.083
549.84	17.033
550.04	16.966
550.23	16.902
550.43	16.808
550.62	17.255
550.82	17.480
551.01	17.464
551.21	17.512
551.40	17.273
551.60	17.623
551.79	17.628
551.99	17.169
552.18	17.405
552.38	17.215
552.57	17.214
552.77	17.001
552.96	17.088
553.16	16.947
553.35	17.352
553.54	17.003
553.74	17.680
553.93	17.337
554.13	17.726
554.32	17.823
554.52	17.735
554.71	17.539
554.91	17.535
555.10	17.810
555.29	17.328
555.49	17.839
555.68	17.338
555.88	18.046
556.07	18.058
556.27	17.595
556.46	17.856
556.66	18.289
556.85	17.917
557.04	17.764
557.24	18.363
557.43	17.904
557.63	18.138
557.82	17.750
558.02	17.756
558.21	18.191
558.40	17.874
558.60	18.321
558.79	18.308
558.99	18.142
559.18	18.251
559.38	18.162
559.57	18.200
559.76	18.408
559.96	19.073
560.15	18.617
560.35	18.547
560.54	18.062
560.73	18.369
560.93	18.216
561.12	17.975
561.32	17.963
561.51	18.260
561.70	19.185
561.90	18.219
562.09	18.608
562.29	18.451
562.48	18.520
562.67	18.622
562.87	18.724
563.06	18.754
563.26	18.450
563.45	19.031
563.64	18.394
563.84	18.861
564.03	18.329
564.23	18.813
564.42	19.303
564.61	18.772
564.81	18.527
565.00	18.818
565.20	18.587
565.39	18.570
565.58	19.097
565.78	18.813
565.97	19.024
566.16	18.964
566.36	18.969
566.55	18.540
566.74	18.415
566.94	18.936
567.13	18.912
567.33	18.543
567.52	18.816
567.71	18.747
567.91	18.765
568.10	19.164
568.29	18.792
568.49	19.224
568.68	19.018
568.87	19.092
569.07	19.638
569.26	19.273
569.45	19.574
569.65	19.143
569.84	18.919
570.04	19.308
570.23	18.837
570.42	19.261
570.62	19.141
570.81	19.411
571.00	19.046
571.20	18.867
571.39	19.169
571.58	19.075
571.78	19.241
571.97	18.672
572.16	18.990
572.36	18.903
572.55	18.972
572.74	18.882
572.94	18.304
573.13	19.408
573.32	19.220
573.51	19.256
573.71	19.202
573.90	19.208
574.09	18.811
574.29	19.090
574.48	19.586
574.67	19.057
574.87	19.291
575.06	18.736
575.25	19.059
575.45	18.975
575.64	18.841
575.83	18.942
576.03	20.152
576.22	18.556
576.41	19.311
576.60	19.174
576.80	19.234
576.99	19.011
577.18	19.523
577.38	19.132
577.57	19.247
577.76	19.112
577.95	19.205
578.15	19.578
578.34	19.290
578.53	19.534
578.73	19.270
578.92	19.891
579.11	19.338
579.30	19.829
579.50	19.662
579.69	19.798
579.88	20.102
580.08	19.728
580.27	19.996
580.46	19.626
580.65	19.927
580.85	19.474
581.04	19.941
581.23	19.198
581.42	19.746
581.62	19.652
581.81	18.981
582.00	19.484
582.19	19.598
582.39	19.369
582.58	19.657
582.77	19.568
582.96	19.104
583.16	18.762
583.35	19.602
583.54	19.449
583.73	20.027
583.93	19.224
584.12	19.379
584.31	18.557
584.50	19.049
584.70	19.537
584.89	19.236
585.08	19.409
585.27	20.398
585.47	19.555
585.66	19.598
585.85	19.528
586.04	19.407
586.24	19.879
586.43	18.997
586.62	19.845
586.81	19.280
587.00	19.165
587.20	19.371
587.39	18.947
587.58	19.349
587.77	19.774
587.97	19.618
588.16	19.577
588.35	19.316
588.54	18.545
588.73	18.978
588.93	18.645
589.12	18.949
589.31	18.919
589.50	19.082
589.69	19.170
589.89	18.888
590.08	18.623
590.27	18.889
590.46	18.594
590.65	19.236
590.85	18.705
591.04	18.927
591.23	19.041
591.42	19.670
591.61	19.122
591.81	19.329
592.00	18.674
592.19	19.257
592.38	18.832
592.57	19.971
592.77	19.391
592.96	18.828
593.15	19.191
593.34	18.942
593.53	19.034
593.72	19.244
593.92	18.309
594.11	18.663
594.30	19.101
594.49	19.291
594.68	18.700
594.87	18.967
595.07	18.608
595.26	19.048
595.45	18.482
595.64	19.030
595.83	19.068
596.02	18.053
596.22	18.939
596.41	18.458
596.60	18.140
596.79	19.365
596.98	18.848
597.17	18.905
597.37	18.852
597.56	18.434
597.75	18.227
597.94	19.064
598.13	18.695
598.32	18.509
598.51	19.122
598.71	19.498
598.90	19.004
599.09	19.551
599.28	19.523
599.47	19.237
599.66	19.077
599.85	19.348
600.05	18.908
600.24	19.358
600.43	19.275
600.62	19.320
600.81	19.913
601.00	19.639
601.19	19.522
601.38	19.766
601.58	19.596
601.77	19.405
601.96	18.903
602.15	20.287
602.34	19.251
602.53	19.865
602.72	19.144
602.91	19.372
603.10	19.794
603.30	19.384
603.49	18.972
603.68	19.558
603.87	18.441
604.06	18.743
604.25	19.232
604.44	18.841
604.63	18.982
604.82	18.836
605.01	18.894
605.21	18.763
605.40	19.221
605.59	19.157
605.78	19.076
605.97	18.784
606.16	18.822
606.35	19.520
606.54	19.385
606.73	18.889
606.92	19.278
607.11	19.530
607.30	19.558
607.50	19.797
607.69	19.490
607.88	19.305
608.07	19.777
608.26	19.760
608.45	19.629
608.64	19.491
608.83	19.658
609.02	19.234
609.21	19.174
609.40	19.310
609.59	19.503
609.78	18.818
609.97	19.444
610.16	18.813
610.35	19.422
610.55	18.318
610.74	18.916
610.93	18.909
611.12	18.669
611.31	18.397
611.50	19.663
611.69	19.142
611.88	19.305
612.07	19.231
612.26	18.984
612.45	19.583
612.64	19.459
612.83	19.327
613.02	20.077
613.21	19.619
613.40	19.666
613.59	20.852
613.78	19.196
613.97	20.666
614.16	19.783
614.35	20.324
614.54	19.542
614.73	19.697
614.92	20.155
615.11	19.623
615.30	19.272
615.49	19.566
615.68	19.883
615.87	19.231
616.07	18.213
616.26	19.762
616.45	18.811
616.64	19.236
616.83	18.753
617.02	19.153
617.21	18.600
617.40	17.863
617.59	18.817
617.78	19.099
617.97	18.448
618.16	17.808
618.35	18.835
618.54	18.867
618.73	18.607
618.92	18.843
619.11	17.994
619.30	18.843
619.49	18.152
619.68	18.532
619.86	18.942
620.05	19.321
620.24	17.395
620.43	18.670
620.62	17.532
620.81	18.629
621.00	17.790
621.19	19.064
621.38	18.619
621.57	18.638
621.76	17.892
621.95	17.870
622.14	18.687
622.33	19.050
622.52	18.184
622.71	18.829
622.90	17.788
623.09	17.760
623.28	17.823
623.47	17.939
623.66	18.376
623.85	18.264
624.04	17.778
624.23	17.518
624.42	17.751
624.61	17.692
624.80	17.093
624.99	17.556
625.18	17.404
625.36	18.040
625.55	18.664
625.74	17.997
625.93	17.420
626.12	17.987
626.31	17.980
626.50	18.101
626.69	17.353
626.88	18.004
627.07	18.549
627.26	17.725
627.45	17.183
627.64	17.191
627.83	16.966
628.02	17.973
628.20	17.969
628.39	17.584
628.58	17.780
628.77	17.586
628.96	17.247
629.15	17.945
629.34	17.810
629.53	18.288
629.72	17.544
629.91	18.972
630.10	17.950
630.29	18.654
630.47	18.838
630.66	19.231
630.85	18.989
631.04	19.377
631.23	19.832
631.42	18.777
631.61	19.180
631.80	19.922
631.99	18.807
632.18	19.350
632.36	19.456
632.55	18.994
632.74	19.109
632.93	19.188
633.12	18.872
633.31	18.005
633.50	18.057
633.69	18.224
633.88	18.480
634.06	17.814
634.25	18.780
634.44	17.814
634.63	18.914
634.82	18.879
635.01	17.806
635.20	18.347
635.39	17.688
635.57	19.183
635.76	18.441
635.95	18.656
636.14	18.054
636.33	17.707
636.52	18.254
636.71	17.975
636.89	17.586
637.08	17.704
637.27	17.301
637.46	17.370
637.65	17.473
637.84	17.372
638.03	18.130
638.21	18.479
638.40	17.855
638.59	17.681
638.78	17.461
638.97	17.525
639.16	17.917
639.34	17.015
639.53	16.226
639.72	17.300
639.91	16.487
640.10	17.054
640.29	17.570
640.47	17.488
640.66	17.110
640.85	18.005
641.04	16.177
641.23	17.929
641.42	17.308
641.60	16.540
641.79	16.389
641.98	18.226
642.17	16.919
642.36	17.308
642.54	16.728
642.73	17.022
642.92	16.475
643.11	16.789
643.30	16.851
643.49	16.854
643.67	15.942
643.86	18.340
644.05	16.144
644.24	17.051
644.43	16.413
644.61	16.606
644.80	16.397
644.99	17.888
645.18	17.405
645.37	16.420
645.55	16.332
645.74	17.162
645.93	16.222
646.12	17.478
646.31	16.881
646.49	17.204
646.68	17.223
646.87	16.611
647.06	16.846
647.24	17.509
647.43	16.165
647.62	18.041
647.81	16.378
648.00	17.819
648.18	16.164
648.37	17.532
648.56	17.258
648.75	16.447
648.93	16.293
649.12	16.842
649.31	17.392
649.50	16.495
649.68	16.894
649.87	16.588
650.06	15.385
650.25	17.159
650.43	17.676
650.62	16.314
650.81	15.798
651.00	16.803
651.18	15.374
651.37	17.299
651.56	15.889
651.75	17.142
651.93	15.755
652.12	16.184
652.31	15.984
652.50	16.647
652.68	16.357
652.87	17.474
653.06	16.511
653.25	16.857
653.43	15.717
653.62	17.298
653.81	15.074
654.00	16.364
654.18	17.027
654.37	16.733
654.56	15.875
654.74	15.356
654.93	15.781
655.12	16.049
655.31	16.300
655.49	16.162
655.68	15.680
655.87	15.824
656.05	14.954
656.24	16.705
656.43	14.360
656.62	15.419
656.80	14.839
656.99	15.297
657.18	15.173
657.36	14.846
657.55	14.675
657.74	15.531
657.93	15.341
658.11	16.356
658.30	15.067
658.49	14.743
658.67	14.618
658.86	14.812
659.05	14.005
659.23	14.929
659.42	13.883
659.61	14.103
659.79	14.952
659.98	14.546
660.17	15.198
660.35	14.520
660.54	14.192
660.73	14.937
660.91	14.103
661.10	14.902
661.29	13.568
661.47	13.762
661.66	13.738
661.85	14.363
662.03	14.708
662.22	13.420
662.41	13.768
662.59	14.051
662.78	12.949
662.97	13.915
663.15	12.590
663.34	13.400
663.53	13.067
663.71	14.096
663.90	13.267
664.09	14.562
664.27	13.467
664.46	12.791
664.65	13.253
664.83	12.856
665.02	11.793
665.21	12.590
665.39	11.705
665.58	12.466
665.77	11.848
665.95	12.468
666.14	12.113
666.32	12.578
666.51	10.808
666.70	11.749
666.88	12.629
667.07	11.466
667.26	11.819
667.44	12.572
667.63	12.257
667.81	12.341
668.00	11.060
668.19	12.968
668.37	11.529
668.56	13.241
668.75	10.810
668.93	12.628
669.12	11.553
669.30	11.772
669.49	10.595
669.68	12.129
669.86	12.024
670.05	11.436
670.23	11.110
670.42	11.278
670.61	11.172
670.79	11.811
670.98	11.878
671.16	11.554
671.35	10.282
671.54	11.955
671.72	11.211
671.91	12.791
672.09	10.538
672.28	12.346
672.46	12.104
672.65	11.508
672.84	11.761
673.02	12.167
673.21	10.079
673.39	11.770
673.58	10.896
673.77	11.492
673.95	11.192
674.14	12.489
674.32	10.615
674.51	13.150
674.69	10.356
674.88	11.788
675.07	11.759
675.25	12.990
675.44	10.758
675.62	11.617
675.81	11.168
675.99	13.476
676.18	13.166
676.36	11.042
676.55	10.565
676.74	13.970
676.92	13.240
677.11	11.887
677.29	12.466
677.48	13.322
677.66	12.685
677.85	11.661
678.03	12.065
678.22	14.190
678.40	11.818
678.59	12.929
678.78	10.517
678.96	12.737
679.15	11.050
679.33	14.028
679.52	11.999
679.70	13.111
679.89	11.640
680.07	12.629
680.26	12.460
680.44	13.113
680.63	12.697
680.81	12.872
681.00	11.975
681.18	12.741
681.37	12.306
681.55	13.905
681.74	12.756
681.92	13.241
682.11	12.637
682.29	13.331
682.48	13.607
682.66	13.691
682.85	12.964
683.03	13.175
683.22	13.508
683.40	14.490
683.59	13.590
683.77	14.658
683.96	13.687
684.14	14.744
684.33	12.327
684.51	15.049
684.70	13.728
684.88	15.066
685.07	13.921
685.25	16.198
685.44	13.721
685.62	15.178
685.81	13.483
685.99	15.662
686.18	14.585
686.36	16.199
686.55	14.984
686.73	14.987
686.92	15.159
687.10	15.878
687.29	15.964
687.47	16.712
687.65	16.330
687.84	15.027
688.02	17.032
688.21	17.434
688.39	16.060
688.58	15.622
688.76	16.472
688.95	15.758
689.13	14.672
689.32	17.810
689.50	16.262
689.68	17.403
689.87	15.774
690.05	17.255
690.24	16.847
690.42	17.157
690.61	17.849
690.79	18.575
690.98	16.987
691.16	17.564
691.34	16.177
691.53	18.669
691.71	16.644
691.90	18.190
692.08	17.120
692.27	19.492
692.45	19.507
692.63	19.174
692.82	18.916
693.00	18.944
693.19	17.126
693.37	19.054
693.56	18.206
693.74	19.418
693.92	19.866
694.11	21.871
694.29	19.629
694.48	18.903
694.66	20.109
694.84	19.777
695.03	19.883
695.21	21.259
695.40	20.864
695.58	21.532
695.76	20.040
695.95	21.100
696.13	21.011
696.32	22.364
696.50	23.267
696.68	20.473
696.87	19.587
697.05	21.311
697.24	21.375
697.42	22.692
697.60	20.196
697.79	22.114
697.97	22.802
698.16	22.179
698.34	19.954
698.52	22.285
698.71	20.445
698.89	22.528
699.07	20.157
699.26	22.279
699.44	21.150
699.63	22.220
699.81	21.657
699.99	21.993
700.18	21.434
700.36	21.736
700.54	20.796
700.73	21.261
700.91	20.962
701.09	23.729
701.28	22.840
701.46	22.300
701.64	21.866
701.83	23.162
702.01	23.018
702.20	24.379
702.38	22.792
702.56	23.334
702.75	22.053
702.93	22.795
703.11	23.038
703.30	23.577
703.48	25.279
703.66	24.338
703.85	23.987
704.03	25.341
704.21	23.695
704.40	26.170
704.58	24.542
704.76	25.004
704.95	24.453
705.13	25.115
705.31	24.237
705.50	25.810
705.68	24.661
705.86	26.729
706.04	25.180
706.23	26.922
706.41	22.889
706.59	24.093
706.78	25.754
706.96	25.818
707.14	25.148
707.33	26.312
707.51	24.147
707.69	26.964
707.88	24.259
708.06	25.107
708.24	26.183
708.42	26.663
708.61	25.869
708.79	26.478
708.97	26.670
709.16	25.839
709.34	27.520
709.52	26.224
709.71	26.157
709.89	27.165
710.07	24.160
710.25	27.742
710.44	24.810
710.62	26.460
710.80	25.750
710.98	25.688
711.17	25.294
711.35	26.432
711.53	25.869
711.72	25.286
711.90	25.929
712.08	25.853
712.26	26.899
712.45	24.572
712.63	26.136
712.81	27.200
712.99	26.197
713.18	26.749
713.36	25.650
713.54	26.531
713.72	24.964
713.91	25.901
714.09	24.849
714.27	26.440
714.45	26.059
714.64	27.224
714.82	26.011
715.00	26.119
715.18	26.970
715.37	26.201
715.55	26.669
715.73	25.338
715.91	26.936
716.10	26.049
716.28	23.275
716.46	26.692
716.64	24.705
716.83	25.460
717.01	24.882
717.19	24.232
717.37	25.102
717.55	26.660
717.74	25.640
717.92	24.808
718.10	23.489
718.28	25.021
718.47	24.667
718.65	24.521
718.83	25.487
719.01	24.406
719.19	24.596
719.38	23.966
719.56	25.253
719.74	26.199
719.92	22.832
720.10	25.158
720.29	24.904
720.47	26.878
720.65	25.346
720.83	27.518
721.01	23.481
721.20	25.438
721.38	24.936
721.56	27.187
721.74	26.838
721.92	27.816
722.11	27.547
722.29	27.433
722.47	25.393
722.65	28.447
722.83	27.236
723.01	26.405
723.20	25.564
723.38	26.348
723.56	25.972
723.74	28.197
723.92	25.623
724.10	26.592
724.29	26.936
724.47	27.143
724.65	26.894
724.83	27.516
725.01	23.167
725.19	27.395
725.38	24.436
725.56	25.160
725.74	27.424
725.92	28.404
726.10	26.208
726.28	27.743
726.46	25.890
726.65	27.303
726.83	25.298
727.01	27.454
727.19	26.395
727.37	26.753
727.55	25.722
727.73	27.763
727.92	26.884
728.10	26.334
728.28	25.286
728.46	27.857
728.64	25.508
728.82	27.317
729.00	25.711
729.19	28.402
729.37	27.006
729.55	25.871
729.73	24.668
729.91	27.388
730.09	26.955
730.27	27.667
730.45	26.233
730.63	28.087
730.82	25.663
731.00	25.533
731.18	28.212
731.36	28.696
731.54	24.680
731.72	26.262
731.90	25.747
732.08	28.021
732.26	25.376
732.45	29.545
732.63	27.441
732.81	27.130
732.99	25.876
733.17	27.443
733.35	26.454
733.53	27.007
733.71	25.306
733.89	26.964
734.07	26.726
734.25	28.665
734.44	27.143
734.62	28.554
734.80	26.878
734.98	28.322
735.16	26.515
735.34	27.812
735.52	30.314
735.70	27.582
735.88	29.433
736.06	28.637
736.24	29.984
736.42	29.464
736.60	28.452
736.78	28.819
736.97	30.476
737.15	32.199
737.33	26.702
737.51	30.430
737.69	30.000
737.87	31.820
738.05	30.165
738.23	30.212
738.41	28.681
738.59	31.491
738.77	29.714
738.95	30.769
739.13	29.305
739.31	30.883
739.49	30.941
739.67	31.230
739.85	29.266
740.03	28.172
740.21	29.533
740.39	31.684
740.57	31.767
740.75	29.731
740.93	27.998
741.11	29.931
741.30	30.063
741.48	33.717
741.66	32.285
741.84	30.862
742.02	31.542
742.20	29.887
742.38	30.811
742.56	33.483
742.74	31.042
742.92	32.449
743.10	29.425
743.28	34.076
743.46	32.019
743.64	29.516
743.82	29.508
744.00	32.809
744.18	32.516
744.36	32.312
744.54	31.792
744.72	33.009
744.90	34.623
745.08	35.635
745.26	32.288
745.44	33.604
745.62	29.969
745.80	33.025
745.98	33.044
746.16	35.920
746.34	32.504
746.52	32.007
746.70	30.585
746.87	31.351
747.05	32.686
747.23	30.445
747.41	31.430
747.59	32.792
747.77	30.648
747.95	32.208
748.13	33.248
748.31	37.469
748.49	31.766
748.67	34.643
748.85	30.523
749.03	34.628
749.21	33.209
749.39	34.093
749.57	31.079
749.75	30.708
749.93	35.593
750.11	32.508
750.29	30.198
750.47	32.868
750.65	31.360
750.83	30.828
751.01	28.718
751.18	31.629
751.36	30.468
751.54	34.340
751.72	33.721
751.90	31.849
752.08	30.106
752.26	32.862
752.44	32.410
752.62	30.772
752.80	33.876
752.98	32.110
753.16	33.199
753.34	32.485
753.52	32.202
753.69	33.579
753.87	32.094
754.05	32.110
754.23	31.058
754.41	33.565
754.59	31.467
754.77	32.886
754.95	31.844
755.13	30.664
755.31	32.873
755.49	32.916
755.66	33.812
755.84	32.262
756.02	30.759
756.20	34.277
756.38	32.314
756.56	34.652
756.74	30.661
756.92	32.201
757.10	30.106
757.28	34.937
757.45	38.938
757.63	32.179
757.81	29.717
757.99	35.117
758.17	31.401
758.35	34.072
758.53	33.061
758.71	33.026
758.88	32.698
759.06	32.056
759.24	29.056
759.42	30.798
759.60	27.562
759.78	30.459
759.96	26.268
760.13	30.144
760.31	24.281
760.49	26.819
760.67	22.041
760.85	25.889
761.03	25.224
761.21	20.373
761.38	21.516
761.56	26.045
761.74	20.891
761.92	27.807
762.10	23.088
762.28	26.655
762.46	20.740
762.63	23.791
762.81	21.792
762.99	24.380
763.17	24.016
763.35	22.589
763.53	21.098
763.70	23.964
763.88	24.916
764.06	22.545
764.24	22.944
764.42	22.685
764.60	21.583
764.77	23.735
764.95	23.886
765.13	24.401
765.31	24.137
765.49	25.262
765.66	23.770
765.84	27.786
766.02	24.609
766.20	27.405
766.38	25.758
766.56	27.230
766.73	25.354
766.91	28.146
767.09	29.549
767.27	30.604
767.45	26.510
767.62	29.335
767.80	28.554
767.98	27.167
768.16	29.430
768.33	34.413
768.51	34.016
768.69	32.899
768.87	28.740
769.05	32.610
769.22	30.232
769.40	36.370
769.58	32.555
769.76	33.899
769.94	34.698
770.11	32.704
770.29	34.397
770.47	33.282
770.65	34.026
770.82	33.943
771.00	35.070
771.18	35.366
771.36	36.551
771.53	31.978
771.71	35.776
771.89	36.192
772.07	38.529
772.25	36.750
772.42	32.253
772.60	35.522
772.78	32.067
772.96	35.239
773.13	39.048
773.31	39.734
773.49	33.814
773.67	36.835
773.84	38.283
774.02	36.571
774.20	35.199
774.37	36.290
774.55	32.607
774.73	40.750
774.91	32.877
775.08	37.634
775.26	38.469
775.44	39.171
775.62	36.385
775.79	35.242
775.97	35.838
776.15	37.552
776.32	31.287
776.50	39.297
776.68	38.987
776.86	36.430
777.03	28.170
777.21	36.649
777.39	35.029
777.56	37.615
777.74	33.008
777.92	38.111
778.10	32.485
778.27	36.961
778.45	39.929
778.63	38.832
778.80	35.657
778.98	39.300
779.16	36.092
779.34	37.592
779.51	37.655
779.69	39.175
779.87	39.379
780.04	35.666
780.22	33.778
780.40	36.895
780.57	40.907
780.75	37.086
780.93	36.382
781.10	35.130
781.28	47.239
781.46	34.772
781.63	37.512
781.81	41.515
781.99	34.835
782.16	36.087
782.34	39.122
782.52	38.749
782.69	37.963
782.87	35.985
783.05	35.593
783.22	40.628
783.40	37.473
783.58	39.736
783.75	33.299
783.93	39.869
784.11	32.526
784.28	38.161
784.46	37.138
784.64	41.448
784.81	41.685
784.99	38.756
785.17	36.358
785.34	32.937
785.52	36.272
785.69	37.832
785.87	31.801
786.05	36.571
786.22	36.354
786.40	44.526
786.58	33.055
786.75	41.648
786.93	40.395
787.11	37.076
787.28	35.104
787.46	41.904
787.63	36.696
787.81	38.883
787.99	38.650
788.16	34.680
788.34	30.135
788.51	36.598
788.69	31.951
788.87	34.070
789.04	36.265
789.22	34.150
789.39	35.269
789.57	32.499
789.75	33.923
789.92	36.023
790.10	33.191
790.27	34.325
790.45	30.338
790.63	32.720
790.80	31.615
790.98	37.611
791.15	33.995
791.33	33.907
791.51	35.823
791.68	36.517
791.86	37.923
792.03	34.854
792.21	33.639
792.39	36.359
792.56	33.712
792.74	39.009
792.91	36.327
793.09	34.032
793.26	34.156
793.44	34.718
793.62	35.043
793.79	35.671
793.97	34.420
794.14	38.069
794.32	34.016
794.49	35.036
794.67	33.713
794.84	39.138
795.02	38.390
795.20	37.253
795.37	31.094
795.55	39.576
795.72	40.371
795.90	37.295
796.07	40.904
796.25	36.693
796.42	35.830
796.60	35.330
796.77	33.388
796.95	35.707
797.13	29.418
797.30	38.462
797.48	32.456
797.65	32.345
797.83	34.084
798.00	33.922
798.18	31.519
798.35	36.961
798.53	36.293
798.70	35.449
798.88	33.516
799.05	34.685
799.23	33.139
799.40	32.746
799.58	34.622
799.75	37.299
799.93	35.068
800.10	37.606
800.28	42.208
800.45	39.593
800.63	33.175
800.80	37.426
800.98	38.687
801.15	34.274
801.33	35.150
801.50	34.487
801.68	36.258
801.85	32.711
802.03	35.652
802.20	38.655
802.38	37.103
802.55	37.310
802.73	34.150
802.90	32.812
803.08	34.403
803.25	40.092
803.43	41.299
803.60	38.264
803.78	33.398
803.95	36.768
804.13	36.973
804.30	36.753
804.48	40.125
804.65	40.711
804.83	37.864
805.00	37.819
805.17	36.088
805.35	37.961
805.52	38.233
805.70	40.792
805.87	39.403
806.05	32.604
806.22	33.401
806.40	32.711
806.57	42.344
806.75	38.456
806.92	38.566
807.09	33.380
807.27	32.264
807.44	36.027
807.62	40.000
807.79	37.241
807.97	32.107
808.14	33.245
808.31	34.837
808.49	32.349
808.66	34.539
808.84	38.319
809.01	39.900
809.19	41.569
809.36	40.341
809.53	34.610
809.71	34.300
809.88	40.462
810.06	36.370
810.23	35.540
810.41	42.683
810.58	35.883
810.75	36.130
810.93	38.462
811.10	37.021
811.28	38.198
811.45	37.956
811.62	42.624
811.80	34.704
811.97	40.909
812.15	41.065
812.32	34.314
812.49	36.412
812.67	40.168
812.84	37.340
813.02	40.696
813.19	39.478
813.36	45.721
813.54	37.256
813.71	36.548
813.89	38.326
814.06	44.058
814.23	37.793
814.41	40.532
814.58	39.196
814.75	38.029
814.93	42.918
815.10	39.629
815.28	36.535
815.45	28.467
815.62	38.884
815.80	33.515
815.97	32.033
816.14	39.176
816.32	43.113
816.49	34.619
816.66	36.875
816.84	33.735
817.01	40.154
817.18	36.696
817.36	37.459
817.53	39.263
817.71	32.432
817.88	37.460
818.05	34.466
818.23	35.842
818.40	37.266
818.57	34.076
818.75	34.796
818.92	30.299
819.09	30.061
819.27	28.528
819.44	33.893
819.61	31.441
819.79	32.955
819.96	36.999
820.13	28.562
820.31	29.227
820.48	28.829
820.65	27.208
820.82	27.968
821.00	25.484
821.17	25.382
821.34	24.875
821.52	23.134
821.69	23.986
821.86	21.086
822.04	23.049
822.21	19.069
822.38	22.120
822.56	18.902
822.73	20.725
822.90	17.893
823.07	20.706
823.25	19.943
823.42	20.041
823.59	18.194
823.77	19.656
823.94	18.956
824.11	19.480
824.29	18.660
824.46	21.178
824.63	21.409
824.80	21.070
824.98	18.885
825.15	22.249
825.32	17.316
825.49	21.513
825.67	18.163
825.84	20.932
826.01	21.166
826.19	21.595
826.36	20.511
826.53	23.141
826.70	22.685
826.88	24.192
827.05	20.134
827.22	21.543
827.39	21.803
827.57	19.819
827.74	16.384
827.91	20.972
828.08	21.551
828.26	19.856
828.43	19.841
828.60	22.456
828.77	18.870
828.95	17.924
829.12	19.745
829.29	17.058
829.46	18.637
829.64	23.158
829.81	20.510
829.98	23.247
830.15	23.208
830.32	22.510
830.50	27.660
830.67	24.314
830.84	27.011
831.01	24.829
831.19	27.018
831.36	29.524
831.53	33.006
831.70	34.462
831.87	29.053
832.05	32.487
832.22	36.239
832.39	30.989
832.56	30.455
832.74	37.596
832.91	31.439
833.08	35.566
833.25	27.025
833.42	28.655
833.60	26.706
833.77	20.998
833.94	21.829
834.11	25.482
834.28	20.872
834.45	24.595
834.63	20.138
834.80	24.278
834.97	17.985
835.14	23.312
835.31	23.662
835.49	20.897
835.66	25.276
835.83	23.547
836.00	21.217
836.17	23.532
836.34	22.881
836.52	25.588
836.69	29.079
836.86	30.566
837.03	34.124
837.20	24.203
837.37	33.685
837.55	22.537
837.72	29.285
837.89	31.905
838.06	33.415
838.23	36.037
838.40	39.283
838.58	30.508
838.75	38.833
838.92	43.164
839.09	52.206
839.26	41.991
839.43	46.121
839.60	48.140
839.78	51.396
839.95	51.059
840.12	41.075
840.29	50.801
840.46	46.396
840.63	44.333
840.80	46.190
840.98	43.715
841.15	39.790
841.32	38.781
841.49	36.990
841.66	45.234
841.83	40.446
842.00	37.981
842.17	53.854
842.34	40.625
842.52	43.296
842.69	40.310
842.86	43.341
843.03	57.231
843.20	63.145
843.37	54.481
843.54	48.011
843.71	52.243
843.88	55.911
844.06	66.806
844.23	58.021
844.40	54.367
844.57	61.335
844.74	66.949
844.91	69.325
845.08	63.166
845.25	66.387
845.42	72.414
845.59	75.869
845.76	55.801
845.94	70.567
846.11	78.691
846.28	75.828
846.45	78.011
846.62	72.331
846.79	73.539
846.96	67.630
847.13	69.070
847.30	76.335
847.47	63.544
847.64	62.279
847.81	64.563
847.98	80.705
848.15	65.895
848.32	86.882
848.50	91.107
848.67	61.974
848.84	83.806
849.01	69.106
849.18	65.235
849.35	86.166
849.52	80.198
849.69	76.798
849.86	95.928
850.03	75.878
850.20	75.797
850.37	75.576
850.54	66.796
850.71	82.927
850.88	63.278
851.05	84.167
851.22	84.854
851.39	67.362
851.56	78.091
851.73	87.765
851.90	73.394
852.07	73.621
852.24	81.800
852.41	76.017
852.58	68.571
852.75	77.907
852.92	88.129
853.09	103.933
853.26	72.421
853.43	86.444
853.60	55.094
853.77	78.555
853.94	81.725
854.11	85.151
854.28	106.098
854.45	78.000
854.62	98.701
854.79	82.301
854.96	91.327
855.13	73.086
855.30	94.250
855.47	97.194
855.64	84.855
855.81	69.617
855.98	106.233
856.15	83.943
856.32	55.950
856.49	80.615
856.66	76.995
856.83	82.328
857.00	83.264
857.17	96.258
857.34	70.175
857.51	74.505
857.68	63.962
857.85	97.966
858.02	90.465
858.19	79.032
858.36	113.333
858.53	95.503
858.70	86.842
858.87	99.444
859.04	78.054
859.21	85.991
859.38	88.125
859.55	100.000
859.72	106.936
859.89	102.332
860.05	85.539
860.22	86.053
860.39	85.488
860.56	90.404
860.73	96.181
860.90	83.562
861.07	80.365
861.24	71.854
861.41	89.683
861.58	81.647
861.75	88.544
861.92	66.302
862.09	91.392
862.26	84.634
862.43	93.388
862.59	89.120
862.76	73.461
862.93	100.000
863.10	84.964
863.27	100.885
863.44	80.147
863.61	78.636
863.78	97.313
863.95	101.663
864.12	103.115
864.29	100.304
864.45	72.292
864.62	79.319
864.79	96.782
864.96	69.231
865.13	78.936
865.30	95.238
865.47	88.579
865.64	87.500
865.81	92.837
865.97	76.978
866.14	83.296
866.31	60.329
866.48	80.303
866.65	101.042
866.82	91.607
866.99	102.639
867.16	93.455
867.33	81.176
867.49	83.374
867.66	84.096
867.83	80.837
868.00	79.572
868.17	99.425
868.34	100.446
868.51	87.198
868.67	83.175
868.84	74.253
869.01	110.369
869.18	81.951
869.35	73.731
869.52	74.500
869.69	92.683
869.85	87.901
870.02	76.942
870.19	93.541
870.36	104.497
870.53	84.615
870.70	90.851
870.86	71.503
871.03	79.582
871.20	69.307
871.37	102.653
871.54	80.707
871.71	89.078
871.87	102.446
872.04	85.149
872.21	74.834
872.38	78.729
872.55	78.228
872.72	89.640
872.88	120.563
873.05	73.973
873.22	85.396
873.39	85.343
873.56	78.815
873.72	82.452
873.89	100.000
874.06	92.268
874.23	78.010
874.40	75.723
874.56	67.360
874.73	77.184
874.90	67.380
875.07	82.096
875.24	67.542
875.40	62.472
875.57	87.273
875.74	89.512
875.91	85.095
876.08	70.925
876.24	81.818
876.41	91.371
876.58	78.759
876.75	68.595
876.92	77.232
877.08	71.094
877.25	77.062
877.42	77.642
877.59	94.801
877.75	84.318
877.92	63.118
878.09	87.239
878.26	75.301
878.42	88.830
878.59	78.540
878.76	63.043
878.93	84.615
879.09	78.821
879.26	74.155
879.43	73.034
879.60	73.913
879.76	61.210
879.93	54.455
880.10	59.302
880.27	53.205
880.43	57.235
880.60	55.799
880.77	49.846
880.94	45.568
881.10	43.298
881.27	46.606
881.44	28.773
881.61	34.211
881.77	28.262
881.94	20.259
882.11	21.842
882.28	18.433
882.44	24.548
882.61	19.695
882.78	21.429
882.94	24.887
883.11	18.621
883.28	19.310
883.45	20.967
883.61	18.337
883.78	18.560
883.95	22.202
884.11	18.952
884.28	19.643
>>>>>End Processed Spectral Data<<<<<
