SpectraSuite Data File
++++++++++++++++++++++++++++++++++++
Date: Sun Sep 22 03:11:48 EST 2019
User: sgrac
Dark Spectrum Present: Yes
Reference Spectrum Present: Yes
Number of Sampled Component Spectra: 1
Spectrometers: USB4E01596
Integration Time (usec): 100000 (USB4E01596)
Spectra Averaged: 1 (USB4E01596)
Boxcar Smoothing: 0 (USB4E01596)
Correct for Electrical Dark: No (USB4E01596)
Strobe/Lamp Enabled: Yes (USB4E01596)
Correct for Detector Non-linearity: No (USB4E01596)
Correct for Stray Light: No (USB4E01596)
Number of Pixels in Processed Spectrum: 3648
>>>>>Begin Processed Spectral Data<<<<<
178.44	564.286
178.66	564.286
178.87	564.286
179.09	-100.000
179.30	-388.889
179.52	209.677
179.74	9100.000
179.95	911.111
180.17	11900.000
180.38	283.333
180.60	-443.750
180.82	2825.000
181.03	-100.000
181.25	434.783
181.46	-139.286
181.68	-415.000
181.89	447.059
182.11	433.333
182.33	1228.571
182.54	155.172
182.76	1054.545
182.97	-407.143
183.19	300.000
183.40	-423.810
183.62	251.852
183.84	288.571
184.05	11100.000
184.27	215.000
184.48	195.745
184.70	453.571
184.91	560.000
185.13	-5500.000
185.34	735.714
185.56	-485.714
185.78	313.333
185.99	223.529
186.21	271.739
186.42	2800.000
186.64	92.105
186.85	-350.000
187.07	368.750
187.28	-2075.000
187.50	542.857
187.72	963.636
187.93	-368.750
188.15	454.545
188.36	329.730
188.58	127.692
188.79	261.290
189.01	423.077
189.22	-670.000
189.44	142.466
189.65	3700.000
189.87	2240.000
190.09	0.000
190.30	466.667
190.52	-392.308
190.73	500.000
190.95	257.143
191.16	480.000
191.38	-800.000
191.59	8000.000
191.81	200.000
192.02	733.333
192.24	-3800.000
192.45	-500.000
192.67	233.333
192.88	107.576
193.10	6200.000
193.31	-464.286
193.53	1280.000
193.74	215.385
193.96	179.592
194.18	226.316
194.39	-2333.333
194.61	716.667
194.82	178.182
195.04	1400.000
195.25	510.000
195.47	-517.647
195.68	-246.429
195.90	246.875
196.11	461.538
196.33	283.333
196.54	233.333
196.76	1233.333
196.97	-368.750
197.19	528.571
197.40	333.333
197.62	224.242
197.83	-737.500
198.05	1433.333
198.26	204.478
198.48	486.667
198.69	-240.909
198.91	-3266.667
199.12	277.143
199.34	225.926
199.55	468.421
199.77	-510.526
199.98	-669.231
200.20	237.778
200.41	328.947
200.63	238.776
200.84	-900.000
201.06	2000.000
201.27	345.833
201.49	-1585.714
201.70	0.000
201.91	515.000
202.13	220.833
202.34	148.148
202.56	763.636
202.77	248.276
202.99	-625.000
203.20	-822.222
203.42	140.789
203.63	341.667
203.85	192.453
204.06	646.154
204.28	593.333
204.49	-8400.000
204.71	408.108
204.92	336.667
205.14	495.455
205.35	452.381
205.56	193.878
205.78	1000.000
205.99	9200.000
206.21	729.412
206.42	166.667
206.64	2200.000
206.85	166.667
207.07	180.000
207.28	209.836
207.50	410.714
207.71	348.000
207.93	513.043
208.14	-720.000
208.35	-2700.000
208.57	660.000
208.78	265.217
209.00	183.333
209.21	318.182
209.43	192.754
209.64	1225.000
209.86	290.909
210.07	600.000
210.28	616.667
210.50	242.500
210.71	291.489
210.93	743.750
211.14	-8300.000
211.36	253.333
211.57	-11500.000
211.78	-3275.000
212.00	257.895
212.21	750.000
212.43	329.787
212.64	827.273
212.86	237.931
213.07	-3025.000
213.29	197.917
213.50	-457.895
213.71	167.213
213.93	970.000
214.14	464.286
214.36	892.308
214.57	363.636
214.78	177.922
215.00	151.429
215.21	427.778
215.43	552.000
215.64	-6400.000
215.86	883.333
216.07	-692.308
216.28	830.000
216.50	-269.231
216.71	900.000
216.93	594.118
217.14	-342.857
217.35	129.687
217.57	700.000
217.78	605.882
218.00	2866.667
218.21	228.302
218.42	966.667
218.64	2433.333
218.85	1050.000
219.07	-733.333
219.28	-307.407
219.49	259.259
219.71	297.778
219.92	310.256
220.14	508.696
220.35	2850.000
220.56	212.281
220.78	340.000
220.99	-1366.667
221.21	0.000
221.42	365.517
221.63	554.545
221.85	176.271
222.06	63.265
222.28	241.379
222.49	288.462
222.70	580.000
222.92	234.000
223.13	198.333
223.34	-441.667
223.56	135.065
223.77	172.340
223.99	608.333
224.20	173.171
224.41	220.455
224.63	165.333
224.84	365.517
225.05	158.730
225.27	153.623
225.48	202.000
225.69	216.667
225.91	109.877
226.12	164.789
226.34	68.932
226.55	66.667
226.76	56.140
226.98	150.000
227.19	179.032
227.40	284.375
227.62	111.000
227.83	98.649
228.04	80.412
228.26	32.231
228.47	98.780
228.69	59.172
228.90	38.235
229.11	44.770
229.33	30.252
229.54	34.276
229.75	29.104
229.97	45.646
230.18	31.302
230.39	20.606
230.61	18.380
230.82	35.207
231.03	18.098
231.25	33.798
231.46	38.188
231.67	23.701
231.89	42.222
232.10	34.701
232.31	16.949
232.53	48.718
232.74	40.417
232.95	45.320
233.17	27.734
233.38	26.519
233.59	52.821
233.81	32.000
234.02	56.667
234.23	29.817
234.45	52.941
234.66	31.776
234.87	50.685
235.09	72.362
235.30	54.146
235.51	28.448
235.73	46.538
235.94	27.363
236.15	57.028
236.36	61.710
236.58	37.770
236.79	39.147
237.00	46.996
237.22	39.216
237.43	47.345
237.64	38.938
237.86	37.168
238.07	42.254
238.28	38.710
238.50	39.350
238.71	25.137
238.92	46.341
239.13	50.996
239.35	47.018
239.56	45.378
239.77	48.864
239.99	32.222
240.20	38.081
240.41	28.070
240.63	40.237
240.84	29.464
241.05	29.607
241.26	16.857
241.48	21.635
241.69	20.862
241.90	15.677
242.12	15.789
242.33	10.507
242.54	17.133
242.75	15.007
242.97	21.625
243.18	15.248
243.39	11.839
243.61	9.458
243.82	16.507
244.03	13.205
244.24	8.790
244.46	15.344
244.67	12.709
244.88	14.073
245.09	11.938
245.31	12.876
245.52	18.421
245.73	11.792
245.95	22.222
246.16	18.069
246.37	14.904
246.58	16.492
246.80	15.458
247.01	13.409
247.22	10.619
247.43	8.947
247.65	7.977
247.86	11.163
248.07	7.442
248.28	6.201
248.50	8.537
248.71	7.152
248.92	2.796
249.13	8.749
249.35	9.187
249.56	6.965
249.77	5.232
249.98	8.964
250.20	9.279
250.41	11.973
250.62	12.633
250.83	10.272
251.05	15.984
251.26	14.466
251.47	14.222
251.68	12.336
251.90	13.112
252.11	17.044
252.32	13.076
252.53	18.209
252.75	11.401
252.96	17.562
253.17	12.651
253.38	12.723
253.59	11.334
253.81	10.154
254.02	10.071
254.23	15.699
254.44	14.232
254.66	7.143
254.87	10.198
255.08	15.630
255.29	20.412
255.50	21.933
255.72	17.520
255.93	9.294
256.14	10.096
256.35	20.548
256.57	22.088
256.78	7.676
256.99	17.547
257.20	19.527
257.41	15.010
257.63	10.680
257.84	11.344
258.05	17.829
258.26	8.230
258.47	13.527
258.69	11.266
258.90	7.256
259.11	14.637
259.32	9.477
259.53	6.031
259.75	12.028
259.96	4.931
260.17	7.383
260.38	7.171
260.59	9.311
260.81	4.910
261.02	6.870
261.23	5.504
261.44	5.785
261.65	4.200
261.87	6.108
262.08	4.372
262.29	4.065
262.50	4.594
262.71	6.869
262.92	8.742
263.14	8.994
263.35	8.041
263.56	7.966
263.77	12.680
263.98	10.968
264.20	14.525
264.41	11.928
264.62	11.474
264.83	11.087
265.04	13.493
265.25	9.446
265.47	11.066
265.68	9.767
265.89	7.440
266.10	12.091
266.31	14.178
266.52	13.080
266.74	10.926
266.95	9.000
267.16	14.725
267.37	10.938
267.58	15.774
267.79	5.974
268.01	6.538
268.22	12.206
268.43	5.088
268.64	9.213
268.85	6.433
269.06	8.852
269.27	8.824
269.49	6.458
269.70	7.507
269.91	7.951
270.12	8.796
270.33	8.676
270.54	7.364
270.75	10.636
270.97	7.821
271.18	12.145
271.39	9.414
271.60	7.987
271.81	3.203
272.02	8.678
272.23	7.799
272.45	5.878
272.66	7.740
272.87	6.913
273.08	5.313
273.29	4.651
273.50	6.658
273.71	6.311
273.92	0.783
274.14	7.297
274.35	7.084
274.56	7.687
274.77	4.419
274.98	5.300
275.19	7.891
275.40	4.977
275.61	7.313
275.83	7.799
276.04	8.473
276.25	7.325
276.46	6.988
276.67	9.040
276.88	6.557
277.09	7.457
277.30	5.565
277.51	9.813
277.73	12.025
277.94	8.291
278.15	3.651
278.36	8.319
278.57	5.689
278.78	7.866
278.99	6.728
279.20	11.037
279.41	11.604
279.62	4.628
279.84	3.785
280.05	9.428
280.26	10.624
280.47	7.454
280.68	17.760
280.89	11.911
281.10	12.225
281.31	9.387
281.52	10.069
281.73	6.391
281.94	6.401
282.16	8.378
282.37	10.548
282.58	5.035
282.79	6.872
283.00	8.713
283.21	6.116
283.42	5.491
283.63	6.832
283.84	7.033
284.05	6.266
284.26	10.489
284.47	5.965
284.68	9.068
284.89	7.211
285.11	4.383
285.32	6.725
285.53	6.943
285.74	4.969
285.95	5.080
286.16	5.636
286.37	6.059
286.58	6.237
286.79	2.867
287.00	7.715
287.21	3.375
287.42	3.559
287.63	3.540
287.84	3.819
288.05	7.007
288.26	4.877
288.48	9.450
288.69	5.661
288.90	6.637
289.11	6.404
289.32	7.476
289.53	5.970
289.74	4.559
289.95	3.837
290.16	4.810
290.37	7.442
290.58	7.213
290.79	6.202
291.00	3.386
291.21	4.153
291.42	5.028
291.63	7.511
291.84	5.005
292.05	4.158
292.26	7.317
292.47	5.060
292.68	8.015
292.89	5.175
293.10	6.337
293.31	5.467
293.52	6.805
293.73	5.000
293.94	4.253
294.15	6.169
294.36	7.755
294.57	9.201
294.79	6.473
295.00	4.540
295.21	5.133
295.42	7.382
295.63	5.950
295.84	6.414
296.05	6.789
296.26	4.108
296.47	4.982
296.68	3.488
296.89	4.568
297.10	6.957
297.31	7.447
297.52	2.268
297.73	4.884
297.94	2.992
298.15	3.947
298.36	3.923
298.57	4.318
298.78	3.636
298.99	1.882
299.20	3.256
299.41	3.888
299.62	4.713
299.83	5.187
300.04	5.589
300.25	5.411
300.46	6.219
300.67	3.856
300.88	5.482
301.09	4.246
301.30	5.998
301.50	3.717
301.71	6.845
301.92	8.052
302.13	4.288
302.34	6.659
302.55	7.232
302.76	5.531
302.97	1.456
303.18	6.663
303.39	5.686
303.60	5.279
303.81	5.193
304.02	6.098
304.23	4.190
304.44	6.479
304.65	5.060
304.86	6.054
305.07	5.773
305.28	6.929
305.49	6.452
305.70	7.522
305.91	6.260
306.12	3.971
306.33	5.729
306.54	4.805
306.75	5.026
306.96	8.205
307.17	5.000
307.38	5.629
307.58	4.272
307.79	3.923
308.00	4.951
308.21	9.929
308.42	5.049
308.63	7.518
308.84	5.652
309.05	8.064
309.26	6.422
309.47	5.170
309.68	4.129
309.89	4.401
310.10	5.744
310.31	5.564
310.52	4.928
310.73	7.598
310.94	2.762
311.14	4.979
311.35	2.052
311.56	7.611
311.77	5.664
311.98	2.601
312.19	3.271
312.40	3.862
312.61	4.821
312.82	2.788
313.03	4.754
313.24	4.050
313.45	3.942
313.66	3.560
313.86	4.643
314.07	4.428
314.28	6.275
314.49	6.161
314.70	4.632
314.91	3.928
315.12	4.503
315.33	5.395
315.54	5.700
315.75	4.836
315.96	4.171
316.16	5.934
316.37	6.314
316.58	5.350
316.79	4.000
317.00	5.929
317.21	6.267
317.42	5.992
317.63	5.254
317.84	3.489
318.05	5.254
318.25	4.651
318.46	5.090
318.67	6.569
318.88	4.007
319.09	4.306
319.30	4.053
319.51	6.202
319.72	3.639
319.93	6.239
320.13	9.023
320.34	8.007
320.55	7.705
320.76	5.404
320.97	4.556
321.18	5.734
321.39	6.070
321.60	5.667
321.80	5.941
322.01	6.238
322.22	6.392
322.43	5.893
322.64	8.402
322.85	8.344
323.06	3.267
323.27	6.659
323.47	6.810
323.68	7.841
323.89	3.588
324.10	5.526
324.31	4.024
324.52	5.804
324.73	4.835
324.93	4.382
325.14	6.196
325.35	5.425
325.56	4.682
325.77	6.541
325.98	4.180
326.19	2.161
326.39	3.940
326.60	6.279
326.81	2.613
327.02	2.594
327.23	3.731
327.44	5.706
327.64	4.783
327.85	3.640
328.06	4.111
328.27	6.885
328.48	5.157
328.69	4.119
328.90	2.944
329.10	2.690
329.31	3.700
329.52	5.069
329.73	5.426
329.94	6.439
330.15	3.462
330.35	3.212
330.56	5.506
330.77	3.318
330.98	7.070
331.19	4.920
331.39	6.250
331.60	7.405
331.81	5.559
332.02	3.706
332.23	6.157
332.44	3.330
332.64	4.325
332.85	6.817
333.06	5.932
333.27	4.984
333.48	5.301
333.68	6.608
333.89	3.515
334.10	2.181
334.31	7.094
334.52	3.656
334.72	3.020
334.93	5.533
335.14	5.092
335.35	5.862
335.56	4.301
335.76	2.998
335.97	4.226
336.18	5.995
336.39	3.090
336.60	4.367
336.80	3.663
337.01	3.846
337.22	6.558
337.43	2.729
337.64	3.671
337.84	4.004
338.05	2.721
338.26	7.258
338.47	6.545
338.68	6.053
338.88	5.336
339.09	5.319
339.30	2.903
339.51	1.910
339.71	5.785
339.92	6.848
340.13	4.116
340.34	4.107
340.55	4.475
340.75	5.985
340.96	2.602
341.17	6.757
341.38	6.162
341.58	7.692
341.79	3.171
342.00	4.622
342.21	5.139
342.41	3.680
342.62	4.518
342.83	4.692
343.04	4.363
343.24	5.108
343.45	5.777
343.66	5.392
343.87	5.651
344.07	4.458
344.28	3.391
344.49	4.294
344.70	5.172
344.90	3.137
345.11	3.671
345.32	3.725
345.53	5.594
345.73	5.242
345.94	4.785
346.15	4.205
346.36	5.028
346.56	3.724
346.77	4.295
346.98	4.719
347.19	4.901
347.39	2.297
347.60	4.573
347.81	4.158
348.02	4.506
348.22	4.176
348.43	4.239
348.64	3.505
348.84	5.312
349.05	4.227
349.26	4.217
349.47	5.410
349.67	6.345
349.88	5.299
350.09	4.454
350.30	6.244
350.50	3.438
350.71	2.750
350.92	3.964
351.12	5.598
351.33	3.030
351.54	5.018
351.74	4.953
351.95	5.188
352.16	4.141
352.37	4.752
352.57	2.683
352.78	5.265
352.99	6.215
353.19	6.481
353.40	4.010
353.61	4.669
353.82	5.836
354.02	3.439
354.23	3.281
354.44	4.098
354.64	3.680
354.85	2.478
355.06	4.738
355.26	3.066
355.47	3.751
355.68	3.258
355.88	5.922
356.09	5.733
356.30	2.569
356.51	2.985
356.71	4.392
356.92	3.128
357.13	4.782
357.33	3.738
357.54	3.488
357.75	3.279
357.95	3.307
358.16	2.728
358.37	5.368
358.57	3.713
358.78	3.713
358.99	4.080
359.19	4.120
359.40	3.710
359.61	4.149
359.81	4.204
360.02	3.901
360.23	4.525
360.43	2.853
360.64	3.240
360.85	3.053
361.05	2.080
361.26	4.639
361.47	3.073
361.67	3.266
361.88	2.307
362.09	3.123
362.29	1.934
362.50	3.093
362.70	2.247
362.91	3.235
363.12	3.431
363.32	2.676
363.53	2.446
363.74	3.247
363.94	2.707
364.15	3.504
364.36	3.656
364.56	2.479
364.77	4.076
364.98	5.402
365.18	3.869
365.39	2.908
365.59	1.677
365.80	2.421
366.01	3.734
366.21	2.673
366.42	3.158
366.63	3.804
366.83	4.583
367.04	2.850
367.24	3.777
367.45	3.570
367.66	3.037
367.86	4.798
368.07	4.033
368.28	3.889
368.48	3.141
368.69	3.383
368.89	3.532
369.10	3.155
369.31	2.780
369.51	4.585
369.72	4.954
369.92	4.526
370.13	3.964
370.34	3.843
370.54	2.086
370.75	5.146
370.95	4.165
371.16	3.587
371.37	2.947
371.57	1.998
371.78	3.731
371.98	2.623
372.19	4.101
372.40	4.443
372.60	3.102
372.81	3.789
373.01	3.150
373.22	3.117
373.43	3.052
373.63	2.960
373.84	3.545
374.04	3.213
374.25	6.013
374.46	3.734
374.66	4.643
374.87	3.625
375.07	2.808
375.28	3.752
375.48	4.968
375.69	4.021
375.90	2.461
376.10	2.657
376.31	3.097
376.51	2.845
376.72	3.661
376.92	3.092
377.13	3.569
377.34	4.068
377.54	3.515
377.75	4.711
377.95	3.323
378.16	3.963
378.36	3.845
378.57	3.947
378.77	3.819
378.98	3.445
379.19	4.078
379.39	2.984
379.60	3.204
379.80	3.368
380.01	4.218
380.21	3.659
380.42	4.185
380.62	4.351
380.83	4.605
381.04	3.737
381.24	4.908
381.45	4.364
381.65	2.479
381.86	4.465
382.06	4.482
382.27	3.503
382.47	4.000
382.68	4.992
382.88	5.037
383.09	3.914
383.29	3.212
383.50	4.704
383.71	5.120
383.91	3.836
384.12	3.814
384.32	4.622
384.53	4.330
384.73	3.034
384.94	2.750
385.14	4.322
385.35	3.289
385.55	4.563
385.76	4.603
385.96	4.335
386.17	4.720
386.37	5.528
386.58	5.102
386.78	5.856
386.99	3.286
387.19	5.644
387.40	3.667
387.60	6.997
387.81	4.740
388.01	5.433
388.22	5.998
388.42	7.156
388.63	7.584
388.83	7.652
389.04	3.488
389.24	5.902
389.45	5.653
389.65	5.103
389.86	5.535
390.06	5.563
390.27	6.302
390.47	6.979
390.68	6.065
390.88	8.390
391.09	8.761
391.29	9.244
391.50	7.483
391.70	8.842
391.91	7.291
392.11	8.071
392.32	9.034
392.52	9.592
392.73	8.390
392.93	10.230
393.14	8.056
393.34	8.976
393.55	11.301
393.75	11.828
393.95	9.475
394.16	11.129
394.36	12.224
394.57	13.892
394.77	10.717
394.98	11.596
395.18	14.134
395.39	13.378
395.59	11.804
395.80	12.500
396.00	12.083
396.21	14.792
396.41	11.241
396.61	16.263
396.82	13.519
397.02	16.489
397.23	15.884
397.43	14.676
397.64	11.346
397.84	17.773
398.05	11.826
398.25	16.592
398.45	13.383
398.66	17.612
398.86	15.441
399.07	19.071
399.27	14.520
399.48	18.205
399.68	15.967
399.89	17.666
400.09	17.669
400.29	17.535
400.50	16.742
400.70	18.148
400.91	17.213
401.11	19.132
401.32	17.006
401.52	16.177
401.72	18.351
401.93	19.957
402.13	17.846
402.34	19.542
402.54	17.310
402.75	21.824
402.95	15.985
403.15	21.442
403.36	17.418
403.56	18.922
403.77	16.806
403.97	19.600
404.17	17.913
404.38	20.764
404.58	18.274
404.79	20.569
404.99	20.914
405.19	20.093
405.40	20.590
405.60	21.643
405.81	19.290
406.01	22.072
406.21	19.757
406.42	21.298
406.62	20.613
406.83	21.419
407.03	21.397
407.23	20.128
407.44	19.446
407.64	21.859
407.85	19.969
408.05	20.212
408.25	19.658
408.46	21.795
408.66	20.121
408.87	20.090
409.07	20.260
409.27	19.759
409.48	18.803
409.68	20.929
409.88	17.761
410.09	21.660
410.29	21.307
410.50	21.520
410.70	18.203
410.90	20.822
411.11	18.768
411.31	21.425
411.51	21.142
411.72	22.089
411.92	19.360
412.12	21.556
412.33	19.205
412.53	20.644
412.74	17.820
412.94	20.170
413.14	19.914
413.35	21.501
413.55	19.426
413.75	22.716
413.96	18.575
414.16	21.870
414.36	20.227
414.57	20.746
414.77	18.534
414.97	19.992
415.18	20.212
415.38	20.394
415.58	19.963
415.79	20.668
415.99	19.654
416.19	19.733
416.40	20.413
416.60	21.297
416.80	20.524
417.01	20.410
417.21	19.077
417.41	22.148
417.62	20.638
417.82	21.168
418.02	19.834
418.23	21.706
418.43	19.846
418.63	21.018
418.84	21.078
419.04	21.387
419.24	21.266
419.45	21.527
419.65	20.712
419.85	21.036
420.06	20.314
420.26	20.806
420.46	20.837
420.67	20.900
420.87	20.455
421.07	20.479
421.28	20.733
421.48	21.165
421.68	20.799
421.88	21.241
422.09	20.580
422.29	21.403
422.49	20.557
422.70	21.320
422.90	20.871
423.10	20.716
423.31	20.815
423.51	20.929
423.71	21.186
423.91	20.454
424.12	21.088
424.32	20.813
424.52	20.766
424.73	20.407
424.93	20.036
425.13	20.597
425.33	20.557
425.54	19.977
425.74	20.304
425.94	21.027
426.15	20.513
426.35	20.106
426.55	20.200
426.75	20.207
426.96	20.441
427.16	20.854
427.36	20.942
427.57	20.850
427.77	20.266
427.97	20.703
428.17	20.646
428.38	20.632
428.58	19.883
428.78	20.427
428.98	19.553
429.19	19.736
429.39	18.496
429.59	19.773
429.79	18.622
430.00	19.823
430.20	19.007
430.40	19.351
430.60	18.339
430.81	19.440
431.01	18.272
431.21	19.545
431.41	19.253
431.62	19.392
431.82	18.996
432.02	20.281
432.22	18.972
432.43	19.665
432.63	18.921
432.83	19.961
433.03	18.810
433.24	20.191
433.44	19.131
433.64	19.414
433.84	19.541
434.05	19.710
434.25	19.344
434.45	20.578
434.65	20.057
434.85	19.880
435.06	19.841
435.26	20.203
435.46	19.883
435.66	20.039
435.87	19.378
436.07	20.607
436.27	20.407
436.47	20.027
436.67	19.891
436.88	19.445
437.08	19.073
437.28	20.682
437.48	19.088
437.69	20.214
437.89	19.550
438.09	20.528
438.29	18.983
438.49	20.065
438.70	19.276
438.90	19.476
439.10	20.033
439.30	19.440
439.50	19.052
439.71	19.596
439.91	20.019
440.11	19.522
440.31	19.828
440.51	19.709
440.72	19.212
440.92	19.842
441.12	18.955
441.32	19.986
441.52	19.271
441.72	19.943
441.93	20.127
442.13	19.611
442.33	20.102
442.53	20.416
442.73	19.080
442.94	20.773
443.14	20.363
443.34	20.916
443.54	20.116
443.74	20.193
443.94	19.400
444.15	19.905
444.35	19.678
444.55	19.925
444.75	19.973
444.95	20.399
445.15	19.806
445.36	19.380
445.56	19.313
445.76	19.567
445.96	18.978
446.16	19.506
446.36	19.018
446.57	19.777
446.77	19.245
446.97	18.399
447.17	19.617
447.37	19.751
447.57	19.349
447.77	19.840
447.98	19.784
448.18	20.265
448.38	19.818
448.58	20.532
448.78	19.976
448.98	20.647
449.18	20.591
449.39	20.150
449.59	20.589
449.79	20.820
449.99	19.986
450.19	20.606
450.39	20.679
450.59	19.377
450.79	20.148
451.00	20.553
451.20	21.150
451.40	20.286
451.60	19.393
451.80	20.148
452.00	19.355
452.20	19.369
452.40	19.173
452.61	19.614
452.81	18.684
453.01	19.563
453.21	19.348
453.41	20.213
453.61	19.585
453.81	19.462
454.01	19.812
454.21	20.513
454.42	19.328
454.62	19.660
454.82	19.603
455.02	20.394
455.22	19.761
455.42	19.760
455.62	19.499
455.82	19.957
456.02	19.260
456.23	20.578
456.43	19.491
456.63	20.022
456.83	18.344
457.03	19.921
457.23	18.521
457.43	19.354
457.63	18.804
457.83	19.323
458.03	18.347
458.23	19.574
458.43	18.870
458.64	19.367
458.84	18.547
459.04	19.062
459.24	19.261
459.44	18.633
459.64	18.755
459.84	19.128
460.04	18.518
460.24	18.648
460.44	19.021
460.64	20.021
460.84	19.475
461.04	18.804
461.24	19.292
461.45	19.647
461.65	19.450
461.85	20.006
462.05	19.899
462.25	20.041
462.45	19.624
462.65	20.017
462.85	19.270
463.05	19.609
463.25	18.996
463.45	19.691
463.65	18.764
463.85	19.388
464.05	19.557
464.25	19.893
464.45	19.806
464.65	19.351
464.85	18.443
465.05	19.236
465.26	19.507
465.46	20.130
465.66	18.727
465.86	19.674
466.06	18.974
466.26	19.665
466.46	18.974
466.66	19.615
466.86	19.245
467.06	18.987
467.26	18.496
467.46	19.136
467.66	19.371
467.86	19.165
468.06	19.545
468.26	18.816
468.46	19.661
468.66	18.749
468.86	18.460
469.06	20.065
469.26	20.423
469.46	18.630
469.66	18.786
469.86	19.626
470.06	19.133
470.26	19.869
470.46	18.803
470.66	19.978
470.86	19.193
471.06	19.682
471.26	19.142
471.46	18.314
471.66	19.361
471.86	20.149
472.06	19.194
472.26	19.701
472.46	18.750
472.66	19.705
472.86	20.065
473.06	19.487
473.26	18.998
473.46	19.397
473.66	19.423
473.86	20.218
474.06	19.295
474.26	20.089
474.46	18.537
474.66	19.622
474.86	19.805
475.06	19.933
475.26	19.265
475.46	19.972
475.66	19.963
475.86	20.344
476.06	20.193
476.26	19.423
476.46	19.950
476.66	19.755
476.86	19.709
477.06	20.301
477.26	19.920
477.46	20.263
477.65	18.667
477.85	19.754
478.05	19.606
478.25	20.725
478.45	19.393
478.65	19.897
478.85	19.630
479.05	20.444
479.25	20.429
479.45	20.842
479.65	20.140
479.85	20.065
480.05	19.949
480.25	20.751
480.45	20.780
480.65	20.537
480.85	19.444
481.05	20.875
481.25	20.162
481.44	20.345
481.64	19.321
481.84	19.980
482.04	20.274
482.24	20.651
482.44	19.791
482.64	19.544
482.84	19.564
483.04	20.267
483.24	19.393
483.44	19.695
483.64	19.122
483.84	19.219
484.04	19.373
484.23	20.164
484.43	20.517
484.63	21.876
484.83	22.796
485.03	23.856
485.23	23.997
485.43	23.871
485.63	23.338
485.83	22.024
486.03	20.706
486.23	21.302
486.42	21.254
486.62	21.057
486.82	20.775
487.02	20.582
487.22	20.430
487.42	20.428
487.62	20.311
487.82	20.248
488.02	20.188
488.22	20.470
488.41	20.168
488.61	20.683
488.81	20.584
489.01	20.816
489.21	20.981
489.41	21.055
489.61	21.057
489.81	21.259
490.01	21.219
490.20	21.549
490.40	21.168
490.60	20.561
490.80	20.364
491.00	20.605
491.20	20.292
491.40	20.314
491.60	19.922
491.79	19.581
491.99	20.208
492.19	20.054
492.39	20.151
492.59	20.293
492.79	20.391
492.99	20.553
493.19	20.322
493.38	20.778
493.58	21.313
493.78	21.183
493.98	21.080
494.18	21.007
494.38	20.567
494.58	21.122
494.77	21.002
494.97	21.136
495.17	20.557
495.37	20.873
495.57	21.157
495.77	20.739
495.96	21.422
496.16	20.512
496.36	20.942
496.56	20.949
496.76	19.888
496.96	20.458
497.15	20.776
497.35	20.742
497.55	21.083
497.75	20.906
497.95	21.197
498.15	20.825
498.34	21.147
498.54	21.425
498.74	21.128
498.94	21.079
499.14	20.835
499.34	20.916
499.53	20.866
499.73	21.278
499.93	20.972
500.13	21.487
500.33	21.015
500.52	21.030
500.72	21.489
500.92	21.707
501.12	21.404
501.32	22.312
501.52	21.310
501.71	22.477
501.91	21.399
502.11	21.649
502.31	21.821
502.51	21.668
502.70	21.375
502.90	22.540
503.10	22.492
503.30	21.362
503.50	21.973
503.69	22.624
503.89	22.842
504.09	21.831
504.29	22.676
504.48	21.828
504.68	22.384
504.88	22.881
505.08	22.683
505.28	22.611
505.47	22.762
505.67	23.284
505.87	22.494
506.07	22.392
506.27	23.974
506.46	23.206
506.66	23.078
506.86	23.441
507.06	23.511
507.25	23.989
507.45	23.665
507.65	23.456
507.85	23.404
508.04	23.757
508.24	24.032
508.44	23.990
508.64	23.405
508.83	23.897
509.03	23.944
509.23	24.109
509.43	24.033
509.63	24.021
509.82	24.240
510.02	24.154
510.22	24.079
510.42	24.886
510.61	24.546
510.81	24.541
511.01	24.559
511.21	24.305
511.40	24.153
511.60	24.471
511.80	25.071
511.99	24.438
512.19	24.836
512.39	25.369
512.59	24.887
512.78	25.073
512.98	25.626
513.18	25.087
513.38	25.051
513.57	25.101
513.77	24.954
513.97	25.576
514.17	25.452
514.36	25.223
514.56	25.541
514.76	25.335
514.95	25.869
515.15	25.596
515.35	25.837
515.55	25.646
515.74	25.867
515.94	26.204
516.14	26.003
516.33	26.091
516.53	25.913
516.73	25.229
516.93	25.474
517.12	24.836
517.32	25.665
517.52	25.905
517.71	25.920
517.91	25.208
518.11	25.091
518.30	25.151
518.50	24.985
518.70	25.291
518.90	25.663
519.09	25.924
519.29	24.985
519.49	25.861
519.68	25.066
519.88	25.384
520.08	25.897
520.27	25.924
520.47	25.996
520.67	26.217
520.86	26.737
521.06	26.754
521.26	26.031
521.45	25.698
521.65	26.097
521.85	26.506
522.04	26.761
522.24	26.289
522.44	26.936
522.63	26.660
522.83	26.383
523.03	26.526
523.22	26.358
523.42	27.067
523.62	27.093
523.81	26.198
524.01	26.355
524.21	26.518
524.40	25.889
524.60	26.595
524.80	25.807
524.99	25.984
525.19	25.773
525.39	25.812
525.58	25.739
525.78	26.097
525.98	25.486
526.17	26.018
526.37	25.749
526.57	26.351
526.76	26.140
526.96	26.328
527.15	25.997
527.35	25.879
527.55	25.906
527.74	25.655
527.94	26.002
528.14	25.708
528.33	24.739
528.53	25.539
528.72	25.426
528.92	25.801
529.12	25.639
529.31	26.550
529.51	26.430
529.71	26.715
529.90	26.700
530.10	27.068
530.29	26.990
530.49	27.540
530.69	27.757
530.88	27.755
531.08	27.084
531.28	27.147
531.47	26.449
531.67	26.977
531.86	26.730
532.06	27.165
532.26	27.029
532.45	26.213
532.65	26.482
532.84	26.544
533.04	25.971
533.24	26.158
533.43	25.899
533.63	26.518
533.82	26.620
534.02	26.559
534.22	26.104
534.41	26.200
534.61	26.721
534.80	27.121
535.00	26.967
535.19	27.510
535.39	27.629
535.59	27.551
535.78	27.242
535.98	26.994
536.17	27.516
536.37	26.492
536.57	26.460
536.76	27.097
536.96	26.784
537.15	27.619
537.35	27.333
537.54	27.174
537.74	27.105
537.93	26.686
538.13	27.210
538.33	27.692
538.52	27.845
538.72	28.227
538.91	27.638
539.11	27.850
539.30	27.992
539.50	27.867
539.70	27.379
539.89	27.072
540.09	27.068
540.28	27.713
540.48	26.768
540.67	27.370
540.87	26.724
541.06	26.899
541.26	26.650
541.45	26.410
541.65	27.114
541.85	27.233
542.04	27.499
542.24	27.887
542.43	27.897
542.63	27.612
542.82	28.075
543.02	27.976
543.21	28.155
543.41	28.557
543.60	28.545
543.80	27.966
543.99	28.523
544.19	28.145
544.38	28.072
544.58	27.839
544.77	27.938
544.97	28.455
545.16	28.470
545.36	28.516
545.56	28.912
545.75	28.318
545.95	28.571
546.14	28.208
546.34	28.677
546.53	28.829
546.73	28.042
546.92	28.678
547.12	28.628
547.31	28.508
547.51	28.753
547.70	28.949
547.90	29.630
548.09	28.788
548.29	28.810
548.48	29.279
548.68	29.383
548.87	30.006
549.07	29.893
549.26	29.487
549.46	29.917
549.65	29.476
549.84	29.590
550.04	30.680
550.23	29.849
550.43	29.530
550.62	29.925
550.82	29.824
551.01	30.010
551.21	30.629
551.40	29.620
551.60	30.006
551.79	30.176
551.99	30.189
552.18	29.464
552.38	30.234
552.57	30.868
552.77	29.377
552.96	30.375
553.16	30.808
553.35	29.244
553.54	30.069
553.74	30.285
553.93	30.431
554.13	31.314
554.32	31.124
554.52	32.145
554.71	30.898
554.91	31.121
555.10	30.178
555.29	30.750
555.49	30.459
555.68	31.281
555.88	31.465
556.07	31.528
556.27	31.710
556.46	31.821
556.66	29.700
556.85	30.482
557.04	31.681
557.24	31.346
557.43	32.050
557.63	32.053
557.82	32.015
558.02	31.163
558.21	33.818
558.40	31.288
558.60	32.002
558.79	31.654
558.99	32.398
559.18	31.525
559.38	31.395
559.57	31.922
559.76	32.634
559.96	32.419
560.15	32.200
560.35	31.559
560.54	32.251
560.73	32.753
560.93	33.181
561.12	32.015
561.32	32.920
561.51	32.274
561.70	32.184
561.90	32.102
562.09	33.171
562.29	33.867
562.48	33.650
562.67	33.695
562.87	32.700
563.06	33.040
563.26	32.978
563.45	32.823
563.64	32.783
563.84	32.201
564.03	32.711
564.23	33.437
564.42	33.355
564.61	33.346
564.81	34.521
565.00	32.723
565.20	32.989
565.39	33.943
565.58	33.524
565.78	33.805
565.97	33.532
566.16	33.001
566.36	33.366
566.55	33.769
566.74	33.192
566.94	33.893
567.13	33.836
567.33	33.919
567.52	33.636
567.71	33.682
567.91	34.054
568.10	34.357
568.29	34.689
568.49	34.827
568.68	34.025
568.87	34.288
569.07	34.578
569.26	34.539
569.45	34.363
569.65	33.708
569.84	34.886
570.04	33.869
570.23	34.088
570.42	34.215
570.62	33.793
570.81	34.852
571.00	34.373
571.20	34.124
571.39	33.957
571.58	33.935
571.78	34.024
571.97	35.281
572.16	33.921
572.36	33.629
572.55	34.691
572.74	34.041
572.94	34.323
573.13	33.977
573.32	34.044
573.51	33.984
573.71	34.491
573.90	34.125
574.09	34.601
574.29	34.920
574.48	34.837
574.67	34.066
574.87	34.910
575.06	33.861
575.25	34.085
575.45	34.700
575.64	34.604
575.83	33.856
576.03	35.172
576.22	33.826
576.41	34.790
576.60	34.621
576.80	34.565
576.99	34.784
577.18	35.191
577.38	33.755
577.57	35.027
577.76	35.007
577.95	34.821
578.15	33.762
578.34	34.680
578.53	34.758
578.73	34.827
578.92	34.139
579.11	35.406
579.30	35.166
579.50	34.503
579.69	35.210
579.88	34.781
580.08	33.770
580.27	34.522
580.46	34.367
580.65	34.627
580.85	33.978
581.04	33.299
581.23	33.820
581.42	34.431
581.62	34.977
581.81	33.459
582.00	33.043
582.19	35.039
582.39	35.163
582.58	34.659
582.77	34.602
582.96	33.896
583.16	33.677
583.35	33.960
583.54	34.078
583.73	35.693
583.93	34.710
584.12	34.322
584.31	33.888
584.50	34.948
584.70	32.295
584.89	33.230
585.08	34.244
585.27	34.575
585.47	33.238
585.66	34.441
585.85	32.089
586.04	33.856
586.24	33.539
586.43	34.204
586.62	33.205
586.81	34.503
587.00	33.933
587.20	33.701
587.39	33.031
587.58	33.386
587.77	33.559
587.97	33.853
588.16	33.841
588.35	33.613
588.54	33.498
588.73	32.747
588.93	33.649
589.12	33.909
589.31	33.706
589.50	33.420
589.69	31.815
589.89	32.529
590.08	33.883
590.27	33.991
590.46	33.630
590.65	33.864
590.85	33.516
591.04	33.724
591.23	33.358
591.42	33.133
591.61	33.472
591.81	34.332
592.00	33.749
592.19	34.000
592.38	34.039
592.57	34.434
592.77	34.321
592.96	32.995
593.15	34.195
593.34	33.733
593.53	34.141
593.72	34.572
593.92	33.387
594.11	33.651
594.30	33.146
594.49	34.043
594.68	34.204
594.87	33.607
595.07	33.268
595.26	33.338
595.45	34.638
595.64	34.537
595.83	34.190
596.02	33.773
596.22	34.379
596.41	33.737
596.60	34.049
596.79	34.308
596.98	35.037
597.17	33.703
597.37	33.642
597.56	33.118
597.75	33.532
597.94	34.155
598.13	34.055
598.32	34.088
598.51	33.696
598.71	34.907
598.90	34.806
599.09	34.856
599.28	34.250
599.47	34.582
599.66	34.974
599.85	34.954
600.05	33.850
600.24	35.718
600.43	34.508
600.62	35.595
600.81	35.150
601.00	35.776
601.19	34.922
601.38	35.155
601.58	35.668
601.77	33.470
601.96	36.082
602.15	36.452
602.34	35.574
602.53	34.834
602.72	35.697
602.91	35.222
603.10	36.693
603.30	34.483
603.49	34.898
603.68	35.909
603.87	35.779
604.06	35.951
604.25	34.720
604.44	35.478
604.63	36.028
604.82	35.985
605.01	34.708
605.21	36.600
605.40	36.002
605.59	36.307
605.78	35.820
605.97	35.282
606.16	36.017
606.35	35.453
606.54	35.451
606.73	35.906
606.92	36.053
607.11	37.232
607.30	37.126
607.50	36.490
607.69	37.001
607.88	36.994
608.07	36.876
608.26	37.734
608.45	36.835
608.64	36.585
608.83	35.370
609.02	36.057
609.21	36.266
609.40	36.658
609.59	35.582
609.78	34.722
609.97	35.483
610.16	34.950
610.35	35.849
610.55	35.689
610.74	35.694
610.93	35.975
611.12	34.959
611.31	36.192
611.50	35.338
611.69	34.965
611.88	35.769
612.07	34.489
612.26	36.997
612.45	36.327
612.64	34.856
612.83	37.094
613.02	37.120
613.21	35.048
613.40	37.223
613.59	36.278
613.78	34.754
613.97	35.455
614.16	35.352
614.35	35.749
614.54	34.707
614.73	35.489
614.92	35.253
615.11	35.267
615.30	34.503
615.49	35.063
615.68	34.699
615.87	36.298
616.07	35.070
616.26	34.721
616.45	35.837
616.64	37.253
616.83	35.427
617.02	34.218
617.21	33.768
617.40	34.605
617.59	33.893
617.78	35.215
617.97	36.414
618.16	34.707
618.35	33.040
618.54	34.881
618.73	33.779
618.92	34.916
619.11	33.649
619.30	33.843
619.49	34.883
619.68	34.682
619.86	33.060
620.05	33.751
620.24	33.373
620.43	35.287
620.62	34.585
620.81	33.120
621.00	33.038
621.19	34.646
621.38	33.651
621.57	34.415
621.76	34.541
621.95	35.300
622.14	32.888
622.33	34.341
622.52	32.877
622.71	35.404
622.90	33.737
623.09	33.926
623.28	32.166
623.47	34.715
623.66	32.395
623.85	33.909
624.04	34.492
624.23	33.642
624.42	33.299
624.61	33.394
624.80	33.698
624.99	33.680
625.18	33.745
625.36	33.729
625.55	32.343
625.74	33.894
625.93	32.838
626.12	34.158
626.31	33.178
626.50	33.632
626.69	32.332
626.88	33.827
627.07	33.474
627.26	32.798
627.45	34.021
627.64	32.365
627.83	31.852
628.02	32.194
628.20	33.020
628.39	33.510
628.58	33.147
628.77	33.809
628.96	33.612
629.15	32.485
629.34	31.898
629.53	35.416
629.72	33.654
629.91	32.197
630.10	33.639
630.29	33.252
630.47	33.793
630.66	32.704
630.85	34.392
631.04	32.317
631.23	34.020
631.42	31.930
631.61	32.911
631.80	33.835
631.99	32.676
632.18	31.951
632.36	32.065
632.55	33.719
632.74	33.003
632.93	33.681
633.12	31.777
633.31	33.128
633.50	31.196
633.69	33.127
633.88	31.954
634.06	32.925
634.25	33.530
634.44	33.031
634.63	32.328
634.82	32.567
635.01	32.008
635.20	32.741
635.39	32.159
635.57	32.827
635.76	32.976
635.95	32.649
636.14	31.786
636.33	33.083
636.52	33.099
636.71	31.998
636.89	32.548
637.08	32.066
637.27	33.249
637.46	33.094
637.65	33.041
637.84	32.894
638.03	31.444
638.21	32.138
638.40	33.122
638.59	32.835
638.78	33.341
638.97	34.566
639.16	31.666
639.34	31.702
639.53	33.694
639.72	33.007
639.91	32.760
640.10	31.583
640.29	31.850
640.47	32.795
640.66	33.246
640.85	33.103
641.04	31.569
641.23	30.722
641.42	32.752
641.60	31.445
641.79	32.026
641.98	32.223
642.17	32.011
642.36	30.994
642.54	31.002
642.73	30.192
642.92	30.483
643.11	33.656
643.30	30.468
643.49	32.203
643.67	30.711
643.86	31.945
644.05	30.334
644.24	32.673
644.43	30.791
644.61	33.351
644.80	30.738
644.99	31.011
645.18	31.227
645.37	33.668
645.55	32.218
645.74	32.800
645.93	31.842
646.12	32.350
646.31	30.474
646.49	30.540
646.68	32.657
646.87	31.142
647.06	30.663
647.24	32.279
647.43	30.205
647.62	33.801
647.81	31.284
648.00	30.593
648.18	29.244
648.37	30.948
648.56	31.261
648.75	31.571
648.93	29.982
649.12	30.996
649.31	31.068
649.50	29.524
649.68	31.282
649.87	33.144
650.06	29.789
650.25	33.272
650.43	30.197
650.62	31.799
650.81	31.002
651.00	32.228
651.18	30.490
651.37	31.942
651.56	29.710
651.75	32.695
651.93	30.534
652.12	32.789
652.31	31.385
652.50	31.807
652.68	32.535
652.87	33.853
653.06	30.696
653.25	33.163
653.43	30.869
653.62	32.532
653.81	30.450
654.00	32.522
654.18	29.067
654.37	31.679
654.56	30.822
654.74	29.905
654.93	30.071
655.12	30.975
655.31	29.392
655.49	30.875
655.68	28.090
655.87	29.621
656.05	25.264
656.24	31.246
656.43	29.210
656.62	29.785
656.80	29.163
656.99	29.888
657.18	26.804
657.36	29.638
657.55	29.200
657.74	30.374
657.93	29.095
658.11	30.259
658.30	29.099
658.49	27.872
658.67	28.575
658.86	28.236
659.05	27.211
659.23	28.998
659.42	27.340
659.61	28.652
659.79	26.314
659.98	28.326
660.17	27.061
660.35	28.622
660.54	26.960
660.73	28.387
660.91	28.232
661.10	28.403
661.29	25.790
661.47	27.844
661.66	25.042
661.85	27.030
662.03	27.259
662.22	25.987
662.41	24.019
662.59	25.177
662.78	24.355
662.97	25.767
663.15	22.637
663.34	24.812
663.53	21.624
663.71	24.076
663.90	21.617
664.09	23.572
664.27	20.857
664.46	24.606
664.65	20.637
664.83	22.453
665.02	19.689
665.21	20.565
665.39	18.803
665.58	21.496
665.77	19.258
665.95	20.062
666.14	18.531
666.32	19.612
666.51	18.850
666.70	18.804
666.88	16.875
667.07	19.026
667.26	13.843
667.44	18.827
667.63	17.544
667.81	17.283
668.00	18.249
668.19	19.472
668.37	18.616
668.56	20.375
668.75	15.022
668.93	21.514
669.12	16.135
669.30	18.866
669.49	15.996
669.68	20.564
669.86	17.450
670.05	17.440
670.23	16.612
670.42	17.946
670.61	16.055
670.79	19.970
670.98	18.119
671.16	19.348
671.35	15.385
671.54	18.867
671.72	15.681
671.91	17.712
672.09	14.730
672.28	18.855
672.46	18.005
672.65	19.655
672.84	15.432
673.02	18.446
673.21	13.038
673.39	16.270
673.58	16.321
673.77	16.414
673.95	16.749
674.14	19.384
674.32	14.646
674.51	19.080
674.69	16.062
674.88	18.472
675.07	15.518
675.25	20.186
675.44	16.381
675.62	16.378
675.81	15.836
675.99	20.270
676.18	15.892
676.36	16.210
676.55	15.909
676.74	19.349
676.92	16.935
677.11	18.048
677.29	15.789
677.48	19.653
677.66	17.012
677.85	17.683
678.03	17.881
678.22	21.274
678.40	18.996
678.59	16.757
678.78	16.700
678.96	16.876
679.15	16.319
679.33	20.364
679.52	20.056
679.70	21.240
679.89	19.468
680.07	21.464
680.26	18.655
680.44	21.632
680.63	18.441
680.81	20.273
681.00	17.899
681.18	19.984
681.37	20.808
681.55	23.250
681.74	22.869
681.92	22.841
682.11	22.643
682.29	21.221
682.48	21.496
682.66	22.342
682.85	19.930
683.03	23.207
683.22	21.479
683.40	22.483
683.59	22.945
683.77	21.705
683.96	18.908
684.14	25.989
684.33	19.264
684.51	26.903
684.70	23.670
684.88	27.230
685.07	22.230
685.25	24.450
685.44	21.226
685.62	25.491
685.81	22.822
685.99	25.495
686.18	20.285
686.36	25.035
686.55	21.792
686.73	26.428
686.92	25.782
687.10	27.518
687.29	25.589
687.47	29.636
687.65	26.396
687.84	25.858
688.02	29.086
688.21	28.916
688.39	25.423
688.58	30.237
688.76	29.126
688.95	31.515
689.13	26.221
689.32	32.974
689.50	29.447
689.68	32.284
689.87	27.821
690.05	32.492
690.24	33.052
690.42	35.516
690.61	29.696
690.79	35.447
690.98	31.068
691.16	32.992
691.34	30.960
691.53	35.022
691.71	32.189
691.90	38.108
692.08	32.404
692.27	36.037
692.45	36.535
692.63	34.820
692.82	37.628
693.00	37.371
693.19	36.639
693.37	38.276
693.56	38.025
693.74	40.802
693.92	38.046
694.11	39.865
694.29	39.627
694.48	38.949
694.66	39.907
694.84	41.305
695.03	38.209
695.21	44.551
695.40	39.820
695.58	44.323
695.76	40.926
695.95	43.053
696.13	43.033
696.32	44.141
696.50	47.125
696.68	45.736
696.87	42.118
697.05	46.797
697.24	44.970
697.42	46.427
697.60	42.922
697.79	44.727
697.97	47.577
698.16	46.606
698.34	46.144
698.52	47.672
698.71	44.988
698.89	46.708
699.07	46.374
699.26	46.087
699.44	46.831
699.63	47.457
699.81	45.010
699.99	47.482
700.18	48.470
700.36	48.647
700.54	47.818
700.73	45.766
700.91	48.200
701.09	48.802
701.28	49.324
701.46	48.315
701.64	48.444
701.83	50.470
702.01	49.476
702.20	49.606
702.38	48.930
702.56	49.844
702.75	47.773
702.93	47.462
703.11	46.547
703.30	53.289
703.48	47.998
703.66	51.190
703.85	47.687
704.03	54.951
704.21	49.275
704.40	52.119
704.58	50.455
704.76	48.807
704.95	47.746
705.13	51.674
705.31	49.352
705.50	51.430
705.68	51.600
705.86	51.409
706.04	48.932
706.23	55.104
706.41	50.049
706.59	50.388
706.78	48.866
706.96	54.044
707.14	52.676
707.33	52.678
707.51	52.212
707.69	51.298
707.88	49.807
708.06	52.798
708.24	51.137
708.42	55.297
708.61	50.410
708.79	55.050
708.97	55.095
709.16	55.424
709.34	55.392
709.52	52.124
709.71	50.955
709.89	53.925
710.07	51.027
710.25	59.456
710.44	53.421
710.62	53.198
710.80	52.123
710.98	54.080
711.17	53.975
711.35	55.837
711.53	52.425
711.72	55.419
711.90	55.993
712.08	54.489
712.26	53.436
712.45	57.724
712.63	54.306
712.81	53.537
712.99	54.041
713.18	56.283
713.36	50.156
713.54	54.839
713.72	56.321
713.91	53.963
714.09	53.602
714.27	53.180
714.45	54.264
714.64	55.349
714.82	57.242
715.00	54.866
715.18	54.867
715.37	55.368
715.55	54.198
715.73	52.504
715.91	52.065
716.10	56.074
716.28	51.094
716.46	53.866
716.64	53.524
716.83	53.739
717.01	51.747
717.19	55.505
717.37	50.314
717.55	53.438
717.74	50.750
717.92	53.480
718.10	50.746
718.28	53.539
718.47	50.216
718.65	52.412
718.83	51.012
719.01	51.059
719.19	52.423
719.38	49.537
719.56	46.718
719.74	52.397
719.92	46.379
720.10	51.629
720.29	51.637
720.47	54.540
720.65	52.124
720.83	55.356
721.01	49.292
721.20	50.179
721.38	48.345
721.56	51.537
721.74	55.472
721.92	55.193
722.11	53.628
722.29	52.213
722.47	54.718
722.65	53.803
722.83	50.611
723.01	49.756
723.20	49.132
723.38	55.003
723.56	49.620
723.74	53.383
723.92	52.665
724.10	52.594
724.29	49.280
724.47	51.096
724.65	46.932
724.83	52.592
725.01	46.507
725.19	56.021
725.38	49.470
725.56	55.085
725.74	49.078
725.92	55.766
726.10	49.210
726.28	53.191
726.46	51.471
726.65	54.580
726.83	50.930
727.01	51.711
727.19	50.681
727.37	55.207
727.55	52.215
727.73	55.048
727.92	53.341
728.10	53.555
728.28	49.500
728.46	53.943
728.64	53.878
728.82	53.673
729.00	57.001
729.19	57.960
729.37	49.565
729.55	52.928
729.73	49.885
729.91	53.957
730.09	51.749
730.27	55.901
730.45	51.886
730.63	53.626
730.82	54.545
731.00	52.683
731.18	51.466
731.36	56.453
731.54	48.805
731.72	52.868
731.90	53.494
732.08	53.062
732.26	50.845
732.45	55.574
732.63	55.762
732.81	53.567
732.99	52.351
733.17	55.710
733.35	54.691
733.53	59.825
733.71	51.164
733.89	55.014
734.07	58.319
734.25	56.305
734.44	51.869
734.62	59.408
734.80	54.135
734.98	58.436
735.16	55.688
735.34	61.730
735.52	56.883
735.70	56.745
735.88	55.071
736.06	58.636
736.24	56.166
736.42	59.295
736.60	57.414
736.78	55.839
736.97	55.744
737.15	57.497
737.33	55.090
737.51	59.120
737.69	55.456
737.87	58.049
738.05	57.521
738.23	56.769
738.41	52.957
738.59	56.723
738.77	54.760
738.95	61.388
739.13	58.595
739.31	58.351
739.49	55.229
739.67	59.244
739.85	59.269
740.03	60.112
740.21	61.657
740.39	58.776
740.57	58.492
740.75	59.532
740.93	56.259
741.11	57.234
741.30	53.632
741.48	60.390
741.66	58.470
741.84	59.368
742.02	57.154
742.20	60.362
742.38	60.391
742.56	63.413
742.74	58.568
742.92	56.274
743.10	52.632
743.28	60.278
743.46	56.973
743.64	58.805
743.82	52.478
744.00	60.887
744.18	62.661
744.36	59.360
744.54	54.748
744.72	63.817
744.90	56.457
745.08	66.189
745.26	55.777
745.44	58.988
745.62	54.644
745.80	61.285
745.98	58.699
746.16	62.467
746.34	54.308
746.52	61.843
746.70	59.083
746.87	67.806
747.05	57.989
747.23	63.336
747.41	59.389
747.59	60.510
747.77	52.443
747.95	65.498
748.13	57.589
748.31	60.418
748.49	59.156
748.67	59.660
748.85	56.518
749.03	62.256
749.21	54.341
749.39	59.095
749.57	56.750
749.75	59.134
749.93	55.846
750.11	61.344
750.29	54.739
750.47	59.949
750.65	58.421
750.83	60.342
751.01	57.167
751.18	61.072
751.36	54.659
751.54	67.013
751.72	56.447
751.90	56.693
752.08	54.326
752.26	60.901
752.44	54.523
752.62	59.144
752.80	58.562
752.98	60.170
753.16	60.705
753.34	63.530
753.52	57.560
753.69	57.432
753.87	56.115
754.05	64.839
754.23	59.052
754.41	60.169
754.59	56.051
754.77	64.457
754.95	56.466
755.13	58.319
755.31	52.373
755.49	57.447
755.66	59.455
755.84	62.200
756.02	54.968
756.20	62.642
756.38	59.643
756.56	61.111
756.74	60.849
756.92	58.949
757.10	58.492
757.28	61.831
757.45	60.644
757.63	60.088
757.81	51.085
757.99	64.950
758.17	58.273
758.35	52.102
758.53	54.153
758.71	64.096
758.88	58.108
759.06	59.370
759.24	57.280
759.42	54.491
759.60	49.212
759.78	51.888
759.96	48.115
760.13	55.083
760.31	44.320
760.49	46.147
760.67	35.550
760.85	45.462
761.03	37.890
761.21	38.057
761.38	35.968
761.56	41.299
761.74	40.902
761.92	47.600
762.10	35.655
762.28	43.245
762.46	34.341
762.63	46.332
762.81	44.088
762.99	43.488
763.17	43.755
763.35	44.476
763.53	43.904
763.70	46.617
763.88	48.564
764.06	47.775
764.24	46.741
764.42	49.789
764.60	49.016
764.77	51.867
764.95	46.130
765.13	52.715
765.31	48.233
765.49	52.658
765.66	50.489
765.84	49.183
766.02	50.773
766.20	54.847
766.38	51.184
766.56	50.769
766.73	50.000
766.91	52.580
767.09	53.421
767.27	52.132
767.45	52.535
767.62	60.178
767.80	47.681
767.98	55.047
768.16	51.175
768.33	56.708
768.51	52.194
768.69	58.170
768.87	49.281
769.05	61.233
769.22	55.588
769.40	60.714
769.58	53.134
769.76	64.509
769.94	56.475
770.11	61.716
770.29	57.704
770.47	53.541
770.65	56.418
770.82	62.637
771.00	60.144
771.18	53.924
771.36	56.674
771.53	57.222
771.71	56.492
771.89	62.950
772.07	54.493
772.25	66.171
772.42	52.043
772.60	69.191
772.78	57.175
772.96	60.822
773.13	58.703
773.31	60.487
773.49	62.624
773.67	61.146
773.84	53.103
774.02	64.394
774.20	57.050
774.37	56.189
774.55	58.428
774.73	58.760
774.91	59.974
775.08	59.002
775.26	60.755
775.44	62.742
775.62	54.672
775.79	62.219
775.97	54.818
776.15	53.548
776.32	56.724
776.50	59.885
776.68	63.194
776.86	60.474
777.03	65.134
777.21	65.349
777.39	55.497
777.56	58.674
777.74	58.297
777.92	57.351
778.10	54.768
778.27	57.844
778.45	59.030
778.63	63.338
778.80	52.863
778.98	60.662
779.16	54.726
779.34	60.136
779.51	54.604
779.69	60.408
779.87	53.709
780.04	59.693
780.22	54.775
780.40	56.631
780.57	55.429
780.75	59.783
780.93	52.693
781.10	60.196
781.28	60.837
781.46	60.414
781.63	55.587
781.81	64.562
781.99	59.309
782.16	57.457
782.34	54.948
782.52	56.069
782.69	54.963
782.87	52.527
783.05	52.161
783.22	56.732
783.40	54.862
783.58	57.903
783.75	52.135
783.93	58.718
784.11	60.972
784.28	57.380
784.46	54.482
784.64	53.871
784.81	48.594
784.99	61.526
785.17	54.588
785.34	57.798
785.52	52.716
785.69	56.502
785.87	53.380
786.05	63.636
786.22	53.985
786.40	61.997
786.58	63.679
786.75	64.274
786.93	51.497
787.11	52.690
787.28	51.528
787.46	56.889
787.63	50.470
787.81	50.370
787.99	48.895
788.16	56.480
788.34	48.382
788.51	56.084
788.69	55.666
788.87	54.804
789.04	49.665
789.22	46.809
789.39	55.422
789.57	51.650
789.75	47.683
789.92	58.189
790.10	44.703
790.27	57.216
790.45	47.051
790.63	55.344
790.80	46.839
790.98	47.206
791.15	46.544
791.33	50.216
791.51	44.569
791.68	49.852
791.86	54.726
792.03	49.839
792.21	46.657
792.39	54.517
792.56	54.531
792.74	53.387
792.91	53.638
793.09	47.917
793.26	47.115
793.44	55.155
793.62	50.921
793.79	44.729
793.97	58.170
794.14	57.895
794.32	55.259
794.49	53.977
794.67	41.824
794.84	56.081
795.02	52.852
795.20	64.860
795.37	43.649
795.55	62.738
795.72	44.737
795.90	44.306
796.07	53.028
796.25	51.151
796.42	47.463
796.60	43.485
796.77	46.582
796.95	43.182
797.13	48.361
797.30	53.608
797.48	48.494
797.65	60.677
797.83	38.848
798.00	49.923
798.18	51.501
798.35	48.321
798.53	46.180
798.70	53.385
798.88	50.783
799.05	53.783
799.23	46.201
799.40	49.595
799.58	50.081
799.75	51.753
799.93	56.971
800.10	48.222
800.28	43.719
800.45	52.941
800.63	48.867
800.80	49.235
800.98	47.227
801.15	50.248
801.33	43.793
801.50	46.844
801.68	44.118
801.85	45.139
802.03	50.543
802.20	50.000
802.38	46.435
802.55	41.531
802.73	49.378
802.90	42.756
803.08	38.336
803.25	60.038
803.43	47.664
803.60	51.920
803.78	51.926
803.95	47.676
804.13	52.300
804.30	55.492
804.48	48.113
804.65	50.591
804.83	39.376
805.00	42.932
805.17	53.074
805.35	59.038
805.52	49.821
805.70	47.872
805.87	52.817
806.05	53.565
806.22	49.620
806.40	40.700
806.57	37.848
806.75	57.276
806.92	48.346
807.09	46.341
807.27	42.748
807.44	54.044
807.62	51.434
807.79	37.347
807.97	44.045
808.14	49.913
808.31	46.374
808.49	48.611
808.66	44.902
808.84	49.614
809.01	50.690
809.19	42.688
809.36	54.227
809.53	48.177
809.71	41.386
809.88	59.926
810.06	56.030
810.23	44.191
810.41	46.087
810.58	44.146
810.75	41.634
810.93	52.242
811.10	46.125
811.28	49.333
811.45	47.531
811.62	45.266
811.80	40.991
811.97	48.430
812.15	42.140
812.32	45.085
812.49	51.464
812.67	41.548
812.84	38.025
813.02	37.561
813.19	45.180
813.36	50.223
813.54	40.089
813.71	49.522
813.89	48.049
814.06	52.700
814.23	46.137
814.41	46.889
814.58	45.359
814.75	41.787
814.93	37.500
815.10	55.213
815.28	46.394
815.45	41.469
815.62	47.059
815.80	41.518
815.97	41.397
816.14	44.498
816.32	38.958
816.49	39.723
816.66	27.148
816.84	37.450
817.01	40.402
817.18	32.892
817.36	49.567
817.53	50.773
817.71	38.318
817.88	40.126
818.05	28.540
818.23	36.865
818.40	40.702
818.57	43.709
818.75	35.282
818.92	41.841
819.09	28.878
819.27	34.541
819.44	40.173
819.61	29.658
819.79	38.246
819.96	42.149
820.13	37.079
820.31	39.556
820.48	37.828
820.65	37.793
820.82	45.692
821.00	43.750
821.17	31.717
821.34	44.174
821.52	35.967
821.69	40.808
821.86	41.252
822.04	45.169
822.21	39.029
822.38	44.251
822.56	46.886
822.73	48.945
822.90	47.670
823.07	50.650
823.25	48.901
823.42	50.310
823.59	47.468
823.77	48.004
823.94	50.555
824.11	50.973
824.29	47.583
824.46	48.032
824.63	50.275
824.80	50.214
824.98	47.940
825.15	46.765
825.32	43.091
825.49	50.409
825.67	46.116
825.84	49.876
826.01	42.302
826.19	43.142
826.36	36.552
826.53	49.075
826.70	35.906
826.88	42.974
827.05	41.085
827.22	43.523
827.39	40.424
827.57	38.889
827.74	41.736
827.91	46.115
828.08	39.098
828.26	46.904
828.43	39.577
828.60	48.513
828.77	43.729
828.95	49.033
829.12	36.519
829.29	37.209
829.46	38.879
829.64	36.676
829.81	30.101
829.98	40.760
830.15	37.014
830.32	33.172
830.50	36.388
830.67	45.768
830.84	32.263
831.01	33.530
831.19	38.328
831.36	32.524
831.53	40.590
831.70	40.187
831.87	31.496
832.05	40.833
832.22	45.094
832.39	33.726
832.56	39.955
832.74	35.242
832.91	26.733
833.08	38.294
833.25	34.615
833.42	39.378
833.60	26.634
833.77	22.961
833.94	37.705
834.11	35.230
834.28	33.844
834.45	39.044
834.63	31.849
834.80	36.205
834.97	31.724
835.14	36.939
835.31	35.540
835.49	36.710
835.66	31.529
835.83	37.712
836.00	33.846
836.17	32.881
836.34	36.147
836.52	33.470
836.69	32.012
836.86	46.034
837.03	41.385
837.20	36.694
837.37	41.126
837.55	37.958
837.72	35.560
837.89	31.180
838.06	28.850
838.23	42.680
838.40	45.052
838.58	45.833
838.75	57.386
838.92	50.746
839.09	65.680
839.26	43.000
839.43	39.564
839.60	43.226
839.78	50.270
839.95	56.959
840.12	47.929
840.29	53.056
840.46	54.211
840.63	45.855
840.80	40.153
840.98	43.902
841.15	50.254
841.32	34.828
841.49	36.962
841.66	49.725
841.83	46.040
842.00	52.311
842.17	50.156
842.34	44.386
842.52	51.084
842.69	53.425
842.86	38.487
843.03	58.621
843.20	55.510
843.37	48.494
843.54	42.688
843.71	47.368
843.88	47.893
844.06	57.328
844.23	57.627
844.40	51.406
844.57	66.912
844.74	60.345
844.91	49.573
845.08	71.770
845.25	45.283
845.42	73.276
845.59	59.402
845.76	47.131
845.94	54.359
846.11	63.000
846.28	72.596
846.45	81.098
846.62	71.717
846.79	75.909
846.96	68.687
847.13	82.888
847.30	55.208
847.47	71.084
847.64	65.803
847.81	60.000
847.98	66.310
848.15	65.385
848.32	74.176
848.50	67.188
848.67	75.000
848.84	94.413
849.01	85.926
849.18	58.898
849.35	102.581
849.52	72.515
849.69	77.586
849.86	84.184
850.03	78.977
850.20	87.975
850.37	59.302
850.54	83.333
850.71	76.687
850.88	54.857
851.05	74.510
851.22	60.588
851.39	68.627
851.56	69.333
851.73	65.803
851.90	65.455
852.07	55.469
852.24	61.272
852.41	99.270
852.58	84.916
852.75	62.048
852.92	63.077
853.09	71.429
853.26	84.722
853.43	82.514
853.60	61.654
853.77	61.654
853.94	67.742
854.11	71.978
854.28	83.333
854.45	62.733
854.62	67.925
854.79	50.296
854.96	81.875
855.13	88.827
855.30	75.796
855.47	74.615
855.64	47.222
855.81	92.121
855.98	76.147
856.15	65.193
856.32	75.385
856.49	74.497
856.66	83.621
856.83	90.840
857.00	78.443
857.17	97.647
857.34	80.137
857.51	104.425
857.68	79.310
857.85	53.226
858.02	56.284
858.19	68.276
858.36	90.341
858.53	61.644
858.70	103.306
858.87	77.344
859.04	83.871
859.21	66.883
859.38	88.000
859.55	95.105
859.72	85.535
859.89	90.299
860.05	91.772
860.22	83.607
860.39	84.722
860.56	75.879
860.73	80.347
860.90	91.781
861.07	103.676
861.24	62.016
861.41	70.792
861.58	69.061
861.75	110.236
861.92	86.755
862.09	84.091
862.26	108.974
862.43	82.822
862.59	78.261
862.76	108.182
862.93	114.198
863.10	119.091
863.27	70.130
863.44	76.768
863.61	74.658
863.78	92.188
863.95	77.949
864.12	72.222
864.29	58.659
864.45	67.081
864.62	85.143
864.79	88.652
864.96	108.036
865.13	52.907
865.30	101.905
865.47	116.154
865.64	131.683
865.81	67.956
865.97	75.410
866.14	86.979
866.31	53.684
866.48	74.627
866.65	68.116
866.82	104.000
866.99	67.580
867.16	54.622
867.33	57.746
867.49	65.497
867.66	89.441
867.83	62.838
868.00	64.824
868.17	75.000
868.34	115.068
868.51	108.571
868.67	69.281
868.84	80.992
869.01	70.556
869.18	56.250
869.35	74.847
869.52	62.500
869.69	69.231
869.85	73.770
870.02	65.766
870.19	83.688
870.36	63.043
870.53	73.554
870.70	122.500
870.86	85.714
871.03	54.777
871.20	80.198
871.37	96.129
871.54	105.556
871.71	78.488
871.87	47.328
872.04	84.925
872.21	86.127
872.38	94.286
872.55	79.433
872.72	54.589
872.88	61.635
873.05	75.472
873.22	55.952
873.39	65.625
873.56	70.760
873.72	115.126
873.89	80.120
874.06	91.558
874.23	74.684
874.40	95.413
874.56	76.630
874.73	97.458
874.90	64.815
875.07	69.935
875.24	52.047
875.40	94.615
875.57	98.507
875.74	80.769
875.91	76.471
876.08	118.367
876.24	67.273
876.41	86.500
876.58	67.836
876.75	54.264
876.92	57.764
877.08	90.643
877.25	70.000
877.42	71.812
877.59	100.602
877.75	84.492
877.92	59.504
878.09	62.400
878.26	79.231
878.42	88.312
878.59	83.708
878.76	60.227
878.93	74.138
879.09	81.356
879.26	47.552
879.43	82.090
879.60	74.257
879.76	57.732
879.93	62.353
880.10	35.859
880.27	41.702
880.43	37.736
880.60	56.439
880.77	41.014
880.94	52.318
881.10	37.458
881.27	33.623
881.44	35.338
881.61	38.095
881.77	39.721
881.94	25.405
882.11	24.074
882.28	28.430
882.44	27.720
882.61	30.119
882.78	32.684
882.94	41.432
883.11	32.017
883.28	32.780
883.45	29.990
883.61	27.473
883.78	20.265
883.95	34.637
884.11	33.224
884.28	29.312
>>>>>End Processed Spectral Data<<<<<
