SpectraSuite Data File
++++++++++++++++++++++++++++++++++++
Date: Sun Sep 22 03:18:48 EST 2019
User: sgrac
Dark Spectrum Present: Yes
Reference Spectrum Present: Yes
Number of Sampled Component Spectra: 1
Spectrometers: USB4E01596
Integration Time (usec): 100000 (USB4E01596)
Spectra Averaged: 1 (USB4E01596)
Boxcar Smoothing: 0 (USB4E01596)
Correct for Electrical Dark: No (USB4E01596)
Strobe/Lamp Enabled: Yes (USB4E01596)
Correct for Detector Non-linearity: No (USB4E01596)
Correct for Stray Light: No (USB4E01596)
Number of Pixels in Processed Spectrum: 3648
>>>>>Begin Processed Spectral Data<<<<<
178.44	592.857
178.66	592.857
178.87	592.857
179.09	-111.111
179.30	-233.333
179.52	229.032
179.74	9800.000
179.95	1133.333
180.17	10500.000
180.38	281.481
180.60	-625.000
180.82	2475.000
181.03	-150.000
181.25	495.652
181.46	-244.643
181.68	-405.000
181.89	388.235
182.11	523.810
182.33	1414.286
182.54	296.552
182.76	527.273
182.97	-592.857
183.19	282.051
183.40	-261.905
183.62	200.000
183.84	245.714
184.05	10600.000
184.27	235.000
184.48	217.021
184.70	432.143
184.91	633.333
185.13	-7650.000
185.34	921.429
185.56	-500.000
185.78	333.333
185.99	323.529
186.21	228.261
186.42	2650.000
186.64	93.421
186.85	-491.667
187.07	415.625
187.28	-1750.000
187.50	914.286
187.72	972.727
187.93	-456.250
188.15	436.364
188.36	332.432
188.58	149.231
188.79	380.645
189.01	492.308
189.22	-1070.000
189.44	147.945
189.65	1900.000
189.87	2080.000
190.09	0.000
190.30	925.000
190.52	-215.385
190.73	734.783
190.95	378.571
191.16	610.000
191.38	-1000.000
191.59	10200.000
191.81	200.000
192.02	806.667
192.24	-5300.000
192.45	-560.000
192.67	235.417
192.88	192.424
193.10	10400.000
193.31	-807.143
193.53	1380.000
193.74	164.103
193.96	238.776
194.18	210.526
194.39	-2083.333
194.61	583.333
194.82	221.818
195.04	971.429
195.25	580.000
195.47	-452.941
195.68	-289.286
195.90	234.375
196.11	807.692
196.33	257.407
196.54	412.121
196.76	1150.000
196.97	-437.500
197.19	764.286
197.40	421.212
197.62	248.485
197.83	-1437.500
198.05	1900.000
198.26	192.537
198.48	633.333
198.69	-318.182
198.91	-2000.000
199.12	362.857
199.34	203.704
199.55	594.737
199.77	-531.579
199.98	-730.769
200.20	317.778
200.41	244.737
200.63	251.020
200.84	-1312.500
201.06	2180.000
201.27	450.000
201.49	-1257.143
201.70	0.000
201.91	650.000
202.13	202.083
202.34	229.630
202.56	1018.182
202.77	255.172
202.99	-866.667
203.20	-800.000
203.42	171.053
203.63	300.000
203.85	205.660
204.06	730.769
204.28	560.000
204.49	-7000.000
204.71	332.432
204.92	333.333
205.14	445.455
205.35	480.952
205.56	224.490
205.78	1130.000
205.99	8600.000
206.21	641.176
206.42	208.333
206.64	3600.000
206.85	250.000
207.07	165.000
207.28	193.443
207.50	310.714
207.71	360.000
207.93	447.826
208.14	-940.000
208.35	-1733.333
208.57	800.000
208.78	258.696
209.00	186.364
209.21	312.121
209.43	137.681
209.64	1587.500
209.86	203.030
210.07	307.692
210.28	466.667
210.50	280.000
210.71	257.447
210.93	625.000
211.14	-11300.000
211.36	300.000
211.57	-9600.000
211.78	-2675.000
212.00	336.842
212.21	910.000
212.43	270.213
212.64	772.727
212.86	355.172
213.07	-3025.000
213.29	275.000
213.50	-521.053
213.71	216.393
213.93	1170.000
214.14	950.000
214.36	807.692
214.57	486.364
214.78	203.896
215.00	214.286
215.21	383.333
215.43	416.000
215.64	-4400.000
215.86	608.333
216.07	-730.769
216.28	980.000
216.50	-311.538
216.71	1820.000
216.93	700.000
217.14	-480.952
217.35	192.187
217.57	766.667
217.78	611.765
218.00	2000.000
218.21	162.264
218.42	1311.111
218.64	3266.667
218.85	1816.667
219.07	-944.444
219.28	-344.444
219.49	333.333
219.71	282.222
219.92	351.282
220.14	408.696
220.35	4100.000
220.56	171.930
220.78	223.333
220.99	-1083.333
221.21	0.000
221.42	251.724
221.63	709.091
221.85	154.237
222.06	234.694
222.28	296.552
222.49	373.077
222.70	1200.000
222.92	238.000
223.13	205.000
223.34	-791.667
223.56	132.468
223.77	129.787
223.99	975.000
224.20	187.805
224.41	329.545
224.63	132.000
224.84	313.793
225.05	193.651
225.27	155.072
225.48	254.000
225.69	266.667
225.91	88.889
226.12	197.183
226.34	79.612
226.55	101.449
226.76	147.368
226.98	172.368
227.19	129.032
227.40	312.500
227.62	94.000
227.83	86.486
228.04	128.866
228.26	91.736
228.47	125.610
228.69	65.089
228.90	40.000
229.11	44.351
229.33	42.017
229.54	37.102
229.75	42.164
229.97	34.835
230.18	31.025
230.39	31.818
230.61	31.464
230.82	39.645
231.03	7.362
231.25	39.024
231.46	46.278
231.67	29.221
231.89	35.926
232.10	41.418
232.31	18.644
232.53	45.726
232.74	37.083
232.95	30.049
233.17	39.453
233.38	49.171
233.59	52.308
233.81	48.000
234.02	50.000
234.23	42.202
234.45	64.171
234.66	26.168
234.87	60.731
235.09	55.779
235.30	44.390
235.51	47.845
235.73	40.385
235.94	43.781
236.15	59.036
236.36	56.506
236.58	32.734
236.79	46.124
237.00	49.470
237.22	41.830
237.43	41.593
237.64	34.513
237.86	39.381
238.07	53.169
238.28	54.378
238.50	48.375
238.71	31.148
238.92	53.310
239.13	43.825
239.35	41.754
239.56	51.261
239.77	48.485
239.99	35.185
240.20	25.872
240.41	32.018
240.63	33.728
240.84	45.536
241.05	25.378
241.26	23.714
241.48	23.558
241.69	29.252
241.90	20.903
242.12	20.421
242.33	12.138
242.54	22.735
242.75	17.172
242.97	14.876
243.18	17.281
243.39	12.759
243.61	14.764
243.82	17.464
244.03	16.704
244.24	11.986
244.46	18.122
244.67	15.019
244.88	14.208
245.09	17.978
245.31	15.886
245.52	17.028
245.73	20.755
245.95	25.665
246.16	20.405
246.37	11.859
246.58	15.592
246.80	16.826
247.01	13.182
247.22	10.309
247.43	7.642
247.65	8.388
247.86	9.845
248.07	8.970
248.28	7.572
248.50	6.968
248.71	8.374
248.92	6.892
249.13	8.879
249.35	7.336
249.56	7.293
249.77	9.417
249.98	10.609
250.20	8.534
250.41	13.543
250.62	15.499
250.83	13.243
251.05	18.306
251.26	17.697
251.47	21.778
251.68	17.928
251.90	12.104
252.11	17.798
252.32	18.276
252.53	16.740
252.75	13.324
252.96	15.072
253.17	7.711
253.38	10.820
253.59	5.667
253.81	11.054
254.02	13.626
254.23	10.686
254.44	14.484
254.66	9.944
254.87	13.090
255.08	16.268
255.29	18.165
255.50	21.747
255.72	19.882
255.93	25.093
256.14	11.538
256.35	20.939
256.57	25.502
256.78	12.793
256.99	14.151
257.20	26.824
257.41	25.536
257.63	12.816
257.84	20.593
258.05	20.000
258.26	15.994
258.47	14.815
258.69	8.762
258.90	8.575
259.11	10.539
259.32	12.854
259.53	7.393
259.75	12.116
259.96	5.982
260.17	7.383
260.38	9.387
260.59	6.423
260.81	7.814
261.02	7.903
261.23	6.722
261.44	6.187
261.65	3.406
261.87	5.266
262.08	4.709
262.29	6.776
262.50	5.223
262.71	9.906
262.92	10.276
263.14	5.805
263.35	11.292
263.56	9.644
263.77	8.454
263.98	14.301
264.20	12.961
264.41	9.691
264.62	16.198
264.83	15.148
265.04	16.520
265.25	14.232
265.47	8.607
265.68	9.767
265.89	10.845
266.10	13.371
266.31	13.676
266.52	16.528
266.74	10.689
266.95	10.556
267.16	12.394
267.37	10.417
267.58	13.002
267.79	9.651
268.01	9.208
268.22	10.026
268.43	7.105
268.64	8.676
268.85	10.668
269.06	11.967
269.27	8.391
269.49	5.443
269.70	7.507
269.91	7.951
270.12	10.504
270.33	12.165
270.54	9.545
270.75	10.066
270.97	11.951
271.18	7.149
271.39	8.588
271.60	5.990
271.81	9.768
272.02	8.840
272.23	8.017
272.45	9.136
272.66	4.285
272.87	7.961
273.08	6.590
273.29	7.592
273.50	6.595
273.71	6.766
273.92	4.765
274.14	6.216
274.35	3.669
274.56	8.085
274.77	5.642
274.98	5.579
275.19	7.596
275.40	7.154
275.61	7.467
275.83	9.098
276.04	9.353
276.25	9.076
276.46	8.434
276.67	9.040
276.88	5.349
277.09	11.102
277.30	7.774
277.51	9.190
277.73	14.895
277.94	9.296
278.15	9.461
278.36	8.655
278.57	8.089
278.78	8.033
278.99	7.653
279.20	11.622
279.41	11.007
279.62	5.950
279.84	9.167
280.05	10.101
280.26	10.381
280.47	7.538
280.68	13.360
280.89	12.572
281.10	9.128
281.31	11.094
281.52	8.993
281.73	6.937
281.94	6.948
282.16	6.764
282.37	9.736
282.58	3.972
282.79	8.805
283.00	10.728
283.21	7.392
283.42	7.069
283.63	7.764
283.84	6.586
284.05	9.057
284.26	7.296
284.47	6.030
284.68	7.138
284.89	9.062
285.11	7.037
285.32	7.721
285.53	7.526
285.74	4.112
285.95	6.792
286.16	5.636
286.37	5.092
286.58	5.241
286.79	2.521
287.00	6.308
287.21	4.218
287.42	5.981
287.63	4.926
287.84	5.855
288.05	6.904
288.26	5.287
288.48	8.275
288.69	7.343
288.90	5.266
289.11	5.934
289.32	9.689
289.53	6.746
289.74	5.552
289.95	3.657
290.16	4.157
290.37	8.269
290.58	6.174
290.79	5.441
291.00	3.781
291.21	4.899
291.42	6.637
291.63	6.789
291.84	6.283
292.05	2.754
292.26	5.095
292.47	7.147
292.68	7.525
292.89	7.624
293.10	7.384
293.31	7.172
293.52	7.278
293.73	7.532
293.94	5.348
294.15	10.302
294.36	6.629
294.57	8.717
294.79	7.213
295.00	5.767
295.21	8.031
295.42	6.805
295.63	5.950
295.84	5.373
296.05	8.895
296.26	5.148
296.47	4.879
296.68	4.196
296.89	5.015
297.10	6.679
297.31	7.314
297.52	3.053
297.73	5.779
297.94	4.246
298.15	3.309
298.36	4.355
298.57	3.859
298.78	3.520
298.99	4.782
299.20	4.575
299.41	4.860
299.62	3.985
299.83	4.396
300.04	4.665
300.25	5.604
300.46	3.831
300.67	6.067
300.88	5.277
301.09	5.879
301.30	7.797
301.50	5.204
301.71	5.398
301.92	7.376
302.13	4.233
302.34	7.666
302.55	4.897
302.76	5.531
302.97	5.300
303.18	5.796
303.39	5.686
303.60	4.559
303.81	3.578
304.02	6.098
304.23	4.926
304.44	4.644
304.65	5.980
304.86	6.985
305.07	5.283
305.28	4.692
305.49	6.952
305.70	6.914
305.91	6.854
306.12	4.935
306.33	6.580
306.54	6.693
306.75	3.390
306.96	8.433
307.17	6.059
307.38	7.007
307.58	6.619
307.79	7.260
308.00	4.462
308.21	8.696
308.42	7.117
308.63	5.907
308.84	6.286
309.05	8.177
309.26	4.501
309.47	3.693
309.68	6.059
309.89	7.574
310.10	5.326
310.31	4.874
310.52	4.976
310.73	7.010
310.94	2.808
311.14	4.431
311.35	3.172
311.56	6.892
311.77	6.106
311.98	2.557
312.19	4.673
312.40	3.862
312.61	3.848
312.82	5.265
313.03	5.910
313.24	6.481
313.45	4.562
313.66	4.762
313.86	4.203
314.07	6.083
314.28	5.528
314.49	7.214
314.70	4.850
314.91	5.219
315.12	4.997
315.33	4.783
315.54	5.248
315.75	4.675
315.96	2.931
316.16	5.444
316.37	8.797
316.58	5.404
316.79	6.773
317.00	4.968
317.21	6.049
317.42	9.841
317.63	4.148
317.84	4.727
318.05	6.875
318.25	8.140
318.46	6.278
318.67	8.154
318.88	6.411
319.09	4.698
319.30	4.167
319.51	8.210
319.72	4.647
319.93	6.914
320.13	7.299
320.34	6.546
320.55	5.456
320.76	9.329
320.97	3.505
321.18	7.607
321.39	4.808
321.60	5.058
321.80	4.827
322.01	5.127
322.22	7.130
322.43	6.683
322.64	6.757
322.85	6.489
323.06	5.808
323.27	5.199
323.47	9.618
323.68	5.341
323.89	5.752
324.10	5.579
324.31	4.961
324.52	7.242
324.73	6.270
324.93	4.133
325.14	5.790
325.35	7.576
325.56	5.027
325.77	7.074
325.98	5.026
326.19	3.015
326.39	5.478
326.60	6.930
326.81	3.568
327.02	5.286
327.23	3.731
327.44	4.375
327.64	5.276
327.85	2.107
328.06	5.597
328.27	7.227
328.48	6.623
328.69	4.922
328.90	2.789
329.10	3.012
329.31	5.867
329.52	5.710
329.73	5.260
329.94	5.790
330.15	6.198
330.35	5.621
330.56	6.247
330.77	4.668
330.98	8.041
331.19	6.025
331.39	7.051
331.60	7.192
331.81	4.953
332.02	5.371
332.23	7.697
332.44	3.330
332.64	4.378
332.85	5.260
333.06	4.786
333.27	6.645
333.48	6.524
333.68	7.076
333.89	2.700
334.10	4.569
334.31	8.746
334.52	4.480
334.72	5.609
334.93	5.434
335.14	6.091
335.35	5.558
335.56	4.745
335.76	3.404
335.97	5.504
336.18	5.480
336.39	4.365
336.60	4.907
336.80	5.233
337.01	4.615
337.22	4.500
337.43	5.505
337.64	3.812
337.84	4.562
338.05	5.074
338.26	7.501
338.47	5.080
338.68	6.804
338.88	5.522
339.09	2.515
339.30	4.026
339.51	5.310
339.71	4.125
339.92	6.567
340.13	6.361
340.34	5.540
340.55	3.203
340.75	4.618
340.96	3.584
341.17	5.445
341.38	4.798
341.58	7.160
341.79	2.650
342.00	5.509
342.21	6.077
342.41	3.912
342.62	4.693
342.83	3.508
343.04	3.689
343.24	5.680
343.45	3.896
343.66	4.033
343.87	6.550
344.07	3.834
344.28	3.345
344.49	4.777
344.70	4.770
344.90	3.680
345.11	4.473
345.32	5.651
345.53	4.227
345.73	5.639
345.94	4.745
346.15	5.412
346.36	4.078
346.56	5.449
346.77	4.061
346.98	6.174
347.19	7.196
347.39	3.586
347.60	3.845
347.81	4.158
348.02	5.374
348.22	4.431
348.43	3.374
348.64	3.150
348.84	4.335
349.05	3.355
349.26	4.862
349.47	6.612
349.67	4.737
349.88	2.899
350.09	3.940
350.30	6.200
350.50	5.731
350.71	3.046
350.92	4.561
351.12	4.545
351.33	3.861
351.54	5.794
351.74	4.697
351.95	3.922
352.16	4.350
352.37	5.669
352.57	5.019
352.78	3.853
352.99	4.607
353.19	4.850
353.40	4.095
353.61	6.744
353.82	7.545
354.02	4.471
354.23	3.681
354.44	5.263
354.64	5.904
354.85	4.209
355.06	4.893
355.26	4.962
355.47	5.646
355.68	4.500
355.88	4.564
356.09	5.277
356.30	4.165
356.51	3.545
356.71	3.697
356.92	3.128
357.13	4.531
357.33	3.994
357.54	4.593
357.75	2.941
357.95	3.273
358.16	3.755
358.37	5.139
358.57	3.105
358.78	3.329
358.99	2.666
359.19	5.135
359.40	3.384
359.61	4.733
359.81	4.269
360.02	4.631
360.23	4.426
360.43	4.052
360.64	3.489
360.85	3.525
361.05	2.204
361.26	4.222
361.47	2.903
361.67	4.495
361.88	2.391
362.09	2.867
362.29	2.529
362.50	1.353
362.70	2.319
362.91	3.425
363.12	3.664
363.32	3.106
363.53	3.415
363.74	3.442
363.94	3.158
364.15	3.763
364.36	3.788
364.56	2.806
364.77	4.219
364.98	4.401
365.18	4.253
365.39	4.449
365.59	1.857
365.80	3.587
366.01	4.432
366.21	2.521
366.42	4.261
366.63	3.833
366.83	4.206
367.04	3.463
367.24	3.747
367.45	3.150
367.66	2.919
367.86	4.888
368.07	3.942
368.28	3.282
368.48	2.961
368.69	3.261
368.89	3.129
369.10	3.519
369.31	2.966
369.51	4.168
369.72	5.177
369.92	3.178
370.13	4.061
370.34	5.226
370.54	2.117
370.75	4.511
370.95	4.165
371.16	4.700
371.37	2.947
371.57	2.937
371.78	2.956
371.98	2.594
372.19	4.270
372.40	3.884
372.60	2.553
372.81	2.600
373.01	2.962
373.22	3.383
373.43	3.394
373.63	2.318
373.84	2.461
374.04	2.518
374.25	4.057
374.46	4.611
374.66	4.823
374.87	4.205
375.07	3.156
375.28	4.159
375.48	4.854
375.69	4.696
375.90	1.512
376.10	2.881
376.31	2.872
376.51	4.061
376.72	4.463
376.92	3.227
377.13	4.136
377.34	3.786
377.54	2.878
377.75	3.190
377.95	2.649
378.16	4.133
378.36	3.845
378.57	3.900
378.77	3.746
378.98	3.348
379.19	3.403
379.39	3.847
379.60	3.277
379.80	3.417
380.01	3.893
380.21	3.684
380.42	3.955
380.62	4.482
380.83	4.065
381.04	3.452
381.24	5.598
381.45	4.112
381.65	3.212
381.86	4.008
382.06	3.156
382.27	2.517
382.47	3.242
382.68	5.095
382.88	3.797
383.09	3.191
383.29	3.735
383.50	3.794
383.71	4.661
383.91	3.661
384.12	3.862
384.32	4.696
384.53	3.862
384.73	2.711
384.94	2.981
385.14	2.669
385.35	1.917
385.55	3.457
385.76	2.944
385.96	3.536
386.17	5.185
386.37	4.347
386.58	3.821
386.78	4.312
386.99	3.241
387.19	5.356
387.40	2.956
387.60	5.611
387.81	3.996
388.01	4.337
388.22	5.291
388.42	5.475
388.63	5.352
388.83	5.491
389.04	2.832
389.24	5.274
389.45	4.120
389.65	4.325
389.86	4.573
390.06	4.617
390.27	4.363
390.47	5.315
390.68	3.759
390.88	6.156
391.09	6.511
391.29	7.516
391.50	5.846
391.70	6.084
391.91	5.308
392.11	5.463
392.32	6.834
392.52	6.786
392.73	6.751
392.93	7.009
393.14	6.032
393.34	6.831
393.55	7.528
393.75	6.930
393.95	7.763
394.16	8.696
394.36	8.606
394.57	9.366
394.77	7.841
394.98	7.950
395.18	9.383
395.39	8.696
395.59	8.820
395.80	7.844
396.00	8.765
396.21	10.290
396.41	7.527
396.61	10.149
396.82	9.364
397.02	12.262
397.23	10.386
397.43	10.449
397.64	7.072
397.84	11.713
398.05	7.196
398.25	10.599
398.45	9.036
398.66	11.262
398.86	10.264
399.07	12.907
399.27	9.019
399.48	11.056
399.68	9.400
399.89	11.161
400.09	11.960
400.29	10.530
400.50	10.539
400.70	12.462
400.91	10.247
401.11	11.116
401.32	10.251
401.52	10.983
401.72	11.015
401.93	13.916
402.13	10.750
402.34	11.746
402.54	10.369
402.75	15.353
402.95	9.047
403.15	13.973
403.36	10.323
403.56	12.608
403.77	10.267
403.97	12.989
404.17	10.210
404.38	13.754
404.58	10.218
404.79	12.341
404.99	12.059
405.19	12.656
405.40	12.498
405.60	14.205
405.81	12.302
406.01	13.831
406.21	11.591
406.42	13.298
406.62	12.959
406.83	12.998
407.03	14.728
407.23	11.843
407.44	10.923
407.64	13.384
407.85	13.018
408.05	13.569
408.25	11.502
408.46	14.235
408.66	12.683
408.87	12.471
409.07	11.412
409.27	12.508
409.48	10.840
409.68	13.608
409.88	10.313
410.09	12.086
410.29	12.948
410.50	14.460
410.70	9.746
410.90	12.529
411.11	11.310
411.31	13.231
411.51	12.942
411.72	13.984
411.92	11.727
412.12	11.883
412.33	10.877
412.53	12.095
412.74	9.166
412.94	12.643
413.14	12.034
413.35	13.239
413.55	12.013
413.75	14.739
413.96	10.706
414.16	11.853
414.36	11.529
414.57	13.462
414.77	11.207
414.97	12.339
415.18	10.371
415.38	11.690
415.58	12.034
415.79	11.164
415.99	11.531
416.19	13.401
416.40	11.838
416.60	11.854
416.80	11.521
417.01	13.204
417.21	10.144
417.41	14.067
417.62	13.035
417.82	14.452
418.02	11.970
418.23	14.092
418.43	12.253
418.63	15.031
418.84	13.426
419.04	13.638
419.24	14.306
419.45	15.433
419.65	15.008
419.85	14.496
420.06	13.780
420.26	14.685
420.46	14.140
420.67	14.927
420.87	14.227
421.07	15.546
421.28	13.810
421.48	14.826
421.68	14.080
421.88	14.108
422.09	14.086
422.29	15.059
422.49	14.568
422.70	15.225
422.90	14.406
423.10	14.741
423.31	14.761
423.51	15.353
423.71	14.793
423.91	14.815
424.12	14.414
424.32	15.310
424.52	13.936
424.73	14.580
424.93	14.080
425.13	14.255
425.33	14.476
425.54	14.062
425.74	14.407
425.94	14.681
426.15	14.232
426.35	14.222
426.55	14.421
426.75	14.350
426.96	14.619
427.16	14.878
427.36	14.587
427.57	14.215
427.77	13.131
427.97	14.279
428.17	14.069
428.38	14.178
428.58	12.337
428.78	13.373
428.98	12.620
429.19	13.384
429.39	11.362
429.59	12.751
429.79	11.130
430.00	12.294
430.20	10.843
430.40	13.500
430.60	11.742
430.81	12.993
431.01	11.030
431.21	12.568
431.41	11.326
431.62	12.502
431.82	10.681
432.02	13.895
432.22	11.421
432.43	12.088
432.63	11.339
432.83	12.915
433.03	12.209
433.24	12.337
433.44	11.978
433.64	13.118
433.84	12.744
434.05	13.873
434.25	12.910
434.45	13.494
434.65	13.126
434.85	14.055
435.06	13.531
435.26	13.327
435.46	13.255
435.66	14.268
435.87	13.047
436.07	13.573
436.27	12.893
436.47	13.128
436.67	10.867
436.88	13.881
437.08	13.135
437.28	13.172
437.48	12.295
437.69	13.801
437.89	11.878
438.09	14.664
438.29	12.207
438.49	13.604
438.70	12.560
438.90	13.234
439.10	13.126
439.30	12.678
439.50	12.401
439.71	13.094
439.91	12.548
440.11	14.325
440.31	13.036
440.51	13.558
440.72	13.340
440.92	13.799
441.12	12.782
441.32	13.884
441.52	14.008
441.72	13.533
441.93	13.813
442.13	13.527
442.33	13.470
442.53	13.948
442.73	13.273
442.94	14.414
443.14	13.341
443.34	13.975
443.54	13.231
443.74	13.914
443.94	12.929
444.15	13.079
444.35	12.601
444.55	14.383
444.75	12.648
444.95	13.502
445.15	12.752
445.36	13.463
445.56	12.440
445.76	13.276
445.96	13.045
446.16	13.024
446.36	12.997
446.57	13.786
446.77	12.657
446.97	13.431
447.17	13.572
447.37	13.838
447.57	13.873
447.77	13.529
447.98	13.514
448.18	13.796
448.38	13.879
448.58	13.730
448.78	13.607
448.98	14.534
449.18	13.232
449.39	14.490
449.59	14.151
449.79	13.630
449.99	12.714
450.19	14.371
450.39	13.776
450.59	13.981
450.79	13.229
451.00	13.843
451.20	14.365
451.40	13.221
451.60	12.800
451.80	13.170
452.00	12.693
452.20	13.742
452.40	12.582
452.61	13.172
452.81	12.160
453.01	13.294
453.21	12.071
453.41	13.109
453.61	12.397
453.81	12.306
454.01	12.395
454.21	13.881
454.42	13.637
454.62	13.625
454.82	11.532
455.02	13.654
455.22	11.551
455.42	13.225
455.62	12.169
455.82	13.253
456.02	11.818
456.23	13.247
456.43	12.459
456.63	12.933
456.83	11.126
457.03	13.240
457.23	12.443
457.43	13.263
457.63	10.834
457.83	11.759
458.03	11.050
458.23	13.045
458.43	11.137
458.64	12.551
458.84	11.573
459.04	12.592
459.24	12.740
459.44	12.912
459.64	12.652
459.84	13.395
460.04	13.059
460.24	13.300
460.44	12.477
460.64	13.926
460.84	13.141
461.04	13.149
461.24	13.847
461.45	13.564
461.65	13.765
461.85	14.121
462.05	13.732
462.25	13.732
462.45	13.065
462.65	14.173
462.85	13.275
463.05	13.793
463.25	12.499
463.45	13.117
463.65	12.895
463.85	13.121
464.05	12.448
464.25	12.746
464.45	12.931
464.65	12.293
464.85	11.400
465.05	12.659
465.26	12.821
465.46	13.192
465.66	12.276
465.86	13.573
466.06	11.651
466.26	12.923
466.46	11.810
466.66	12.981
466.86	12.231
467.06	12.852
467.26	12.434
467.46	12.927
467.66	12.841
467.86	13.167
468.06	12.620
468.26	13.093
468.46	12.582
468.66	12.385
468.86	11.498
469.06	13.634
469.26	12.372
469.46	12.350
469.66	11.501
469.86	13.745
470.06	12.923
470.26	13.202
470.46	11.742
470.66	13.601
470.86	12.042
471.06	13.082
471.26	11.826
471.46	12.530
471.66	12.447
471.86	13.272
472.06	12.846
472.26	13.590
472.46	13.791
472.66	13.383
472.86	12.394
473.06	12.652
473.26	12.779
473.46	12.916
473.66	13.107
473.86	13.625
474.06	12.686
474.26	13.438
474.46	11.556
474.66	13.066
474.86	13.064
475.06	13.921
475.26	11.776
475.46	14.114
475.66	11.278
475.86	13.605
476.06	14.175
476.26	13.503
476.46	13.456
476.66	13.404
476.86	12.579
477.06	13.025
477.26	12.330
477.46	13.986
477.65	12.861
477.85	13.203
478.05	12.726
478.25	13.859
478.45	13.048
478.65	13.294
478.85	13.726
479.05	14.333
479.25	13.375
479.45	14.386
479.65	13.253
479.85	14.102
480.05	12.992
480.25	14.699
480.45	13.974
480.65	14.306
480.85	14.371
481.05	15.119
481.25	14.405
481.44	14.703
481.64	13.130
481.84	14.435
482.04	13.732
482.24	15.074
482.44	13.660
482.64	13.978
482.84	13.593
483.04	13.941
483.24	13.506
483.44	13.663
483.64	13.495
483.84	13.528
484.04	13.921
484.23	13.613
484.43	14.276
484.63	15.087
484.83	16.224
485.03	16.542
485.23	16.977
485.43	16.441
485.63	16.330
485.83	15.370
486.03	15.245
486.23	15.081
486.42	15.365
486.62	15.262
486.82	14.509
487.02	14.661
487.22	14.804
487.42	14.624
487.62	14.000
487.82	14.480
488.02	14.106
488.22	14.306
488.41	14.290
488.61	14.417
488.81	14.872
489.01	14.823
489.21	15.205
489.41	15.085
489.61	14.994
489.81	15.371
490.01	14.873
490.20	15.307
490.40	15.386
490.60	14.976
490.80	15.012
491.00	14.853
491.20	14.871
491.40	14.514
491.60	13.970
491.79	13.868
491.99	13.887
492.19	14.332
492.39	14.253
492.59	14.449
492.79	14.968
492.99	14.253
493.19	14.729
493.38	15.035
493.58	15.189
493.78	15.318
493.98	15.461
494.18	15.428
494.38	15.026
494.58	15.388
494.77	14.794
494.97	15.180
495.17	15.097
495.37	14.884
495.57	14.679
495.77	14.845
495.96	15.153
496.16	15.190
496.36	14.987
496.56	15.218
496.76	14.010
496.96	14.816
497.15	15.110
497.35	15.194
497.55	15.020
497.75	14.526
497.95	15.068
498.15	15.173
498.34	15.103
498.54	15.246
498.74	15.449
498.94	15.402
499.14	15.012
499.34	15.699
499.53	15.203
499.73	15.710
499.93	14.840
500.13	15.142
500.33	14.608
500.52	15.465
500.72	15.458
500.92	15.773
501.12	14.521
501.32	15.071
501.52	15.023
501.71	15.562
501.91	14.373
502.11	15.330
502.31	15.278
502.51	15.588
502.70	14.870
502.90	15.560
503.10	14.944
503.30	15.239
503.50	15.380
503.69	15.701
503.89	15.416
504.09	15.277
504.29	15.056
504.48	15.237
504.68	15.241
504.88	16.362
505.08	14.913
505.28	15.681
505.47	15.795
505.67	16.019
505.87	16.016
506.07	16.313
506.27	16.520
506.46	15.899
506.66	16.000
506.86	15.822
507.06	16.261
507.25	16.139
507.45	16.188
507.65	16.266
507.85	16.044
508.04	16.577
508.24	16.383
508.44	16.759
508.64	16.371
508.83	16.148
509.03	16.461
509.23	16.352
509.43	16.601
509.63	16.660
509.82	16.560
510.02	16.822
510.22	16.607
510.42	17.416
510.61	16.500
510.81	16.421
511.01	17.089
511.21	16.611
511.40	15.981
511.60	17.591
511.80	17.317
511.99	16.568
512.19	16.863
512.39	17.198
512.59	17.655
512.78	16.460
512.98	17.418
513.18	18.098
513.38	16.970
513.57	17.101
513.77	16.778
513.97	17.919
514.17	16.731
514.36	17.741
514.56	17.377
514.76	17.679
514.95	17.270
515.15	17.765
515.35	17.305
515.55	18.063
515.74	17.639
515.94	17.535
516.14	17.144
516.33	17.538
516.53	17.385
516.73	18.037
516.93	17.265
517.12	17.310
517.32	17.335
517.52	18.153
517.71	17.694
517.91	17.353
518.11	17.500
518.30	17.775
518.50	17.408
518.70	17.474
518.90	17.535
519.09	17.779
519.29	17.868
519.49	17.757
519.68	17.508
519.88	17.775
520.08	17.854
520.27	17.759
520.47	18.141
520.67	18.723
520.86	18.728
521.06	18.029
521.26	18.553
521.45	18.080
521.65	18.627
521.85	18.212
522.04	18.245
522.24	18.679
522.44	18.364
522.63	18.908
522.83	18.220
523.03	17.870
523.22	18.795
523.42	18.843
523.62	18.288
523.81	18.691
524.01	18.309
524.21	17.911
524.40	17.923
524.60	18.826
524.80	18.514
524.99	18.898
525.19	17.908
525.39	17.919
525.58	17.335
525.78	17.606
525.98	17.864
526.17	18.167
526.37	18.296
526.57	18.180
526.76	18.670
526.96	18.503
527.15	18.007
527.35	18.150
527.55	18.080
527.74	18.052
527.94	18.227
528.14	17.748
528.33	17.456
528.53	17.441
528.72	17.840
528.92	17.986
529.12	18.063
529.31	18.404
529.51	18.450
529.71	19.028
529.90	19.219
530.10	18.949
530.29	19.293
530.49	19.563
530.69	19.719
530.88	19.669
531.08	19.733
531.28	19.098
531.47	19.116
531.67	19.476
531.86	19.315
532.06	18.987
532.26	18.809
532.45	18.262
532.65	18.739
532.84	18.153
533.04	18.667
533.24	18.299
533.43	18.201
533.63	18.422
533.82	18.597
534.02	18.580
534.22	19.111
534.41	19.031
534.61	18.921
534.80	19.258
535.00	19.397
535.19	19.963
535.39	20.074
535.59	19.711
535.78	19.400
535.98	19.254
536.17	19.484
536.37	19.231
536.57	18.847
536.76	19.018
536.96	18.820
537.15	19.459
537.35	19.096
537.54	19.453
537.74	19.892
537.93	19.018
538.13	19.200
538.33	20.003
538.52	19.930
538.72	20.148
538.91	19.987
539.11	19.976
539.30	20.153
539.50	20.184
539.70	20.512
539.89	19.987
540.09	19.637
540.28	19.787
540.48	19.376
540.67	19.183
540.87	18.908
541.06	19.065
541.26	18.687
541.45	18.715
541.65	18.997
541.85	19.587
542.04	19.535
542.24	19.870
542.43	19.997
542.63	19.861
542.82	20.014
543.02	20.177
543.21	20.766
543.41	20.548
543.60	20.405
543.80	20.738
543.99	21.079
544.19	20.531
544.38	20.054
544.58	20.375
544.77	20.356
544.97	20.702
545.16	21.110
545.36	20.714
545.56	20.908
545.75	20.454
545.95	20.610
546.14	20.487
546.34	21.464
546.53	20.669
546.73	20.530
546.92	21.098
547.12	20.512
547.31	20.414
547.51	20.457
547.70	21.250
547.90	20.702
548.09	20.680
548.29	21.351
548.48	21.296
548.68	21.777
548.87	21.801
549.07	21.717
549.26	21.833
549.46	21.986
549.65	22.050
549.84	21.969
550.04	22.172
550.23	21.803
550.43	21.794
550.62	22.040
550.82	21.948
551.01	21.265
551.21	22.264
551.40	21.032
551.60	22.034
551.79	22.157
551.99	21.610
552.18	22.440
552.38	22.667
552.57	21.769
552.77	22.355
552.96	21.788
553.16	22.183
553.35	22.640
553.54	22.505
553.74	22.742
553.93	22.232
554.13	22.735
554.32	22.897
554.52	22.643
554.71	22.976
554.91	23.102
555.10	21.891
555.29	22.462
555.49	22.861
555.68	22.497
555.88	23.225
556.07	22.121
556.27	23.227
556.46	23.386
556.66	22.263
556.85	23.276
557.04	23.018
557.24	23.040
557.43	23.233
557.63	23.963
557.82	23.597
558.02	23.575
558.21	23.441
558.40	23.313
558.60	24.400
558.79	24.109
558.99	24.189
559.18	23.387
559.38	24.024
559.57	23.799
559.76	24.001
559.96	25.445
560.15	24.370
560.35	23.520
560.54	24.109
560.73	23.909
560.93	25.288
561.12	24.182
561.32	25.020
561.51	24.288
561.70	24.053
561.90	24.384
562.09	24.626
562.29	24.644
562.48	24.824
562.67	25.268
562.87	24.931
563.06	25.380
563.26	25.410
563.45	25.322
563.64	25.809
563.84	25.447
564.03	25.986
564.23	25.019
564.42	26.600
564.61	25.023
564.81	25.291
565.00	25.506
565.20	26.107
565.39	25.219
565.58	25.369
565.78	25.574
565.97	26.026
566.16	25.664
566.36	26.194
566.55	26.137
566.74	25.574
566.94	26.310
567.13	25.924
567.33	25.961
567.52	25.790
567.71	26.152
567.91	26.389
568.10	27.019
568.29	26.619
568.49	26.808
568.68	26.924
568.87	26.406
569.07	26.358
569.26	26.694
569.45	26.870
569.65	26.209
569.84	26.287
570.04	26.395
570.23	27.173
570.42	25.969
570.62	27.186
570.81	26.809
571.00	26.984
571.20	26.080
571.39	26.933
571.58	27.592
571.78	26.887
571.97	27.529
572.16	26.392
572.36	26.400
572.55	27.168
572.74	27.282
572.94	27.746
573.13	26.733
573.32	26.848
573.51	27.365
573.71	27.372
573.90	26.556
574.09	26.463
574.29	27.048
574.48	27.170
574.67	27.419
574.87	27.970
575.06	26.967
575.25	26.815
575.45	26.979
575.64	26.675
575.83	25.882
576.03	27.202
576.22	26.219
576.41	27.518
576.60	28.406
576.80	27.668
576.99	27.384
577.18	28.191
577.38	27.184
577.57	27.347
577.76	28.016
577.95	26.910
578.15	27.093
578.34	28.212
578.53	28.445
578.73	27.248
578.92	27.359
579.11	27.473
579.30	28.297
579.50	27.818
579.69	27.273
579.88	27.517
580.08	27.787
580.27	28.314
580.46	27.645
580.65	27.523
580.85	26.927
581.04	27.437
581.23	28.031
581.42	27.414
581.62	27.717
581.81	27.005
582.00	26.182
582.19	28.001
582.39	26.744
582.58	27.225
582.77	26.681
582.96	26.862
583.16	26.899
583.35	28.178
583.54	26.216
583.73	27.682
583.93	27.096
584.12	27.012
584.31	27.041
584.50	26.912
584.70	26.222
584.89	26.240
585.08	27.173
585.27	26.355
585.47	26.575
585.66	27.509
585.85	26.220
586.04	27.345
586.24	27.479
586.43	26.934
586.62	25.647
586.81	26.818
587.00	26.282
587.20	25.967
587.39	26.724
587.58	26.031
587.77	26.483
587.97	26.300
588.16	26.723
588.35	26.881
588.54	26.090
588.73	26.556
588.93	26.258
589.12	27.090
589.31	26.340
589.50	25.525
589.69	26.468
589.89	26.436
590.08	26.518
590.27	27.066
590.46	27.157
590.65	26.139
590.85	25.772
591.04	26.818
591.23	27.046
591.42	27.167
591.61	26.736
591.81	26.870
592.00	27.039
592.19	27.041
592.38	26.861
592.57	27.449
592.77	27.267
592.96	26.384
593.15	27.127
593.34	26.702
593.53	27.378
593.72	26.309
593.92	26.146
594.11	27.161
594.30	26.208
594.49	26.605
594.68	26.692
594.87	26.445
595.07	26.477
595.26	26.805
595.45	26.883
595.64	27.313
595.83	27.625
596.02	26.872
596.22	26.383
596.41	26.360
596.60	26.524
596.79	26.753
596.98	27.018
597.17	26.274
597.37	26.652
597.56	26.516
597.75	27.096
597.94	27.483
598.13	26.624
598.32	27.945
598.51	26.713
598.71	27.782
598.90	28.180
599.09	27.752
599.28	28.185
599.47	27.191
599.66	27.499
599.85	26.700
600.05	27.452
600.24	28.914
600.43	26.779
600.62	28.794
600.81	29.088
601.00	27.489
601.19	27.439
601.38	28.707
601.58	28.716
601.77	28.394
601.96	27.323
602.15	28.290
602.34	28.562
602.53	27.533
602.72	27.436
602.91	26.564
603.10	27.964
603.30	27.507
603.49	27.753
603.68	27.621
603.87	27.917
604.06	27.917
604.25	27.832
604.44	27.691
604.63	27.932
604.82	27.981
605.01	26.830
605.21	27.771
605.40	27.487
605.59	28.337
605.78	28.043
605.97	29.152
606.16	28.836
606.35	28.151
606.54	28.250
606.73	28.945
606.92	27.322
607.11	29.049
607.30	28.618
607.50	27.923
607.69	28.073
607.88	28.265
608.07	27.290
608.26	27.825
608.45	28.306
608.64	28.634
608.83	26.543
609.02	28.353
609.21	28.022
609.40	27.987
609.59	27.016
609.78	27.121
609.97	27.324
610.16	27.729
610.35	27.993
610.55	27.159
610.74	26.845
610.93	26.764
611.12	26.691
611.31	28.479
611.50	27.966
611.69	27.277
611.88	27.843
612.07	27.383
612.26	26.312
612.45	29.587
612.64	28.481
612.83	28.681
613.02	26.553
613.21	27.205
613.40	26.946
613.59	27.105
613.78	25.828
613.97	26.955
614.16	27.124
614.35	28.323
614.54	25.735
614.73	26.582
614.92	26.676
615.11	27.815
615.30	26.383
615.49	26.496
615.68	26.161
615.87	27.143
616.07	26.544
616.26	27.506
616.45	26.980
616.64	27.313
616.83	25.569
617.02	26.479
617.21	25.512
617.40	25.533
617.59	25.174
617.78	27.214
617.97	25.107
618.16	24.921
618.35	25.285
618.54	27.418
618.73	25.210
618.92	26.786
619.11	25.343
619.30	25.915
619.49	25.045
619.68	26.294
619.86	25.426
620.05	24.153
620.24	24.995
620.43	25.026
620.62	23.464
620.81	24.291
621.00	24.412
621.19	26.384
621.38	25.517
621.57	25.645
621.76	25.267
621.95	24.783
622.14	23.915
622.33	25.595
622.52	24.290
622.71	25.335
622.90	24.574
623.09	24.259
623.28	23.806
623.47	26.361
623.66	24.137
623.85	26.013
624.04	25.000
624.23	26.157
624.42	24.184
624.61	24.749
624.80	23.140
624.99	25.475
625.18	24.248
625.36	25.136
625.55	24.965
625.74	24.382
625.93	23.392
626.12	24.967
626.31	25.373
626.50	25.981
626.69	24.442
626.88	24.532
627.07	25.747
627.26	24.607
627.45	24.984
627.64	23.891
627.83	25.565
628.02	24.173
628.20	25.393
628.39	25.454
628.58	24.856
628.77	26.340
628.96	24.685
629.15	25.404
629.34	23.479
629.53	25.965
629.72	23.862
629.91	24.116
630.10	23.577
630.29	24.253
630.47	24.839
630.66	25.092
630.85	23.962
631.04	24.516
631.23	24.305
631.42	22.782
631.61	23.327
631.80	25.451
631.99	23.742
632.18	24.208
632.36	22.768
632.55	25.749
632.74	23.212
632.93	24.509
633.12	23.099
633.31	24.332
633.50	23.251
633.69	23.765
633.88	23.169
634.06	25.064
634.25	24.149
634.44	23.672
634.63	23.203
634.82	25.940
635.01	23.324
635.20	24.570
635.39	22.930
635.57	23.273
635.76	24.385
635.95	23.812
636.14	22.605
636.33	24.832
636.52	23.571
636.71	22.445
636.89	22.932
637.08	23.337
637.27	24.556
637.46	24.070
637.65	22.426
637.84	24.410
638.03	23.289
638.21	25.231
638.40	23.016
638.59	24.342
638.78	21.792
638.97	24.329
639.16	24.068
639.34	23.432
639.53	22.925
639.72	24.459
639.91	22.151
640.10	22.485
640.29	22.904
640.47	24.187
640.66	23.598
640.85	25.095
641.04	21.245
641.23	23.357
641.42	23.771
641.60	22.217
641.79	22.783
641.98	23.027
642.17	22.493
642.36	22.203
642.54	21.590
642.73	22.114
642.92	20.603
643.11	24.204
643.30	21.365
643.49	22.262
643.67	20.483
643.86	22.468
644.05	21.027
644.24	24.260
644.43	21.174
644.61	23.338
644.80	20.722
644.99	22.719
645.18	22.075
645.37	25.090
645.55	20.285
645.74	23.327
645.93	21.670
646.12	23.130
646.31	20.464
646.49	22.134
646.68	22.639
646.87	23.456
647.06	21.623
647.24	23.823
647.43	19.462
647.62	23.780
647.81	20.021
648.00	22.746
648.18	20.499
648.37	20.828
648.56	21.274
648.75	21.959
648.93	21.685
649.12	23.755
649.31	21.622
649.50	21.375
649.68	20.685
649.87	23.131
650.06	20.932
650.25	22.216
650.43	19.843
650.62	21.182
650.81	20.306
651.00	22.383
651.18	21.414
651.37	24.510
651.56	20.036
651.75	23.350
651.93	19.326
652.12	25.395
652.31	20.726
652.50	24.031
652.68	23.211
652.87	22.764
653.06	22.055
653.25	22.731
653.43	20.071
653.62	21.740
653.81	22.094
654.00	22.732
654.18	19.952
654.37	23.119
654.56	21.273
654.74	19.539
654.93	20.829
655.12	21.560
655.31	17.152
655.49	21.193
655.68	18.235
655.87	20.824
656.05	17.128
656.24	20.558
656.43	18.370
656.62	20.788
656.80	19.675
656.99	19.663
657.18	17.418
657.36	18.719
657.55	19.589
657.74	20.618
657.93	19.770
658.11	21.728
658.30	18.150
658.49	18.753
658.67	18.820
658.86	18.539
659.05	17.036
659.23	20.267
659.42	18.137
659.61	20.030
659.79	18.498
659.98	19.788
660.17	19.268
660.35	21.089
660.54	19.328
660.73	20.882
660.91	19.361
661.10	21.542
661.29	17.245
661.47	19.400
661.66	17.320
661.85	19.124
662.03	18.715
662.22	16.102
662.41	14.747
662.59	17.152
662.78	16.103
662.97	15.232
663.15	13.716
663.34	14.435
663.53	14.558
663.71	15.618
663.90	13.832
664.09	15.394
664.27	15.472
664.46	15.394
664.65	14.140
664.83	14.728
665.02	12.298
665.21	13.948
665.39	11.783
665.58	14.645
665.77	12.722
665.95	14.016
666.14	11.834
666.32	13.669
666.51	12.546
666.70	12.697
666.88	12.273
667.07	13.165
667.26	9.874
667.44	12.089
667.63	11.707
667.81	9.534
668.00	12.476
668.19	13.936
668.37	10.777
668.56	14.906
668.75	10.395
668.93	14.573
669.12	9.631
669.30	11.970
669.49	9.424
669.68	12.038
669.86	12.965
670.05	11.829
670.23	10.123
670.42	11.108
670.61	12.171
670.79	12.152
670.98	11.827
671.16	14.381
671.35	10.267
671.54	12.156
671.72	10.781
671.91	13.331
672.09	8.085
672.28	14.230
672.46	13.000
672.65	15.545
672.84	12.463
673.02	12.760
673.21	9.241
673.39	10.847
673.58	11.681
673.77	12.942
673.95	11.813
674.14	11.734
674.32	9.776
674.51	16.137
674.69	11.404
674.88	11.987
675.07	11.276
675.25	15.157
675.44	14.291
675.62	13.193
675.81	11.692
675.99	16.880
676.18	12.230
676.36	11.871
676.55	11.967
676.74	15.022
676.92	12.399
677.11	12.010
677.29	12.246
677.48	15.425
677.66	13.568
677.85	12.534
678.03	13.215
678.22	15.509
678.40	12.720
678.59	11.069
678.78	11.538
678.96	12.384
679.15	13.428
679.33	15.563
679.52	14.941
679.70	16.298
679.89	12.590
680.07	14.609
680.26	14.219
680.44	14.869
680.63	15.158
680.81	15.352
681.00	12.483
681.18	14.208
681.37	13.463
681.55	16.622
681.74	15.000
681.92	17.274
682.11	17.061
682.29	15.867
682.48	17.209
682.66	18.147
682.85	14.874
683.03	17.783
683.22	17.613
683.40	17.541
683.59	15.753
683.77	16.833
683.96	12.689
684.14	18.302
684.33	12.832
684.51	21.323
684.70	17.692
684.88	21.250
685.07	16.569
685.25	18.746
685.44	13.899
685.62	20.231
685.81	14.530
685.99	19.943
686.18	15.552
686.36	20.190
686.55	17.277
686.73	19.523
686.92	19.632
687.10	22.324
687.29	20.281
687.47	21.560
687.65	21.167
687.84	20.555
688.02	20.116
688.21	24.096
688.39	18.803
688.58	24.406
688.76	21.290
688.95	23.715
689.13	19.613
689.32	24.635
689.50	22.543
689.68	24.589
689.87	21.374
690.05	23.589
690.24	24.368
690.42	25.657
690.61	25.568
690.79	27.111
690.98	25.730
691.16	27.366
691.34	22.099
691.53	26.183
691.71	24.264
691.90	28.534
692.08	24.623
692.27	29.265
692.45	26.662
692.63	25.109
692.82	27.510
693.00	28.266
693.19	26.066
693.37	28.222
693.56	28.233
693.74	30.470
693.92	27.651
694.11	32.512
694.29	31.650
694.48	30.671
694.66	29.644
694.84	33.499
695.03	28.525
695.21	32.696
695.40	29.518
695.58	30.792
695.76	31.832
695.95	31.534
696.13	33.079
696.32	34.985
696.50	35.871
696.68	32.069
696.87	31.851
697.05	33.904
697.24	32.505
697.42	34.608
697.60	33.909
697.79	35.927
697.97	37.268
698.16	36.156
698.34	34.140
698.52	38.915
698.71	32.547
698.89	37.133
699.07	34.618
699.26	36.304
699.44	35.621
699.63	38.555
699.81	37.072
699.99	37.996
700.18	38.027
700.36	37.462
700.54	37.958
700.73	37.716
700.91	37.166
701.09	37.717
701.28	39.289
701.46	39.177
701.64	36.410
701.83	38.539
702.01	37.303
702.20	38.958
702.38	37.166
702.56	38.405
702.75	38.578
702.93	38.547
703.11	38.803
703.30	41.579
703.48	37.678
703.66	37.963
703.85	37.288
704.03	42.136
704.21	37.214
704.40	43.503
704.58	40.489
704.76	42.036
704.95	35.095
705.13	41.533
705.31	36.630
705.50	41.154
705.68	41.704
705.86	42.905
706.04	37.357
706.23	43.162
706.41	38.424
706.59	43.113
706.78	37.996
706.96	41.627
707.14	43.986
707.33	42.064
707.51	40.865
707.69	42.548
707.88	38.176
708.06	39.404
708.24	39.719
708.42	44.006
708.61	40.705
708.79	43.494
708.97	39.952
709.16	43.202
709.34	44.846
709.52	40.489
709.71	41.500
709.89	43.785
710.07	39.434
710.25	43.923
710.44	41.776
710.62	44.288
710.80	42.184
710.98	43.937
711.17	38.164
711.35	45.081
711.53	41.270
711.72	44.800
711.90	43.401
712.08	44.484
712.26	42.070
712.45	49.672
712.63	43.240
712.81	44.518
712.99	42.257
713.18	44.596
713.36	42.220
713.54	45.296
713.72	42.320
713.91	44.009
714.09	43.634
714.27	45.422
714.45	43.092
714.64	44.651
714.82	39.926
715.00	44.364
715.18	41.081
715.37	44.632
715.55	45.532
715.73	44.320
715.91	41.740
716.10	47.647
716.28	41.141
716.46	41.546
716.64	38.403
716.83	43.507
717.01	41.441
717.19	43.399
717.37	44.479
717.55	44.328
717.74	43.702
717.92	42.674
718.10	36.639
718.28	43.225
718.47	40.356
718.65	43.568
718.83	39.605
719.01	42.274
719.19	43.227
719.38	40.000
719.56	39.716
719.74	41.153
719.92	38.198
720.10	36.720
720.29	38.770
720.47	42.718
720.65	40.126
720.83	43.028
721.01	33.314
721.20	40.550
721.38	39.125
721.56	41.893
721.74	40.818
721.92	41.774
722.11	40.820
722.29	41.844
722.47	41.483
722.65	45.022
722.83	43.643
723.01	43.537
723.20	38.959
723.38	42.960
723.56	40.316
723.74	41.040
723.92	38.150
724.10	41.063
724.29	38.071
724.47	42.326
724.65	38.251
724.83	46.271
725.01	35.110
725.19	44.634
725.38	37.383
725.56	45.483
725.74	44.310
725.92	41.651
726.10	36.756
726.28	39.652
726.46	40.026
726.65	42.112
726.83	36.626
727.01	39.764
727.19	39.609
727.37	39.941
727.55	38.275
727.73	42.815
727.92	42.023
728.10	41.284
728.28	39.271
728.46	41.543
728.64	41.408
728.82	45.633
729.00	40.898
729.19	41.983
729.37	38.828
729.55	43.001
729.73	34.730
729.91	46.265
730.09	40.755
730.27	43.648
730.45	40.022
730.63	44.444
730.82	43.196
731.00	43.436
731.18	37.824
731.36	42.849
731.54	37.713
731.72	40.716
731.90	39.407
732.08	45.880
732.26	43.265
732.45	43.144
732.63	41.289
732.81	44.036
732.99	43.003
733.17	43.182
733.35	41.362
733.53	48.495
733.71	42.873
733.89	46.686
734.07	46.792
734.25	44.358
734.44	43.828
734.62	46.922
734.80	42.221
734.98	49.794
735.16	44.372
735.34	45.177
735.52	44.351
735.70	45.218
735.88	43.774
736.06	45.379
736.24	44.035
736.42	42.372
736.60	47.435
736.78	45.036
736.97	44.120
737.15	49.312
737.33	45.584
737.51	44.429
737.69	42.553
737.87	42.439
738.05	47.063
738.23	43.834
738.41	47.177
738.59	47.389
738.77	43.593
738.95	52.628
739.13	46.453
739.31	48.777
739.49	46.480
739.67	48.313
739.85	42.660
740.03	50.525
740.21	43.680
740.39	48.083
740.57	49.260
740.75	47.555
740.93	45.324
741.11	44.672
741.30	44.729
741.48	46.537
741.66	49.183
741.84	49.008
742.02	43.294
742.20	49.565
742.38	47.578
742.56	51.115
742.74	45.697
742.92	46.651
743.10	41.114
743.28	51.932
743.46	47.861
743.64	49.273
743.82	46.027
744.00	50.968
744.18	48.584
744.36	49.680
744.54	42.857
744.72	52.448
744.90	44.619
745.08	50.927
745.26	43.059
745.44	48.329
745.62	45.774
745.80	47.309
745.98	46.573
746.16	50.656
746.34	45.083
746.52	47.834
746.70	46.120
746.87	51.619
747.05	45.332
747.23	49.599
747.41	44.279
747.59	51.715
747.77	40.576
747.95	48.155
748.13	45.714
748.31	53.008
748.49	44.583
748.67	46.064
748.85	42.520
749.03	54.538
749.21	47.496
749.39	49.787
749.57	40.320
749.75	46.667
749.93	47.469
750.11	48.604
750.29	42.484
750.47	52.530
750.65	50.877
750.83	49.349
751.01	40.083
751.18	53.163
751.36	41.764
751.54	51.082
751.72	49.955
751.90	44.882
752.08	44.425
752.26	47.477
752.44	41.365
752.62	52.433
752.80	45.462
752.98	47.830
753.16	47.271
753.34	51.971
753.52	48.024
753.69	47.466
753.87	48.471
754.05	48.477
754.23	47.885
754.41	44.322
754.59	43.676
754.77	45.568
754.95	46.379
755.13	47.723
755.31	45.932
755.49	47.300
755.66	48.273
755.84	50.832
756.02	41.568
756.20	49.781
756.38	46.339
756.56	51.764
756.74	49.151
756.92	52.894
757.10	46.866
757.28	49.139
757.45	54.472
757.63	47.048
757.81	42.767
757.99	54.291
758.17	45.182
758.35	48.161
758.53	50.249
758.71	53.627
758.88	46.577
759.06	47.110
759.24	42.197
759.42	45.250
759.60	40.368
759.78	38.956
759.96	35.727
760.13	34.833
760.31	34.165
760.49	38.691
760.67	25.534
760.85	34.056
761.03	29.114
761.21	29.798
761.38	23.306
761.56	33.333
761.74	28.905
761.92	36.290
762.10	26.866
762.28	36.656
762.46	25.273
762.63	32.297
762.81	30.070
762.99	32.369
763.17	31.638
763.35	33.003
763.53	30.342
763.70	39.603
763.88	35.553
764.06	37.859
764.24	34.986
764.42	42.300
764.60	35.389
764.77	41.027
764.95	36.349
765.13	42.488
765.31	35.655
765.49	40.808
765.66	37.408
765.84	38.882
766.02	40.335
766.20	41.424
766.38	43.106
766.56	42.125
766.73	37.936
766.91	41.436
767.09	40.280
767.27	40.389
767.45	41.646
767.62	46.222
767.80	36.371
767.98	43.511
768.16	37.250
768.33	45.796
768.51	42.687
768.69	41.550
768.87	37.296
769.05	46.322
769.22	41.426
769.40	47.520
769.58	46.468
769.76	53.653
769.94	44.109
770.11	46.315
770.29	46.846
770.47	41.845
770.65	47.308
770.82	49.890
771.00	47.374
771.18	46.413
771.36	41.968
771.53	45.889
771.71	49.203
771.89	51.079
772.07	44.240
772.25	51.314
772.42	42.428
772.60	57.125
772.78	43.850
772.96	54.051
773.13	51.621
773.31	48.552
773.49	45.421
773.67	44.707
773.84	52.029
774.02	54.167
774.20	45.408
774.37	45.752
774.55	40.431
774.73	46.722
774.91	45.241
775.08	48.418
775.26	45.031
775.44	48.892
775.62	41.667
775.79	47.631
775.97	44.792
776.15	48.193
776.32	47.137
776.50	47.564
776.68	51.111
776.86	54.150
777.03	47.626
777.21	47.299
777.39	41.623
777.56	51.622
777.74	50.794
777.92	48.079
778.10	43.557
778.27	45.703
778.45	50.270
778.63	52.608
778.80	40.879
778.98	48.477
779.16	42.164
779.34	47.891
779.51	47.601
779.69	49.252
779.87	49.038
780.04	49.651
780.22	46.208
780.40	48.276
780.57	46.714
780.75	52.019
780.93	46.434
781.10	49.162
781.28	51.271
781.46	50.369
781.63	48.997
781.81	57.676
781.99	44.294
782.16	43.956
782.34	46.086
782.52	49.566
782.69	43.556
782.87	46.144
783.05	45.101
783.22	49.168
783.40	45.283
783.58	49.926
783.75	44.477
783.93	49.031
784.11	46.082
784.28	48.946
784.46	44.678
784.64	47.903
784.81	41.406
784.99	46.729
785.17	46.034
785.34	46.942
785.52	40.895
785.69	45.291
785.87	41.941
786.05	50.216
786.22	52.331
786.40	55.395
786.58	57.496
786.75	49.573
786.93	41.467
787.11	40.032
787.28	38.719
787.46	54.370
787.63	48.276
787.81	42.222
787.99	44.772
788.16	45.157
788.34	33.824
788.51	42.657
788.69	41.076
788.87	43.166
789.04	40.964
789.22	44.016
789.39	42.169
789.57	41.497
789.75	41.555
789.92	43.941
790.10	34.109
790.27	46.907
790.45	35.955
790.63	44.363
790.80	46.839
790.98	44.118
791.15	48.519
791.33	43.453
791.51	40.735
791.68	48.077
791.86	45.274
792.03	36.817
792.21	31.686
792.39	45.008
792.56	43.084
792.74	45.645
792.91	44.670
793.09	40.064
793.26	42.308
793.44	52.209
793.62	46.064
793.79	40.813
793.97	43.791
794.14	52.632
794.32	43.072
794.49	42.424
794.67	32.702
794.84	37.669
795.02	41.443
795.20	51.396
795.37	39.893
795.55	47.487
795.72	38.651
795.90	43.370
796.07	43.699
796.25	40.954
796.42	39.254
796.60	39.246
796.77	41.653
796.95	42.188
797.13	33.607
797.30	43.446
797.48	40.571
797.65	44.919
797.83	39.882
798.00	40.678
798.18	41.706
798.35	44.088
798.53	37.691
798.70	43.692
798.88	50.087
799.05	43.750
799.23	38.298
799.40	39.546
799.58	45.557
799.75	45.743
799.93	42.685
800.10	38.834
800.28	37.521
800.45	43.025
800.63	37.379
800.80	38.685
800.98	40.840
801.15	43.636
801.33	37.241
801.50	45.349
801.68	45.329
801.85	42.014
802.03	44.928
802.20	51.111
802.38	35.652
802.55	37.296
802.73	41.208
802.90	34.806
803.08	38.879
803.25	45.403
803.43	46.542
803.60	46.069
803.78	40.536
803.95	40.620
804.13	44.463
804.30	41.098
804.48	33.962
804.65	44.488
804.83	35.478
805.00	41.012
805.17	38.320
805.35	41.346
805.52	50.717
805.70	43.440
805.87	44.542
806.05	39.304
806.22	34.411
806.40	41.621
806.57	34.879
806.75	47.761
806.92	42.647
807.09	38.153
807.27	50.954
807.44	48.162
807.62	44.551
807.79	37.347
807.97	40.265
808.14	42.783
808.31	43.893
808.49	45.833
808.66	37.388
808.84	37.838
809.01	34.911
809.19	41.107
809.36	50.928
809.53	44.722
809.71	40.198
809.88	46.568
810.06	46.568
810.23	40.249
810.41	52.391
810.58	48.560
810.75	27.821
810.93	43.946
811.10	44.234
811.28	52.571
811.45	32.922
811.62	42.263
811.80	41.892
811.97	42.825
812.15	53.930
812.32	40.171
812.49	39.540
812.67	33.401
812.84	27.731
813.02	48.780
813.19	33.459
813.36	43.973
813.54	44.543
813.71	41.627
813.89	45.175
814.06	43.197
814.23	51.876
814.41	36.889
814.58	42.616
814.75	43.237
814.93	37.500
815.10	44.076
815.28	37.260
815.45	35.782
815.62	40.045
815.80	29.688
815.97	35.162
816.14	55.024
816.32	40.199
816.49	26.790
816.66	37.695
816.84	34.064
817.01	34.152
817.18	34.879
817.36	35.498
817.53	41.237
817.71	37.617
817.88	41.176
818.05	29.867
818.23	42.163
818.40	38.223
818.57	35.762
818.75	36.952
818.92	43.933
819.09	31.981
819.27	35.749
819.44	24.838
819.61	33.080
819.79	37.687
819.96	46.116
820.13	28.277
820.31	31.054
820.48	27.496
820.65	34.783
820.82	37.846
821.00	33.721
821.17	29.778
821.34	37.388
821.52	30.896
821.69	29.756
821.86	31.809
822.04	31.949
822.21	32.331
822.38	35.269
822.56	32.935
822.73	37.090
822.90	35.703
823.07	38.619
823.25	36.995
823.42	36.468
823.59	38.067
823.77	39.673
823.94	38.686
824.11	39.300
824.29	40.727
824.46	38.958
824.63	37.706
824.80	39.316
824.98	34.753
825.15	36.765
825.32	30.907
825.49	38.243
825.67	33.002
825.84	39.728
826.01	33.828
826.19	34.366
826.36	31.125
826.53	36.525
826.70	28.356
826.88	38.317
827.05	33.689
827.22	32.464
827.39	30.926
827.57	31.553
827.74	30.943
827.91	31.655
828.08	28.668
828.26	32.503
828.43	30.282
828.60	33.428
828.77	29.472
828.95	31.077
829.12	27.259
829.29	26.784
829.46	29.655
829.64	29.322
829.81	24.646
829.98	36.431
830.15	33.640
830.32	27.361
830.50	24.170
830.67	39.498
830.84	32.103
831.01	29.394
831.19	37.805
831.36	31.230
831.53	32.841
831.70	34.766
831.87	35.630
832.05	33.958
832.22	32.777
832.39	27.123
832.56	38.839
832.74	33.040
832.91	38.218
833.08	36.111
833.25	33.269
833.42	28.670
833.60	30.719
833.77	17.674
833.94	30.464
834.11	25.610
834.28	24.010
834.45	29.371
834.63	25.947
834.80	25.846
834.97	28.276
835.14	27.143
835.31	25.609
835.49	31.093
835.66	30.255
835.83	31.780
836.00	28.047
836.17	29.944
836.34	28.419
836.52	29.098
836.69	32.599
836.86	37.960
837.03	30.918
837.20	33.884
837.37	31.741
837.55	31.985
837.72	39.293
837.89	37.639
838.06	32.321
838.23	46.650
838.40	37.760
838.58	28.906
838.75	42.330
838.92	40.000
839.09	53.846
839.26	51.000
839.43	44.548
839.60	49.032
839.78	54.324
839.95	50.258
840.12	44.675
840.29	41.944
840.46	50.000
840.63	39.896
840.80	32.225
840.98	42.439
841.15	53.553
841.32	41.953
841.49	41.266
841.66	45.330
841.83	37.376
842.00	49.148
842.17	51.713
842.34	44.909
842.52	32.508
842.69	46.918
842.86	33.882
843.03	52.759
843.20	64.490
843.37	43.675
843.54	51.779
843.71	50.464
843.88	61.303
844.06	42.672
844.23	52.542
844.40	61.044
844.57	67.647
844.74	67.241
844.91	42.735
845.08	75.598
845.25	60.377
845.42	80.172
845.59	51.709
845.76	43.033
845.94	61.026
846.11	48.500
846.28	64.423
846.45	92.073
846.62	70.202
846.79	70.000
846.96	73.737
847.13	51.337
847.30	42.708
847.47	80.723
847.64	62.694
847.81	57.073
847.98	83.957
848.15	73.718
848.32	65.934
848.50	117.187
848.67	84.375
848.84	75.978
849.01	77.037
849.18	69.068
849.35	103.871
849.52	57.895
849.69	74.713
849.86	92.857
850.03	72.727
850.20	95.570
850.37	72.093
850.54	86.905
850.71	92.025
850.88	56.000
851.05	84.314
851.22	57.647
851.39	84.967
851.56	68.667
851.73	98.964
851.90	86.667
852.07	82.031
852.24	79.769
852.41	116.058
852.58	79.888
852.75	69.277
852.92	65.385
853.09	96.154
853.26	109.722
853.43	71.585
853.60	71.429
853.77	55.639
853.94	91.613
854.11	87.912
854.28	75.758
854.45	57.764
854.62	67.925
854.79	86.982
854.96	107.500
855.13	84.916
855.30	63.057
855.47	114.615
855.64	72.917
855.81	67.879
855.98	102.752
856.15	94.475
856.32	76.923
856.49	61.074
856.66	93.103
856.83	90.840
857.00	79.042
857.17	84.706
857.34	97.260
857.51	91.150
857.68	94.253
857.85	58.602
858.02	92.896
858.19	74.483
858.36	86.932
858.53	93.836
858.70	83.471
858.87	72.656
859.04	87.097
859.21	66.883
859.38	61.143
859.55	79.021
859.72	69.182
859.89	92.537
860.05	94.937
860.22	69.399
860.39	71.528
860.56	86.935
860.73	92.486
860.90	106.164
861.07	102.206
861.24	47.287
861.41	79.703
861.58	69.061
861.75	86.614
861.92	86.755
862.09	70.455
862.26	141.026
862.43	83.436
862.59	58.696
862.76	96.364
862.93	132.099
863.10	88.182
863.27	66.883
863.44	65.657
863.61	93.836
863.78	101.562
863.95	89.231
864.12	87.778
864.29	74.302
864.45	54.658
864.62	67.429
864.79	54.610
864.96	88.393
865.13	69.767
865.30	92.381
865.47	73.846
865.64	145.545
865.81	97.790
865.97	68.852
866.14	72.396
866.31	57.368
866.48	88.060
866.65	76.812
866.82	110.000
866.99	95.890
867.16	80.672
867.33	90.845
867.49	81.287
867.66	81.988
867.83	84.459
868.00	68.342
868.17	94.355
868.34	117.123
868.51	112.381
868.67	87.582
868.84	76.860
869.01	72.222
869.18	55.625
869.35	101.840
869.52	69.375
869.69	59.763
869.85	72.131
870.02	47.748
870.19	104.965
870.36	76.812
870.53	54.545
870.70	124.167
870.86	67.857
871.03	76.433
871.20	63.366
871.37	73.548
871.54	50.926
871.71	78.488
871.87	86.260
872.04	64.322
872.21	100.000
872.38	84.286
872.55	75.177
872.72	53.140
872.88	63.522
873.05	67.925
873.22	64.881
873.39	78.125
873.56	50.877
873.72	94.958
873.89	92.169
874.06	76.623
874.23	71.519
874.40	124.771
874.56	53.804
874.73	107.627
874.90	67.284
875.07	78.431
875.24	43.860
875.40	110.769
875.57	72.388
875.74	123.077
875.91	86.029
876.08	55.102
876.24	75.455
876.41	68.000
876.58	90.058
876.75	85.271
876.92	76.398
877.08	64.912
877.25	69.333
877.42	85.235
877.59	101.807
877.75	91.444
877.92	100.826
878.09	108.000
878.26	89.231
878.42	79.870
878.59	77.528
878.76	72.159
878.93	88.506
879.09	68.927
879.26	64.336
879.43	68.159
879.60	60.891
879.76	61.340
879.93	67.843
880.10	54.545
880.27	39.574
880.43	51.887
880.60	51.894
880.77	29.954
880.94	52.649
881.10	38.796
881.27	30.145
881.44	38.346
881.61	34.199
881.77	34.531
881.94	28.479
882.11	20.833
882.28	21.924
882.44	20.984
882.61	28.386
882.78	32.035
882.94	33.623
883.11	29.210
883.28	21.073
883.45	25.664
883.61	26.773
883.78	24.033
883.95	28.156
884.11	24.123
884.28	19.542
>>>>>End Processed Spectral Data<<<<<
