SpectraSuite Data File
++++++++++++++++++++++++++++++++++++
Date: Sun Sep 22 03:26:50 EST 2019
User: sgrac
Dark Spectrum Present: Yes
Reference Spectrum Present: Yes
Number of Sampled Component Spectra: 1
Spectrometers: USB4E01596
Integration Time (usec): 100000 (USB4E01596)
Spectra Averaged: 3 (USB4E01596)
Boxcar Smoothing: 0 (USB4E01596)
Correct for Electrical Dark: No (USB4E01596)
Strobe/Lamp Enabled: Yes (USB4E01596)
Correct for Detector Non-linearity: No (USB4E01596)
Correct for Stray Light: No (USB4E01596)
Number of Pixels in Processed Spectrum: 3648
>>>>>Begin Processed Spectral Data<<<<<
178.44	595.238
178.66	595.238
178.87	595.238
179.09	-125.000
179.30	-364.815
179.52	226.882
179.74	8433.333
179.95	1137.037
180.17	9333.333
180.38	309.877
180.60	-681.250
180.82	2941.667
181.03	-254.444
181.25	500.000
181.46	-180.952
181.68	-388.333
181.89	432.353
182.11	577.778
182.33	1690.476
182.54	290.805
182.76	821.212
182.97	-554.762
183.19	330.769
183.40	-373.016
183.62	281.481
183.84	321.905
184.05	10400.000
184.27	311.667
184.48	194.326
184.70	544.048
184.91	751.111
185.13	-7600.000
185.34	814.286
185.56	-528.571
185.78	265.556
185.99	297.059
186.21	223.913
186.42	2233.333
186.64	114.474
186.85	-383.333
187.07	379.167
187.28	-2358.333
187.50	1128.571
187.72	833.333
187.93	-600.000
188.15	389.899
188.36	359.459
188.58	171.795
188.79	370.968
189.01	466.667
189.22	-1120.000
189.44	193.607
189.65	4433.333
189.87	2453.333
190.09	0.000
190.30	866.667
190.52	-402.564
190.73	500.000
190.95	452.381
191.16	826.667
191.38	-938.462
191.59	9800.000
191.81	229.240
192.02	913.333
192.24	-6616.667
192.45	-575.556
192.67	295.139
192.88	176.768
193.10	11066.667
193.31	-776.190
193.53	1310.000
193.74	244.444
193.96	265.306
194.18	286.842
194.39	-1666.667
194.61	922.222
194.82	241.818
195.04	1219.048
195.25	966.667
195.47	-509.804
195.68	-250.000
195.90	289.583
196.11	746.154
196.33	300.617
196.54	385.859
196.76	1444.444
196.97	-458.333
197.19	742.857
197.40	403.030
197.62	326.263
197.83	-1141.667
198.05	2250.000
198.26	160.199
198.48	791.111
198.69	-424.242
198.91	-2788.889
199.12	344.762
199.34	206.173
199.55	510.526
199.77	-566.667
199.98	-692.308
200.20	299.259
200.41	324.561
200.63	278.231
200.84	-1220.833
201.06	1426.667
201.27	456.944
201.49	-1333.333
201.70	0.000
201.91	605.000
202.13	239.583
202.34	380.247
202.56	948.485
202.77	420.690
202.99	-813.889
203.20	-1033.333
203.42	168.421
203.63	325.926
203.85	254.717
204.06	689.744
204.28	664.444
204.49	-9100.000
204.71	327.027
204.92	467.778
205.14	536.364
205.35	453.968
205.56	229.252
205.78	1210.000
205.99	8800.000
206.21	731.373
206.42	216.111
206.64	3755.556
206.85	246.528
207.07	196.111
207.28	196.175
207.50	472.619
207.71	468.000
207.93	475.362
208.14	-1000.000
208.35	-2744.444
208.57	1150.000
208.78	268.116
209.00	202.525
209.21	367.677
209.43	156.039
209.64	1495.833
209.86	289.899
210.07	710.256
210.28	750.000
210.50	215.000
210.71	326.950
210.93	616.667
211.14	-9333.333
211.36	372.222
211.57	-10166.667
211.78	-2600.000
212.00	370.175
212.21	1026.667
212.43	250.355
212.64	833.333
212.86	367.816
213.07	-2750.000
213.29	254.861
213.50	-521.053
213.71	193.443
213.93	1230.000
214.14	847.619
214.36	853.846
214.57	453.030
214.78	201.299
215.00	207.619
215.21	524.074
215.43	501.333
215.64	-8333.333
215.86	913.889
216.07	-648.718
216.28	1046.667
216.50	-273.077
216.71	1646.667
216.93	582.353
217.14	-434.921
217.35	179.167
217.57	884.444
217.78	486.275
218.00	2777.778
218.21	232.075
218.42	1370.370
218.64	2766.667
218.85	1427.778
219.07	-974.074
219.28	-382.716
219.49	317.284
219.71	320.000
219.92	313.675
220.14	394.203
220.35	4800.000
220.56	219.298
220.78	294.444
220.99	-1638.889
221.21	0.000
221.42	385.057
221.63	800.000
221.85	235.028
222.06	195.238
222.28	297.701
222.49	383.333
222.70	1150.000
222.92	289.333
223.13	207.778
223.34	-750.000
223.56	171.861
223.77	206.383
223.99	672.222
224.20	272.358
224.41	283.333
224.63	185.778
224.84	340.230
225.05	191.534
225.27	163.768
225.48	226.667
225.69	257.937
225.91	106.996
226.12	178.404
226.34	89.968
226.55	131.884
226.76	129.825
226.98	140.351
227.19	159.677
227.40	244.792
227.62	121.333
227.83	100.676
228.04	120.275
228.26	69.697
228.47	136.992
228.69	73.570
228.90	62.157
229.11	57.880
229.33	60.644
229.54	44.759
229.75	56.343
229.97	46.246
230.18	44.506
230.39	37.172
230.61	41.745
230.82	73.767
231.03	28.425
231.25	53.194
231.46	47.896
231.67	52.597
231.89	54.815
232.10	54.478
232.31	47.175
232.53	55.556
232.74	58.750
232.95	53.530
233.17	50.130
233.38	45.304
233.59	67.863
233.81	59.333
234.02	60.794
234.23	41.896
234.45	69.162
234.66	52.648
234.87	67.884
235.09	67.504
235.30	44.228
235.51	57.328
235.73	43.974
235.94	48.259
236.15	66.667
236.36	63.197
236.58	42.326
236.79	49.096
237.00	58.422
237.22	48.584
237.43	42.625
237.64	51.032
237.86	48.968
238.07	65.376
238.28	64.363
238.50	52.106
238.71	53.552
238.92	60.279
239.13	55.246
239.35	58.363
239.56	54.062
239.77	55.934
239.99	51.728
240.20	40.407
240.41	42.105
240.63	37.475
240.84	51.488
241.05	36.455
241.26	39.810
241.48	30.769
241.69	33.031
241.90	26.762
242.12	28.772
242.33	28.744
242.54	31.247
242.75	25.685
242.97	37.190
243.18	28.208
243.39	20.038
243.61	30.142
243.82	38.437
244.03	30.888
244.24	31.088
244.46	33.466
244.67	34.917
244.88	35.138
245.09	32.022
245.31	27.982
245.52	27.967
245.73	33.753
245.95	43.453
246.16	30.322
246.37	31.090
246.58	27.486
246.80	28.272
247.01	31.553
247.22	25.739
247.43	26.188
247.65	32.813
247.86	36.098
248.07	28.283
248.28	29.286
248.50	33.103
248.71	29.951
248.92	34.482
249.13	36.466
249.35	34.523
249.56	30.355
249.77	31.141
249.98	26.700
250.20	29.743
250.41	35.950
250.62	36.235
250.83	24.546
251.05	32.058
251.26	27.341
251.47	33.136
251.68	27.686
251.90	22.478
252.11	29.915
252.32	28.380
252.53	33.529
252.75	24.267
252.96	29.795
253.17	26.707
253.38	25.763
253.59	25.777
253.81	22.451
254.02	21.288
254.23	29.947
254.44	25.525
254.66	19.561
254.87	23.288
255.08	28.868
255.29	38.390
255.50	25.465
255.72	30.906
255.93	28.315
256.14	33.494
256.35	29.811
256.57	31.794
256.78	19.972
256.99	29.308
257.20	37.738
257.41	29.760
257.63	24.854
257.84	29.087
258.05	32.248
258.26	22.981
258.47	24.960
258.69	23.968
258.90	15.084
259.11	27.908
259.32	22.331
259.53	22.406
259.75	23.266
259.96	20.345
260.17	22.783
260.38	24.794
260.59	25.358
260.81	26.822
261.02	27.428
261.23	27.017
261.44	28.119
261.65	29.040
261.87	27.330
262.08	28.961
262.29	26.990
262.50	26.474
262.71	25.476
262.92	32.285
263.14	21.423
263.35	23.924
263.56	23.096
263.77	24.605
263.98	24.767
264.20	28.194
264.41	19.986
264.62	23.472
264.83	18.441
265.04	29.550
265.25	21.788
265.47	24.818
265.68	24.830
265.89	17.570
266.10	18.777
266.31	24.676
266.52	23.623
266.74	21.813
266.95	20.407
267.16	22.422
267.37	20.660
267.58	22.530
267.79	15.564
268.01	22.959
268.22	24.586
268.43	20.994
268.64	23.524
268.85	23.236
269.06	17.459
269.27	25.461
269.49	21.033
269.70	23.175
269.91	21.143
270.12	18.987
270.33	22.838
270.54	21.000
270.75	19.785
270.97	21.880
271.18	19.523
271.39	18.084
271.60	22.463
271.81	20.496
272.02	21.060
272.23	24.976
272.45	19.901
272.66	21.861
272.87	23.394
273.08	21.856
273.29	24.122
273.50	22.976
273.71	20.690
273.92	17.755
274.14	23.086
274.35	22.032
274.56	23.481
274.77	23.114
274.98	20.502
275.19	24.017
275.40	18.144
275.61	21.067
275.83	22.177
276.04	23.954
276.25	24.124
276.46	23.427
276.67	24.773
276.88	25.424
277.09	22.618
277.30	23.923
277.51	17.809
277.73	23.093
277.94	19.626
278.15	21.660
278.36	23.501
278.57	17.244
278.78	21.953
278.99	20.213
279.20	23.579
279.41	25.882
279.62	15.179
279.84	21.447
280.05	20.146
280.26	19.897
280.47	21.803
280.68	24.453
280.89	21.754
281.10	22.766
281.31	21.386
281.52	25.801
281.73	16.342
281.94	18.007
282.16	20.958
282.37	20.014
282.58	16.265
282.79	23.789
283.00	23.364
283.21	20.789
283.42	20.636
283.63	21.698
283.84	19.373
284.05	19.231
284.26	17.003
284.47	20.868
284.68	21.672
284.89	22.123
285.11	17.819
285.32	19.884
285.53	19.992
285.74	21.531
285.95	20.282
286.16	19.736
286.37	19.484
286.58	20.370
286.79	17.433
287.00	21.866
287.21	17.122
287.42	19.476
287.63	18.916
287.84	19.196
288.05	22.428
288.26	18.789
288.48	23.029
288.69	17.620
288.90	16.840
289.11	22.699
289.32	19.119
289.53	18.985
289.74	14.417
289.95	15.148
290.16	16.726
290.37	19.147
290.58	18.119
290.79	17.229
291.00	14.936
291.21	16.667
291.42	17.077
291.63	18.504
291.84	19.755
292.05	15.173
292.26	16.369
292.47	16.084
292.68	17.884
292.89	17.696
293.10	19.109
293.31	19.636
293.52	13.629
293.73	15.108
293.94	14.476
294.15	14.991
294.36	16.552
294.57	20.964
294.79	18.105
295.00	11.391
295.21	15.721
295.42	19.377
295.63	15.790
295.84	13.633
296.05	14.789
296.26	15.081
296.47	15.460
296.68	14.206
296.89	17.014
297.10	18.352
297.31	16.681
297.52	15.264
297.73	17.216
297.94	16.808
298.15	16.268
298.36	16.163
298.57	15.794
298.78	18.440
298.99	14.726
299.20	18.068
299.41	18.294
299.62	15.496
299.83	13.744
300.04	15.304
300.25	17.118
300.46	17.048
300.67	15.373
300.88	15.949
301.09	12.212
301.30	17.103
301.50	11.825
301.71	20.219
301.92	18.938
302.13	13.322
302.34	15.109
302.55	13.269
302.76	14.624
302.97	13.298
303.18	14.301
303.39	12.672
303.60	12.577
303.81	15.830
304.02	11.368
304.23	12.420
304.44	11.239
304.65	14.012
304.86	15.580
305.07	13.707
305.28	13.075
305.49	16.982
305.70	16.962
305.91	14.463
306.12	12.327
306.33	14.407
306.54	13.978
306.75	12.897
306.96	17.588
307.17	12.922
307.38	12.656
307.58	12.756
307.79	13.993
308.00	12.103
308.21	14.160
308.42	15.146
308.63	13.544
308.84	13.418
309.05	14.386
309.26	12.825
309.47	13.939
309.68	14.209
309.89	14.773
310.10	13.664
310.31	14.115
310.52	14.848
310.73	16.324
310.94	9.561
311.14	11.938
311.35	13.588
311.56	15.574
311.77	13.820
311.98	10.692
312.19	13.820
312.40	11.022
312.61	13.136
312.82	12.581
313.03	15.004
313.24	13.186
313.45	14.880
313.66	12.868
313.86	13.995
314.07	13.690
314.28	13.811
314.49	13.955
314.70	13.878
314.91	15.413
315.12	12.594
315.33	14.813
315.54	13.168
315.75	10.084
315.96	9.057
316.16	11.323
316.37	15.848
316.58	11.842
316.79	14.258
317.00	15.919
317.21	13.424
317.42	16.254
317.63	14.307
317.84	11.555
318.05	13.378
318.25	14.748
318.46	12.330
318.67	12.760
318.88	12.936
319.09	12.975
319.30	9.684
319.51	13.802
319.72	13.307
319.93	12.404
320.13	12.280
320.34	13.131
320.55	12.561
320.76	14.714
320.97	12.052
321.18	16.052
321.39	13.141
321.60	10.827
321.80	13.634
322.01	12.827
322.22	13.624
322.43	11.644
322.64	10.967
322.85	14.236
323.06	14.539
323.27	11.468
323.47	15.074
323.68	13.125
323.89	12.111
324.10	12.788
324.31	10.309
324.52	14.912
324.73	14.311
324.93	12.002
325.14	15.033
325.35	13.278
325.56	14.572
325.77	16.005
325.98	11.774
326.19	10.653
326.39	9.835
326.60	13.349
326.81	12.529
327.02	8.386
327.23	9.819
327.44	13.029
327.64	10.289
327.85	9.084
328.06	14.347
328.27	16.569
328.48	16.009
328.69	9.309
328.90	11.587
329.10	9.145
329.31	11.910
329.52	11.419
329.73	13.511
329.94	10.859
330.15	15.187
330.35	9.993
330.56	11.382
330.77	10.911
330.98	12.089
331.19	10.374
331.39	11.360
331.60	12.165
331.81	11.337
332.02	12.710
332.23	11.380
332.44	8.593
332.64	11.888
332.85	11.487
333.06	14.639
333.27	9.486
333.48	12.997
333.68	12.175
333.89	11.462
334.10	8.757
334.31	15.225
334.52	11.397
334.72	11.921
334.93	11.416
335.14	10.518
335.35	11.470
335.56	12.490
335.76	7.791
335.97	12.613
336.18	10.617
336.39	15.007
336.60	12.120
336.80	10.990
337.01	9.519
337.22	11.409
337.43	11.042
337.64	13.710
337.84	10.816
338.05	11.316
338.26	15.977
338.47	14.066
338.68	9.573
338.88	13.890
339.09	9.945
339.30	10.815
339.51	9.533
339.71	12.771
339.92	10.976
340.13	11.210
340.34	9.694
340.55	10.206
340.75	11.499
340.96	9.540
341.17	13.515
341.38	9.972
341.58	13.062
341.79	10.254
342.00	9.493
342.21	12.973
342.41	8.679
342.62	10.439
342.83	12.088
343.04	7.767
343.24	11.948
343.45	13.032
343.66	10.089
343.87	12.728
344.07	8.322
344.28	10.970
344.49	11.554
344.70	13.316
344.90	10.372
345.11	9.269
345.32	10.032
345.53	11.030
345.73	12.153
345.94	13.909
346.15	12.601
346.36	11.415
346.56	10.310
346.77	12.899
346.98	13.003
347.19	12.589
347.39	10.475
347.60	10.954
347.81	11.704
348.02	11.754
348.22	8.692
348.43	10.179
348.64	9.568
348.84	12.070
349.05	10.051
349.26	12.522
349.47	9.646
349.67	10.459
349.88	12.515
350.09	10.421
350.30	13.478
350.50	11.366
350.71	10.124
350.92	11.850
351.12	10.760
351.33	10.931
351.54	11.696
351.74	11.571
351.95	10.235
352.16	10.958
352.37	11.810
352.57	11.135
352.78	10.559
352.99	11.893
353.19	10.773
353.40	10.736
353.61	12.869
353.82	14.173
354.02	11.121
354.23	11.098
354.44	14.048
354.64	11.511
354.85	11.185
355.06	13.061
355.26	9.870
355.47	12.142
355.68	13.163
355.88	13.882
356.09	12.832
356.30	11.275
356.51	12.326
356.71	12.274
356.92	10.440
357.13	15.055
357.33	14.071
357.54	13.202
357.75	9.477
357.95	13.894
358.16	11.585
358.37	16.716
358.57	12.153
358.78	13.796
358.99	12.485
359.19	13.777
359.40	14.177
359.61	13.269
359.81	14.713
360.02	14.748
360.23	11.825
360.43	12.620
360.64	12.150
360.85	13.147
361.05	11.632
361.26	16.553
361.47	12.787
361.67	15.234
361.88	11.278
362.09	14.683
362.29	12.712
362.50	14.013
362.70	12.193
362.91	16.135
363.12	13.971
363.32	14.687
363.53	14.176
363.74	15.658
363.94	11.871
364.15	16.065
364.36	14.031
364.56	13.747
364.77	15.184
364.98	16.319
365.18	13.979
365.39	15.983
365.59	12.798
365.80	13.425
366.01	15.898
366.21	13.852
366.42	13.151
366.63	16.083
366.83	14.020
367.04	12.718
367.24	15.423
367.45	13.431
367.66	11.989
367.86	15.339
368.07	13.776
368.28	14.393
368.48	13.481
368.69	12.628
368.89	14.467
369.10	13.906
369.31	12.388
369.51	14.428
369.72	16.395
369.92	16.051
370.13	13.116
370.34	15.206
370.54	10.160
370.75	14.983
370.95	12.621
371.16	14.811
371.37	13.958
371.57	13.765
371.78	13.261
371.98	14.558
372.19	16.092
372.40	15.926
372.60	14.091
372.81	15.422
373.01	12.879
373.22	14.518
373.43	15.516
373.63	14.968
373.84	15.031
374.04	15.253
374.25	15.227
374.46	15.398
374.66	15.518
374.87	15.990
375.07	12.411
375.28	15.077
375.48	15.614
375.69	16.554
375.90	13.183
376.10	13.501
376.31	13.345
376.51	14.052
376.72	15.126
376.92	14.179
377.13	15.725
377.34	17.677
377.54	15.427
377.75	17.979
377.95	15.725
378.16	16.095
378.36	17.267
378.57	17.285
378.77	16.233
378.98	17.799
379.19	16.417
379.39	16.621
379.60	15.914
379.80	16.549
380.01	16.413
380.21	16.413
380.42	17.521
380.62	17.301
380.83	17.314
381.04	16.818
381.24	18.021
381.45	18.264
381.65	15.916
381.86	17.791
382.06	17.635
382.27	16.044
382.47	16.418
382.68	18.657
382.88	16.378
383.09	16.089
383.29	16.793
383.50	19.759
383.71	17.601
383.91	18.182
384.12	16.410
384.32	19.532
384.53	18.540
384.73	16.886
384.94	17.591
385.14	18.973
385.35	16.525
385.55	19.444
385.76	18.240
385.96	19.135
386.17	20.763
386.37	19.939
386.58	18.592
386.78	20.412
386.99	18.135
387.19	20.037
387.40	18.382
387.60	21.680
387.81	19.641
388.01	20.382
388.22	21.262
388.42	23.361
388.63	21.726
388.83	21.444
389.04	19.952
389.24	21.634
389.45	20.890
389.65	22.548
389.86	21.216
390.06	21.422
390.27	21.853
390.47	23.758
390.68	21.633
390.88	22.883
391.09	22.439
391.29	23.974
391.50	23.109
391.70	24.021
391.91	23.286
392.11	24.338
392.32	24.357
392.52	25.215
392.73	24.624
392.93	25.615
393.14	24.123
393.34	24.836
393.55	25.793
393.75	25.460
393.95	25.097
394.16	25.429
394.36	25.230
394.57	27.023
394.77	25.959
394.98	26.139
395.18	26.736
395.39	26.329
395.59	26.924
395.80	26.950
396.00	27.151
396.21	26.733
396.41	26.849
396.61	27.798
396.82	27.813
397.02	27.230
397.23	27.737
397.43	27.654
397.64	27.010
397.84	28.644
398.05	26.217
398.25	28.428
398.45	26.709
398.66	28.888
398.86	27.526
399.07	28.560
399.27	27.932
399.48	28.231
399.68	27.603
399.89	28.770
400.09	28.847
400.29	28.722
400.50	28.461
400.70	28.406
400.91	28.242
401.11	28.361
401.32	27.929
401.52	28.104
401.72	28.485
401.93	28.335
402.13	28.288
402.34	29.474
402.54	29.378
402.75	29.611
402.95	28.520
403.15	29.756
403.36	28.905
403.56	29.253
403.77	28.004
403.97	29.025
404.17	28.588
404.38	29.086
404.58	29.253
404.79	28.765
404.99	29.364
405.19	29.655
405.40	28.928
405.60	29.213
405.81	29.263
406.01	29.678
406.21	28.388
406.42	29.234
406.62	29.695
406.83	29.041
407.03	29.548
407.23	28.686
407.44	27.872
407.64	29.411
407.85	29.223
408.05	29.498
408.25	28.788
408.46	28.804
408.66	29.196
408.87	28.712
409.07	28.930
409.27	28.589
409.48	27.885
409.68	29.784
409.88	28.354
410.09	28.428
410.29	29.488
410.50	29.260
410.70	27.380
410.90	28.077
411.11	27.783
411.31	28.785
411.51	28.916
411.72	28.816
411.92	28.256
412.12	28.512
412.33	28.605
412.53	28.484
412.74	27.623
412.94	27.716
413.14	28.969
413.35	28.629
413.55	28.208
413.75	29.364
413.96	27.611
414.16	28.513
414.36	27.225
414.57	28.412
414.77	28.292
414.97	27.777
415.18	27.583
415.38	28.201
415.58	27.798
415.79	27.675
415.99	27.865
416.19	27.372
416.40	27.782
416.60	26.474
416.80	27.598
417.01	26.850
417.21	27.209
417.41	27.743
417.62	27.430
417.82	27.622
418.02	27.118
418.23	27.764
418.43	26.028
418.63	26.323
418.84	26.655
419.04	26.720
419.24	27.541
419.45	26.707
419.65	26.782
419.85	26.896
420.06	26.728
420.26	26.945
420.46	27.234
420.67	26.570
420.87	26.483
421.07	26.044
421.28	26.404
421.48	26.405
421.68	26.181
421.88	26.706
422.09	26.368
422.29	26.960
422.49	27.128
422.70	27.143
422.90	26.981
423.10	26.502
423.31	26.666
423.51	26.766
423.71	26.624
423.91	26.314
424.12	26.498
424.32	27.016
424.52	26.075
424.73	26.321
424.93	26.076
425.13	26.069
425.33	26.459
425.54	25.962
425.74	26.212
425.94	26.483
426.15	26.461
426.35	26.283
426.55	26.206
426.75	26.003
426.96	26.241
427.16	26.995
427.36	27.162
427.57	26.683
427.77	26.311
427.97	26.448
428.17	26.812
428.38	26.406
428.58	26.183
428.78	26.293
428.98	25.655
429.19	26.080
429.39	25.948
429.59	25.568
429.79	26.190
430.00	25.762
430.20	26.109
430.40	26.146
430.60	25.568
430.81	25.920
431.01	25.504
431.21	26.128
431.41	25.727
431.62	25.870
431.82	26.112
432.02	25.892
432.22	25.830
432.43	25.614
432.63	25.171
432.83	25.262
433.03	24.586
433.24	25.088
433.44	25.480
433.64	25.134
433.84	25.974
434.05	25.319
434.25	25.027
434.45	25.616
434.65	25.138
434.85	25.632
435.06	25.798
435.26	25.104
435.46	25.467
435.66	26.209
435.87	25.457
436.07	25.766
436.27	25.351
436.47	25.472
436.67	25.133
436.88	25.482
437.08	25.475
437.28	25.777
437.48	25.215
437.69	25.532
437.89	25.072
438.09	25.824
438.29	25.184
438.49	25.570
438.70	25.360
438.90	25.186
439.10	25.327
439.30	25.016
439.50	24.981
439.71	24.601
439.91	25.018
440.11	25.273
440.31	24.855
440.51	24.691
440.72	25.062
440.92	25.288
441.12	24.575
441.32	24.843
441.52	24.989
441.72	24.671
441.93	25.703
442.13	24.929
442.33	25.606
442.53	25.104
442.73	25.083
442.94	25.328
443.14	25.887
443.34	25.740
443.54	25.008
443.74	24.910
443.94	25.075
444.15	25.183
444.35	25.266
444.55	24.740
444.75	24.950
444.95	25.093
445.15	25.087
445.36	24.711
445.56	24.741
445.76	24.831
445.96	24.495
446.16	24.227
446.36	24.675
446.57	24.243
446.77	24.505
446.97	24.298
447.17	24.818
447.37	24.479
447.57	24.433
447.77	24.799
447.98	24.606
448.18	25.006
448.38	24.747
448.58	24.820
448.78	25.156
448.98	25.639
449.18	25.141
449.39	25.594
449.59	25.626
449.79	25.245
449.99	25.051
450.19	25.582
450.39	25.450
450.59	24.919
450.79	25.008
451.00	24.963
451.20	26.207
451.40	24.730
451.60	25.233
451.80	24.870
452.00	24.562
452.20	24.754
452.40	24.333
452.61	25.225
452.81	24.126
453.01	25.071
453.21	25.265
453.41	24.562
453.61	25.518
453.81	24.184
454.01	25.302
454.21	25.273
454.42	24.876
454.62	24.301
454.82	25.081
455.02	24.898
455.22	24.690
455.42	25.325
455.62	24.953
455.82	24.754
456.02	25.150
456.23	25.126
456.43	25.088
456.63	25.009
456.83	23.990
457.03	25.039
457.23	25.034
457.43	25.051
457.63	24.608
457.83	24.587
458.03	24.389
458.23	23.690
458.43	23.871
458.64	24.493
458.84	24.101
459.04	23.960
459.24	23.928
459.44	23.147
459.64	23.587
459.84	23.826
460.04	23.608
460.24	24.136
460.44	24.047
460.64	24.433
460.84	24.344
461.04	23.781
461.24	24.317
461.45	24.413
461.65	24.683
461.85	24.867
462.05	24.909
462.25	25.012
462.45	24.935
462.65	24.391
462.85	24.233
463.05	23.970
463.25	24.891
463.45	24.181
463.65	24.392
463.85	24.397
464.05	24.406
464.25	24.536
464.45	24.775
464.65	24.115
464.85	23.743
465.05	23.963
465.26	24.536
465.46	24.840
465.66	24.256
465.86	24.523
466.06	24.073
466.26	24.428
466.46	24.207
466.66	24.046
466.86	24.264
467.06	24.229
467.26	23.352
467.46	23.924
467.66	24.225
467.86	23.930
468.06	24.386
468.26	24.001
468.46	24.455
468.66	24.012
468.86	24.171
469.06	24.545
469.26	24.767
469.46	23.793
469.66	24.456
469.86	24.253
470.06	24.299
470.26	24.078
470.46	23.930
470.66	24.508
470.86	23.931
471.06	23.992
471.26	24.023
471.46	24.075
471.66	24.127
471.86	24.382
472.06	24.579
472.26	25.014
472.46	24.227
472.66	24.177
472.86	24.456
473.06	24.194
473.26	24.353
473.46	24.058
473.66	24.962
473.86	24.547
474.06	24.259
474.26	24.394
474.46	24.358
474.66	24.304
474.86	24.816
475.06	24.674
475.26	24.492
475.46	24.845
475.66	24.125
475.86	24.466
476.06	23.917
476.26	24.631
476.46	24.857
476.66	24.245
476.86	24.554
477.06	24.428
477.26	24.811
477.46	24.890
477.65	24.333
477.85	24.760
478.05	24.300
478.25	24.808
478.45	23.978
478.65	24.820
478.85	24.127
479.05	24.531
479.25	24.498
479.45	25.307
479.65	24.416
479.85	24.705
480.05	24.295
480.25	25.332
480.45	25.185
480.65	25.309
480.85	24.518
481.05	25.304
481.25	24.948
481.44	24.772
481.64	23.742
481.84	24.987
482.04	24.534
482.24	25.108
482.44	24.377
482.64	24.198
482.84	24.297
483.04	23.831
483.24	24.002
483.44	23.650
483.64	23.408
483.84	23.352
484.04	23.922
484.23	24.722
484.43	25.316
484.63	27.269
484.83	28.380
485.03	29.577
485.23	29.355
485.43	29.162
485.63	28.618
485.83	27.230
486.03	25.555
486.23	26.140
486.42	25.541
486.62	25.569
486.82	25.173
487.02	25.095
487.22	25.022
487.42	24.908
487.62	24.877
487.82	24.622
488.02	25.022
488.22	25.183
488.41	25.015
488.61	25.507
488.81	25.538
489.01	25.497
489.21	25.670
489.41	26.129
489.61	25.801
489.81	26.098
490.01	25.795
490.20	25.853
490.40	25.799
490.60	25.623
490.80	25.018
491.00	25.036
491.20	24.471
491.40	24.575
491.60	24.295
491.79	24.305
491.99	24.776
492.19	24.912
492.39	24.807
492.59	25.335
492.79	25.450
492.99	25.267
493.19	25.649
493.38	25.794
493.58	25.946
493.78	25.784
493.98	26.050
494.18	25.844
494.38	25.802
494.58	25.420
494.77	25.649
494.97	26.084
495.17	25.216
495.37	25.640
495.57	25.733
495.77	25.263
495.96	24.945
496.16	25.224
496.36	24.990
496.56	24.914
496.76	24.236
496.96	25.062
497.15	25.313
497.35	25.409
497.55	25.521
497.75	25.222
497.95	25.085
498.15	25.447
498.34	25.349
498.54	25.892
498.74	25.354
498.94	25.808
499.14	25.652
499.34	25.659
499.53	25.472
499.73	25.637
499.93	25.779
500.13	25.589
500.33	25.289
500.52	25.373
500.72	25.579
500.92	25.824
501.12	25.628
501.32	25.899
501.52	25.530
501.71	26.386
501.91	25.986
502.11	25.761
502.31	25.968
502.51	25.649
502.70	26.341
502.90	26.433
503.10	26.147
503.30	25.588
503.50	26.235
503.69	26.093
503.89	26.457
504.09	26.370
504.29	26.462
504.48	25.873
504.68	25.598
504.88	26.488
505.08	26.006
505.28	26.578
505.47	26.057
505.67	26.515
505.87	26.610
506.07	26.126
506.27	26.957
506.46	26.656
506.66	26.658
506.86	26.326
507.06	27.248
507.25	26.976
507.45	26.798
507.65	26.386
507.85	26.689
508.04	26.709
508.24	27.416
508.44	27.297
508.64	26.524
508.83	26.682
509.03	27.194
509.23	26.999
509.43	26.628
509.63	26.965
509.82	27.518
510.02	26.980
510.22	26.987
510.42	27.735
510.61	26.994
510.81	27.398
511.01	27.158
511.21	27.100
511.40	27.228
511.60	27.320
511.80	28.125
511.99	27.401
512.19	27.444
512.39	27.993
512.59	27.278
512.78	27.824
512.98	28.001
513.18	27.939
513.38	27.671
513.57	27.603
513.77	27.986
513.97	27.821
514.17	27.731
514.36	27.668
514.56	27.775
514.76	28.016
514.95	28.113
515.15	28.342
515.35	28.294
515.55	27.811
515.74	28.087
515.94	28.877
516.14	27.939
516.33	28.064
516.53	27.952
516.73	28.047
516.93	27.618
517.12	28.000
517.32	27.669
517.52	28.356
517.71	28.077
517.91	27.733
518.11	27.823
518.30	27.828
518.50	27.833
518.70	27.705
518.90	27.866
519.09	28.025
519.29	28.318
519.49	28.648
519.68	27.987
519.88	29.035
520.08	28.750
520.27	28.833
520.47	28.709
520.67	29.170
520.86	29.399
521.06	29.126
521.26	28.792
521.45	29.089
521.65	29.617
521.85	28.980
522.04	28.979
522.24	28.554
522.44	28.967
522.63	28.606
522.83	28.916
523.03	28.936
523.22	28.490
523.42	29.339
523.62	28.854
523.81	29.155
524.01	28.542
524.21	28.760
524.40	29.041
524.60	29.281
524.80	28.276
524.99	28.912
525.19	28.681
525.39	28.381
525.58	28.314
525.78	28.433
525.98	28.748
526.17	29.219
526.37	29.076
526.57	29.237
526.76	29.062
526.96	29.234
527.15	28.796
527.35	28.957
527.55	28.810
527.74	29.129
527.94	28.907
528.14	28.308
528.33	27.966
528.53	28.192
528.72	28.591
528.92	29.349
529.12	29.649
529.31	30.138
529.51	29.983
529.71	30.274
529.90	30.713
530.10	31.079
530.29	30.489
530.49	30.896
530.69	30.939
530.88	30.885
531.08	30.556
531.28	30.315
531.47	29.755
531.67	30.142
531.86	30.129
532.06	29.861
532.26	29.709
532.45	29.723
532.65	29.570
532.84	29.371
533.04	29.485
533.24	28.930
533.43	29.387
533.63	29.863
533.82	29.575
534.02	29.643
534.22	29.500
534.41	30.203
534.61	30.188
534.80	30.311
535.00	30.599
535.19	30.811
535.39	31.272
535.59	30.699
535.78	30.367
535.98	29.790
536.17	30.208
536.37	30.131
536.57	29.740
536.76	30.208
536.96	30.009
537.15	30.289
537.35	30.290
537.54	30.203
537.74	30.305
537.93	30.500
538.13	30.647
538.33	31.022
538.52	31.045
538.72	31.335
538.91	30.809
539.11	30.550
539.30	30.974
539.50	31.069
539.70	30.667
539.89	30.867
540.09	30.458
540.28	30.736
540.48	29.921
540.67	29.797
540.87	29.704
541.06	29.573
541.26	29.858
541.45	30.165
541.65	30.678
541.85	30.726
542.04	31.033
542.24	31.140
542.43	30.846
542.63	31.146
542.82	31.327
543.02	31.647
543.21	31.937
543.41	32.294
543.60	31.842
543.80	31.868
543.99	32.025
544.19	31.623
544.38	31.819
544.58	31.726
544.77	31.351
544.97	31.951
545.16	32.038
545.36	31.570
545.56	31.895
545.75	31.738
545.95	31.414
546.14	31.669
546.34	31.927
546.53	31.407
546.73	31.461
546.92	32.092
547.12	31.700
547.31	32.121
547.51	31.791
547.70	31.768
547.90	32.153
548.09	32.668
548.29	32.275
548.48	32.480
548.68	33.172
548.87	33.197
549.07	32.854
549.26	32.745
549.46	33.163
549.65	33.254
549.84	33.262
550.04	33.422
550.23	32.973
550.43	32.615
550.62	33.243
550.82	32.878
551.01	32.845
551.21	33.552
551.40	32.731
551.60	33.482
551.79	33.283
551.99	33.783
552.18	33.302
552.38	33.861
552.57	33.617
552.77	32.772
552.96	33.365
553.16	33.452
553.35	33.471
553.54	34.434
553.74	33.633
553.93	33.530
554.13	33.928
554.32	34.660
554.52	34.575
554.71	33.820
554.91	34.335
555.10	34.045
555.29	33.821
555.49	34.621
555.68	34.202
555.88	34.668
556.07	34.180
556.27	34.688
556.46	34.879
556.66	34.765
556.85	34.061
557.04	34.582
557.24	35.161
557.43	35.491
557.63	36.039
557.82	35.106
558.02	34.680
558.21	35.845
558.40	34.986
558.60	35.302
558.79	35.913
558.99	36.317
559.18	34.791
559.38	35.549
559.57	35.289
559.76	35.708
559.96	36.876
560.15	36.161
560.35	35.920
560.54	36.197
560.73	35.925
560.93	36.662
561.12	36.176
561.32	36.106
561.51	36.548
561.70	36.111
561.90	36.067
562.09	36.310
562.29	37.411
562.48	36.616
562.67	37.370
562.87	37.065
563.06	36.738
563.26	36.622
563.45	36.841
563.64	36.652
563.84	37.527
564.03	36.942
564.23	37.234
564.42	38.309
564.61	36.645
564.81	37.546
565.00	36.989
565.20	37.137
565.39	37.587
565.58	37.218
565.78	36.569
565.97	38.236
566.16	36.847
566.36	37.522
566.55	38.116
566.74	37.427
566.94	37.899
567.13	38.694
567.33	37.719
567.52	38.083
567.71	38.035
567.91	38.381
568.10	38.681
568.29	38.900
568.49	39.192
568.68	38.909
568.87	38.678
569.07	38.829
569.26	38.916
569.45	38.783
569.65	37.891
569.84	38.683
570.04	38.111
570.23	37.971
570.42	37.817
570.62	38.340
570.81	38.545
571.00	38.896
571.20	38.261
571.39	38.510
571.58	38.242
571.78	39.126
571.97	38.825
572.16	38.475
572.36	38.228
572.55	39.056
572.74	39.126
572.94	39.238
573.13	39.115
573.32	38.341
573.51	39.224
573.71	39.281
573.90	38.814
574.09	39.782
574.29	39.619
574.48	39.551
574.67	39.612
574.87	39.625
575.06	38.345
575.25	39.122
575.45	39.173
575.64	39.372
575.83	38.025
576.03	39.890
576.22	38.120
576.41	40.215
576.60	39.015
576.80	38.933
576.99	39.552
577.18	39.876
577.38	39.190
577.57	39.676
577.76	39.763
577.95	39.553
578.15	38.342
578.34	39.887
578.53	39.603
578.73	39.863
578.92	39.646
579.11	39.668
579.30	40.069
579.50	38.816
579.69	39.450
579.88	39.974
580.08	39.455
580.27	40.457
580.46	40.080
580.65	39.134
580.85	39.557
581.04	39.535
581.23	39.492
581.42	39.099
581.62	39.939
581.81	39.229
582.00	38.768
582.19	39.578
582.39	39.773
582.58	38.870
582.77	39.300
582.96	38.842
583.16	38.201
583.35	39.820
583.54	38.187
583.73	39.864
583.93	39.121
584.12	38.478
584.31	39.393
584.50	38.940
584.70	38.311
584.89	37.968
585.08	39.896
585.27	39.139
585.47	38.430
585.66	39.268
585.85	38.307
586.04	38.398
586.24	39.101
586.43	38.771
586.62	38.013
586.81	38.024
587.00	38.424
587.20	38.649
587.39	38.313
587.58	38.179
587.77	38.948
587.97	38.623
588.16	38.816
588.35	39.338
588.54	38.315
588.73	38.794
588.93	38.214
589.12	38.679
589.31	37.973
589.50	38.003
589.69	37.293
589.89	38.069
590.08	38.570
590.27	38.225
590.46	38.634
590.65	38.673
590.85	38.427
591.04	38.270
591.23	38.295
591.42	38.446
591.61	37.918
591.81	39.165
592.00	37.995
592.19	37.174
592.38	38.651
592.57	39.488
592.77	39.030
592.96	38.157
593.15	39.327
593.34	38.905
593.53	38.792
593.72	38.126
593.92	38.659
594.11	38.253
594.30	38.982
594.49	38.333
594.68	38.326
594.87	38.164
595.07	38.366
595.26	39.065
595.45	39.520
595.64	38.930
595.83	39.076
596.02	38.470
596.22	39.661
596.41	38.308
596.60	38.618
596.79	38.758
596.98	39.259
597.17	39.169
597.37	38.092
597.56	38.579
597.75	38.801
597.94	38.749
598.13	39.604
598.32	39.256
598.51	38.768
598.71	39.829
598.90	39.730
599.09	40.338
599.28	39.649
599.47	39.017
599.66	39.533
599.85	38.956
600.05	39.163
600.24	39.988
600.43	39.608
600.62	39.531
600.81	39.979
601.00	40.222
601.19	40.355
601.38	39.879
601.58	40.222
601.77	39.323
601.96	39.561
602.15	40.158
602.34	40.414
602.53	40.188
602.72	39.758
602.91	39.649
603.10	39.851
603.30	40.034
603.49	39.356
603.68	41.169
603.87	40.075
604.06	40.105
604.25	40.049
604.44	40.078
604.63	39.736
604.82	40.163
605.01	39.227
605.21	40.201
605.40	39.929
605.59	40.729
605.78	39.654
605.97	40.742
606.16	40.515
606.35	39.981
606.54	40.442
606.73	40.321
606.92	40.183
607.11	40.231
607.30	40.037
607.50	40.700
607.69	40.008
607.88	40.187
608.07	40.976
608.26	40.882
608.45	40.145
608.64	40.818
608.83	38.976
609.02	39.286
609.21	40.193
609.40	40.851
609.59	39.380
609.78	38.938
609.97	39.684
610.16	39.669
610.35	39.849
610.55	39.499
610.74	39.876
610.93	39.367
611.12	39.465
611.31	40.293
611.50	39.497
611.69	40.026
611.88	40.204
612.07	39.053
612.26	39.073
612.45	40.168
612.64	39.725
612.83	39.689
613.02	39.316
613.21	38.997
613.40	39.592
613.59	40.127
613.78	38.866
613.97	40.164
614.16	39.416
614.35	40.633
614.54	40.360
614.73	38.299
614.92	40.058
615.11	39.644
615.30	38.553
615.49	39.099
615.68	38.191
615.87	38.417
616.07	39.244
616.26	38.797
616.45	39.388
616.64	39.589
616.83	38.848
617.02	38.952
617.21	38.644
617.40	38.969
617.59	38.511
617.78	39.060
617.97	38.281
618.16	38.457
618.35	37.671
618.54	38.505
618.73	38.813
618.92	38.794
619.11	38.246
619.30	38.431
619.49	38.262
619.68	38.099
619.86	38.282
620.05	37.884
620.24	37.410
620.43	39.516
620.62	37.140
620.81	37.535
621.00	37.771
621.19	38.209
621.38	36.937
621.57	38.609
621.76	38.588
621.95	38.144
622.14	38.161
622.33	37.169
622.52	37.427
622.71	37.799
622.90	37.388
623.09	36.944
623.28	37.335
623.47	38.648
623.66	38.085
623.85	38.303
624.04	38.322
624.23	37.302
624.42	37.757
624.61	37.144
624.80	37.328
624.99	37.749
625.18	38.024
625.36	36.365
625.55	36.783
625.74	36.880
625.93	36.289
626.12	38.332
626.31	37.242
626.50	37.389
626.69	37.211
626.88	36.653
627.07	37.236
627.26	36.869
627.45	37.988
627.64	36.440
627.83	37.530
628.02	36.192
628.20	37.314
628.39	36.892
628.58	37.503
628.77	37.555
628.96	37.416
629.15	37.705
629.34	35.996
629.53	37.251
629.72	37.298
629.91	36.820
630.10	35.990
630.29	37.147
630.47	37.804
630.66	37.156
630.85	37.193
631.04	35.947
631.23	36.843
631.42	36.376
631.61	37.231
631.80	37.111
631.99	36.841
632.18	36.316
632.36	35.603
632.55	37.429
632.74	36.871
632.93	37.456
633.12	37.080
633.31	36.450
633.50	36.923
633.69	36.367
633.88	36.255
634.06	36.994
634.25	36.912
634.44	37.236
634.63	37.374
634.82	37.329
635.01	36.036
635.20	36.025
635.39	36.229
635.57	37.031
635.76	37.414
635.95	36.540
636.14	36.227
636.33	36.987
636.52	36.634
636.71	35.344
636.89	37.152
637.08	36.305
637.27	36.880
637.46	36.574
637.65	35.797
637.84	36.509
638.03	35.904
638.21	37.887
638.40	36.830
638.59	35.949
638.78	36.962
638.97	37.084
639.16	36.800
639.34	37.315
639.53	36.641
639.72	36.236
639.91	37.802
640.10	35.389
640.29	36.042
640.47	36.803
640.66	36.439
640.85	36.455
641.04	35.646
641.23	36.375
641.42	36.771
641.60	36.833
641.79	36.348
641.98	36.632
642.17	35.881
642.36	37.046
642.54	37.360
642.73	36.200
642.92	35.818
643.11	37.410
643.30	35.862
643.49	37.119
643.67	36.017
643.86	36.622
644.05	36.738
644.24	36.558
644.43	35.040
644.61	36.480
644.80	35.750
644.99	36.288
645.18	36.436
645.37	37.455
645.55	36.872
645.74	37.068
645.93	35.900
646.12	37.030
646.31	36.818
646.49	36.718
646.68	36.725
646.87	36.929
647.06	35.959
647.24	37.543
647.43	34.957
647.62	38.214
647.81	35.503
648.00	34.956
648.18	36.171
648.37	36.042
648.56	35.700
648.75	36.589
648.93	36.414
649.12	35.010
649.31	36.325
649.50	35.407
649.68	37.356
649.87	37.059
650.06	35.762
650.25	36.202
650.43	36.322
650.62	36.602
650.81	35.949
651.00	35.570
651.18	36.168
651.37	37.160
651.56	36.032
651.75	36.364
651.93	36.176
652.12	38.407
652.31	36.234
652.50	36.303
652.68	37.609
652.87	36.961
653.06	35.854
653.25	35.421
653.43	35.578
653.62	35.668
653.81	36.404
654.00	36.229
654.18	35.197
654.37	36.414
654.56	37.069
654.74	35.577
654.93	36.496
655.12	36.110
655.31	35.045
655.49	35.463
655.68	34.159
655.87	35.087
656.05	33.505
656.24	35.655
656.43	34.805
656.62	35.103
656.80	35.031
656.99	33.699
657.18	32.694
657.36	34.745
657.55	35.626
657.74	37.228
657.93	33.789
658.11	35.786
658.30	32.837
658.49	32.844
658.67	32.823
658.86	32.022
659.05	32.587
659.23	34.007
659.42	32.398
659.61	34.313
659.79	32.204
659.98	33.333
660.17	33.061
660.35	33.099
660.54	32.618
660.73	32.231
660.91	33.312
661.10	32.328
661.29	31.924
661.47	33.015
661.66	30.862
661.85	31.621
662.03	33.243
662.22	31.499
662.41	30.751
662.59	31.227
662.78	31.151
662.97	31.053
663.15	30.155
663.34	31.266
663.53	30.256
663.71	30.225
663.90	28.952
664.09	30.968
664.27	30.160
664.46	30.495
664.65	30.239
664.83	29.105
665.02	28.209
665.21	28.725
665.39	27.243
665.58	30.830
665.77	27.866
665.95	29.158
666.14	28.695
666.32	28.381
666.51	27.552
666.70	28.040
666.88	27.030
667.07	29.148
667.26	25.653
667.44	28.637
667.63	28.060
667.81	27.009
668.00	27.058
668.19	28.529
668.37	26.770
668.56	28.208
668.75	25.941
668.93	27.204
669.12	26.376
669.30	27.771
669.49	26.000
669.68	29.060
669.86	26.754
670.05	26.863
670.23	25.944
670.42	26.227
670.61	27.441
670.79	29.040
670.98	27.768
671.16	28.895
671.35	25.937
671.54	28.258
671.72	26.367
671.91	27.871
672.09	26.372
672.28	28.514
672.46	27.982
672.65	29.687
672.84	26.417
673.02	28.088
673.21	25.347
673.39	27.646
673.58	27.553
673.77	27.795
673.95	27.180
674.14	28.314
674.32	26.548
674.51	29.477
674.69	26.301
674.88	30.167
675.07	27.348
675.25	30.876
675.44	28.513
675.62	27.747
675.81	29.015
675.99	30.555
676.18	29.379
676.36	27.641
676.55	28.018
676.74	30.322
676.92	29.188
677.11	29.194
677.29	27.181
677.48	31.127
677.66	29.361
677.85	30.160
678.03	29.496
678.22	29.962
678.40	29.726
678.59	29.984
678.78	28.698
678.96	28.314
679.15	30.164
679.33	29.422
679.52	29.476
679.70	30.776
679.89	30.084
680.07	30.748
680.26	30.875
680.44	30.670
680.63	31.031
680.81	30.026
681.00	28.938
681.18	30.021
681.37	30.111
681.55	31.641
681.74	31.157
681.92	31.834
682.11	32.298
682.29	31.000
682.48	33.264
682.66	32.275
682.85	31.366
683.03	32.899
683.22	33.906
683.40	31.859
683.59	31.663
683.77	32.605
683.96	31.408
684.14	34.545
684.33	32.272
684.51	35.344
684.70	33.909
684.88	34.937
685.07	34.392
685.25	35.524
685.44	33.139
685.62	35.694
685.81	34.146
685.99	36.139
686.18	34.081
686.36	35.815
686.55	34.009
686.73	38.383
686.92	36.530
687.10	37.276
687.29	37.563
687.47	37.008
687.65	37.223
687.84	37.539
688.02	36.595
688.21	40.000
688.39	37.441
688.58	39.607
688.76	39.251
688.95	39.769
689.13	39.637
689.32	41.140
689.50	39.732
689.68	40.492
689.87	39.523
690.05	40.051
690.24	42.470
690.42	43.169
690.61	40.620
690.79	42.774
690.98	41.174
691.16	42.748
691.34	42.553
691.53	43.713
691.71	42.403
691.90	44.754
692.08	43.838
692.27	45.664
692.45	44.897
692.63	43.914
692.82	45.336
693.00	46.688
693.19	46.708
693.37	45.497
693.56	47.627
693.74	46.704
693.92	47.346
694.11	47.854
694.29	50.375
694.48	48.137
694.66	48.445
694.84	49.525
695.03	46.178
695.21	50.998
695.40	48.515
695.58	50.607
695.76	50.470
695.95	50.168
696.13	52.111
696.32	51.743
696.50	53.524
696.68	51.544
696.87	49.165
697.05	52.819
697.24	51.650
697.42	51.410
697.60	51.371
697.79	52.533
697.97	52.811
698.16	51.669
698.34	49.790
698.52	51.454
698.71	50.913
698.89	52.190
699.07	51.550
699.26	51.304
699.44	52.008
699.63	51.848
699.81	51.294
699.99	52.187
700.18	52.655
700.36	52.298
700.54	52.838
700.73	51.411
700.91	51.568
701.09	52.027
701.28	53.675
701.46	53.662
701.64	52.308
701.83	52.730
702.01	53.571
702.20	54.731
702.38	52.636
702.56	55.694
702.75	52.200
702.93	55.867
703.11	55.602
703.30	54.327
703.48	54.641
703.66	56.393
703.85	56.696
704.03	58.091
704.21	56.257
704.40	58.349
704.58	56.588
704.76	58.013
704.95	57.570
705.13	58.273
705.31	55.529
705.50	57.182
705.68	57.722
705.86	57.382
706.04	58.139
706.23	57.796
706.41	55.928
706.59	57.113
706.78	55.135
706.96	58.294
707.14	58.747
707.33	58.763
707.51	56.538
707.69	58.413
707.88	57.513
708.06	57.859
708.24	56.120
708.42	59.046
708.61	58.345
708.79	58.356
708.97	58.825
709.16	57.777
709.34	59.256
709.52	55.402
709.71	58.795
709.89	57.352
710.07	56.641
710.25	58.329
710.44	58.043
710.62	57.183
710.80	58.127
710.98	58.076
711.17	57.224
711.35	59.262
711.53	57.701
711.72	59.061
711.90	58.474
712.08	60.354
712.26	57.518
712.45	60.117
712.63	59.006
712.81	59.490
712.99	58.932
713.18	59.842
713.36	56.398
713.54	57.915
713.72	58.888
713.91	59.432
714.09	59.055
714.27	58.051
714.45	58.246
714.64	58.190
714.82	59.115
715.00	58.850
715.18	60.301
715.37	59.449
715.55	58.883
715.73	59.407
715.91	58.143
716.10	59.032
716.28	57.357
716.46	57.717
716.64	58.222
716.83	58.169
717.01	57.569
717.19	59.951
717.37	58.139
717.55	57.716
717.74	58.466
717.92	57.860
718.10	57.214
718.28	59.387
718.47	57.624
718.65	60.402
718.83	56.955
719.01	58.260
719.19	61.160
719.38	58.329
719.56	56.947
719.74	59.970
719.92	56.182
720.10	57.040
720.29	56.734
720.47	60.213
720.65	56.793
720.83	62.916
721.01	56.859
721.20	57.217
721.38	60.047
721.56	59.614
721.74	63.669
721.92	60.152
722.11	61.367
722.29	58.965
722.47	58.926
722.65	59.081
722.83	59.719
723.01	57.236
723.20	56.912
723.38	58.478
723.56	58.565
723.74	60.631
723.92	61.443
724.10	60.367
724.29	55.876
724.47	58.445
724.65	59.073
724.83	61.041
725.01	56.332
725.19	61.017
725.38	58.442
725.56	60.750
725.74	61.708
725.92	63.243
726.10	57.473
726.28	59.725
726.46	60.081
726.65	62.723
726.83	59.632
727.01	58.328
727.19	58.200
727.37	59.270
727.55	59.244
727.73	58.254
727.92	58.720
728.10	59.270
728.28	56.320
728.46	59.124
728.64	60.541
728.82	61.519
729.00	59.374
729.19	59.830
729.37	58.270
729.55	60.048
729.73	59.204
729.91	58.753
730.09	57.135
730.27	60.512
730.45	57.226
730.63	62.222
730.82	60.432
731.00	58.828
731.18	57.911
731.36	62.694
731.54	55.783
731.72	57.467
731.90	60.294
732.08	58.686
732.26	62.410
732.45	60.294
732.63	59.021
732.81	58.826
732.99	58.395
733.17	60.015
733.35	61.327
733.53	61.138
733.71	57.808
733.89	61.964
734.07	63.468
734.25	62.076
734.44	60.438
734.62	61.324
734.80	60.035
734.98	62.434
735.16	58.646
735.34	63.431
735.52	61.710
735.70	60.650
735.88	61.789
736.06	60.208
736.24	61.640
736.42	62.543
736.60	62.802
736.78	62.287
736.97	60.798
737.15	64.351
737.33	63.772
737.51	63.284
737.69	59.346
737.87	62.160
738.05	62.607
738.23	63.271
738.41	61.559
738.59	60.313
738.77	63.756
738.95	67.251
739.13	61.460
739.31	63.708
739.49	62.064
739.67	63.450
739.85	61.475
740.03	66.597
740.21	65.730
740.39	65.658
740.57	64.858
740.75	61.328
740.93	61.847
741.11	61.303
741.30	59.639
741.48	63.179
741.66	63.200
741.84	63.262
742.02	62.469
742.20	62.850
742.38	65.677
742.56	67.077
742.74	60.168
742.92	61.611
743.10	57.488
743.28	64.709
743.46	62.414
743.64	64.513
743.82	60.005
744.00	65.242
744.18	67.268
744.36	59.493
744.54	61.767
744.72	65.450
744.90	63.466
745.08	66.554
745.26	58.964
745.44	66.667
745.62	60.809
745.80	64.236
745.98	64.675
746.16	64.859
746.34	59.153
746.52	65.223
746.70	62.845
746.87	68.585
747.05	66.816
747.23	65.418
747.41	63.261
747.59	67.165
747.77	59.686
747.95	65.990
748.13	60.863
748.31	64.284
748.49	65.165
748.67	62.522
748.85	64.363
749.03	66.865
749.21	59.878
749.39	61.856
749.57	60.953
749.75	64.271
749.93	60.966
750.11	63.496
750.29	59.504
750.47	61.945
750.65	61.257
750.83	60.939
751.01	61.861
751.18	64.587
751.36	57.959
751.54	66.926
751.72	61.226
751.90	62.526
752.08	63.574
752.26	64.114
752.44	57.456
752.62	63.255
752.80	64.013
752.98	63.035
753.16	60.901
753.34	66.667
753.52	63.116
753.69	61.796
753.87	64.958
754.05	65.825
754.23	63.790
754.41	62.373
754.59	61.237
754.77	64.982
754.95	61.667
755.13	63.222
755.31	61.017
755.49	62.057
755.66	63.303
755.84	66.728
756.02	60.103
756.20	65.588
756.38	63.571
756.56	63.139
756.74	65.220
756.92	68.448
757.10	59.976
757.28	68.722
757.45	66.667
757.63	60.675
757.81	62.779
757.99	68.142
758.17	62.970
758.35	64.653
758.53	57.115
758.71	67.677
758.88	61.652
759.06	61.675
759.24	61.319
759.42	63.500
759.60	58.611
759.78	55.930
759.96	57.151
760.13	59.722
760.31	53.758
760.49	56.559
760.67	51.177
760.85	51.941
761.03	50.323
761.21	49.609
761.38	46.586
761.56	52.771
761.74	52.872
761.92	56.496
762.10	50.884
762.28	54.750
762.46	48.811
762.63	56.380
762.81	55.521
762.99	54.049
763.17	58.364
763.35	55.241
763.53	55.868
763.70	57.956
763.88	56.791
764.06	53.972
764.24	54.299
764.42	57.947
764.60	55.199
764.77	54.772
764.95	55.980
765.13	60.060
765.31	55.042
765.49	55.906
765.66	55.786
765.84	56.407
766.02	55.885
766.20	57.559
766.38	58.403
766.56	57.875
766.73	54.603
766.91	58.963
767.09	59.461
767.27	58.464
767.45	58.908
767.62	62.281
767.80	53.539
767.98	58.892
768.16	55.469
768.33	63.268
768.51	58.806
768.69	59.819
768.87	56.024
769.05	64.679
769.22	61.400
769.40	63.525
769.58	59.735
769.76	67.884
769.94	60.922
770.11	65.017
770.29	58.842
770.47	60.622
770.65	61.905
770.82	66.081
771.00	59.011
771.18	62.668
771.36	59.804
771.53	59.852
771.71	63.895
771.89	66.547
772.07	60.369
772.25	64.838
772.42	56.851
772.60	71.288
772.78	59.529
772.96	67.956
773.13	62.945
773.31	63.808
773.49	64.810
773.67	60.025
773.84	65.274
774.02	66.919
774.20	61.880
774.37	59.709
774.55	63.583
774.73	67.779
774.91	59.105
775.08	61.963
775.26	61.174
775.44	66.898
775.62	61.616
775.79	65.004
775.97	58.290
776.15	60.955
776.32	57.878
776.50	69.580
776.68	66.481
776.86	63.505
777.03	69.683
777.21	65.613
777.39	59.599
777.56	64.551
777.74	61.135
777.92	64.857
778.10	58.892
778.27	61.346
778.45	63.926
778.63	66.369
778.80	57.346
778.98	64.327
779.16	57.172
779.34	67.710
779.51	58.798
779.69	68.617
779.87	61.996
780.04	66.434
780.22	60.534
780.40	61.848
780.57	63.667
780.75	66.718
780.93	64.483
781.10	65.130
781.28	67.464
781.46	67.258
781.63	62.560
781.81	69.967
781.99	61.812
782.16	62.742
782.34	59.774
782.52	64.306
782.69	58.963
782.87	53.457
783.05	56.196
783.22	61.775
783.40	61.151
783.58	63.122
783.75	55.719
783.93	63.885
784.11	59.039
784.28	67.118
784.46	58.123
784.64	65.000
784.81	54.948
784.99	63.344
785.17	63.401
785.34	61.519
785.52	59.478
785.69	56.801
785.87	57.366
786.05	63.781
786.22	58.847
786.40	68.975
786.58	67.439
786.75	68.376
786.93	54.391
787.11	57.700
787.28	57.205
787.46	64.593
787.63	61.076
787.81	55.407
787.99	56.946
788.16	59.027
788.34	52.402
788.51	63.543
788.69	58.546
788.87	61.028
789.04	59.616
789.22	56.028
789.39	57.028
789.57	54.992
789.75	59.143
789.92	61.829
790.10	52.110
790.27	61.340
790.45	51.311
790.63	62.762
790.80	55.556
790.98	57.794
791.15	57.076
791.33	56.643
791.51	56.390
791.68	64.497
791.86	63.465
792.03	61.790
792.21	46.802
792.39	58.162
792.56	56.969
792.74	60.108
792.91	60.970
793.09	58.120
793.26	55.288
793.44	62.411
793.62	60.413
793.79	56.928
793.97	59.913
794.14	60.058
794.32	60.045
794.49	59.722
794.67	49.398
794.84	63.795
795.02	57.550
795.20	67.269
795.37	56.649
795.55	61.872
795.72	50.439
795.90	54.342
796.07	64.648
796.25	61.513
796.42	53.085
796.60	61.015
796.77	60.466
796.95	54.640
797.13	50.328
797.30	61.757
797.48	54.728
797.65	62.003
797.83	52.585
798.00	61.428
798.18	55.872
798.35	53.333
798.53	55.291
798.70	56.308
798.88	62.609
799.05	60.471
799.23	57.751
799.40	56.402
799.58	61.443
799.75	59.989
799.93	55.766
800.10	56.235
800.28	59.687
800.45	60.392
800.63	51.726
800.80	58.155
800.98	59.272
801.15	58.237
801.33	52.184
801.50	54.264
801.68	56.574
801.85	55.613
802.03	54.891
802.20	59.630
802.38	56.522
802.55	51.520
802.73	59.917
802.90	48.115
803.08	54.370
803.25	61.914
803.43	58.442
803.60	61.121
803.78	57.789
803.95	57.889
804.13	56.729
804.30	62.626
804.48	56.289
804.65	61.614
804.83	54.906
805.00	51.076
805.17	59.699
805.35	66.795
805.52	57.706
805.70	61.111
805.87	60.857
806.05	58.609
806.22	54.183
806.40	53.039
806.57	53.370
806.75	65.299
806.92	57.904
807.09	57.491
807.27	53.308
807.44	63.297
807.62	61.632
807.79	51.018
807.97	53.560
808.14	56.000
808.31	55.471
808.49	61.574
808.66	54.144
808.84	53.732
809.01	59.040
809.19	59.486
809.36	62.131
809.53	54.063
809.71	49.901
809.88	63.327
810.06	61.472
810.23	55.256
810.41	59.855
810.58	54.511
810.75	49.611
810.93	53.886
811.10	52.300
811.28	59.746
811.45	51.783
811.62	49.423
811.80	53.979
811.97	55.007
812.15	69.287
812.32	54.915
812.49	56.695
812.67	54.650
812.84	44.398
813.02	59.268
813.19	48.456
813.36	61.458
813.54	45.360
813.71	64.354
813.89	57.084
814.06	58.675
814.23	56.439
814.41	51.852
814.58	57.103
814.75	59.179
814.93	56.324
815.10	60.269
815.28	55.208
815.45	55.371
815.62	52.790
815.80	55.432
815.97	51.704
816.14	62.360
816.32	47.064
816.49	48.114
816.66	46.159
816.84	45.020
817.01	50.223
817.18	48.344
817.36	54.762
817.53	63.402
817.71	51.324
817.88	49.300
818.05	48.304
818.23	50.037
818.40	49.105
818.57	50.184
818.75	49.965
818.92	53.487
819.09	48.210
819.27	56.763
819.44	48.596
819.61	45.881
819.79	53.483
819.96	57.135
820.13	49.126
820.31	52.927
820.48	52.598
820.65	54.125
820.82	53.487
821.00	53.101
821.17	44.414
821.34	54.545
821.52	48.035
821.69	49.061
821.86	53.015
822.04	57.288
822.21	55.001
822.38	56.986
822.56	55.423
822.73	56.638
822.90	54.186
823.07	56.009
823.25	53.992
823.42	53.161
823.59	53.492
823.77	53.453
823.94	52.830
824.11	54.702
824.29	52.474
824.46	53.899
824.63	53.077
824.80	53.689
824.98	53.388
825.15	51.258
825.32	48.980
825.49	53.810
825.67	49.534
825.84	52.785
826.01	51.671
826.19	50.442
826.36	48.577
826.53	54.948
826.70	50.056
826.88	56.291
827.05	50.835
827.22	54.265
827.39	52.643
827.57	52.374
827.74	53.836
827.91	55.492
828.08	51.279
828.26	52.131
828.43	50.423
828.60	55.973
828.77	51.474
828.95	53.338
829.12	48.000
829.29	48.704
829.46	51.523
829.64	51.417
829.81	43.535
829.98	51.496
830.15	43.797
830.32	44.229
830.50	45.551
830.67	59.457
830.84	47.298
831.01	43.575
831.19	46.458
831.36	47.087
831.53	45.449
831.70	48.536
831.87	46.260
832.05	48.403
832.22	52.262
832.39	45.833
832.56	49.702
832.74	48.678
832.91	42.178
833.08	55.489
833.25	40.962
833.42	46.575
833.60	44.717
833.77	37.815
833.94	46.084
834.11	49.864
834.28	46.701
834.45	52.448
834.63	48.107
834.80	47.761
834.97	45.255
835.14	49.966
835.31	47.192
835.49	50.886
835.66	47.275
835.83	47.987
836.00	49.310
836.17	45.612
836.34	41.815
836.52	44.581
836.69	45.032
836.86	48.442
837.03	45.464
837.20	46.942
837.37	42.890
837.55	37.958
837.72	45.711
837.89	42.242
838.06	47.722
838.23	50.868
838.40	52.517
838.58	46.528
838.75	55.682
838.92	55.821
839.09	68.639
839.26	70.444
839.43	60.125
839.60	62.043
839.78	69.279
839.95	63.832
840.12	51.282
840.29	54.630
840.46	60.000
840.63	55.872
840.80	40.068
840.98	55.854
841.15	51.438
841.32	49.868
841.49	47.511
841.66	60.714
841.83	53.960
842.00	54.501
842.17	65.421
842.34	48.303
842.52	53.457
842.69	62.215
842.86	45.614
843.03	66.092
843.20	69.524
843.37	56.627
843.54	56.785
843.71	55.005
843.88	66.156
844.06	63.362
844.23	67.797
844.40	61.044
844.57	75.490
844.74	84.100
844.91	58.689
845.08	63.796
845.25	64.937
845.42	86.063
845.59	68.376
845.76	54.918
845.94	80.342
846.11	55.333
846.28	76.603
846.45	89.837
846.62	75.253
846.79	73.333
846.96	68.687
847.13	76.292
847.30	59.722
847.47	84.940
847.64	73.230
847.81	78.862
847.98	85.383
848.15	90.598
848.32	95.238
848.50	108.073
848.67	84.896
848.84	77.654
849.01	96.543
849.18	70.056
849.35	100.000
849.52	77.778
849.69	88.506
849.86	93.197
850.03	81.439
850.20	102.321
850.37	58.915
850.54	80.159
850.71	88.344
850.88	69.524
851.05	93.900
851.22	66.667
851.39	83.878
851.56	91.333
851.73	98.100
851.90	82.020
852.07	84.375
852.24	77.842
852.41	106.569
852.58	95.717
852.75	61.847
852.92	85.897
853.09	89.377
853.26	103.009
853.43	90.710
853.60	75.940
853.77	73.183
853.94	85.591
854.11	88.645
854.28	90.909
854.45	82.195
854.62	85.220
854.79	82.840
854.96	99.792
855.13	89.385
855.30	82.803
855.47	82.308
855.64	70.602
855.81	76.364
855.98	97.859
856.15	88.950
856.32	100.513
856.49	79.195
856.66	97.989
856.83	91.603
857.00	72.655
857.17	91.373
857.34	86.986
857.51	102.360
857.68	93.870
857.85	67.204
858.02	88.889
858.19	79.080
858.36	96.212
858.53	85.616
858.70	93.664
858.87	88.281
859.04	76.774
859.21	72.078
859.38	82.095
859.55	84.382
859.72	88.889
859.89	107.214
860.05	93.671
860.22	84.335
860.39	86.574
860.56	90.452
860.73	86.513
860.90	116.210
861.07	96.324
861.24	79.070
861.41	82.343
861.58	70.350
861.75	93.701
861.92	88.742
862.09	77.525
862.26	147.436
862.43	87.935
862.59	79.529
862.76	123.030
862.93	117.490
863.10	89.091
863.27	64.286
863.44	119.865
863.61	93.379
863.78	108.073
863.95	90.427
864.12	91.481
864.29	78.212
864.45	94.203
864.62	75.238
864.79	94.326
864.96	119.048
865.13	62.209
865.30	113.968
865.47	99.487
865.64	146.865
865.81	79.006
865.97	66.849
866.14	84.028
866.31	71.579
866.48	101.493
866.65	78.019
866.82	115.333
866.99	89.498
867.16	108.403
867.33	79.343
867.49	75.049
867.66	72.464
867.83	87.162
868.00	71.692
868.17	106.452
868.34	112.100
868.51	106.984
868.67	93.682
868.84	114.325
869.01	81.481
869.18	66.042
869.35	99.591
869.52	80.417
869.69	84.418
869.85	81.421
870.02	79.580
870.19	110.165
870.36	115.217
870.53	78.512
870.70	120.556
870.86	111.905
871.03	83.439
871.20	83.828
871.37	101.720
871.54	103.395
871.71	65.891
871.87	68.448
872.04	79.732
872.21	82.852
872.38	100.714
872.55	109.456
872.72	69.243
872.88	87.002
873.05	83.019
873.22	58.730
873.39	73.333
873.56	81.481
873.72	95.798
873.89	95.783
874.06	92.208
874.23	80.169
874.40	101.223
874.56	83.696
874.73	126.836
874.90	72.428
875.07	106.972
875.24	67.836
875.40	110.000
875.57	91.045
875.74	97.436
875.91	85.049
876.08	101.701
876.24	70.000
876.41	92.833
876.58	70.760
876.75	74.160
876.92	79.503
877.08	86.745
877.25	73.556
877.42	104.474
877.59	82.329
877.75	90.018
877.92	94.490
878.09	105.333
878.26	101.026
878.42	85.281
878.59	88.015
878.76	80.871
878.93	76.054
879.09	76.648
879.26	84.149
879.43	84.909
879.60	75.083
879.76	78.522
879.93	80.784
880.10	53.199
880.27	52.482
880.43	49.686
880.60	75.126
880.77	48.848
880.94	58.830
881.10	54.627
881.27	48.019
881.44	40.685
881.61	45.166
881.77	50.832
881.94	41.640
882.11	36.471
882.28	41.207
882.44	40.846
882.61	42.181
882.78	49.459
882.94	51.952
883.11	50.069
883.28	41.106
883.45	45.755
883.61	43.889
883.78	42.329
883.95	48.529
884.11	41.703
884.28	41.295
>>>>>End Processed Spectral Data<<<<<
