SpectraSuite Data File
++++++++++++++++++++++++++++++++++++
Date: Sun Sep 22 03:34:36 EST 2019
User: sgrac
Dark Spectrum Present: Yes
Reference Spectrum Present: Yes
Number of Sampled Component Spectra: 1
Spectrometers: USB4E01596
Integration Time (usec): 100000 (USB4E01596)
Spectra Averaged: 3 (USB4E01596)
Boxcar Smoothing: 0 (USB4E01596)
Correct for Electrical Dark: No (USB4E01596)
Strobe/Lamp Enabled: Yes (USB4E01596)
Correct for Detector Non-linearity: No (USB4E01596)
Correct for Stray Light: No (USB4E01596)
Number of Pixels in Processed Spectrum: 3648
>>>>>Begin Processed Spectral Data<<<<<
178.44	723.810
178.66	723.810
178.87	723.810
179.09	-179.630
179.30	-412.963
179.52	210.753
179.74	11700.000
179.95	1125.926
180.17	10200.000
180.38	314.815
180.60	-562.500
180.82	2933.333
181.03	-271.111
181.25	500.000
181.46	-195.238
181.68	-381.667
181.89	414.706
182.11	528.571
182.33	1895.238
182.54	252.874
182.76	1015.152
182.97	-769.048
183.19	321.368
183.40	-447.619
183.62	253.086
183.84	369.524
184.05	11000.000
184.27	355.000
184.48	241.135
184.70	526.190
184.91	766.667
185.13	-6650.000
185.34	892.857
185.56	-542.857
185.78	347.778
185.99	349.020
186.21	236.232
186.42	2508.333
186.64	144.737
186.85	-391.667
187.07	377.083
187.28	-2375.000
187.50	995.238
187.72	1021.212
187.93	-666.667
188.15	455.556
188.36	345.045
188.58	182.564
188.79	361.290
189.01	489.744
189.22	-1233.333
189.44	187.671
189.65	4766.667
189.87	2453.333
190.09	0.000
190.30	913.889
190.52	-417.949
190.73	646.377
190.95	434.524
191.16	656.667
191.38	-964.103
191.59	12133.333
191.81	233.333
192.02	917.778
192.24	-6750.000
192.45	-662.222
192.67	336.806
192.88	210.101
193.10	11433.333
193.31	-730.952
193.53	1326.667
193.74	270.940
193.96	240.816
194.18	314.912
194.39	-2155.556
194.61	902.778
194.82	209.697
195.04	1409.524
195.25	1006.667
195.47	-466.667
195.68	-289.286
195.90	311.458
196.11	876.923
196.33	296.914
196.54	419.192
196.76	1661.111
196.97	-460.417
197.19	816.667
197.40	437.374
197.62	310.101
197.83	-1187.500
198.05	2300.000
198.26	192.040
198.48	902.222
198.69	-430.303
198.91	-3622.222
199.12	408.571
199.34	241.358
199.55	491.228
199.77	-510.526
199.98	-900.000
200.20	305.926
200.41	416.667
200.63	255.102
200.84	-1229.167
201.06	2013.333
201.27	427.778
201.49	-1385.714
201.70	0.000
201.91	671.667
202.13	234.722
202.34	409.877
202.56	963.636
202.77	439.080
202.99	-783.333
203.20	-951.852
203.42	185.088
203.63	310.185
203.85	247.799
204.06	784.615
204.28	628.889
204.49	-9700.000
204.71	340.541
204.92	541.111
205.14	475.758
205.35	484.127
205.56	253.061
205.78	1310.000
205.99	8500.000
206.21	737.255
206.42	236.667
206.64	4322.222
206.85	217.361
207.07	191.667
207.28	215.847
207.50	442.857
207.71	430.667
207.93	557.971
208.14	-1073.333
208.35	-2744.444
208.57	1106.667
208.78	260.870
209.00	208.081
209.21	371.717
209.43	155.556
209.64	1279.167
209.86	311.111
210.07	869.231
210.28	822.222
210.50	335.833
210.71	295.745
210.93	741.667
211.14	-10233.333
211.36	317.778
211.57	-10300.000
211.78	-2908.333
212.00	366.667
212.21	1260.000
212.43	300.000
212.64	633.333
212.86	383.908
213.07	-3033.333
213.29	262.500
213.50	-624.561
213.71	217.486
213.93	1266.667
214.14	930.952
214.36	828.205
214.57	537.879
214.78	174.892
215.00	218.095
215.21	581.481
215.43	524.000
215.64	-8800.000
215.86	872.222
216.07	-710.256
216.28	926.667
216.50	-432.051
216.71	1900.000
216.93	713.725
217.14	-463.492
217.35	195.312
217.57	928.889
217.78	554.902
218.00	3244.444
218.21	266.667
218.42	1181.481
218.64	3688.889
218.85	1466.667
219.07	-874.074
219.28	-455.556
219.49	440.741
219.71	282.222
219.92	343.590
220.14	478.261
220.35	4566.667
220.56	222.807
220.78	434.444
220.99	-1533.333
221.21	0.000
221.42	319.540
221.63	796.970
221.85	240.678
222.06	229.252
222.28	289.655
222.49	462.821
222.70	976.667
222.92	274.667
223.13	212.222
223.34	-650.000
223.56	182.684
223.77	214.184
223.99	669.444
224.20	222.764
224.41	328.788
224.63	164.889
224.84	347.126
225.05	180.952
225.27	164.734
225.48	216.667
225.69	227.778
225.91	123.457
226.12	212.207
226.34	98.382
226.55	124.638
226.76	178.363
226.98	154.825
227.19	195.161
227.40	287.500
227.62	115.333
227.83	96.622
228.04	115.464
228.26	77.135
228.47	142.683
228.69	76.134
228.90	55.294
229.11	63.180
229.33	50.700
229.54	43.581
229.75	47.264
229.97	46.847
230.18	35.642
230.39	26.566
230.61	33.541
230.82	53.846
231.03	23.517
231.25	43.206
231.46	42.718
231.67	46.537
231.89	45.556
232.10	53.109
232.31	39.548
232.53	41.026
232.74	45.417
232.95	52.874
233.17	50.260
233.38	51.934
233.59	70.256
233.81	55.667
234.02	53.016
234.23	36.697
234.45	65.775
234.66	45.950
234.87	57.078
235.09	69.012
235.30	45.528
235.51	56.466
235.73	46.538
235.94	58.706
236.15	53.949
236.36	59.232
236.58	34.293
236.79	45.090
237.00	54.417
237.22	45.098
237.43	41.150
237.64	50.885
237.86	50.590
238.07	58.099
238.28	56.375
238.50	50.181
238.71	52.095
238.92	51.336
239.13	47.278
239.35	48.421
239.56	51.961
239.77	57.449
239.99	38.148
240.20	43.895
240.41	40.789
240.63	43.590
240.84	48.214
241.05	25.780
241.26	38.381
241.48	23.798
241.69	28.118
241.90	18.686
242.12	23.368
242.33	17.271
242.54	21.417
242.75	24.050
242.97	25.344
243.18	19.653
243.39	15.939
243.61	20.261
243.82	22.209
244.03	19.601
244.24	15.449
244.46	20.370
244.67	24.262
244.88	18.854
245.09	17.463
245.31	23.021
245.52	19.195
245.73	23.847
245.95	32.968
246.16	24.507
246.37	20.673
246.58	22.189
246.80	18.605
247.01	19.621
247.22	12.715
247.43	13.824
247.65	16.530
247.86	16.382
248.07	13.311
248.28	11.575
248.50	12.178
248.71	12.388
248.92	12.375
249.13	13.891
249.35	14.078
249.56	12.615
249.77	13.004
249.98	14.337
250.20	16.101
250.41	19.398
250.62	21.585
250.83	16.007
251.05	19.809
251.26	19.522
251.47	21.778
251.68	16.831
251.90	19.356
252.11	23.027
252.32	22.536
252.53	21.537
252.75	18.086
252.96	21.581
253.17	14.096
253.38	16.013
253.59	12.161
253.81	15.081
254.02	15.719
254.23	19.789
254.44	20.865
254.66	14.939
254.87	16.692
255.08	21.797
255.29	23.658
255.50	23.110
255.72	24.672
255.93	25.527
256.14	19.952
256.35	24.201
256.57	26.104
256.78	19.758
256.99	23.019
257.20	34.648
257.41	21.313
257.63	17.023
257.84	22.978
258.05	25.788
258.26	15.631
258.47	18.626
258.69	15.716
258.90	10.598
259.11	19.477
259.32	15.614
259.53	12.484
259.75	12.965
259.96	7.815
260.17	10.843
260.38	10.343
260.59	11.216
260.81	11.264
261.02	10.107
261.23	10.635
261.44	10.698
261.65	10.250
261.87	8.952
262.08	9.380
262.29	9.919
262.50	9.419
262.71	12.340
262.92	14.187
263.14	9.866
263.35	13.944
263.56	11.845
263.77	15.533
263.98	16.308
264.20	16.834
264.41	15.761
264.62	17.698
264.83	16.648
265.04	16.057
265.25	17.548
265.47	15.073
265.68	15.986
265.89	10.425
266.10	15.220
266.31	16.688
266.52	19.461
266.74	14.568
266.95	13.519
267.16	17.691
267.37	12.986
267.58	13.703
267.79	9.559
268.01	12.922
268.22	15.286
268.43	14.006
268.64	12.493
268.85	13.436
269.06	11.175
269.27	14.389
269.49	11.685
269.70	13.435
269.91	12.397
270.12	10.931
270.33	12.194
270.54	11.879
270.75	15.036
270.97	12.156
271.18	14.872
271.39	10.157
271.60	12.729
271.81	9.901
272.02	13.112
272.23	11.516
272.45	10.741
272.66	7.049
272.87	12.267
273.08	9.191
273.29	11.902
273.50	10.252
273.71	9.673
273.92	6.527
274.14	10.698
274.35	7.949
274.56	9.985
274.77	11.172
274.98	10.088
275.19	10.669
275.40	11.534
275.61	11.830
275.83	12.646
276.04	13.376
276.25	15.446
276.46	12.129
276.67	15.493
276.88	14.064
277.09	12.510
277.30	10.584
277.51	11.864
277.73	14.637
277.94	11.418
278.15	10.761
278.36	14.286
278.57	7.644
278.78	11.967
278.99	9.392
279.20	12.375
279.41	15.046
279.62	9.421
279.84	11.018
280.05	13.917
280.26	11.544
280.47	12.339
280.68	17.120
280.89	13.896
281.10	13.257
281.31	14.249
281.52	12.529
281.73	9.899
281.94	10.174
282.16	10.607
282.37	11.382
282.58	8.700
282.79	11.191
283.00	10.793
283.21	11.425
283.42	10.638
283.63	10.476
283.84	13.001
284.05	9.926
284.26	9.989
284.47	9.942
284.68	10.418
284.89	11.444
285.11	9.259
285.32	9.963
285.53	9.743
285.74	10.794
285.95	9.589
286.16	8.166
286.37	9.369
286.58	7.495
286.79	6.986
287.00	9.607
287.21	6.882
287.42	7.794
287.63	8.107
287.84	8.690
288.05	10.373
288.26	8.436
288.48	11.212
288.69	9.025
288.90	8.704
289.11	10.791
289.32	11.005
289.53	8.856
289.74	7.988
289.95	7.594
290.16	7.918
290.37	10.529
290.58	9.290
290.79	8.814
291.00	5.963
291.21	7.277
291.42	8.715
291.63	9.052
291.84	9.514
292.05	5.184
292.26	7.462
292.47	7.529
292.68	10.360
292.89	9.256
293.10	9.884
293.31	9.759
293.52	9.310
293.73	8.052
293.94	6.916
294.15	8.102
294.36	9.694
294.57	11.542
294.79	9.988
295.00	7.035
295.21	9.984
295.42	10.073
295.63	7.606
295.84	7.091
296.05	9.561
296.26	6.171
296.47	6.180
296.68	6.488
296.89	6.935
297.10	9.184
297.31	9.176
297.52	6.062
297.73	7.882
297.94	5.863
298.15	6.778
298.36	6.486
298.57	6.203
298.78	7.041
298.99	5.606
299.20	6.458
299.41	7.209
299.62	5.727
299.83	6.579
300.04	6.205
300.25	8.100
300.46	9.784
300.67	7.112
300.88	8.026
301.09	6.151
301.30	9.397
301.50	5.523
301.71	9.442
301.92	10.698
302.13	6.615
302.34	7.592
302.55	7.821
302.76	7.899
302.97	5.203
303.18	8.360
303.39	7.469
303.60	7.119
303.81	6.482
304.02	7.566
304.23	6.285
304.44	6.823
304.65	8.491
304.86	8.945
305.07	7.244
305.28	8.165
305.49	8.825
305.70	10.546
305.91	7.879
306.12	6.844
306.33	7.714
306.54	7.876
306.75	8.104
306.96	13.295
307.17	7.020
307.38	8.884
307.58	8.263
307.79	9.582
308.00	6.805
308.21	9.636
308.42	8.577
308.63	7.697
308.84	9.189
309.05	9.180
309.26	7.885
309.47	6.250
309.68	7.078
309.89	8.547
310.10	7.154
310.31	7.533
310.52	7.305
310.73	8.660
310.94	4.619
311.14	6.274
311.35	5.239
311.56	8.936
311.77	7.168
311.98	4.985
312.19	6.783
312.40	6.569
312.61	6.782
312.82	6.460
313.03	6.709
313.24	7.051
313.45	6.776
313.66	6.318
313.86	6.647
314.07	7.624
314.28	8.416
314.49	7.934
314.70	7.139
314.91	9.035
315.12	6.407
315.33	8.231
315.54	7.694
315.75	5.588
315.96	5.844
316.16	8.256
316.37	8.311
316.58	6.563
316.79	6.969
317.00	9.954
317.21	7.902
317.42	9.492
317.63	7.909
317.84	6.753
318.05	7.658
318.25	8.721
318.46	6.618
318.67	8.475
318.88	6.392
319.09	8.464
319.30	5.156
319.51	9.904
319.72	7.353
319.93	7.626
320.13	8.889
320.34	9.566
320.55	8.736
320.76	10.940
320.97	6.659
321.18	9.889
321.39	8.834
321.60	6.805
321.80	8.148
322.01	8.544
322.22	8.953
322.43	7.230
322.64	8.794
322.85	8.817
323.06	8.732
323.27	7.457
323.47	9.538
323.68	7.973
323.89	6.549
324.10	8.767
324.31	5.549
324.52	8.406
324.73	7.102
324.93	6.557
325.14	8.752
325.35	8.309
325.56	7.393
325.77	10.368
325.98	6.419
326.19	5.025
326.39	5.494
326.60	8.295
326.81	5.879
327.02	5.662
327.23	5.233
327.44	7.038
327.64	6.690
327.85	5.029
328.06	7.628
328.27	9.831
328.48	7.954
328.69	5.692
328.90	6.147
329.10	6.168
329.31	6.765
329.52	8.236
329.73	7.254
329.94	7.774
330.15	7.966
330.35	6.995
330.56	7.447
330.77	5.812
330.98	7.843
331.19	6.431
331.39	7.710
331.60	7.707
331.81	8.769
332.02	7.232
332.23	8.301
332.44	6.480
332.64	6.478
332.85	7.568
333.06	7.893
333.27	6.877
333.48	7.187
333.68	7.076
333.89	7.251
334.10	6.006
334.31	8.795
334.52	7.604
334.72	6.456
334.93	8.408
335.14	7.855
335.35	7.799
335.56	6.789
335.76	4.031
335.97	6.618
336.18	7.541
336.39	6.621
336.60	8.309
336.80	6.993
337.01	4.920
337.22	8.664
337.43	7.914
337.64	7.169
337.84	7.371
338.05	6.473
338.26	8.833
338.47	8.528
338.68	6.929
338.88	8.353
339.09	6.190
339.30	5.665
339.51	6.117
339.71	6.543
339.92	7.786
340.13	7.795
340.34	6.972
340.55	5.778
340.75	8.184
340.96	5.367
341.17	8.329
341.38	6.177
341.58	8.208
341.79	6.215
342.00	7.096
342.21	7.671
342.41	5.791
342.62	5.892
342.83	6.074
343.04	4.933
343.24	7.148
343.45	7.031
343.66	8.398
343.87	7.977
344.07	5.840
344.28	5.365
344.49	6.953
344.70	8.114
344.90	5.270
345.11	6.301
345.32	6.642
345.53	5.921
345.73	8.313
345.94	7.313
346.15	7.674
346.36	6.770
346.56	7.095
346.77	6.781
346.98	6.934
347.19	7.144
347.39	5.130
347.60	5.018
347.81	6.230
348.02	6.752
348.22	4.772
348.43	6.315
348.64	5.087
348.84	6.701
349.05	5.171
349.26	7.372
349.47	7.113
349.67	6.070
349.88	7.201
350.09	5.867
350.30	9.315
350.50	6.631
350.71	5.400
350.92	6.067
351.12	6.944
351.33	6.863
351.54	7.602
351.74	6.576
351.95	5.033
352.16	5.953
352.37	6.433
352.57	5.423
352.78	6.064
352.99	7.345
353.19	6.152
353.40	5.150
353.61	8.805
353.82	8.684
354.02	5.675
354.23	5.189
354.44	7.754
354.64	6.389
354.85	5.389
355.06	6.731
355.26	4.626
355.47	6.948
355.68	7.331
355.88	7.255
356.09	6.163
356.30	4.788
356.51	5.958
356.71	4.941
356.92	4.375
357.13	7.264
357.33	7.378
357.54	4.926
357.75	5.206
357.95	6.146
358.16	4.525
358.37	7.561
358.57	5.122
358.78	7.106
358.99	5.964
359.19	6.656
359.40	5.803
359.61	5.932
359.81	6.579
360.02	6.428
360.23	5.628
360.43	5.381
360.64	5.286
360.85	5.592
361.05	3.819
361.26	7.444
361.47	5.758
361.67	6.533
361.88	4.958
362.09	5.793
362.29	4.604
362.50	4.856
362.70	3.978
362.91	6.082
363.12	5.578
363.32	5.464
363.53	6.079
363.74	5.566
363.94	5.280
364.15	6.506
364.36	5.978
364.56	5.121
364.77	7.193
364.98	8.145
365.18	6.192
365.39	6.397
365.59	4.343
365.80	4.656
366.01	7.387
366.21	6.136
366.42	5.620
366.63	7.048
366.83	6.842
367.04	5.608
367.24	7.442
367.45	5.721
367.66	4.884
367.86	7.302
368.07	6.448
368.28	5.713
368.48	6.431
368.69	5.222
368.89	6.774
369.10	5.744
369.31	4.860
369.51	6.284
369.72	8.480
369.92	7.705
370.13	6.832
370.34	7.060
370.54	4.556
370.75	8.005
370.95	6.003
371.16	6.339
371.37	6.007
371.57	5.672
371.78	6.295
371.98	6.121
372.19	7.664
372.40	7.451
372.60	6.524
372.81	6.250
373.01	5.250
373.22	6.198
373.43	6.703
373.63	6.935
373.84	6.163
374.04	6.165
374.25	7.326
374.46	6.554
374.66	6.671
374.87	7.541
375.07	4.931
375.28	6.302
375.48	6.806
375.69	7.348
375.90	5.020
376.10	5.753
376.31	5.424
376.51	5.571
376.72	6.734
376.92	4.867
377.13	6.867
377.34	7.803
377.54	6.589
377.75	7.843
377.95	6.289
378.16	6.978
378.36	7.062
378.57	6.980
378.77	6.738
378.98	7.472
379.19	6.717
379.39	6.321
379.60	6.634
379.80	6.729
380.01	7.104
380.21	7.139
380.42	8.072
380.62	7.487
380.83	7.915
381.04	6.722
381.24	8.725
381.45	7.980
381.65	5.960
381.86	7.695
382.06	8.424
382.27	5.778
382.47	7.346
382.68	9.084
382.88	6.984
383.09	7.222
383.29	7.025
383.50	9.407
383.71	7.752
383.91	8.261
384.12	7.060
384.32	9.065
384.53	7.495
384.73	6.939
384.94	7.317
385.14	7.456
385.35	7.154
385.55	8.043
385.76	7.695
385.96	7.955
386.17	9.199
386.37	9.276
386.58	8.282
386.78	9.759
386.99	7.478
387.19	9.496
387.40	7.550
387.60	10.964
387.81	8.999
388.01	9.278
388.22	10.095
388.42	11.252
388.63	11.493
388.83	10.556
389.04	8.997
389.24	10.390
389.45	9.880
389.65	10.297
389.86	9.858
390.06	10.688
390.27	10.118
390.47	11.702
390.68	10.755
390.88	12.753
391.09	12.358
391.29	13.866
391.50	11.424
391.70	13.039
391.91	11.895
392.11	12.206
392.32	12.876
392.52	13.501
392.73	13.021
392.93	13.868
393.14	12.798
393.34	13.104
393.55	14.230
393.75	14.170
393.95	13.366
394.16	14.719
394.36	14.649
394.57	15.158
394.77	15.137
394.98	14.815
395.18	15.835
395.39	14.573
395.59	15.611
395.80	15.617
396.00	15.516
396.21	16.040
396.41	15.223
396.61	16.640
396.82	17.097
397.02	17.270
397.23	17.541
397.43	17.154
397.64	15.789
397.84	18.465
398.05	15.862
398.25	18.234
398.45	15.667
398.66	18.466
398.86	16.953
399.07	18.864
399.27	16.674
399.48	18.091
399.68	17.571
399.89	18.105
400.09	17.647
400.29	17.644
400.50	18.037
400.70	19.168
400.91	17.995
401.11	18.202
401.32	17.871
401.52	17.695
401.72	19.436
401.93	19.389
402.13	18.390
402.34	18.757
402.54	18.156
402.75	19.759
402.95	18.254
403.15	20.197
403.36	18.531
403.56	19.749
403.77	18.428
403.97	19.986
404.17	18.666
404.38	19.930
404.58	18.155
404.79	19.077
404.99	19.650
405.19	19.969
405.40	18.822
405.60	19.209
405.81	19.934
406.01	19.527
406.21	19.068
406.42	19.550
406.62	19.454
406.83	19.776
407.03	20.230
407.23	19.258
407.44	19.231
407.64	20.371
407.85	19.347
408.05	19.770
408.25	19.786
408.46	20.106
408.66	19.251
408.87	19.606
409.07	18.999
409.27	19.600
409.48	19.415
409.68	20.347
409.88	18.034
410.09	18.795
410.29	19.893
410.50	20.473
410.70	18.209
410.90	19.005
411.11	19.029
411.31	19.301
411.51	19.422
411.72	19.531
411.92	18.794
412.12	19.514
412.33	19.053
412.53	19.353
412.74	17.787
412.94	19.011
413.14	19.168
413.35	19.797
413.55	19.419
413.75	20.177
413.96	18.696
414.16	19.150
414.36	18.528
414.57	19.224
414.77	18.273
414.97	19.162
415.18	18.676
415.38	18.560
415.58	18.988
415.79	19.249
415.99	18.518
416.19	18.615
416.40	18.665
416.60	18.143
416.80	19.017
417.01	18.383
417.21	18.172
417.41	19.193
417.62	18.366
417.82	18.322
418.02	18.222
418.23	18.995
418.43	17.576
418.63	18.341
418.84	17.721
419.04	18.214
419.24	18.233
419.45	18.738
419.65	18.293
419.85	18.289
420.06	18.756
420.26	18.609
420.46	18.238
420.67	18.439
420.87	18.106
421.07	18.011
421.28	17.925
421.48	17.983
421.68	17.833
421.88	17.861
422.09	17.599
422.29	17.975
422.49	18.175
422.70	18.425
422.90	18.337
423.10	17.869
423.31	18.381
423.51	18.531
423.71	18.060
423.91	17.968
424.12	18.170
424.32	18.307
424.52	17.923
424.73	17.872
424.93	17.486
425.13	17.987
425.33	17.654
425.54	17.455
425.74	17.738
425.94	18.077
426.15	17.866
426.35	17.808
426.55	17.868
426.75	18.127
426.96	17.759
427.16	18.218
427.36	18.500
427.57	18.320
427.77	17.952
427.97	18.359
428.17	18.301
428.38	18.275
428.58	17.555
428.78	18.186
428.98	17.831
429.19	18.192
429.39	17.414
429.59	17.465
429.79	16.970
430.00	17.952
430.20	17.419
430.40	18.043
430.60	16.370
430.81	17.847
431.01	16.939
431.21	17.671
431.41	17.020
431.62	17.375
431.82	17.355
432.02	17.932
432.22	17.032
432.43	17.055
432.63	16.649
432.83	17.320
433.03	16.381
433.24	16.801
433.44	16.839
433.64	17.174
433.84	17.415
434.05	17.017
434.25	16.892
434.45	17.358
434.65	17.198
434.85	17.596
435.06	17.582
435.26	17.218
435.46	17.348
435.66	17.845
435.87	17.177
436.07	17.757
436.27	17.262
436.47	17.444
436.67	17.110
436.88	17.097
437.08	17.321
437.28	17.146
437.48	16.894
437.69	17.155
437.89	16.527
438.09	17.936
438.29	17.435
438.49	17.295
438.70	16.931
438.90	16.915
439.10	17.192
439.30	16.689
439.50	16.787
439.71	16.599
439.91	16.784
440.11	17.266
440.31	16.617
440.51	16.719
440.72	16.633
440.92	16.633
441.12	16.716
441.32	16.620
441.52	16.765
441.72	16.781
441.93	17.077
442.13	16.947
442.33	17.184
442.53	17.364
442.73	16.893
442.94	17.044
443.14	17.367
443.34	17.866
443.54	17.150
443.74	16.932
443.94	17.236
444.15	16.639
444.35	16.382
444.55	16.908
444.75	17.294
444.95	17.048
445.15	16.860
445.36	16.693
445.56	16.253
445.76	16.866
445.96	16.460
446.16	16.113
446.36	16.851
446.57	16.408
446.77	16.276
446.97	16.308
447.17	16.714
447.37	16.394
447.57	16.726
447.77	16.612
447.98	17.065
448.18	16.715
448.38	17.169
448.58	16.643
448.78	17.260
448.98	17.124
449.18	16.938
449.39	17.314
449.59	17.411
449.79	17.607
449.99	16.736
450.19	17.594
450.39	17.755
450.59	17.134
450.79	17.133
451.00	17.176
451.20	18.237
451.40	16.735
451.60	17.086
451.80	16.946
452.00	16.909
452.20	17.223
452.40	16.669
452.61	17.429
452.81	16.225
453.01	17.259
453.21	16.909
453.41	17.407
453.61	17.265
453.81	16.360
454.01	17.230
454.21	17.296
454.42	16.746
454.62	16.773
454.82	17.117
455.02	16.878
455.22	16.410
455.42	16.908
455.62	16.956
455.82	16.948
456.02	17.453
456.23	17.027
456.43	16.969
456.63	17.293
456.83	16.518
457.03	17.420
457.23	16.640
457.43	17.205
457.63	17.032
457.83	16.482
458.03	16.487
458.23	16.507
458.43	16.501
458.64	16.312
458.84	16.776
459.04	16.573
459.24	16.715
459.44	15.947
459.64	16.160
459.84	16.223
460.04	15.935
460.24	16.389
460.44	16.458
460.64	16.550
460.84	16.243
461.04	16.041
461.24	16.662
461.45	16.610
461.65	17.048
461.85	17.176
462.05	16.871
462.25	17.369
462.45	17.154
462.65	16.861
462.85	16.734
463.05	17.475
463.25	16.785
463.45	16.895
463.65	16.573
463.85	16.859
464.05	16.877
464.25	17.030
464.45	17.397
464.65	16.386
464.85	16.441
465.05	16.370
465.26	16.708
465.46	16.899
465.66	16.997
465.86	17.036
466.06	16.703
466.26	16.654
466.46	16.395
466.66	16.859
466.86	16.933
467.06	16.971
467.26	16.465
467.46	16.680
467.66	16.890
467.86	16.948
468.06	16.816
468.26	16.902
468.46	16.952
468.66	16.709
468.86	16.766
469.06	17.355
469.26	17.063
469.46	16.646
469.66	16.886
469.86	17.419
470.06	16.701
470.26	17.178
470.46	16.780
470.66	17.342
470.86	17.095
471.06	17.306
471.26	16.711
471.46	16.615
471.66	16.859
471.86	17.237
472.06	17.233
472.26	17.477
472.46	16.798
472.66	17.125
472.86	16.835
473.06	16.353
473.26	16.441
473.46	16.561
473.66	17.457
473.86	17.591
474.06	17.025
474.26	17.281
474.46	16.803
474.66	17.504
474.86	17.625
475.06	17.519
475.26	17.108
475.46	17.607
475.66	17.087
475.86	17.627
476.06	17.433
476.26	17.228
476.46	17.432
476.66	17.415
476.86	17.013
477.06	17.374
477.26	17.408
477.46	17.377
477.65	16.977
477.85	17.160
478.05	17.149
478.25	17.706
478.45	17.053
478.65	17.402
478.85	17.320
479.05	17.458
479.25	17.739
479.45	17.878
479.65	17.454
479.85	17.336
480.05	17.219
480.25	18.363
480.45	18.078
480.65	17.893
480.85	17.369
481.05	17.864
481.25	17.261
481.44	17.370
481.64	17.117
481.84	17.598
482.04	17.103
482.24	17.392
482.44	17.121
482.64	17.065
482.84	17.417
483.04	16.901
483.24	16.569
483.44	16.569
483.64	16.484
483.84	16.052
484.04	16.516
484.23	16.579
484.43	17.365
484.63	18.245
484.83	19.413
485.03	20.145
485.23	20.288
485.43	19.989
485.63	19.944
485.83	19.054
486.03	17.895
486.23	18.404
486.42	18.320
486.62	18.272
486.82	18.031
487.02	17.470
487.22	17.725
487.42	17.494
487.62	17.191
487.82	17.118
488.02	17.021
488.22	17.336
488.41	17.277
488.61	17.442
488.81	17.586
489.01	17.638
489.21	18.192
489.41	17.934
489.61	17.986
489.81	18.240
490.01	18.301
490.20	18.261
490.40	18.393
490.60	17.959
490.80	17.694
491.00	17.962
491.20	17.223
491.40	17.162
491.60	17.058
491.79	16.659
491.99	16.933
492.19	17.125
492.39	17.311
492.59	17.349
492.79	17.623
492.99	17.527
493.19	17.845
493.38	17.797
493.58	18.421
493.78	18.395
493.98	18.748
494.18	18.683
494.38	18.740
494.58	18.321
494.77	18.369
494.97	18.106
495.17	17.903
495.37	18.149
495.57	18.412
495.77	18.141
495.96	17.987
496.16	17.998
496.36	18.162
496.56	17.588
496.76	17.774
496.96	17.790
497.15	18.129
497.35	18.139
497.55	18.072
497.75	17.790
497.95	18.266
498.15	18.218
498.34	18.188
498.54	18.453
498.74	18.489
498.94	18.536
499.14	18.613
499.34	18.448
499.53	18.385
499.73	18.512
499.93	18.507
500.13	18.189
500.33	17.600
500.52	18.565
500.72	18.750
500.92	18.737
501.12	18.542
501.32	18.863
501.52	18.613
501.71	19.119
501.91	19.200
502.11	19.011
502.31	19.021
502.51	18.774
502.70	18.931
502.90	19.170
503.10	18.880
503.30	19.135
503.50	19.373
503.69	18.981
503.89	19.382
504.09	19.041
504.29	19.224
504.48	18.854
504.68	18.951
504.88	19.606
505.08	18.730
505.28	19.408
505.47	18.958
505.67	19.609
505.87	19.493
506.07	19.268
506.27	19.740
506.46	19.310
506.66	19.440
506.86	19.612
507.06	19.823
507.25	20.171
507.45	20.046
507.65	19.638
507.85	19.317
508.04	19.687
508.24	20.164
508.44	19.790
508.64	19.348
508.83	19.840
509.03	20.125
509.23	19.745
509.43	19.841
509.63	20.062
509.82	20.440
510.02	19.702
510.22	20.092
510.42	20.451
510.61	20.345
510.81	20.353
511.01	20.537
511.21	20.124
511.40	19.983
511.60	20.398
511.80	20.547
511.99	20.296
512.19	20.562
512.39	20.815
512.59	20.648
512.78	20.369
512.98	20.661
513.18	20.655
513.38	20.482
513.57	20.423
513.77	20.696
513.97	21.095
514.17	21.006
514.36	21.227
514.56	20.837
514.76	21.203
514.95	21.128
515.15	21.445
515.35	21.019
515.55	21.298
515.74	21.000
515.94	21.753
516.14	21.229
516.33	21.448
516.53	21.081
516.73	21.007
516.93	20.961
517.12	21.144
517.32	20.902
517.52	21.424
517.71	21.206
517.91	21.132
518.11	21.015
518.30	20.684
518.50	21.011
518.70	21.116
518.90	20.814
519.09	20.927
519.29	21.385
519.49	21.120
519.68	21.324
519.88	21.494
520.08	21.712
520.27	21.419
520.47	21.360
520.67	21.982
520.86	22.218
521.06	22.350
521.26	22.008
521.45	21.769
521.65	22.150
521.85	22.153
522.04	22.184
522.24	22.034
522.44	22.190
522.63	21.967
522.83	21.968
523.03	22.457
523.22	21.598
523.42	22.616
523.62	22.309
523.81	22.116
524.01	21.887
524.21	22.229
524.40	22.114
524.60	21.847
524.80	21.420
524.99	22.337
525.19	21.704
525.39	21.711
525.58	21.484
525.78	21.147
525.98	21.779
526.17	22.311
526.37	22.194
526.57	21.662
526.76	22.105
526.96	21.738
527.15	22.084
527.35	21.783
527.55	22.067
527.74	22.016
527.94	21.680
528.14	21.371
528.33	20.741
528.53	20.635
528.72	21.378
528.92	21.611
529.12	21.754
529.31	22.042
529.51	22.278
529.71	22.425
529.90	22.978
530.10	23.036
530.29	23.157
530.49	23.322
530.69	23.290
530.88	23.250
531.08	23.167
531.28	23.142
531.47	23.147
531.67	22.950
531.86	22.764
532.06	22.805
532.26	22.641
532.45	22.397
532.65	22.626
532.84	22.144
533.04	22.340
533.24	21.880
533.43	22.031
533.63	21.919
533.82	22.380
534.02	22.444
534.22	22.476
534.41	22.573
534.61	22.648
534.80	23.077
535.00	23.656
535.19	23.676
535.39	23.563
535.59	23.523
535.78	23.675
535.98	22.885
536.17	23.140
536.37	22.950
536.57	22.474
536.76	23.014
536.96	22.488
537.15	22.978
537.35	23.090
537.54	22.849
537.74	23.096
537.93	23.449
538.13	23.213
538.33	23.825
538.52	23.905
538.72	24.018
538.91	24.208
539.11	23.847
539.30	24.186
539.50	23.792
539.70	23.665
539.89	23.724
540.09	23.799
540.28	22.970
540.48	23.208
540.67	22.972
540.87	22.644
541.06	22.724
541.26	22.439
541.45	22.368
541.65	23.314
541.85	22.850
542.04	23.526
542.24	23.658
542.43	23.431
542.63	23.521
542.82	24.139
543.02	23.927
543.21	24.520
543.41	24.510
543.60	24.764
543.80	24.561
543.99	24.401
544.19	24.574
544.38	24.367
544.58	24.121
544.77	24.651
544.97	24.258
545.16	24.672
545.36	24.877
545.56	24.769
545.75	24.570
545.95	24.635
546.14	24.735
546.34	24.490
546.53	24.188
546.73	24.234
546.92	24.834
547.12	24.634
547.31	24.760
547.51	24.559
547.70	25.242
547.90	24.855
548.09	25.312
548.29	25.409
548.48	25.575
548.68	25.962
548.87	25.624
549.07	25.982
549.26	25.631
549.46	26.304
549.65	26.299
549.84	26.376
550.04	25.957
550.23	26.210
550.43	26.014
550.62	26.619
550.82	26.123
551.01	26.022
551.21	26.238
551.40	26.070
551.60	26.870
551.79	26.495
551.99	26.708
552.18	26.521
552.38	26.347
552.57	26.276
552.77	25.971
552.96	26.081
553.16	26.275
553.35	26.430
553.54	27.131
553.74	26.614
553.93	26.102
554.13	26.995
554.32	27.333
554.52	27.410
554.71	27.130
554.91	27.578
555.10	27.133
555.29	27.107
555.49	27.354
555.68	27.532
555.88	27.569
556.07	27.230
556.27	28.040
556.46	28.082
556.66	27.429
556.85	27.578
557.04	27.516
557.24	27.737
557.43	28.520
557.63	29.203
557.82	28.363
558.02	28.013
558.21	28.966
558.40	28.029
558.60	28.997
558.79	28.312
558.99	28.435
559.18	28.623
559.38	28.762
559.57	28.741
559.76	28.632
559.96	30.799
560.15	28.994
560.35	28.398
560.54	28.737
560.73	29.085
560.93	29.228
561.12	29.279
561.32	29.816
561.51	29.351
561.70	28.983
561.90	30.151
562.09	28.795
562.29	30.053
562.48	30.112
562.67	30.238
562.87	29.791
563.06	30.206
563.26	29.651
563.45	29.727
563.64	30.454
563.84	30.486
564.03	30.343
564.23	29.713
564.42	30.500
564.61	29.553
564.81	30.748
565.00	29.690
565.20	30.049
565.39	31.044
565.58	29.717
565.78	30.443
565.97	30.290
566.16	29.700
566.36	30.419
566.55	30.091
566.74	30.089
566.94	30.448
567.13	31.195
567.33	30.481
567.52	30.297
567.71	30.759
567.91	31.079
568.10	31.665
568.29	31.522
568.49	31.581
568.68	31.257
568.87	31.571
569.07	31.600
569.26	31.944
569.45	31.363
569.65	31.039
569.84	30.950
570.04	31.059
570.23	30.945
570.42	30.896
570.62	31.008
570.81	31.763
571.00	30.961
571.20	31.045
571.39	30.973
571.58	31.305
571.78	31.767
571.97	31.507
572.16	31.191
572.36	31.301
572.55	31.610
572.74	31.373
572.94	31.530
573.13	31.391
573.32	31.354
573.51	31.532
573.71	31.846
573.90	31.550
574.09	31.711
574.29	32.118
574.48	32.127
574.67	31.617
574.87	32.420
575.06	30.837
575.25	31.808
575.45	31.177
575.64	32.034
575.83	31.162
576.03	32.191
576.22	30.830
576.41	32.123
576.60	32.042
576.80	31.900
576.99	32.175
577.18	32.321
577.38	31.569
577.57	32.214
577.76	32.070
577.95	33.020
578.15	31.147
578.34	32.400
578.53	32.182
578.73	32.140
578.92	31.799
579.11	32.458
579.30	32.296
579.50	31.506
579.69	31.701
579.88	32.887
580.08	32.811
580.27	33.602
580.46	32.774
580.65	31.976
580.85	32.416
581.04	31.803
581.23	31.809
581.42	32.251
581.62	32.111
581.81	32.228
582.00	31.337
582.19	32.381
582.39	32.124
582.58	31.727
582.77	32.039
582.96	31.813
583.16	31.842
583.35	32.826
583.54	30.942
583.73	32.733
583.93	32.266
584.12	32.178
584.31	32.192
584.50	31.911
584.70	31.402
584.89	31.696
585.08	32.989
585.27	32.161
585.47	31.904
585.66	31.732
585.85	30.892
586.04	31.316
586.24	32.388
586.43	31.743
586.62	31.414
586.81	31.852
587.00	31.865
587.20	31.773
587.39	31.183
587.58	31.752
587.77	31.512
587.97	31.775
588.16	31.997
588.35	32.680
588.54	31.556
588.73	31.954
588.93	31.310
589.12	31.579
589.31	31.440
589.50	30.808
589.69	30.667
589.89	30.750
590.08	31.359
590.27	31.438
590.46	31.161
590.65	31.231
590.85	31.400
591.04	31.906
591.23	31.688
591.42	31.683
591.61	30.984
591.81	31.753
592.00	31.223
592.19	30.358
592.38	32.179
592.57	32.471
592.77	31.933
592.96	31.145
593.15	32.390
593.34	31.608
593.53	31.614
593.72	31.002
593.92	31.553
594.11	31.206
594.30	31.119
594.49	31.389
594.68	31.607
594.87	31.564
595.07	30.820
595.26	31.592
595.45	31.864
595.64	31.920
595.83	31.695
596.02	31.989
596.22	32.302
596.41	31.259
596.60	32.008
596.79	31.131
596.98	31.475
597.17	31.559
597.37	30.987
597.56	30.702
597.75	31.188
597.94	31.125
598.13	31.842
598.32	31.537
598.51	32.062
598.71	32.020
598.90	32.333
599.09	32.832
599.28	32.171
599.47	31.730
599.66	31.977
599.85	31.742
600.05	31.613
600.24	33.174
600.43	32.185
600.62	32.747
600.81	32.535
601.00	32.519
601.19	32.473
601.38	33.293
601.58	33.150
601.77	31.993
601.96	32.608
602.15	32.722
602.34	33.476
602.53	33.074
602.72	32.229
602.91	32.181
603.10	32.540
603.30	31.478
603.49	32.379
603.68	33.132
603.87	32.364
604.06	32.267
604.25	32.627
604.44	32.567
604.63	31.966
604.82	32.391
605.01	31.690
605.21	33.372
605.40	32.178
605.59	33.142
605.78	32.213
605.97	32.387
606.16	32.527
606.35	32.190
606.54	32.962
606.73	33.439
606.92	32.245
607.11	32.891
607.30	32.656
607.50	33.001
607.69	32.333
607.88	33.205
608.07	33.409
608.26	32.716
608.45	33.383
608.64	33.014
608.83	31.254
609.02	32.481
609.21	32.610
609.40	32.869
609.59	31.982
609.78	31.529
609.97	31.847
610.16	32.230
610.35	31.975
610.55	31.883
610.74	32.713
610.93	32.035
611.12	32.056
611.31	32.439
611.50	32.523
611.69	32.037
611.88	32.751
612.07	31.711
612.26	32.137
612.45	33.043
612.64	32.748
612.83	32.597
613.02	32.553
613.21	32.090
613.40	32.308
613.59	32.417
613.78	31.760
613.97	33.010
614.16	32.470
614.35	33.000
614.54	32.998
614.73	31.812
614.92	32.427
615.11	31.850
615.30	31.750
615.49	31.882
615.68	31.153
615.87	31.227
616.07	31.761
616.26	30.854
616.45	31.388
616.64	32.997
616.83	31.782
617.02	31.382
617.21	31.657
617.40	31.216
617.59	31.164
617.78	32.474
617.97	31.459
618.16	31.009
618.35	30.415
618.54	32.090
618.73	31.183
618.92	31.609
619.11	30.995
619.30	30.416
619.49	30.939
619.68	31.225
619.86	29.800
620.05	30.656
620.24	30.031
620.43	31.743
620.62	29.386
620.81	29.971
621.00	30.263
621.19	31.219
621.38	29.533
621.57	30.961
621.76	31.352
621.95	31.518
622.14	29.765
622.33	30.384
622.52	28.888
622.71	30.863
622.90	30.149
623.09	29.723
623.28	29.016
623.47	30.982
623.66	29.821
623.85	30.852
624.04	30.461
624.23	30.427
624.42	30.798
624.61	29.696
624.80	29.897
624.99	30.346
625.18	30.106
625.36	30.590
625.55	29.299
625.74	29.748
625.93	29.264
626.12	29.895
626.31	29.873
626.50	29.995
626.69	29.614
626.88	29.004
627.07	30.167
627.26	29.638
627.45	30.566
627.64	29.152
627.83	29.735
628.02	28.297
628.20	30.267
628.39	29.807
628.58	29.356
628.77	30.230
628.96	29.813
629.15	30.113
629.34	28.556
629.53	30.006
629.72	29.519
629.91	29.752
630.10	28.841
630.29	29.877
630.47	30.815
630.66	29.954
630.85	29.116
631.04	29.506
631.23	29.843
631.42	29.595
631.61	30.340
631.80	29.964
631.99	29.792
632.18	28.893
632.36	29.343
632.55	29.919
632.74	29.155
632.93	29.293
633.12	27.672
633.31	29.018
633.50	28.897
633.69	28.466
633.88	28.654
634.06	28.764
634.25	29.807
634.44	29.029
634.63	29.358
634.82	29.955
635.01	28.908
635.20	28.781
635.39	28.496
635.57	29.603
635.76	29.603
635.95	28.231
636.14	29.126
636.33	29.218
636.52	29.122
636.71	28.172
636.89	28.212
637.08	28.436
637.27	29.174
637.46	28.895
637.65	29.517
637.84	29.293
638.03	28.800
638.21	29.440
638.40	29.565
638.59	28.927
638.78	29.209
638.97	29.560
639.16	29.226
639.34	28.762
639.53	29.320
639.72	29.200
639.91	29.423
640.10	27.972
640.29	29.383
640.47	30.612
640.66	28.842
640.85	29.949
641.04	28.612
641.23	28.664
641.42	28.637
641.60	28.825
641.79	28.945
641.98	29.341
642.17	28.952
642.36	28.655
642.54	28.930
642.73	28.173
642.92	28.151
643.11	29.197
643.30	28.394
643.49	28.999
643.67	28.578
643.86	29.116
644.05	29.176
644.24	28.480
644.43	28.731
644.61	29.118
644.80	27.954
644.99	29.850
645.18	28.584
645.37	29.426
645.55	29.197
645.74	29.756
645.93	28.399
646.12	29.382
646.31	29.484
646.49	28.638
646.68	29.057
646.87	29.049
647.06	28.831
647.24	29.097
647.43	27.726
647.62	29.491
647.81	27.099
648.00	28.334
648.18	29.012
648.37	27.720
648.56	28.357
648.75	29.374
648.93	28.319
649.12	28.354
649.31	28.357
649.50	28.413
649.68	28.570
649.87	29.332
650.06	28.424
650.25	28.179
650.43	27.715
650.62	27.911
650.81	28.956
651.00	27.815
651.18	28.456
651.37	29.813
651.56	27.639
651.75	28.631
651.93	27.751
652.12	30.197
652.31	27.901
652.50	29.609
652.68	29.293
652.87	30.421
653.06	28.619
653.25	28.501
653.43	28.354
653.62	28.342
653.81	28.031
654.00	28.319
654.18	28.555
654.37	28.462
654.56	29.253
654.74	27.092
654.93	29.017
655.12	27.874
655.31	26.913
655.49	28.915
655.68	26.513
655.87	26.902
656.05	25.997
656.24	26.875
656.43	27.823
656.62	28.090
656.80	27.213
656.99	28.202
657.18	25.263
657.36	26.657
657.55	27.048
657.74	27.803
657.93	26.041
658.11	28.126
658.30	25.405
658.49	25.640
658.67	25.451
658.86	24.923
659.05	24.846
659.23	25.146
659.42	24.332
659.61	26.373
659.79	25.098
659.98	25.134
660.17	25.475
660.35	25.835
660.54	24.835
660.73	25.574
660.91	25.534
661.10	25.024
661.29	24.440
661.47	24.827
661.66	23.371
661.85	24.158
662.03	25.092
662.22	23.762
662.41	22.435
662.59	23.324
662.78	23.201
662.97	23.142
663.15	21.689
663.34	23.459
663.53	21.273
663.71	22.662
663.90	22.166
664.09	23.021
664.27	21.313
664.46	21.869
664.65	21.751
664.83	21.371
665.02	20.424
665.21	21.290
665.39	20.871
665.58	22.470
665.77	20.558
665.95	21.478
666.14	19.950
666.32	20.655
666.51	20.141
666.70	20.486
666.88	19.464
667.07	20.735
667.26	18.759
667.44	20.234
667.63	20.159
667.81	19.037
668.00	20.248
668.19	21.816
668.37	20.164
668.56	21.240
668.75	17.294
668.93	20.633
669.12	18.210
669.30	19.841
669.49	18.838
669.68	20.935
669.86	20.012
670.05	18.684
670.23	19.085
670.42	19.269
670.61	20.051
670.79	20.848
670.98	19.490
671.16	20.983
671.35	17.898
671.54	20.756
671.72	19.296
671.91	20.149
672.09	17.938
672.28	20.774
672.46	19.955
672.65	21.743
672.84	18.749
673.02	19.945
673.21	17.339
673.39	18.993
673.58	20.061
673.77	20.357
673.95	20.072
674.14	20.134
674.32	19.061
674.51	22.632
674.69	20.320
674.88	21.883
675.07	18.970
675.25	22.632
675.44	21.624
675.62	22.507
675.81	20.435
675.99	24.144
676.18	21.189
676.36	20.502
676.55	22.124
676.74	22.995
676.92	21.861
677.11	21.347
677.29	20.152
677.48	23.050
677.66	22.203
677.85	21.974
678.03	22.343
678.22	24.017
678.40	21.178
678.59	22.411
678.78	20.874
678.96	21.532
679.15	21.565
679.33	23.606
679.52	22.406
679.70	23.071
679.89	22.767
680.07	23.952
680.26	22.620
680.44	23.212
680.63	22.390
680.81	23.161
681.00	21.202
681.18	22.192
681.37	22.338
681.55	23.927
681.74	22.732
681.92	23.380
682.11	25.159
682.29	23.071
682.48	25.478
682.66	25.585
682.85	23.729
683.03	25.983
683.22	25.100
683.40	25.453
683.59	24.668
683.77	26.598
683.96	23.474
684.14	27.115
684.33	23.862
684.51	27.914
684.70	25.328
684.88	28.700
685.07	26.142
685.25	27.552
685.44	26.680
685.62	28.284
685.81	26.016
685.99	28.736
686.18	26.429
686.36	29.132
686.55	26.010
686.73	29.369
686.92	28.098
687.10	29.695
687.29	30.287
687.47	30.988
687.65	30.630
687.84	29.890
688.02	30.706
688.21	32.553
688.39	28.638
688.58	31.762
688.76	31.345
688.95	32.249
689.13	31.611
689.32	34.109
689.50	31.478
689.68	34.056
689.87	31.453
690.05	32.492
690.24	34.445
690.42	34.749
690.61	31.083
690.79	35.744
690.98	34.081
691.16	35.623
691.34	33.754
691.53	35.762
691.71	36.352
691.90	37.304
692.08	36.198
692.27	36.662
692.45	37.674
692.63	36.992
692.82	37.088
693.00	39.087
693.19	38.552
693.37	38.289
693.56	38.637
693.74	39.411
693.92	37.685
694.11	40.315
694.29	40.673
694.48	39.528
694.66	39.893
694.84	40.576
695.03	39.384
695.21	43.317
695.40	39.357
695.58	41.768
695.76	41.460
695.95	42.731
696.13	43.315
696.32	42.797
696.50	45.552
696.68	41.684
696.87	42.630
697.05	44.502
697.24	44.484
697.42	44.444
697.60	42.020
697.79	42.667
697.97	44.942
698.16	42.798
698.34	40.432
698.52	43.242
698.71	41.667
698.89	42.548
699.07	42.195
699.26	42.676
699.44	43.190
699.63	43.210
699.81	42.019
699.99	43.048
700.18	44.400
700.36	44.399
700.54	45.088
700.73	44.364
700.91	43.922
701.09	44.518
701.28	45.759
701.46	45.345
701.64	44.934
701.83	46.899
702.01	44.782
702.20	46.932
702.38	45.798
702.56	46.835
702.75	46.152
702.93	46.045
703.11	48.416
703.30	47.325
703.48	47.702
703.66	48.765
703.85	46.282
704.03	49.838
704.21	47.764
704.40	48.619
704.58	47.548
704.76	49.245
704.95	47.714
705.13	50.865
705.31	48.648
705.50	50.299
705.68	49.401
705.86	50.119
706.04	48.518
706.23	52.296
706.41	47.619
706.59	50.210
706.78	48.756
706.96	49.429
707.14	51.039
707.33	49.562
707.51	48.846
707.69	49.439
707.88	49.212
708.06	49.771
708.24	49.444
708.42	51.518
708.61	51.344
708.79	51.683
708.97	49.333
709.16	50.718
709.34	52.304
709.52	49.138
709.71	50.862
709.89	51.075
710.07	50.525
710.25	50.540
710.44	49.826
710.62	50.419
710.80	51.268
710.98	50.484
711.17	48.134
711.35	52.092
711.53	50.397
711.72	51.236
711.90	51.969
712.08	51.854
712.26	49.883
712.45	53.071
712.63	51.971
712.81	51.341
712.99	50.895
713.18	49.810
713.36	48.596
713.54	50.836
713.72	51.367
713.91	52.243
714.09	50.657
714.27	51.511
714.45	51.832
714.64	52.251
714.82	52.383
715.00	50.943
715.18	50.365
715.37	52.033
715.55	50.621
715.73	51.983
715.91	51.772
716.10	51.935
716.28	47.319
716.46	49.802
716.64	49.747
716.83	48.710
717.01	50.568
717.19	53.967
717.37	51.092
717.55	49.598
717.74	49.280
717.92	49.115
718.10	50.634
718.28	52.157
718.47	48.469
718.65	52.111
718.83	48.741
719.01	51.421
719.19	51.854
719.38	50.136
719.56	50.784
719.74	52.321
719.92	47.964
720.10	48.463
720.29	49.549
720.47	53.036
720.65	48.374
720.83	55.077
721.01	49.587
721.20	50.239
721.38	50.355
721.56	51.658
721.74	52.872
721.92	51.692
722.11	51.882
722.29	51.769
722.47	53.493
722.65	52.216
722.83	53.769
723.01	52.358
723.20	48.893
723.38	51.568
723.56	49.810
723.74	53.530
723.92	51.980
724.10	51.847
724.29	50.553
724.47	52.578
724.65	51.436
724.83	51.833
725.01	46.548
725.19	54.974
725.38	49.180
725.56	53.148
725.74	53.359
725.92	54.274
726.10	47.489
726.28	52.332
726.46	52.110
726.65	55.025
726.83	52.940
727.01	52.230
727.19	50.503
727.37	51.677
727.55	52.491
727.73	51.049
727.92	51.054
728.10	52.179
728.28	49.069
728.46	51.448
728.64	54.097
728.82	53.730
729.00	53.792
729.19	54.750
729.37	49.062
729.55	50.920
729.73	51.626
729.91	52.001
730.09	49.324
730.27	53.171
730.45	50.137
730.63	52.300
730.82	52.056
731.00	51.884
731.18	50.301
731.36	52.829
731.54	48.843
731.72	51.656
731.90	54.015
732.08	51.819
732.26	52.362
732.45	52.936
732.63	50.883
732.81	53.419
732.99	50.368
733.17	52.605
733.35	52.708
733.53	54.662
733.71	51.353
733.89	53.843
734.07	54.363
734.25	53.097
734.44	50.812
734.62	54.201
734.80	49.489
734.98	55.183
735.16	53.703
735.34	55.860
735.52	54.892
735.70	52.523
735.88	52.824
736.06	53.920
736.24	53.709
736.42	56.496
736.60	54.978
736.78	54.526
736.97	54.929
737.15	57.680
737.33	53.468
737.51	54.743
737.69	53.626
737.87	57.213
738.05	53.438
738.23	54.178
738.41	53.226
738.59	54.352
738.77	56.073
738.95	56.833
739.13	56.321
739.31	54.764
739.49	54.659
739.67	54.926
739.85	53.986
740.03	55.587
740.21	57.865
740.39	57.274
740.57	54.428
740.75	53.366
740.93	54.317
741.11	51.329
741.30	54.630
741.48	54.930
741.66	56.092
741.84	57.605
742.02	55.738
742.20	55.870
742.38	56.354
742.56	56.931
742.74	54.100
742.92	54.529
743.10	51.843
743.28	56.878
743.46	54.173
743.64	58.212
743.82	55.494
744.00	59.731
744.18	60.286
744.36	54.773
744.54	55.189
744.72	61.328
744.90	58.113
745.08	61.692
745.26	52.508
745.44	61.006
745.62	52.720
745.80	57.031
745.98	56.708
746.16	56.722
746.34	54.511
746.52	53.303
746.70	59.465
746.87	61.631
747.05	57.660
747.23	58.460
747.41	55.691
747.59	60.686
747.77	53.054
747.95	60.148
748.13	54.673
748.31	60.913
748.49	59.668
748.67	56.291
748.85	55.381
749.03	59.457
749.21	53.645
749.39	57.017
749.57	54.026
749.75	55.469
749.93	55.817
750.11	56.864
750.29	54.058
750.47	57.223
750.65	59.269
750.83	53.339
751.01	54.500
751.18	59.783
751.36	53.938
751.54	61.732
751.72	54.463
751.90	54.768
752.08	55.575
752.26	59.339
752.44	55.839
752.62	58.054
752.80	55.537
752.98	56.965
753.16	53.261
753.34	60.066
753.52	57.016
753.69	58.361
753.87	58.243
754.05	58.515
754.23	57.107
754.41	57.768
754.59	54.686
754.77	56.890
754.95	55.546
755.13	57.764
755.31	54.266
755.49	56.083
755.66	56.939
755.84	61.738
756.02	51.383
756.20	58.909
756.38	56.548
756.56	57.584
756.74	57.390
756.92	58.831
757.10	56.645
757.28	58.900
757.45	59.123
757.63	55.037
757.81	52.080
757.99	62.060
758.17	56.818
758.35	57.677
758.53	53.738
758.71	61.953
758.88	54.204
759.06	55.429
759.24	52.979
759.42	56.102
759.60	52.569
759.78	50.147
759.96	50.658
760.13	51.556
760.31	48.078
760.49	48.854
760.67	44.773
760.85	47.202
761.03	44.951
761.21	45.371
761.38	40.672
761.56	45.888
761.74	45.437
761.92	48.956
762.10	43.836
762.28	48.682
762.46	41.254
762.63	47.900
762.81	47.690
762.99	47.296
763.17	49.314
763.35	49.693
763.53	46.804
763.70	50.507
763.88	49.929
764.06	47.437
764.24	46.555
764.42	49.912
764.60	47.789
764.77	48.358
764.95	47.158
765.13	51.502
765.31	47.557
765.49	48.856
765.66	50.041
765.84	51.549
766.02	48.819
766.20	50.870
766.38	51.161
766.56	53.797
766.73	49.443
766.91	54.276
767.09	53.473
767.27	51.458
767.45	55.140
767.62	57.956
767.80	47.627
767.98	53.124
768.16	49.405
768.33	57.096
768.51	52.803
768.69	54.373
768.87	50.751
769.05	56.428
769.22	56.583
769.40	60.880
769.58	55.423
769.76	59.360
769.94	51.477
770.11	59.369
770.29	55.705
770.47	55.114
770.65	55.383
770.82	59.707
771.00	54.926
771.18	57.997
771.36	52.828
771.53	55.185
771.71	58.808
771.89	61.071
772.07	53.955
772.25	58.705
772.42	55.529
772.60	68.507
772.78	55.543
772.96	64.893
773.13	54.702
773.31	55.002
773.49	60.355
773.67	59.817
773.84	59.944
774.02	61.827
774.20	58.215
774.37	55.825
774.55	53.654
774.73	56.694
774.91	54.063
775.08	59.489
775.26	59.623
775.44	60.434
775.62	54.756
775.79	61.679
775.97	51.085
776.15	56.582
776.32	56.059
776.50	64.852
776.68	64.491
776.86	60.606
777.03	60.682
777.21	62.363
777.39	56.108
777.56	54.537
777.74	58.778
777.92	59.249
778.10	52.620
778.27	61.255
778.45	58.356
778.63	59.364
778.80	51.221
778.98	59.735
779.16	54.063
779.34	57.506
779.51	56.939
779.69	59.456
779.87	58.562
780.04	63.505
780.22	55.758
780.40	56.233
780.57	57.476
780.75	62.422
780.93	57.933
781.10	62.523
781.28	63.528
781.46	61.152
781.63	57.354
781.81	65.710
781.99	59.610
782.16	60.754
782.34	53.520
782.52	62.572
782.69	56.790
782.87	53.369
783.05	55.043
783.22	60.061
783.40	57.039
783.58	60.118
783.75	51.595
783.93	58.818
784.11	50.000
784.28	57.028
784.46	55.509
784.64	54.677
784.81	50.365
784.99	57.113
785.17	59.357
785.34	56.626
785.52	54.047
785.69	53.413
785.87	56.037
786.05	58.105
786.22	54.386
786.40	67.150
786.58	61.824
786.75	63.191
786.93	51.747
787.11	57.015
787.28	57.302
787.46	62.074
787.63	57.941
787.81	51.012
787.99	51.841
788.16	56.980
788.34	50.147
788.51	59.767
788.69	54.627
788.87	54.804
789.04	49.844
789.22	49.911
789.39	59.572
789.57	50.085
789.75	56.652
789.92	52.108
790.10	45.780
790.27	57.216
790.45	49.579
790.63	59.297
790.80	52.059
790.98	54.755
791.15	52.891
791.33	52.854
791.51	51.012
791.68	59.369
791.86	56.352
792.03	53.698
792.21	48.207
792.39	54.569
792.56	51.298
792.74	55.430
792.91	55.386
793.09	47.489
793.26	52.137
793.44	56.137
793.62	56.114
793.79	51.807
793.97	54.357
794.14	60.409
794.32	56.372
794.49	55.177
794.67	46.816
794.84	54.786
795.02	52.685
795.20	63.109
795.37	54.562
795.55	61.294
795.72	49.507
795.90	54.394
796.07	59.029
796.25	60.526
796.42	50.746
796.60	53.009
796.77	51.510
796.95	50.426
797.13	52.678
797.30	55.130
797.48	48.600
797.65	55.817
797.83	46.578
798.00	59.322
798.18	50.395
798.35	49.294
798.53	50.877
798.70	54.974
798.88	57.101
799.05	55.482
799.23	51.672
799.40	51.378
799.58	54.820
799.75	55.927
799.93	54.389
800.10	51.968
800.28	55.946
800.45	54.566
800.63	50.647
800.80	55.250
800.98	51.821
801.15	52.397
801.33	50.287
801.50	53.821
801.68	54.902
801.85	50.694
802.03	53.382
802.20	55.062
802.38	55.594
802.55	50.109
802.73	54.648
802.90	49.411
803.08	51.115
803.25	59.287
803.43	59.875
803.60	56.124
803.78	52.317
803.95	56.569
804.13	53.322
804.30	59.028
804.48	49.748
804.65	56.627
804.83	48.668
805.00	45.026
805.17	54.713
805.35	58.974
805.52	57.646
805.70	52.778
805.87	58.099
806.05	54.667
806.22	55.260
806.40	52.670
806.57	47.681
806.75	61.754
806.92	51.348
807.09	55.749
807.27	53.053
807.44	55.515
807.62	56.023
807.79	48.400
807.97	51.607
808.14	53.971
808.31	50.064
808.49	51.124
808.66	50.089
808.84	52.445
809.01	55.621
809.19	51.647
809.36	56.701
809.53	48.496
809.71	50.759
809.88	60.977
810.06	58.936
810.23	51.936
810.41	54.203
810.58	56.622
810.75	44.163
810.93	55.007
811.10	50.536
811.28	61.587
811.45	50.960
811.62	49.962
811.80	50.000
811.97	54.036
812.15	62.737
812.32	56.695
812.49	59.693
812.67	52.885
812.84	41.667
813.02	55.528
813.19	45.117
813.36	59.449
813.54	45.657
813.71	62.041
813.89	56.057
814.06	59.467
814.23	57.984
814.41	49.037
814.58	53.938
814.75	56.200
814.93	51.190
815.10	65.245
815.28	53.926
815.45	47.788
815.62	53.243
815.80	44.122
815.97	50.956
816.14	59.888
816.32	54.591
816.49	39.107
816.66	49.740
816.84	44.821
817.01	49.777
817.18	46.652
817.36	54.401
817.53	60.481
817.71	38.629
817.88	45.658
818.05	39.307
818.23	48.344
818.40	47.039
818.57	44.224
818.75	45.720
818.92	51.953
819.09	43.675
819.27	52.335
819.44	44.708
819.61	39.290
819.79	44.838
819.96	55.482
820.13	45.131
820.31	51.571
820.48	49.504
820.65	47.770
820.82	46.821
821.00	46.899
821.17	37.304
821.34	50.790
821.52	41.509
821.69	44.456
821.86	44.135
822.04	44.266
822.21	46.890
822.38	49.281
822.56	45.723
822.73	48.196
822.90	44.997
823.07	48.471
823.25	46.764
823.42	44.727
823.59	46.254
823.77	45.342
823.94	46.906
824.11	47.049
824.29	46.783
824.46	47.085
824.63	46.661
824.80	48.860
824.98	50.534
825.15	47.990
825.32	45.517
825.49	49.154
825.67	49.492
825.84	51.815
826.01	47.128
826.19	49.558
826.36	44.879
826.53	51.783
826.70	46.812
826.88	49.564
827.05	47.165
827.22	47.657
827.39	45.945
827.57	44.088
827.74	45.987
827.91	51.775
828.08	43.315
828.26	45.760
828.43	44.695
828.60	50.637
828.77	43.729
828.95	48.181
829.12	42.272
829.29	43.224
829.46	49.339
829.64	44.763
829.81	43.165
829.98	52.411
830.15	44.035
830.32	44.592
830.50	44.533
830.67	53.292
830.84	46.763
831.01	42.836
831.19	48.897
831.36	47.681
831.53	48.647
831.70	53.022
831.87	42.454
832.05	55.139
832.22	52.053
832.39	37.972
832.56	46.429
832.74	42.878
832.91	38.746
833.08	54.894
833.25	38.846
833.42	46.805
833.60	43.736
833.77	33.887
833.94	39.435
834.11	43.089
834.28	40.230
834.45	45.998
834.63	40.460
834.80	40.547
834.97	40.690
835.14	45.204
835.31	43.330
835.49	46.105
835.66	41.118
835.83	46.151
836.00	43.274
836.17	43.691
836.34	41.934
836.52	43.352
836.69	45.277
836.86	48.961
837.03	43.425
837.20	43.416
837.37	41.297
837.55	41.747
837.72	43.942
837.89	42.465
838.06	45.770
838.23	55.087
838.40	52.517
838.58	50.955
838.75	59.943
838.92	59.602
839.09	64.596
839.26	55.444
839.43	55.659
839.60	58.387
839.78	72.793
839.95	64.519
840.12	49.507
840.29	57.685
840.46	66.140
840.63	55.959
840.80	48.934
840.98	56.341
841.15	56.091
841.32	39.754
841.49	42.785
841.66	62.729
841.83	46.452
842.00	55.961
842.17	73.313
842.34	53.612
842.52	58.514
842.69	56.735
842.86	53.838
843.03	61.839
843.20	64.218
843.37	54.116
843.54	51.779
843.71	55.934
843.88	67.561
844.06	68.247
844.23	70.056
844.40	65.328
844.57	72.059
844.74	81.609
844.91	53.846
845.08	76.555
845.25	67.138
845.42	81.322
845.59	68.803
845.76	61.202
845.94	69.231
846.11	51.000
846.28	79.647
846.45	88.415
846.62	82.492
846.79	76.970
846.96	82.155
847.13	81.462
847.30	73.090
847.47	98.795
847.64	70.812
847.81	68.130
847.98	92.157
848.15	82.265
848.32	96.337
848.50	112.500
848.67	90.278
848.84	89.385
849.01	104.938
849.18	69.350
849.35	105.161
849.52	87.719
849.69	89.655
849.86	92.177
850.03	87.500
850.20	122.574
850.37	63.178
850.54	94.048
850.71	94.683
850.88	83.810
851.05	95.643
851.22	64.314
851.39	81.917
851.56	96.667
851.73	96.891
851.90	99.394
852.07	87.500
852.24	73.796
852.41	102.190
852.58	86.592
852.75	71.486
852.92	87.436
853.09	97.070
853.26	112.500
853.43	72.495
853.60	95.489
853.77	87.218
853.94	103.871
854.11	93.773
854.28	86.869
854.45	78.054
854.62	88.679
854.79	83.629
854.96	96.250
855.13	88.454
855.30	107.219
855.47	96.923
855.64	68.056
855.81	91.515
855.98	103.364
856.15	86.004
856.32	113.846
856.49	91.051
856.66	111.494
856.83	99.491
857.00	78.842
857.17	113.333
857.34	88.356
857.51	120.944
857.68	94.253
857.85	81.720
858.02	101.275
858.19	91.724
858.36	94.886
858.53	97.717
858.70	108.540
858.87	82.292
859.04	75.914
859.21	84.632
859.38	85.333
859.55	103.030
859.72	88.889
859.89	118.408
860.05	111.814
860.22	77.778
860.39	97.917
860.56	96.482
860.73	103.661
860.90	99.087
861.07	110.539
861.24	80.620
861.41	91.089
861.58	77.348
861.75	93.438
861.92	92.936
862.09	97.980
862.26	137.607
862.43	95.297
862.59	84.601
862.76	135.455
862.93	126.132
863.10	93.333
863.27	75.325
863.44	95.623
863.61	101.370
863.78	123.958
863.95	105.641
864.12	92.407
864.29	85.847
864.45	97.516
864.62	88.190
864.79	94.090
864.96	113.988
865.13	78.101
865.30	113.651
865.47	108.462
865.64	129.043
865.81	80.479
865.97	72.860
866.14	94.271
866.31	67.719
866.48	94.030
866.65	78.261
866.82	136.667
866.99	87.062
867.16	107.003
867.33	78.873
867.49	87.329
867.66	78.468
867.83	85.360
868.00	83.250
868.17	106.452
868.34	121.233
868.51	117.143
868.67	93.682
868.84	115.978
869.01	68.333
869.18	68.958
869.35	87.117
869.52	75.000
869.69	93.097
869.85	77.778
870.02	102.102
870.19	102.600
870.36	95.652
870.53	86.777
870.70	147.778
870.86	99.405
871.03	82.590
871.20	86.964
871.37	106.667
871.54	106.173
871.71	64.147
871.87	79.644
872.04	87.102
872.21	94.990
872.38	109.524
872.55	114.894
872.72	61.353
872.88	78.826
873.05	86.373
873.22	56.944
873.39	71.250
873.56	83.236
873.72	115.686
873.89	92.570
874.06	95.887
874.23	80.380
874.40	109.786
874.56	81.703
874.73	106.497
874.90	88.066
875.07	96.950
875.24	75.244
875.40	94.615
875.57	86.816
875.74	97.436
875.91	88.971
876.08	112.585
876.24	95.455
876.41	87.500
876.58	86.745
876.75	80.879
876.92	85.300
877.08	93.372
877.25	86.444
877.42	103.803
877.59	85.944
877.75	88.770
877.92	106.887
878.09	97.333
878.26	96.154
878.42	95.022
878.59	84.082
878.76	89.015
878.93	81.418
879.09	87.006
879.26	87.646
879.43	77.612
879.60	87.129
879.76	67.869
879.93	78.431
880.10	57.912
880.27	63.121
880.43	54.874
880.60	71.465
880.77	45.008
880.94	51.104
881.10	46.265
881.27	42.899
881.44	38.429
881.61	44.372
881.77	49.035
881.94	40.615
882.11	31.996
882.28	37.105
882.44	38.299
882.61	37.631
882.78	45.022
882.94	47.722
883.11	41.649
883.28	40.618
883.45	42.642
883.61	40.992
883.78	38.459
883.95	45.959
884.11	42.361
884.28	41.456
>>>>>End Processed Spectral Data<<<<<
