SpectraSuite Data File
++++++++++++++++++++++++++++++++++++
Date: Sun Sep 22 03:42:09 EST 2019
User: sgrac
Dark Spectrum Present: Yes
Reference Spectrum Present: Yes
Number of Sampled Component Spectra: 1
Spectrometers: USB4E01596
Integration Time (usec): 100000 (USB4E01596)
Spectra Averaged: 3 (USB4E01596)
Boxcar Smoothing: 0 (USB4E01596)
Correct for Electrical Dark: No (USB4E01596)
Strobe/Lamp Enabled: Yes (USB4E01596)
Correct for Detector Non-linearity: No (USB4E01596)
Correct for Stray Light: No (USB4E01596)
Number of Pixels in Processed Spectrum: 3648
>>>>>Begin Processed Spectral Data<<<<<
178.44	816.667
178.66	816.667
178.87	816.667
179.09	-168.519
179.30	-394.444
179.52	215.591
179.74	9933.333
179.95	1111.111
180.17	10566.667
180.38	288.889
180.60	-647.917
180.82	3708.333
181.03	-261.111
181.25	502.899
181.46	-191.667
181.68	-416.667
181.89	491.176
182.11	576.190
182.33	1709.524
182.54	380.460
182.76	915.152
182.97	-604.762
183.19	354.701
183.40	-449.206
183.62	320.988
183.84	313.333
184.05	10300.000
184.27	306.667
184.48	249.645
184.70	540.476
184.91	806.667
185.13	-6666.667
185.34	1102.381
185.56	-711.905
185.78	383.333
185.99	376.471
186.21	292.029
186.42	2816.667
186.64	137.719
186.85	-520.833
187.07	348.958
187.28	-2950.000
187.50	1304.762
187.72	945.455
187.93	-622.917
188.15	449.495
188.36	413.514
188.58	201.538
188.79	356.989
189.01	533.333
189.22	-1146.667
189.44	207.763
189.65	5150.000
189.87	2480.000
190.09	0.000
190.30	1011.111
190.52	-342.308
190.73	589.855
190.95	501.190
191.16	663.333
191.38	-876.923
191.59	10833.333
191.81	209.942
192.02	817.778
192.24	-5766.667
192.45	-731.111
192.67	314.583
192.88	232.828
193.10	10766.667
193.31	-980.952
193.53	1303.333
193.74	261.538
193.96	292.517
194.18	351.754
194.39	-2250.000
194.61	827.778
194.82	262.424
195.04	1247.619
195.25	896.667
195.47	-449.020
195.68	-315.476
195.90	342.708
196.11	964.103
196.33	285.802
196.54	437.374
196.76	1544.444
196.97	-458.333
197.19	926.190
197.40	555.556
197.62	365.657
197.83	-1395.833
198.05	2172.222
198.26	196.517
198.48	820.000
198.69	-378.788
198.91	-3466.667
199.12	357.143
199.34	216.667
199.55	573.684
199.77	-414.035
199.98	-866.667
200.20	292.593
200.41	393.860
200.63	287.755
200.84	-1304.167
201.06	2266.667
201.27	573.611
201.49	-1623.810
201.70	0.000
201.91	536.667
202.13	274.306
202.34	362.963
202.56	1100.000
202.77	456.322
202.99	-952.778
203.20	-974.074
203.42	187.281
203.63	338.889
203.85	252.830
204.06	776.923
204.28	660.000
204.49	-12366.667
204.71	372.072
204.92	431.111
205.14	507.576
205.35	504.762
205.56	210.204
205.78	1586.667
205.99	9100.000
206.21	639.216
206.42	251.111
206.64	3866.667
206.85	245.833
207.07	198.889
207.28	208.743
207.50	552.381
207.71	465.333
207.93	560.870
208.14	-950.000
208.35	-2933.333
208.57	1036.667
208.78	322.464
209.00	244.444
209.21	373.737
209.43	188.889
209.64	1291.667
209.86	292.929
210.07	782.051
210.28	811.111
210.50	277.500
210.71	314.894
210.93	689.583
211.14	-10333.333
211.36	324.444
211.57	-12766.667
211.78	-3191.667
212.00	471.930
212.21	1300.000
212.43	297.872
212.64	936.364
212.86	380.460
213.07	-3741.667
213.29	204.861
213.50	-538.596
213.71	249.727
213.93	1336.667
214.14	878.571
214.36	864.103
214.57	543.939
214.78	181.385
215.00	218.095
215.21	616.667
215.43	544.000
215.64	-9833.333
215.86	816.667
216.07	-820.513
216.28	963.333
216.50	-379.487
216.71	2146.667
216.93	656.863
217.14	-546.032
217.35	217.187
217.57	895.556
217.78	523.529
218.00	3755.556
218.21	244.654
218.42	1351.852
218.64	3411.111
218.85	1555.556
219.07	-885.185
219.28	-480.247
219.49	424.691
219.71	345.926
219.92	312.821
220.14	592.754
220.35	5233.333
220.56	266.667
220.78	326.667
220.99	-1677.778
221.21	0.000
221.42	318.391
221.63	972.727
221.85	210.169
222.06	205.442
222.28	328.736
222.49	474.359
222.70	993.333
222.92	295.333
223.13	218.333
223.34	-713.889
223.56	189.610
223.77	246.099
223.99	855.556
224.20	254.472
224.41	290.152
224.63	164.000
224.84	364.368
225.05	199.471
225.27	174.879
225.48	240.000
225.69	276.984
225.91	152.675
226.12	217.840
226.34	121.036
226.55	151.691
226.76	155.556
226.98	160.965
227.19	213.441
227.40	281.250
227.62	124.667
227.83	107.883
228.04	142.268
228.26	75.207
228.47	135.366
228.69	79.487
228.90	71.176
229.11	48.117
229.33	50.000
229.54	47.585
229.75	50.373
229.97	47.848
230.18	38.873
230.39	30.808
230.61	29.699
230.82	50.296
231.03	27.403
231.25	39.954
231.46	46.926
231.67	44.697
231.89	55.926
232.10	48.632
232.31	37.853
232.53	46.581
232.74	48.472
232.95	49.754
233.17	45.833
233.38	41.989
233.59	74.701
233.81	58.167
234.02	57.619
234.23	38.532
234.45	76.114
234.66	53.115
234.87	56.469
235.09	70.017
235.30	51.382
235.51	57.902
235.73	47.949
235.94	50.912
236.15	66.399
236.36	60.223
236.58	37.770
236.79	46.641
237.00	52.415
237.22	43.137
237.43	50.442
237.64	46.460
237.86	51.622
238.07	62.911
238.28	58.218
238.50	46.691
238.71	46.266
238.92	49.942
239.13	49.270
239.35	55.322
239.56	51.120
239.77	54.167
239.99	47.778
240.20	34.690
240.41	42.544
240.63	38.363
240.84	42.460
241.05	39.879
241.26	38.476
241.48	25.561
241.69	25.548
241.90	20.823
242.12	20.912
242.33	21.196
242.54	23.174
242.75	19.192
242.97	24.702
243.18	18.213
243.39	15.977
243.61	17.493
243.82	19.856
244.03	17.419
244.24	15.183
244.46	20.635
244.67	18.485
244.88	21.200
245.09	16.620
245.31	19.788
245.52	19.556
245.73	25.577
245.95	35.629
246.16	23.105
246.37	22.276
246.58	19.840
246.80	19.745
247.01	18.864
247.22	14.227
247.43	12.209
247.65	14.337
247.86	14.548
248.07	11.296
248.28	9.835
248.50	11.634
248.71	9.902
248.92	9.558
249.13	13.891
249.35	11.258
249.56	13.447
249.77	11.759
249.98	11.294
250.20	14.858
250.41	15.669
250.62	19.214
250.83	18.729
251.05	20.355
251.26	22.519
251.47	25.877
251.68	18.750
251.90	13.641
252.11	24.032
252.32	23.477
252.53	22.124
252.75	15.110
252.96	18.785
253.17	14.137
253.38	16.607
253.59	12.200
253.81	13.625
254.02	16.232
254.23	17.502
254.44	20.319
254.66	12.185
254.87	16.946
255.08	19.405
255.29	30.275
255.50	24.907
255.72	21.522
255.93	21.314
256.14	22.356
256.35	25.310
256.57	27.041
256.78	15.778
256.99	20.252
257.20	33.794
257.41	21.702
257.63	16.893
257.84	25.189
258.05	27.597
258.26	16.097
258.47	16.264
258.69	15.438
258.90	12.049
259.11	16.706
259.32	16.049
259.53	11.089
259.75	14.369
259.96	8.219
260.17	10.697
260.38	10.930
260.59	9.880
260.81	9.152
261.02	9.091
261.23	8.232
261.44	9.172
261.65	8.384
261.87	8.706
262.08	7.661
262.29	9.919
262.50	9.671
262.71	10.942
262.92	12.142
263.14	10.684
263.35	11.406
263.56	11.670
263.77	14.845
263.98	15.556
264.20	14.898
264.41	16.152
264.62	15.373
264.83	16.100
265.04	16.982
265.25	14.777
265.47	13.661
265.68	11.127
265.89	11.349
266.10	14.889
266.31	18.486
266.52	18.708
266.74	11.876
266.95	13.667
267.16	15.148
267.37	10.972
267.58	14.914
267.79	9.007
268.01	13.751
268.22	12.264
268.43	9.942
268.64	9.630
268.85	13.572
269.06	10.355
269.27	11.275
269.49	9.902
269.70	12.213
269.91	13.192
270.12	10.475
270.33	14.252
270.54	11.788
270.75	14.023
270.97	13.327
271.18	13.264
271.39	10.790
271.60	11.869
271.81	10.408
272.02	11.598
272.23	10.982
272.45	11.709
272.66	8.201
272.87	10.265
273.08	9.258
273.29	7.980
273.50	8.983
273.71	8.436
273.92	6.049
274.14	8.626
274.35	7.168
274.56	9.013
274.77	10.582
274.98	9.135
275.19	10.595
275.40	11.457
275.61	11.188
275.83	12.321
276.04	11.564
276.25	13.774
276.46	11.325
276.67	14.907
276.88	11.303
277.09	11.019
277.30	10.802
277.51	11.604
277.73	15.154
277.94	11.642
278.15	9.682
278.36	13.361
278.57	9.096
278.78	12.497
278.99	9.952
279.20	14.437
279.41	13.026
279.62	8.402
279.84	9.364
280.05	12.991
280.26	13.815
280.47	10.944
280.68	15.680
280.89	11.856
281.10	14.453
281.31	10.913
281.52	13.656
281.73	8.859
281.94	9.706
282.16	9.890
282.37	11.832
282.58	9.693
282.79	10.785
283.00	10.815
283.21	9.229
283.42	11.416
283.63	10.725
283.84	9.783
284.05	10.050
284.26	10.054
284.47	9.365
284.68	9.796
284.89	12.338
285.11	9.115
285.32	10.004
285.53	9.899
285.74	9.937
285.95	9.399
286.16	7.496
286.37	8.910
286.58	7.285
286.79	5.882
287.00	9.575
287.21	6.170
287.42	6.887
287.63	6.379
287.84	8.893
288.05	9.222
288.26	7.341
288.48	10.785
288.69	7.119
288.90	8.795
289.11	10.478
289.32	11.423
289.53	9.851
289.74	7.559
289.95	8.153
290.16	7.858
290.37	9.831
290.58	9.386
290.79	9.068
291.00	6.189
291.21	6.248
291.42	9.335
291.63	9.052
291.84	7.774
292.05	5.814
292.26	7.949
292.47	7.286
292.68	9.069
292.89	7.772
293.10	9.864
293.31	9.641
293.52	9.842
293.73	8.139
293.94	7.925
294.15	7.855
294.36	7.859
294.57	12.147
294.79	9.392
295.00	5.665
295.21	8.998
295.42	9.381
295.63	8.666
295.84	6.652
296.05	9.526
296.26	6.778
296.47	6.215
296.68	5.544
296.89	5.842
297.10	9.276
297.31	9.693
297.52	6.135
297.73	7.055
297.94	6.012
298.15	5.835
298.36	5.872
298.57	6.076
298.78	7.621
298.99	5.214
299.20	6.156
299.41	7.074
299.62	6.127
299.83	7.179
300.04	6.744
300.25	7.246
300.46	8.557
300.67	6.667
300.88	7.258
301.09	5.680
301.30	8.888
301.50	6.125
301.71	9.738
301.92	10.454
302.13	7.678
302.34	9.065
302.55	7.574
302.76	7.664
302.97	5.339
303.18	8.884
303.39	7.023
303.60	6.119
303.81	7.501
304.02	7.943
304.23	6.644
304.44	7.034
304.65	8.530
304.86	8.479
305.07	8.115
305.28	6.929
305.49	7.805
305.70	10.085
305.91	8.419
306.12	7.260
306.33	7.676
306.54	7.513
306.75	7.286
306.96	10.921
307.17	7.314
307.38	8.443
307.58	8.925
307.79	7.963
308.00	7.702
308.21	9.577
308.42	7.198
308.63	9.169
308.84	9.035
309.05	9.180
309.26	8.288
309.47	5.795
309.68	7.596
309.89	8.086
310.10	7.868
310.31	8.600
310.52	7.049
310.73	9.232
310.94	3.760
311.14	7.218
311.35	5.379
311.56	8.541
311.77	6.726
311.98	3.901
312.19	6.769
312.40	5.282
312.61	4.968
312.82	5.723
313.03	7.123
313.24	7.516
313.45	7.174
313.66	7.937
313.86	6.028
314.07	7.818
314.28	8.068
314.49	9.145
314.70	7.066
314.91	8.230
315.12	5.986
315.33	8.398
315.54	8.202
315.75	6.162
315.96	5.280
316.16	8.147
316.37	10.739
316.58	7.170
316.79	8.053
317.00	9.028
317.21	7.212
317.42	9.731
317.63	9.292
317.84	7.578
318.05	8.757
318.25	8.411
318.46	7.749
318.67	8.381
318.88	7.384
319.09	7.122
319.30	6.183
319.51	8.643
319.72	6.607
319.93	9.162
320.13	8.697
320.34	9.020
320.55	8.080
320.76	9.992
320.97	7.496
321.18	10.259
321.39	8.233
321.60	7.313
321.80	7.116
322.01	9.389
322.22	8.871
322.43	8.607
322.64	10.027
322.85	9.477
323.06	8.732
323.27	7.301
323.47	9.817
323.68	8.485
323.89	7.099
324.10	8.502
324.31	6.744
324.52	10.803
324.73	8.395
324.93	5.993
325.14	8.600
325.35	9.042
325.56	8.116
325.77	9.367
325.98	7.124
326.19	4.958
326.39	6.343
326.60	9.147
326.81	6.181
327.02	5.711
327.23	6.718
327.44	6.927
327.64	6.821
327.85	4.119
328.06	7.380
328.27	9.945
328.48	8.359
328.69	5.910
328.90	6.904
329.10	6.347
329.31	6.695
329.52	7.844
329.73	7.918
329.94	7.594
330.15	8.878
330.35	6.941
330.56	7.076
330.77	6.112
330.98	8.617
331.19	6.689
331.39	6.179
331.60	9.448
331.81	7.411
332.02	7.626
332.23	7.843
332.44	5.532
332.64	7.297
332.85	8.588
333.06	8.790
333.27	7.038
333.48	7.951
333.68	8.047
333.89	6.945
334.10	6.231
334.31	9.751
334.52	6.746
334.72	6.935
334.93	7.112
335.14	7.855
335.35	7.799
335.56	6.970
335.76	4.167
335.97	6.896
336.18	7.994
336.39	6.964
336.60	7.867
336.80	7.199
337.01	5.064
337.22	8.329
337.43	7.196
337.64	6.133
337.84	6.130
338.05	7.795
338.26	9.985
338.47	8.330
338.68	6.992
338.88	7.208
339.09	6.254
339.30	5.353
339.51	5.465
339.71	7.523
339.92	7.161
340.13	7.281
340.34	6.113
340.55	5.825
340.75	8.294
340.96	4.435
341.17	8.783
341.38	6.773
341.58	8.370
341.79	5.442
342.00	6.785
342.21	7.790
342.41	5.310
342.62	5.526
342.83	6.773
343.04	4.648
343.24	6.414
343.45	7.643
343.66	8.277
343.87	6.635
344.07	5.112
344.28	5.410
344.49	5.857
344.70	7.312
344.90	6.037
345.11	6.006
345.32	6.028
345.53	4.825
345.73	6.976
345.94	7.718
346.15	5.842
346.36	6.189
346.56	6.194
346.77	6.898
346.98	6.777
347.19	7.222
347.39	4.942
347.60	5.652
347.81	6.552
348.02	7.276
348.22	5.326
348.43	5.926
348.64	5.560
348.84	5.950
349.05	6.492
349.26	6.913
349.47	6.598
349.67	5.693
349.88	7.246
350.09	5.139
350.30	9.566
350.50	6.317
350.71	5.711
350.92	5.740
351.12	5.878
351.33	5.756
351.54	8.786
351.74	6.234
351.95	5.989
352.16	5.367
352.37	7.406
352.57	5.798
352.78	4.894
352.99	6.910
353.19	5.866
353.40	4.784
353.61	7.681
353.82	8.462
354.02	4.127
354.23	5.202
354.44	7.674
354.64	5.729
354.85	5.153
355.06	6.485
355.26	4.827
355.47	5.929
355.68	6.581
355.88	7.217
356.09	6.365
356.30	4.593
356.51	6.480
356.71	4.514
356.92	5.022
357.13	7.024
357.33	6.681
357.54	5.744
357.75	3.538
357.95	6.123
358.16	5.188
358.37	8.118
358.57	4.311
358.78	7.085
358.99	5.568
359.19	6.381
359.40	5.977
359.61	6.062
359.81	6.513
360.02	6.999
360.23	5.628
360.43	6.018
360.64	5.400
360.85	5.666
361.05	4.450
361.26	7.523
361.47	5.416
361.67	6.868
361.88	4.550
362.09	5.273
362.29	4.091
362.50	4.397
362.70	3.552
362.91	5.963
363.12	5.655
363.32	4.851
363.53	5.417
363.74	5.770
363.94	4.728
364.15	6.411
364.36	6.419
364.56	5.648
364.77	6.889
364.98	8.583
365.18	5.680
365.39	6.717
365.59	4.093
365.80	5.191
366.01	7.478
366.21	5.680
366.42	5.968
366.63	7.058
366.83	6.654
367.04	4.852
367.24	6.884
367.45	6.221
367.66	5.130
367.86	6.739
368.07	6.933
368.28	5.378
368.48	5.574
368.69	5.080
368.89	5.834
369.10	5.653
369.31	5.602
369.51	6.017
369.72	8.352
369.92	6.752
370.13	6.338
370.34	7.839
370.54	4.660
370.75	7.010
370.95	6.180
371.16	5.937
371.37	5.945
371.57	4.683
371.78	5.262
371.98	6.044
372.19	7.815
372.40	7.265
372.60	6.231
372.81	6.536
373.01	5.457
373.22	6.118
373.43	6.703
373.63	6.581
373.84	5.967
374.04	6.146
374.25	7.696
374.46	6.799
374.66	7.559
374.87	7.531
375.07	4.845
375.28	5.856
375.48	7.113
375.69	8.121
375.90	4.674
376.10	5.203
376.31	5.715
376.51	5.764
376.72	6.913
376.92	5.190
377.13	6.993
377.34	7.666
377.54	6.962
377.75	8.450
377.95	6.713
378.16	7.383
378.36	7.594
378.57	7.776
378.77	7.362
378.98	8.062
379.19	6.757
379.39	6.338
379.60	7.257
379.80	7.265
380.01	7.944
380.21	7.334
380.42	8.880
380.62	7.660
380.83	8.739
381.04	7.596
381.24	8.666
381.45	8.989
381.65	6.761
381.86	8.879
382.06	9.255
382.27	6.478
382.47	7.573
382.68	9.864
382.88	6.872
383.09	7.346
383.29	7.896
383.50	10.378
383.71	8.244
383.91	9.365
384.12	8.387
384.32	9.929
384.53	9.209
384.73	7.734
384.94	8.711
385.14	9.943
385.35	8.440
385.55	10.356
385.76	9.065
385.96	9.780
386.17	10.951
386.37	11.347
386.58	10.097
386.78	11.742
386.99	9.790
387.19	12.993
387.40	10.099
387.60	13.267
387.81	11.524
388.01	11.938
388.22	13.250
388.42	14.289
388.63	14.097
388.83	14.087
389.04	12.141
389.24	13.951
389.45	14.473
389.65	14.180
389.86	13.673
390.06	14.728
390.27	13.689
390.47	16.070
390.68	14.622
390.88	16.560
391.09	16.389
391.29	17.516
391.50	16.085
391.70	16.968
391.91	16.905
392.11	17.245
392.32	18.477
392.52	18.621
392.73	18.010
392.93	19.550
393.14	18.674
393.34	19.245
393.55	20.250
393.75	21.075
393.95	20.344
394.16	21.041
394.36	20.660
394.57	21.737
394.77	21.217
394.98	21.744
395.18	22.367
395.39	22.185
395.59	23.410
395.80	23.089
396.00	23.136
396.21	23.647
396.41	23.324
396.61	24.805
396.82	24.659
397.02	25.835
397.23	25.623
397.43	25.681
397.64	24.756
397.84	26.181
398.05	24.080
398.25	26.615
398.45	24.868
398.66	26.997
398.86	26.329
399.07	27.882
399.27	25.963
399.48	27.000
399.68	27.073
399.89	27.140
400.09	27.234
400.29	28.546
400.50	27.524
400.70	29.173
400.91	27.688
401.11	28.588
401.32	27.958
401.52	28.239
401.72	29.619
401.93	28.932
402.13	28.804
402.34	29.565
402.54	29.219
402.75	29.803
402.95	28.440
403.15	30.157
403.36	30.629
403.56	29.591
403.77	28.775
403.97	29.958
404.17	28.561
404.38	30.099
404.58	29.325
404.79	28.752
404.99	30.350
405.19	30.593
405.40	29.389
405.60	29.987
405.81	30.924
406.01	30.675
406.21	30.040
406.42	30.409
406.62	30.340
406.83	30.206
407.03	31.178
407.23	30.255
407.44	30.689
407.64	31.872
407.85	30.709
408.05	30.961
408.25	30.031
408.46	30.676
408.66	30.701
408.87	30.237
409.07	30.060
409.27	31.360
409.48	29.817
409.68	31.197
409.88	30.046
410.09	29.704
410.29	31.749
410.50	31.047
410.70	28.966
410.90	30.086
411.11	29.773
411.31	30.063
411.51	30.002
411.72	31.012
411.92	29.561
412.12	31.638
412.33	30.044
412.53	30.867
412.74	29.312
412.94	29.725
413.14	30.645
413.35	30.540
413.55	30.253
413.75	30.933
413.96	29.100
414.16	30.843
414.36	29.800
414.57	30.536
414.77	29.728
414.97	30.169
415.18	29.184
415.38	29.521
415.58	29.122
415.79	29.577
415.99	29.019
416.19	29.323
416.40	29.581
416.60	28.373
416.80	28.871
417.01	29.169
417.21	28.829
417.41	29.025
417.62	28.964
417.82	28.746
418.02	28.072
418.23	29.120
418.43	27.948
418.63	28.050
418.84	28.202
419.04	28.224
419.24	29.116
419.45	28.386
419.65	28.058
419.85	27.761
420.06	28.275
420.26	28.174
420.46	28.124
420.67	28.734
420.87	27.943
421.07	27.648
421.28	27.890
421.48	27.856
421.68	27.655
421.88	28.213
422.09	27.812
422.29	28.244
422.49	28.165
422.70	28.328
422.90	27.917
423.10	27.576
423.31	28.372
423.51	28.732
423.71	27.731
423.91	27.760
424.12	27.929
424.32	28.248
424.52	27.742
424.73	26.976
424.93	27.412
425.13	27.507
425.33	27.432
425.54	26.704
425.74	27.348
425.94	28.086
426.15	27.739
426.35	27.582
426.55	28.096
426.75	27.488
426.96	27.900
427.16	29.118
427.36	28.386
427.57	28.231
427.77	27.946
427.97	28.085
428.17	28.373
428.38	28.507
428.58	28.014
428.78	27.929
428.98	28.122
429.19	28.211
429.39	27.508
429.59	27.590
429.79	27.179
430.00	27.618
430.20	27.016
430.40	28.049
430.60	27.053
430.81	27.593
431.01	27.341
431.21	27.519
431.41	26.665
431.62	27.089
431.82	27.722
432.02	27.096
432.22	27.832
432.43	27.291
432.63	26.476
432.83	27.119
433.03	25.557
433.24	27.115
433.44	26.416
433.64	26.774
433.84	26.486
434.05	26.814
434.25	26.546
434.45	26.785
434.65	26.854
434.85	27.154
435.06	27.228
435.26	27.270
435.46	27.064
435.66	28.068
435.87	26.885
436.07	27.374
436.27	27.483
436.47	27.508
436.67	27.453
436.88	27.048
437.08	27.403
437.28	26.864
437.48	27.235
437.69	27.646
437.89	26.884
438.09	27.524
438.29	27.045
438.49	26.980
438.70	27.410
438.90	26.606
439.10	27.268
439.30	26.261
439.50	26.631
439.71	25.743
439.91	26.735
440.11	26.701
440.31	26.205
440.51	26.151
440.72	26.497
440.92	26.380
441.12	26.096
441.32	26.573
441.52	26.144
441.72	26.228
441.93	27.252
442.13	26.776
442.33	27.328
442.53	27.069
442.73	26.768
442.94	27.472
443.14	27.907
443.34	27.939
443.54	27.220
443.74	26.921
443.94	27.141
444.15	27.054
444.35	27.411
444.55	27.388
444.75	27.037
444.95	26.849
445.15	26.442
445.36	26.403
445.56	26.594
445.76	26.476
445.96	26.182
446.16	25.721
446.36	26.104
446.57	25.903
446.77	26.590
446.97	25.590
447.17	26.555
447.37	26.467
447.57	26.535
447.77	26.659
447.98	26.935
448.18	26.633
448.38	26.669
448.58	26.767
448.78	27.421
448.98	27.105
449.18	27.169
449.39	27.591
449.59	27.658
449.79	27.523
449.99	27.035
450.19	27.667
450.39	27.379
450.59	27.034
450.79	27.362
451.00	27.055
451.20	28.415
451.40	27.313
451.60	27.599
451.80	26.880
452.00	26.786
452.20	27.047
452.40	26.965
452.61	27.399
452.81	26.149
453.01	26.992
453.21	27.040
453.41	27.135
453.61	26.573
453.81	26.913
454.01	26.987
454.21	27.359
454.42	26.986
454.62	26.581
454.82	26.810
455.02	27.184
455.22	26.437
455.42	27.127
455.62	26.862
455.82	26.956
456.02	27.381
456.23	26.813
456.43	26.455
456.63	27.388
456.83	26.262
457.03	27.082
457.23	26.771
457.43	27.412
457.63	26.858
457.83	26.185
458.03	26.273
458.23	26.210
458.43	26.125
458.64	26.436
458.84	26.055
459.04	25.506
459.24	25.959
459.44	25.518
459.64	25.364
459.84	25.338
460.04	24.751
460.24	25.208
460.44	25.623
460.64	26.141
460.84	26.213
461.04	25.467
461.24	26.259
461.45	26.133
461.65	26.496
461.85	27.287
462.05	27.023
462.25	27.276
462.45	27.311
462.65	27.121
462.85	26.955
463.05	27.528
463.25	26.984
463.45	26.855
463.65	26.502
463.85	26.896
464.05	27.046
464.25	26.730
464.45	27.293
464.65	26.460
464.85	26.208
465.05	26.248
465.26	26.280
465.46	26.627
465.66	26.454
465.86	26.466
466.06	25.984
466.26	26.235
466.46	26.713
466.66	26.384
466.86	26.244
467.06	26.443
467.26	26.350
467.46	25.938
467.66	26.622
467.86	26.284
468.06	26.865
468.26	26.198
468.46	26.353
468.66	26.518
468.86	26.093
469.06	26.685
469.26	26.694
469.46	26.562
469.66	26.625
469.86	26.932
470.06	26.765
470.26	26.559
470.46	26.110
470.66	26.749
470.86	26.654
471.06	26.541
471.26	26.392
471.46	26.351
471.66	27.002
471.86	26.670
472.06	26.741
472.26	26.891
472.46	26.637
472.66	26.683
472.86	27.152
473.06	26.307
473.26	26.305
473.46	26.135
473.66	27.072
473.86	27.261
474.06	26.942
474.26	27.280
474.46	27.106
474.66	27.359
474.86	27.557
475.06	27.469
475.26	26.996
475.46	27.261
475.66	26.811
475.86	27.566
476.06	27.148
476.26	27.290
476.46	27.595
476.66	26.878
476.86	26.786
477.06	27.315
477.26	27.330
477.46	27.279
477.65	26.435
477.85	27.555
478.05	26.359
478.25	26.972
478.45	26.703
478.65	27.203
478.85	26.956
479.05	27.052
479.25	26.680
479.45	27.928
479.65	27.299
479.85	27.159
480.05	26.782
480.25	28.179
480.45	27.720
480.65	27.791
480.85	27.523
481.05	28.181
481.25	27.501
481.44	27.525
481.64	26.878
481.84	27.344
482.04	27.536
482.24	27.495
482.44	26.814
482.64	26.550
482.84	26.507
483.04	26.454
483.24	25.693
483.44	25.894
483.64	25.355
483.84	25.074
484.04	25.605
484.23	26.177
484.43	27.118
484.63	29.036
484.83	30.184
485.03	31.909
485.23	31.524
485.43	31.367
485.63	31.529
485.83	29.948
486.03	28.309
486.23	28.989
486.42	28.776
486.62	28.798
486.82	28.340
487.02	27.701
487.22	27.440
487.42	27.022
487.62	26.985
487.82	27.172
488.02	26.803
488.22	27.148
488.41	27.253
488.61	27.717
488.81	27.689
489.01	27.648
489.21	28.162
489.41	28.335
489.61	28.015
489.81	28.836
490.01	28.206
490.20	28.680
490.40	28.925
490.60	28.638
490.80	27.972
491.00	27.554
491.20	27.108
491.40	27.023
491.60	26.468
491.79	26.426
491.99	26.885
492.19	26.951
492.39	26.777
492.59	27.551
492.79	27.294
492.99	27.510
493.19	28.075
493.38	28.223
493.58	28.566
493.78	28.950
493.98	28.739
494.18	28.754
494.38	28.836
494.58	28.696
494.77	28.619
494.97	28.681
495.17	28.136
495.37	28.164
495.57	28.256
495.77	28.014
495.96	28.013
496.16	27.997
496.36	27.706
496.56	27.679
496.76	27.378
496.96	27.773
497.15	27.896
497.35	27.659
497.55	27.793
497.75	27.731
497.95	27.678
498.15	28.154
498.34	27.874
498.54	28.411
498.74	28.247
498.94	28.415
499.14	28.702
499.34	28.779
499.53	28.362
499.73	28.665
499.93	28.816
500.13	28.644
500.33	28.707
500.52	29.109
500.72	29.056
500.92	29.043
501.12	28.900
501.32	29.573
501.52	29.063
501.71	29.678
501.91	29.491
502.11	29.532
502.31	29.320
502.51	29.090
502.70	29.753
502.90	30.307
503.10	30.049
503.30	29.460
503.50	29.826
503.69	29.746
503.89	29.538
504.09	29.867
504.29	29.332
504.48	29.396
504.68	30.027
504.88	29.981
505.08	29.845
505.28	29.965
505.47	29.752
505.67	30.161
505.87	30.456
506.07	29.725
506.27	31.248
506.46	30.172
506.66	30.576
506.86	30.346
507.06	30.450
507.25	31.957
507.45	31.071
507.65	30.100
507.85	30.603
508.04	30.729
508.24	31.166
508.44	31.178
508.64	30.785
508.83	31.046
509.03	30.890
509.23	30.849
509.43	30.653
509.63	31.027
509.82	31.560
510.02	30.924
510.22	31.438
510.42	31.887
510.61	31.325
510.81	32.056
511.01	31.155
511.21	31.961
511.40	31.516
511.60	31.901
511.80	32.183
511.99	31.729
512.19	31.888
512.39	32.714
512.59	32.352
512.78	32.132
512.98	31.950
513.18	32.476
513.38	32.142
513.57	31.867
513.77	32.308
513.97	32.822
514.17	31.907
514.36	32.947
514.56	32.798
514.76	33.249
514.95	33.133
515.15	33.046
515.35	33.256
515.55	33.130
515.74	32.914
515.94	33.525
516.14	33.047
516.33	33.396
516.53	32.828
516.73	33.000
516.93	32.935
517.12	32.748
517.32	32.774
517.52	32.435
517.71	32.571
517.91	32.953
518.11	32.214
518.30	32.201
518.50	32.319
518.70	32.515
518.90	32.581
519.09	32.620
519.29	32.739
519.49	32.683
519.68	32.718
519.88	33.093
520.08	33.067
520.27	33.458
520.47	33.625
520.67	33.911
520.86	34.103
521.06	33.819
521.26	33.748
521.45	33.560
521.65	34.472
521.85	33.732
522.04	33.607
522.24	33.487
522.44	33.840
522.63	33.861
522.83	34.216
523.03	34.065
523.22	33.454
523.42	34.766
523.62	34.052
523.81	33.845
524.01	33.163
524.21	33.894
524.40	34.045
524.60	33.870
524.80	33.127
524.99	33.562
525.19	33.130
525.39	32.801
525.58	32.206
525.78	32.868
525.98	32.881
526.17	33.459
526.37	33.601
526.57	33.333
526.76	33.558
526.96	33.431
527.15	33.326
527.35	33.521
527.55	33.191
527.74	32.977
527.94	32.986
528.14	32.434
528.33	31.201
528.53	31.830
528.72	32.236
528.92	32.857
529.12	33.064
529.31	33.554
529.51	33.619
529.71	34.273
529.90	34.417
530.10	34.881
530.29	34.687
530.49	35.421
530.69	35.170
530.88	35.618
531.08	35.387
531.28	35.401
531.47	34.817
531.67	34.984
531.86	34.393
532.06	34.430
532.26	34.301
532.45	33.708
532.65	33.942
532.84	33.571
533.04	33.031
533.24	33.200
533.43	32.848
533.63	33.723
533.82	33.866
534.02	33.924
534.22	33.713
534.41	34.112
534.61	34.334
534.80	34.732
535.00	34.774
535.19	35.198
535.39	35.357
535.59	35.313
535.78	34.992
535.98	34.615
536.17	34.967
536.37	34.090
536.57	34.111
536.76	34.247
536.96	33.815
537.15	34.400
537.35	34.357
537.54	34.274
537.74	34.656
537.93	34.814
538.13	34.730
538.33	35.237
538.52	35.720
538.72	36.150
538.91	35.619
539.11	35.331
539.30	36.044
539.50	35.852
539.70	35.374
539.89	35.318
540.09	35.398
540.28	35.078
540.48	34.300
540.67	34.038
540.87	33.579
541.06	33.723
541.26	33.734
541.45	33.544
541.65	34.529
541.85	34.492
542.04	35.134
542.24	35.085
542.43	34.756
542.63	35.230
542.82	35.631
543.02	35.839
543.21	36.177
543.41	36.671
543.60	36.823
543.80	36.550
543.99	36.576
544.19	36.330
544.38	36.354
544.58	36.131
544.77	35.875
544.97	36.060
545.16	36.319
545.36	36.822
545.56	36.376
545.75	36.521
545.95	35.863
546.14	36.134
546.34	36.134
546.53	36.103
546.73	35.938
546.92	35.870
547.12	36.523
547.31	36.398
547.51	36.483
547.70	36.739
547.90	36.563
548.09	36.997
548.29	37.008
548.48	37.314
548.68	37.806
548.87	37.599
549.07	37.684
549.26	36.955
549.46	38.231
549.65	38.142
549.84	38.085
550.04	38.244
550.23	37.804
550.43	38.045
550.62	37.807
550.82	37.779
551.01	37.833
551.21	38.227
551.40	37.416
551.60	38.515
551.79	38.429
551.99	38.306
552.18	38.109
552.38	38.239
552.57	38.117
552.77	37.297
552.96	37.570
553.16	38.325
553.35	38.500
553.54	39.230
553.74	38.527
553.93	38.092
554.13	38.458
554.32	38.962
554.52	39.494
554.71	39.119
554.91	39.224
555.10	38.917
555.29	39.236
555.49	39.386
555.68	39.454
555.88	40.250
556.07	39.273
556.27	39.729
556.46	40.427
556.66	38.728
556.85	39.226
557.04	39.325
557.24	40.173
557.43	40.812
557.63	40.557
557.82	39.609
558.02	39.435
558.21	40.500
558.40	39.762
558.60	40.619
558.79	40.568
558.99	40.567
559.18	40.580
559.38	40.889
559.57	40.673
559.76	40.535
559.96	42.212
560.15	41.368
560.35	40.582
560.54	41.128
560.73	40.337
560.93	40.240
561.12	40.531
561.32	41.403
561.51	41.704
561.70	40.134
561.90	41.368
562.09	40.828
562.29	41.771
562.48	41.242
562.67	41.802
562.87	41.291
563.06	41.278
563.26	41.528
563.45	41.515
563.64	42.197
563.84	41.949
564.03	42.078
564.23	42.496
564.42	42.508
564.61	40.994
564.81	41.959
565.00	41.737
565.20	41.818
565.39	42.563
565.58	41.107
565.78	41.275
565.97	41.942
566.16	41.343
566.36	41.860
566.55	42.007
566.74	41.755
566.94	41.827
567.13	42.502
567.33	42.152
567.52	41.991
567.71	42.017
567.91	42.921
568.10	43.702
568.29	43.446
568.49	43.284
568.68	43.765
568.87	43.040
569.07	43.474
569.26	43.933
569.45	43.629
569.65	42.306
569.84	43.250
570.04	42.401
570.23	42.637
570.42	42.704
570.62	42.356
570.81	43.110
571.00	43.123
571.20	42.649
571.39	43.037
571.58	43.491
571.78	43.437
571.97	43.728
572.16	42.802
572.36	42.844
572.55	43.474
572.74	43.282
572.94	43.092
573.13	43.609
573.32	42.388
573.51	43.674
573.71	43.462
573.90	43.654
574.09	43.971
574.29	44.503
574.48	43.603
574.67	43.756
574.87	43.397
575.06	42.756
575.25	43.084
575.45	43.167
575.64	44.053
575.83	42.441
576.03	43.758
576.22	43.184
576.41	44.411
576.60	44.115
576.80	43.239
576.99	43.792
577.18	43.998
577.38	43.828
577.57	43.806
577.76	44.022
577.95	44.300
578.15	42.988
578.34	43.845
578.53	43.698
578.73	43.557
578.92	43.276
579.11	44.050
579.30	44.690
579.50	43.622
579.69	43.860
579.88	44.802
580.08	44.427
580.27	45.384
580.46	44.942
580.65	43.631
580.85	44.094
581.04	43.951
581.23	44.237
581.42	43.946
581.62	44.079
581.81	43.652
582.00	42.311
582.19	44.327
582.39	43.948
582.58	43.591
582.77	43.834
582.96	42.753
583.16	43.346
583.35	44.192
583.54	42.546
583.73	44.724
583.93	43.004
584.12	44.486
584.31	43.557
584.50	43.913
584.70	43.185
584.89	43.242
585.08	44.573
585.27	43.910
585.47	42.888
585.66	43.443
585.85	42.585
586.04	43.774
586.24	44.389
586.43	43.800
586.62	43.190
586.81	43.079
587.00	42.914
587.20	43.411
587.39	42.820
587.58	42.801
587.77	43.214
587.97	43.298
588.16	43.443
588.35	43.452
588.54	43.515
588.73	42.740
588.93	42.593
589.12	43.002
589.31	42.379
589.50	42.617
589.69	41.752
589.89	43.070
590.08	43.316
590.27	42.390
590.46	43.737
590.65	43.278
590.85	43.269
591.04	42.996
591.23	42.762
591.42	42.448
591.61	41.641
591.81	43.478
592.00	42.640
592.19	42.576
592.38	43.974
592.57	44.208
592.77	43.146
592.96	42.721
593.15	43.930
593.34	42.772
593.53	43.125
593.72	42.568
593.92	43.433
594.11	42.111
594.30	41.991
594.49	42.485
594.68	42.002
594.87	42.822
595.07	42.739
595.26	42.938
595.45	43.515
595.64	43.488
595.83	43.567
596.02	42.152
596.22	43.519
596.41	42.823
596.60	42.618
596.79	43.605
596.98	43.769
597.17	42.415
597.37	42.732
597.56	42.923
597.75	42.338
597.94	42.664
598.13	43.229
598.32	43.519
598.51	43.613
598.71	43.786
598.90	44.359
599.09	44.107
599.28	44.169
599.47	43.461
599.66	44.006
599.85	43.269
600.05	43.782
600.24	44.455
600.43	43.823
600.62	44.712
600.81	44.224
601.00	44.815
601.19	44.222
601.38	44.023
601.58	44.525
601.77	43.746
601.96	44.886
602.15	45.207
602.34	44.799
602.53	43.858
602.72	43.897
602.91	43.868
603.10	44.892
603.30	43.708
603.49	43.928
603.68	44.384
603.87	44.205
604.06	44.157
604.25	43.578
604.44	43.772
604.63	43.307
604.82	44.447
605.01	43.409
605.21	44.582
605.40	43.891
605.59	44.649
605.78	43.578
605.97	44.076
606.16	45.170
606.35	44.310
606.54	44.619
606.73	45.121
606.92	44.431
607.11	45.059
607.30	45.156
607.50	45.134
607.69	44.499
607.88	45.079
608.07	43.889
608.26	45.856
608.45	44.728
608.64	44.623
608.83	43.494
609.02	44.084
609.21	43.669
609.40	44.699
609.59	44.030
609.78	43.692
609.97	43.918
610.16	43.948
610.35	43.008
610.55	43.659
610.74	43.716
610.93	43.687
611.12	43.778
611.31	44.823
611.50	43.879
611.69	44.214
611.88	44.283
612.07	44.635
612.26	44.276
612.45	44.796
612.64	44.049
612.83	44.858
613.02	44.632
613.21	44.418
613.40	43.720
613.59	44.823
613.78	43.605
613.97	44.498
614.16	43.486
614.35	45.897
614.54	43.969
614.73	43.913
614.92	43.514
615.11	43.820
615.30	43.625
615.49	43.848
615.68	43.958
615.87	43.461
616.07	44.083
616.26	43.364
616.45	43.524
616.64	43.906
616.83	44.221
617.02	44.084
617.21	42.968
617.40	42.473
617.59	43.014
617.78	43.948
617.97	43.849
618.16	42.730
618.35	42.681
618.54	43.507
618.73	43.521
618.92	43.516
619.11	43.273
619.30	43.125
619.49	42.440
619.68	42.455
619.86	42.376
620.05	42.338
620.24	41.718
620.43	43.300
620.62	41.824
620.81	41.990
621.00	42.315
621.19	42.680
621.38	42.394
621.57	42.493
621.76	43.605
621.95	43.043
622.14	42.091
622.33	42.718
622.52	41.651
622.71	42.252
622.90	42.059
623.09	41.869
623.28	40.417
623.47	43.269
623.66	41.735
623.85	42.573
624.04	42.111
624.23	42.340
624.42	41.305
624.61	41.389
624.80	41.474
624.99	42.709
625.18	41.965
625.36	42.081
625.55	40.631
625.74	41.151
625.93	41.015
626.12	42.747
626.31	42.463
626.50	41.976
626.69	41.416
626.88	41.199
627.07	41.359
627.26	41.469
627.45	41.421
627.64	40.786
627.83	41.486
628.02	40.352
628.20	42.274
628.39	41.470
628.58	42.179
628.77	41.654
628.96	41.391
629.15	41.039
629.34	40.698
629.53	41.587
629.72	41.837
629.91	40.792
630.10	40.592
630.29	41.706
630.47	41.884
630.66	42.372
630.85	41.429
631.04	41.116
631.23	40.503
631.42	40.849
631.61	42.609
631.80	42.252
631.99	41.663
632.18	41.110
632.36	40.703
632.55	41.854
632.74	41.317
632.93	40.213
633.12	40.269
633.31	41.232
633.50	40.378
633.69	40.235
633.88	40.542
634.06	40.878
634.25	40.983
634.44	41.165
634.63	41.238
634.82	40.960
635.01	40.884
635.20	40.731
635.39	40.086
635.57	41.611
635.76	41.356
635.95	40.046
636.14	40.928
636.33	41.175
636.52	41.915
636.71	40.188
636.89	40.805
637.08	39.582
637.27	41.610
637.46	41.237
637.65	40.773
637.84	41.555
638.03	41.489
638.21	41.641
638.40	42.580
638.59	41.388
638.78	41.124
638.97	41.263
639.16	39.835
639.34	41.649
639.53	41.304
639.72	40.605
639.91	41.418
640.10	39.859
640.29	41.194
640.47	41.606
640.66	40.930
640.85	40.690
641.04	40.264
641.23	41.094
641.42	41.475
641.60	40.511
641.79	40.645
641.98	40.140
642.17	39.768
642.36	40.385
642.54	41.134
642.73	40.198
642.92	40.337
643.11	41.699
643.30	40.396
643.49	41.513
643.67	41.306
643.86	40.962
644.05	41.431
644.24	41.103
644.43	40.090
644.61	41.173
644.80	40.155
644.99	41.244
645.18	40.102
645.37	40.726
645.55	41.034
645.74	42.054
645.93	40.756
646.12	41.315
646.31	41.206
646.49	40.171
646.68	42.423
646.87	42.159
647.06	41.598
647.24	42.161
647.43	40.274
647.62	41.537
647.81	39.766
648.00	39.169
648.18	40.372
648.37	40.020
648.56	41.153
648.75	42.806
648.93	41.971
649.12	40.176
649.31	41.162
649.50	40.337
649.68	40.951
649.87	41.552
650.06	40.783
650.25	41.060
650.43	39.336
650.62	41.135
650.81	40.223
651.00	40.276
651.18	40.219
651.37	41.105
651.56	40.105
651.75	41.352
651.93	40.533
652.12	41.815
652.31	40.834
652.50	40.832
652.68	40.591
652.87	42.293
653.06	40.015
653.25	40.493
653.43	40.007
653.62	40.406
653.81	41.091
654.00	39.595
654.18	38.209
654.37	41.685
654.56	41.630
654.74	39.132
654.93	40.385
655.12	41.272
655.31	39.301
655.49	40.313
655.68	37.658
655.87	39.699
656.05	38.053
656.24	39.660
656.43	39.843
656.62	39.415
656.80	38.996
656.99	39.073
657.18	38.200
657.36	38.858
657.55	39.083
657.74	41.161
657.93	37.672
658.11	39.332
658.30	37.975
658.49	37.360
658.67	38.006
658.86	36.452
659.05	36.562
659.23	37.630
659.42	36.626
659.61	36.766
659.79	36.829
659.98	36.843
660.17	35.960
660.35	36.769
660.54	36.228
660.73	36.739
660.91	36.334
661.10	36.254
661.29	35.892
661.47	37.171
661.66	34.949
661.85	35.629
662.03	36.699
662.22	35.312
662.41	35.417
662.59	34.767
662.78	35.463
662.97	35.388
663.15	33.101
663.34	35.623
663.53	33.637
663.71	34.305
663.90	34.072
664.09	34.526
664.27	33.780
664.46	33.869
664.65	34.829
664.83	32.011
665.02	32.340
665.21	32.287
665.39	31.558
665.58	33.606
665.77	31.874
665.95	31.638
666.14	32.965
666.32	32.332
666.51	31.017
666.70	32.348
666.88	31.580
667.07	32.063
667.26	29.095
667.44	31.818
667.63	31.590
667.81	29.974
668.00	31.527
668.19	33.302
668.37	30.236
668.56	32.333
668.75	28.717
668.93	31.230
669.12	30.402
669.30	30.746
669.49	29.512
669.68	31.542
669.86	29.988
670.05	29.967
670.23	29.438
670.42	29.631
670.61	30.510
670.79	31.990
670.98	31.599
671.16	32.206
671.35	29.584
671.54	31.677
671.72	30.193
671.91	31.001
672.09	29.427
672.28	30.811
672.46	31.275
672.65	31.820
672.84	29.940
673.02	30.843
673.21	28.551
673.39	29.971
673.58	29.736
673.77	31.435
673.95	29.900
674.14	32.099
674.32	31.021
674.51	33.277
674.69	30.833
674.88	32.971
675.07	29.681
675.25	33.230
675.44	31.963
675.62	32.433
675.81	32.116
675.99	32.146
676.18	31.905
676.36	32.466
676.55	32.540
676.74	33.022
676.92	33.187
677.11	32.003
677.29	30.398
677.48	34.893
677.66	32.830
677.85	32.814
678.03	32.925
678.22	33.648
678.40	32.123
678.59	34.083
678.78	31.712
678.96	33.465
679.15	32.702
679.33	32.915
679.52	33.874
679.70	34.428
679.89	32.715
680.07	34.447
680.26	33.461
680.44	33.809
680.63	32.981
680.81	33.182
681.00	31.862
681.18	32.923
681.37	33.597
681.55	33.743
681.74	34.062
681.92	34.649
682.11	35.878
682.29	34.356
682.48	36.714
682.66	36.217
682.85	34.005
683.03	35.942
683.22	36.831
683.40	36.760
683.59	35.980
683.77	37.758
683.96	34.691
684.14	38.255
684.33	35.301
684.51	39.376
684.70	37.733
684.88	40.494
685.07	37.901
685.25	38.704
685.44	36.814
685.62	39.376
685.81	38.688
685.99	40.948
686.18	39.407
686.36	41.292
686.55	39.531
686.73	41.576
686.92	40.120
687.10	41.945
687.29	43.257
687.47	42.438
687.65	41.788
687.84	41.814
688.02	41.907
688.21	45.485
688.39	41.796
688.58	43.506
688.76	43.782
688.95	44.141
689.13	44.030
689.32	46.549
689.50	44.323
689.68	45.739
689.87	45.690
690.05	45.788
690.24	48.076
690.42	47.439
690.61	44.724
690.79	47.880
690.98	45.741
691.16	46.791
691.34	47.559
691.53	49.803
691.71	47.736
691.90	49.868
692.08	49.361
692.27	51.084
692.45	50.928
692.63	50.822
692.82	50.593
693.00	52.125
693.19	52.036
693.37	50.945
693.56	52.319
693.74	53.350
693.92	52.723
694.11	53.471
694.29	54.575
694.48	52.373
694.66	54.693
694.84	54.358
695.03	52.715
695.21	55.921
695.40	54.415
695.58	55.369
695.76	55.467
695.95	54.571
696.13	55.923
696.32	56.363
696.50	57.937
696.68	56.725
696.87	55.039
697.05	56.718
697.24	56.463
697.42	56.611
697.60	54.863
697.79	54.739
697.97	56.831
698.16	55.175
698.34	53.082
698.52	57.046
698.71	54.196
698.89	55.448
699.07	53.114
699.26	55.059
699.44	55.265
699.63	54.552
699.81	55.032
699.99	55.544
700.18	57.876
700.36	56.622
700.54	55.289
700.73	55.989
700.91	57.172
701.09	57.490
701.28	58.478
701.46	57.669
701.64	57.595
701.83	58.168
702.01	58.514
702.20	60.405
702.38	58.161
702.56	58.158
702.75	59.079
702.93	58.756
703.11	59.872
703.30	61.477
703.48	58.393
703.66	60.347
703.85	60.696
704.03	63.786
704.21	62.147
704.40	61.441
704.58	60.182
704.76	61.909
704.95	61.270
705.13	63.739
705.31	61.226
705.50	62.660
705.68	62.137
705.86	63.211
706.04	62.941
706.23	63.330
706.41	61.461
706.59	62.431
706.78	58.790
706.96	61.212
707.14	62.576
707.33	63.535
707.51	61.571
707.69	62.356
707.88	63.031
708.06	61.040
708.24	62.280
708.42	64.281
708.61	62.965
708.79	64.407
708.97	62.206
709.16	63.114
709.34	64.529
709.52	62.004
709.71	62.863
709.89	62.632
710.07	59.227
710.25	63.554
710.44	62.649
710.62	61.785
710.80	63.462
710.98	61.933
711.17	59.918
711.35	63.373
711.53	63.345
711.72	63.800
711.90	62.960
712.08	65.565
712.26	62.364
712.45	65.281
712.63	62.636
712.81	63.587
712.99	62.242
713.18	63.767
713.36	61.138
713.54	63.172
713.72	63.027
713.91	64.332
714.09	63.374
714.27	62.968
714.45	62.137
714.64	64.249
714.82	64.020
715.00	62.909
715.18	63.453
715.37	65.007
715.55	63.928
715.73	63.357
715.91	62.376
716.10	62.722
716.28	60.518
716.46	61.357
716.64	62.994
716.83	62.571
717.01	62.402
717.19	64.520
717.37	62.283
717.55	59.498
717.74	60.816
717.92	62.943
718.10	62.863
718.28	64.863
718.47	61.151
718.65	63.953
718.83	60.905
719.01	64.892
719.19	65.180
719.38	63.088
719.56	63.694
719.74	65.868
719.92	62.447
720.10	62.268
720.29	61.136
720.47	64.268
720.65	62.170
720.83	66.008
721.01	60.417
721.20	63.995
721.38	63.751
721.56	62.528
721.74	64.759
721.92	64.236
722.11	65.005
722.29	63.008
722.47	62.480
722.65	64.255
722.83	64.303
723.01	62.398
723.20	61.301
723.38	63.591
723.56	63.544
723.74	66.437
723.92	64.761
724.10	64.681
724.29	61.449
724.47	65.002
724.65	62.163
724.83	64.855
725.01	60.825
725.19	67.670
725.38	62.721
725.56	66.709
725.74	64.929
725.92	67.234
726.10	63.021
726.28	64.969
726.46	64.003
726.65	66.349
726.83	64.144
727.01	60.755
727.19	60.845
727.37	61.913
727.55	64.954
727.73	63.321
727.92	64.098
728.10	61.793
728.28	62.453
728.46	65.524
728.64	65.911
728.82	64.719
729.00	65.403
729.19	64.136
729.37	63.281
729.55	63.934
729.73	61.711
729.91	64.103
730.09	62.576
730.27	64.709
730.45	62.147
730.63	66.628
730.82	64.042
731.00	62.100
731.18	61.274
731.36	66.376
731.54	61.187
731.72	65.985
731.90	65.008
732.08	62.676
732.26	63.712
732.45	63.750
732.63	61.587
732.81	63.118
732.99	62.512
733.17	64.782
733.35	66.190
733.53	64.860
733.71	63.127
733.89	64.873
734.07	67.840
734.25	63.846
734.44	62.118
734.62	67.305
734.80	63.852
734.98	67.039
735.16	65.317
735.34	67.870
735.52	66.602
735.70	66.941
735.88	64.420
736.06	65.796
736.24	67.315
736.42	68.590
736.60	67.814
736.78	68.467
736.97	64.219
737.15	69.922
737.33	68.164
737.51	67.731
737.69	64.356
737.87	65.180
738.05	66.046
738.23	66.153
738.41	65.367
738.59	65.601
738.77	67.168
738.95	69.703
739.13	66.780
739.31	67.925
739.49	65.710
739.67	66.712
739.85	66.598
740.03	69.303
740.21	70.389
740.39	68.124
740.57	68.358
740.75	66.714
740.93	66.643
741.11	66.478
741.30	64.744
741.48	67.845
741.66	67.360
741.84	66.373
742.02	66.816
742.20	68.285
742.38	69.167
742.56	70.049
742.74	63.442
742.92	64.691
743.10	62.090
743.28	67.053
743.46	67.802
743.64	68.417
743.82	67.585
744.00	67.500
744.18	71.216
744.36	65.973
744.54	65.676
744.72	68.548
744.90	66.060
745.08	70.658
745.26	64.367
745.44	71.424
745.62	65.049
745.80	67.564
745.98	68.366
746.16	70.254
746.34	66.406
746.52	69.462
746.70	69.782
746.87	70.683
747.05	69.300
747.23	70.324
747.41	65.793
747.59	71.826
747.77	64.921
747.95	70.726
748.13	64.940
748.31	70.009
748.49	72.164
748.67	66.458
748.85	64.596
749.03	69.381
749.21	64.552
749.39	67.264
749.57	64.239
749.75	69.062
749.93	67.743
750.11	67.452
750.29	65.795
750.47	67.510
750.65	69.825
750.83	65.011
751.01	65.722
751.18	69.361
751.36	62.396
751.54	69.033
751.72	68.290
751.90	65.733
752.08	67.707
752.26	70.420
752.44	65.241
752.62	66.275
752.80	65.439
752.98	68.426
753.16	68.094
753.34	72.372
753.52	67.039
753.69	66.836
753.87	68.975
754.05	73.020
754.23	69.543
754.41	68.051
754.59	68.456
754.77	69.263
754.95	65.000
755.13	67.922
755.31	64.548
755.49	67.485
755.66	71.000
755.84	68.762
756.02	60.954
756.20	69.291
756.38	66.548
756.56	68.724
756.74	67.799
756.92	72.188
757.10	66.122
757.28	69.810
757.45	69.559
757.63	66.696
757.81	66.335
757.99	73.683
758.17	70.485
758.35	69.440
758.53	65.947
758.71	73.615
758.88	66.757
759.06	67.280
759.24	67.771
759.42	66.350
759.60	64.507
759.78	62.008
759.96	64.273
760.13	66.361
760.31	61.102
760.49	62.524
760.67	54.680
760.85	60.884
761.03	58.847
761.21	56.950
761.38	54.032
761.56	60.299
761.74	57.998
761.92	61.975
762.10	55.279
762.28	61.505
762.46	52.869
762.63	60.739
762.81	60.298
762.99	57.933
763.17	60.334
763.35	60.316
763.53	58.858
763.70	63.811
763.88	62.920
764.06	59.155
764.24	59.201
764.42	61.463
764.60	59.050
764.77	60.218
764.95	60.425
765.13	62.731
765.31	60.031
765.49	61.222
765.66	62.021
765.84	61.327
766.02	61.619
766.20	63.232
766.38	62.001
766.56	64.860
766.73	60.925
766.91	65.271
767.09	64.956
767.27	61.680
767.45	64.727
767.62	68.711
767.80	61.134
767.98	64.235
768.16	60.139
768.33	69.499
768.51	64.046
768.69	67.196
768.87	63.343
769.05	69.019
769.22	64.804
769.40	69.775
769.58	63.682
769.76	73.626
769.94	63.778
770.11	69.710
770.29	66.012
770.47	67.847
770.65	68.427
770.82	71.245
771.00	63.783
771.18	67.937
771.36	63.273
771.53	65.148
771.71	67.312
771.89	73.701
772.07	65.937
772.25	71.962
772.42	60.417
772.60	75.011
772.78	65.566
772.96	75.292
773.13	67.187
773.31	67.478
773.49	67.327
773.67	66.501
773.84	69.014
774.02	71.717
774.20	70.289
774.37	68.325
774.55	65.146
774.73	68.137
774.91	65.580
775.08	66.626
775.26	64.654
775.44	72.899
775.62	65.362
775.79	70.657
775.97	62.804
776.15	67.782
776.32	68.353
776.50	74.499
776.68	72.546
776.86	71.014
777.03	72.107
777.21	70.795
777.39	69.197
777.56	67.889
777.74	70.467
777.92	67.152
778.10	62.457
778.27	69.168
778.45	68.284
778.63	73.423
778.80	63.293
778.98	67.196
779.16	66.211
779.34	70.476
779.51	62.646
779.69	72.880
779.87	67.720
780.04	72.106
780.22	67.135
780.40	61.229
780.57	70.190
780.75	73.344
780.93	65.745
781.10	71.136
781.28	74.788
781.46	72.477
781.63	63.992
781.81	71.832
781.99	65.866
782.16	69.388
782.34	63.909
782.52	69.894
782.69	66.914
782.87	61.170
783.05	63.160
783.22	70.499
783.40	63.038
783.58	67.848
783.75	61.905
783.93	72.578
784.11	63.114
784.28	70.683
784.46	64.519
784.64	66.022
784.81	58.021
784.99	68.951
785.17	69.881
785.34	62.029
785.52	63.632
785.69	66.268
785.87	65.338
786.05	70.948
786.22	68.120
786.40	76.060
786.58	72.591
786.75	72.593
786.93	61.826
787.11	66.350
787.28	64.532
787.46	67.605
787.63	68.286
787.81	61.383
787.99	66.176
788.16	65.166
788.34	59.902
788.51	67.925
788.69	62.890
788.87	68.065
789.04	62.294
789.22	61.835
789.39	64.302
789.57	59.137
789.75	68.012
789.92	65.202
790.10	57.020
790.27	69.502
790.45	61.704
790.63	69.009
790.80	59.387
790.98	61.422
791.15	60.226
791.33	65.755
791.51	64.217
791.68	67.554
791.86	66.057
792.03	66.506
792.21	51.841
792.39	64.395
792.56	63.805
792.74	67.903
792.91	68.810
793.09	59.882
793.26	60.256
793.44	70.431
793.62	63.875
793.79	61.145
793.97	67.157
794.14	65.789
794.32	62.938
794.49	63.510
794.67	56.799
794.84	67.399
795.02	65.101
795.20	72.742
795.37	60.763
795.55	73.484
795.72	62.884
795.90	63.131
796.07	65.139
796.25	70.340
796.42	62.040
796.60	60.544
796.77	62.162
796.95	61.080
797.13	55.847
797.30	67.550
797.48	59.905
797.65	66.667
797.83	55.441
798.00	67.180
798.18	63.402
798.35	63.309
798.53	61.290
798.70	62.872
798.88	69.739
799.05	67.270
799.23	62.918
799.40	61.912
799.58	66.559
799.75	66.555
799.93	60.184
800.10	59.649
800.28	60.692
800.45	63.754
800.63	58.522
800.80	63.710
800.98	61.401
801.15	62.865
801.33	56.609
801.50	64.729
801.68	62.226
801.85	62.269
802.03	61.413
802.20	70.432
802.38	61.913
802.55	52.877
802.73	66.193
802.90	54.299
803.08	58.710
803.25	68.418
803.43	67.477
803.60	68.982
803.78	67.281
803.95	61.216
804.13	62.805
804.30	70.518
804.48	58.239
804.65	68.766
804.83	56.075
805.00	56.719
805.17	64.003
805.35	64.679
805.52	64.337
805.70	59.574
805.87	61.268
806.05	64.174
806.22	63.815
806.40	60.835
806.57	56.153
806.75	70.025
806.92	65.502
807.09	61.382
807.27	60.433
807.44	68.199
807.62	66.157
807.79	57.475
807.97	60.176
808.14	60.754
808.31	60.687
808.49	65.278
808.66	61.598
808.84	60.746
809.01	59.829
809.19	62.385
809.36	70.241
809.53	59.373
809.71	59.736
809.88	70.563
810.06	66.481
810.23	65.629
810.41	68.696
810.58	64.491
810.75	58.106
810.93	63.004
811.10	62.571
811.28	69.968
811.45	60.494
811.62	61.047
811.80	56.231
811.97	61.883
812.15	77.220
812.32	59.972
812.49	61.925
812.67	62.118
812.84	48.810
813.02	63.577
813.19	53.371
813.36	71.280
813.54	54.566
813.71	68.421
813.89	64.408
814.06	66.091
814.23	69.242
814.41	59.556
814.58	62.236
814.75	67.150
814.93	57.589
815.10	66.904
815.28	55.048
815.45	56.319
815.62	57.240
815.80	56.399
815.97	56.442
816.14	70.973
816.32	61.125
816.49	50.423
816.66	54.557
816.84	56.906
817.01	58.482
817.18	51.950
817.36	57.937
817.53	67.182
817.71	52.181
817.88	55.042
818.05	53.466
818.23	53.937
818.40	58.678
818.57	58.131
818.75	57.411
818.92	54.184
819.09	51.631
819.27	64.815
819.44	54.140
819.61	47.022
819.79	51.555
819.96	62.149
820.13	55.805
820.31	59.088
820.48	59.778
820.65	58.751
820.82	60.923
821.00	60.320
821.17	51.847
821.34	56.338
821.52	53.577
821.69	55.012
821.86	58.648
822.04	59.915
822.21	58.305
822.38	59.541
822.56	57.980
822.73	60.006
822.90	55.793
823.07	58.646
823.25	57.312
823.42	56.024
823.59	57.751
823.77	57.508
823.94	58.183
824.11	58.344
824.29	58.599
824.46	59.512
824.63	59.034
824.80	60.242
824.98	61.889
825.15	58.660
825.32	59.652
825.49	64.739
825.67	62.192
825.84	64.006
826.01	63.324
826.19	62.340
826.36	58.792
826.53	66.211
826.70	58.473
826.88	64.515
827.05	59.874
827.22	62.823
827.39	60.466
827.57	58.048
827.74	58.063
827.91	62.638
828.08	55.922
828.26	58.479
828.43	56.831
828.60	64.212
828.77	55.609
828.95	60.037
829.12	53.827
829.29	57.979
829.46	59.052
829.64	57.848
829.81	56.397
829.98	64.696
830.15	53.681
830.32	58.031
830.50	54.493
830.67	68.234
830.84	57.303
831.01	49.680
831.19	59.872
831.36	57.335
831.53	54.613
831.70	61.682
831.87	51.509
832.05	58.958
832.22	64.927
832.39	57.783
832.56	59.821
832.74	51.836
832.91	47.657
833.08	60.384
833.25	46.474
833.42	53.598
833.60	52.342
833.77	41.692
833.94	48.953
834.11	53.568
834.28	53.725
834.45	57.343
834.63	48.701
834.80	54.222
834.97	53.136
835.14	57.755
835.31	54.820
835.49	58.609
835.66	55.449
835.83	58.722
836.00	55.700
836.17	55.104
836.34	51.803
836.52	54.872
836.69	58.443
836.86	59.160
837.03	57.756
837.20	54.931
837.37	48.464
837.55	53.436
837.72	51.146
837.89	53.378
838.06	55.387
838.23	59.057
838.40	57.986
838.58	45.747
838.75	64.583
838.92	63.383
839.09	76.036
839.26	77.667
839.43	62.201
839.60	61.075
839.78	74.054
839.95	71.134
840.12	56.016
840.29	60.648
840.46	66.053
840.63	62.867
840.80	51.236
840.98	66.260
841.15	63.452
841.32	55.497
841.49	54.599
841.66	69.780
841.83	55.363
842.00	59.448
842.17	71.132
842.34	60.487
842.52	60.991
842.69	63.813
842.86	57.785
843.03	72.989
843.20	68.027
843.37	56.024
843.54	61.660
843.71	57.276
843.88	67.561
844.06	69.397
844.23	78.955
844.40	72.155
844.57	81.373
844.74	100.766
844.91	67.379
845.08	83.254
845.25	65.566
845.42	80.603
845.59	66.524
845.76	70.492
845.94	94.872
846.11	66.167
846.28	83.494
846.45	106.301
846.62	92.593
846.79	75.152
846.96	75.421
847.13	89.840
847.30	68.403
847.47	100.402
847.64	76.339
847.81	76.423
847.98	97.683
848.15	77.991
848.32	86.630
848.50	119.271
848.67	88.715
848.84	90.130
849.01	93.827
849.18	78.390
849.35	111.613
849.52	90.838
849.69	91.188
849.86	99.320
850.03	87.311
850.20	111.603
850.37	70.155
850.54	97.619
850.71	91.002
850.88	88.000
851.05	91.068
851.22	77.059
851.39	87.146
851.56	78.889
851.73	93.092
851.90	94.949
852.07	103.646
852.24	76.301
852.41	114.599
852.58	99.814
852.75	77.510
852.92	83.333
853.09	110.623
853.26	111.111
853.43	90.528
853.60	101.504
853.77	97.243
853.94	108.387
854.11	96.154
854.28	100.000
854.45	87.992
854.62	110.692
854.79	83.826
854.96	118.333
855.13	80.819
855.30	87.473
855.47	87.692
855.64	88.426
855.81	87.273
855.98	96.024
856.15	100.000
856.32	126.667
856.49	95.302
856.66	115.230
856.83	106.616
857.00	80.439
857.17	113.529
857.34	95.890
857.51	119.764
857.68	99.234
857.85	90.502
858.02	90.710
858.19	103.218
858.36	104.167
858.53	98.174
858.70	106.336
858.87	97.656
859.04	90.968
859.21	88.095
859.38	94.667
859.55	105.828
859.72	98.532
859.89	100.746
860.05	109.916
860.22	80.146
860.39	94.444
860.56	98.325
860.73	94.220
860.90	118.950
861.07	111.275
861.24	78.811
861.41	98.020
861.58	82.320
861.75	98.950
861.92	106.181
862.09	91.414
862.26	145.726
862.43	93.456
862.59	82.065
862.76	128.788
862.93	134.156
863.10	109.394
863.27	80.303
863.44	99.663
863.61	89.954
863.78	121.354
863.95	101.538
864.12	98.333
864.29	80.447
864.45	87.371
864.62	76.381
864.79	99.527
864.96	139.286
865.13	87.597
865.30	133.651
865.47	109.231
865.64	147.855
865.81	84.346
865.97	80.510
866.14	107.292
866.31	74.561
866.48	88.557
866.65	79.227
866.82	131.667
866.99	98.782
867.16	107.843
867.33	92.958
867.49	87.914
867.66	99.172
867.83	87.162
868.00	70.519
868.17	95.430
868.34	116.895
868.51	128.254
868.67	96.078
868.84	125.895
869.01	92.593
869.18	75.000
869.35	90.593
869.52	92.500
869.69	86.193
869.85	78.324
870.02	99.099
870.19	125.768
870.36	115.459
870.53	96.419
870.70	132.778
870.86	114.286
871.03	80.892
871.20	94.554
871.37	107.957
871.54	100.617
871.71	78.682
871.87	76.845
872.04	81.910
872.21	102.119
872.38	111.667
872.55	109.693
872.72	70.692
872.88	100.839
873.05	86.583
873.22	75.198
873.39	91.042
873.56	80.117
873.72	110.924
873.89	97.390
874.06	88.745
874.23	94.515
874.40	137.615
874.56	95.109
874.73	127.401
874.90	79.424
875.07	103.486
875.24	75.634
875.40	117.949
875.57	112.687
875.74	107.265
875.91	97.549
876.08	131.973
876.24	122.121
876.41	96.667
876.58	85.965
876.75	90.181
876.92	87.992
877.08	90.058
877.25	79.778
877.42	95.302
877.59	91.165
877.75	84.492
877.92	101.377
878.09	117.600
878.26	111.282
878.42	104.329
878.59	94.944
878.76	92.614
878.93	90.613
879.09	91.149
879.26	92.308
879.43	90.050
879.60	90.429
879.76	82.818
879.93	80.523
880.10	54.714
880.27	59.149
880.43	65.723
880.60	70.076
880.77	54.992
880.94	65.342
881.10	55.407
881.27	52.174
881.44	49.039
881.61	47.186
881.77	55.422
881.94	49.569
882.11	40.792
882.28	46.629
882.44	45.682
882.61	50.054
882.78	56.205
882.94	60.412
883.11	52.183
883.28	56.618
883.45	55.687
883.61	55.078
883.78	50.339
883.95	61.266
884.11	54.240
884.28	56.011
>>>>>End Processed Spectral Data<<<<<
