SpectraSuite Data File
++++++++++++++++++++++++++++++++++++
Date: Mon Sep 23 02:57:02 EST 2019
User: sgrac
Dark Spectrum Present: Yes
Reference Spectrum Present: Yes
Number of Sampled Component Spectra: 1
Spectrometers: USB4E01596
Integration Time (usec): 100000 (USB4E01596)
Spectra Averaged: 3 (USB4E01596)
Boxcar Smoothing: 0 (USB4E01596)
Correct for Electrical Dark: No (USB4E01596)
Strobe/Lamp Enabled: Yes (USB4E01596)
Correct for Detector Non-linearity: No (USB4E01596)
Correct for Stray Light: No (USB4E01596)
Number of Pixels in Processed Spectrum: 3648
>>>>>Begin Processed Spectral Data<<<<<
178.44	261.538
178.66	261.538
178.87	261.538
179.09	2200.000
179.30	-1175.000
179.52	161.290
179.74	18.868
179.95	59.091
180.17	-27.778
180.38	28.070
180.60	90.909
180.82	124.444
181.03	216.667
181.25	66.667
181.46	-48.000
181.68	225.000
181.89	34.091
182.11	-325.000
182.33	131.250
182.54	-2.083
182.76	16.667
182.97	-23.404
183.19	40.000
183.40	52.066
183.62	110.256
183.84	81.818
184.05	171.429
184.27	-15.152
184.48	98.485
184.70	158.824
184.91	-28.571
185.13	370.000
185.34	-450.000
185.56	-15.385
185.78	25.000
185.99	-16.667
186.21	55.682
186.42	-25.000
186.64	-400.000
186.85	1260.000
187.07	6.000
187.28	30.263
187.50	107.273
187.72	50.000
187.93	105.455
188.15	77.083
188.36	40.789
188.58	-28.571
188.79	40.385
189.01	5.634
189.22	-91.892
189.44	-45.455
189.65	40.678
189.87	1575.000
190.09	158.730
190.30	-23.810
190.52	103.333
190.73	163.043
190.95	1033.333
191.16	23.810
191.38	66.216
191.59	41.176
191.81	137.097
192.02	-140.000
192.24	-253.125
192.45	338.235
192.67	100.000
192.88	20.755
193.10	-37.705
193.31	155.000
193.53	59.677
193.74	5.333
193.96	-314.286
194.18	-76.923
194.39	80.000
194.61	17.808
194.82	177.273
195.04	34.146
195.25	157.895
195.47	88.889
195.68	166.667
195.90	32.727
196.11	65.672
196.33	2700.000
196.54	126.829
196.76	-35.714
196.97	51.948
197.19	2.703
197.40	-271.429
197.62	54.128
197.83	103.226
198.05	41.818
198.26	89.655
198.48	56.338
198.69	-23.333
198.91	-355.556
199.12	-9.302
199.34	89.130
199.55	55.714
199.77	231.579
199.98	20.588
200.20	106.579
200.41	100.000
200.63	95.575
200.84	21.429
201.06	333.333
201.27	117.073
201.49	1.408
201.70	140.000
201.91	13.889
202.13	-22.034
202.34	-27.586
202.56	-84.000
202.77	13.333
202.99	-483.333
203.20	-262.500
203.42	93.750
203.63	-32.895
203.85	100.000
204.06	128.000
204.28	11.111
204.49	53.704
204.71	-79.661
204.92	-165.385
205.14	0.000
205.35	153.333
205.56	150.000
205.78	460.000
205.99	128.571
206.21	-850.000
206.42	34.091
206.64	248.387
206.85	111.111
207.07	-200.000
207.28	134.483
207.50	26.087
207.71	51.613
207.93	42.169
208.14	-174.074
208.35	78.182
208.57	108.000
208.78	300.000
209.00	146.809
209.21	-1350.000
209.43	2066.667
209.64	113.333
209.86	19.588
210.07	31.395
210.28	146.479
210.50	182.759
210.71	-31.373
210.93	36.029
211.14	101.124
211.36	-25.000
211.57	34.848
211.78	67.143
212.00	74.118
212.21	-11.429
212.43	71.795
212.64	102.128
212.86	56.757
213.07	139.450
213.29	-5.556
213.50	51.087
213.71	25.287
213.93	-48.780
214.14	-609.091
214.36	4.412
214.57	-8.861
214.78	135.556
215.00	112.500
215.21	26.667
215.43	81.081
215.64	82.540
215.86	25.000
216.07	200.000
216.28	-65.789
216.50	78.333
216.71	2700.000
216.93	81.818
217.14	88.889
217.35	56.818
217.57	36.937
217.78	-3.704
218.00	-82.828
218.21	460.870
218.42	46.809
218.64	-89.286
218.85	-34.000
219.07	-130.000
219.28	11.215
219.49	-29.412
219.71	80.000
219.92	16.418
220.14	55.670
220.35	54.667
220.56	-5.747
220.78	77.885
220.99	11.290
221.21	1.075
221.42	3.704
221.63	39.306
221.85	-26.154
222.06	90.000
222.28	80.000
222.49	51.351
222.70	45.669
222.92	-22.449
223.13	26.230
223.34	54.610
223.56	10.714
223.77	2.500
223.99	-65.263
224.20	-83.929
224.41	8.219
224.63	-21.591
224.84	20.946
225.05	3.846
225.27	9.565
225.48	-10.784
225.69	0.752
225.91	-79.730
226.12	17.054
226.34	9.396
226.55	-33.094
226.76	54.375
226.98	26.667
227.19	22.266
227.40	16.406
227.62	34.392
227.83	13.305
228.04	36.034
228.26	20.051
228.47	14.448
228.69	-20.558
228.90	-8.742
229.11	21.976
229.33	-1.254
229.54	6.950
229.75	0.993
229.97	3.634
230.18	12.360
230.39	13.274
230.61	8.195
230.82	-4.551
231.03	5.016
231.25	2.717
231.46	9.163
231.67	7.995
231.89	3.203
232.10	3.004
232.31	-3.266
232.53	-5.433
232.74	17.757
232.95	0.726
233.17	-14.200
233.38	-1.050
233.59	-6.865
233.81	24.275
234.02	10.621
234.23	-2.482
234.45	12.674
234.66	-7.965
234.87	10.656
235.09	15.595
235.30	7.706
235.51	7.473
235.73	4.453
235.94	11.466
236.15	13.763
236.36	-4.299
236.58	3.900
236.79	10.177
237.00	6.745
237.22	-1.190
237.43	-3.250
237.64	2.992
237.86	-8.271
238.07	-0.687
238.28	3.387
238.50	4.054
238.71	-1.079
238.92	-0.781
239.13	2.203
239.35	-2.799
239.56	8.834
239.77	15.228
239.99	1.551
240.20	-3.740
240.41	9.039
240.63	-1.482
240.84	-2.612
241.05	0.846
241.26	3.441
241.48	-3.862
241.69	-3.485
241.90	3.262
242.12	5.874
242.33	1.891
242.54	2.458
242.75	3.515
242.97	1.839
243.18	3.639
243.39	4.683
243.61	2.397
243.82	-0.373
244.03	2.198
244.24	4.346
244.46	3.537
244.67	3.074
244.88	2.005
245.09	8.068
245.31	6.721
245.52	0.362
245.73	-5.985
245.95	1.884
246.16	0.628
246.37	-1.640
246.58	2.220
246.80	2.949
247.01	4.798
247.22	3.056
247.43	4.564
247.65	2.631
247.86	1.814
248.07	1.741
248.28	2.985
248.50	3.043
248.71	1.814
248.92	2.539
249.13	1.012
249.35	3.789
249.56	2.114
249.77	3.298
249.98	0.971
250.20	3.528
250.41	1.959
250.62	4.647
250.83	4.083
251.05	4.726
251.26	3.870
251.47	1.122
251.68	2.654
251.90	2.497
252.11	0.730
252.32	1.857
252.53	-0.107
252.75	0.257
252.96	3.727
253.17	4.119
253.38	2.671
253.59	2.531
253.81	3.236
254.02	2.646
254.23	-0.229
254.44	-1.248
254.66	-1.257
254.87	1.105
255.08	-1.809
255.29	-2.073
255.50	0.936
255.72	2.000
255.93	2.691
256.14	6.703
256.35	-0.462
256.57	5.551
256.78	0.153
256.99	-5.105
257.20	3.471
257.41	0.329
257.63	9.450
257.84	3.210
258.05	3.479
258.26	-1.451
258.47	0.334
258.69	3.596
258.90	0.000
259.11	-0.359
259.32	1.009
259.53	0.223
259.75	0.200
259.96	3.836
260.17	2.597
260.38	0.517
260.59	1.846
260.81	0.852
261.02	1.514
261.23	2.026
261.44	1.732
261.65	1.306
261.87	1.170
262.08	2.338
262.29	1.481
262.50	1.509
262.71	1.804
262.92	2.240
263.14	2.169
263.35	0.949
263.56	-0.184
263.77	2.750
263.98	1.786
264.20	1.999
264.41	2.512
264.62	1.313
264.83	2.151
265.04	1.353
265.25	2.199
265.47	0.969
265.68	1.201
265.89	4.115
266.10	-0.590
266.31	1.449
266.52	-1.259
266.74	2.338
266.95	2.820
267.16	3.307
267.37	0.384
267.58	2.053
267.79	2.227
268.01	0.608
268.22	2.412
268.43	2.659
268.64	1.884
268.85	4.218
269.06	1.837
269.27	2.053
269.49	0.196
269.70	-0.098
269.91	2.909
270.12	1.038
270.33	2.711
270.54	-0.841
270.75	2.471
270.97	1.542
271.18	0.706
271.39	0.917
271.60	0.129
271.81	2.452
272.02	3.231
272.23	1.755
272.45	2.744
272.66	-0.364
272.87	0.658
273.08	-0.350
273.29	2.909
273.50	1.584
273.71	0.750
273.92	-0.386
274.14	-0.774
274.35	0.805
274.56	0.436
274.77	0.982
274.98	2.221
275.19	1.557
275.40	0.198
275.61	0.374
275.83	2.110
276.04	1.519
276.25	2.912
276.46	2.743
276.67	0.541
276.88	1.890
277.09	1.728
277.30	1.209
277.51	2.105
277.73	-0.917
277.94	2.456
278.15	5.346
278.36	0.611
278.57	0.833
278.78	0.408
278.99	2.127
279.20	1.574
279.41	3.505
279.62	-1.193
279.84	1.650
280.05	0.250
280.26	1.725
280.47	-1.140
280.68	1.522
280.89	1.605
281.10	1.607
281.31	1.215
281.52	3.008
281.73	1.920
281.94	0.676
282.16	-0.427
282.37	-0.053
282.58	0.182
282.79	3.176
283.00	2.361
283.21	1.091
283.42	0.273
283.63	3.169
283.84	-0.262
284.05	0.349
284.26	1.454
284.47	2.102
284.68	0.660
284.89	2.775
285.11	2.394
285.32	0.781
285.53	0.839
285.74	2.679
285.95	0.637
286.16	1.892
286.37	0.845
286.58	1.108
286.79	0.544
287.00	0.257
287.21	0.859
287.42	0.573
287.63	2.447
287.84	0.037
288.05	1.665
288.26	0.612
288.48	0.981
288.69	-0.367
288.90	1.761
289.11	2.949
289.32	2.681
289.53	1.029
289.74	0.684
289.95	0.583
290.16	1.420
290.37	0.666
290.58	0.167
290.79	-0.336
291.00	0.466
291.21	-0.937
291.42	1.196
291.63	1.231
291.84	2.423
292.05	0.551
292.26	0.281
292.47	2.050
292.68	-0.496
292.89	1.138
293.10	2.180
293.31	0.088
293.52	1.477
293.73	1.948
293.94	-0.468
294.15	0.159
294.36	0.418
294.57	0.573
294.79	1.980
295.00	-0.548
295.21	1.166
295.42	0.237
295.63	1.676
295.84	0.206
296.05	-0.198
296.26	-1.433
296.47	0.328
296.68	0.641
296.89	1.363
297.10	0.350
297.31	2.048
297.52	0.162
297.73	2.624
297.94	2.180
298.15	0.366
298.36	0.641
298.57	1.045
298.78	1.721
298.99	1.542
299.20	0.764
299.41	1.548
299.62	1.804
299.83	0.371
300.04	0.586
300.25	1.649
300.46	2.865
300.67	1.183
300.88	1.028
301.09	1.165
301.30	1.008
301.50	1.887
301.71	0.982
301.92	1.611
302.13	2.599
302.34	1.232
302.55	0.430
302.76	-0.332
302.97	0.000
303.18	1.250
303.39	0.061
303.60	0.844
303.81	2.173
304.02	-0.843
304.23	2.187
304.44	0.501
304.65	-0.234
304.86	1.169
305.07	0.021
305.28	1.859
305.49	2.371
305.70	1.778
305.91	2.291
306.12	0.733
306.33	1.524
306.54	0.686
306.75	0.128
306.96	2.365
307.17	1.626
307.38	1.918
307.58	1.045
307.79	-0.774
308.00	-0.044
308.21	0.022
308.42	1.342
308.63	-0.261
308.84	-0.226
309.05	0.764
309.26	-0.727
309.47	0.403
309.68	0.640
309.89	1.290
310.10	2.306
310.31	1.680
310.52	1.279
310.73	1.267
310.94	-0.481
311.14	0.807
311.35	0.984
311.56	0.623
311.77	-0.182
311.98	0.898
312.19	1.153
312.40	0.465
312.61	-1.601
312.82	1.604
313.03	-0.411
313.24	0.590
313.45	1.352
313.66	0.682
313.86	1.805
314.07	1.080
314.28	0.878
314.49	0.626
314.70	2.044
314.91	0.999
315.12	0.059
315.33	2.029
315.54	0.812
315.75	0.808
315.96	0.992
316.16	1.202
316.37	0.161
316.58	-0.268
316.79	1.240
317.00	-0.520
317.21	2.459
317.42	-0.635
317.63	0.468
317.84	1.063
318.05	-0.487
318.25	1.650
318.46	0.568
318.67	-0.021
318.88	0.702
319.09	1.988
319.30	0.422
319.51	0.448
319.72	1.799
319.93	0.796
320.13	1.104
320.34	2.122
320.55	2.492
320.76	1.919
320.97	1.705
321.18	0.812
321.39	0.252
321.60	0.557
321.80	2.670
322.01	0.092
322.22	-0.334
322.43	0.359
322.64	0.367
322.85	0.631
323.06	0.312
323.27	-0.177
323.47	0.837
323.68	0.343
323.89	2.062
324.10	1.605
324.31	0.425
324.52	0.803
324.73	2.171
324.93	1.756
325.14	0.918
325.35	2.110
325.56	0.184
325.77	0.981
325.98	1.342
326.19	0.980
326.39	0.980
326.60	0.508
326.81	-0.124
327.02	0.291
327.23	1.084
327.44	0.638
327.64	1.683
327.85	0.365
328.06	1.063
328.27	1.680
328.48	0.234
328.69	0.224
328.90	1.605
329.10	0.870
329.31	1.182
329.52	2.198
329.73	0.926
329.94	0.589
330.15	1.275
330.35	3.548
330.56	0.679
330.77	1.095
330.98	-1.588
331.19	0.620
331.39	1.612
331.60	2.231
331.81	0.427
332.02	0.384
332.23	0.207
332.44	1.237
332.64	0.432
332.85	0.257
333.06	1.210
333.27	0.391
333.48	0.748
333.68	2.003
333.89	1.609
334.10	1.467
334.31	-0.447
334.52	0.865
334.72	0.287
334.93	1.645
335.14	0.741
335.35	-0.147
335.56	1.280
335.76	0.699
335.97	1.568
336.18	1.604
336.39	1.137
336.60	0.559
336.80	-0.036
337.01	-0.794
337.22	0.879
337.43	0.771
337.64	1.280
337.84	1.930
338.05	0.402
338.26	2.499
338.47	2.506
338.68	0.241
338.88	0.159
339.09	1.017
339.30	1.318
339.51	0.904
339.71	0.613
339.92	0.555
340.13	0.541
340.34	1.477
340.55	1.061
340.75	2.115
340.96	1.185
341.17	1.625
341.38	0.575
341.58	1.510
341.79	1.264
342.00	0.748
342.21	0.953
342.41	-0.017
342.62	1.020
342.83	1.250
343.04	0.531
343.24	0.472
343.45	0.426
343.66	0.600
343.87	0.000
344.07	0.049
344.28	0.830
344.49	1.215
344.70	1.452
344.90	0.780
345.11	-0.469
345.32	0.502
345.53	1.808
345.73	1.597
345.94	1.063
346.15	0.922
346.36	0.105
346.56	0.884
346.77	2.259
346.98	1.425
347.19	1.620
347.39	0.768
347.60	1.786
347.81	0.886
348.02	1.381
348.22	1.248
348.43	1.022
348.64	1.874
348.84	2.243
349.05	2.092
349.26	2.136
349.47	2.012
349.67	1.285
349.88	0.976
350.09	2.451
350.30	2.150
350.50	2.264
350.71	1.632
350.92	0.908
351.12	1.874
351.33	0.819
351.54	1.334
351.74	2.924
351.95	1.498
352.16	2.754
352.37	2.514
352.57	1.164
352.78	2.439
352.99	1.743
353.19	1.762
353.40	1.326
353.61	2.799
353.82	2.723
354.02	3.694
354.23	2.397
354.44	4.301
354.64	2.656
354.85	2.593
355.06	1.348
355.26	1.126
355.47	1.842
355.68	2.341
355.88	3.490
356.09	3.973
356.30	4.363
356.51	5.002
356.71	3.339
356.92	1.486
357.13	3.676
357.33	3.985
357.54	3.624
357.75	1.355
357.95	4.324
358.16	2.707
358.37	4.807
358.57	3.221
358.78	5.455
358.99	3.774
359.19	4.059
359.40	4.759
359.61	3.234
359.81	4.636
360.02	6.208
360.23	2.316
360.43	3.411
360.64	3.323
360.85	5.162
361.05	3.782
361.26	5.501
361.47	3.959
361.67	6.425
361.88	3.551
362.09	5.812
362.29	3.447
362.50	4.654
362.70	4.285
362.91	6.213
363.12	3.332
363.32	5.340
363.53	5.424
363.74	5.077
363.94	4.055
364.15	6.712
364.36	5.919
364.56	3.934
364.77	5.218
364.98	6.428
365.18	4.140
365.39	5.991
365.59	4.083
365.80	5.015
366.01	5.530
366.21	4.192
366.42	2.921
366.63	4.927
366.83	3.949
367.04	3.097
367.24	5.477
367.45	4.626
367.66	2.852
367.86	4.594
368.07	3.670
368.28	4.428
368.48	5.181
368.69	3.220
368.89	4.053
369.10	3.847
369.31	4.666
369.51	4.042
369.72	5.221
369.92	5.795
370.13	3.179
370.34	3.750
370.54	1.824
370.75	3.978
370.95	2.512
371.16	4.166
371.37	3.798
371.57	5.111
371.78	3.260
371.98	4.761
372.19	4.164
372.40	5.268
372.60	4.800
372.81	5.183
373.01	3.319
373.22	3.261
373.43	4.091
373.63	4.598
373.84	3.816
374.04	4.273
374.25	3.702
374.46	5.561
374.66	4.389
374.87	5.158
375.07	2.721
375.28	3.548
375.48	4.505
375.69	3.748
375.90	2.391
376.10	3.443
376.31	3.742
376.51	3.172
376.72	3.865
376.92	2.895
377.13	4.374
377.34	4.995
377.54	3.683
377.75	4.835
377.95	3.355
378.16	5.951
378.36	4.512
378.57	6.100
378.77	4.864
378.98	5.790
379.19	3.924
379.39	3.406
379.60	4.464
379.80	4.478
380.01	5.099
380.21	3.976
380.42	4.324
380.62	4.992
380.83	5.171
381.04	4.199
381.24	4.899
381.45	4.069
381.65	2.901
381.86	4.768
382.06	4.905
382.27	2.770
382.47	3.688
382.68	5.267
382.88	2.917
383.09	3.092
383.29	4.361
383.50	5.350
383.71	4.175
383.91	5.007
384.12	3.378
384.32	4.741
384.53	4.257
384.73	3.115
384.94	3.392
385.14	4.773
385.35	3.504
385.55	4.275
385.76	3.765
385.96	3.942
386.17	4.465
386.37	5.954
386.58	3.993
386.78	4.910
386.99	3.650
387.19	5.486
387.40	3.477
387.60	6.479
387.81	3.900
388.01	4.128
388.22	4.948
388.42	5.142
388.63	5.726
388.83	7.032
389.04	3.533
389.24	4.968
389.45	5.059
389.65	4.577
389.86	4.463
390.06	4.222
390.27	4.132
390.47	3.803
390.68	4.265
390.88	6.323
391.09	5.689
391.29	5.472
391.50	4.748
391.70	5.728
391.91	5.089
392.11	4.620
392.32	5.620
392.52	6.021
392.73	5.237
392.93	7.035
393.14	5.370
393.34	4.832
393.55	5.899
393.75	5.989
393.95	5.117
394.16	6.341
394.36	6.430
394.57	6.866
394.77	5.368
394.98	6.088
395.18	6.554
395.39	6.288
395.59	5.728
395.80	6.146
396.00	6.008
396.21	6.970
396.41	4.924
396.61	6.532
396.82	5.539
397.02	7.498
397.23	5.258
397.43	4.965
397.64	3.779
397.84	7.286
398.05	5.008
398.25	5.942
398.45	5.404
398.66	5.466
398.86	5.914
399.07	6.645
399.27	5.330
399.48	6.771
399.68	4.925
399.89	5.860
400.09	5.779
400.29	4.291
400.50	5.393
400.70	5.495
400.91	4.871
401.11	5.513
401.32	5.375
401.52	4.515
401.72	5.122
401.93	7.422
402.13	5.328
402.34	5.530
402.54	4.575
402.75	7.327
402.95	3.621
403.15	6.859
403.36	4.447
403.56	6.512
403.77	5.151
403.97	5.174
404.17	5.060
404.38	6.465
404.58	4.906
404.79	6.795
404.99	6.272
405.19	6.257
405.40	6.019
405.60	6.090
405.81	5.486
406.01	5.687
406.21	5.544
406.42	6.886
406.62	6.488
406.83	6.132
407.03	6.938
407.23	5.210
407.44	5.552
407.64	6.933
407.85	6.022
408.05	5.285
408.25	5.439
408.46	6.526
408.66	5.893
408.87	5.164
409.07	5.054
409.27	4.625
409.48	4.825
409.68	5.956
409.88	4.245
410.09	6.088
410.29	6.085
410.50	6.546
410.70	4.533
410.90	5.762
411.11	4.517
411.31	5.545
411.51	5.661
411.72	7.274
411.92	4.571
412.12	5.329
412.33	4.370
412.53	4.896
412.74	3.738
412.94	5.564
413.14	5.347
413.35	6.133
413.55	5.084
413.75	6.138
413.96	4.456
414.16	5.584
414.36	4.856
414.57	5.604
414.77	5.079
414.97	5.674
415.18	4.796
415.38	5.864
415.58	5.119
415.79	4.611
415.99	4.811
416.19	6.152
416.40	5.818
416.60	4.951
416.80	5.446
417.01	5.705
417.21	4.339
417.41	6.711
417.62	5.664
417.82	6.446
418.02	5.045
418.23	6.456
418.43	5.941
418.63	6.552
418.84	6.522
419.04	6.479
419.24	7.048
419.45	7.470
419.65	6.822
419.85	7.354
420.06	6.996
420.26	7.486
420.46	6.929
420.67	7.290
420.87	7.601
421.07	7.744
421.28	7.068
421.48	7.879
421.68	7.867
421.88	7.935
422.09	7.924
422.29	7.812
422.49	7.069
422.70	7.644
422.90	7.537
423.10	7.869
423.31	7.365
423.51	7.919
423.71	7.346
423.91	8.093
424.12	7.745
424.32	7.958
424.52	7.671
424.73	7.709
424.93	8.016
425.13	7.775
425.33	7.419
425.54	8.343
425.74	7.544
425.94	8.659
426.15	7.959
426.35	7.621
426.55	7.634
426.75	8.231
426.96	7.701
427.16	7.528
427.36	7.672
427.57	8.001
427.77	7.166
427.97	7.636
428.17	7.582
428.38	8.035
428.58	6.383
428.78	7.926
428.98	6.661
429.19	6.445
429.39	5.689
429.59	7.312
429.79	5.493
430.00	5.951
430.20	6.166
430.40	7.025
430.60	6.711
430.81	6.981
431.01	6.576
431.21	7.326
431.41	6.290
431.62	7.330
431.82	6.793
432.02	8.257
432.22	7.154
432.43	7.404
432.63	6.622
432.83	8.367
433.03	7.821
433.24	7.405
433.44	7.603
433.64	8.831
433.84	7.620
434.05	8.894
434.25	8.857
434.45	8.863
434.65	9.271
434.85	9.204
435.06	9.117
435.26	8.984
435.46	8.318
435.66	8.980
435.87	8.887
436.07	9.108
436.27	8.716
436.47	8.657
436.67	7.762
436.88	9.086
437.08	8.452
437.28	9.592
437.48	8.232
437.69	9.343
437.89	8.916
438.09	9.791
438.29	8.699
438.49	9.557
438.70	9.174
438.90	9.054
439.10	8.742
439.30	9.846
439.50	8.902
439.71	9.839
439.91	9.530
440.11	10.681
440.31	9.727
440.51	10.003
440.72	9.910
440.92	10.142
441.12	10.561
441.32	10.908
441.52	10.586
441.72	10.756
441.93	10.259
442.13	11.081
442.33	10.428
442.53	11.035
442.73	9.922
442.94	10.446
443.14	10.407
443.34	10.601
443.54	10.083
443.74	10.680
443.94	10.272
444.15	9.994
444.35	9.850
444.55	10.895
444.75	9.980
444.95	10.792
445.15	10.499
445.36	10.895
445.56	10.132
445.76	10.634
445.96	10.506
446.16	10.805
446.36	10.678
446.57	11.142
446.77	10.492
446.97	11.124
447.17	11.181
447.37	11.236
447.57	11.118
447.77	11.119
447.98	11.226
448.18	11.104
448.38	10.690
448.58	11.372
448.78	10.995
448.98	11.275
449.18	10.652
449.39	10.894
449.59	10.736
449.79	11.077
449.99	10.520
450.19	10.836
450.39	10.541
450.59	10.605
450.79	10.481
451.00	10.803
451.20	10.816
451.40	10.682
451.60	10.197
451.80	11.170
452.00	10.055
452.20	10.797
452.40	10.323
452.61	10.218
452.81	10.599
453.01	10.876
453.21	10.917
453.41	10.957
453.61	10.566
453.81	10.731
454.01	10.281
454.21	10.879
454.42	10.792
454.62	11.011
454.82	10.677
455.02	10.454
455.22	9.935
455.42	10.228
455.62	9.318
455.82	10.542
456.02	10.059
456.23	10.784
456.43	9.529
456.63	10.382
456.83	9.405
457.03	11.061
457.23	9.936
457.43	10.703
457.63	9.666
457.83	10.769
458.03	10.017
458.23	10.658
458.43	9.734
458.64	10.372
458.84	10.248
459.04	11.090
459.24	10.744
459.44	11.048
459.64	11.053
459.84	10.797
460.04	11.167
460.24	11.315
460.44	10.631
460.64	11.347
460.84	11.236
461.04	11.761
461.24	11.456
461.45	11.537
461.65	11.221
461.85	11.397
462.05	11.152
462.25	10.976
462.45	10.940
462.65	11.044
462.85	10.291
463.05	11.107
463.25	9.899
463.45	11.116
463.65	10.355
463.85	11.181
464.05	10.184
464.25	11.152
464.45	10.649
464.65	10.571
464.85	10.250
465.05	10.803
465.26	10.472
465.46	10.872
465.66	10.393
465.86	10.592
466.06	10.573
466.26	11.107
466.46	9.968
466.66	10.887
466.86	10.682
467.06	11.107
467.26	10.905
467.46	10.769
467.66	10.916
467.86	11.001
468.06	10.993
468.26	11.173
468.46	10.965
468.66	11.296
468.86	10.100
469.06	11.152
469.26	10.594
469.46	10.936
469.66	10.861
469.86	11.306
470.06	10.653
470.26	11.641
470.46	10.611
470.66	11.490
470.86	10.754
471.06	11.174
471.26	10.477
471.46	10.729
471.66	10.709
471.86	11.211
472.06	10.448
472.26	11.915
472.46	12.009
472.66	11.844
472.86	11.127
473.06	11.792
473.26	11.415
473.46	12.228
473.66	11.346
473.86	11.789
474.06	11.345
474.26	11.766
474.46	10.920
474.66	11.855
474.86	11.624
475.06	12.117
475.26	11.150
475.46	12.366
475.66	11.444
475.86	12.027
476.06	11.834
476.26	12.280
476.46	12.000
476.66	12.538
476.86	11.499
477.06	12.486
477.26	11.846
477.46	12.362
477.65	12.581
477.85	12.535
478.05	12.012
478.25	13.157
478.45	12.082
478.65	13.028
478.85	12.383
479.05	12.956
479.25	12.746
479.45	13.252
479.65	12.563
479.85	12.931
480.05	12.897
480.25	13.365
480.45	12.953
480.65	13.510
480.85	13.005
481.05	13.932
481.25	13.503
481.44	13.516
481.64	13.269
481.84	13.706
482.04	13.559
482.24	14.122
482.44	13.588
482.64	13.925
482.84	14.029
483.04	13.890
483.24	13.939
483.44	13.941
483.64	14.062
483.84	14.159
484.04	14.213
484.23	14.345
484.43	14.499
484.63	14.644
484.83	14.967
485.03	15.472
485.23	15.562
485.43	15.032
485.63	15.171
485.83	14.581
486.03	14.573
486.23	14.607
486.42	14.682
486.62	14.630
486.82	14.491
487.02	14.402
487.22	14.502
487.42	14.389
487.62	14.539
487.82	14.608
488.02	14.597
488.22	14.538
488.41	14.700
488.61	14.608
488.81	14.714
489.01	14.706
489.21	14.792
489.41	14.700
489.61	14.555
489.81	14.653
490.01	14.730
490.20	14.774
490.40	14.522
490.60	14.597
490.80	14.629
491.00	14.870
491.20	14.555
491.40	14.687
491.60	14.713
491.79	14.728
491.99	14.705
492.19	15.035
492.39	14.726
492.59	14.729
492.79	15.072
492.99	14.820
493.19	14.952
493.38	14.910
493.58	15.019
493.78	14.707
493.98	14.825
494.18	14.849
494.38	14.906
494.58	15.051
494.77	14.373
494.97	14.485
495.17	14.348
495.37	14.605
495.57	14.871
495.77	14.849
495.96	14.576
496.16	14.773
496.36	14.484
496.56	14.683
496.76	14.553
496.96	14.589
497.15	14.704
497.35	14.731
497.55	14.488
497.75	14.694
497.95	14.910
498.15	14.849
498.34	14.668
498.54	14.646
498.74	14.597
498.94	14.665
499.14	14.760
499.34	15.088
499.53	14.624
499.73	14.561
499.93	14.569
500.13	14.829
500.33	14.293
500.52	14.916
500.72	14.526
500.92	14.428
501.12	14.711
501.32	14.354
501.52	14.591
501.71	14.697
501.91	14.264
502.11	14.561
502.31	14.097
502.51	14.756
502.70	14.169
502.90	14.984
503.10	14.403
503.30	15.132
503.50	14.648
503.69	14.041
503.89	14.084
504.09	14.686
504.29	14.466
504.48	14.880
504.68	14.390
504.88	14.910
505.08	14.446
505.28	14.850
505.47	14.688
505.67	14.724
505.87	14.685
506.07	14.563
506.27	14.369
506.46	14.408
506.66	13.980
506.86	14.726
507.06	14.804
507.25	14.657
507.45	14.814
507.65	15.068
507.85	14.410
508.04	14.928
508.24	14.577
508.44	14.469
508.64	14.912
508.83	14.814
509.03	14.509
509.23	14.919
509.43	14.549
509.63	14.726
509.82	14.464
510.02	14.615
510.22	14.687
510.42	14.714
510.61	14.666
510.81	14.741
511.01	14.520
511.21	14.501
511.40	14.623
511.60	14.957
511.80	14.785
511.99	14.525
512.19	14.507
512.39	14.674
512.59	14.595
512.78	14.762
512.98	14.881
513.18	14.549
513.38	14.711
513.57	14.614
513.77	15.125
513.97	14.510
514.17	14.510
514.36	14.718
514.56	14.524
514.76	14.932
514.95	14.534
515.15	14.726
515.35	14.094
515.55	14.641
515.74	14.214
515.94	14.278
516.14	14.554
516.33	14.489
516.53	14.472
516.73	14.688
516.93	14.451
517.12	14.478
517.32	14.326
517.52	14.504
517.71	14.100
517.91	14.519
518.11	14.608
518.30	14.466
518.50	14.535
518.70	14.719
518.90	14.330
519.09	14.585
519.29	14.578
519.49	14.521
519.68	14.361
519.88	14.335
520.08	14.595
520.27	14.601
520.47	14.717
520.67	14.477
520.86	14.569
521.06	14.466
521.26	14.409
521.45	14.700
521.65	14.558
521.85	14.491
522.04	14.309
522.24	14.465
522.44	14.373
522.63	14.114
522.83	14.081
523.03	14.435
523.22	14.749
523.42	14.268
523.62	14.418
523.81	14.231
524.01	14.648
524.21	14.197
524.40	14.589
524.60	14.499
524.80	14.271
524.99	14.511
525.19	14.475
525.39	14.927
525.58	14.585
525.78	14.244
525.98	14.688
526.17	14.503
526.37	14.368
526.57	14.215
526.76	14.532
526.96	14.443
527.15	14.585
527.35	14.464
527.55	14.247
527.74	14.560
527.94	14.453
528.14	14.512
528.33	14.545
528.53	14.399
528.72	14.398
528.92	14.728
529.12	14.746
529.31	14.812
529.51	14.961
529.71	14.944
529.90	14.937
530.10	14.889
530.29	14.940
530.49	14.765
530.69	14.700
530.88	14.762
531.08	14.557
531.28	14.609
531.47	14.533
531.67	14.482
531.86	14.515
532.06	14.375
532.26	14.428
532.45	14.224
532.65	14.244
532.84	14.424
533.04	14.117
533.24	14.411
533.43	14.341
533.63	14.434
533.82	14.409
534.02	14.516
534.22	14.450
534.41	14.554
534.61	14.483
534.80	14.472
535.00	14.466
535.19	14.158
535.39	14.460
535.59	14.165
535.78	14.104
535.98	14.229
536.17	14.291
536.37	14.134
536.57	14.517
536.76	14.004
536.96	14.300
537.15	14.247
537.35	14.013
537.54	14.016
537.74	14.243
537.93	14.197
538.13	14.239
538.33	14.205
538.52	14.259
538.72	14.349
538.91	14.191
539.11	14.124
539.30	14.321
539.50	14.502
539.70	14.025
539.89	13.948
540.09	14.252
540.28	14.237
540.48	13.961
540.67	14.102
540.87	14.107
541.06	13.795
541.26	14.274
541.45	14.216
541.65	14.254
541.85	14.164
542.04	14.158
542.24	14.064
542.43	14.308
542.63	14.364
542.82	14.286
543.02	14.359
543.21	14.519
543.41	14.132
543.60	14.275
543.80	14.231
543.99	14.226
544.19	14.253
544.38	14.038
544.58	14.296
544.77	14.264
544.97	14.197
545.16	14.360
545.36	14.068
545.56	14.046
545.75	13.999
545.95	14.043
546.14	14.109
546.34	14.054
546.53	13.877
546.73	13.745
546.92	14.068
547.12	14.171
547.31	13.775
547.51	13.914
547.70	13.999
547.90	13.969
548.09	14.096
548.29	13.974
548.48	14.184
548.68	13.815
548.87	13.902
549.07	13.955
549.26	13.746
549.46	13.815
549.65	14.104
549.84	13.472
550.04	14.142
550.23	12.907
550.43	13.954
550.62	13.713
550.82	13.881
551.01	13.549
551.21	13.901
551.40	13.260
551.60	13.585
551.79	13.678
551.99	13.902
552.18	13.251
552.38	13.850
552.57	13.085
552.77	13.962
552.96	13.742
553.16	13.931
553.35	13.909
553.54	14.082
553.74	13.464
553.93	14.195
554.13	14.077
554.32	14.206
554.52	13.834
554.71	14.072
554.91	13.893
555.10	13.515
555.29	12.752
555.49	13.705
555.68	13.723
555.88	13.756
556.07	13.381
556.27	13.726
556.46	13.427
556.66	13.742
556.85	13.704
557.04	14.052
557.24	13.030
557.43	13.726
557.63	13.359
557.82	13.718
558.02	12.686
558.21	13.963
558.40	13.166
558.60	13.881
558.79	13.312
558.99	14.009
559.18	13.246
559.38	13.469
559.57	13.548
559.76	13.785
559.96	13.177
560.15	13.914
560.35	13.900
560.54	13.585
560.73	12.904
560.93	13.558
561.12	13.479
561.32	13.840
561.51	13.222
561.70	13.662
561.90	13.983
562.09	14.371
562.29	13.242
562.48	14.238
562.67	13.525
562.87	14.414
563.06	13.636
563.26	13.977
563.45	13.282
563.64	14.193
563.84	14.197
564.03	13.794
564.23	13.758
564.42	14.142
564.61	13.515
564.81	13.777
565.00	13.706
565.20	14.206
565.39	14.032
565.58	14.668
565.78	14.030
565.97	14.442
566.16	14.732
566.36	14.782
566.55	14.359
566.74	14.685
566.94	14.482
567.13	14.381
567.33	14.095
567.52	15.083
567.71	14.821
567.91	14.574
568.10	14.647
568.29	14.071
568.49	14.271
568.68	14.561
568.87	14.322
569.07	14.717
569.26	14.132
569.45	14.505
569.65	14.289
569.84	14.473
570.04	14.708
570.23	14.807
570.42	14.549
570.62	14.913
570.81	14.715
571.00	14.707
571.20	14.804
571.39	14.801
571.58	14.400
571.78	14.874
571.97	14.878
572.16	14.941
572.36	14.635
572.55	14.590
572.74	15.216
572.94	15.012
573.13	14.758
573.32	15.105
573.51	14.810
573.71	15.195
573.90	14.946
574.09	14.901
574.29	14.968
574.48	15.274
574.67	14.707
574.87	15.104
575.06	14.862
575.25	14.970
575.45	14.892
575.64	15.252
575.83	14.792
576.03	15.639
576.22	14.964
576.41	14.747
576.60	14.778
576.80	14.771
576.99	14.982
577.18	15.228
577.38	14.856
577.57	15.128
577.76	14.804
577.95	14.720
578.15	14.658
578.34	15.139
578.53	14.259
578.73	14.927
578.92	14.413
579.11	14.664
579.30	15.475
579.50	15.121
579.69	14.983
579.88	15.078
580.08	14.453
580.27	14.570
580.46	14.132
580.65	15.178
580.85	14.154
581.04	15.245
581.23	14.281
581.42	14.562
581.62	14.270
581.81	14.516
582.00	14.221
582.19	14.636
582.39	14.139
582.58	15.094
582.77	14.554
582.96	14.332
583.16	13.740
583.35	15.448
583.54	14.148
583.73	15.139
583.93	14.312
584.12	14.915
584.31	13.543
584.50	14.607
584.70	14.885
584.89	14.702
585.08	14.484
585.27	14.955
585.47	14.771
585.66	14.642
585.85	14.462
586.04	14.482
586.24	14.673
586.43	15.231
586.62	14.985
586.81	15.627
587.00	14.178
587.20	14.255
587.39	14.264
587.58	15.496
587.77	15.095
587.97	14.937
588.16	14.625
588.35	15.590
588.54	14.378
588.73	14.735
588.93	15.004
589.12	15.097
589.31	14.935
589.50	15.363
589.69	15.227
589.89	15.059
590.08	14.971
590.27	14.977
590.46	14.653
590.65	15.567
590.85	14.803
591.04	15.470
591.23	15.187
591.42	15.734
591.61	15.344
591.81	15.761
592.00	14.435
592.19	15.275
592.38	14.356
592.57	16.030
592.77	14.763
592.96	14.882
593.15	15.776
593.34	15.274
593.53	15.178
593.72	15.048
593.92	14.965
594.11	15.832
594.30	15.014
594.49	15.751
594.68	15.158
594.87	15.061
595.07	14.573
595.26	15.438
595.45	14.760
595.64	15.657
595.83	15.006
596.02	15.725
596.22	15.632
596.41	15.714
596.60	15.015
596.79	16.451
596.98	15.498
597.17	15.958
597.37	15.896
597.56	16.623
597.75	14.946
597.94	16.792
598.13	16.294
598.32	16.055
598.51	15.780
598.71	16.908
598.90	15.645
599.09	16.362
599.28	15.702
599.47	16.197
599.66	14.916
599.85	16.480
600.05	14.868
600.24	15.851
600.43	15.307
600.62	15.589
600.81	15.127
601.00	15.880
601.19	15.165
601.38	16.203
601.58	15.118
601.77	15.761
601.96	15.475
602.15	16.214
602.34	15.482
602.53	16.529
602.72	15.923
602.91	16.550
603.10	15.750
603.30	15.936
603.49	15.514
603.68	16.325
603.87	15.902
604.06	16.883
604.25	16.339
604.44	16.525
604.63	16.600
604.82	16.482
605.01	16.833
605.21	16.472
605.40	16.279
605.59	16.788
605.78	16.583
605.97	16.692
606.16	16.546
606.35	16.597
606.54	16.394
606.73	16.403
606.92	15.706
607.11	16.482
607.30	16.121
607.50	16.357
607.69	15.675
607.88	16.560
608.07	15.349
608.26	15.867
608.45	15.517
608.64	16.414
608.83	15.705
609.02	16.011
609.21	15.846
609.40	16.516
609.59	15.984
609.78	16.329
609.97	16.463
610.16	16.059
610.35	16.637
610.55	16.642
610.74	16.470
610.93	16.567
611.12	16.586
611.31	16.271
611.50	16.079
611.69	16.557
611.88	16.233
612.07	15.956
612.26	15.811
612.45	16.757
612.64	15.690
612.83	15.902
613.02	15.891
613.21	15.563
613.40	15.517
613.59	16.698
613.78	15.448
613.97	16.410
614.16	16.038
614.35	15.803
614.54	14.700
614.73	15.603
614.92	15.284
615.11	15.977
615.30	15.152
615.49	15.352
615.68	15.167
615.87	15.395
616.07	14.788
616.26	15.877
616.45	15.245
616.64	15.566
616.83	14.706
617.02	15.350
617.21	14.660
617.40	14.464
617.59	15.234
617.78	15.861
617.97	13.762
618.16	14.168
618.35	13.946
618.54	14.901
618.73	13.748
618.92	15.385
619.11	13.699
619.30	15.271
619.49	13.711
619.68	15.023
619.86	15.335
620.05	15.900
620.24	14.361
620.43	15.082
620.62	13.845
620.81	15.318
621.00	14.854
621.19	15.383
621.38	14.891
621.57	14.555
621.76	14.890
621.95	14.760
622.14	14.240
622.33	15.579
622.52	14.434
622.71	14.950
622.90	14.223
623.09	15.472
623.28	14.216
623.47	15.261
623.66	14.937
623.85	14.774
624.04	14.042
624.23	14.353
624.42	13.781
624.61	14.861
624.80	14.086
624.99	14.965
625.18	13.959
625.36	14.666
625.55	14.847
625.74	14.948
625.93	14.234
626.12	15.355
626.31	14.615
626.50	15.165
626.69	14.520
626.88	15.915
627.07	15.517
627.26	15.683
627.45	15.278
627.64	15.564
627.83	15.005
628.02	16.048
628.20	14.939
628.39	15.861
628.58	15.653
628.77	15.298
628.96	14.508
629.15	15.018
629.34	14.841
629.53	15.661
629.72	14.517
629.91	16.063
630.10	14.770
630.29	15.229
630.47	15.332
630.66	15.646
630.85	14.874
631.04	15.588
631.23	14.841
631.42	15.013
631.61	15.125
631.80	15.896
631.99	14.415
632.18	14.710
632.36	14.874
632.55	14.982
632.74	14.652
632.93	14.600
633.12	14.449
633.31	15.245
633.50	14.103
633.69	14.809
633.88	14.541
634.06	14.902
634.25	14.765
634.44	15.480
634.63	15.241
634.82	15.078
635.01	14.768
635.20	15.080
635.39	14.946
635.57	15.603
635.76	14.265
635.95	15.480
636.14	14.366
636.33	14.785
636.52	13.913
636.71	14.946
636.89	13.454
637.08	14.532
637.27	13.031
637.46	14.430
637.65	13.421
637.84	14.643
638.03	13.827
638.21	14.475
638.40	14.410
638.59	14.485
638.78	12.759
638.97	15.014
639.16	14.748
639.34	14.058
639.53	12.785
639.72	14.165
639.91	13.307
640.10	13.327
640.29	13.920
640.47	13.101
640.66	12.988
640.85	14.468
641.04	12.122
641.23	13.418
641.42	12.948
641.60	13.101
641.79	11.245
641.98	13.724
642.17	12.477
642.36	13.884
642.54	11.837
642.73	13.375
642.92	11.833
643.11	12.349
643.30	12.797
643.49	12.546
643.67	10.727
643.86	13.197
644.05	11.805
644.24	12.474
644.43	12.317
644.61	13.501
644.80	13.044
644.99	12.815
645.18	13.349
645.37	14.027
645.55	11.917
645.74	13.641
645.93	12.266
646.12	12.740
646.31	12.888
646.49	13.393
646.68	12.747
646.87	13.741
647.06	12.952
647.24	12.473
647.43	11.808
647.62	13.668
647.81	11.511
648.00	13.858
648.18	11.428
648.37	12.875
648.56	12.425
648.75	12.735
648.93	12.734
649.12	13.038
649.31	12.748
649.50	12.997
649.68	12.418
649.87	13.051
650.06	10.684
650.25	12.758
650.43	11.706
650.62	12.066
650.81	11.963
651.00	12.790
651.18	11.295
651.37	13.343
651.56	11.651
651.75	13.179
651.93	12.083
652.12	12.424
652.31	11.380
652.50	13.031
652.68	12.478
652.87	13.021
653.06	12.983
653.25	14.147
653.43	12.411
653.62	13.132
653.81	11.841
654.00	12.287
654.18	11.154
654.37	12.538
654.56	11.099
654.74	10.976
654.93	12.181
655.12	11.311
655.31	11.190
655.49	12.008
655.68	10.373
655.87	10.999
656.05	9.623
656.24	12.714
656.43	9.909
656.62	12.325
656.80	10.450
656.99	10.954
657.18	10.167
657.36	11.234
657.55	11.042
657.74	11.777
657.93	11.870
658.11	13.301
658.30	12.143
658.49	10.944
658.67	11.999
658.86	12.049
659.05	11.653
659.23	13.458
659.42	12.120
659.61	13.327
659.79	12.427
659.98	12.797
660.17	12.924
660.35	13.346
660.54	12.933
660.73	14.115
660.91	13.151
661.10	13.566
661.29	11.063
661.47	11.401
661.66	11.702
661.85	12.230
662.03	12.049
662.22	11.795
662.41	10.118
662.59	13.010
662.78	11.316
662.97	11.618
663.15	10.050
663.34	10.053
663.53	10.588
663.71	12.879
663.90	10.235
664.09	11.702
664.27	9.833
664.46	10.289
664.65	9.899
664.83	10.065
665.02	9.268
665.21	9.163
665.39	8.109
665.58	11.526
665.77	9.156
665.95	10.460
666.14	7.672
666.32	9.233
666.51	8.103
666.70	8.390
666.88	8.127
667.07	8.911
667.26	8.012
667.44	10.069
667.63	8.371
667.81	8.715
668.00	9.659
668.19	9.785
668.37	8.149
668.56	10.416
668.75	7.557
668.93	10.576
669.12	8.781
669.30	9.267
669.49	8.299
669.68	10.643
669.86	10.095
670.05	9.028
670.23	9.287
670.42	8.538
670.61	9.776
670.79	10.215
670.98	8.168
671.16	10.775
671.35	7.462
671.54	10.222
671.72	8.388
671.91	9.752
672.09	7.829
672.28	11.157
672.46	10.636
672.65	9.281
672.84	7.579
673.02	10.452
673.21	6.573
673.39	9.438
673.58	8.505
673.77	10.477
673.95	8.483
674.14	10.252
674.32	7.652
674.51	10.549
674.69	8.442
674.88	9.235
675.07	8.005
675.25	10.182
675.44	8.298
675.62	8.655
675.81	7.143
675.99	12.556
676.18	9.878
676.36	9.202
676.55	8.388
676.74	11.244
676.92	7.448
677.11	10.154
677.29	7.851
677.48	9.623
677.66	8.866
677.85	10.103
678.03	8.531
678.22	9.882
678.40	8.931
678.59	8.946
678.78	7.330
678.96	9.558
679.15	8.144
679.33	11.694
679.52	10.611
679.70	9.712
679.89	8.975
680.07	11.177
680.26	9.148
680.44	11.376
680.63	10.468
680.81	10.756
681.00	8.229
681.18	10.669
681.37	10.016
681.55	12.591
681.74	10.476
681.92	11.932
682.11	10.242
682.29	11.260
682.48	11.278
682.66	10.684
682.85	10.239
683.03	11.026
683.22	10.824
683.40	12.601
683.59	10.201
683.77	10.996
683.96	8.980
684.14	12.454
684.33	8.202
684.51	11.625
684.70	9.556
684.88	11.345
685.07	9.655
685.25	11.278
685.44	9.417
685.62	10.652
685.81	9.153
685.99	11.762
686.18	8.682
686.36	11.290
686.55	8.155
686.73	9.514
686.92	11.583
687.10	11.145
687.29	10.293
687.47	12.314
687.65	11.871
687.84	10.513
688.02	12.339
688.21	12.954
688.39	9.552
688.58	12.111
688.76	10.973
688.95	12.171
689.13	9.362
689.32	12.572
689.50	11.062
689.68	13.123
689.87	10.251
690.05	11.763
690.24	11.558
690.42	12.151
690.61	11.793
690.79	13.406
690.98	11.011
691.16	11.749
691.34	9.433
691.53	11.568
691.71	9.116
691.90	11.941
692.08	10.633
692.27	13.091
692.45	13.527
692.63	12.397
692.82	11.638
693.00	11.691
693.19	10.013
693.37	13.344
693.56	9.543
693.74	12.057
693.92	11.090
694.11	12.703
694.29	11.501
694.48	13.373
694.66	10.752
694.84	12.122
695.03	11.452
695.21	13.593
695.40	13.027
695.58	13.993
695.76	10.636
695.95	12.946
696.13	9.866
696.32	13.763
696.50	16.006
696.68	13.580
696.87	13.278
697.05	13.807
697.24	12.150
697.42	15.863
697.60	13.560
697.79	15.403
697.97	14.630
698.16	17.068
698.34	13.962
698.52	17.189
698.71	15.660
698.89	17.545
699.07	14.770
699.26	17.840
699.44	17.252
699.63	18.727
699.81	16.384
699.99	19.021
700.18	18.668
700.36	18.329
700.54	17.259
700.73	17.709
700.91	16.326
701.09	18.263
701.28	17.716
701.46	16.833
701.64	15.855
701.83	18.345
702.01	15.259
702.20	18.123
702.38	16.715
702.56	16.204
702.75	14.533
702.93	15.287
703.11	15.022
703.30	15.383
703.48	14.692
703.66	15.675
703.85	14.909
704.03	17.219
704.21	13.375
704.40	17.967
704.58	13.663
704.76	16.887
704.95	14.256
705.13	15.503
705.31	14.227
705.50	17.377
705.68	12.391
705.86	16.346
706.04	15.378
706.23	14.941
706.41	13.649
706.59	15.588
706.78	14.498
706.96	16.093
707.14	15.822
707.33	16.916
707.51	14.436
707.69	17.086
707.88	14.014
708.06	15.924
708.24	15.476
708.42	18.334
708.61	15.629
708.79	17.447
708.97	15.332
709.16	17.677
709.34	16.355
709.52	17.203
709.71	15.639
709.89	18.088
710.07	14.827
710.25	17.514
710.44	15.271
710.62	17.765
710.80	17.914
710.98	16.622
711.17	16.704
711.35	18.349
711.53	16.315
711.72	18.512
711.90	17.545
712.08	17.435
712.26	15.728
712.45	17.762
712.63	17.637
712.81	19.391
712.99	16.878
713.18	18.076
713.36	17.898
713.54	17.541
713.72	17.234
713.91	17.458
714.09	15.441
714.27	17.169
714.45	18.517
714.64	19.561
714.82	16.464
715.00	18.347
715.18	16.523
715.37	17.967
715.55	16.728
715.73	18.458
715.91	16.792
716.10	19.031
716.28	16.578
716.46	20.387
716.64	16.589
716.83	19.625
717.01	16.524
717.19	18.197
717.37	16.525
717.55	18.363
717.74	16.969
717.92	17.919
718.10	14.417
718.28	16.141
718.47	15.195
718.65	19.279
718.83	14.921
719.01	17.899
719.19	14.153
719.38	15.163
719.56	13.481
719.74	14.564
719.92	11.487
720.10	15.181
720.29	14.366
720.47	15.847
720.65	15.338
720.83	17.486
721.01	11.453
721.20	14.190
721.38	14.712
721.56	15.080
721.74	14.359
721.92	15.682
722.11	14.261
722.29	14.491
722.47	14.061
722.65	15.349
722.83	14.486
723.01	15.510
723.20	14.901
723.38	15.701
723.56	11.413
723.74	19.089
723.92	14.911
724.10	15.091
724.29	14.197
724.47	17.502
724.65	13.573
724.83	16.894
725.01	12.692
725.19	15.965
725.38	13.966
725.56	14.112
725.74	14.005
725.92	15.565
726.10	14.540
726.28	15.629
726.46	14.703
726.65	16.368
726.83	12.241
727.01	15.616
727.19	15.945
727.37	14.245
727.55	14.217
727.73	16.649
727.92	16.282
728.10	18.203
728.28	11.861
728.46	18.117
728.64	12.437
728.82	17.111
729.00	13.786
729.19	17.148
729.37	15.248
729.55	16.992
729.73	11.580
729.91	15.791
730.09	17.294
730.27	17.671
730.45	14.345
730.63	16.820
730.82	14.766
731.00	14.375
731.18	16.911
731.36	17.351
731.54	13.991
731.72	17.602
731.90	14.661
732.08	16.331
732.26	15.165
732.45	16.562
732.63	17.069
732.81	18.452
732.99	14.418
733.17	17.632
733.35	14.984
733.53	17.077
733.71	15.283
733.89	17.582
734.07	14.587
734.25	19.432
734.44	16.135
734.62	15.904
734.80	15.250
734.98	17.462
735.16	14.356
735.34	17.001
735.52	16.684
735.70	17.736
735.88	16.219
736.06	16.446
736.24	16.333
736.42	17.058
736.60	15.721
736.78	16.530
736.97	14.735
737.15	15.820
737.33	11.057
737.51	15.427
737.69	15.251
737.87	17.366
738.05	14.293
738.23	18.728
738.41	15.801
738.59	19.062
738.77	13.126
738.95	16.899
739.13	12.457
739.31	17.425
739.49	14.984
739.67	18.832
739.85	14.874
740.03	17.093
740.21	17.116
740.39	18.040
740.57	14.296
740.75	15.421
740.93	15.526
741.11	19.376
741.30	13.134
741.48	16.728
741.66	15.151
741.84	16.841
742.02	14.906
742.20	15.431
742.38	17.533
742.56	18.775
742.74	15.370
742.92	16.292
743.10	14.740
743.28	19.025
743.46	15.492
743.64	14.041
743.82	14.253
744.00	16.748
744.18	16.376
744.36	15.591
744.54	14.786
744.72	17.153
744.90	14.182
745.08	18.087
745.26	16.570
745.44	17.283
745.62	14.434
745.80	16.065
745.98	13.546
746.16	17.125
746.34	13.519
746.52	13.876
746.70	12.641
746.87	13.605
747.05	14.559
747.23	13.178
747.41	14.434
747.59	16.953
747.77	12.331
747.95	15.909
748.13	14.632
748.31	16.067
748.49	15.057
748.67	13.115
748.85	13.752
749.03	17.145
749.21	13.296
749.39	20.210
749.57	12.375
749.75	12.922
749.93	11.672
750.11	17.090
750.29	15.219
750.47	15.614
750.65	12.488
750.83	14.489
751.01	15.505
751.18	17.330
751.36	12.295
751.54	16.584
751.72	16.232
751.90	16.687
752.08	11.743
752.26	17.200
752.44	15.205
752.62	16.136
752.80	14.003
752.98	18.168
753.16	16.537
753.34	15.948
753.52	15.634
753.69	17.542
753.87	15.539
754.05	15.308
754.23	11.870
754.41	16.556
754.59	13.057
754.77	17.189
754.95	15.334
755.13	14.647
755.31	12.370
755.49	14.762
755.66	17.250
755.84	14.998
756.02	13.291
756.20	19.026
756.38	15.752
756.56	15.507
756.74	14.721
756.92	15.187
757.10	12.983
757.28	17.278
757.45	19.296
757.63	17.147
757.81	11.784
757.99	16.841
758.17	13.371
758.35	16.846
758.53	18.654
758.71	15.666
758.88	16.317
759.06	17.337
759.24	13.912
759.42	13.296
759.60	13.765
759.78	15.620
759.96	12.210
760.13	14.491
760.31	7.084
760.49	14.665
760.67	9.819
760.85	14.165
761.03	11.224
761.21	8.336
761.38	8.863
761.56	14.791
761.74	8.607
761.92	11.608
762.10	7.911
762.28	14.007
762.46	5.795
762.63	11.670
762.81	9.704
762.99	10.569
763.17	13.264
763.35	11.779
763.53	11.412
763.70	14.821
763.88	16.082
764.06	14.460
764.24	13.961
764.42	15.772
764.60	15.061
764.77	14.113
764.95	16.874
765.13	16.560
765.31	14.601
765.49	17.456
765.66	12.781
765.84	17.388
766.02	14.180
766.20	12.595
766.38	13.736
766.56	14.441
766.73	14.488
766.91	16.240
767.09	12.998
767.27	15.869
767.45	11.602
767.62	16.667
767.80	11.574
767.98	15.704
768.16	11.493
768.33	16.506
768.51	14.866
768.69	14.658
768.87	13.159
769.05	12.441
769.22	12.008
769.40	16.457
769.58	10.901
769.76	15.126
769.94	12.611
770.11	12.283
770.29	12.839
770.47	14.026
770.65	14.768
770.82	15.657
771.00	10.050
771.18	13.502
771.36	11.482
771.53	12.321
771.71	11.093
771.89	12.986
772.07	17.906
772.25	11.229
772.42	12.253
772.60	13.433
772.78	9.009
772.96	11.431
773.13	12.814
773.31	16.194
773.49	14.318
773.67	12.685
773.84	13.775
774.02	15.557
774.20	12.494
774.37	17.159
774.55	10.237
774.73	15.009
774.91	13.151
775.08	14.606
775.26	10.287
775.44	13.507
775.62	11.690
775.79	9.838
775.97	10.356
776.15	16.002
776.32	7.467
776.50	12.130
776.68	10.445
776.86	13.788
777.03	8.616
777.21	11.154
777.39	8.611
777.56	12.844
777.74	5.664
777.92	8.039
778.10	12.427
778.27	13.508
778.45	13.293
778.63	12.175
778.80	15.268
778.98	13.230
779.16	13.222
779.34	12.726
779.51	6.855
779.69	13.306
779.87	9.266
780.04	10.232
780.22	14.150
780.40	14.150
780.57	11.848
780.75	13.012
780.93	8.593
781.10	11.514
781.28	16.165
781.46	13.468
781.63	16.195
781.81	13.737
781.99	8.285
782.16	13.471
782.34	14.488
782.52	5.505
782.69	15.381
782.87	10.877
783.05	11.248
783.22	15.442
783.40	10.608
783.58	9.129
783.75	10.773
783.93	7.065
784.11	4.183
784.28	13.201
784.46	8.053
784.64	14.155
784.81	14.648
784.99	12.100
785.17	11.272
785.34	6.169
785.52	5.804
785.69	8.395
785.87	10.693
786.05	3.803
786.22	9.061
786.40	12.409
786.58	7.692
786.75	15.597
786.93	9.887
787.11	13.294
787.28	8.060
787.46	15.427
787.63	9.867
787.81	9.806
787.99	15.152
788.16	9.654
788.34	6.958
788.51	11.322
788.69	8.146
788.87	13.840
789.04	8.350
789.22	12.392
789.39	11.851
789.57	9.229
789.75	10.559
789.92	14.025
790.10	8.310
790.27	9.207
790.45	4.416
790.63	8.392
790.80	11.242
790.98	7.877
791.15	9.138
791.33	8.544
791.51	6.926
791.68	11.293
791.86	8.197
792.03	6.306
792.21	10.201
792.39	11.739
792.56	8.016
792.74	12.927
792.91	8.753
793.09	13.194
793.26	4.650
793.44	7.359
793.62	9.271
793.79	11.099
793.97	9.148
794.14	7.319
794.32	5.835
794.49	7.898
794.67	7.199
794.84	11.311
795.02	8.518
795.20	10.378
795.37	10.464
795.55	10.012
795.72	6.340
795.90	11.715
796.07	12.825
796.25	12.584
796.42	9.111
796.60	7.839
796.77	9.923
796.95	12.567
797.13	5.985
797.30	13.740
797.48	8.978
797.65	15.393
797.83	10.785
798.00	9.455
798.18	6.641
798.35	6.304
798.53	8.822
798.70	9.145
798.88	8.667
799.05	5.820
799.23	4.259
799.40	8.035
799.58	8.612
799.75	10.862
799.93	5.441
800.10	7.058
800.28	10.094
800.45	11.005
800.63	11.554
800.80	7.117
800.98	7.522
801.15	10.700
801.33	11.078
801.50	9.472
801.68	5.911
801.85	9.266
802.03	6.460
802.20	7.291
802.38	8.132
802.55	10.530
802.73	7.280
802.90	9.205
803.08	6.354
803.25	7.176
803.43	16.399
803.60	10.997
803.78	12.695
803.95	7.542
804.13	10.985
804.30	13.312
804.48	11.160
804.65	9.352
804.83	8.252
805.00	10.714
805.17	5.785
805.35	4.829
805.52	9.938
805.70	10.811
805.87	12.927
806.05	6.704
806.22	3.110
806.40	5.473
806.57	12.161
806.75	11.976
806.92	13.126
807.09	3.086
807.27	13.774
807.44	12.333
807.62	8.774
807.79	9.718
807.97	5.485
808.14	9.055
808.31	7.565
808.49	5.357
808.66	4.983
808.84	9.927
809.01	10.278
809.19	7.571
809.36	9.758
809.53	7.332
809.71	11.022
809.88	12.220
810.06	9.985
810.23	10.732
810.41	11.204
810.58	9.221
810.75	5.224
810.93	11.176
811.10	5.900
811.28	12.063
811.45	11.598
811.62	9.118
811.80	6.008
811.97	12.121
812.15	14.981
812.32	1.810
812.49	10.674
812.67	8.952
812.84	2.029
813.02	9.607
813.19	6.343
813.36	7.941
813.54	4.383
813.71	8.714
813.89	8.141
814.06	11.522
814.23	4.849
814.41	9.670
814.58	8.795
814.75	9.039
814.93	5.802
815.10	9.949
815.28	4.269
815.45	3.893
815.62	6.466
815.80	5.521
815.97	1.057
816.14	7.431
816.32	7.471
816.49	5.250
816.66	11.737
816.84	6.627
817.01	-0.856
817.18	10.882
817.36	9.508
817.53	5.486
817.71	10.095
817.88	8.819
818.05	5.634
818.23	7.603
818.40	6.563
818.57	1.752
818.75	3.002
818.92	5.405
819.09	3.196
819.27	6.449
819.44	7.863
819.61	3.052
819.79	6.520
819.96	13.032
820.13	5.033
820.31	11.775
820.48	7.568
820.65	9.989
820.82	9.868
821.00	9.942
821.17	5.657
821.34	8.064
821.52	6.866
821.69	7.312
821.86	8.420
822.04	11.904
822.21	10.135
822.38	14.984
822.56	12.133
822.73	16.775
822.90	15.850
823.07	18.625
823.25	17.447
823.42	17.103
823.59	16.832
823.77	18.997
823.94	18.030
824.11	19.740
824.29	17.244
824.46	18.498
824.63	17.312
824.80	15.968
824.98	14.388
825.15	17.150
825.32	10.923
825.49	14.907
825.67	11.045
825.84	13.496
826.01	11.899
826.19	11.140
826.36	8.802
826.53	14.030
826.70	11.020
826.88	14.010
827.05	7.467
827.22	9.807
827.39	11.359
827.57	12.800
827.74	7.922
827.91	12.253
828.08	8.929
828.26	12.878
828.43	13.212
828.60	13.832
828.77	12.148
828.95	11.331
829.12	10.016
829.29	8.275
829.46	9.379
829.64	10.580
829.81	7.023
829.98	8.173
830.15	9.531
830.32	7.719
830.50	8.112
830.67	7.485
830.84	7.895
831.01	4.375
831.19	6.926
831.36	5.991
831.53	4.364
831.70	5.843
831.87	2.582
832.05	4.641
832.22	7.875
832.39	7.173
832.56	3.470
832.74	9.783
832.91	7.439
833.08	6.837
833.25	4.609
833.42	3.428
833.60	4.490
833.77	3.852
833.94	4.356
834.11	7.224
834.28	5.616
834.45	11.710
834.63	6.611
834.80	10.511
834.97	6.194
835.14	11.530
835.31	11.849
835.49	8.554
835.66	10.943
835.83	7.225
836.00	8.125
836.17	10.033
836.34	9.559
836.52	9.125
836.69	9.206
836.86	9.413
837.03	6.441
837.20	9.724
837.37	9.305
837.55	-2.632
837.72	6.275
837.89	5.613
838.06	4.493
838.23	6.355
838.40	5.171
838.58	6.780
838.75	3.722
838.92	4.687
839.09	4.517
839.26	6.697
839.43	3.826
839.60	5.207
839.78	14.168
839.95	5.978
840.12	6.622
840.29	16.305
840.46	5.856
840.63	7.723
840.80	10.502
840.98	4.878
841.15	5.153
841.32	7.350
841.49	9.157
841.66	10.748
841.83	2.054
842.00	12.062
842.17	17.437
842.34	-0.293
842.52	8.188
842.69	12.182
842.86	4.907
843.03	6.304
843.20	8.931
843.37	11.321
843.54	-1.724
843.71	2.507
843.88	-0.974
844.06	5.833
844.23	4.011
844.40	3.464
844.57	5.901
844.74	1.017
844.91	7.055
845.08	12.329
845.25	5.882
845.42	-1.633
845.59	-0.193
845.76	4.052
845.94	1.773
846.11	11.577
846.28	-7.018
846.45	1.721
846.62	-8.061
846.79	18.344
846.96	8.285
847.13	7.211
847.30	0.890
847.47	-1.426
847.64	-12.574
847.81	4.045
847.98	-2.697
848.15	4.632
848.32	10.646
848.50	16.996
848.67	-8.410
848.84	7.895
849.01	16.057
849.18	-15.951
849.35	2.964
849.52	13.663
849.69	-10.441
849.86	1.584
850.03	25.527
850.20	-7.692
850.37	11.521
850.54	0.971
850.71	-0.222
850.88	14.108
851.05	11.458
851.22	23.301
851.39	1.518
851.56	-1.085
851.73	-2.588
851.90	2.294
852.07	16.547
852.24	16.047
852.41	6.852
852.58	-2.381
852.75	4.651
852.92	9.256
853.09	-7.303
853.26	7.368
853.43	0.889
853.60	11.019
853.77	1.865
853.94	11.499
854.11	-14.385
854.28	5.854
854.45	6.222
854.62	0.519
854.79	-6.858
854.96	5.612
855.13	24.362
855.30	19.500
855.47	-7.908
855.64	-6.459
855.81	0.957
855.98	9.214
856.15	11.992
856.32	-10.021
856.49	-0.236
856.66	17.606
856.83	14.871
857.00	20.084
857.17	22.869
857.34	2.412
857.51	23.956
857.68	3.580
857.85	-13.898
858.02	-3.423
858.19	8.266
858.36	7.160
858.53	25.268
858.70	16.009
858.87	14.167
859.04	7.240
859.21	18.534
859.38	1.250
859.55	6.326
859.72	-0.867
859.89	-15.743
860.05	-0.245
860.22	7.895
860.39	17.687
860.56	4.798
860.73	3.341
860.90	13.927
861.07	20.320
861.24	13.959
861.41	-17.460
861.58	8.706
861.75	10.501
861.92	5.033
862.09	10.380
862.26	-4.728
862.43	4.408
862.59	15.509
862.76	11.890
862.93	1.351
863.10	19.093
863.27	-11.504
863.44	11.765
863.61	13.182
863.78	2.687
863.95	1.188
864.12	9.346
864.29	-15.502
864.45	-3.275
864.62	-9.948
864.79	12.129
864.96	4.963
865.13	2.661
865.30	11.667
865.47	0.557
865.64	20.755
865.81	-0.551
865.97	3.118
866.14	4.677
866.31	-1.643
866.48	12.987
866.65	9.635
866.82	5.995
866.99	0.528
867.16	4.188
867.33	13.647
867.49	10.758
867.66	18.313
867.83	10.573
868.00	7.363
868.17	-11.207
868.34	28.571
868.51	7.971
868.67	-3.555
868.84	7.586
869.01	22.811
869.18	14.634
869.35	10.596
869.52	4.250
869.69	-8.232
869.85	31.852
870.02	-1.456
870.19	9.330
870.36	5.291
870.53	10.723
870.70	17.660
870.86	-6.218
871.03	39.211
871.20	9.901
871.37	-3.183
871.54	-9.511
871.71	19.175
871.87	0.272
872.04	7.261
872.21	5.077
872.38	-2.200
872.55	-2.278
872.72	7.432
872.88	-1.408
873.05	-3.562
873.22	18.458
873.39	7.092
873.56	10.706
873.72	16.106
873.89	13.953
874.06	8.247
874.23	2.356
874.40	23.121
874.56	18.919
874.73	16.748
874.90	-23.529
875.07	14.192
875.24	6.205
875.40	-6.966
875.57	10.909
875.74	20.732
875.91	2.439
876.08	11.674
876.24	13.843
876.41	17.766
876.58	9.547
876.75	0.551
876.92	1.786
877.08	20.898
877.25	-10.825
877.42	4.878
877.59	6.728
877.75	21.385
877.92	3.422
878.09	16.473
878.26	10.843
878.42	-2.926
878.59	17.257
878.76	19.763
878.93	4.525
879.09	16.812
879.26	-2.415
879.43	8.764
879.60	14.178
879.76	8.897
879.93	-17.822
880.10	-6.047
880.27	9.936
880.43	-0.804
880.60	0.470
880.77	3.385
880.94	3.496
881.10	-0.237
881.27	14.286
881.44	-6.137
881.61	11.455
881.77	5.443
881.94	2.285
882.11	6.564
882.28	1.946
882.44	5.328
882.61	5.229
882.78	6.978
882.94	12.689
883.11	9.058
883.28	9.618
883.45	9.491
883.61	6.885
883.78	8.842
883.95	12.427
884.11	7.858
884.28	4.524
>>>>>End Processed Spectral Data<<<<<
