SpectraSuite Data File
++++++++++++++++++++++++++++++++++++
Date: Mon Sep 23 03:03:05 EST 2019
User: sgrac
Dark Spectrum Present: Yes
Reference Spectrum Present: Yes
Number of Sampled Component Spectra: 1
Spectrometers: USB4E01596
Integration Time (usec): 100000 (USB4E01596)
Spectra Averaged: 3 (USB4E01596)
Boxcar Smoothing: 0 (USB4E01596)
Correct for Electrical Dark: No (USB4E01596)
Strobe/Lamp Enabled: Yes (USB4E01596)
Correct for Detector Non-linearity: No (USB4E01596)
Correct for Stray Light: No (USB4E01596)
Number of Pixels in Processed Spectrum: 3648
>>>>>Begin Processed Spectral Data<<<<<
178.44	292.308
178.66	292.308
178.87	292.308
179.09	3100.000
179.30	-2625.000
179.52	-151.613
179.74	-92.453
179.95	379.545
180.17	-180.556
180.38	96.491
180.60	-854.545
180.82	255.556
181.03	883.333
181.25	-883.333
181.46	-600.000
181.68	458.333
181.89	-131.818
182.11	-368.750
182.33	-312.500
182.54	83.333
182.76	1766.667
182.97	-157.447
183.19	130.000
183.40	115.702
183.62	148.718
183.84	144.545
184.05	2000.000
184.27	222.727
184.48	186.364
184.70	382.353
184.91	423.810
185.13	720.000
185.34	-4050.000
185.56	507.692
185.78	194.444
185.99	333.333
186.21	75.000
186.42	-1075.000
186.64	210.000
186.85	-460.000
187.07	186.000
187.28	205.263
187.50	230.909
187.72	162.821
187.93	412.727
188.15	105.208
188.36	184.211
188.58	102.041
188.79	148.077
189.01	180.282
189.22	224.324
189.44	-227.273
189.65	131.356
189.87	-3100.000
190.09	228.571
190.30	354.762
190.52	215.000
190.73	258.696
190.95	-266.667
191.16	148.810
191.38	140.541
191.59	175.000
191.81	159.677
192.02	266.667
192.24	6.250
192.45	302.941
192.67	-362.500
192.88	156.604
193.10	259.016
193.31	367.500
193.53	81.452
193.74	122.667
193.96	414.286
194.18	169.231
194.39	693.333
194.61	119.178
194.82	322.727
195.04	160.976
195.25	-105.263
195.47	-166.667
195.68	816.667
195.90	165.455
196.11	137.313
196.33	5300.000
196.54	324.390
196.76	578.571
196.97	183.117
197.19	270.270
197.40	714.286
197.62	125.688
197.83	193.548
198.05	261.818
198.26	117.241
198.48	152.113
198.69	73.333
198.91	133.333
199.12	134.884
199.34	247.826
199.55	100.000
199.77	589.474
199.98	279.412
200.20	118.421
200.41	145.161
200.63	142.478
200.84	721.429
201.06	533.333
201.27	329.268
201.49	119.718
201.70	-120.000
201.91	90.278
202.13	149.153
202.34	132.759
202.56	-324.000
202.77	146.667
202.99	1466.667
203.20	-1225.000
203.42	806.250
203.63	65.789
203.85	1066.667
204.06	228.000
204.28	40.404
204.49	118.519
204.71	172.881
204.92	203.846
205.14	0.000
205.35	233.333
205.56	-410.000
205.78	2080.000
205.99	-528.571
206.21	3850.000
206.42	152.273
206.64	403.226
206.85	296.296
207.07	-766.667
207.28	165.517
207.50	380.435
207.71	158.065
207.93	78.313
208.14	-359.259
208.35	209.091
208.57	348.000
208.78	-1500.000
209.00	135.106
209.21	-2300.000
209.43	-1733.333
209.64	-113.333
209.86	114.433
210.07	224.419
210.28	191.549
210.50	341.379
210.71	184.314
210.93	71.324
211.14	258.427
211.36	637.500
211.57	180.303
211.78	67.143
212.00	142.353
212.21	167.143
212.43	264.103
212.64	219.149
212.86	164.865
213.07	231.193
213.29	-180.556
213.50	142.391
213.71	112.644
213.93	65.854
214.14	227.273
214.36	136.765
214.57	201.266
214.78	300.000
215.00	117.708
215.21	303.333
215.43	248.649
215.64	149.206
215.86	88.750
216.07	345.714
216.28	176.316
216.50	110.833
216.71	8500.000
216.93	145.455
217.14	350.000
217.35	165.909
217.57	72.973
217.78	118.519
218.00	58.586
218.21	373.913
218.42	242.553
218.64	108.929
218.85	-54.000
219.07	260.000
219.28	63.551
219.49	129.412
219.71	110.769
219.92	104.478
220.14	122.680
220.35	209.333
220.56	50.575
220.78	85.577
220.99	75.000
221.21	92.473
221.42	125.926
221.63	100.000
221.85	123.077
222.06	91.429
222.28	207.692
222.49	70.270
222.70	81.890
222.92	259.184
223.13	103.279
223.34	66.667
223.56	25.000
223.77	90.000
223.99	94.737
224.20	110.714
224.41	38.356
224.63	101.136
224.84	108.784
225.05	37.179
225.27	99.130
225.48	98.039
225.69	88.722
225.91	172.973
226.12	64.341
226.34	66.443
226.55	43.165
226.76	107.500
226.98	55.686
227.19	52.734
227.40	54.687
227.62	37.566
227.83	23.605
228.04	51.117
228.26	30.591
228.47	33.711
228.69	18.528
228.90	8.742
229.11	21.465
229.33	14.734
229.54	15.959
229.75	10.355
229.97	6.326
230.18	19.101
230.39	14.934
230.61	17.531
230.82	15.090
231.03	14.286
231.25	-0.647
231.46	22.851
231.67	17.431
231.89	16.713
232.10	22.904
232.31	18.974
232.53	10.187
232.74	19.252
232.95	7.985
233.17	21.400
233.38	13.866
233.59	18.738
233.81	20.471
234.02	1.002
234.23	18.262
234.45	23.437
234.66	18.805
234.87	18.852
235.09	29.743
235.30	10.508
235.51	16.548
235.73	8.349
235.94	14.659
236.15	12.592
236.36	7.664
236.58	17.785
236.79	13.717
237.00	18.768
237.22	23.639
237.43	22.304
237.64	24.094
237.86	19.549
238.07	21.134
238.28	13.387
238.50	12.669
238.71	7.194
238.92	1.250
239.13	11.186
239.35	20.995
239.56	13.428
239.77	27.316
239.99	19.041
240.20	21.884
240.41	10.473
240.63	11.456
240.84	10.323
241.05	9.311
241.26	15.634
241.48	9.451
241.69	9.383
241.90	6.523
242.12	7.077
242.33	8.053
242.54	2.781
242.75	9.490
242.97	4.887
243.18	2.841
243.39	5.142
243.61	8.990
243.82	4.435
244.03	6.101
244.24	4.878
244.46	9.233
244.67	8.011
244.88	5.363
245.09	6.321
245.31	9.733
245.52	3.436
245.73	3.930
245.95	10.461
246.16	6.968
246.37	2.988
246.58	6.104
246.80	5.697
247.01	7.668
247.22	6.344
247.43	5.163
247.65	4.723
247.86	4.242
248.07	2.546
248.28	4.502
248.50	2.923
248.71	3.976
248.92	3.623
249.13	1.783
249.35	4.521
249.56	3.672
249.77	3.298
249.98	3.522
250.20	5.976
250.41	5.225
250.62	4.420
250.83	6.685
251.05	6.285
251.26	7.946
251.47	6.200
251.68	8.018
251.90	6.604
252.11	5.961
252.32	10.213
252.53	5.573
252.75	6.776
252.96	5.208
253.17	4.451
253.38	5.432
253.59	4.450
253.81	1.596
254.02	3.239
254.23	7.389
254.44	2.132
254.66	2.240
254.87	3.812
255.08	6.534
255.29	6.281
255.50	2.376
255.72	7.000
255.93	5.605
256.14	10.092
256.35	12.096
256.57	13.514
256.78	12.471
256.99	5.706
257.20	9.970
257.41	5.204
257.63	7.976
257.84	7.237
258.05	10.116
258.26	6.469
258.47	6.180
258.69	10.214
258.90	1.806
259.11	2.738
259.32	7.869
259.53	4.496
259.75	6.371
259.96	4.094
260.17	2.968
260.38	0.098
260.59	3.931
260.81	2.347
261.02	1.434
261.23	1.915
261.44	2.241
261.65	2.067
261.87	1.975
262.08	3.165
262.29	2.653
262.50	3.612
262.71	1.931
262.92	3.852
263.14	2.348
263.35	3.286
263.56	6.696
263.77	3.465
263.98	5.601
264.20	2.166
264.41	4.683
264.62	4.378
264.83	5.634
265.04	6.041
265.25	6.036
265.47	4.363
265.68	5.103
265.89	5.167
266.10	2.801
266.31	2.995
266.52	2.338
266.74	1.446
266.95	7.029
267.16	6.295
267.37	3.682
267.58	5.463
267.79	4.136
268.01	2.397
268.22	3.585
268.43	4.929
268.64	3.933
268.85	2.704
269.06	3.864
269.27	3.348
269.49	2.876
269.70	3.117
269.91	3.857
270.12	3.472
270.33	5.148
270.54	2.994
270.75	4.530
270.97	3.954
271.18	2.278
271.39	2.624
271.60	2.452
271.81	3.158
272.02	1.197
272.23	3.700
272.45	4.450
272.66	1.977
272.87	2.131
273.08	2.976
273.29	3.349
273.50	1.980
273.71	1.959
273.92	1.663
274.14	1.426
274.35	3.220
274.56	3.516
274.77	3.123
274.98	2.836
275.19	3.086
275.40	3.118
275.61	1.699
275.83	4.220
276.04	4.183
276.25	3.188
276.46	1.646
276.67	2.260
276.88	2.665
277.09	4.722
277.30	2.511
277.51	4.570
277.73	1.589
277.94	4.851
278.15	6.852
278.36	2.444
278.57	2.467
278.78	1.288
278.99	3.853
279.20	1.060
279.41	4.206
279.62	3.248
279.84	4.077
280.05	3.938
280.26	3.057
280.47	3.610
280.68	4.018
280.89	0.575
281.10	4.256
281.31	3.993
281.52	4.096
281.73	3.161
281.94	3.108
282.16	2.642
282.37	0.687
282.58	3.562
282.79	4.764
283.00	3.935
283.21	1.575
283.42	2.135
283.63	3.433
283.84	2.766
284.05	2.469
284.26	2.336
284.47	3.543
284.68	2.568
284.89	2.866
285.11	2.766
285.32	1.830
285.53	2.869
285.74	4.479
285.95	1.252
286.16	3.226
286.37	2.093
286.58	2.648
286.79	1.996
287.00	1.686
287.21	2.102
287.42	1.825
287.63	3.372
287.84	2.064
288.05	2.157
288.26	1.799
288.48	3.223
288.69	2.241
288.90	2.253
289.11	2.670
289.32	3.882
289.53	4.093
289.74	3.504
289.95	2.073
290.16	1.267
290.37	1.624
290.58	1.565
290.79	1.154
291.00	0.870
291.21	1.580
291.42	2.672
291.63	1.660
291.84	4.115
292.05	2.481
292.26	0.984
292.47	2.898
292.68	2.044
292.89	2.296
293.10	3.123
293.31	2.015
293.52	1.977
293.73	3.346
293.94	2.338
294.15	2.141
294.36	3.089
294.57	2.064
294.79	1.365
295.00	0.801
295.21	2.569
295.42	1.549
295.63	3.684
295.84	1.382
296.05	1.995
296.26	1.970
296.47	1.543
296.68	2.280
296.89	3.390
297.10	1.890
297.31	2.361
297.52	1.022
297.73	3.160
297.94	1.771
298.15	1.141
298.36	2.151
298.57	2.089
298.78	1.851
298.99	2.206
299.20	2.585
299.41	2.216
299.62	2.859
299.83	1.047
300.04	1.859
300.25	2.021
300.46	3.573
300.67	1.727
300.88	2.703
301.09	1.607
301.30	2.541
301.50	1.051
301.71	3.130
301.92	3.512
302.13	3.747
302.34	1.838
302.55	1.823
302.76	2.452
302.97	2.522
303.18	2.438
303.39	1.366
303.60	3.069
303.81	2.638
304.02	0.506
304.23	2.771
304.44	2.589
304.65	1.576
304.86	2.624
305.07	3.394
305.28	2.575
305.49	2.331
305.70	2.615
305.91	3.187
306.12	2.283
306.33	2.631
306.54	0.751
306.75	3.414
306.96	5.146
307.17	3.143
307.38	2.876
307.58	2.935
307.79	-0.155
308.00	1.943
308.21	2.939
308.42	2.661
308.63	1.764
308.84	2.200
309.05	2.632
309.26	1.434
309.47	2.357
309.68	1.920
309.89	3.486
310.10	2.119
310.31	2.352
310.52	0.864
310.73	2.425
310.94	2.197
311.14	2.506
311.35	2.934
311.56	2.230
311.77	1.724
311.98	1.730
312.19	1.975
312.40	1.112
312.61	1.293
312.82	2.602
313.03	0.115
313.24	2.240
313.45	1.698
313.66	2.764
313.86	4.272
314.07	2.515
314.28	2.840
314.49	1.723
314.70	2.358
314.91	1.299
315.12	1.946
315.33	3.369
315.54	1.499
315.75	2.237
315.96	2.203
316.16	2.587
316.37	2.568
316.58	1.176
316.79	1.900
317.00	1.684
317.21	1.488
317.42	1.884
317.63	1.241
317.84	0.765
318.05	2.668
318.25	3.301
318.46	2.778
318.67	2.063
318.88	0.888
319.09	3.679
319.30	1.752
319.51	1.621
319.72	4.900
319.93	2.347
320.13	2.270
320.34	5.188
320.55	2.111
320.76	2.523
320.97	3.631
321.18	3.290
321.39	0.917
321.60	2.853
321.80	3.100
322.01	1.032
322.22	0.111
322.43	1.861
322.64	1.192
322.85	3.178
323.06	3.696
323.27	1.681
323.47	3.411
323.68	2.984
323.89	4.373
324.10	3.868
324.31	2.184
324.52	2.625
324.73	3.857
324.93	2.852
325.14	2.341
325.35	3.073
325.56	1.124
325.77	2.872
325.98	2.649
326.19	3.322
326.39	2.441
326.60	1.832
326.81	0.035
327.02	0.926
327.23	2.202
327.44	1.949
327.64	2.068
327.85	0.676
328.06	2.304
328.27	3.086
328.48	2.794
328.69	1.995
328.90	2.091
329.10	3.817
329.31	3.240
329.52	1.356
329.73	4.051
329.94	1.827
330.15	1.741
330.35	4.797
330.56	2.797
330.77	2.047
330.98	0.063
331.19	2.582
331.39	2.176
331.60	3.317
331.81	0.366
332.02	2.124
332.23	1.078
332.44	1.715
332.64	2.554
332.85	2.038
333.06	2.709
333.27	1.840
333.48	1.758
333.68	1.354
333.89	2.706
334.10	3.668
334.31	2.534
334.52	2.538
334.72	2.024
334.93	1.977
335.14	1.963
335.35	1.787
335.56	2.867
335.76	1.876
335.97	1.933
336.18	3.101
336.39	2.329
336.60	1.864
336.80	1.883
337.01	0.938
337.22	2.206
337.43	2.400
337.64	2.952
337.84	1.474
338.05	1.871
338.26	4.153
338.47	2.180
338.68	2.359
338.88	0.865
339.09	2.105
339.30	1.780
339.51	1.790
339.71	2.294
339.92	1.700
340.13	2.200
340.34	2.989
340.55	2.000
340.75	4.213
340.96	1.010
341.17	2.803
341.38	3.138
341.58	3.385
341.79	1.991
342.00	2.381
342.21	2.638
342.41	1.505
342.62	1.939
342.83	2.747
343.04	2.755
343.24	2.717
343.45	1.853
343.66	1.484
343.87	2.019
344.07	1.702
344.28	2.505
344.49	2.754
344.70	3.017
344.90	2.664
345.11	2.972
345.32	2.668
345.53	2.528
345.73	3.330
345.94	4.193
346.15	3.733
346.36	2.040
346.56	3.890
346.77	2.920
346.98	2.614
347.19	3.109
347.39	2.906
347.60	2.477
347.81	3.371
348.02	3.083
348.22	3.791
348.43	3.253
348.64	3.284
348.84	3.738
349.05	6.146
349.26	5.135
349.47	2.284
349.67	3.838
349.88	5.551
350.09	4.729
350.30	6.064
350.50	5.442
350.71	5.680
350.92	5.136
351.12	6.292
351.33	4.898
351.54	4.670
351.74	7.027
351.95	5.388
352.16	8.950
352.37	7.463
352.57	7.341
352.78	6.452
352.99	8.188
353.19	7.876
353.40	8.442
353.61	10.168
353.82	11.169
354.02	11.350
354.23	10.321
354.44	11.120
354.64	9.317
354.85	11.859
355.06	10.668
355.26	10.632
355.47	11.914
355.68	13.400
355.88	14.722
356.09	14.395
356.30	13.243
356.51	15.103
356.71	15.159
356.92	11.953
357.13	16.549
357.33	17.207
357.54	16.630
357.75	14.352
357.95	17.371
358.16	16.082
358.37	19.497
358.57	15.300
358.78	20.339
358.99	16.995
359.19	19.148
359.40	18.263
359.61	18.954
359.81	19.966
360.02	21.520
360.23	18.467
360.43	18.968
360.64	18.493
360.85	20.094
361.05	18.157
361.26	21.234
361.47	19.003
361.67	23.595
361.88	19.825
362.09	22.617
362.29	20.579
362.50	21.917
362.70	19.625
362.91	22.947
363.12	20.666
363.32	22.035
363.53	21.886
363.74	23.824
363.94	20.192
364.15	23.168
364.36	22.916
364.56	20.924
364.77	22.932
364.98	23.718
365.18	22.125
365.39	23.128
365.59	20.843
365.80	21.632
366.01	22.618
366.21	21.082
366.42	19.850
366.63	23.682
366.83	20.588
367.04	18.959
367.24	23.348
367.45	21.466
367.66	20.534
367.86	22.692
368.07	20.653
368.28	22.331
368.48	21.649
368.69	20.899
368.89	21.226
369.10	22.288
369.31	21.426
369.51	22.390
369.72	22.274
369.92	23.824
370.13	20.674
370.34	21.110
370.54	16.843
370.75	21.574
370.95	20.002
371.16	22.989
371.37	20.874
371.57	21.258
371.78	20.546
371.98	22.186
372.19	22.765
372.40	23.709
372.60	22.421
372.81	23.081
373.01	20.014
373.22	22.376
373.43	21.984
373.63	22.289
373.84	22.742
374.04	23.108
374.25	21.216
374.46	22.457
374.66	20.891
374.87	23.130
375.07	19.994
375.28	21.665
375.48	21.523
375.69	22.067
375.90	19.904
376.10	21.072
376.31	22.253
376.51	20.488
376.72	21.645
376.92	20.761
377.13	22.331
377.34	23.503
377.54	22.023
377.75	24.299
377.95	21.589
378.16	23.239
378.36	22.822
378.57	23.885
378.77	21.958
378.98	22.600
379.19	22.069
379.39	21.840
379.60	21.391
379.80	22.765
380.01	23.354
380.21	22.989
380.42	23.167
380.62	23.359
380.83	22.021
381.04	23.036
381.24	22.627
381.45	23.281
381.65	21.985
381.86	23.221
382.06	23.009
382.27	21.630
382.47	21.914
382.68	23.721
382.88	22.093
383.09	22.257
383.29	21.976
383.50	24.303
383.71	21.576
383.91	24.415
384.12	22.155
384.32	23.066
384.53	22.409
384.73	21.898
384.94	22.099
385.14	23.256
385.35	22.160
385.55	24.098
385.76	21.690
385.96	22.880
386.17	23.107
386.37	24.430
386.58	22.935
386.78	24.256
386.99	22.409
387.19	24.717
387.40	23.380
387.60	25.555
387.81	22.977
388.01	24.025
388.22	23.859
388.42	24.010
388.63	24.473
388.83	25.540
389.04	22.466
389.24	23.892
389.45	23.879
389.65	24.095
389.86	22.984
390.06	23.917
390.27	22.932
390.47	23.202
390.68	22.813
390.88	24.728
391.09	24.048
391.29	25.149
391.50	23.186
391.70	24.755
391.91	23.778
392.11	25.113
392.32	23.929
392.52	24.880
392.73	24.190
392.93	25.285
393.14	24.513
393.34	24.478
393.55	25.050
393.75	24.876
393.95	24.631
394.16	24.771
394.36	24.407
394.57	25.271
394.77	24.313
394.98	24.784
395.18	24.130
395.39	25.439
395.59	24.711
395.80	24.794
396.00	24.583
396.21	25.272
396.41	23.373
396.61	26.030
396.82	24.320
397.02	25.389
397.23	24.417
397.43	24.751
397.64	23.067
397.84	24.205
398.05	23.185
398.25	24.325
398.45	23.593
398.66	24.477
398.86	23.670
399.07	25.286
399.27	23.991
399.48	25.363
399.68	23.301
399.89	23.448
400.09	23.196
400.29	23.449
400.50	23.416
400.70	23.598
400.91	22.494
401.11	23.325
401.32	23.022
401.52	22.812
401.72	23.067
401.93	24.910
402.13	22.779
402.34	24.045
402.54	22.321
402.75	25.264
402.95	21.549
403.15	24.571
403.36	21.990
403.56	23.504
403.77	22.326
403.97	23.436
404.17	22.593
404.38	24.160
404.58	23.112
404.79	23.517
404.99	23.854
405.19	24.089
405.40	23.480
405.60	23.672
405.81	22.807
406.01	23.379
406.21	22.330
406.42	23.979
406.62	22.878
406.83	23.524
407.03	23.435
407.23	23.570
407.44	21.560
407.64	23.354
407.85	22.496
408.05	22.806
408.25	22.429
408.46	23.761
408.66	22.587
408.87	22.986
409.07	21.645
409.27	22.879
409.48	22.025
409.68	23.361
409.88	20.967
410.09	22.003
410.29	21.863
410.50	22.725
410.70	20.305
410.90	22.246
411.11	20.926
411.31	22.551
411.51	21.798
411.72	22.683
411.92	21.777
412.12	22.511
412.33	21.609
412.53	21.885
412.74	19.712
412.94	21.996
413.14	21.711
413.35	21.796
413.55	21.183
413.75	21.673
413.96	20.770
414.16	21.330
414.36	20.668
414.57	21.401
414.77	20.346
414.97	21.306
415.18	21.469
415.38	21.503
415.58	20.877
415.79	20.711
415.99	20.450
416.19	22.164
416.40	20.734
416.60	20.943
416.80	20.464
417.01	21.671
417.21	20.240
417.41	21.214
417.62	20.909
417.82	22.146
418.02	20.647
418.23	21.456
418.43	20.953
418.63	21.802
418.84	21.396
419.04	22.067
419.24	21.116
419.45	21.594
419.65	21.348
419.85	21.857
420.06	21.315
420.26	22.142
420.46	21.193
420.67	21.303
420.87	21.220
421.07	20.866
421.28	21.108
421.48	21.299
421.68	21.381
421.88	21.538
422.09	21.342
422.29	21.206
422.49	21.115
422.70	21.067
422.90	21.448
423.10	21.433
423.31	21.271
423.51	21.243
423.71	21.371
423.91	21.355
424.12	21.461
424.32	21.668
424.52	21.440
424.73	21.106
424.93	21.395
425.13	21.159
425.33	21.244
425.54	21.331
425.74	21.323
425.94	22.177
426.15	21.832
426.35	21.731
426.55	21.371
426.75	22.164
426.96	22.040
427.16	21.684
427.36	21.854
427.57	21.736
427.77	21.827
427.97	22.135
428.17	22.107
428.38	21.888
428.58	21.936
428.78	22.562
428.98	21.600
429.19	22.442
429.39	21.466
429.59	21.814
429.79	21.332
430.00	21.950
430.20	21.552
430.40	22.306
430.60	21.903
430.81	22.447
431.01	22.015
431.21	22.641
431.41	22.429
431.62	22.543
431.82	22.467
432.02	22.478
432.22	22.657
432.43	23.377
432.63	22.745
432.83	22.570
433.03	23.051
433.24	23.525
433.44	22.835
433.64	22.965
433.84	23.299
434.05	23.521
434.25	23.735
434.45	23.804
434.65	23.789
434.85	23.870
435.06	24.204
435.26	23.990
435.46	23.905
435.66	23.985
435.87	24.733
436.07	24.009
436.27	24.409
436.47	24.236
436.67	24.396
436.88	24.182
437.08	24.795
437.28	25.096
437.48	24.940
437.69	24.582
437.89	24.733
438.09	24.722
438.29	25.189
438.49	25.552
438.70	25.217
438.90	25.360
439.10	24.749
439.30	25.027
439.50	25.524
439.71	25.265
439.91	24.689
440.11	25.639
440.31	25.213
440.51	25.327
440.72	25.478
440.92	25.668
441.12	26.254
441.32	25.806
441.52	25.849
441.72	25.832
441.93	25.842
442.13	26.087
442.33	26.133
442.53	25.948
442.73	26.153
442.94	26.038
443.14	26.502
443.34	26.684
443.54	25.740
443.74	26.538
443.94	26.337
444.15	25.853
444.35	27.023
444.55	26.828
444.75	26.329
444.95	26.282
445.15	26.694
445.36	26.066
445.56	26.270
445.76	26.233
445.96	25.813
446.16	26.885
446.36	27.264
446.57	26.856
446.77	26.812
446.97	26.713
447.17	26.700
447.37	26.770
447.57	26.582
447.77	26.664
447.98	27.165
448.18	27.069
448.38	26.925
448.58	27.290
448.78	27.066
448.98	27.140
449.18	27.335
449.39	27.780
449.59	27.119
449.79	27.265
449.99	27.401
450.19	27.547
450.39	26.910
450.59	27.790
450.79	27.201
451.00	27.704
451.20	27.862
451.40	27.611
451.60	27.497
451.80	27.245
452.00	26.865
452.20	27.700
452.40	27.297
452.61	27.557
452.81	27.249
453.01	26.895
453.21	27.801
453.41	27.260
453.61	27.442
453.81	27.586
454.01	27.579
454.21	27.426
454.42	27.226
454.62	27.831
454.82	27.450
455.02	27.794
455.22	27.322
455.42	27.533
455.62	27.266
455.82	27.477
456.02	27.546
456.23	27.865
456.43	27.298
456.63	26.933
456.83	27.137
457.03	27.955
457.23	27.669
457.43	27.998
457.63	27.236
457.83	27.276
458.03	27.552
458.23	27.178
458.43	27.401
458.64	27.376
458.84	27.433
459.04	27.656
459.24	27.361
459.44	27.882
459.64	26.935
459.84	26.935
460.04	27.596
460.24	27.410
460.44	27.252
460.64	27.553
460.84	28.104
461.04	27.893
461.24	27.842
461.45	27.928
461.65	27.839
461.85	28.137
462.05	27.637
462.25	27.801
462.45	27.993
462.65	28.116
462.85	27.316
463.05	27.957
463.25	27.587
463.45	27.997
463.65	27.991
463.85	28.042
464.05	27.489
464.25	27.747
464.45	27.739
464.65	27.808
464.85	27.960
465.05	27.879
465.26	28.249
465.46	27.672
465.66	27.178
465.86	27.546
466.06	27.689
466.26	27.632
466.46	27.173
466.66	28.005
466.86	28.035
467.06	27.484
467.26	28.029
467.46	27.328
467.66	27.883
467.86	27.752
468.06	27.596
468.26	27.711
468.46	27.885
468.66	28.187
468.86	27.726
469.06	28.058
469.26	28.158
469.46	28.071
469.66	28.230
469.86	27.626
470.06	27.758
470.26	27.864
470.46	27.804
470.66	28.442
470.86	27.976
471.06	28.045
471.26	28.363
471.46	27.683
471.66	27.825
471.86	28.068
472.06	27.647
472.26	28.029
472.46	28.300
472.66	28.162
472.86	28.145
473.06	28.528
473.26	28.044
473.46	28.512
473.66	27.843
473.86	28.504
474.06	28.231
474.26	28.079
474.46	28.275
474.66	28.679
474.86	28.034
475.06	28.128
475.26	28.160
475.46	28.116
475.66	28.095
475.86	28.423
476.06	28.305
476.26	28.114
476.46	28.633
476.66	28.874
476.86	28.537
477.06	28.878
477.26	28.720
477.46	27.890
477.65	27.739
477.85	28.412
478.05	28.374
478.25	28.681
478.45	29.047
478.65	28.794
478.85	28.878
479.05	27.865
479.25	28.882
479.45	28.982
479.65	28.606
479.85	28.034
480.05	28.991
480.25	28.765
480.45	28.981
480.65	29.135
480.85	28.957
481.05	29.035
481.25	28.440
481.44	28.854
481.64	29.277
481.84	28.573
482.04	28.325
482.24	28.989
482.44	28.904
482.64	28.602
482.84	28.681
483.04	28.517
483.24	28.744
483.44	28.623
483.64	28.498
483.84	28.517
484.04	28.759
484.23	29.237
484.43	29.310
484.63	30.031
484.83	30.606
485.03	31.661
485.23	31.527
485.43	30.977
485.63	30.900
485.83	30.179
486.03	29.835
486.23	29.804
486.42	29.875
486.62	29.343
486.82	29.568
487.02	29.345
487.22	29.029
487.42	28.932
487.62	29.327
487.82	29.187
488.02	28.955
488.22	29.514
488.41	29.441
488.61	29.587
488.81	29.644
489.01	29.550
489.21	29.684
489.41	29.873
489.61	29.652
489.81	29.674
490.01	29.727
490.20	29.896
490.40	29.406
490.60	29.775
490.80	29.557
491.00	29.350
491.20	28.876
491.40	28.770
491.60	28.849
491.79	29.101
491.99	29.481
492.19	29.392
492.39	29.302
492.59	29.407
492.79	29.508
492.99	29.228
493.19	29.514
493.38	29.869
493.58	29.874
493.78	29.779
493.98	29.366
494.18	29.319
494.38	29.574
494.58	29.980
494.77	29.787
494.97	29.005
495.17	29.134
495.37	29.626
495.57	29.430
495.77	29.244
495.96	29.162
496.16	29.358
496.36	29.464
496.56	29.409
496.76	29.189
496.96	29.333
497.15	29.320
497.35	29.213
497.55	29.199
497.75	29.814
497.95	29.353
498.15	29.556
498.34	29.284
498.54	29.301
498.74	29.440
498.94	29.257
499.14	29.361
499.34	29.828
499.53	29.837
499.73	29.630
499.93	29.928
500.13	29.465
500.33	29.540
500.52	29.904
500.72	29.928
500.92	29.769
501.12	29.472
501.32	29.596
501.52	30.255
501.71	29.929
501.91	29.832
502.11	30.131
502.31	29.771
502.51	29.685
502.70	30.091
502.90	29.728
503.10	30.210
503.30	29.999
503.50	29.622
503.69	29.233
503.89	29.651
504.09	29.891
504.29	29.782
504.48	30.396
504.68	29.689
504.88	29.946
505.08	29.565
505.28	29.744
505.47	30.028
505.67	29.703
505.87	30.381
506.07	30.369
506.27	29.912
506.46	29.854
506.66	29.925
506.86	29.967
507.06	30.087
507.25	30.358
507.45	30.287
507.65	30.171
507.85	29.998
508.04	30.031
508.24	29.737
508.44	29.836
508.64	29.963
508.83	29.975
509.03	29.885
509.23	29.571
509.43	29.712
509.63	29.723
509.82	29.963
510.02	30.198
510.22	29.814
510.42	29.645
510.61	29.499
510.81	29.947
511.01	30.068
511.21	29.947
511.40	29.911
511.60	30.135
511.80	30.131
511.99	30.028
512.19	29.716
512.39	29.554
512.59	30.099
512.78	29.717
512.98	30.004
513.18	30.341
513.38	30.050
513.57	29.810
513.77	29.959
513.97	29.940
514.17	29.762
514.36	30.282
514.56	30.332
514.76	29.716
514.95	30.133
515.15	29.838
515.35	29.756
515.55	30.225
515.74	29.506
515.94	29.784
516.14	29.488
516.33	29.994
516.53	29.511
516.73	29.572
516.93	29.759
517.12	29.477
517.32	29.581
517.52	29.492
517.71	28.804
517.91	29.687
518.11	29.640
518.30	29.435
518.50	29.577
518.70	29.631
518.90	29.629
519.09	29.400
519.29	29.388
519.49	29.247
519.68	29.512
519.88	29.644
520.08	29.726
520.27	29.556
520.47	29.373
520.67	29.381
520.86	29.899
521.06	29.504
521.26	29.592
521.45	29.543
521.65	29.537
521.85	29.019
522.04	29.150
522.24	29.675
522.44	29.428
522.63	29.469
522.83	29.386
523.03	29.956
523.22	29.706
523.42	29.795
523.62	29.313
523.81	29.566
524.01	29.299
524.21	29.290
524.40	29.608
524.60	29.579
524.80	29.039
524.99	29.348
525.19	28.966
525.39	29.115
525.58	29.111
525.78	29.050
525.98	29.287
526.17	29.059
526.37	29.386
526.57	29.302
526.76	29.042
526.96	29.155
527.15	29.371
527.35	29.239
527.55	29.030
527.74	29.224
527.94	29.328
528.14	29.069
528.33	29.025
528.53	29.049
528.72	29.107
528.92	29.424
529.12	29.522
529.31	29.509
529.51	30.020
529.71	29.892
529.90	29.926
530.10	29.989
530.29	30.304
530.49	30.196
530.69	30.060
530.88	30.047
531.08	29.881
531.28	29.460
531.47	29.583
531.67	29.518
531.86	29.189
532.06	29.314
532.26	29.402
532.45	29.379
532.65	29.491
532.84	29.070
533.04	29.090
533.24	29.146
533.43	29.414
533.63	28.924
533.82	29.287
534.02	29.476
534.22	29.340
534.41	29.396
534.61	29.242
534.80	29.619
535.00	29.452
535.19	29.358
535.39	29.098
535.59	29.716
535.78	29.182
535.98	29.570
536.17	29.204
536.37	29.168
536.57	29.253
536.76	29.410
536.96	29.187
537.15	29.249
537.35	29.114
537.54	29.241
537.74	29.494
537.93	28.961
538.13	29.525
538.33	29.301
538.52	29.097
538.72	29.384
538.91	29.470
539.11	29.320
539.30	29.448
539.50	29.233
539.70	29.526
539.89	29.805
540.09	29.285
540.28	29.224
540.48	29.455
540.67	28.823
540.87	29.063
541.06	29.114
541.26	29.290
541.45	28.949
541.65	29.166
541.85	29.428
542.04	29.254
542.24	29.294
542.43	29.445
542.63	29.648
542.82	29.453
543.02	29.533
543.21	29.644
543.41	29.871
543.60	29.706
543.80	29.678
543.99	29.397
544.19	29.614
544.38	29.609
544.58	29.735
544.77	29.424
544.97	29.810
545.16	30.104
545.36	29.507
545.56	29.505
545.75	29.494
545.95	29.859
546.14	29.586
546.34	29.536
546.53	29.483
546.73	29.110
546.92	29.304
547.12	29.877
547.31	29.384
547.51	29.595
547.70	29.347
547.90	29.485
548.09	29.414
548.29	29.396
548.48	29.469
548.68	29.913
548.87	29.782
549.07	29.694
549.26	29.375
549.46	29.387
549.65	29.425
549.84	29.855
550.04	29.814
550.23	29.557
550.43	29.454
550.62	29.287
550.82	29.631
551.01	29.423
551.21	29.776
551.40	29.477
551.60	29.554
551.79	29.827
551.99	29.735
552.18	29.407
552.38	29.794
552.57	29.259
552.77	29.292
552.96	29.283
553.16	29.447
553.35	29.461
553.54	29.224
553.74	29.438
553.93	29.387
554.13	30.131
554.32	29.731
554.52	30.132
554.71	29.354
554.91	29.754
555.10	29.616
555.29	29.475
555.49	29.549
555.68	30.021
555.88	29.776
556.07	30.034
556.27	29.169
556.46	29.320
556.66	29.932
556.85	29.465
557.04	29.600
557.24	29.338
557.43	29.643
557.63	29.800
557.82	30.246
558.02	29.291
558.21	30.040
558.40	29.860
558.60	29.473
558.79	29.779
558.99	29.958
559.18	30.091
559.38	29.809
559.57	29.097
559.76	29.772
559.96	29.940
560.15	29.728
560.35	29.990
560.54	29.763
560.73	29.242
560.93	29.503
561.12	29.477
561.32	29.370
561.51	29.220
561.70	29.914
561.90	29.633
562.09	29.689
562.29	29.898
562.48	30.201
562.67	30.153
562.87	30.062
563.06	29.851
563.26	30.056
563.45	30.504
563.64	30.128
563.84	29.866
564.03	29.507
564.23	29.985
564.42	30.943
564.61	30.059
564.81	29.617
565.00	29.733
565.20	29.920
565.39	30.434
565.58	30.069
565.78	30.229
565.97	30.597
566.16	30.754
566.36	30.424
566.55	30.557
566.74	30.200
566.94	30.553
567.13	30.779
567.33	30.559
567.52	30.751
567.71	30.794
567.91	30.577
568.10	31.204
568.29	30.833
568.49	31.010
568.68	30.963
568.87	30.755
569.07	30.665
569.26	30.513
569.45	31.441
569.65	31.052
569.84	30.530
570.04	31.087
570.23	30.216
570.42	31.066
570.62	31.165
570.81	30.789
571.00	31.130
571.20	31.120
571.39	31.109
571.58	31.276
571.78	30.621
571.97	30.579
572.16	30.751
572.36	31.357
572.55	31.271
572.74	30.967
572.94	31.110
573.13	30.741
573.32	31.524
573.51	31.676
573.71	30.714
573.90	30.870
574.09	30.898
574.29	30.678
574.48	30.876
574.67	31.236
574.87	31.221
575.06	31.259
575.25	31.089
575.45	30.901
575.64	30.979
575.83	31.060
576.03	31.574
576.22	31.670
576.41	31.192
576.60	30.850
576.80	30.913
576.99	30.909
577.18	31.176
577.38	31.613
577.57	31.350
577.76	30.905
577.95	31.430
578.15	31.149
578.34	31.139
578.53	30.729
578.73	31.425
578.92	31.359
579.11	31.342
579.30	31.330
579.50	31.553
579.69	31.789
579.88	30.940
580.08	31.354
580.27	31.055
580.46	31.451
580.65	31.382
580.85	31.075
581.04	32.324
581.23	31.195
581.42	31.234
581.62	31.210
581.81	30.912
582.00	31.763
582.19	31.472
582.39	31.051
582.58	31.609
582.77	32.054
582.96	30.809
583.16	30.961
583.35	31.340
583.54	31.501
583.73	31.483
583.93	30.596
584.12	31.105
584.31	30.782
584.50	30.984
584.70	32.102
584.89	31.441
585.08	31.842
585.27	31.335
585.47	32.008
585.66	31.890
585.85	31.379
586.04	31.747
586.24	31.680
586.43	31.321
586.62	31.754
586.81	31.844
587.00	30.823
587.20	31.680
587.39	31.644
587.58	31.675
587.77	32.221
587.97	31.485
588.16	31.577
588.35	31.506
588.54	30.915
588.73	31.572
588.93	31.627
589.12	31.688
589.31	31.466
589.50	31.531
589.69	31.200
589.89	31.468
590.08	31.647
590.27	31.551
590.46	30.943
590.65	31.819
590.85	31.658
591.04	31.867
591.23	32.022
591.42	32.011
591.61	31.908
591.81	31.790
592.00	31.386
592.19	31.746
592.38	31.629
592.57	32.110
592.77	31.858
592.96	32.229
593.15	31.768
593.34	31.592
593.53	31.388
593.72	32.172
593.92	31.167
594.11	32.200
594.30	31.240
594.49	31.580
594.68	31.683
594.87	31.841
595.07	31.432
595.26	31.609
595.45	30.816
595.64	31.462
595.83	31.567
596.02	31.273
596.22	31.311
596.41	32.079
596.60	31.977
596.79	32.215
596.98	32.013
597.17	31.857
597.37	32.364
597.56	32.550
597.75	31.482
597.94	32.314
598.13	32.583
598.32	32.365
598.51	32.183
598.71	32.258
598.90	31.551
599.09	32.247
599.28	32.330
599.47	32.334
599.66	31.800
599.85	32.327
600.05	31.747
600.24	32.376
600.43	31.819
600.62	32.892
600.81	31.999
601.00	32.417
601.19	32.555
601.38	32.970
601.58	33.056
601.77	32.294
601.96	31.926
602.15	32.373
602.34	32.172
602.53	31.959
602.72	32.789
602.91	32.126
603.10	32.494
603.30	32.528
603.49	31.592
603.68	32.458
603.87	32.541
604.06	31.838
604.25	31.881
604.44	32.214
604.63	32.700
604.82	32.126
605.01	32.379
605.21	32.664
605.40	31.920
605.59	32.788
605.78	32.146
605.97	32.325
606.16	32.757
606.35	32.611
606.54	32.571
606.73	33.311
606.92	32.809
607.11	32.319
607.30	32.792
607.50	32.367
607.69	33.020
607.88	32.553
608.07	31.896
608.26	32.014
608.45	32.086
608.64	33.245
608.83	31.739
609.02	32.218
609.21	31.675
609.40	32.034
609.59	32.562
609.78	32.524
609.97	32.691
610.16	31.768
610.35	32.439
610.55	31.993
610.74	32.125
610.93	32.399
611.12	32.124
611.31	32.372
611.50	32.357
611.69	32.988
611.88	32.543
612.07	32.270
612.26	31.999
612.45	32.139
612.64	31.612
612.83	31.791
613.02	32.198
613.21	32.428
613.40	32.478
613.59	32.903
613.78	31.943
613.97	32.068
614.16	32.103
614.35	31.514
614.54	31.254
614.73	31.903
614.92	31.878
615.11	32.232
615.30	31.320
615.49	31.410
615.68	31.593
615.87	32.153
616.07	31.297
616.26	32.403
616.45	31.813
616.64	32.239
616.83	31.660
617.02	32.496
617.21	31.013
617.40	31.043
617.59	32.163
617.78	31.649
617.97	32.574
618.16	31.114
618.35	31.584
618.54	31.424
618.73	31.389
618.92	31.300
619.11	31.043
619.30	31.236
619.49	31.510
619.68	31.681
619.86	31.880
620.05	31.429
620.24	30.938
620.43	31.019
620.62	30.423
620.81	32.350
621.00	30.558
621.19	31.259
621.38	31.217
621.57	31.698
621.76	31.005
621.95	30.674
622.14	30.815
622.33	31.740
622.52	30.420
622.71	31.814
622.90	30.962
623.09	31.514
623.28	30.083
623.47	31.132
623.66	31.003
623.85	31.633
624.04	30.557
624.23	30.780
624.42	31.028
624.61	31.152
624.80	30.797
624.99	31.338
625.18	30.612
625.36	31.873
625.55	31.675
625.74	30.657
625.93	31.418
626.12	31.075
626.31	31.271
626.50	31.734
626.69	30.545
626.88	31.375
627.07	31.905
627.26	31.061
627.45	30.900
627.64	31.419
627.83	30.406
628.02	32.016
628.20	31.321
628.39	31.529
628.58	31.684
628.77	31.191
628.96	31.127
629.15	31.630
629.34	31.484
629.53	31.440
629.72	30.875
629.91	31.127
630.10	30.906
630.29	31.658
630.47	30.484
630.66	30.864
630.85	30.476
631.04	30.991
631.23	30.824
631.42	30.640
631.61	30.831
631.80	30.268
631.99	30.132
632.18	30.486
632.36	30.862
632.55	31.229
632.74	31.277
632.93	31.168
633.12	30.343
633.31	30.770
633.50	29.723
633.69	30.879
633.88	30.571
634.06	31.374
634.25	31.846
634.44	30.189
634.63	30.558
634.82	31.139
635.01	30.893
635.20	30.604
635.39	30.722
635.57	31.241
635.76	29.394
635.95	31.330
636.14	30.208
636.33	30.974
636.52	30.457
636.71	31.077
636.89	29.931
637.08	30.654
637.27	30.286
637.46	29.784
637.65	30.693
637.84	30.807
638.03	30.502
638.21	30.677
638.40	30.054
638.59	30.093
638.78	29.177
638.97	30.454
639.16	30.478
639.34	29.938
639.53	29.927
639.72	30.008
639.91	29.802
640.10	30.364
640.29	29.753
640.47	30.777
640.66	29.916
640.85	30.631
641.04	28.933
641.23	30.243
641.42	29.753
641.60	30.401
641.79	30.206
641.98	30.508
642.17	29.658
642.36	29.988
642.54	29.059
642.73	29.801
642.92	29.239
643.11	30.401
643.30	29.888
643.49	29.076
643.67	29.137
643.86	30.449
644.05	29.647
644.24	29.643
644.43	29.700
644.61	29.689
644.80	30.480
644.99	29.867
645.18	30.915
645.37	30.550
645.55	30.052
645.74	29.189
645.93	29.326
646.12	29.323
646.31	29.686
646.49	30.263
646.68	30.399
646.87	30.118
647.06	29.808
647.24	29.400
647.43	29.472
647.62	30.956
647.81	29.731
648.00	30.671
648.18	29.360
648.37	29.463
648.56	29.386
648.75	29.330
648.93	29.537
649.12	30.243
649.31	29.886
649.50	29.873
649.68	29.061
649.87	29.759
650.06	28.433
650.25	29.528
650.43	29.644
650.62	29.786
650.81	28.616
651.00	30.456
651.18	28.297
651.37	30.097
651.56	28.446
651.75	30.899
651.93	29.151
652.12	28.969
652.31	28.926
652.50	29.430
652.68	29.570
652.87	30.299
653.06	30.346
653.25	29.627
653.43	29.230
653.62	29.647
653.81	27.770
654.00	30.022
654.18	27.899
654.37	29.091
654.56	29.479
654.74	28.605
654.93	30.121
655.12	28.772
655.31	28.788
655.49	29.179
655.68	27.388
655.87	28.741
656.05	27.590
656.24	29.859
656.43	26.900
656.62	30.036
656.80	28.893
656.99	29.150
657.18	28.783
657.36	28.701
657.55	28.603
657.74	28.693
657.93	29.311
658.11	30.304
658.30	28.648
658.49	28.729
658.67	28.400
658.86	28.373
659.05	28.104
659.23	28.574
659.42	28.447
659.61	28.123
659.79	28.915
659.98	29.359
660.17	28.975
660.35	28.916
660.54	28.456
660.73	29.239
660.91	28.615
661.10	29.344
661.29	28.380
661.47	27.981
661.66	28.064
661.85	28.040
662.03	29.214
662.22	28.339
662.41	28.203
662.59	28.881
662.78	26.767
662.97	28.138
663.15	27.671
663.34	26.486
663.53	25.519
663.71	28.035
663.90	25.781
664.09	28.057
664.27	27.421
664.46	27.283
664.65	27.068
664.83	27.722
665.02	25.673
665.21	25.765
665.39	24.782
665.58	27.440
665.77	25.420
665.95	26.223
666.14	24.002
666.32	27.029
666.51	25.376
666.70	25.865
666.88	25.135
667.07	25.542
667.26	24.687
667.44	25.501
667.63	24.638
667.81	25.031
668.00	25.834
668.19	26.679
668.37	25.149
668.56	26.492
668.75	23.468
668.93	27.526
669.12	25.990
669.30	25.747
669.49	24.930
669.68	26.417
669.86	25.317
670.05	25.940
670.23	25.585
670.42	26.016
670.61	25.940
670.79	26.248
670.98	25.440
671.16	25.686
671.35	24.473
671.54	26.275
671.72	24.784
671.91	27.395
672.09	24.417
672.28	26.987
672.46	25.722
672.65	26.828
672.84	24.702
673.02	26.464
673.21	22.918
673.39	25.378
673.58	24.170
673.77	25.994
673.95	25.164
674.14	26.749
674.32	24.253
674.51	27.353
674.69	23.215
674.88	25.006
675.07	24.672
675.25	27.057
675.44	25.143
675.62	25.340
675.81	23.810
675.99	27.163
676.18	26.534
676.36	25.815
676.55	24.533
676.74	26.436
676.92	26.088
677.11	25.582
677.29	24.367
677.48	26.582
677.66	25.833
677.85	25.522
678.03	24.511
678.22	27.068
678.40	25.630
678.59	25.346
678.78	24.422
678.96	25.497
679.15	24.627
679.33	27.161
679.52	26.964
679.70	27.075
679.89	26.073
680.07	27.452
680.26	26.420
680.44	28.332
680.63	26.796
680.81	27.109
681.00	25.745
681.18	28.092
681.37	27.701
681.55	29.780
681.74	26.627
681.92	27.146
682.11	27.200
682.29	27.968
682.48	27.819
682.66	28.684
682.85	27.539
683.03	26.863
683.22	27.113
683.40	28.052
683.59	27.103
683.77	28.216
683.96	26.416
684.14	27.816
684.33	24.935
684.51	28.450
684.70	26.862
684.88	29.184
685.07	27.497
685.25	28.791
685.44	27.641
685.62	28.167
685.81	25.687
685.99	29.180
686.18	25.743
686.36	27.514
686.55	25.675
686.73	27.626
686.92	29.010
687.10	28.864
687.29	27.355
687.47	29.361
687.65	29.758
687.84	27.834
688.02	29.641
688.21	29.501
688.39	26.936
688.58	29.764
688.76	29.287
688.95	28.757
689.13	27.553
689.32	30.569
689.50	29.166
689.68	29.403
689.87	29.265
690.05	30.501
690.24	29.727
690.42	31.255
690.61	29.795
690.79	32.607
690.98	29.734
691.16	30.173
691.34	28.573
691.53	31.173
691.71	28.484
691.90	30.317
692.08	27.550
692.27	32.321
692.45	31.276
692.63	30.565
692.82	30.486
693.00	30.328
693.19	27.882
693.37	31.743
693.56	29.669
693.74	30.950
693.92	29.443
694.11	31.950
694.29	30.570
694.48	30.646
694.66	30.449
694.84	32.457
695.03	31.649
695.21	33.422
695.40	32.755
695.58	35.584
695.76	29.869
695.95	32.852
696.13	30.666
696.32	33.187
696.50	34.462
696.68	32.848
696.87	31.664
697.05	33.790
697.24	32.272
697.42	34.649
697.60	32.115
697.79	34.359
697.97	34.300
698.16	35.444
698.34	33.754
698.52	36.076
698.71	35.009
698.89	36.539
699.07	34.319
699.26	36.561
699.44	35.399
699.63	36.697
699.81	35.136
699.99	35.376
700.18	36.763
700.36	35.932
700.54	35.681
700.73	35.938
700.91	35.307
701.09	36.928
701.28	37.374
701.46	37.152
701.64	35.779
701.83	37.285
702.01	34.605
702.20	37.744
702.38	33.862
702.56	35.526
702.75	34.567
702.93	35.272
703.11	35.460
703.30	37.829
703.48	33.488
703.66	36.018
703.85	32.652
704.03	37.394
704.21	33.613
704.40	37.812
704.58	33.876
704.76	36.072
704.95	36.383
705.13	35.354
705.31	34.607
705.50	36.162
705.68	33.989
705.86	36.644
706.04	33.018
706.23	36.066
706.41	34.358
706.59	35.174
706.78	33.494
706.96	35.975
707.14	34.984
707.33	37.911
707.51	34.103
707.69	37.215
707.88	34.915
708.06	37.617
708.24	38.218
708.42	36.768
708.61	36.176
708.79	37.286
708.97	37.013
709.16	35.272
709.34	38.168
709.52	36.871
709.71	34.975
709.89	37.805
710.07	33.344
710.25	39.780
710.44	34.915
710.62	37.945
710.80	37.327
710.98	37.490
711.17	35.682
711.35	39.569
711.53	36.312
711.72	37.278
711.90	37.298
712.08	37.364
712.26	34.905
712.45	37.471
712.63	37.158
712.81	39.539
712.99	37.258
713.18	38.716
713.36	36.474
713.54	39.235
713.72	36.734
713.91	36.581
714.09	35.339
714.27	37.131
714.45	37.411
714.64	38.853
714.82	37.474
715.00	39.337
715.18	36.316
715.37	39.461
715.55	37.442
715.73	38.796
715.91	37.535
716.10	38.032
716.28	34.598
716.46	37.878
716.64	36.567
716.83	38.369
717.01	35.197
717.19	36.865
717.37	36.481
717.55	38.431
717.74	37.002
717.92	38.913
718.10	34.230
718.28	37.685
718.47	34.672
718.65	37.907
718.83	34.950
719.01	39.134
719.19	34.716
719.38	34.659
719.56	35.276
719.74	36.694
719.92	30.416
720.10	35.074
720.29	32.762
720.47	35.007
720.65	34.117
720.83	37.735
721.01	32.533
721.20	34.285
721.38	33.999
721.56	35.636
721.74	35.128
721.92	34.318
722.11	34.850
722.29	35.858
722.47	32.904
722.65	37.046
722.83	34.134
723.01	33.668
723.20	34.693
723.38	32.811
723.56	30.061
723.74	38.066
723.92	32.360
724.10	35.052
724.29	32.786
724.47	37.787
724.65	33.463
724.83	35.639
725.01	32.262
725.19	36.164
725.38	32.603
725.56	35.237
725.74	34.010
725.92	36.009
726.10	34.275
726.28	36.968
726.46	35.297
726.65	37.906
726.83	32.885
727.01	35.230
727.19	34.595
727.37	35.085
727.55	34.996
727.73	36.975
727.92	36.212
728.10	36.364
728.28	32.619
728.46	38.125
728.64	31.980
728.82	36.708
729.00	34.751
729.19	37.242
729.37	36.579
729.55	36.481
729.73	33.635
729.91	37.259
730.09	36.635
730.27	36.340
730.45	33.168
730.63	37.410
730.82	33.401
731.00	35.545
731.18	35.431
731.36	38.160
731.54	33.967
731.72	36.415
731.90	32.633
732.08	37.480
732.26	34.243
732.45	38.584
732.63	34.544
732.81	35.220
732.99	32.561
733.17	37.156
733.35	36.329
733.53	38.619
733.71	34.915
733.89	38.844
734.07	35.393
734.25	36.991
734.44	35.161
734.62	35.643
734.80	34.740
734.98	36.940
735.16	35.964
735.34	35.811
735.52	35.698
735.70	35.165
735.88	34.985
736.06	36.711
736.24	36.244
736.42	35.371
736.60	35.104
736.78	35.470
736.97	33.276
737.15	36.330
737.33	31.169
737.51	33.839
737.69	32.663
737.87	38.061
738.05	33.074
738.23	35.954
738.41	34.594
738.59	38.492
738.77	33.649
738.95	36.410
739.13	33.350
739.31	36.238
739.49	36.536
739.67	38.452
739.85	30.975
740.03	35.346
740.21	36.310
740.39	36.752
740.57	35.866
740.75	36.837
740.93	36.052
741.11	37.661
741.30	32.234
741.48	38.160
741.66	35.431
741.84	36.162
742.02	33.841
742.20	32.129
742.38	34.743
742.56	38.632
742.74	29.970
742.92	35.665
743.10	32.052
743.28	38.388
743.46	31.683
743.64	35.003
743.82	30.939
744.00	35.439
744.18	31.215
744.36	33.978
744.54	31.944
744.72	35.897
744.90	34.497
745.08	36.562
745.26	35.120
745.44	36.459
745.62	28.777
745.80	32.285
745.98	32.579
746.16	37.002
746.34	30.606
746.52	33.673
746.70	30.133
746.87	29.919
747.05	31.935
747.23	34.275
747.41	30.944
747.59	33.588
747.77	31.174
747.95	35.195
748.13	31.304
748.31	34.367
748.49	31.258
748.67	32.818
748.85	28.811
749.03	35.584
749.21	31.066
749.39	35.502
749.57	28.117
749.75	34.570
749.93	35.714
750.11	34.799
750.29	31.306
750.47	34.083
750.65	30.741
750.83	35.011
751.01	29.804
751.18	33.497
751.36	29.488
751.54	34.679
751.72	31.991
751.90	35.357
752.08	27.639
752.26	35.908
752.44	31.918
752.62	34.936
752.80	32.057
752.98	34.300
753.16	32.671
753.34	34.998
753.52	32.358
753.69	36.743
753.87	33.524
754.05	37.368
754.23	32.103
754.41	33.595
754.59	29.734
754.77	36.049
754.95	30.969
755.13	36.480
755.31	30.724
755.49	33.833
755.66	32.594
755.84	33.946
756.02	27.753
756.20	36.438
756.38	31.129
756.56	35.673
756.74	31.334
756.92	34.604
757.10	29.390
757.28	34.905
757.45	36.864
757.63	33.269
757.81	27.334
757.99	38.120
758.17	30.165
758.35	35.909
758.53	35.609
758.71	33.641
758.88	31.048
759.06	34.547
759.24	33.654
759.42	33.488
759.60	32.700
759.78	33.427
759.96	29.086
760.13	33.384
760.31	25.008
760.49	32.881
760.67	25.838
760.85	31.977
761.03	28.746
761.21	26.873
761.38	26.314
761.56	30.868
761.74	26.240
761.92	33.304
762.10	23.645
762.28	32.541
762.46	25.359
762.63	26.744
762.81	26.730
762.99	30.482
763.17	29.715
763.35	32.331
763.53	30.856
763.70	35.212
763.88	33.271
764.06	36.283
764.24	33.161
764.42	37.331
764.60	33.270
764.77	34.201
764.95	35.939
765.13	35.734
765.31	36.205
765.49	37.087
765.66	31.422
765.84	37.886
766.02	32.403
766.20	34.357
766.38	31.297
766.56	33.637
766.73	31.916
766.91	33.760
767.09	31.514
767.27	34.712
767.45	29.877
767.62	33.392
767.80	28.827
767.98	30.854
768.16	27.169
768.33	33.821
768.51	31.087
768.69	33.160
768.87	29.853
769.05	31.017
769.22	27.809
769.40	34.138
769.58	28.921
769.76	34.513
769.94	29.941
770.11	29.153
770.29	29.054
770.47	30.918
770.65	31.391
770.82	32.838
771.00	25.765
771.18	29.651
771.36	29.281
771.53	30.781
771.71	27.835
771.89	29.900
772.07	33.094
772.25	32.381
772.42	25.684
772.60	30.704
772.78	24.594
772.96	32.875
773.13	30.087
773.31	31.486
773.49	24.719
773.67	30.122
773.84	24.150
774.02	26.601
774.20	25.437
774.37	30.466
774.55	26.351
774.73	32.723
774.91	31.068
775.08	29.077
775.26	29.139
775.44	28.831
775.62	26.385
775.79	27.667
775.97	25.771
776.15	29.482
776.32	23.179
776.50	29.256
776.68	32.782
776.86	33.285
777.03	18.635
777.21	31.144
777.39	21.380
777.56	25.060
777.74	21.094
777.92	26.683
778.10	26.321
778.27	28.377
778.45	26.636
778.63	29.750
778.80	24.182
778.98	33.998
779.16	31.734
779.34	26.530
779.51	25.435
779.69	30.459
779.87	24.150
780.04	24.614
780.22	26.251
780.40	26.258
780.57	30.814
780.75	28.509
780.93	29.196
781.10	24.008
781.28	32.329
781.46	26.044
781.63	30.341
781.81	34.040
781.99	21.318
782.16	30.383
782.34	28.117
782.52	21.272
782.69	27.984
782.87	25.108
783.05	25.270
783.22	27.636
783.40	22.601
783.58	27.599
783.75	22.216
783.93	25.849
784.11	17.501
784.28	32.282
784.46	23.754
784.64	27.989
784.81	21.256
784.99	29.053
785.17	19.249
785.34	21.845
785.52	19.643
785.69	25.027
785.87	20.942
786.05	23.288
786.22	25.928
786.40	32.117
786.58	22.408
786.75	29.369
786.93	24.859
787.11	22.669
787.28	20.478
787.46	30.361
787.63	25.277
787.81	25.314
787.99	25.625
788.16	20.514
788.34	18.743
788.51	26.646
788.69	24.829
788.87	24.267
789.04	19.466
789.22	26.705
789.39	28.415
789.57	26.166
789.75	22.217
789.92	31.268
790.10	20.750
790.27	25.968
790.45	16.779
790.63	25.318
790.80	24.251
790.98	21.857
791.15	24.073
791.33	22.730
791.51	19.968
791.68	25.963
791.86	23.989
792.03	23.818
792.21	21.261
792.39	26.630
792.56	23.479
792.74	23.292
792.91	26.773
793.09	21.744
793.26	18.255
793.44	24.985
793.62	19.530
793.79	25.290
793.97	22.642
794.14	26.630
794.32	21.850
794.49	20.190
794.67	19.376
794.84	21.963
795.02	23.104
795.20	24.535
795.37	19.738
795.55	25.088
795.72	21.292
795.90	21.788
796.07	25.763
796.25	25.612
796.42	20.347
796.60	20.941
796.77	21.656
796.95	24.757
797.13	16.770
797.30	28.382
797.48	23.736
797.65	29.641
797.83	18.586
798.00	23.688
798.18	17.311
798.35	20.905
798.53	22.111
798.70	22.969
798.88	23.204
799.05	21.282
799.23	21.237
799.40	22.069
799.58	22.847
799.75	21.149
799.93	20.580
800.10	25.127
800.28	22.373
800.45	23.266
800.63	23.705
800.80	25.741
800.98	21.731
801.15	24.750
801.33	23.593
801.50	22.040
801.68	13.528
801.85	24.751
802.03	18.944
802.20	21.182
802.38	23.634
802.55	24.163
802.73	22.568
802.90	21.540
803.08	17.843
803.25	25.346
803.43	21.084
803.60	30.096
803.78	24.609
803.95	26.195
804.13	24.180
804.30	22.338
804.48	21.003
804.65	22.506
804.83	18.793
805.00	27.679
805.17	17.493
805.35	23.608
805.52	17.184
805.70	27.090
805.87	24.239
806.05	20.183
806.22	15.213
806.40	19.382
806.57	24.323
806.75	28.277
806.92	22.192
807.09	24.474
807.27	20.503
807.44	30.984
807.62	22.194
807.79	26.395
807.97	16.321
808.14	25.644
808.31	22.097
808.49	21.429
808.66	16.314
808.84	17.869
809.01	22.555
809.19	21.542
809.36	23.903
809.53	24.637
809.71	17.694
809.88	32.315
810.06	25.437
810.23	25.575
810.41	23.171
810.58	25.018
810.75	13.760
810.93	19.013
811.10	24.410
811.28	27.476
811.45	22.303
811.62	26.538
811.80	17.470
811.97	22.807
812.15	30.038
812.32	17.270
812.49	26.646
812.67	20.046
812.84	20.361
813.02	22.542
813.19	20.821
813.36	22.128
813.54	24.188
813.71	26.565
813.89	22.120
814.06	21.449
814.23	18.060
814.41	19.581
814.58	22.517
814.75	19.870
814.93	16.553
815.10	17.201
815.28	17.241
815.45	17.194
815.62	14.526
815.80	16.719
815.97	18.211
816.14	18.255
816.32	25.759
816.49	22.313
816.66	18.953
816.84	18.675
817.01	13.955
817.18	25.258
817.36	16.885
817.53	19.906
817.71	13.593
817.88	14.563
818.05	16.653
818.23	19.860
818.40	17.891
818.57	16.561
818.75	13.164
818.92	17.852
819.09	18.645
819.27	17.375
819.44	19.695
819.61	18.027
819.79	20.907
819.96	25.429
820.13	17.778
820.31	25.060
820.48	25.345
820.65	22.185
820.82	22.164
821.00	26.374
821.17	17.176
821.34	22.597
821.52	24.101
821.69	24.628
821.86	23.521
822.04	27.634
822.21	30.856
822.38	36.558
822.56	31.071
822.73	36.674
822.90	35.134
823.07	38.821
823.25	37.429
823.42	37.657
823.59	36.458
823.77	37.566
823.94	36.658
824.11	38.043
824.29	35.594
824.46	37.561
824.63	35.971
824.80	35.660
824.98	33.518
825.15	37.270
825.32	31.668
825.49	35.322
825.67	29.799
825.84	32.830
826.01	29.035
826.19	31.547
826.36	25.509
826.53	30.771
826.70	28.722
826.88	28.928
827.05	26.380
827.22	28.127
827.39	29.610
827.57	28.284
827.74	24.434
827.91	30.869
828.08	27.104
828.26	31.151
828.43	28.177
828.60	32.824
828.77	27.807
828.95	30.960
829.12	26.171
829.29	25.093
829.46	27.986
829.64	26.761
829.81	21.419
829.98	27.570
830.15	24.874
830.32	23.803
830.50	24.069
830.67	23.431
830.84	20.060
831.01	12.862
831.19	14.539
831.36	15.133
831.53	21.389
831.70	20.053
831.87	17.791
832.05	17.404
832.22	22.018
832.39	19.220
832.56	16.654
832.74	19.497
832.91	13.404
833.08	25.138
833.25	15.992
833.42	13.842
833.60	16.968
833.77	14.813
833.94	16.754
834.11	22.767
834.28	20.117
834.45	25.770
834.63	18.494
834.80	22.428
834.97	22.127
835.14	26.616
835.31	24.197
835.49	24.200
835.66	25.497
835.83	22.898
836.00	21.332
836.17	23.654
836.34	20.069
836.52	18.485
836.69	22.017
836.86	21.523
837.03	20.565
837.20	18.747
837.37	18.797
837.55	3.779
837.72	19.771
837.89	18.833
838.06	17.810
838.23	18.813
838.40	21.351
838.58	12.524
838.75	19.416
838.92	20.020
839.09	30.672
839.26	23.982
839.43	25.399
839.60	20.616
839.78	28.438
839.95	25.280
840.12	20.825
840.29	27.050
840.46	15.203
840.63	24.072
840.80	20.446
840.98	22.233
841.15	20.134
841.32	16.731
841.49	17.679
841.66	24.206
841.83	14.821
842.00	21.557
842.17	30.347
842.34	17.969
842.52	26.714
842.69	22.924
842.86	28.738
843.03	31.397
843.20	22.516
843.37	23.703
843.54	15.385
843.71	21.108
843.88	19.611
844.06	32.361
844.23	27.005
844.40	15.211
844.57	27.640
844.74	18.814
844.91	23.773
845.08	27.854
845.25	23.866
845.42	14.338
845.59	19.691
845.76	14.365
845.94	23.582
846.11	24.161
846.28	16.374
846.45	25.430
846.62	18.519
846.79	34.253
846.96	22.736
847.13	21.063
847.30	11.744
847.47	16.497
847.64	24.754
847.81	27.346
847.98	17.842
848.15	22.737
848.32	32.319
848.50	42.885
848.67	21.207
848.84	26.721
849.01	26.220
849.18	23.722
849.35	32.411
849.52	42.772
849.69	29.466
849.86	35.068
850.03	20.843
850.20	27.767
850.37	19.585
850.54	21.942
850.71	19.956
850.88	29.461
851.05	26.875
851.22	38.641
851.39	35.484
851.56	17.354
851.73	20.235
851.90	33.945
852.07	25.899
852.24	26.419
852.41	27.409
852.58	11.905
852.75	0.698
852.92	27.968
853.09	20.506
853.26	29.895
853.43	22.222
853.60	24.324
853.77	25.641
853.94	42.300
854.11	31.787
854.28	31.220
854.45	17.556
854.62	21.558
854.79	25.000
854.96	31.122
855.13	22.506
855.30	38.000
855.47	12.245
855.64	19.376
855.81	13.636
855.98	20.325
856.15	19.512
856.32	20.459
856.49	24.586
856.66	34.977
856.83	37.069
857.00	37.238
857.17	37.422
857.34	30.921
857.51	41.319
857.68	26.253
857.85	18.305
858.02	13.936
858.19	41.331
858.36	21.975
858.53	32.334
858.70	29.605
858.87	31.944
859.04	13.801
859.21	29.526
859.38	28.750
859.55	37.470
859.72	33.237
859.89	24.490
860.05	3.431
860.22	37.368
860.39	36.281
860.56	23.485
860.73	35.084
860.90	27.626
861.07	22.146
861.24	35.469
861.41	18.254
861.58	39.294
861.75	23.389
861.92	0.656
862.09	31.646
862.26	17.258
862.43	19.008
862.59	27.315
862.76	31.423
862.93	24.595
863.10	17.184
863.27	25.074
863.44	20.098
863.61	20.682
863.78	25.373
863.95	30.166
864.12	47.664
864.29	45.897
864.45	21.411
864.62	7.592
864.79	36.139
864.96	34.491
865.13	33.925
865.30	36.667
865.47	11.978
865.64	30.896
865.81	44.904
865.97	25.899
866.14	45.434
866.31	15.258
866.48	26.840
866.65	28.125
866.82	24.940
866.99	35.884
867.16	32.723
867.33	32.235
867.49	22.005
867.66	23.373
867.83	20.485
868.00	23.515
868.17	13.218
868.34	40.402
868.51	23.913
868.67	24.882
868.84	35.402
869.01	35.253
869.18	13.902
869.35	34.437
869.52	22.750
869.69	24.390
869.85	11.605
870.02	27.670
870.19	34.211
870.36	31.481
870.53	17.716
870.70	35.319
870.86	24.870
871.03	30.162
871.20	18.812
871.37	44.032
871.54	19.022
871.71	33.738
871.87	41.848
872.04	1.650
872.21	23.620
872.38	30.073
872.55	33.418
872.72	37.838
872.88	16.901
873.05	-4.932
873.22	40.771
873.39	32.151
873.56	22.323
873.72	32.933
873.89	22.384
874.06	30.928
874.23	15.183
874.40	30.058
874.56	22.037
874.73	35.437
874.90	17.647
875.07	25.546
875.24	28.162
875.40	26.517
875.57	25.909
875.74	46.829
875.91	34.959
876.08	22.467
876.24	33.058
876.41	37.563
876.58	36.993
876.75	37.190
876.92	29.687
877.08	32.227
877.25	23.711
877.42	32.114
877.59	23.853
877.75	34.420
877.92	25.095
878.09	40.371
878.26	44.177
878.42	18.085
878.59	34.735
878.76	31.621
878.93	33.032
879.09	35.153
879.26	21.498
879.43	21.573
879.60	31.947
879.76	37.900
879.93	-1.485
880.10	9.767
880.27	25.962
880.43	23.955
880.60	6.270
880.77	11.538
880.94	17.728
881.10	11.269
881.27	23.100
881.44	12.072
881.61	22.291
881.77	16.818
881.94	11.736
882.11	15.499
882.28	10.753
882.44	17.269
882.61	19.651
882.78	21.759
882.94	26.473
883.11	23.710
883.28	24.449
883.45	23.926
883.61	20.621
883.78	21.520
883.95	26.163
884.11	22.458
884.28	17.738
>>>>>End Processed Spectral Data<<<<<
