SpectraSuite Data File
++++++++++++++++++++++++++++++++++++
Date: Mon Sep 23 03:11:57 EST 2019
User: sgrac
Dark Spectrum Present: Yes
Reference Spectrum Present: Yes
Number of Sampled Component Spectra: 1
Spectrometers: USB4E01596
Integration Time (usec): 100000 (USB4E01596)
Spectra Averaged: 3 (USB4E01596)
Boxcar Smoothing: 0 (USB4E01596)
Correct for Electrical Dark: No (USB4E01596)
Strobe/Lamp Enabled: Yes (USB4E01596)
Correct for Detector Non-linearity: No (USB4E01596)
Correct for Stray Light: No (USB4E01596)
Number of Pixels in Processed Spectrum: 3648
>>>>>Begin Processed Spectral Data<<<<<
178.44	861.538
178.66	861.538
178.87	861.538
179.09	4433.333
179.30	-3875.000
179.52	-245.161
179.74	-326.415
179.95	434.091
180.17	-222.222
180.38	384.211
180.60	-1163.636
180.82	506.667
181.03	2800.000
181.25	-1333.333
181.46	-688.000
181.68	1087.500
181.89	-402.273
182.11	-987.500
182.33	-1106.250
182.54	335.417
182.76	2083.333
182.97	-329.787
183.19	715.000
183.40	202.479
183.62	288.462
183.84	248.182
184.05	2771.429
184.27	359.091
184.48	209.091
184.70	1211.765
184.91	776.190
185.13	2010.000
185.34	-8450.000
185.56	615.385
185.78	177.778
185.99	491.667
186.21	200.000
186.42	-1875.000
186.64	840.000
186.85	-3420.000
187.07	150.000
187.28	228.947
187.50	267.273
187.72	234.615
187.93	505.455
188.15	220.833
188.36	286.842
188.58	328.571
188.79	237.500
189.01	291.549
189.22	483.784
189.44	-578.788
189.65	197.458
189.87	-3975.000
190.09	396.825
190.30	354.762
190.52	271.667
190.73	471.739
190.95	-1666.667
191.16	226.190
191.38	294.595
191.59	235.294
191.81	364.516
192.02	693.333
192.24	593.750
192.45	500.000
192.67	-725.000
192.88	235.849
193.10	350.820
193.31	630.000
193.53	143.548
193.74	210.667
193.96	828.571
194.18	650.000
194.39	1273.333
194.61	267.123
194.82	1195.455
195.04	203.659
195.25	-194.737
195.47	-251.852
195.68	2633.333
195.90	234.545
196.11	235.821
196.33	13100.000
196.54	446.341
196.76	892.857
196.97	245.455
197.19	532.432
197.40	1321.429
197.62	188.073
197.83	467.742
198.05	503.636
198.26	558.621
198.48	260.563
198.69	308.333
198.91	944.444
199.12	437.209
199.34	356.522
199.55	305.714
199.77	1236.842
199.98	305.882
200.20	288.158
200.41	374.194
200.63	223.894
200.84	1057.143
201.06	1033.333
201.27	563.415
201.49	205.634
201.70	-293.333
201.91	279.167
202.13	330.508
202.34	218.966
202.56	-632.000
202.77	326.667
202.99	3283.333
203.20	-1737.500
203.42	1243.750
203.63	111.842
203.85	3466.667
204.06	338.000
204.28	141.414
204.49	394.444
204.71	369.492
204.92	684.615
205.14	0.000
205.35	430.000
205.56	-755.000
205.78	3200.000
205.99	-578.571
206.21	4350.000
206.42	434.091
206.64	677.419
206.85	514.815
207.07	-1555.556
207.28	170.690
207.50	421.739
207.71	461.290
207.93	190.361
208.14	-511.111
208.35	260.000
208.57	424.000
208.78	-2033.333
209.00	229.787
209.21	-8200.000
209.43	-5266.667
209.64	-953.333
209.86	201.031
210.07	195.349
210.28	277.465
210.50	582.759
210.71	272.549
210.93	144.118
211.14	203.371
211.36	1456.250
211.57	233.333
211.78	295.714
212.00	205.882
212.21	304.286
212.43	453.846
212.64	269.149
212.86	222.973
213.07	233.028
213.29	-341.667
213.50	180.435
213.71	150.575
213.93	197.561
214.14	645.455
214.36	401.471
214.57	187.342
214.78	404.444
215.00	203.125
215.21	496.667
215.43	340.541
215.64	266.667
215.86	131.250
216.07	417.143
216.28	428.947
216.50	190.833
216.71	15900.000
216.93	298.485
217.14	772.222
217.35	179.545
217.57	173.874
217.78	202.469
218.00	171.717
218.21	678.261
218.42	502.128
218.64	292.857
218.85	172.000
219.07	450.000
219.28	227.103
219.49	176.471
219.71	221.538
219.92	162.687
220.14	201.031
220.35	236.000
220.56	185.057
220.78	182.692
220.99	132.258
221.21	155.914
221.42	220.988
221.63	132.370
221.85	253.846
222.06	265.714
222.28	244.615
222.49	168.468
222.70	124.409
222.92	297.959
223.13	272.131
223.34	121.986
223.56	189.286
223.77	117.500
223.99	149.474
224.20	244.643
224.41	209.589
224.63	217.045
224.84	146.622
225.05	101.282
225.27	190.435
225.48	140.196
225.69	175.940
225.91	229.730
226.12	155.814
226.34	115.436
226.55	99.281
226.76	158.125
226.98	103.137
227.19	98.437
227.40	173.437
227.62	96.296
227.83	80.687
228.04	63.128
228.26	72.237
228.47	61.473
228.69	43.401
228.90	26.866
229.11	32.879
229.33	22.414
229.54	19.305
229.75	31.773
229.97	25.572
230.18	34.494
230.39	29.093
230.61	26.867
230.82	29.222
231.03	23.664
231.25	32.730
231.46	32.692
231.67	31.193
231.89	24.234
232.10	41.176
232.31	33.748
232.53	23.260
232.74	51.215
232.95	28.312
233.17	34.200
233.38	16.387
233.59	43.970
233.81	48.913
234.02	31.864
234.23	37.411
234.45	39.410
234.66	36.726
234.87	25.000
235.09	39.068
235.30	28.722
235.51	42.171
235.73	32.839
235.94	24.383
236.15	37.042
236.36	31.776
236.58	34.633
236.79	36.578
237.00	34.604
237.22	39.456
237.43	33.087
237.64	37.008
237.86	37.218
238.07	44.674
238.28	33.710
238.50	26.014
238.71	32.914
238.92	35.938
239.13	28.814
239.35	37.636
239.56	32.686
239.77	38.305
239.99	25.670
240.20	36.288
240.41	28.264
240.63	25.741
240.84	27.239
241.05	19.347
241.26	23.304
241.48	21.443
241.69	11.528
241.90	19.889
242.12	17.693
242.33	22.269
242.54	16.235
242.75	14.587
242.97	19.233
243.18	16.949
243.39	12.351
243.61	20.009
243.82	21.942
244.03	17.900
244.24	15.521
244.46	15.710
244.67	18.258
244.88	17.594
245.09	22.097
245.31	19.293
245.52	16.878
245.73	13.603
245.95	26.056
246.16	17.577
246.37	17.165
246.58	16.093
246.80	15.192
247.01	17.354
247.22	16.905
247.43	18.721
247.65	18.098
247.86	17.304
248.07	13.406
248.28	17.446
248.50	18.519
248.71	15.741
248.92	16.547
249.13	16.093
249.35	18.742
249.56	17.199
249.77	18.099
249.98	15.574
250.20	20.439
250.41	17.441
250.62	19.569
250.83	16.734
251.05	18.242
251.26	13.416
251.47	13.415
251.68	16.206
251.90	13.596
252.11	13.382
252.32	16.876
252.53	19.936
252.75	13.193
252.96	20.497
253.17	17.756
253.38	16.116
253.59	16.710
253.81	14.140
254.02	12.637
254.23	14.777
254.44	11.492
254.66	8.142
254.87	14.807
255.08	20.362
255.29	17.839
255.50	10.871
255.72	18.500
255.93	13.976
256.14	21.803
256.35	17.565
256.57	20.891
256.78	19.816
256.99	17.117
257.20	27.696
257.41	14.229
257.63	18.231
257.84	15.859
258.05	17.332
258.26	17.291
258.47	16.258
258.69	14.851
258.90	7.878
259.11	14.542
259.32	14.044
259.53	12.300
259.75	11.107
259.96	11.938
260.17	10.599
260.38	11.147
260.59	14.878
260.81	16.407
261.02	16.195
261.23	15.378
261.44	15.421
261.65	16.630
261.87	15.880
262.08	17.597
262.29	16.759
262.50	14.609
262.71	12.068
262.92	17.541
263.14	11.144
263.35	14.905
263.56	12.583
263.77	12.429
263.98	12.338
264.20	15.410
264.41	9.068
264.62	12.478
264.83	11.742
265.04	18.034
265.25	13.758
265.47	12.651
265.68	14.007
265.89	11.751
266.10	8.206
266.31	15.749
266.52	8.273
266.74	11.054
266.95	14.689
267.16	15.737
267.37	12.275
267.58	11.691
267.79	12.725
268.01	12.897
268.22	10.988
268.43	12.905
268.64	14.970
268.85	12.910
269.06	11.023
269.27	14.087
269.49	12.386
269.70	13.320
269.91	15.332
270.12	13.011
270.33	13.795
270.54	11.100
270.75	8.785
270.97	11.092
271.18	10.683
271.39	10.465
271.60	13.746
271.81	13.090
272.02	10.559
272.23	15.366
272.45	12.070
272.66	10.848
272.87	12.786
273.08	11.481
273.29	15.840
273.50	13.394
273.71	11.442
273.92	10.771
274.14	13.201
274.35	12.740
274.56	13.676
274.77	12.091
274.98	11.747
275.19	11.514
275.40	10.431
275.61	10.599
275.83	14.017
276.04	13.352
276.25	14.776
276.46	13.045
276.67	15.436
276.88	16.145
277.09	11.636
277.30	12.306
277.51	13.049
277.73	8.952
277.94	9.979
278.15	16.982
278.36	13.199
278.57	9.374
278.78	11.122
278.99	12.700
279.20	13.359
279.41	14.874
279.62	12.297
279.84	11.827
280.05	10.156
280.26	11.108
280.47	13.965
280.68	13.120
280.89	11.293
281.10	11.935
281.31	10.561
281.52	16.041
281.73	7.386
281.94	9.757
282.16	11.396
282.37	10.034
282.58	8.450
282.79	16.625
283.00	15.101
283.21	10.228
283.42	11.566
283.63	13.061
283.84	10.515
284.05	9.783
284.26	11.416
284.47	13.274
284.68	11.993
284.89	10.896
285.11	11.901
285.32	10.489
285.53	12.205
285.74	14.441
285.95	11.505
286.16	11.649
286.37	9.920
286.58	11.925
286.79	11.141
287.00	11.140
287.21	9.395
287.42	11.379
287.63	10.624
287.84	10.376
288.05	13.096
288.26	9.701
288.48	12.112
288.69	9.006
288.90	11.489
289.11	12.723
289.32	12.505
289.53	13.088
289.74	7.797
289.95	10.343
290.16	12.863
290.37	10.389
290.58	8.055
290.79	8.141
291.00	9.251
291.21	8.176
291.42	7.916
291.63	9.584
291.84	12.673
292.05	7.779
292.26	9.615
292.47	10.428
292.68	7.392
292.89	9.711
293.10	10.711
293.31	10.710
293.52	6.227
293.73	9.280
293.94	7.504
294.15	6.879
294.36	9.150
294.57	10.846
294.79	8.352
295.00	6.556
295.21	10.684
295.42	10.131
295.63	9.416
295.84	7.941
296.05	6.717
296.26	7.920
296.47	9.682
296.68	9.574
296.89	11.263
297.10	10.289
297.31	9.742
297.52	7.574
297.73	10.034
297.94	10.852
298.15	9.345
298.36	10.184
298.57	7.912
298.78	11.121
298.99	9.875
299.20	8.872
299.41	9.258
299.62	10.092
299.83	8.523
300.04	10.231
300.25	10.601
300.46	12.611
300.67	12.017
300.88	9.764
301.09	7.856
301.30	8.732
301.50	8.872
301.71	14.505
301.92	10.783
302.13	9.549
302.34	8.019
302.55	7.724
302.76	8.041
302.97	8.578
303.18	9.542
303.39	7.321
303.60	8.527
303.81	10.698
304.02	5.965
304.23	9.313
304.44	6.660
304.65	5.771
304.86	10.045
305.07	5.349
305.28	7.519
305.49	9.443
305.70	9.379
305.91	8.582
306.12	9.761
306.33	7.267
306.54	7.572
306.75	6.893
306.96	12.109
307.17	8.498
307.38	6.668
307.58	7.827
307.79	6.897
308.00	8.370
308.21	5.810
308.42	8.951
308.63	8.558
308.84	6.250
309.05	7.619
309.26	5.321
309.47	9.148
309.68	6.200
309.89	8.918
310.10	8.326
310.31	7.428
310.52	6.987
310.73	9.826
310.94	5.973
311.14	7.740
311.35	7.784
311.56	8.560
311.77	7.743
311.98	7.068
312.19	9.084
312.40	6.039
312.61	8.003
312.82	8.967
313.03	7.277
313.24	8.472
313.45	9.512
313.66	7.472
313.86	9.562
314.07	8.253
314.28	8.930
314.49	6.774
314.70	9.277
314.91	9.233
315.12	8.510
315.33	9.882
315.54	6.830
315.75	7.394
315.96	5.854
316.16	6.926
316.37	7.283
316.58	6.107
316.79	8.460
317.00	8.526
317.21	8.264
317.42	8.510
317.63	8.321
317.84	7.014
318.05	8.448
318.25	8.523
318.46	7.493
318.67	6.763
318.88	8.631
319.09	9.135
319.30	6.375
319.51	6.249
319.72	8.290
319.93	7.270
320.13	7.561
320.34	10.118
320.55	8.657
320.76	7.246
320.97	6.774
321.18	9.081
321.39	5.730
321.60	7.488
321.80	10.681
322.01	7.156
322.22	5.660
322.43	6.142
322.64	6.352
322.85	9.369
323.06	9.976
323.27	7.808
323.47	7.874
323.68	8.459
323.89	6.935
324.10	8.517
324.31	6.571
324.52	9.089
324.73	10.078
324.93	7.611
325.14	8.596
325.35	8.589
325.56	6.599
325.77	7.832
325.98	9.468
326.19	7.716
326.39	4.811
326.60	6.511
326.81	6.478
327.02	4.885
327.23	6.798
327.44	8.635
327.64	5.609
327.85	5.150
328.06	9.109
328.27	10.847
328.48	9.193
328.69	5.482
328.90	7.336
329.10	8.208
329.31	7.871
329.52	7.353
329.73	9.761
329.94	6.516
330.15	8.846
330.35	9.534
330.56	8.390
330.77	8.920
330.98	4.325
331.19	6.725
331.39	6.749
331.60	7.457
331.81	6.227
332.02	7.221
332.23	7.238
332.44	5.923
332.64	7.150
332.85	6.986
333.06	8.165
333.27	5.794
333.48	8.639
333.68	7.648
333.89	6.586
334.10	7.282
334.31	7.712
334.52	7.500
334.72	7.453
334.93	6.635
335.14	6.372
335.35	6.226
335.56	7.809
335.76	6.071
335.97	8.844
336.18	6.238
336.39	9.589
336.60	6.636
336.80	5.401
337.01	5.086
337.22	7.049
337.43	8.795
337.64	9.728
337.84	6.931
338.05	5.839
338.26	10.118
338.47	8.153
338.68	3.789
338.88	7.362
339.09	6.647
339.30	7.563
339.51	7.004
339.71	7.426
339.92	6.551
340.13	7.490
340.34	6.951
340.55	6.505
340.75	8.193
340.96	5.801
341.17	8.570
341.38	7.235
341.58	6.995
341.79	7.706
342.00	5.255
342.21	7.404
342.41	4.998
342.62	6.169
342.83	9.311
343.04	4.879
343.24	6.041
343.45	7.855
343.66	5.887
343.87	5.891
344.07	5.399
344.28	7.174
344.49	6.805
344.70	8.163
344.90	5.539
345.11	4.191
345.32	5.572
345.53	6.620
345.73	6.902
345.94	8.279
346.15	8.268
346.36	6.376
346.56	8.090
346.77	7.265
346.98	5.067
347.19	8.555
347.39	6.580
347.60	6.920
347.81	6.552
348.02	7.286
348.22	5.226
348.43	6.884
348.64	6.119
348.84	7.769
349.05	7.450
349.26	9.113
349.47	5.111
349.67	6.647
349.88	7.535
350.09	7.698
350.30	9.705
350.50	7.566
350.71	8.487
350.92	7.078
351.12	8.056
351.33	6.505
351.54	7.417
351.74	8.680
351.95	7.287
352.16	9.731
352.37	8.212
352.57	8.257
352.78	7.349
352.99	8.188
353.19	6.685
353.40	8.300
353.61	11.227
353.82	10.415
354.02	12.026
354.23	9.931
354.44	11.501
354.64	10.106
354.85	10.237
355.06	9.683
355.26	9.266
355.47	10.504
355.68	11.717
355.88	13.252
356.09	14.183
356.30	11.844
356.51	14.757
356.71	12.762
356.92	11.340
357.13	14.610
357.33	15.592
357.54	14.523
357.75	12.777
357.95	16.612
358.16	14.759
358.37	17.948
358.57	14.544
358.78	17.570
358.99	15.790
359.19	16.095
359.40	18.263
359.61	15.993
359.81	18.376
360.02	19.629
360.23	15.498
360.43	17.839
360.64	17.120
360.85	18.862
361.05	16.884
361.26	19.840
361.47	18.714
361.67	20.768
361.88	17.888
362.09	21.383
362.29	19.586
362.50	21.290
362.70	19.025
362.91	22.289
363.12	19.683
363.32	21.990
363.53	21.321
363.74	22.345
363.94	20.182
364.15	23.225
364.36	22.188
364.56	21.379
364.77	21.527
364.98	22.876
365.18	20.860
365.39	22.542
365.59	20.230
365.80	21.493
366.01	21.919
366.21	21.615
366.42	20.093
366.63	23.227
366.83	20.750
367.04	19.403
367.24	22.087
367.45	21.208
367.66	20.478
367.86	22.558
368.07	20.551
368.28	21.283
368.48	21.825
368.69	20.334
368.89	20.050
369.10	21.383
369.31	21.128
369.51	21.824
369.72	21.620
369.92	24.739
370.13	21.777
370.34	21.270
370.54	16.712
370.75	21.883
370.95	19.161
371.16	22.574
371.37	20.909
371.57	21.960
371.78	20.470
371.98	22.558
372.19	21.692
372.40	22.677
372.60	22.722
372.81	22.332
373.01	20.793
373.22	21.619
373.43	21.689
373.63	22.361
373.84	22.535
374.04	22.290
374.25	20.834
374.46	23.260
374.66	21.518
374.87	22.978
375.07	19.445
375.28	21.493
375.48	21.392
375.69	22.813
375.90	18.844
376.10	20.155
376.31	21.375
376.51	21.441
376.72	20.434
376.92	20.102
377.13	21.882
377.34	22.830
377.54	20.967
377.75	23.008
377.95	20.307
378.16	22.329
378.36	22.804
378.57	23.008
378.77	22.273
378.98	21.241
379.19	20.669
379.39	21.124
379.60	20.967
379.80	21.808
380.01	22.299
380.21	21.538
380.42	21.676
380.62	22.049
380.83	21.467
381.04	21.609
381.24	20.898
381.45	22.371
381.65	20.402
381.86	22.240
382.06	21.397
382.27	19.421
382.47	20.439
382.68	22.696
382.88	19.840
383.09	20.401
383.29	21.549
383.50	22.789
383.71	20.104
383.91	21.386
384.12	21.406
384.32	21.037
384.53	20.972
384.73	19.952
384.94	21.056
385.14	21.807
385.35	20.783
385.55	22.753
385.76	20.409
385.96	21.257
386.17	21.912
386.37	22.330
386.58	21.357
386.78	21.793
386.99	19.644
387.19	23.019
387.40	21.215
387.60	23.174
387.81	21.160
388.01	21.671
388.22	21.758
388.42	22.425
388.63	22.204
388.83	23.355
389.04	19.404
389.24	22.200
389.45	22.003
389.65	21.214
389.86	21.532
390.06	21.557
390.27	21.801
390.47	21.631
390.68	20.858
390.88	23.098
391.09	22.292
391.29	22.409
391.50	21.250
391.70	22.509
391.91	21.471
392.11	23.133
392.32	21.253
392.52	22.622
392.73	22.466
392.93	23.159
393.14	22.400
393.34	22.229
393.55	22.465
393.75	23.435
393.95	22.369
394.16	23.306
394.36	23.000
394.57	23.036
394.77	21.942
394.98	22.693
395.18	22.045
395.39	23.419
395.59	22.514
395.80	23.194
396.00	22.843
396.21	23.434
396.41	21.827
396.61	23.015
396.82	22.603
397.02	23.972
397.23	21.966
397.43	22.643
397.64	21.125
397.84	22.256
398.05	19.663
398.25	23.093
398.45	22.052
398.66	22.689
398.86	21.678
399.07	23.741
399.27	20.763
399.48	22.866
399.68	21.158
399.89	21.915
400.09	23.017
400.29	21.315
400.50	21.323
400.70	22.861
400.91	21.816
401.11	22.185
401.32	21.509
401.52	20.708
401.72	21.128
401.93	22.689
402.13	21.560
402.34	22.088
402.54	20.315
402.75	22.659
402.95	20.205
403.15	22.942
403.36	20.763
403.56	22.332
403.77	20.870
403.97	21.413
404.17	20.936
404.38	22.408
404.58	21.864
404.79	22.263
404.99	22.049
405.19	22.773
405.40	21.655
405.60	21.176
405.81	21.553
406.01	21.733
406.21	20.721
406.42	22.968
406.62	21.327
406.83	21.624
407.03	22.018
407.23	21.585
407.44	21.358
407.64	22.370
407.85	21.102
408.05	21.204
408.25	21.496
408.46	22.103
408.66	21.033
408.87	21.219
409.07	20.550
409.27	20.080
409.48	20.070
409.68	21.812
409.88	19.554
410.09	20.971
410.29	20.692
410.50	22.178
410.70	20.047
410.90	20.742
411.11	20.201
411.31	20.747
411.51	20.184
411.72	21.155
411.92	20.559
412.12	20.635
412.33	20.145
412.53	20.817
412.74	18.582
412.94	20.185
413.14	20.788
413.35	20.844
413.55	20.970
413.75	21.143
413.96	19.912
414.16	19.992
414.36	19.952
414.57	21.495
414.77	19.854
414.97	20.279
415.18	19.045
415.38	20.470
415.58	20.087
415.79	19.892
415.99	19.846
416.19	21.191
416.40	20.715
416.60	20.956
416.80	20.193
417.01	20.415
417.21	19.276
417.41	20.300
417.62	19.890
417.82	21.052
418.02	19.859
418.23	20.855
418.43	19.902
418.63	20.578
418.84	21.038
419.04	20.502
419.24	20.224
419.45	20.367
419.65	20.897
419.85	20.849
420.06	21.343
420.26	20.843
420.46	20.517
420.67	20.381
420.87	20.721
421.07	20.223
421.28	20.264
421.48	20.693
421.68	20.525
421.88	20.437
422.09	20.582
422.29	20.646
422.49	20.400
422.70	20.992
422.90	20.666
423.10	20.876
423.31	21.149
423.51	20.912
423.71	21.003
423.91	20.955
424.12	20.685
424.32	21.357
424.52	20.668
424.73	20.829
424.93	21.298
425.13	20.797
425.33	20.683
425.54	20.897
425.74	21.368
425.94	21.332
426.15	21.337
426.35	21.117
426.55	21.168
426.75	21.774
426.96	21.813
427.16	21.344
427.36	21.441
427.57	22.239
427.77	21.687
427.97	21.449
428.17	21.970
428.38	21.645
428.58	21.298
428.78	22.114
428.98	21.742
429.19	21.543
429.39	21.377
429.59	21.860
429.79	20.964
430.00	21.343
430.20	21.806
430.40	22.394
430.60	21.919
430.81	21.851
431.01	21.948
431.21	22.349
431.41	21.489
431.62	22.654
431.82	21.939
432.02	22.109
432.22	22.238
432.43	22.737
432.63	22.857
432.83	21.948
433.03	22.629
433.24	21.968
433.44	22.377
433.64	22.319
433.84	22.631
434.05	22.513
434.25	22.841
434.45	23.001
434.65	23.301
434.85	23.280
435.06	23.744
435.26	23.023
435.46	23.240
435.66	23.442
435.87	23.614
436.07	23.428
436.27	23.574
436.47	23.807
436.67	23.476
436.88	23.723
437.08	23.594
437.28	23.601
437.48	23.939
437.69	23.500
437.89	23.979
438.09	23.872
438.29	23.412
438.49	24.261
438.70	23.936
438.90	24.099
439.10	24.061
439.30	23.806
439.50	23.919
439.71	24.257
439.91	24.160
440.11	24.328
440.31	23.478
440.51	23.953
440.72	24.005
440.92	23.592
441.12	24.782
441.32	24.359
441.52	24.545
441.72	24.289
441.93	24.563
442.13	24.822
442.33	24.408
442.53	24.499
442.73	24.534
442.94	24.569
443.14	24.633
443.34	25.160
443.54	24.584
443.74	24.501
443.94	25.114
444.15	24.444
444.35	25.169
444.55	24.489
444.75	24.616
444.95	24.844
445.15	24.953
445.36	24.539
445.56	24.438
445.76	24.385
445.96	24.067
446.16	24.660
446.36	24.443
446.57	24.753
446.77	25.284
446.97	24.703
447.17	25.156
447.37	24.599
447.57	24.993
447.77	24.718
447.98	24.988
448.18	24.528
448.38	24.666
448.58	24.875
448.78	25.640
448.98	25.336
449.18	25.178
449.39	25.196
449.59	24.987
449.79	25.489
449.99	25.152
450.19	25.084
450.39	25.041
450.59	25.334
450.79	25.181
451.00	24.738
451.20	26.106
451.40	25.318
451.60	25.120
451.80	24.529
452.00	24.364
452.20	25.370
452.40	24.914
452.61	24.881
452.81	25.363
453.01	25.304
453.21	25.205
453.41	25.311
453.61	25.193
453.81	25.341
454.01	25.300
454.21	25.693
454.42	25.390
454.62	25.102
454.82	25.397
455.02	24.941
455.22	25.080
455.42	25.261
455.62	25.249
455.82	25.737
456.02	25.324
456.23	25.324
456.43	24.572
456.63	25.203
456.83	24.933
457.03	25.049
457.23	25.533
457.43	25.388
457.63	25.248
457.83	24.803
458.03	25.095
458.23	25.152
458.43	24.666
458.64	25.007
458.84	25.333
459.04	24.956
459.24	24.709
459.44	24.710
459.64	24.648
459.84	24.186
460.04	25.018
460.24	24.813
460.44	25.217
460.64	25.074
460.84	25.299
461.04	24.751
461.24	25.250
461.45	24.919
461.65	25.349
461.85	25.485
462.05	25.279
462.25	25.281
462.45	25.571
462.65	25.295
462.85	25.099
463.05	25.087
463.25	24.392
463.45	25.450
463.65	25.666
463.85	25.240
464.05	24.833
464.25	26.092
464.45	24.559
464.65	24.752
464.85	25.293
465.05	25.098
465.26	25.550
465.46	24.975
465.66	25.358
465.86	25.215
466.06	25.034
466.26	25.041
466.46	25.256
466.66	25.312
466.86	24.904
467.06	24.855
467.26	25.044
467.46	24.863
467.66	25.362
467.86	25.069
468.06	25.547
468.26	25.458
468.46	24.977
468.66	25.261
468.86	25.903
469.06	25.333
469.26	25.439
469.46	25.546
469.66	25.218
469.86	25.562
470.06	25.537
470.26	25.321
470.46	25.441
470.66	25.607
470.86	25.290
471.06	25.508
471.26	25.184
471.46	25.382
471.66	25.266
471.86	25.637
472.06	25.632
472.26	26.213
472.46	25.916
472.66	25.726
472.86	25.697
473.06	25.786
473.26	25.510
473.46	26.347
473.66	26.066
473.86	26.007
474.06	26.116
474.26	26.031
474.46	25.652
474.66	25.705
474.86	25.665
475.06	26.261
475.26	26.565
475.46	26.311
475.66	26.297
475.86	26.303
476.06	26.132
476.26	26.200
476.46	27.118
476.66	26.388
476.86	26.388
477.06	26.323
477.26	26.057
477.46	26.540
477.65	25.942
477.85	26.618
478.05	26.613
478.25	26.625
478.45	26.481
478.65	26.412
478.85	26.485
479.05	25.973
479.25	26.848
479.45	26.449
479.65	26.826
479.85	26.520
480.05	26.918
480.25	27.133
480.45	27.286
480.65	27.107
480.85	26.604
481.05	27.045
481.25	26.869
481.44	27.042
481.64	26.678
481.84	26.713
482.04	26.576
482.24	26.845
482.44	26.245
482.64	26.371
482.84	26.256
483.04	26.192
483.24	26.321
483.44	26.048
483.64	26.382
483.84	25.943
484.04	26.618
484.23	26.597
484.43	27.297
484.63	27.914
484.83	28.236
485.03	29.378
485.23	29.348
485.43	28.684
485.63	28.484
485.83	28.098
486.03	27.809
486.23	28.080
486.42	27.770
486.62	27.484
486.82	27.089
487.02	27.177
487.22	27.265
487.42	26.964
487.62	27.238
487.82	26.723
488.02	27.043
488.22	26.895
488.41	27.237
488.61	27.066
488.81	27.460
489.01	27.438
489.21	27.633
489.41	27.796
489.61	27.665
489.81	27.594
490.01	27.955
490.20	27.929
490.40	27.678
490.60	27.743
490.80	27.462
491.00	26.909
491.20	26.874
491.40	26.710
491.60	26.849
491.79	26.844
491.99	27.160
492.19	27.066
492.39	27.335
492.59	27.472
492.79	27.758
492.99	27.389
493.19	27.672
493.38	27.821
493.58	28.003
493.78	28.044
493.98	27.699
494.18	27.934
494.38	27.583
494.58	28.552
494.77	27.833
494.97	27.598
495.17	27.900
495.37	27.812
495.57	28.525
495.77	27.970
495.96	28.419
496.16	28.226
496.36	27.686
496.56	27.845
496.76	28.300
496.96	27.800
497.15	28.379
497.35	28.335
497.55	27.974
497.75	27.992
497.95	28.199
498.15	28.528
498.34	28.350
498.54	28.449
498.74	28.850
498.94	28.765
499.14	29.025
499.34	29.097
499.53	28.553
499.73	28.611
499.93	28.856
500.13	29.117
500.33	28.978
500.52	28.980
500.72	28.850
500.92	29.372
501.12	29.449
501.32	28.823
501.52	29.572
501.71	29.614
501.91	29.094
502.11	29.583
502.31	29.672
502.51	29.397
502.70	29.678
502.90	30.019
503.10	30.031
503.30	29.977
503.50	29.452
503.69	29.830
503.89	30.135
504.09	30.124
504.29	30.308
504.48	30.271
504.68	29.752
504.88	29.994
505.08	30.136
505.28	29.694
505.47	29.724
505.67	29.673
505.87	30.326
506.07	29.855
506.27	30.126
506.46	29.778
506.66	29.911
506.86	30.040
507.06	30.730
507.25	30.176
507.45	30.371
507.65	29.942
507.85	29.685
508.04	30.811
508.24	30.181
508.44	29.869
508.64	30.232
508.83	30.012
509.03	29.826
509.23	29.349
509.43	29.706
509.63	29.636
509.82	29.568
510.02	29.443
510.22	29.920
510.42	29.764
510.61	30.125
510.81	29.463
511.01	30.275
511.21	29.688
511.40	30.096
511.60	29.827
511.80	29.662
511.99	29.621
512.19	29.655
512.39	29.775
512.59	29.897
512.78	30.027
512.98	29.560
513.18	30.075
513.38	29.870
513.57	29.442
513.77	29.811
513.97	29.961
514.17	29.845
514.36	29.788
514.56	29.581
514.76	29.732
514.95	29.995
515.15	29.400
515.35	29.786
515.55	29.348
515.74	29.982
515.94	30.035
516.14	30.059
516.33	29.504
516.53	29.838
516.73	29.349
516.93	29.578
517.12	29.669
517.32	29.146
517.52	29.264
517.71	29.155
517.91	29.035
518.11	29.072
518.30	28.915
518.50	28.933
518.70	29.419
518.90	28.943
519.09	28.722
519.29	29.440
519.49	29.297
519.68	29.397
519.88	28.886
520.08	29.498
520.27	29.044
520.47	29.506
520.67	29.691
520.86	29.932
521.06	29.504
521.26	29.672
521.45	29.582
521.65	29.315
521.85	29.204
522.04	29.384
522.24	29.574
522.44	29.832
522.63	29.012
522.83	29.310
523.03	29.568
523.22	29.117
523.42	29.929
523.62	28.657
523.81	29.344
524.01	29.485
524.21	29.006
524.40	29.533
524.60	29.141
524.80	29.033
524.99	28.539
525.19	28.501
525.39	28.464
525.58	28.868
525.78	28.746
525.98	28.829
526.17	28.768
526.37	28.685
526.57	28.856
526.76	29.008
526.96	28.976
527.15	29.147
527.35	28.947
527.55	28.847
527.74	28.716
527.94	28.550
528.14	28.298
528.33	28.254
528.53	28.261
528.72	28.673
528.92	28.663
529.12	28.905
529.31	29.199
529.51	29.336
529.71	29.344
529.90	29.460
530.10	29.487
530.29	29.632
530.49	29.786
530.69	29.808
530.88	29.405
531.08	29.196
531.28	29.400
531.47	29.281
531.67	29.256
531.86	29.089
532.06	28.882
532.26	28.867
532.45	29.006
532.65	29.045
532.84	28.568
533.04	28.793
533.24	28.611
533.43	28.206
533.63	28.687
533.82	29.175
534.02	28.760
534.22	29.023
534.41	29.115
534.61	29.250
534.80	29.303
535.00	29.187
535.19	29.352
535.39	29.668
535.59	29.167
535.78	29.129
535.98	29.088
536.17	28.708
536.37	28.458
536.57	28.811
536.76	28.842
536.96	28.729
537.15	29.208
537.35	29.087
537.54	29.134
537.74	28.998
537.93	29.059
538.13	29.299
538.33	28.869
538.52	29.249
538.72	29.535
538.91	29.322
539.11	29.386
539.30	29.696
539.50	29.018
539.70	29.309
539.89	28.999
540.09	29.140
540.28	28.895
540.48	28.553
540.67	28.592
540.87	28.786
541.06	28.245
541.26	28.591
541.45	28.586
541.65	28.744
541.85	28.935
542.04	29.168
542.24	28.940
542.43	29.256
542.63	29.157
542.82	29.459
543.02	29.505
543.21	29.620
543.41	29.302
543.60	29.509
543.80	29.315
543.99	29.592
544.19	29.527
544.38	29.252
544.58	29.204
544.77	29.470
544.97	29.437
545.16	29.621
545.36	29.395
545.56	29.588
545.75	28.953
545.95	29.680
546.14	28.823
546.34	29.596
546.53	29.126
546.73	28.667
546.92	29.412
547.12	29.494
547.31	29.341
547.51	28.983
547.70	28.811
547.90	29.509
548.09	29.383
548.29	29.811
548.48	29.800
548.68	29.883
548.87	29.307
549.07	29.757
549.26	29.743
549.46	29.245
549.65	29.083
549.84	29.658
550.04	30.074
550.23	29.483
550.43	29.292
550.62	29.353
550.82	29.974
551.01	30.312
551.21	29.821
551.40	29.512
551.60	29.913
551.79	29.637
551.99	29.597
552.18	29.112
552.38	29.749
552.57	29.259
552.77	29.466
552.96	29.974
553.16	29.485
553.35	29.194
553.54	29.290
553.74	29.863
553.93	29.742
554.13	30.198
554.32	29.827
554.52	29.901
554.71	29.874
554.91	30.050
555.10	30.123
555.29	29.660
555.49	29.591
555.68	29.399
555.88	29.716
556.07	30.148
556.27	30.148
556.46	29.285
556.66	30.686
556.85	29.685
557.04	30.447
557.24	29.474
557.43	29.838
557.63	29.409
557.82	29.713
558.02	30.030
558.21	29.847
558.40	29.645
558.60	29.886
558.79	29.798
558.99	29.757
559.18	30.186
559.38	30.298
559.57	29.707
559.76	30.311
559.96	31.028
560.15	30.179
560.35	30.502
560.54	29.707
560.73	30.200
560.93	29.596
561.12	30.122
561.32	29.903
561.51	29.430
561.70	29.344
561.90	29.566
562.09	30.136
562.29	29.580
562.48	30.144
562.67	30.496
562.87	30.134
563.06	29.954
563.26	30.015
563.45	30.676
563.64	30.643
563.84	30.871
564.03	29.793
564.23	30.847
564.42	30.000
564.61	30.252
564.81	30.388
565.00	30.572
565.20	30.429
565.39	30.669
565.58	30.534
565.78	29.968
565.97	30.242
566.16	30.705
566.36	30.795
566.55	30.319
566.74	30.595
566.94	30.628
567.13	30.488
567.33	30.334
567.52	30.928
567.71	31.120
567.91	30.805
568.10	31.397
568.29	31.036
568.49	31.014
568.68	31.160
568.87	30.655
569.07	31.034
569.26	31.215
569.45	31.428
569.65	30.958
569.84	30.543
570.04	31.052
570.23	30.804
570.42	31.378
570.62	31.226
570.81	31.256
571.00	30.954
571.20	31.604
571.39	31.239
571.58	31.268
571.78	31.078
571.97	31.025
572.16	31.469
572.36	31.514
572.55	31.172
572.74	31.503
572.94	30.818
573.13	31.447
573.32	31.542
573.51	31.614
573.71	31.361
573.90	31.514
574.09	31.168
574.29	31.462
574.48	30.636
574.67	31.132
574.87	31.822
575.06	31.576
575.25	31.526
575.45	31.305
575.64	31.585
575.83	31.565
576.03	32.053
576.22	31.615
576.41	32.106
576.60	31.742
576.80	31.747
576.99	31.548
577.18	31.847
577.38	31.659
577.57	31.232
577.76	31.862
577.95	31.299
578.15	32.061
578.34	31.765
578.53	31.476
578.73	31.304
578.92	31.853
579.11	31.653
579.30	32.468
579.50	32.247
579.69	32.397
579.88	32.035
580.08	31.745
580.27	31.449
580.46	31.462
580.65	32.066
580.85	32.051
581.04	32.378
581.23	31.507
581.42	31.566
581.62	31.912
581.81	31.965
582.00	31.884
582.19	32.078
582.39	32.181
582.58	32.268
582.77	31.789
582.96	32.087
583.16	32.096
583.35	32.665
583.54	32.050
583.73	32.334
583.93	31.875
584.12	32.565
584.31	31.853
584.50	32.120
584.70	32.491
584.89	31.424
585.08	32.777
585.27	32.131
585.47	31.911
585.66	31.639
585.85	31.824
586.04	32.514
586.24	32.396
586.43	32.744
586.62	32.354
586.81	32.125
587.00	32.191
587.20	31.986
587.39	33.027
587.58	32.512
587.77	32.759
587.97	32.406
588.16	33.362
588.35	31.979
588.54	32.493
588.73	32.062
588.93	31.688
589.12	32.371
589.31	32.721
589.50	32.223
589.69	32.221
589.89	31.765
590.08	32.266
590.27	32.142
590.46	31.841
590.65	32.395
590.85	32.098
591.04	32.492
591.23	32.488
591.42	32.220
591.61	32.575
591.81	32.345
592.00	32.478
592.19	32.532
592.38	32.913
592.57	32.588
592.77	32.820
592.96	32.133
593.15	33.219
593.34	32.853
593.53	33.117
593.72	32.751
593.92	32.226
594.11	32.741
594.30	32.619
594.49	33.118
594.68	31.750
594.87	32.597
595.07	32.231
595.26	33.009
595.45	31.759
595.64	32.404
595.83	32.847
596.02	32.377
596.22	33.330
596.41	32.293
596.60	31.992
596.79	32.834
596.98	32.304
597.17	32.435
597.37	32.905
597.56	33.407
597.75	32.861
597.94	33.168
598.13	33.085
598.32	33.054
598.51	32.475
598.71	33.243
598.90	32.685
599.09	33.581
599.28	33.546
599.47	33.208
599.66	33.151
599.85	33.517
600.05	32.353
600.24	33.282
600.43	33.547
600.62	33.256
600.81	32.828
601.00	33.551
601.19	32.967
601.38	33.800
601.58	33.373
601.77	33.017
601.96	33.829
602.15	33.451
602.34	33.477
602.53	34.201
602.72	33.321
602.91	34.067
603.10	33.194
603.30	32.484
603.49	32.911
603.68	33.079
603.87	32.702
604.06	33.533
604.25	33.205
604.44	33.361
604.63	33.516
604.82	33.520
605.01	33.783
605.21	33.632
605.40	33.346
605.59	33.698
605.78	33.258
605.97	33.342
606.16	33.449
606.35	33.287
606.54	34.080
606.73	33.246
606.92	33.537
607.11	33.492
607.30	34.722
607.50	33.032
607.69	32.986
607.88	33.585
608.07	33.266
608.26	32.388
608.45	33.496
608.64	33.733
608.83	33.260
609.02	33.326
609.21	32.982
609.40	33.069
609.59	33.388
609.78	33.448
609.97	33.458
610.16	32.970
610.35	33.560
610.55	32.928
610.74	33.236
610.93	33.236
611.12	32.838
611.31	33.229
611.50	33.199
611.69	33.509
611.88	33.698
612.07	33.742
612.26	32.951
612.45	33.308
612.64	32.550
612.83	33.383
613.02	33.067
613.21	33.160
613.40	32.636
613.59	33.842
613.78	33.317
613.97	33.766
614.16	34.209
614.35	32.817
614.54	32.953
614.73	32.354
614.92	33.644
615.11	33.333
615.30	33.101
615.49	33.038
615.68	32.916
615.87	33.357
616.07	32.008
616.26	32.782
616.45	33.321
616.64	32.545
616.83	33.105
617.02	33.228
617.21	32.574
617.40	32.621
617.59	32.716
617.78	32.822
617.97	32.319
618.16	32.199
618.35	32.348
618.54	32.351
618.73	31.986
618.92	33.419
619.11	32.078
619.30	32.374
619.49	32.201
619.68	32.443
619.86	33.922
620.05	32.550
620.24	31.970
620.43	32.767
620.62	32.066
620.81	32.961
621.00	32.672
621.19	33.411
621.38	32.527
621.57	32.297
621.76	32.672
621.95	32.543
622.14	32.735
622.33	32.307
622.52	32.878
622.71	33.348
622.90	31.975
623.09	32.543
623.28	32.954
623.47	32.315
623.66	32.177
623.85	32.660
624.04	31.960
624.23	31.871
624.42	32.638
624.61	31.458
624.80	31.634
624.99	32.303
625.18	31.657
625.36	31.982
625.55	32.986
625.74	32.338
625.93	31.675
626.12	32.111
626.31	32.848
626.50	32.510
626.69	31.809
626.88	32.266
627.07	32.104
627.26	31.605
627.45	31.459
627.64	32.578
627.83	31.530
628.02	31.982
628.20	31.672
628.39	32.416
628.58	32.407
628.77	32.176
628.96	31.683
629.15	33.254
629.34	31.938
629.53	32.152
629.72	32.672
629.91	31.851
630.10	31.724
630.29	32.130
630.47	32.498
630.66	31.903
630.85	31.362
631.04	31.741
631.23	32.219
631.42	31.813
631.61	32.274
631.80	32.623
631.99	31.515
632.18	31.714
632.36	31.231
632.55	31.835
632.74	32.308
632.93	32.188
633.12	31.084
633.31	31.730
633.50	31.529
633.69	31.470
633.88	31.836
634.06	31.868
634.25	31.803
634.44	32.270
634.63	32.627
634.82	31.935
635.01	31.751
635.20	31.458
635.39	31.422
635.57	32.791
635.76	31.472
635.95	31.868
636.14	31.704
636.33	32.335
636.52	31.940
636.71	31.931
636.89	31.897
637.08	31.509
637.27	31.424
637.46	31.356
637.65	31.279
637.84	31.369
638.03	31.658
638.21	32.048
638.40	31.649
638.59	31.390
638.78	31.141
638.97	32.291
639.16	31.788
639.34	32.385
639.53	31.182
639.72	31.547
639.91	31.172
640.10	31.033
640.29	31.759
640.47	31.728
640.66	30.799
640.85	32.301
641.04	31.136
641.23	30.795
641.42	31.386
641.60	31.075
641.79	31.634
641.98	31.405
642.17	30.360
642.36	31.404
642.54	30.611
642.73	32.166
642.92	30.449
643.11	32.085
643.30	31.426
643.49	31.711
643.67	31.279
643.86	31.247
644.05	31.084
644.24	31.057
644.43	30.344
644.61	31.167
644.80	31.417
644.99	31.464
645.18	32.400
645.37	32.158
645.55	30.126
645.74	31.511
645.93	30.174
646.12	31.962
646.31	29.714
646.49	31.806
646.68	32.012
646.87	31.127
647.06	30.259
647.24	31.527
647.43	29.885
647.62	32.071
647.81	30.638
648.00	31.531
648.18	30.970
648.37	30.597
648.56	31.469
648.75	31.349
648.93	30.862
649.12	30.697
649.31	31.701
649.50	30.989
649.68	30.371
649.87	31.301
650.06	30.187
650.25	31.835
650.43	30.752
650.62	29.860
650.81	29.885
651.00	31.826
651.18	30.657
651.37	32.232
651.56	30.395
651.75	30.863
651.93	31.201
652.12	31.025
652.31	30.442
652.50	31.336
652.68	30.775
652.87	31.763
653.06	31.189
653.25	31.149
653.43	30.499
653.62	31.407
653.81	30.345
654.00	30.745
654.18	30.130
654.37	31.080
654.56	31.026
654.74	29.620
654.93	30.378
655.12	30.685
655.31	30.610
655.49	31.711
655.68	28.531
655.87	29.610
656.05	29.847
656.24	31.139
656.43	29.573
656.62	31.127
656.80	29.802
656.99	30.043
657.18	28.385
657.36	29.222
657.55	30.359
657.74	30.028
657.93	29.074
658.11	31.638
658.30	30.543
658.49	30.297
658.67	29.910
658.86	29.328
659.05	28.806
659.23	30.240
659.42	30.065
659.61	28.914
659.79	29.582
659.98	28.625
660.17	29.536
660.35	29.726
660.54	29.298
660.73	30.023
660.91	29.937
661.10	29.490
661.29	29.139
661.47	28.968
661.66	29.531
661.85	29.813
662.03	30.221
662.22	29.071
662.41	27.388
662.59	29.425
662.78	27.215
662.97	28.906
663.15	27.751
663.34	28.647
663.53	27.393
663.71	29.324
663.90	27.580
664.09	28.458
664.27	28.014
664.46	28.171
664.65	27.816
664.83	28.524
665.02	26.156
665.21	27.158
665.39	25.799
665.58	27.261
665.77	26.737
665.95	26.467
666.14	25.348
666.32	27.375
666.51	25.118
666.70	26.560
666.88	25.090
667.07	26.269
667.26	25.211
667.44	26.636
667.63	24.322
667.81	26.134
668.00	26.427
668.19	27.905
668.37	25.989
668.56	27.221
668.75	24.773
668.93	26.978
669.12	25.313
669.30	26.424
669.49	25.534
669.68	26.470
669.86	26.905
670.05	26.242
670.23	24.862
670.42	26.523
670.61	26.556
670.79	25.413
670.98	25.209
671.16	26.728
671.35	24.151
671.54	25.037
671.72	25.165
671.91	27.067
672.09	22.810
672.28	26.791
672.46	26.479
672.65	25.906
672.84	25.048
673.02	26.333
673.21	24.683
673.39	26.284
673.58	25.122
673.77	26.163
673.95	24.806
674.14	26.355
674.32	24.045
674.51	27.946
674.69	24.810
674.88	25.812
675.07	23.810
675.25	26.413
675.44	24.547
675.62	25.744
675.81	23.589
675.99	27.884
676.18	26.988
676.36	26.655
676.55	26.055
676.74	26.778
676.92	26.265
677.11	25.446
677.29	24.392
677.48	27.959
677.66	26.208
677.85	26.710
678.03	25.914
678.22	27.760
678.40	24.138
678.59	25.954
678.78	25.508
678.96	27.300
679.15	24.340
679.33	28.340
679.52	26.696
679.70	26.557
679.89	26.634
680.07	27.828
680.26	26.834
680.44	28.628
680.63	26.925
680.81	28.064
681.00	26.255
681.18	28.322
681.37	27.538
681.55	28.957
681.74	27.238
681.92	28.609
682.11	27.330
682.29	27.546
682.48	27.029
682.66	28.715
682.85	27.181
683.03	28.478
683.22	27.727
683.40	29.166
683.59	27.212
683.77	28.018
683.96	27.476
684.14	28.652
684.33	26.310
684.51	27.839
684.70	27.601
684.88	28.463
685.07	28.138
685.25	28.584
685.44	28.340
685.62	28.807
685.81	27.143
685.99	29.753
686.18	27.824
686.36	29.201
686.55	27.266
686.73	28.731
686.92	30.824
687.10	29.272
687.29	28.479
687.47	31.349
687.65	29.459
687.84	29.073
688.02	29.996
688.21	31.140
688.39	28.137
688.58	30.880
688.76	30.453
688.95	31.317
689.13	29.294
689.32	31.891
689.50	29.679
689.68	31.401
689.87	30.148
690.05	31.117
690.24	30.591
690.42	31.280
690.61	31.805
690.79	34.669
690.98	31.165
691.16	32.873
691.34	29.054
691.53	32.899
691.71	29.698
691.90	32.413
692.08	30.651
692.27	34.574
692.45	33.919
692.63	32.672
692.82	33.223
693.00	32.428
693.19	31.307
693.37	35.446
693.56	32.293
693.74	32.553
693.92	31.713
694.11	35.458
694.29	33.412
694.48	34.357
694.66	33.049
694.84	34.352
695.03	33.293
695.21	34.749
695.40	34.655
695.58	36.535
695.76	34.404
695.95	37.231
696.13	34.276
696.32	36.346
696.50	36.526
696.68	36.405
696.87	33.846
697.05	37.493
697.24	36.250
697.42	36.237
697.60	37.702
697.79	38.230
697.97	37.961
698.16	39.369
698.34	37.062
698.52	39.574
698.71	37.443
698.89	38.716
699.07	37.287
699.26	38.294
699.44	38.120
699.63	39.179
699.81	38.777
699.99	37.850
700.18	38.646
700.36	39.164
700.54	38.334
700.73	37.777
700.91	38.646
701.09	39.840
701.28	39.082
701.46	39.122
701.64	39.872
701.83	40.148
702.01	39.445
702.20	40.283
702.38	37.714
702.56	38.517
702.75	38.560
702.93	40.302
703.11	38.397
703.30	40.252
703.48	39.157
703.66	41.008
703.85	36.952
704.03	41.537
704.21	38.647
704.40	41.453
704.58	38.204
704.76	41.238
704.95	38.762
705.13	39.514
705.31	38.498
705.50	40.540
705.68	37.696
705.86	40.579
706.04	38.734
706.23	41.583
706.41	38.209
706.59	39.874
706.78	38.304
706.96	40.093
707.14	38.392
707.33	40.836
707.51	40.875
707.69	42.129
707.88	39.644
708.06	40.229
708.24	40.769
708.42	41.928
708.61	40.406
708.79	40.840
708.97	39.781
709.16	40.730
709.34	40.871
709.52	40.510
709.71	41.256
709.89	42.012
710.07	39.980
710.25	42.098
710.44	39.336
710.62	41.680
710.80	40.874
710.98	41.419
711.17	40.503
711.35	41.629
711.53	40.930
711.72	41.989
711.90	40.378
712.08	42.063
712.26	41.994
712.45	41.425
712.63	41.267
712.81	42.415
712.99	41.616
713.18	42.866
713.36	41.799
713.54	42.052
713.72	39.205
713.91	41.374
714.09	39.032
714.27	43.593
714.45	41.127
714.64	42.945
714.82	42.913
715.00	43.797
715.18	41.499
715.37	41.631
715.55	40.179
715.73	43.208
715.91	40.530
716.10	41.209
716.28	39.084
716.46	42.277
716.64	41.511
716.83	42.331
717.01	39.368
717.19	41.614
717.37	40.557
717.55	41.952
717.74	41.442
717.92	40.795
718.10	38.179
718.28	42.645
718.47	39.719
718.65	42.322
718.83	39.232
719.01	42.323
719.19	39.757
719.38	40.291
719.56	40.501
719.74	40.153
719.92	36.612
720.10	39.339
720.29	40.862
720.47	41.984
720.65	40.076
720.83	44.533
721.01	37.718
721.20	41.337
721.38	39.089
721.56	40.449
721.74	40.342
721.92	39.397
722.11	40.139
722.29	40.637
722.47	38.166
722.65	42.905
722.83	39.631
723.01	41.038
723.20	39.360
723.38	40.550
723.56	38.126
723.74	42.956
723.92	39.838
724.10	41.683
724.29	39.538
724.47	39.523
724.65	40.124
724.83	41.018
725.01	38.054
725.19	42.041
725.38	38.225
725.56	39.824
725.74	40.189
725.92	39.778
726.10	38.947
726.28	42.566
726.46	41.027
726.65	41.683
726.83	38.244
727.01	42.236
727.19	42.536
727.37	37.657
727.55	41.667
727.73	43.535
727.92	40.294
728.10	41.013
728.28	35.824
728.46	43.290
728.64	36.992
728.82	42.086
729.00	41.420
729.19	42.009
729.37	38.885
729.55	41.252
729.73	38.400
729.91	43.539
730.09	40.422
730.27	42.020
730.45	39.401
730.63	42.923
730.82	39.072
731.00	40.993
731.18	38.709
731.36	42.831
731.54	38.391
731.72	41.663
731.90	40.105
732.08	41.311
732.26	39.599
732.45	44.226
732.63	40.735
732.81	41.978
732.99	39.851
733.17	39.848
733.35	41.135
733.53	42.142
733.71	39.937
733.89	40.084
734.07	40.670
734.25	41.935
734.44	39.972
734.62	41.647
734.80	41.593
734.98	42.184
735.16	40.593
735.34	42.589
735.52	41.380
735.70	41.626
735.88	42.051
736.06	40.165
736.24	41.775
736.42	42.144
736.60	40.895
736.78	42.482
736.97	41.085
737.15	44.860
737.33	37.296
737.51	39.388
737.69	38.090
737.87	43.636
738.05	39.920
738.23	43.741
738.41	39.861
738.59	44.068
738.77	41.420
738.95	43.272
739.13	39.132
739.31	43.174
739.49	42.861
739.67	43.530
739.85	39.735
740.03	41.619
740.21	41.578
740.39	43.166
740.57	40.165
740.75	41.031
740.93	40.899
741.11	42.963
741.30	39.665
741.48	43.309
741.66	43.072
741.84	41.462
742.02	41.230
742.20	42.126
742.38	42.715
742.56	43.227
742.74	36.376
742.92	42.229
743.10	40.293
743.28	43.715
743.46	39.234
743.64	38.829
743.82	39.382
744.00	41.269
744.18	39.669
744.36	40.643
744.54	37.633
744.72	42.499
744.90	42.296
745.08	43.946
745.26	41.395
745.44	42.891
745.62	38.440
745.80	41.227
745.98	39.182
746.16	40.278
746.34	40.949
746.52	41.258
746.70	36.566
746.87	38.263
747.05	38.071
747.23	41.383
747.41	38.858
747.59	41.077
747.77	37.619
747.95	41.104
748.13	38.189
748.31	41.935
748.49	38.659
748.67	40.396
748.85	37.803
749.03	40.857
749.21	39.702
749.39	42.609
749.57	38.903
749.75	39.343
749.93	40.547
750.11	40.279
750.29	41.162
750.47	39.277
750.65	35.823
750.83	39.891
751.01	38.552
751.18	42.131
751.36	36.757
751.54	39.704
751.72	41.051
751.90	41.214
752.08	34.916
752.26	40.677
752.44	39.274
752.62	41.059
752.80	37.097
752.98	41.178
753.16	40.614
753.34	42.848
753.52	40.922
753.69	43.379
753.87	40.737
754.05	42.377
754.23	36.747
754.41	41.571
754.59	37.345
754.77	40.585
754.95	39.088
755.13	40.926
755.31	38.214
755.49	40.526
755.66	42.031
755.84	41.292
756.02	37.753
756.20	43.988
756.38	38.677
756.56	42.534
756.74	38.871
756.92	38.065
757.10	35.461
757.28	42.089
757.45	43.526
757.63	42.756
757.81	36.091
757.99	45.104
758.17	40.209
758.35	44.110
758.53	42.183
758.71	40.874
758.88	39.238
759.06	39.974
759.24	37.260
759.42	39.734
759.60	36.780
759.78	37.832
759.96	36.162
760.13	38.276
760.31	34.575
760.49	38.135
760.67	32.898
760.85	36.739
761.03	33.881
761.21	33.430
761.38	33.191
761.56	37.007
761.74	32.576
761.92	36.491
762.10	29.769
762.28	39.304
762.46	30.149
762.63	32.902
762.81	31.927
762.99	36.012
763.17	38.472
763.35	37.102
763.53	35.987
763.70	39.838
763.88	39.536
764.06	41.914
764.24	38.757
764.42	40.328
764.60	40.961
764.77	40.176
764.95	38.587
765.13	38.786
765.31	40.138
765.49	41.359
765.66	37.323
765.84	42.190
766.02	37.941
766.20	38.167
766.38	37.804
766.56	38.812
766.73	36.457
766.91	39.634
767.09	37.493
767.27	40.578
767.45	37.812
767.62	36.865
767.80	37.515
767.98	36.632
768.16	37.670
768.33	40.174
768.51	36.913
768.69	39.577
768.87	34.435
769.05	37.627
769.22	34.235
769.40	41.304
769.58	39.080
769.76	39.170
769.94	38.606
770.11	37.662
770.29	35.510
770.47	40.488
770.65	38.033
770.82	40.876
771.00	37.179
771.18	40.775
771.36	35.836
771.53	39.274
771.71	36.594
771.89	43.527
772.07	39.369
772.25	37.975
772.42	34.695
772.60	38.465
772.78	30.102
772.96	38.934
773.13	38.874
773.31	41.924
773.49	35.750
773.67	37.707
773.84	39.803
774.02	39.751
774.20	34.438
774.37	40.950
774.55	40.284
774.73	38.482
774.91	35.128
775.08	37.814
775.26	40.335
775.44	39.544
775.62	37.465
775.79	36.767
775.97	34.249
776.15	35.534
776.32	30.005
776.50	40.214
776.68	36.143
776.86	41.896
777.03	30.058
777.21	36.939
777.39	30.920
777.56	38.436
777.74	32.324
777.92	39.370
778.10	34.002
778.27	41.135
778.45	34.348
778.63	36.819
778.80	34.993
778.98	36.527
779.16	36.680
779.34	34.165
779.51	34.128
779.69	38.479
779.87	34.598
780.04	36.680
780.22	31.015
780.40	38.319
780.57	35.836
780.75	36.209
780.93	34.975
781.10	37.237
781.28	44.428
781.46	36.603
781.63	38.049
781.81	37.576
781.99	32.800
782.16	38.250
782.34	34.679
782.52	33.137
782.69	37.037
782.87	36.255
783.05	31.022
783.22	37.540
783.40	32.143
783.58	34.828
783.75	33.660
783.93	35.542
784.11	32.141
784.28	40.994
784.46	30.127
784.64	40.107
784.81	33.315
784.99	42.237
785.17	31.561
785.34	31.805
785.52	29.743
785.69	37.301
785.87	30.803
786.05	28.672
786.22	36.026
786.40	40.090
786.58	32.720
786.75	41.980
786.93	33.955
787.11	33.316
787.28	29.791
787.46	40.427
787.63	31.153
787.81	34.493
787.99	37.108
788.16	30.745
788.34	30.079
788.51	36.282
788.69	32.049
788.87	35.752
789.04	31.374
789.22	33.573
789.39	33.841
789.57	30.879
789.75	28.380
789.92	36.455
790.10	29.677
790.27	35.930
790.45	28.104
790.63	36.115
790.80	33.186
790.98	33.073
791.15	33.368
791.33	30.360
791.51	31.223
791.68	38.681
791.86	29.126
792.03	34.628
792.21	31.748
792.39	31.033
792.56	29.051
792.74	35.535
792.91	35.584
793.09	28.822
793.26	28.301
793.44	31.810
793.62	28.801
793.79	31.695
793.97	33.562
794.14	36.654
794.32	31.471
794.49	34.086
794.67	29.154
794.84	39.976
795.02	27.363
795.20	30.174
795.37	26.694
795.55	34.629
795.72	28.947
795.90	37.125
796.07	31.808
796.25	33.185
796.42	33.091
796.60	29.115
796.77	26.645
796.95	35.437
797.13	25.522
797.30	41.857
797.48	31.631
797.65	35.309
797.83	30.157
798.00	31.532
798.18	31.138
798.35	31.789
798.53	31.826
798.70	35.449
798.88	33.077
799.05	31.099
799.23	26.604
799.40	34.507
799.58	32.748
799.75	28.908
799.93	28.267
800.10	38.509
800.28	31.405
800.45	33.014
800.63	31.209
800.80	37.248
800.98	27.403
801.15	34.450
801.33	31.737
801.50	32.058
801.68	26.204
801.85	32.960
802.03	28.944
802.20	31.552
802.38	31.512
802.55	30.128
802.73	34.944
802.90	29.994
803.08	23.299
803.25	30.283
803.43	34.137
803.60	37.299
803.78	30.924
803.95	30.842
804.13	37.642
804.30	35.325
804.48	30.784
804.65	33.791
804.83	30.929
805.00	33.418
805.17	37.672
805.35	33.400
805.52	25.673
805.70	33.187
805.87	33.313
806.05	30.487
806.22	27.924
806.40	31.809
806.57	32.136
806.75	36.261
806.92	32.544
807.09	31.276
807.27	32.704
807.44	34.690
807.62	29.613
807.79	31.160
807.97	25.953
808.14	30.866
808.31	29.131
808.49	33.448
808.66	28.601
808.84	30.973
809.01	31.121
809.19	30.557
809.36	34.578
809.53	33.950
809.71	24.220
809.88	39.036
810.06	39.140
810.23	34.007
810.41	27.287
810.58	32.023
810.75	26.932
810.93	30.769
811.10	22.271
811.28	36.188
811.45	36.577
811.62	31.060
811.80	32.174
811.97	33.413
812.15	36.654
812.32	30.845
812.49	32.551
812.67	35.578
812.84	29.452
813.02	37.746
813.19	31.493
813.36	27.448
813.54	26.948
813.71	31.641
813.89	23.963
814.06	28.768
814.23	29.264
814.41	26.027
814.58	35.406
814.75	27.036
814.93	29.437
815.10	32.546
815.28	26.519
815.45	25.872
815.62	32.418
815.80	30.093
815.97	28.049
816.14	34.976
816.32	35.331
816.49	32.650
816.66	33.703
816.84	26.764
817.01	23.545
817.18	32.327
817.36	30.820
817.53	31.975
817.71	24.483
817.88	24.029
818.05	25.269
818.23	33.359
818.40	24.844
818.57	25.955
818.75	27.252
818.92	24.040
819.09	26.104
819.27	32.170
819.44	32.214
819.61	22.711
819.79	27.640
819.96	33.694
820.13	25.033
820.31	30.616
820.48	30.571
820.65	30.132
820.82	27.071
821.00	33.857
821.17	29.205
821.34	30.979
821.52	32.350
821.69	29.088
821.86	25.818
822.04	33.283
822.21	35.135
822.38	38.489
822.56	35.723
822.73	39.702
822.90	38.849
823.07	40.835
823.25	39.770
823.42	41.046
823.59	40.672
823.77	41.634
823.94	39.528
824.11	41.041
824.29	38.677
824.46	40.040
824.63	39.450
824.80	39.003
824.98	38.341
825.15	41.253
825.32	34.576
825.49	37.637
825.67	33.010
825.84	38.113
826.01	33.705
826.19	38.384
826.36	30.481
826.53	35.271
826.70	33.499
826.88	36.954
827.05	30.854
827.22	32.259
827.39	35.289
827.57	34.735
827.74	31.867
827.91	38.111
828.08	33.293
828.26	36.930
828.43	34.494
828.60	36.574
828.77	33.831
828.95	32.966
829.12	30.619
829.29	27.790
829.46	28.468
829.64	31.051
829.81	26.974
829.98	30.185
830.15	28.981
830.32	29.194
830.50	26.684
830.67	29.289
830.84	29.791
831.01	24.512
831.19	26.617
831.36	28.351
831.53	29.994
831.70	26.892
831.87	25.179
832.05	26.686
832.22	31.346
832.39	27.298
832.56	24.904
832.74	31.796
832.91	25.053
833.08	36.188
833.25	19.902
833.42	21.992
833.60	26.006
833.77	20.347
833.94	26.233
834.11	26.883
834.28	25.021
834.45	30.511
834.63	24.455
834.80	33.272
834.97	25.709
835.14	34.483
835.31	29.550
835.49	31.293
835.66	29.772
835.83	28.555
836.00	28.263
836.17	25.163
836.34	28.201
836.52	28.457
836.69	31.807
836.86	32.152
837.03	29.153
837.20	28.849
837.37	26.303
837.55	16.329
837.72	26.518
837.89	23.412
838.06	35.049
838.23	27.341
838.40	27.023
838.58	22.693
838.75	23.441
838.92	28.223
839.09	35.819
839.26	36.742
839.43	33.581
839.60	30.181
839.78	39.400
839.95	37.983
840.12	30.998
840.29	37.795
840.46	36.599
840.63	34.403
840.80	32.900
840.98	39.212
841.15	26.718
841.32	24.855
841.49	25.113
841.66	30.467
841.83	21.250
842.00	28.743
842.17	41.233
842.34	28.223
842.52	38.792
842.69	27.685
842.86	31.192
843.03	52.658
843.20	32.830
843.37	39.623
843.54	29.443
843.71	34.960
843.88	31.572
844.06	50.556
844.23	37.299
844.40	31.627
844.57	33.540
844.74	44.068
844.91	36.656
845.08	44.749
845.25	37.647
845.42	27.042
845.59	39.189
845.76	32.228
845.94	36.702
846.11	47.987
846.28	38.402
846.45	41.491
846.62	38.780
846.79	44.643
846.96	29.094
847.13	45.161
847.30	50.890
847.47	17.923
847.64	36.739
847.81	27.832
847.98	57.884
848.15	45.895
848.32	64.068
848.50	52.964
848.67	32.176
848.84	46.761
849.01	48.984
849.18	25.971
849.35	59.091
849.52	52.475
849.69	44.780
849.86	68.778
850.03	49.649
850.20	30.769
850.37	55.069
850.54	46.408
850.71	44.346
850.88	33.610
851.05	35.625
851.22	51.068
851.39	52.182
851.56	45.987
851.73	53.647
851.90	39.450
852.07	45.564
852.24	28.180
852.41	40.899
852.58	32.857
852.75	34.186
852.92	49.899
853.09	61.798
853.26	44.842
853.43	50.444
853.60	33.264
853.77	46.387
853.94	34.086
854.11	47.100
854.28	68.780
854.45	41.778
854.62	46.494
854.79	40.487
854.96	57.143
855.13	44.316
855.30	45.500
855.47	43.878
855.64	44.543
855.81	35.167
855.98	45.528
856.15	37.805
856.32	35.491
856.49	31.678
856.66	56.573
856.83	56.897
857.00	29.707
857.17	58.212
857.34	38.377
857.51	47.912
857.68	53.461
857.85	40.678
858.02	60.391
858.19	53.427
858.36	56.790
858.53	55.032
858.70	47.368
858.87	45.000
859.04	40.271
859.21	54.095
859.38	50.000
859.55	52.798
859.72	38.728
859.89	72.886
860.05	32.108
860.22	64.211
860.39	54.875
860.56	61.111
860.73	57.757
860.90	53.196
861.07	65.068
861.24	51.716
861.41	40.476
861.58	78.118
861.75	25.298
861.92	40.263
862.09	64.810
862.26	43.026
862.43	51.240
862.59	57.407
862.76	46.921
862.93	45.135
863.10	42.959
863.27	33.628
863.44	34.559
863.61	52.500
863.78	45.075
863.95	54.394
864.12	55.140
864.29	58.359
864.45	44.584
864.62	42.408
864.79	66.832
864.96	43.672
865.13	53.437
865.30	68.095
865.47	57.382
865.64	63.915
865.81	55.096
865.97	41.966
866.14	42.539
866.31	30.516
866.48	48.701
866.65	31.771
866.82	47.242
866.99	59.894
867.16	44.764
867.33	59.529
867.49	46.699
867.66	50.361
867.83	39.207
868.00	48.694
868.17	39.368
868.34	50.670
868.51	42.754
868.67	59.005
868.84	37.931
869.01	44.240
869.18	46.585
869.35	36.203
869.52	48.250
869.69	46.951
869.85	40.247
870.02	49.272
870.19	45.933
870.36	51.587
870.53	54.779
870.70	56.809
870.86	28.756
871.03	62.413
871.20	39.851
871.37	67.374
871.54	42.120
871.71	61.165
871.87	38.587
872.04	53.465
872.21	45.695
872.38	47.433
872.55	60.000
872.72	36.937
872.88	54.366
873.05	28.219
873.22	63.895
873.39	59.338
873.56	40.319
873.72	61.538
873.89	43.023
874.06	48.969
874.23	36.911
874.40	53.179
874.56	36.175
874.73	34.951
874.90	59.091
875.07	35.590
875.24	28.878
875.40	39.326
875.57	51.364
875.74	45.122
875.91	39.295
876.08	52.643
876.24	40.496
876.41	58.376
876.58	53.699
876.75	56.749
876.92	48.214
877.08	54.297
877.25	47.423
877.42	57.317
877.59	39.144
877.75	58.656
877.92	38.593
878.09	55.220
878.26	50.602
878.42	45.479
878.59	58.628
878.76	46.245
878.93	67.647
879.09	46.288
879.26	34.783
879.43	34.607
879.60	39.887
879.76	33.808
879.93	15.842
880.10	36.047
880.27	32.853
880.43	32.637
880.60	37.461
880.77	28.000
880.94	27.840
881.10	25.504
881.27	34.043
881.44	17.606
881.61	29.721
881.77	24.145
881.94	18.530
882.11	19.912
882.28	16.641
882.44	24.500
882.61	25.577
882.78	24.814
882.94	32.968
883.11	26.850
883.28	26.211
883.45	28.473
883.61	22.226
883.78	27.475
883.95	33.212
884.11	25.809
884.28	23.333
>>>>>End Processed Spectral Data<<<<<
