SpectraSuite Data File
++++++++++++++++++++++++++++++++++++
Date: Mon Sep 23 03:16:16 EST 2019
User: sgrac
Dark Spectrum Present: Yes
Reference Spectrum Present: Yes
Number of Sampled Component Spectra: 1
Spectrometers: USB4E01596
Integration Time (usec): 100000 (USB4E01596)
Spectra Averaged: 3 (USB4E01596)
Boxcar Smoothing: 0 (USB4E01596)
Correct for Electrical Dark: No (USB4E01596)
Strobe/Lamp Enabled: Yes (USB4E01596)
Correct for Detector Non-linearity: No (USB4E01596)
Correct for Stray Light: No (USB4E01596)
Number of Pixels in Processed Spectrum: 3648
>>>>>Begin Processed Spectral Data<<<<<
178.44	1423.077
178.66	1423.077
178.87	1423.077
179.09	7400.000
179.30	-5450.000
179.52	-438.710
179.74	-339.623
179.95	536.364
180.17	-463.889
180.38	364.912
180.60	-1318.182
180.82	575.556
181.03	2950.000
181.25	-1483.333
181.46	-844.000
181.68	833.333
181.89	-415.909
182.11	-1456.250
182.33	-900.000
182.54	437.500
182.76	2416.667
182.97	-374.468
183.19	1100.000
183.40	222.314
183.62	217.949
183.84	209.091
184.05	3014.286
184.27	198.485
184.48	290.909
184.70	1117.647
184.91	1157.143
185.13	1700.000
185.34	-14150.000
185.56	669.231
185.78	250.000
185.99	563.889
186.21	215.909
186.42	-3700.000
186.64	2120.000
186.85	-3940.000
187.07	408.000
187.28	235.526
187.50	300.000
187.72	257.692
187.93	501.818
188.15	265.625
188.36	297.368
188.58	316.327
188.79	248.077
189.01	343.662
189.22	540.541
189.44	-554.545
189.65	226.271
189.87	-4350.000
190.09	226.984
190.30	557.143
190.52	376.667
190.73	600.000
190.95	-3500.000
191.16	180.952
191.38	333.784
191.59	333.824
191.81	332.258
192.02	1293.333
192.24	668.750
192.45	726.471
192.67	-750.000
192.88	235.849
193.10	365.574
193.31	535.000
193.53	233.871
193.74	270.667
193.96	771.429
194.18	580.769
194.39	886.667
194.61	395.890
194.82	1068.182
195.04	195.122
195.25	-219.298
195.47	-187.037
195.68	3216.667
195.90	361.818
196.11	291.045
196.33	17300.000
196.54	375.610
196.76	664.286
196.97	289.610
197.19	516.216
197.40	1864.286
197.62	136.697
197.83	587.097
198.05	449.091
198.26	444.828
198.48	240.845
198.69	223.333
198.91	727.778
199.12	472.093
199.34	497.826
199.55	267.143
199.77	1352.632
199.98	500.000
200.20	306.579
200.41	383.871
200.63	201.770
200.84	1292.857
201.06	1311.111
201.27	585.366
201.49	287.324
201.70	-556.667
201.91	305.556
202.13	315.254
202.34	382.759
202.56	-612.000
202.77	517.778
202.99	3383.333
203.20	-2662.500
203.42	1050.000
203.63	203.947
203.85	3766.667
204.06	314.000
204.28	186.869
204.49	355.556
204.71	276.271
204.92	853.846
205.14	0.000
205.35	466.667
205.56	-805.000
205.78	4880.000
205.99	-1350.000
206.21	5200.000
206.42	415.909
206.64	622.581
206.85	655.556
207.07	-2255.556
207.28	356.897
207.50	526.087
207.71	680.645
207.93	219.277
208.14	-948.148
208.35	394.545
208.57	824.000
208.78	-1622.222
209.00	279.787
209.21	-11350.000
209.43	-4700.000
209.64	-1166.667
209.86	218.557
210.07	254.651
210.28	297.183
210.50	637.931
210.71	284.314
210.93	135.294
211.14	301.124
211.36	1056.250
211.57	295.455
211.78	328.571
212.00	290.588
212.21	248.571
212.43	556.410
212.64	251.064
212.86	314.865
213.07	309.174
213.29	-408.333
213.50	196.739
213.71	260.920
213.93	225.610
214.14	1336.364
214.36	348.529
214.57	278.481
214.78	506.667
215.00	276.042
215.21	650.000
215.43	402.703
215.64	358.730
215.86	208.750
216.07	637.143
216.28	557.895
216.50	230.000
216.71	21700.000
216.93	424.242
217.14	872.222
217.35	206.818
217.57	237.838
217.78	243.210
218.00	193.939
218.21	882.609
218.42	431.915
218.64	280.357
218.85	380.000
219.07	810.000
219.28	253.271
219.49	360.784
219.71	303.077
219.92	157.463
220.14	187.629
220.35	202.667
220.56	242.529
220.78	170.192
220.99	207.258
221.21	213.978
221.42	311.111
221.63	149.133
221.85	193.846
222.06	302.857
222.28	306.154
222.49	196.396
222.70	136.220
222.92	479.592
223.13	375.410
223.34	146.099
223.56	210.714
223.77	275.000
223.99	229.474
224.20	328.571
224.41	150.685
224.63	196.591
224.84	210.811
225.05	64.103
225.27	185.217
225.48	211.765
225.69	184.211
225.91	172.973
226.12	154.264
226.34	114.765
226.55	105.036
226.76	179.375
226.98	116.078
227.19	83.984
227.40	203.125
227.62	108.995
227.83	82.833
228.04	65.363
228.26	47.815
228.47	61.756
228.69	35.533
228.90	23.028
229.11	43.441
229.33	24.451
229.54	31.532
229.75	27.660
229.97	21.669
230.18	28.764
230.39	24.779
230.61	27.386
230.82	25.988
231.03	27.154
231.25	16.947
231.46	25.905
231.67	29.096
231.89	31.616
232.10	37.171
232.31	30.638
232.53	37.691
232.74	35.514
232.95	28.312
233.17	33.600
233.38	35.504
233.59	24.861
233.81	45.652
234.02	48.898
234.23	52.660
234.45	39.931
234.66	37.168
234.87	35.246
235.09	34.887
235.30	36.953
235.51	29.359
235.73	36.735
235.94	39.332
236.15	33.529
236.36	35.140
236.58	29.797
236.79	28.761
237.00	41.789
237.22	29.252
237.43	26.883
237.64	40.945
237.86	23.872
238.07	33.677
238.28	22.258
238.50	26.689
238.71	40.827
238.92	26.250
239.13	27.627
239.35	31.260
239.56	35.159
239.77	40.345
239.99	23.272
240.20	26.731
240.41	23.673
240.63	17.925
240.84	23.756
241.05	12.334
241.26	26.155
241.48	15.346
241.69	15.550
241.90	13.683
242.12	15.853
242.33	13.725
242.54	12.160
242.75	13.415
242.97	12.086
243.18	9.521
243.39	9.458
243.61	12.955
243.82	11.998
244.03	9.376
244.24	8.603
244.46	10.519
244.67	14.252
244.88	10.977
245.09	16.752
245.31	15.817
245.52	10.549
245.73	10.399
245.95	19.948
246.16	12.053
246.37	8.377
246.58	15.594
246.80	9.095
247.01	13.453
247.22	10.909
247.43	10.060
247.65	8.843
247.86	7.675
248.07	6.157
248.28	6.386
248.50	6.037
248.71	5.999
248.92	4.800
249.13	3.951
249.35	7.300
249.56	7.318
249.77	9.035
249.98	7.590
250.20	11.030
250.41	8.913
250.62	11.182
250.83	10.857
251.05	12.335
251.26	11.816
251.47	13.896
251.68	15.302
251.90	10.655
252.11	10.584
252.32	11.742
252.53	10.825
252.75	11.345
252.96	13.282
253.17	8.712
253.38	10.729
253.59	9.599
253.81	8.599
254.02	8.622
254.23	10.418
254.44	10.348
254.66	7.869
254.87	12.265
255.08	15.578
255.29	11.369
255.50	13.463
255.72	10.286
255.93	14.649
256.14	13.636
256.35	15.562
256.57	17.239
256.78	18.975
256.99	17.793
257.20	19.793
257.41	12.648
257.63	16.220
257.84	10.321
258.05	14.304
258.26	10.580
258.47	11.414
258.69	10.318
258.90	9.182
259.11	11.176
259.32	8.354
259.53	6.912
259.75	5.537
259.96	7.300
260.17	5.167
260.38	4.183
260.59	5.626
260.81	5.171
261.02	4.482
261.23	5.101
261.44	5.818
261.65	4.226
261.87	5.082
262.08	5.624
262.29	4.665
262.50	4.001
262.71	6.098
262.92	7.541
263.14	8.380
263.35	8.028
263.56	7.726
263.77	8.550
263.98	8.239
264.20	6.206
264.41	9.025
264.62	7.224
264.83	8.301
265.04	9.558
265.25	12.213
265.47	7.998
265.68	13.107
265.89	10.562
266.10	5.307
266.31	8.696
266.52	6.385
266.74	9.566
266.95	8.039
267.16	6.335
267.37	5.830
267.58	6.333
267.79	8.908
268.01	5.064
268.22	9.045
268.43	8.366
268.64	7.303
268.85	6.890
269.06	6.684
269.27	7.296
269.49	5.784
269.70	6.890
269.91	8.630
270.12	7.528
270.33	7.790
270.54	5.146
270.75	6.966
270.97	7.641
271.18	7.283
271.39	4.995
271.60	6.454
271.81	4.414
272.02	7.568
272.23	6.238
272.45	7.088
272.66	4.657
272.87	5.683
273.08	4.802
273.29	6.453
273.50	4.519
273.71	5.781
273.92	4.675
274.14	5.488
274.35	6.086
274.56	6.353
274.77	4.685
274.98	6.636
275.19	5.690
275.40	8.078
275.61	5.098
275.83	8.064
276.04	6.304
276.25	7.265
276.46	6.522
276.67	5.952
276.88	8.305
277.09	5.432
277.30	6.386
277.51	8.148
277.73	4.888
277.94	6.509
278.15	7.974
278.36	5.836
278.57	5.920
278.78	5.152
278.99	5.857
279.20	8.253
279.41	8.260
279.62	6.762
279.84	7.532
280.05	5.719
280.26	6.295
280.47	7.093
280.68	6.271
280.89	8.023
281.10	6.429
281.31	5.787
281.52	7.562
281.73	5.613
281.94	4.892
282.16	6.245
282.37	6.126
282.58	5.720
282.79	8.040
283.00	7.550
283.21	5.187
283.42	4.865
283.63	6.218
283.84	5.651
284.05	5.521
284.26	5.815
284.47	6.259
284.68	4.218
284.89	5.255
285.11	8.554
285.32	4.129
285.53	5.540
285.74	5.797
285.95	2.781
286.16	6.213
286.37	3.642
286.58	6.066
286.79	4.065
287.00	4.892
287.21	3.710
287.42	4.294
287.63	4.188
287.84	5.039
288.05	4.410
288.26	4.325
288.48	5.425
288.69	2.812
288.90	5.529
289.11	7.104
289.32	5.663
289.53	5.691
289.74	3.824
289.95	5.550
290.16	4.259
290.37	5.101
290.58	3.819
290.79	3.693
291.00	3.340
291.21	2.244
291.42	4.148
291.63	4.139
291.84	5.692
292.05	3.860
292.26	3.954
292.47	4.632
292.68	3.572
292.89	4.024
293.10	5.240
293.31	5.169
293.52	4.182
293.73	4.537
293.94	4.348
294.15	4.374
294.36	5.968
294.57	4.838
294.79	4.620
295.00	4.026
295.21	5.051
295.42	4.754
295.63	5.401
295.84	4.971
296.05	3.220
296.26	2.269
296.47	2.584
296.68	3.769
296.89	5.882
297.10	5.162
297.31	4.343
297.52	1.946
297.73	4.403
297.94	2.800
298.15	3.481
298.36	4.073
298.57	3.051
298.78	4.179
298.99	3.863
299.20	4.098
299.41	3.673
299.62	3.700
299.83	4.495
300.04	3.768
300.25	4.166
300.46	5.589
300.67	4.807
300.88	4.682
301.09	4.420
301.30	4.880
301.50	4.883
301.71	4.705
301.92	4.069
302.13	4.815
302.34	2.707
302.55	3.503
302.76	2.348
302.97	4.279
303.18	6.354
303.39	4.139
303.60	3.790
303.81	4.917
304.02	2.593
304.23	5.396
304.44	3.466
304.65	2.449
304.86	5.228
305.07	3.168
305.28	4.638
305.49	4.882
305.70	4.577
305.91	4.832
306.12	4.566
306.33	4.573
306.54	4.569
306.75	3.564
306.96	7.094
307.17	4.639
307.38	5.426
307.58	6.449
307.79	3.404
308.00	4.439
308.21	4.688
308.42	3.783
308.63	5.357
308.84	4.605
309.05	5.284
309.26	3.741
309.47	4.755
309.68	4.140
309.89	4.931
310.10	4.407
310.31	4.423
310.52	3.530
310.73	4.253
310.94	2.472
311.14	4.565
311.35	3.883
311.56	3.919
311.77	3.266
311.98	3.709
312.19	3.712
312.40	3.733
312.61	2.910
312.82	4.827
313.03	3.022
313.24	3.857
313.45	4.088
313.66	3.037
313.86	4.361
314.07	4.490
314.28	3.680
314.49	3.289
314.70	5.542
314.91	4.037
315.12	2.948
315.33	5.296
315.54	3.811
315.75	5.199
315.96	3.671
316.16	5.398
316.37	3.812
316.58	2.373
316.79	5.480
317.00	4.263
317.21	3.802
317.42	2.604
317.63	3.764
317.84	4.166
318.05	3.769
318.25	6.455
318.46	3.557
318.67	3.764
318.88	4.543
319.09	4.990
319.30	4.011
319.51	3.540
319.72	6.512
319.93	4.651
320.13	4.687
320.34	5.638
320.55	4.751
320.76	4.399
320.97	4.516
321.18	5.177
321.39	2.475
321.60	5.170
321.80	6.857
322.01	2.936
322.22	3.142
322.43	4.909
322.64	4.861
322.85	4.509
323.06	4.476
323.27	4.733
323.47	6.308
323.68	5.990
323.89	4.810
324.10	4.937
324.31	4.994
324.52	4.584
324.73	5.950
324.93	4.910
325.14	4.139
325.35	5.054
325.56	2.341
325.77	4.318
325.98	5.173
326.19	4.847
326.39	3.760
326.60	2.485
326.81	3.150
327.02	3.123
327.23	4.124
327.44	5.210
327.64	4.119
327.85	2.684
328.06	3.562
328.27	5.643
328.48	5.083
328.69	3.431
328.90	3.435
329.10	4.490
329.31	4.002
329.52	4.025
329.73	5.266
329.94	3.837
330.15	5.040
330.35	7.156
330.56	4.075
330.77	3.385
330.98	2.716
331.19	4.884
331.39	4.452
331.60	4.623
331.81	3.317
332.02	4.693
332.23	3.920
332.44	3.650
332.64	4.400
332.85	3.523
333.06	4.918
333.27	4.561
333.48	4.824
333.68	4.158
333.89	3.236
334.10	4.292
334.31	2.999
334.52	4.793
334.72	3.099
334.93	4.435
335.14	3.593
335.35	3.887
335.56	4.995
335.76	4.341
335.97	3.611
336.18	4.435
336.39	3.484
336.60	2.554
336.80	3.038
337.01	2.344
337.22	3.309
337.43	3.959
337.64	4.784
337.84	2.404
338.05	2.255
338.26	4.681
338.47	5.149
338.68	3.048
338.88	4.608
339.09	3.209
339.30	4.090
339.51	3.719
339.71	3.608
339.92	3.240
340.13	3.247
340.34	4.610
340.55	3.896
340.75	5.324
340.96	3.432
341.17	4.642
341.38	2.877
341.58	4.530
341.79	4.260
342.00	3.963
342.21	5.549
342.41	3.148
342.62	3.310
342.83	4.063
343.04	3.684
343.24	3.206
343.45	3.969
343.66	3.169
343.87	3.607
344.07	2.569
344.28	3.319
344.49	4.245
344.70	3.242
344.90	3.005
345.11	2.471
345.32	3.594
345.53	3.969
345.73	3.240
345.94	4.071
346.15	3.779
346.36	2.205
346.56	3.478
346.77	3.424
346.98	2.746
347.19	3.562
347.39	2.710
347.60	3.137
347.81	2.659
348.02	3.712
348.22	3.931
348.43	3.159
348.64	3.892
348.84	3.673
349.05	4.087
349.26	4.695
349.47	3.626
349.67	3.693
349.88	4.479
350.09	5.232
350.30	4.331
350.50	4.186
350.71	3.656
350.92	2.913
351.12	3.435
351.33	3.816
351.54	3.057
351.74	3.720
351.95	2.578
352.16	5.125
352.37	3.310
352.57	3.740
352.78	4.296
352.99	3.486
353.19	3.890
353.40	3.787
353.61	5.281
353.82	4.785
354.02	5.565
354.23	4.119
354.44	5.018
354.64	4.219
354.85	4.095
355.06	3.145
355.26	4.385
355.47	3.885
355.68	4.623
355.88	4.818
356.09	4.228
356.30	4.391
356.51	6.011
356.71	4.420
356.92	3.516
357.13	4.812
357.33	5.507
357.54	4.087
357.75	3.962
357.95	5.329
358.16	3.869
358.37	5.222
358.57	4.197
358.78	6.028
358.99	4.249
359.19	4.604
359.40	5.834
359.61	4.816
359.81	6.603
360.02	7.614
360.23	4.706
360.43	5.004
360.64	4.033
360.85	5.899
361.05	4.730
361.26	5.325
361.47	5.296
361.67	6.446
361.88	4.576
362.09	6.339
362.29	4.487
362.50	4.547
362.70	4.034
362.91	6.704
363.12	5.069
363.32	5.926
363.53	6.042
363.74	6.556
363.94	3.941
364.15	7.795
364.36	7.047
364.56	5.947
364.77	6.137
364.98	7.355
365.18	6.561
365.39	7.565
365.59	5.605
365.80	6.266
366.01	7.006
366.21	6.355
366.42	4.669
366.63	8.312
366.83	6.299
367.04	4.484
367.24	8.166
367.45	5.535
367.66	5.423
367.86	7.086
368.07	5.409
368.28	6.146
368.48	6.801
368.69	4.327
368.89	6.371
369.10	6.958
369.31	6.351
369.51	6.151
369.72	8.396
369.92	9.067
370.13	6.820
370.34	7.362
370.54	3.576
370.75	7.421
370.95	5.623
371.16	6.428
371.37	6.702
371.57	7.238
371.78	6.022
371.98	7.487
372.19	7.052
372.40	7.938
372.60	7.148
372.81	7.810
373.01	5.705
373.22	5.806
373.43	7.497
373.63	6.876
373.84	7.566
374.04	6.996
374.25	6.355
374.46	8.598
374.66	6.667
374.87	8.166
375.07	5.334
375.28	6.115
375.48	6.785
375.69	7.507
375.90	4.834
376.10	5.680
376.31	6.563
376.51	6.211
376.72	6.196
376.92	5.529
377.13	7.400
377.34	7.719
377.54	6.567
377.75	8.586
377.95	6.134
378.16	8.417
378.36	7.709
378.57	8.702
378.77	8.214
378.98	7.816
379.19	6.622
379.39	6.399
379.60	7.368
379.80	6.895
380.01	8.357
380.21	6.661
380.42	8.135
380.62	8.606
380.83	8.177
381.04	7.389
381.24	7.536
381.45	8.268
381.65	6.049
381.86	7.582
382.06	7.819
382.27	6.407
382.47	6.852
382.68	9.443
382.88	6.094
383.09	7.900
383.29	8.257
383.50	9.273
383.71	7.272
383.91	8.398
384.12	7.985
384.32	9.618
384.53	7.717
384.73	6.989
384.94	7.810
385.14	7.992
385.35	7.855
385.55	8.755
385.76	7.866
385.96	8.074
386.17	8.414
386.37	8.788
386.58	8.481
386.78	9.576
386.99	7.124
387.19	9.782
387.40	7.996
387.60	11.337
387.81	9.186
388.01	9.409
388.22	9.661
388.42	10.465
388.63	10.921
388.83	10.375
389.04	8.613
389.24	9.383
389.45	9.372
389.65	9.611
389.86	9.313
390.06	9.508
390.27	9.352
390.47	9.064
390.68	9.096
390.88	11.363
391.09	10.939
391.29	10.960
391.50	9.713
391.70	11.362
391.91	10.646
392.11	10.469
392.32	10.558
392.52	11.863
392.73	10.422
392.93	11.808
393.14	10.797
393.34	10.585
393.55	10.912
393.75	10.648
393.95	10.574
394.16	12.008
394.36	11.430
394.57	12.401
394.77	11.000
394.98	12.529
395.18	12.265
395.39	11.407
395.59	10.586
395.80	12.071
396.00	12.001
396.21	13.393
396.41	10.512
396.61	12.835
396.82	11.722
397.02	12.839
397.23	11.112
397.43	11.632
397.64	9.632
397.84	12.591
398.05	9.855
398.25	12.345
398.45	11.381
398.66	12.565
398.86	11.345
399.07	12.953
399.27	11.682
399.48	12.219
399.68	11.370
399.89	11.898
400.09	11.606
400.29	11.280
400.50	11.856
400.70	12.355
400.91	11.106
401.11	11.337
401.32	11.527
401.52	10.841
401.72	10.514
401.93	13.037
402.13	10.993
402.34	11.758
402.54	11.102
402.75	13.485
402.95	9.185
403.15	13.511
403.36	10.163
403.56	12.816
403.77	10.747
403.97	11.112
404.17	11.119
404.38	13.054
404.58	10.638
404.79	12.655
404.99	11.996
405.19	12.013
405.40	11.204
405.60	11.811
405.81	10.924
406.01	11.507
406.21	10.753
406.42	12.332
406.62	11.353
406.83	11.978
407.03	12.727
407.23	10.746
407.44	10.749
407.64	11.764
407.85	10.629
408.05	10.854
408.25	11.449
408.46	11.830
408.66	11.064
408.87	10.739
409.07	10.861
409.27	10.699
409.48	9.938
409.68	11.606
409.88	9.011
410.09	10.908
410.29	10.894
410.50	11.975
410.70	9.352
410.90	10.615
411.11	9.910
411.31	10.649
411.51	11.391
411.72	11.717
411.92	10.037
412.12	10.705
412.33	10.048
412.53	10.747
412.74	8.143
412.94	10.404
413.14	10.226
413.35	10.962
413.55	10.595
413.75	10.880
413.96	9.828
414.16	10.351
414.36	10.077
414.57	10.722
414.77	9.379
414.97	10.505
415.18	9.093
415.38	10.574
415.58	9.621
415.79	9.077
415.99	8.938
416.19	10.580
416.40	10.342
416.60	10.157
416.80	9.616
417.01	10.335
417.21	8.140
417.41	10.837
417.62	9.451
417.82	10.816
418.02	9.476
418.23	10.280
418.43	9.914
418.63	10.431
418.84	10.269
419.04	10.304
419.24	10.295
419.45	11.027
419.65	10.658
419.85	10.674
420.06	10.869
420.26	10.782
420.46	10.553
420.67	10.542
420.87	10.573
421.07	10.765
421.28	10.562
421.48	10.848
421.68	10.762
421.88	11.408
422.09	10.671
422.29	11.007
422.49	10.353
422.70	10.532
422.90	10.734
423.10	10.934
423.31	10.793
423.51	11.090
423.71	10.324
423.91	11.286
424.12	11.064
424.32	11.266
424.52	10.785
424.73	10.975
424.93	10.836
425.13	10.828
425.33	10.368
425.54	11.139
425.74	10.716
425.94	11.335
426.15	11.263
426.35	10.911
426.55	11.128
426.75	11.669
426.96	10.945
427.16	10.893
427.36	10.703
427.57	11.227
427.77	10.538
427.97	11.490
428.17	11.120
428.38	11.254
428.58	10.152
428.78	11.895
428.98	10.421
429.19	11.102
429.39	10.115
429.59	11.216
429.79	9.679
430.00	10.781
430.20	10.498
430.40	11.275
430.60	11.124
430.81	10.860
431.01	10.648
431.21	11.467
431.41	10.082
431.62	11.771
431.82	11.157
432.02	12.087
432.22	10.692
432.43	11.546
432.63	11.465
432.83	11.818
433.03	11.594
433.24	11.504
433.44	11.906
433.64	12.322
433.84	11.931
434.05	12.863
434.25	12.723
434.45	13.274
434.65	12.663
434.85	13.055
435.06	12.703
435.26	12.750
435.46	12.906
435.66	13.187
435.87	13.143
436.07	12.844
436.27	13.210
436.47	13.077
436.67	12.704
436.88	13.545
437.08	13.222
437.28	13.518
437.48	13.623
437.69	14.006
437.89	13.448
438.09	13.908
438.29	13.731
438.49	14.070
438.70	13.638
438.90	14.152
439.10	13.850
439.30	14.451
439.50	13.449
439.71	14.195
439.91	14.213
440.11	14.627
440.31	14.115
440.51	14.167
440.72	14.474
440.92	14.426
441.12	14.777
441.32	14.761
441.52	14.677
441.72	14.830
441.93	14.918
442.13	15.140
442.33	15.060
442.53	15.398
442.73	15.097
442.94	15.130
443.14	15.427
443.34	15.325
443.54	14.717
443.74	15.798
443.94	14.925
444.15	15.234
444.35	15.385
444.55	15.154
444.75	15.078
444.95	15.349
445.15	15.612
445.36	15.448
445.56	15.486
445.76	15.137
445.96	15.130
446.16	15.550
446.36	14.834
446.57	15.427
446.77	15.433
446.97	15.517
447.17	15.650
447.37	15.701
447.57	15.728
447.77	15.897
447.98	15.961
448.18	15.681
448.38	15.889
448.58	16.154
448.78	16.486
448.98	16.396
449.18	16.178
449.39	16.527
449.59	16.097
449.79	16.267
449.99	16.077
450.19	16.674
450.39	15.943
450.59	16.278
450.79	16.219
451.00	15.793
451.20	17.148
451.40	16.717
451.60	16.078
451.80	16.759
452.00	16.171
452.20	16.396
452.40	16.290
452.61	15.822
452.81	16.427
453.01	16.315
453.21	16.746
453.41	16.386
453.61	16.702
453.81	16.585
454.01	16.643
454.21	16.300
454.42	16.893
454.62	16.710
454.82	16.590
455.02	16.660
455.22	16.533
455.42	16.806
455.62	16.201
455.82	16.648
456.02	16.628
456.23	16.881
456.43	16.203
456.63	16.635
456.83	16.403
457.03	16.876
457.23	16.293
457.43	17.175
457.63	16.450
457.83	16.251
458.03	16.849
458.23	16.261
458.43	16.492
458.64	16.945
458.84	16.583
459.04	16.606
459.24	16.660
459.44	16.931
459.64	16.672
459.84	16.222
460.04	16.677
460.24	16.720
460.44	16.653
460.64	16.722
460.84	16.953
461.04	17.038
461.24	16.991
461.45	17.030
461.65	17.084
461.85	17.087
462.05	16.854
462.25	16.968
462.45	16.880
462.65	17.577
462.85	16.876
463.05	16.930
463.25	16.968
463.45	17.234
463.65	17.037
463.85	17.398
464.05	17.097
464.25	17.231
464.45	16.838
464.65	16.845
464.85	16.932
465.05	17.219
465.26	17.184
465.46	17.204
465.66	17.026
465.86	17.064
466.06	17.312
466.26	17.484
466.46	16.693
466.66	17.610
466.86	17.010
467.06	17.040
467.26	17.082
467.46	17.279
467.66	17.108
467.86	17.394
468.06	17.624
468.26	17.639
468.46	17.123
468.66	17.595
468.86	17.371
469.06	17.496
469.26	17.250
469.46	17.698
469.66	17.033
469.86	17.402
470.06	17.517
470.26	17.884
470.46	17.244
470.66	17.558
470.86	17.982
471.06	17.673
471.26	17.242
471.46	17.861
471.66	17.583
471.86	17.779
472.06	17.238
472.26	17.830
472.46	17.775
472.66	18.102
472.86	17.515
473.06	18.006
473.26	17.889
473.46	18.151
473.66	17.869
473.86	18.475
474.06	18.212
474.26	17.836
474.46	17.691
474.66	18.189
474.86	17.881
475.06	18.262
475.26	18.107
475.46	18.510
475.66	18.031
475.86	18.499
476.06	18.006
476.26	18.299
476.46	18.203
476.66	18.114
476.86	18.290
477.06	18.862
477.26	18.389
477.46	18.276
477.65	18.358
477.85	18.483
478.05	18.248
478.25	18.861
478.45	18.726
478.65	18.748
478.85	18.697
479.05	18.555
479.25	18.702
479.45	18.790
479.65	18.549
479.85	18.495
480.05	18.977
480.25	19.019
480.45	19.033
480.65	19.095
480.85	18.652
481.05	18.746
481.25	18.693
481.44	18.896
481.64	18.845
481.84	18.901
482.04	18.921
482.24	18.944
482.44	18.586
482.64	18.653
482.84	18.992
483.04	18.701
483.24	18.307
483.44	18.336
483.64	18.116
483.84	18.386
484.04	18.494
484.23	18.923
484.43	19.207
484.63	19.354
484.83	19.768
485.03	20.376
485.23	20.424
485.43	20.303
485.63	20.027
485.83	19.815
486.03	19.702
486.23	19.739
486.42	19.853
486.62	19.557
486.82	19.285
487.02	19.243
487.22	19.122
487.42	19.192
487.62	19.017
487.82	18.925
488.02	18.986
488.22	19.159
488.41	19.276
488.61	19.321
488.81	19.453
489.01	19.675
489.21	19.680
489.41	19.716
489.61	19.721
489.81	19.852
490.01	19.659
490.20	19.779
490.40	19.950
490.60	19.895
490.80	19.554
491.00	19.459
491.20	19.223
491.40	18.843
491.60	19.184
491.79	19.191
491.99	19.233
492.19	19.175
492.39	19.442
492.59	19.361
492.79	19.357
492.99	19.639
493.19	19.760
493.38	19.854
493.58	20.122
493.78	20.195
493.98	19.646
494.18	20.027
494.38	20.195
494.58	20.381
494.77	19.769
494.97	19.848
495.17	19.919
495.37	20.175
495.57	20.138
495.77	20.028
495.96	19.822
496.16	19.857
496.36	19.904
496.56	19.312
496.76	19.497
496.96	19.610
497.15	19.842
497.35	19.375
497.55	19.674
497.75	19.685
497.95	19.536
498.15	19.818
498.34	19.876
498.54	19.503
498.74	20.252
498.94	19.848
499.14	20.034
499.34	20.056
499.53	20.168
499.73	20.099
499.93	19.757
500.13	19.907
500.33	19.602
500.52	19.889
500.72	19.981
500.92	19.952
501.12	20.115
501.32	19.693
501.52	20.163
501.71	19.773
501.91	19.994
502.11	20.329
502.31	19.885
502.51	19.858
502.70	20.180
502.90	20.219
503.10	19.604
503.30	20.089
503.50	20.317
503.69	19.888
503.89	20.325
504.09	20.255
504.29	20.081
504.48	20.217
504.68	20.141
504.88	20.008
505.08	20.201
505.28	20.005
505.47	20.396
505.67	19.892
505.87	20.103
506.07	20.182
506.27	20.150
506.46	20.003
506.66	19.962
506.86	20.457
507.06	20.388
507.25	20.456
507.45	20.278
507.65	20.122
507.85	20.121
508.04	20.781
508.24	19.977
508.44	20.311
508.64	20.038
508.83	19.986
509.03	20.119
509.23	20.001
509.43	19.723
509.63	19.955
509.82	20.224
510.02	20.267
510.22	20.052
510.42	19.970
510.61	20.018
510.81	20.147
511.01	20.298
511.21	19.982
511.40	20.065
511.60	20.127
511.80	20.457
511.99	20.081
512.19	19.995
512.39	19.816
512.59	20.094
512.78	20.331
512.98	20.412
513.18	20.362
513.38	20.019
513.57	19.898
513.77	20.391
513.97	19.987
514.17	20.558
514.36	20.301
514.56	20.375
514.76	20.060
514.95	19.961
515.15	20.301
515.35	19.878
515.55	19.967
515.74	20.103
515.94	20.012
516.14	20.027
516.33	20.246
516.53	19.763
516.73	19.874
516.93	19.933
517.12	20.410
517.32	19.893
517.52	20.004
517.71	19.897
517.91	19.601
518.11	19.419
518.30	19.591
518.50	19.650
518.70	20.133
518.90	19.538
519.09	19.435
519.29	19.576
519.49	19.691
519.68	19.595
519.88	19.722
520.08	19.623
520.27	19.737
520.47	20.225
520.67	19.840
520.86	20.012
521.06	20.016
521.26	19.848
521.45	19.839
521.65	20.018
521.85	19.601
522.04	20.018
522.24	19.669
522.44	19.440
522.63	19.791
522.83	19.238
523.03	19.917
523.22	20.115
523.42	20.033
523.62	19.611
523.81	19.823
524.01	20.191
524.21	19.737
524.40	19.639
524.60	19.842
524.80	19.823
524.99	19.562
525.19	19.336
525.39	19.586
525.58	19.491
525.78	19.332
525.98	19.020
526.17	19.340
526.37	19.364
526.57	19.161
526.76	19.556
526.96	19.643
527.15	19.142
527.35	19.524
527.55	19.475
527.74	19.434
527.94	19.497
528.14	18.841
528.33	18.946
528.53	18.872
528.72	19.138
528.92	19.217
529.12	19.225
529.31	19.268
529.51	19.486
529.71	19.633
529.90	19.563
530.10	19.732
530.29	19.763
530.49	19.964
530.69	20.073
530.88	19.787
531.08	19.754
531.28	19.968
531.47	19.726
531.67	19.680
531.86	19.591
532.06	19.730
532.26	19.628
532.45	19.259
532.65	19.384
532.84	19.383
533.04	18.958
533.24	19.145
533.43	19.010
533.63	19.139
533.82	19.333
534.02	19.130
534.22	19.537
534.41	19.284
534.61	19.360
534.80	19.634
535.00	19.559
535.19	19.693
535.39	19.870
535.59	19.710
535.78	19.528
535.98	19.372
536.17	19.291
536.37	19.357
536.57	19.080
536.76	19.343
536.96	19.041
537.15	19.230
537.35	19.118
537.54	19.083
537.74	19.399
537.93	19.441
538.13	19.800
538.33	19.402
538.52	19.596
538.72	19.643
538.91	19.703
539.11	19.685
539.30	19.757
539.50	19.721
539.70	19.898
539.89	19.700
540.09	19.229
540.28	19.293
540.48	19.116
540.67	19.106
540.87	19.145
541.06	18.922
541.26	18.954
541.45	19.195
541.65	18.868
541.85	19.011
542.04	19.037
542.24	19.115
542.43	19.160
542.63	19.521
542.82	19.198
543.02	19.642
543.21	19.757
543.41	19.719
543.60	19.913
543.80	19.710
543.99	19.735
544.19	19.345
544.38	19.592
544.58	19.499
544.77	19.333
544.97	19.556
545.16	19.718
545.36	19.640
545.56	19.372
545.75	19.129
545.95	19.594
546.14	19.466
546.34	19.769
546.53	19.287
546.73	19.327
546.92	19.680
547.12	19.637
547.31	19.202
547.51	19.379
547.70	19.391
547.90	19.542
548.09	19.452
548.29	19.664
548.48	19.705
548.68	19.651
548.87	19.502
549.07	19.548
549.26	19.847
549.46	20.039
549.65	19.806
549.84	19.601
550.04	20.490
550.23	19.302
550.43	19.544
550.62	19.562
550.82	19.848
551.01	20.151
551.21	19.882
551.40	19.781
551.60	20.087
551.79	19.905
551.99	19.605
552.18	19.311
552.38	19.501
552.57	19.820
552.77	19.741
552.96	19.979
553.16	19.621
553.35	19.834
553.54	19.427
553.74	19.583
553.93	19.471
554.13	20.272
554.32	20.032
554.52	20.162
554.71	19.962
554.91	20.094
555.10	20.204
555.29	19.307
555.49	20.031
555.68	20.023
555.88	19.320
556.07	19.982
556.27	20.071
556.46	19.841
556.66	20.146
556.85	19.785
557.04	19.963
557.24	19.625
557.43	19.945
557.63	20.133
557.82	20.028
558.02	19.711
558.21	20.061
558.40	20.015
558.60	20.343
558.79	19.763
558.99	20.082
559.18	20.091
559.38	20.149
559.57	20.188
559.76	19.949
559.96	20.560
560.15	20.037
560.35	19.614
560.54	19.649
560.73	19.928
560.93	19.661
561.12	19.723
561.32	19.643
561.51	19.790
561.70	20.299
561.90	19.657
562.09	19.948
562.29	19.713
562.48	20.207
562.67	20.174
562.87	20.307
563.06	19.926
563.26	20.016
563.45	20.575
563.64	20.219
563.84	19.875
564.03	19.817
564.23	20.279
564.42	20.377
564.61	19.658
564.81	20.743
565.00	20.541
565.20	19.800
565.39	20.137
565.58	20.386
565.78	19.837
565.97	20.220
566.16	20.541
566.36	20.417
566.55	20.376
566.74	20.369
566.94	20.821
567.13	20.443
567.33	20.276
567.52	20.677
567.71	20.747
567.91	20.683
568.10	20.692
568.29	20.860
568.49	20.904
568.68	20.712
568.87	20.671
569.07	20.551
569.26	20.492
569.45	20.922
569.65	20.571
569.84	20.995
570.04	21.087
570.23	20.953
570.42	20.176
570.62	21.059
570.81	20.803
571.00	20.543
571.20	21.197
571.39	21.173
571.58	20.967
571.78	21.033
571.97	20.955
572.16	20.811
572.36	21.143
572.55	20.855
572.74	21.495
572.94	21.211
573.13	21.642
573.32	21.465
573.51	21.174
573.71	21.009
573.90	21.095
574.09	21.175
574.29	21.065
574.48	21.320
574.67	20.818
574.87	21.236
575.06	21.497
575.25	21.056
575.45	21.069
575.64	21.033
575.83	21.696
576.03	21.953
576.22	21.484
576.41	21.438
576.60	21.122
576.80	21.369
576.99	21.335
577.18	21.549
577.38	21.411
577.57	21.471
577.76	21.983
577.95	21.560
578.15	21.575
578.34	22.456
578.53	21.758
578.73	21.866
578.92	21.454
579.11	21.730
579.30	22.006
579.50	21.536
579.69	21.419
579.88	22.434
580.08	21.588
580.27	21.466
580.46	21.672
580.65	21.789
580.85	22.102
581.04	21.744
581.23	21.050
581.42	22.113
581.62	21.657
581.81	22.122
582.00	22.027
582.19	22.144
582.39	21.957
582.58	22.532
582.77	22.419
582.96	21.999
583.16	20.703
583.35	21.855
583.54	22.345
583.73	22.741
583.93	22.113
584.12	21.986
584.31	21.523
584.50	22.161
584.70	22.482
584.89	21.565
585.08	22.630
585.27	22.659
585.47	22.354
585.66	22.639
585.85	22.069
586.04	21.921
586.24	22.138
586.43	22.303
586.62	23.147
586.81	22.692
587.00	22.314
587.20	22.361
587.39	22.076
587.58	22.353
587.77	22.290
587.97	23.027
588.16	23.165
588.35	22.631
588.54	21.643
588.73	22.222
588.93	22.352
589.12	22.657
589.31	22.331
589.50	22.066
589.69	22.319
589.89	21.968
590.08	22.994
590.27	22.326
590.46	21.982
590.65	22.654
590.85	22.443
591.04	22.036
591.23	22.740
591.42	22.440
591.61	22.309
591.81	23.167
592.00	22.185
592.19	23.167
592.38	22.390
592.57	23.051
592.77	22.873
592.96	22.996
593.15	23.069
593.34	23.177
593.53	22.545
593.72	22.747
593.92	21.955
594.11	22.621
594.30	22.607
594.49	23.245
594.68	22.474
594.87	22.725
595.07	23.062
595.26	22.913
595.45	21.862
595.64	22.944
595.83	22.944
596.02	22.581
596.22	23.054
596.41	22.606
596.60	22.577
596.79	23.197
596.98	22.808
597.17	22.649
597.37	23.059
597.56	23.191
597.75	22.882
597.94	23.578
598.13	22.888
598.32	23.170
598.51	22.925
598.71	23.836
598.90	23.291
599.09	23.377
599.28	23.548
599.47	23.831
599.66	23.248
599.85	23.568
600.05	23.049
600.24	23.773
600.43	22.644
600.62	23.175
600.81	22.727
601.00	23.539
601.19	23.375
601.38	24.599
601.58	24.342
601.77	23.391
601.96	23.368
602.15	23.770
602.34	23.323
602.53	23.616
602.72	23.023
602.91	23.479
603.10	23.139
603.30	23.219
603.49	23.117
603.68	23.465
603.87	23.610
604.06	23.527
604.25	23.469
604.44	23.458
604.63	23.572
604.82	23.503
605.01	23.857
605.21	23.148
605.40	23.677
605.59	23.652
605.78	23.865
605.97	23.467
606.16	23.843
606.35	23.254
606.54	23.913
606.73	24.057
606.92	23.593
607.11	23.984
607.30	23.952
607.50	23.367
607.69	23.793
607.88	24.108
608.07	23.928
608.26	23.168
608.45	23.570
608.64	24.062
608.83	23.207
609.02	23.812
609.21	23.244
609.40	23.303
609.59	23.875
609.78	23.580
609.97	23.979
610.16	23.561
610.35	23.620
610.55	22.984
610.74	23.783
610.93	23.875
611.12	23.619
611.31	23.241
611.50	23.990
611.69	23.943
611.88	23.974
612.07	23.800
612.26	23.554
612.45	22.817
612.64	23.849
612.83	23.571
613.02	23.941
613.21	24.368
613.40	23.103
613.59	24.447
613.78	23.577
613.97	23.724
614.16	23.445
614.35	23.718
614.54	23.735
614.73	23.390
614.92	24.578
615.11	23.511
615.30	23.305
615.49	22.952
615.68	23.326
615.87	24.329
616.07	23.271
616.26	23.998
616.45	23.113
616.64	24.033
616.83	23.743
617.02	23.747
617.21	22.847
617.40	22.878
617.59	23.359
617.78	24.360
617.97	23.324
618.16	23.309
618.35	22.620
618.54	23.796
618.73	23.261
618.92	23.518
619.11	22.910
619.30	23.196
619.49	23.060
619.68	23.153
619.86	22.999
620.05	23.584
620.24	22.201
620.43	22.466
620.62	22.159
620.81	23.582
621.00	23.705
621.19	23.353
621.38	23.454
621.57	23.061
621.76	23.313
621.95	22.899
622.14	22.557
622.33	23.212
622.52	22.676
622.71	23.992
622.90	22.300
623.09	23.078
623.28	22.711
623.47	23.266
623.66	22.692
623.85	22.893
624.04	22.104
624.23	22.254
624.42	23.592
624.61	22.565
624.80	22.970
624.99	23.521
625.18	21.983
625.36	22.955
625.55	22.510
625.74	22.928
625.93	22.500
626.12	23.388
626.31	22.610
626.50	23.003
626.69	22.605
626.88	23.326
627.07	22.682
627.26	22.687
627.45	22.288
627.64	23.429
627.83	22.485
628.02	23.016
628.20	22.855
628.39	22.987
628.58	22.978
628.77	23.442
628.96	22.904
629.15	23.299
629.34	22.892
629.53	23.301
629.72	22.574
629.91	23.688
630.10	22.508
630.29	22.380
630.47	23.700
630.66	23.700
630.85	22.757
631.04	23.098
631.23	22.447
631.42	22.743
631.61	23.177
631.80	22.757
631.99	22.968
632.18	22.733
632.36	22.259
632.55	22.963
632.74	22.831
632.93	22.763
633.12	22.708
633.31	23.155
633.50	22.359
633.69	22.236
633.88	22.513
634.06	22.520
634.25	22.759
634.44	22.838
634.63	22.766
634.82	22.354
635.01	22.436
635.20	22.373
635.39	21.941
635.57	23.054
635.76	22.896
635.95	22.508
636.14	22.370
636.33	22.676
636.52	22.550
636.71	22.863
636.89	22.487
637.08	22.391
637.27	21.815
637.46	22.197
637.65	22.049
637.84	21.790
638.03	21.826
638.21	23.529
638.40	22.365
638.59	22.387
638.78	22.253
638.97	22.289
639.16	22.044
639.34	23.003
639.53	21.484
639.72	21.866
639.91	21.509
640.10	22.560
640.29	22.554
640.47	22.286
640.66	22.236
640.85	22.868
641.04	21.414
641.23	21.904
641.42	22.136
641.60	22.278
641.79	22.002
641.98	22.182
642.17	21.288
642.36	22.219
642.54	21.583
642.73	22.572
642.92	20.748
643.11	22.968
643.30	22.047
643.49	21.171
643.67	18.959
643.86	21.778
644.05	22.247
644.24	21.519
644.43	21.405
644.61	21.618
644.80	22.614
644.99	21.693
645.18	22.203
645.37	21.928
645.55	21.054
645.74	21.712
645.93	20.707
646.12	22.188
646.31	21.820
646.49	22.372
646.68	21.568
646.87	22.228
647.06	21.716
647.24	21.782
647.43	20.036
647.62	22.665
647.81	20.764
648.00	22.045
648.18	20.519
648.37	22.426
648.56	21.600
648.75	22.279
648.93	21.511
649.12	21.255
649.31	21.519
649.50	21.974
649.68	20.693
649.87	21.502
650.06	20.510
650.25	22.144
650.43	20.586
650.62	20.801
650.81	20.129
651.00	21.986
651.18	20.230
651.37	22.533
651.56	20.383
651.75	21.222
651.93	20.239
652.12	21.260
652.31	20.970
652.50	21.000
652.68	21.595
652.87	21.928
653.06	22.540
653.25	22.249
653.43	20.978
653.62	22.007
653.81	21.257
654.00	21.516
654.18	20.623
654.37	22.708
654.56	20.159
654.74	20.361
654.93	20.702
655.12	20.669
655.31	20.707
655.49	21.039
655.68	20.024
655.87	20.240
656.05	19.035
656.24	20.796
656.43	19.055
656.62	21.676
656.80	19.455
656.99	20.323
657.18	20.006
657.36	20.038
657.55	20.660
657.74	20.757
657.93	21.207
658.11	22.552
658.30	20.048
658.49	21.307
658.67	20.895
658.86	20.632
659.05	19.497
659.23	20.894
659.42	20.836
659.61	20.288
659.79	20.548
659.98	19.993
660.17	20.681
660.35	21.222
660.54	20.966
660.73	21.094
660.91	20.543
661.10	20.986
661.29	19.442
661.47	20.393
661.66	19.983
661.85	20.529
662.03	20.945
662.22	19.598
662.41	19.485
662.59	20.570
662.78	18.879
662.97	19.691
663.15	18.825
663.34	18.482
663.53	17.751
663.71	19.927
663.90	18.223
664.09	20.112
664.27	19.337
664.46	19.290
664.65	18.863
664.83	19.229
665.02	17.020
665.21	18.028
665.39	17.203
665.58	19.640
665.77	17.468
665.95	19.057
666.14	17.407
666.32	18.432
666.51	15.544
666.70	17.805
666.88	17.312
667.07	17.709
667.26	17.028
667.44	18.102
667.63	16.460
667.81	16.710
668.00	17.929
668.19	19.604
668.37	16.023
668.56	19.331
668.75	16.088
668.93	19.430
669.12	16.709
669.30	18.587
669.49	16.857
669.68	18.577
669.86	18.164
670.05	18.089
670.23	17.053
670.42	17.531
670.61	17.000
670.79	18.248
670.98	16.788
671.16	18.148
671.35	15.901
671.54	18.079
671.72	16.105
671.91	18.687
672.09	16.152
672.28	18.034
672.46	18.360
672.65	17.605
672.84	17.076
673.02	19.452
673.21	15.220
673.39	17.607
673.58	16.522
673.77	18.574
673.95	17.074
674.14	17.849
674.32	17.165
674.51	18.643
674.69	16.196
674.88	18.532
675.07	16.727
675.25	18.310
675.44	16.385
675.62	18.558
675.81	15.415
675.99	19.518
676.18	18.571
676.36	17.774
676.55	16.665
676.74	18.822
676.92	17.248
677.11	17.979
677.29	17.131
677.48	18.852
677.66	18.482
677.85	17.336
678.03	17.358
678.22	18.845
678.40	18.155
678.59	18.380
678.78	16.112
678.96	17.996
679.15	17.264
679.33	20.895
679.52	19.084
679.70	18.755
679.89	18.360
680.07	18.740
680.26	17.282
680.44	19.747
680.63	18.826
680.81	20.000
681.00	17.703
681.18	19.179
681.37	18.484
681.55	21.269
681.74	19.779
681.92	20.304
682.11	19.531
682.29	20.720
682.48	19.538
682.66	19.539
682.85	19.689
683.03	19.174
683.22	19.674
683.40	21.206
683.59	19.235
683.77	19.980
683.96	17.709
684.14	20.765
684.33	17.180
684.51	20.850
684.70	18.761
684.88	21.212
685.07	20.234
685.25	20.801
685.44	19.533
685.62	21.082
685.81	18.116
685.99	21.455
686.18	18.850
686.36	20.906
686.55	19.048
686.73	19.869
686.92	20.601
687.10	20.709
687.29	20.573
687.47	22.329
687.65	20.964
687.84	20.118
688.02	22.093
688.21	22.193
688.39	19.809
688.58	22.355
688.76	21.812
688.95	21.831
689.13	19.614
689.32	23.435
689.50	22.300
689.68	22.200
689.87	20.161
690.05	22.634
690.24	20.699
690.42	22.100
690.61	21.652
690.79	23.939
690.98	21.664
691.16	22.350
691.34	19.751
691.53	22.477
691.71	20.836
691.90	23.086
692.08	19.382
692.27	24.492
692.45	23.076
692.63	22.466
692.82	22.121
693.00	21.591
693.19	21.527
693.37	24.153
693.56	22.076
693.74	23.305
693.92	21.132
694.11	24.494
694.29	24.002
694.48	23.443
694.66	21.783
694.84	23.347
695.03	23.307
695.21	25.284
695.40	24.484
695.58	26.007
695.76	22.368
695.95	24.624
696.13	22.154
696.32	24.777
696.50	28.048
696.68	25.191
696.87	24.111
697.05	25.071
697.24	24.474
697.42	26.444
697.60	22.665
697.79	25.852
697.97	25.819
698.16	26.580
698.34	24.662
698.52	27.937
698.71	25.746
698.89	27.881
699.07	25.945
699.26	27.074
699.44	26.627
699.63	28.069
699.81	26.195
699.99	27.115
700.18	28.130
700.36	27.392
700.54	26.590
700.73	26.574
700.91	26.792
701.09	28.054
701.28	27.506
701.46	27.575
701.64	25.885
701.83	27.809
702.01	25.924
702.20	29.270
702.38	26.756
702.56	27.743
702.75	26.641
702.93	27.311
703.11	26.449
703.30	27.658
703.48	27.164
703.66	28.574
703.85	25.222
704.03	28.558
704.21	26.095
704.40	28.804
704.58	25.441
704.76	27.402
704.95	26.255
705.13	26.388
705.31	25.660
705.50	29.255
705.68	24.382
705.86	28.514
706.04	27.196
706.23	28.271
706.41	26.064
706.59	26.775
706.78	25.702
706.96	27.427
707.14	27.031
707.33	28.997
707.51	27.367
707.69	29.565
707.88	26.332
708.06	28.230
708.24	28.943
708.42	29.899
708.61	26.943
708.79	27.819
708.97	27.665
709.16	28.332
709.34	30.123
709.52	28.773
709.71	27.695
709.89	29.260
710.07	26.278
710.25	29.650
710.44	28.130
710.62	28.254
710.80	29.023
710.98	28.853
711.17	27.999
711.35	29.927
711.53	27.996
711.72	28.871
711.90	30.279
712.08	29.420
712.26	27.785
712.45	26.910
712.63	28.487
712.81	30.169
712.99	28.162
713.18	29.779
713.36	27.793
713.54	30.945
713.72	27.530
713.91	28.408
714.09	26.934
714.27	29.951
714.45	28.169
714.64	30.700
714.82	28.673
715.00	29.368
715.18	29.362
715.37	29.472
715.55	29.566
715.73	30.753
715.91	28.442
716.10	28.254
716.28	25.486
716.46	28.040
716.64	27.612
716.83	30.862
717.01	27.741
717.19	28.668
717.37	28.533
717.55	28.525
717.74	28.282
717.92	27.802
718.10	26.332
718.28	27.765
718.47	26.195
718.65	29.622
718.83	27.141
719.01	27.521
719.19	26.517
719.38	29.067
719.56	27.176
719.74	27.241
719.92	23.235
720.10	26.709
720.29	26.234
720.47	27.763
720.65	26.500
720.83	28.399
721.01	24.841
721.20	26.995
721.38	26.632
721.56	27.636
721.74	26.987
721.92	27.922
722.11	26.008
722.29	28.350
722.47	27.271
722.65	28.180
722.83	28.505
723.01	27.921
723.20	27.615
723.38	27.309
723.56	24.871
723.74	30.574
723.92	25.376
724.10	28.112
724.29	25.295
724.47	29.927
724.65	28.725
724.83	28.855
725.01	24.615
725.19	29.986
725.38	26.538
725.56	26.946
725.74	27.830
725.92	28.248
726.10	26.846
726.28	28.683
726.46	27.557
726.65	29.335
726.83	26.687
727.01	27.872
727.19	28.884
727.37	26.357
727.55	26.509
727.73	29.622
727.92	27.489
728.10	28.899
728.28	25.306
728.46	28.975
728.64	25.804
728.82	29.130
729.00	27.245
729.19	29.036
729.37	29.128
729.55	28.307
729.73	25.211
729.91	29.876
730.09	29.144
730.27	29.703
730.45	27.018
730.63	29.070
730.82	28.459
731.00	28.187
731.18	26.624
731.36	29.707
731.54	26.902
731.72	29.370
731.90	26.999
732.08	28.081
732.26	27.783
732.45	29.383
732.63	28.598
732.81	29.814
732.99	27.507
733.17	29.979
733.35	28.292
733.53	30.470
733.71	27.639
733.89	30.492
734.07	28.250
734.25	28.646
734.44	28.430
734.62	28.474
734.80	29.842
734.98	29.638
735.16	28.093
735.34	29.359
735.52	28.050
735.70	28.967
735.88	28.814
736.06	28.911
736.24	30.807
736.42	28.096
736.60	29.888
736.78	29.157
736.97	29.543
737.15	30.765
737.33	25.726
737.51	29.659
737.69	28.618
737.87	31.130
738.05	27.508
738.23	31.099
738.41	28.489
738.59	29.550
738.77	28.369
738.95	30.647
739.13	25.931
739.31	29.861
739.49	30.990
739.67	33.448
739.85	27.533
740.03	28.551
740.21	28.766
740.39	31.276
740.57	28.893
740.75	27.239
740.93	29.639
741.11	29.410
741.30	27.760
741.48	33.847
741.66	31.174
741.84	30.000
742.02	28.055
742.20	28.963
742.38	29.437
742.56	32.110
742.74	27.605
742.92	30.171
743.10	27.683
743.28	30.806
743.46	31.348
743.64	28.728
743.82	29.508
744.00	32.123
744.18	28.821
744.36	30.051
744.54	27.472
744.72	32.184
744.90	31.824
745.08	32.795
745.26	30.917
745.44	33.363
745.62	27.278
745.80	32.069
745.98	29.789
746.16	34.003
746.34	29.264
746.52	28.184
746.70	24.184
746.87	29.919
747.05	29.054
747.23	31.191
747.41	28.090
747.59	28.967
747.77	26.702
747.95	29.610
748.13	27.447
748.31	29.001
748.49	28.590
748.67	24.869
748.85	28.438
749.03	29.602
749.21	28.674
749.39	32.714
749.57	26.995
749.75	27.242
749.93	30.608
750.11	28.514
750.29	28.910
750.47	28.159
750.65	26.309
750.83	28.766
751.01	28.929
751.18	31.108
751.36	28.793
751.54	30.333
751.72	29.758
751.90	30.995
752.08	25.234
752.26	28.831
752.44	28.378
752.62	28.506
752.80	29.761
752.98	32.542
753.16	28.607
753.34	31.244
753.52	31.392
753.69	29.493
753.87	29.870
754.05	30.180
754.23	27.921
754.41	28.882
754.59	27.723
754.77	30.230
754.95	28.373
755.13	29.659
755.31	27.901
755.49	30.807
755.66	29.719
755.84	30.487
756.02	25.475
756.20	32.907
756.38	28.946
756.56	29.100
756.74	29.795
756.92	28.869
757.10	25.062
757.28	33.639
757.45	35.418
757.63	31.250
757.81	25.789
757.99	31.658
758.17	28.327
758.35	31.856
758.53	31.299
758.71	30.594
758.88	29.746
759.06	29.438
759.24	25.931
759.42	30.705
759.60	27.157
759.78	28.335
759.96	24.296
760.13	30.480
760.31	22.313
760.49	27.223
760.67	23.168
760.85	26.371
761.03	23.343
761.21	21.481
761.38	20.385
761.56	25.168
761.74	24.178
761.92	25.760
762.10	21.360
762.28	26.118
762.46	17.269
762.63	23.397
762.81	21.303
762.99	24.380
763.17	24.456
763.35	23.410
763.53	23.927
763.70	28.546
763.88	27.026
764.06	28.383
764.24	25.473
764.42	29.712
764.60	26.296
764.77	27.236
764.95	26.625
765.13	28.514
765.31	28.703
765.49	29.650
765.66	25.021
765.84	28.937
766.02	26.217
766.20	28.071
766.38	27.546
766.56	27.846
766.73	26.903
766.91	28.825
767.09	29.578
767.27	31.170
767.45	26.420
767.62	27.671
767.80	26.428
767.98	28.396
768.16	27.850
768.33	31.174
768.51	30.646
768.69	30.489
768.87	25.728
769.05	29.017
769.22	26.018
769.40	31.725
769.58	27.697
769.76	30.939
769.94	28.208
770.11	29.375
770.29	28.942
770.47	27.586
770.65	30.501
770.82	30.095
771.00	28.412
771.18	31.837
771.36	26.142
771.53	30.622
771.71	26.115
771.89	31.022
772.07	34.093
772.25	31.523
772.42	25.811
772.60	31.215
772.78	24.082
772.96	30.683
773.13	27.922
773.31	31.916
773.49	27.105
773.67	28.640
773.84	26.655
774.02	30.941
774.20	26.332
774.37	30.018
774.55	28.626
774.73	30.236
774.91	28.729
775.08	28.629
775.26	27.512
775.44	29.623
775.62	28.967
775.79	29.469
775.97	28.565
776.15	29.390
776.32	25.515
776.50	30.938
776.68	33.713
776.86	27.818
777.03	24.492
777.21	27.233
777.39	22.603
777.56	31.386
777.74	25.146
777.92	25.327
778.10	29.843
778.27	30.347
778.45	29.122
778.63	29.111
778.80	29.018
778.98	31.226
779.16	30.999
779.34	28.047
779.51	27.521
779.69	30.969
779.87	28.290
780.04	28.330
780.22	26.155
780.40	29.392
780.57	30.912
780.75	26.023
780.93	31.508
781.10	27.927
781.28	36.797
781.46	28.297
781.63	26.780
781.81	31.818
781.99	25.630
782.16	31.514
782.34	28.521
782.52	29.824
782.69	34.465
782.87	24.459
783.05	24.653
783.22	29.286
783.40	27.292
783.58	25.224
783.75	26.340
783.93	29.244
784.11	20.638
784.28	34.634
784.46	26.941
784.64	32.225
784.81	29.020
784.99	29.395
785.17	25.318
785.34	25.863
785.52	23.605
785.69	24.017
785.87	28.144
786.05	27.736
786.22	29.039
786.40	31.611
786.58	27.035
786.75	33.684
786.93	28.249
787.11	27.860
787.28	28.060
787.46	30.580
787.63	28.714
787.81	30.274
787.99	28.974
788.16	25.918
788.34	26.207
788.51	27.435
788.69	25.756
788.87	24.796
789.04	25.395
789.22	27.426
789.39	28.605
789.57	24.104
789.75	24.128
789.92	30.259
790.10	22.982
790.27	27.998
790.45	21.247
790.63	28.807
790.80	25.822
790.98	26.030
791.15	26.527
791.33	28.211
791.51	20.725
791.68	30.976
791.86	27.322
792.03	27.365
792.21	26.074
792.39	30.435
792.56	23.877
792.74	27.790
792.91	29.176
793.09	24.179
793.26	24.627
793.44	28.249
793.62	22.930
793.79	28.327
793.97	26.644
794.14	28.967
794.32	20.857
794.49	21.734
794.67	27.295
794.84	26.511
795.02	28.063
795.20	30.114
795.37	21.760
795.55	30.389
795.72	26.794
795.90	24.731
796.07	30.056
796.25	26.058
796.42	25.769
796.60	28.835
796.77	22.752
796.95	28.857
797.13	19.368
797.30	27.905
797.48	24.871
797.65	29.589
797.83	25.236
798.00	28.312
798.18	26.783
798.35	23.330
798.53	26.633
798.70	25.336
798.88	27.098
799.05	25.808
799.23	23.396
799.40	25.482
799.58	24.897
799.75	25.057
799.93	24.483
800.10	26.256
800.28	26.269
800.45	28.469
800.63	23.228
800.80	26.868
800.98	27.403
801.15	30.394
801.33	26.048
801.50	30.540
801.68	22.608
801.85	23.010
802.03	24.099
802.20	27.153
802.38	23.698
802.55	27.024
802.73	23.891
802.90	24.859
803.08	19.191
803.25	29.888
803.43	27.510
803.60	28.039
803.78	26.953
803.95	26.869
804.13	25.586
804.30	32.857
804.48	31.661
804.65	30.736
804.83	29.473
805.00	28.508
805.17	25.895
805.35	24.212
805.52	22.912
805.70	28.347
805.87	30.702
806.05	20.113
806.22	21.839
806.40	25.435
806.57	29.616
806.75	35.396
806.92	29.229
807.09	28.121
807.27	25.031
807.44	28.676
807.62	29.161
807.79	28.213
807.97	26.288
808.14	27.032
808.31	25.813
808.49	27.129
808.66	24.778
808.84	24.487
809.01	29.051
809.19	26.566
809.36	31.565
809.53	25.826
809.71	27.266
809.88	31.025
810.06	34.913
810.23	28.084
810.41	30.716
810.58	29.450
810.75	24.356
810.93	26.415
811.10	25.959
811.28	29.188
811.45	25.953
811.62	29.133
811.80	25.296
811.97	26.396
812.15	36.350
812.32	24.057
812.49	29.599
812.67	28.080
812.84	23.065
813.02	30.106
813.19	24.179
813.36	27.062
813.54	22.159
813.71	31.387
813.89	30.645
814.06	28.696
814.23	31.020
814.41	27.800
814.58	30.857
814.75	30.375
814.93	23.976
815.10	26.560
815.28	25.534
815.45	16.869
815.62	29.849
815.80	27.683
815.97	25.610
816.14	32.310
816.32	28.638
816.49	30.927
816.66	24.425
816.84	22.203
817.01	25.685
817.18	28.594
817.36	27.787
817.53	24.138
817.71	18.601
817.88	29.450
818.05	21.292
818.23	21.102
818.40	20.703
818.57	23.885
818.75	24.095
818.92	21.693
819.09	24.353
819.27	21.927
819.44	26.412
819.61	24.556
819.79	28.349
819.96	29.434
820.13	25.882
820.31	25.725
820.48	26.787
820.65	22.517
820.82	24.169
821.00	23.600
821.17	20.948
821.34	22.688
821.52	21.014
821.69	21.535
821.86	20.216
822.04	23.778
822.21	25.475
822.38	27.765
822.56	24.047
822.73	27.882
822.90	25.973
823.07	28.522
823.25	27.871
823.42	28.648
823.59	27.995
823.77	28.472
823.94	26.841
824.11	28.541
824.29	26.443
824.46	28.149
824.63	26.866
824.80	27.287
824.98	26.169
825.15	27.536
825.32	22.777
825.49	26.522
825.67	22.239
825.84	25.882
826.01	24.058
826.19	25.713
826.36	20.647
826.53	25.405
826.70	20.457
826.88	28.644
827.05	22.923
827.22	22.507
827.39	24.065
827.57	22.865
827.74	18.981
827.91	22.751
828.08	20.426
828.26	24.508
828.43	22.628
828.60	25.323
828.77	21.533
828.95	22.963
829.12	19.667
829.29	20.288
829.46	23.251
829.64	22.306
829.81	17.575
829.98	22.594
830.15	22.433
830.32	23.846
830.50	22.695
830.67	25.151
830.84	22.493
831.01	16.131
831.19	20.664
831.36	21.680
831.53	24.278
831.70	24.967
831.87	21.377
832.05	23.713
832.22	28.287
832.39	25.487
832.56	24.287
832.74	27.813
832.91	24.912
833.08	25.622
833.25	19.413
833.42	18.499
833.60	21.166
833.77	16.386
833.94	16.228
834.11	21.278
834.28	16.932
834.45	22.447
834.63	19.297
834.80	21.540
834.97	18.619
835.14	23.599
835.31	22.127
835.49	24.722
835.66	24.355
835.83	19.916
836.00	22.680
836.17	19.535
836.34	21.843
836.52	22.484
836.69	23.673
836.86	25.701
837.03	23.503
837.20	23.609
837.37	21.650
837.55	18.016
837.72	22.672
837.89	22.452
838.06	28.676
838.23	20.987
838.40	27.189
838.58	23.352
838.75	29.074
838.92	24.121
839.09	24.055
839.26	32.398
839.43	32.412
839.60	34.431
839.78	41.675
839.95	24.284
840.12	33.589
840.29	30.443
840.46	32.432
840.63	23.270
840.80	31.134
840.98	28.518
841.15	23.664
841.32	33.075
841.49	28.740
841.66	28.411
841.83	23.750
842.00	26.946
842.17	41.040
842.34	23.926
842.52	38.997
842.69	29.900
842.86	32.126
843.03	39.802
843.20	27.673
843.37	33.844
843.54	29.045
843.71	34.697
843.88	28.790
844.06	46.528
844.23	39.840
844.40	25.753
844.57	38.199
844.74	41.186
844.91	47.086
845.08	38.356
845.25	39.832
845.42	37.387
845.59	55.792
845.76	39.227
845.94	29.787
846.11	46.980
846.28	42.105
846.45	49.331
846.62	51.198
846.79	55.195
846.96	41.618
847.13	51.233
847.30	50.890
847.47	45.010
847.64	25.540
847.81	42.071
847.98	47.718
848.15	29.053
848.32	53.422
848.50	56.719
848.67	35.649
848.84	45.344
849.01	48.780
849.18	38.855
849.35	52.964
849.52	51.089
849.69	42.227
849.86	64.706
850.03	39.813
850.20	45.779
850.37	42.396
850.54	47.767
850.71	48.559
850.88	53.320
851.05	44.583
851.22	56.311
851.39	41.556
851.56	49.241
851.73	50.353
851.90	50.459
852.07	58.753
852.24	40.509
852.41	56.531
852.58	48.810
852.75	45.581
852.92	54.728
853.09	76.685
853.26	41.895
853.43	58.444
853.60	35.135
853.77	53.613
853.94	49.897
854.11	66.125
854.28	53.415
854.45	40.222
854.62	54.545
854.79	53.982
854.96	54.592
855.13	63.805
855.30	58.000
855.47	56.122
855.64	49.666
855.81	52.632
855.98	68.835
856.15	57.114
856.32	49.478
856.49	45.390
856.66	52.113
856.83	61.207
857.00	50.837
857.17	61.538
857.34	55.482
857.51	51.868
857.68	48.210
857.85	52.881
858.02	54.523
858.19	49.395
858.36	51.852
858.53	55.675
858.70	48.026
858.87	58.333
859.04	40.724
859.21	54.310
859.38	48.542
859.55	46.472
859.72	60.405
859.89	55.977
860.05	50.000
860.22	56.316
860.39	56.916
860.56	52.525
860.73	56.325
860.90	61.416
861.07	59.817
861.24	58.352
861.41	51.058
861.58	52.471
861.75	49.403
861.92	50.328
862.09	68.101
862.26	50.827
862.43	66.667
862.59	56.713
862.76	51.805
862.93	60.811
863.10	55.847
863.27	60.177
863.44	61.275
863.61	51.818
863.78	66.567
863.95	64.371
864.12	74.766
864.29	75.684
864.45	54.660
864.62	48.691
864.79	71.040
864.96	47.395
865.13	45.455
865.30	59.762
865.47	63.510
865.64	71.226
865.81	52.066
865.97	58.993
866.14	61.470
866.31	25.587
866.48	54.545
866.65	41.667
866.82	71.942
866.99	64.380
867.16	57.853
867.33	48.000
867.49	55.257
867.66	54.699
867.83	54.405
868.00	52.732
868.17	68.103
868.34	62.054
868.51	28.986
868.67	49.052
868.84	49.885
869.01	63.594
869.18	44.390
869.35	53.863
869.52	55.250
869.69	45.427
869.85	65.432
870.02	50.243
870.19	63.876
870.36	55.026
870.53	48.019
870.70	50.851
870.86	44.041
871.03	49.420
871.20	52.970
871.37	52.255
871.54	49.185
871.71	48.058
871.87	55.978
872.04	57.096
872.21	57.174
872.38	49.144
872.55	72.911
872.72	49.324
872.88	63.662
873.05	40.274
873.22	53.347
873.39	52.009
873.56	57.631
873.72	56.971
873.89	63.663
874.06	54.381
874.23	46.859
874.40	42.582
874.56	51.143
874.73	64.078
874.90	36.096
875.07	45.415
875.24	64.678
875.40	37.978
875.57	45.455
875.74	73.171
875.91	62.602
876.08	52.643
876.24	52.893
876.41	68.274
876.58	39.141
876.75	42.149
876.92	55.357
877.08	56.445
877.25	49.742
877.42	53.659
877.59	44.954
877.75	59.470
877.92	34.411
878.09	60.093
878.26	60.040
878.42	56.383
878.59	59.292
878.76	48.617
878.93	55.204
879.09	53.275
879.26	63.285
879.43	48.090
879.60	52.741
879.76	52.491
879.93	35.396
880.10	32.558
880.27	29.647
880.43	38.264
880.60	39.498
880.77	33.385
880.94	23.346
881.10	29.775
881.27	37.285
881.44	15.694
881.61	27.090
881.77	20.796
881.94	18.221
882.11	16.988
882.28	14.235
882.44	18.839
882.61	18.693
882.78	20.149
882.94	25.944
883.11	21.075
883.28	23.128
883.45	22.375
883.61	17.802
883.78	18.780
883.95	24.346
884.11	18.914
884.28	17.024
>>>>>End Processed Spectral Data<<<<<
