SpectraSuite Data File
++++++++++++++++++++++++++++++++++++
Date: Wed Sep 18 03:53:32 EST 2019
User: sgrac
Dark Spectrum Present: Yes
Reference Spectrum Present: Yes
Number of Sampled Component Spectra: 1
Spectrometers: USB4E01596
Integration Time (usec): 100000 (USB4E01596)
Spectra Averaged: 3 (USB4E01596)
Boxcar Smoothing: 0 (USB4E01596)
Correct for Electrical Dark: No (USB4E01596)
Strobe/Lamp Enabled: Yes (USB4E01596)
Correct for Detector Non-linearity: No (USB4E01596)
Correct for Stray Light: No (USB4E01596)
Number of Pixels in Processed Spectrum: 3648
>>>>>Begin Processed Spectral Data<<<<<
178.44	-154.839
178.66	-154.839
178.87	-154.839
179.09	-250.000
179.30	215.217
179.52	744.737
179.74	-1127.778
179.95	-1260.000
180.17	576.744
180.38	-686.667
180.60	334.286
180.82	1743.750
181.03	472.093
181.25	-1578.571
181.46	-555.000
181.68	-537.209
181.89	628.571
182.11	620.000
182.33	682.353
182.54	414.035
182.76	1130.435
182.97	1907.143
183.19	278.261
183.40	304.545
183.62	496.154
183.84	408.065
184.05	621.212
184.27	280.328
184.48	3100.000
184.70	569.444
184.91	658.696
185.13	-581.250
185.34	-320.000
185.56	-724.242
185.78	1505.556
185.99	398.361
186.21	582.927
186.42	-2030.000
186.64	319.697
186.85	1843.750
187.07	435.714
187.28	557.143
187.50	-829.412
187.72	502.000
187.93	346.988
188.15	508.824
188.36	-1552.941
188.58	368.831
188.79	-10150.000
189.01	205.442
189.22	335.065
189.44	1037.500
189.65	294.382
189.87	294.737
190.09	327.660
190.30	840.000
190.52	1937.500
190.73	350.602
190.95	1513.636
191.16	383.582
191.38	-26600.000
191.59	560.870
191.81	401.429
192.02	-730.769
192.24	475.806
192.45	315.556
192.67	404.545
192.88	425.000
193.10	554.545
193.31	512.500
193.53	454.839
193.74	696.970
193.96	447.458
194.18	-1034.783
194.39	480.392
194.61	1103.448
194.82	950.000
195.04	475.556
195.25	354.098
195.47	-3775.000
195.68	266.197
195.90	250.549
196.11	562.500
196.33	1805.882
196.54	732.558
196.76	-868.000
196.97	272.000
197.19	1000.000
197.40	274.436
197.62	-481.818
197.83	444.231
198.05	226.846
198.26	-1076.000
198.48	502.778
198.69	291.743
198.91	408.696
199.12	-1000.000
199.34	956.000
199.55	22900.000
199.77	334.211
199.98	4133.333
200.20	773.529
200.41	376.056
200.63	505.556
200.84	1347.619
201.06	451.613
201.27	361.728
201.49	467.187
201.70	383.607
201.91	722.727
202.13	1475.000
202.34	-682.857
202.56	438.333
202.77	-226.744
202.99	374.390
203.20	574.468
203.42	392.857
203.63	238.532
203.85	-800.000
204.06	468.182
204.28	1513.333
204.49	539.535
204.71	234.454
204.92	873.077
205.14	1326.316
205.35	4950.000
205.56	471.831
205.78	327.160
205.99	206.870
206.21	250.505
206.42	545.652
206.64	788.235
206.85	253.333
207.07	711.429
207.28	296.591
207.50	956.522
207.71	537.209
207.93	543.750
208.14	625.581
208.35	386.441
208.57	412.000
208.78	351.064
209.00	316.129
209.21	214.789
209.43	416.667
209.64	976.923
209.86	1854.545
210.07	236.709
210.28	238.554
210.50	431.884
210.71	401.515
210.93	429.091
211.14	555.000
211.36	785.714
211.57	180.833
211.78	1103.846
212.00	556.757
212.21	2344.444
212.43	2046.154
212.64	971.875
212.86	297.273
213.07	511.538
213.29	336.735
213.50	426.667
213.71	361.250
213.93	265.169
214.14	806.250
214.36	651.220
214.57	334.524
214.78	6575.000
215.00	332.927
215.21	466.667
215.43	-5140.000
215.64	375.714
215.86	360.294
216.07	358.904
216.28	448.000
216.50	426.000
216.71	1233.333
216.93	-25400.000
217.14	1468.421
217.35	-254.237
217.57	265.909
217.78	717.241
218.00	233.333
218.21	341.176
218.42	-5750.000
218.64	678.571
218.85	435.294
219.07	437.209
219.28	487.500
219.49	-13550.000
219.71	398.507
219.92	355.263
220.14	-16800.000
220.35	308.219
220.56	367.391
220.78	275.610
220.99	-564.444
221.21	374.699
221.42	187.500
221.63	1830.769
221.85	-660.000
222.06	220.202
222.28	-478.571
222.49	468.421
222.70	261.207
222.92	478.947
223.13	211.644
223.34	1458.333
223.56	195.726
223.77	372.840
223.99	200.000
224.20	290.476
224.41	216.364
224.63	167.045
224.84	166.935
225.05	224.590
225.27	498.182
225.48	287.805
225.69	267.187
225.91	421.538
226.12	360.000
226.34	291.176
226.55	200.943
226.76	149.612
226.98	301.282
227.19	137.143
227.40	179.577
227.62	92.308
227.83	144.286
228.04	137.297
228.26	107.432
228.47	96.635
228.69	60.328
228.90	68.392
229.11	52.528
229.33	60.674
229.54	39.575
229.75	39.497
229.97	41.794
230.18	40.203
230.39	38.727
230.61	30.102
230.82	49.286
231.03	26.227
231.25	46.221
231.46	37.339
231.67	29.577
231.89	48.211
232.10	46.620
232.31	52.264
232.53	61.111
232.74	45.783
232.95	58.614
233.17	53.642
233.38	58.392
233.59	69.757
233.81	64.392
234.02	58.213
234.23	71.615
234.45	60.894
234.66	39.604
234.87	70.787
235.09	51.914
235.30	48.995
235.51	53.133
235.73	50.356
235.94	51.050
236.15	28.358
236.36	61.573
236.58	50.379
236.79	37.687
237.00	41.713
237.22	41.805
237.43	47.170
237.64	47.379
237.86	43.496
238.07	54.120
238.28	52.361
238.50	54.806
238.71	41.154
238.92	45.103
239.13	53.632
239.35	56.772
239.56	56.688
239.77	51.758
239.99	42.405
240.20	56.458
240.41	34.827
240.63	55.147
240.84	60.066
241.05	34.370
241.26	38.132
241.48	30.172
241.69	33.871
241.90	20.421
242.12	24.076
242.33	21.710
242.54	21.692
242.75	19.942
242.97	21.948
243.18	15.534
243.39	14.977
243.61	13.064
243.82	15.875
244.03	18.661
244.24	15.810
244.46	17.685
244.67	16.099
244.88	11.464
245.09	18.516
245.31	17.655
245.52	18.479
245.73	25.437
245.95	39.629
246.16	24.690
246.37	25.474
246.58	22.454
246.80	26.133
247.01	18.045
247.22	16.532
247.43	14.868
247.65	14.659
247.86	11.567
248.07	9.141
248.28	10.347
248.50	10.724
248.71	11.612
248.92	6.977
249.13	9.743
249.35	9.697
249.56	9.732
249.77	9.802
249.98	9.938
250.20	10.989
250.41	15.065
250.62	14.070
250.83	16.225
251.05	22.304
251.26	17.420
251.47	23.822
251.68	18.797
251.90	14.539
252.11	14.748
252.32	21.128
252.53	22.788
252.75	12.665
252.96	14.598
253.17	21.081
253.38	11.374
253.59	14.420
253.81	15.092
254.02	15.312
254.23	15.717
254.44	18.905
254.66	18.730
254.87	17.544
255.08	20.375
255.29	21.105
255.50	23.090
255.72	20.722
255.93	19.617
256.14	26.316
256.35	20.247
256.57	21.494
256.78	30.390
256.99	19.964
257.20	21.449
257.41	12.842
257.63	19.805
257.84	26.031
258.05	21.852
258.26	19.493
258.47	20.521
258.69	21.310
258.90	13.781
259.11	15.854
259.32	14.278
259.53	14.821
259.75	9.971
259.96	9.630
260.17	11.779
260.38	9.281
260.59	8.264
260.81	5.629
261.02	7.042
261.23	8.088
261.44	7.299
261.65	5.516
261.87	7.110
262.08	7.958
262.29	8.577
262.50	7.079
262.71	9.528
262.92	8.280
263.14	10.526
263.35	10.717
263.56	11.611
263.77	11.833
263.98	13.919
264.20	10.246
264.41	16.086
264.62	7.701
264.83	5.938
265.04	18.381
265.25	15.426
265.47	14.973
265.68	16.125
265.89	16.935
266.10	15.585
266.31	18.187
266.52	13.174
266.74	13.551
266.95	13.273
267.16	13.666
267.37	12.321
267.58	9.121
267.79	12.980
268.01	11.345
268.22	4.813
268.43	8.326
268.64	10.440
268.85	12.761
269.06	11.201
269.27	11.816
269.49	7.808
269.70	8.195
269.91	11.831
270.12	14.359
270.33	13.359
270.54	9.514
270.75	11.562
270.97	11.770
271.18	10.051
271.39	10.568
271.60	11.543
271.81	8.408
272.02	11.909
272.23	8.578
272.45	9.191
272.66	7.814
272.87	9.130
273.08	6.387
273.29	7.352
273.50	6.514
273.71	5.921
273.92	8.587
274.14	8.824
274.35	8.653
274.56	9.561
274.77	8.455
274.98	9.904
275.19	10.103
275.40	11.602
275.61	9.947
275.83	7.949
276.04	9.063
276.25	11.177
276.46	12.917
276.67	10.435
276.88	11.709
277.09	10.274
277.30	10.836
277.51	9.065
277.73	11.853
277.94	10.769
278.15	9.629
278.36	9.635
278.57	10.015
278.78	9.942
278.99	6.072
279.20	13.649
279.41	13.391
279.62	6.839
279.84	13.577
280.05	8.603
280.26	9.541
280.47	12.166
280.68	6.927
280.89	9.324
281.10	9.992
281.31	9.794
281.52	11.019
281.73	7.491
281.94	7.811
282.16	11.235
282.37	11.273
282.58	12.484
282.79	8.190
283.00	8.917
283.21	7.914
283.42	7.516
283.63	9.543
283.84	6.817
284.05	9.472
284.26	8.680
284.47	8.381
284.68	5.566
284.89	7.730
285.11	7.925
285.32	9.196
285.53	8.376
285.74	8.134
285.95	8.318
286.16	8.608
286.37	5.103
286.58	6.790
286.79	6.061
287.00	6.364
287.21	5.293
287.42	5.994
287.63	5.704
287.84	6.795
288.05	6.164
288.26	6.742
288.48	7.675
288.69	6.901
288.90	7.876
289.11	6.326
289.32	7.830
289.53	7.617
289.74	6.355
289.95	7.539
290.16	6.476
290.37	7.405
290.58	6.806
290.79	4.764
291.00	6.189
291.21	8.640
291.42	7.314
291.63	6.386
291.84	6.974
292.05	5.850
292.26	7.300
292.47	7.818
292.68	4.872
292.89	6.878
293.10	8.512
293.31	7.535
293.52	6.502
293.73	6.682
293.94	9.185
294.15	6.319
294.36	9.263
294.57	7.819
294.79	7.406
295.00	6.376
295.21	6.931
295.42	7.790
295.63	10.479
295.84	4.617
296.05	6.116
296.26	6.953
296.47	7.289
296.68	4.400
296.89	5.336
297.10	6.773
297.31	6.614
297.52	4.938
297.73	5.963
297.94	4.034
298.15	5.186
298.36	5.343
298.57	3.202
298.78	6.431
298.99	6.425
299.20	6.084
299.41	5.263
299.62	3.607
299.83	5.481
300.04	5.783
300.25	6.812
300.46	6.501
300.67	6.752
300.88	7.260
301.09	5.976
301.30	6.298
301.50	6.277
301.71	7.380
301.92	7.897
302.13	4.649
302.34	7.022
302.55	6.044
302.76	8.254
302.97	5.838
303.18	6.896
303.39	11.120
303.60	6.416
303.81	8.055
304.02	6.140
304.23	7.275
304.44	7.032
304.65	5.569
304.86	7.278
305.07	3.435
305.28	7.147
305.49	6.165
305.70	7.751
305.91	4.539
306.12	5.025
306.33	4.170
306.54	7.416
306.75	7.847
306.96	9.954
307.17	7.223
307.38	7.654
307.58	7.126
307.79	8.608
308.00	7.765
308.21	5.719
308.42	5.395
308.63	8.462
308.84	9.844
309.05	7.859
309.26	5.082
309.47	6.380
309.68	6.432
309.89	8.232
310.10	6.699
310.31	6.213
310.52	5.706
310.73	5.698
310.94	5.091
311.14	6.702
311.35	5.794
311.56	5.853
311.77	5.247
311.98	4.495
312.19	6.231
312.40	6.531
312.61	5.107
312.82	6.259
313.03	6.553
313.24	5.286
313.45	5.496
313.66	5.560
313.86	7.031
314.07	5.106
314.28	6.499
314.49	4.117
314.70	5.291
314.91	6.361
315.12	5.942
315.33	8.230
315.54	7.614
315.75	7.288
315.96	5.744
316.16	6.470
316.37	8.480
316.58	7.247
316.79	6.626
317.00	8.259
317.21	7.173
317.42	8.433
317.63	6.790
317.84	7.993
318.05	8.295
318.25	8.480
318.46	6.199
318.67	6.215
318.88	7.801
319.09	4.479
319.30	7.827
319.51	5.969
319.72	6.139
319.93	6.745
320.13	7.040
320.34	5.897
320.55	5.626
320.76	8.477
320.97	6.984
321.18	9.412
321.39	5.944
321.60	7.904
321.80	9.945
322.01	9.139
322.22	9.647
322.43	6.980
322.64	9.219
322.85	8.425
323.06	6.722
323.27	7.747
323.47	8.594
323.68	10.211
323.89	5.993
324.10	5.998
324.31	6.385
324.52	8.434
324.73	5.602
324.93	5.393
325.14	6.086
325.35	7.077
325.56	8.495
325.77	8.067
325.98	5.809
326.19	6.263
326.39	4.982
326.60	6.879
326.81	5.590
327.02	6.042
327.23	7.113
327.44	8.438
327.64	6.631
327.85	6.886
328.06	5.318
328.27	8.159
328.48	6.560
328.69	3.407
328.90	4.020
329.10	6.322
329.31	7.318
329.52	6.007
329.73	6.771
329.94	6.095
330.15	8.843
330.35	10.413
330.56	6.651
330.77	7.796
330.98	8.716
331.19	6.412
331.39	7.407
331.60	5.994
331.81	6.021
332.02	5.544
332.23	7.889
332.44	7.094
332.64	7.220
332.85	7.652
333.06	8.359
333.27	6.136
333.48	6.874
333.68	5.225
333.89	5.607
334.10	5.762
334.31	6.609
334.52	7.025
334.72	5.989
334.93	7.148
335.14	4.920
335.35	6.049
335.56	7.404
335.76	5.559
335.97	6.053
336.18	6.141
336.39	7.261
336.60	5.742
336.80	5.566
337.01	6.042
337.22	6.168
337.43	7.529
337.64	6.948
337.84	4.998
338.05	6.484
338.26	7.535
338.47	6.731
338.68	5.748
338.88	6.242
339.09	7.314
339.30	5.174
339.51	4.139
339.71	7.000
339.92	5.124
340.13	6.783
340.34	5.405
340.55	5.151
340.75	5.908
340.96	6.001
341.17	6.463
341.38	5.624
341.58	5.952
341.79	6.620
342.00	4.924
342.21	5.740
342.41	5.374
342.62	7.183
342.83	5.661
343.04	5.173
343.24	5.973
343.45	7.024
343.66	7.529
343.87	5.906
344.07	5.433
344.28	6.141
344.49	7.338
344.70	7.407
344.90	4.615
345.11	3.671
345.32	6.973
345.53	6.412
345.73	6.336
345.94	6.420
346.15	6.986
346.36	5.733
346.56	6.245
346.77	7.249
346.98	6.853
347.19	6.563
347.39	5.754
347.60	5.449
347.81	7.052
348.02	7.804
348.22	6.374
348.43	5.654
348.64	5.399
348.84	6.591
349.05	6.399
349.26	6.852
349.47	5.324
349.67	4.950
349.88	8.491
350.09	7.429
350.30	7.998
350.50	6.136
350.71	8.402
350.92	7.776
351.12	5.711
351.33	6.898
351.54	7.089
351.74	8.024
351.95	6.063
352.16	9.128
352.37	10.222
352.57	7.514
352.78	9.292
352.99	8.819
353.19	8.233
353.40	9.575
353.61	11.775
353.82	10.556
354.02	11.690
354.23	10.750
354.44	12.809
354.64	11.996
354.85	12.750
355.06	11.691
355.26	10.728
355.47	11.804
355.68	15.451
355.88	13.061
356.09	12.979
356.30	12.858
356.51	14.601
356.71	13.109
356.92	12.774
357.13	15.307
357.33	19.626
357.54	14.582
357.75	13.133
357.95	18.020
358.16	16.162
358.37	19.523
358.57	15.461
358.78	19.677
358.99	18.634
359.19	18.288
359.40	20.402
359.61	20.598
359.81	21.801
360.02	21.659
360.23	21.165
360.43	20.160
360.64	20.067
360.85	21.498
361.05	20.567
361.26	22.826
361.47	21.674
361.67	21.931
361.88	20.737
362.09	23.379
362.29	21.394
362.50	21.456
362.70	21.159
362.91	23.997
363.12	23.167
363.32	22.746
363.53	23.252
363.74	25.565
363.94	21.499
364.15	24.708
364.36	25.201
364.56	24.878
364.77	25.080
364.98	26.017
365.18	25.206
365.39	24.826
365.59	25.172
365.80	25.539
366.01	25.125
366.21	25.301
366.42	25.180
366.63	26.715
366.83	25.698
367.04	23.262
367.24	26.201
367.45	25.004
367.66	25.986
367.86	25.703
368.07	26.006
368.28	26.566
368.48	25.754
368.69	24.720
368.89	26.521
369.10	27.059
369.31	25.958
369.51	27.846
369.72	27.946
369.92	29.172
370.13	25.145
370.34	27.631
370.54	24.366
370.75	27.104
370.95	25.465
371.16	27.922
371.37	27.217
371.57	27.830
371.78	26.761
371.98	27.281
372.19	28.285
372.40	28.915
372.60	27.231
372.81	28.997
373.01	27.199
373.22	27.111
373.43	27.934
373.63	29.423
373.84	29.109
374.04	28.483
374.25	28.980
374.46	29.125
374.66	29.152
374.87	29.325
375.07	26.211
375.28	28.428
375.48	29.077
375.69	28.702
375.90	27.282
376.10	27.039
376.31	27.764
376.51	28.905
376.72	28.883
376.92	29.055
377.13	29.140
377.34	28.257
377.54	28.146
377.75	28.475
377.95	28.610
378.16	29.079
378.36	28.962
378.57	29.929
378.77	27.381
378.98	28.729
379.19	29.063
379.39	29.570
379.60	28.798
379.80	29.832
380.01	29.620
380.21	30.539
380.42	30.585
380.62	30.571
380.83	30.830
381.04	30.625
381.24	30.537
381.45	30.877
381.65	30.935
381.86	31.760
382.06	31.865
382.27	31.844
382.47	30.185
382.68	30.926
382.88	31.140
383.09	30.590
383.29	31.605
383.50	31.435
383.71	31.937
383.91	31.423
384.12	32.091
384.32	31.719
384.53	31.968
384.73	31.115
384.94	32.749
385.14	31.282
385.35	31.019
385.55	31.465
385.76	32.612
385.96	32.528
386.17	32.487
386.37	31.683
386.58	32.853
386.78	33.507
386.99	34.024
387.19	31.973
387.40	32.801
387.60	33.819
387.81	33.473
388.01	34.471
388.22	33.659
388.42	34.094
388.63	34.233
388.83	33.784
389.04	33.614
389.24	34.887
389.45	34.314
389.65	34.048
389.86	34.865
390.06	33.737
390.27	34.643
390.47	35.100
390.68	34.333
390.88	34.464
391.09	35.799
391.29	35.414
391.50	34.728
391.70	34.702
391.91	35.077
392.11	34.281
392.32	34.167
392.52	34.400
392.73	34.428
392.93	34.316
393.14	35.035
393.34	35.078
393.55	35.811
393.75	35.489
393.95	35.472
394.16	35.857
394.36	36.345
394.57	35.406
394.77	35.790
394.98	34.526
395.18	36.666
395.39	35.596
395.59	35.757
395.80	37.466
396.00	35.658
396.21	36.254
396.41	35.770
396.61	36.169
396.82	36.816
397.02	36.246
397.23	37.088
397.43	37.863
397.64	35.611
397.84	35.782
398.05	36.052
398.25	36.458
398.45	35.287
398.66	36.108
398.86	36.454
399.07	36.126
399.27	36.646
399.48	36.464
399.68	35.667
399.89	34.856
400.09	37.210
400.29	36.700
400.50	35.821
400.70	36.873
400.91	36.596
401.11	34.888
401.32	36.430
401.52	36.043
401.72	35.731
401.93	37.408
402.13	36.161
402.34	36.602
402.54	35.158
402.75	36.784
402.95	35.852
403.15	35.743
403.36	37.831
403.56	36.395
403.77	34.792
403.97	35.069
404.17	34.567
404.38	34.632
404.58	35.280
404.79	35.514
404.99	35.793
405.19	34.428
405.40	35.164
405.60	35.288
405.81	34.627
406.01	35.492
406.21	34.909
406.42	34.370
406.62	35.111
406.83	34.858
407.03	34.368
407.23	35.009
407.44	35.152
407.64	34.639
407.85	34.655
408.05	35.034
408.25	35.537
408.46	35.538
408.66	35.187
408.87	35.770
409.07	34.588
409.27	33.911
409.48	34.887
409.68	34.215
409.88	33.131
410.09	33.694
410.29	34.195
410.50	34.607
410.70	32.939
410.90	33.497
411.11	34.934
411.31	34.075
411.51	33.829
411.72	34.165
411.92	34.819
412.12	33.508
412.33	33.552
412.53	33.975
412.74	33.642
412.94	33.722
413.14	34.318
413.35	33.270
413.55	33.612
413.75	33.415
413.96	34.464
414.16	33.622
414.36	33.487
414.57	33.375
414.77	33.465
414.97	33.485
415.18	33.366
415.38	32.880
415.58	32.940
415.79	32.140
415.99	32.429
416.19	32.502
416.40	32.247
416.60	32.561
416.80	32.769
417.01	32.433
417.21	32.123
417.41	32.114
417.62	31.688
417.82	31.545
418.02	31.400
418.23	31.342
418.43	31.194
418.63	31.445
418.84	31.134
419.04	30.974
419.24	31.668
419.45	30.881
419.65	31.396
419.85	30.927
420.06	30.492
420.26	31.250
420.46	30.706
420.67	31.064
420.87	29.665
421.07	30.473
421.28	30.560
421.48	30.362
421.68	30.380
421.88	30.679
422.09	31.040
422.29	30.075
422.49	30.487
422.70	30.124
422.90	30.242
423.10	30.363
423.31	30.754
423.51	30.623
423.71	29.985
423.91	29.980
424.12	30.389
424.32	30.529
424.52	30.188
424.73	29.781
424.93	30.098
425.13	30.783
425.33	29.615
425.54	29.933
425.74	30.248
425.94	30.452
426.15	29.838
426.35	30.456
426.55	30.294
426.75	30.110
426.96	30.378
427.16	30.288
427.36	31.090
427.57	31.003
427.77	30.808
427.97	30.933
428.17	30.965
428.38	30.974
428.58	30.887
428.78	31.768
428.98	30.393
429.19	30.491
429.39	30.496
429.59	30.912
429.79	31.025
430.00	29.880
430.20	30.183
430.40	30.919
430.60	30.712
430.81	29.643
431.01	30.165
431.21	29.990
431.41	29.989
431.62	30.178
431.82	29.663
432.02	30.336
432.22	30.488
432.43	30.261
432.63	30.115
432.83	30.141
433.03	29.836
433.24	29.542
433.44	29.540
433.64	29.852
433.84	30.106
434.05	29.826
434.25	29.319
434.45	29.858
434.65	29.836
434.85	29.861
435.06	29.486
435.26	29.905
435.46	30.402
435.66	29.990
435.87	30.195
436.07	29.833
436.27	30.273
436.47	30.857
436.67	30.517
436.88	30.643
437.08	29.970
437.28	30.914
437.48	30.350
437.69	29.848
437.89	30.391
438.09	30.214
438.29	29.870
438.49	30.250
438.70	30.064
438.90	29.773
439.10	29.607
439.30	29.595
439.50	30.218
439.71	29.763
439.91	29.755
440.11	29.862
440.31	29.383
440.51	29.617
440.72	30.018
440.92	29.458
441.12	29.479
441.32	29.875
441.52	29.361
441.72	29.559
441.93	29.661
442.13	30.024
442.33	30.128
442.53	30.061
442.73	29.796
442.94	29.788
443.14	29.802
443.34	30.105
443.54	30.755
443.74	30.014
443.94	30.227
444.15	30.503
444.35	29.849
444.55	30.348
444.75	30.024
444.95	29.799
445.15	29.684
445.36	29.933
445.56	29.600
445.76	29.629
445.96	29.208
446.16	29.750
446.36	29.150
446.57	29.394
446.77	29.421
446.97	28.712
447.17	29.486
447.37	28.839
447.57	29.842
447.77	29.590
447.98	29.030
448.18	29.882
448.38	29.908
448.58	30.013
448.78	30.208
448.98	29.649
449.18	30.006
449.39	29.919
449.59	30.274
449.79	30.382
449.99	30.498
450.19	30.845
450.39	31.173
450.59	30.726
450.79	30.235
451.00	30.001
451.20	31.463
451.40	30.170
451.60	31.059
451.80	30.199
452.00	30.148
452.20	30.885
452.40	30.617
452.61	29.448
452.81	29.963
453.01	29.502
453.21	29.743
453.41	29.636
453.61	30.273
453.81	29.363
454.01	29.659
454.21	30.483
454.42	30.205
454.62	29.951
454.82	30.335
455.02	29.964
455.22	30.022
455.42	30.385
455.62	30.152
455.82	29.772
456.02	29.616
456.23	30.335
456.43	29.785
456.63	29.694
456.83	29.796
457.03	30.161
457.23	30.180
457.43	31.107
457.63	29.860
457.83	29.983
458.03	29.743
458.23	29.842
458.43	29.695
458.64	29.334
458.84	29.305
459.04	29.309
459.24	29.053
459.44	29.197
459.64	28.857
459.84	28.758
460.04	28.329
460.24	28.116
460.44	28.530
460.64	28.428
460.84	28.824
461.04	28.639
461.24	28.952
461.45	28.941
461.65	28.983
461.85	28.757
462.05	29.031
462.25	29.528
462.45	29.984
462.65	29.466
462.85	30.140
463.05	30.067
463.25	29.002
463.45	29.555
463.65	30.040
463.85	29.586
464.05	29.721
464.25	29.694
464.45	29.775
464.65	29.224
464.85	30.183
465.05	29.225
465.26	29.529
465.46	29.044
465.66	29.531
465.86	29.324
466.06	29.786
466.26	29.003
466.46	29.515
466.66	29.091
466.86	29.631
467.06	28.647
467.26	29.000
467.46	29.440
467.66	29.186
467.86	29.309
468.06	29.150
468.26	28.884
468.46	29.334
468.66	29.928
468.86	29.189
469.06	29.663
469.26	29.492
469.46	29.468
469.66	29.281
469.86	29.294
470.06	29.160
470.26	29.400
470.46	29.574
470.66	29.045
470.86	29.310
471.06	29.047
471.26	28.713
471.46	29.372
471.66	29.314
471.86	29.444
472.06	29.252
472.26	29.433
472.46	30.185
472.66	29.464
472.86	29.927
473.06	29.288
473.26	28.962
473.46	29.842
473.66	29.286
473.86	29.251
474.06	29.245
474.26	28.817
474.46	29.478
474.66	29.768
474.86	29.736
475.06	29.919
475.26	30.064
475.46	30.071
475.66	28.944
475.86	29.979
476.06	29.557
476.26	29.504
476.46	29.040
476.66	29.315
476.86	29.298
477.06	28.933
477.26	29.257
477.46	29.450
477.65	29.018
477.85	29.829
478.05	29.569
478.25	28.917
478.45	29.314
478.65	29.045
478.85	29.332
479.05	29.004
479.25	29.303
479.45	28.525
479.65	28.652
479.85	29.844
480.05	29.727
480.25	29.691
480.45	28.984
480.65	29.189
480.85	29.318
481.05	28.743
481.25	29.524
481.44	29.795
481.64	29.320
481.84	29.075
482.04	28.981
482.24	29.097
482.44	28.661
482.64	28.491
482.84	28.303
483.04	28.174
483.24	27.875
483.44	27.885
483.64	27.381
483.84	27.452
484.04	27.364
484.23	27.702
484.43	28.176
484.63	28.603
484.83	28.493
485.03	28.850
485.23	29.060
485.43	29.102
485.63	29.518
485.83	29.557
486.03	29.686
486.23	29.770
486.42	29.840
486.62	29.949
486.82	29.848
487.02	29.053
487.22	28.640
487.42	28.111
487.62	28.178
487.82	28.091
488.02	28.292
488.22	28.223
488.41	27.846
488.61	28.440
488.81	28.523
489.01	28.829
489.21	29.148
489.41	28.903
489.61	29.240
489.81	29.376
490.01	29.450
490.20	29.621
490.40	29.376
490.60	29.632
490.80	28.808
491.00	29.011
491.20	28.631
491.40	28.246
491.60	28.213
491.79	27.928
491.99	28.027
492.19	27.924
492.39	28.292
492.59	28.164
492.79	28.419
492.99	28.601
493.19	28.859
493.38	28.720
493.58	29.175
493.78	29.619
493.98	29.808
494.18	29.735
494.38	29.478
494.58	29.868
494.77	29.203
494.97	29.585
495.17	29.365
495.37	29.449
495.57	29.191
495.77	29.403
495.96	29.378
496.16	28.739
496.36	28.924
496.56	28.650
496.76	28.557
496.96	28.979
497.15	28.513
497.35	28.865
497.55	28.855
497.75	29.290
497.95	29.045
498.15	28.717
498.34	28.555
498.54	28.966
498.74	29.099
498.94	29.479
499.14	29.241
499.34	29.003
499.53	29.289
499.73	29.708
499.93	28.887
500.13	28.791
500.33	29.229
500.52	29.819
500.72	29.678
500.92	29.392
501.12	29.314
501.32	30.115
501.52	29.842
501.71	29.666
501.91	29.529
502.11	29.770
502.31	29.643
502.51	29.787
502.70	29.813
502.90	30.081
503.10	29.624
503.30	29.652
503.50	29.691
503.69	30.430
503.89	30.310
504.09	29.681
504.29	29.325
504.48	29.775
504.68	29.722
504.88	29.997
505.08	30.277
505.28	29.863
505.47	30.093
505.67	29.712
505.87	30.185
506.07	30.408
506.27	30.251
506.46	30.105
506.66	30.176
506.86	30.243
507.06	29.795
507.25	30.025
507.45	30.064
507.65	29.763
507.85	29.831
508.04	29.828
508.24	30.188
508.44	29.310
508.64	29.752
508.83	29.950
509.03	29.790
509.23	30.086
509.43	30.273
509.63	29.786
509.82	30.200
510.02	30.103
510.22	29.555
510.42	29.797
510.61	30.173
510.81	29.675
511.01	30.468
511.21	29.811
511.40	30.238
511.60	30.238
511.80	30.183
511.99	30.226
512.19	30.232
512.39	30.258
512.59	30.158
512.78	30.233
512.98	30.155
513.18	30.486
513.38	30.482
513.57	30.379
513.77	31.051
513.97	30.690
514.17	30.736
514.36	30.957
514.56	30.758
514.76	31.047
514.95	30.815
515.15	31.105
515.35	31.204
515.55	30.135
515.74	31.018
515.94	30.855
516.14	30.355
516.33	30.947
516.53	30.587
516.73	30.930
516.93	31.484
517.12	31.200
517.32	30.244
517.52	30.102
517.71	30.471
517.91	30.427
518.11	30.112
518.30	30.288
518.50	30.289
518.70	29.947
518.90	30.048
519.09	30.147
519.29	30.066
519.49	30.092
519.68	29.699
519.88	30.330
520.08	30.888
520.27	30.824
520.47	30.913
520.67	30.815
520.86	31.360
521.06	31.023
521.26	31.363
521.45	30.894
521.65	31.089
521.85	31.009
522.04	31.001
522.24	31.287
522.44	30.942
522.63	30.681
522.83	31.271
523.03	30.677
523.22	31.017
523.42	31.375
523.62	31.536
523.81	30.974
524.01	30.543
524.21	31.179
524.40	30.959
524.60	30.800
524.80	30.969
524.99	30.417
525.19	31.029
525.39	30.420
525.58	30.146
525.78	30.113
525.98	30.640
526.17	30.301
526.37	30.058
526.57	30.188
526.76	30.478
526.96	30.473
527.15	30.337
527.35	30.878
527.55	30.631
527.74	30.610
527.94	30.283
528.14	29.982
528.33	29.610
528.53	29.354
528.72	29.466
528.92	29.839
529.12	30.171
529.31	30.004
529.51	30.034
529.71	30.246
529.90	30.509
530.10	30.656
530.29	30.706
530.49	31.127
530.69	31.277
530.88	31.514
531.08	31.286
531.28	31.409
531.47	31.037
531.67	30.891
531.86	31.244
532.06	30.999
532.26	30.784
532.45	30.798
532.65	30.767
532.84	30.246
533.04	30.401
533.24	29.873
533.43	29.474
533.63	30.331
533.82	30.173
534.02	30.535
534.22	30.484
534.41	30.349
534.61	31.108
534.80	30.976
535.00	31.141
535.19	31.351
535.39	31.485
535.59	31.478
535.78	31.009
535.98	31.148
536.17	31.068
536.37	30.687
536.57	30.536
536.76	31.001
536.96	30.910
537.15	30.764
537.35	31.221
537.54	31.051
537.74	30.667
537.93	31.802
538.13	31.083
538.33	31.111
538.52	31.608
538.72	31.544
538.91	31.872
539.11	31.936
539.30	31.627
539.50	31.727
539.70	31.125
539.89	31.249
540.09	31.722
540.28	31.182
540.48	31.069
540.67	30.600
540.87	30.238
541.06	30.257
541.26	29.880
541.45	30.324
541.65	30.247
541.85	30.569
542.04	30.344
542.24	30.443
542.43	30.611
542.63	30.459
542.82	30.808
543.02	31.199
543.21	31.647
543.41	31.409
543.60	31.833
543.80	31.729
543.99	31.531
544.19	31.864
544.38	31.735
544.58	31.503
544.77	31.426
544.97	31.749
545.16	31.816
545.36	31.847
545.56	31.915
545.75	31.815
545.95	31.616
546.14	31.671
546.34	31.806
546.53	31.282
546.73	30.902
546.92	31.218
547.12	31.252
547.31	30.989
547.51	31.561
547.70	31.665
547.90	31.711
548.09	31.838
548.29	31.693
548.48	32.122
548.68	31.959
548.87	32.629
549.07	32.551
549.26	31.802
549.46	32.569
549.65	32.832
549.84	32.794
550.04	33.115
550.23	32.865
550.43	32.644
550.62	32.981
550.82	32.636
551.01	32.515
551.21	32.644
551.40	32.397
551.60	32.032
551.79	32.820
551.99	32.762
552.18	32.525
552.38	32.904
552.57	32.091
552.77	32.832
552.96	32.465
553.16	32.355
553.35	32.115
553.54	32.525
553.74	32.937
553.93	32.982
554.13	33.232
554.32	32.428
554.52	33.057
554.71	32.937
554.91	33.275
555.10	33.189
555.29	33.720
555.49	33.873
555.68	32.846
555.88	33.530
556.07	33.538
556.27	32.906
556.46	33.440
556.66	33.024
556.85	33.195
557.04	33.108
557.24	33.374
557.43	33.374
557.63	32.906
557.82	33.713
558.02	33.629
558.21	32.828
558.40	33.945
558.60	34.209
558.79	33.875
558.99	33.937
559.18	33.762
559.38	32.654
559.57	33.707
559.76	33.488
559.96	34.028
560.15	33.642
560.35	33.715
560.54	33.980
560.73	33.483
560.93	33.855
561.12	33.477
561.32	34.203
561.51	33.997
561.70	33.917
561.90	33.829
562.09	33.078
562.29	33.665
562.48	33.318
562.67	33.196
562.87	33.879
563.06	33.611
563.26	34.067
563.45	34.160
563.64	33.520
563.84	33.903
564.03	34.343
564.23	34.107
564.42	33.731
564.61	34.313
564.81	34.333
565.00	33.888
565.20	34.007
565.39	33.556
565.58	32.919
565.78	33.271
565.97	33.834
566.16	34.163
566.36	33.891
566.55	33.616
566.74	33.336
566.94	33.560
567.13	33.131
567.33	33.530
567.52	34.260
567.71	33.536
567.91	34.158
568.10	33.400
568.29	33.476
568.49	33.922
568.68	34.656
568.87	34.099
569.07	34.447
569.26	34.783
569.45	34.066
569.65	33.442
569.84	34.402
570.04	34.073
570.23	33.520
570.42	33.581
570.62	34.242
570.81	34.260
571.00	34.006
571.20	34.091
571.39	34.186
571.58	34.109
571.78	34.095
571.97	33.849
572.16	33.463
572.36	33.258
572.55	33.555
572.74	34.121
572.94	33.581
573.13	34.071
573.32	33.645
573.51	34.541
573.71	33.598
573.90	34.027
574.09	33.916
574.29	33.995
574.48	34.038
574.67	33.889
574.87	34.029
575.06	33.623
575.25	33.984
575.45	34.402
575.64	34.170
575.83	33.933
576.03	35.195
576.22	33.532
576.41	34.235
576.60	34.001
576.80	33.719
576.99	34.347
577.18	34.603
577.38	34.403
577.57	34.531
577.76	34.130
577.95	34.937
578.15	34.835
578.34	35.315
578.53	34.031
578.73	34.334
578.92	34.621
579.11	34.735
579.30	35.275
579.50	34.224
579.69	34.712
579.88	33.696
580.08	34.975
580.27	34.851
580.46	34.020
580.65	34.620
580.85	34.869
581.04	34.404
581.23	34.045
581.42	34.443
581.62	34.624
581.81	34.372
582.00	35.016
582.19	34.516
582.39	34.801
582.58	34.165
582.77	34.579
582.96	34.739
583.16	35.285
583.35	34.448
583.54	34.913
583.73	34.131
583.93	35.123
584.12	35.038
584.31	34.909
584.50	35.326
584.70	34.071
584.89	35.021
585.08	34.686
585.27	34.657
585.47	34.554
585.66	35.178
585.85	35.333
586.04	34.718
586.24	34.848
586.43	33.826
586.62	34.983
586.81	33.830
587.00	34.728
587.20	34.028
587.39	34.744
587.58	33.835
587.77	34.927
587.97	34.234
588.16	34.051
588.35	33.801
588.54	33.996
588.73	33.940
588.93	34.241
589.12	34.213
589.31	34.266
589.50	33.785
589.69	33.713
589.89	33.581
590.08	34.097
590.27	33.799
590.46	33.918
590.65	33.242
590.85	33.262
591.04	33.511
591.23	34.597
591.42	33.827
591.61	33.772
591.81	34.478
592.00	34.431
592.19	33.802
592.38	33.465
592.57	34.058
592.77	34.346
592.96	34.157
593.15	33.876
593.34	34.089
593.53	34.505
593.72	33.617
593.92	33.577
594.11	33.531
594.30	33.980
594.49	33.474
594.68	33.420
594.87	33.751
595.07	33.467
595.26	33.292
595.45	33.811
595.64	34.254
595.83	33.814
596.02	33.540
596.22	33.640
596.41	33.302
596.60	33.578
596.79	33.447
596.98	33.360
597.17	32.908
597.37	33.407
597.56	33.491
597.75	32.968
597.94	33.394
598.13	33.689
598.32	33.573
598.51	34.199
598.71	33.834
598.90	33.528
599.09	34.034
599.28	34.566
599.47	33.896
599.66	34.402
599.85	34.171
600.05	33.588
600.24	33.740
600.43	34.081
600.62	34.495
600.81	34.375
601.00	34.855
601.19	33.976
601.38	33.984
601.58	34.583
601.77	34.553
601.96	34.354
602.15	35.038
602.34	34.752
602.53	34.638
602.72	34.126
602.91	33.623
603.10	33.920
603.30	34.055
603.49	33.313
603.68	32.932
603.87	33.053
604.06	33.457
604.25	33.768
604.44	33.421
604.63	33.185
604.82	33.028
605.01	33.218
605.21	33.084
605.40	32.843
605.59	33.565
605.78	33.544
605.97	32.773
606.16	33.658
606.35	33.520
606.54	34.026
606.73	34.400
606.92	33.965
607.11	33.225
607.30	33.416
607.50	34.010
607.69	34.335
607.88	34.023
608.07	34.659
608.26	34.235
608.45	34.466
608.64	34.356
608.83	33.504
609.02	34.031
609.21	34.153
609.40	34.122
609.59	33.353
609.78	33.075
609.97	33.450
610.16	33.681
610.35	33.699
610.55	33.178
610.74	33.998
610.93	34.104
611.12	33.884
611.31	34.387
611.50	33.617
611.69	33.785
611.88	34.087
612.07	34.246
612.26	34.224
612.45	34.569
612.64	34.717
612.83	34.067
613.02	34.918
613.21	34.648
613.40	34.698
613.59	34.961
613.78	34.321
613.97	34.577
614.16	34.499
614.35	33.987
614.54	34.414
614.73	34.682
614.92	35.636
615.11	34.931
615.30	35.048
615.49	33.564
615.68	34.791
615.87	34.235
616.07	33.483
616.26	34.241
616.45	33.576
616.64	34.021
616.83	33.046
617.02	33.837
617.21	34.008
617.40	34.839
617.59	34.261
617.78	33.669
617.97	34.039
618.16	33.105
618.35	34.050
618.54	33.078
618.73	33.689
618.92	34.120
619.11	33.131
619.30	33.889
619.49	33.117
619.68	32.817
619.86	33.465
620.05	33.660
620.24	33.662
620.43	33.273
620.62	32.801
620.81	33.275
621.00	33.563
621.19	32.767
621.38	33.715
621.57	33.027
621.76	33.579
621.95	33.687
622.14	33.310
622.33	32.570
622.52	33.052
622.71	33.126
622.90	32.478
623.09	33.370
623.28	32.424
623.47	33.579
623.66	33.477
623.85	32.684
624.04	33.150
624.23	33.378
624.42	32.924
624.61	32.335
624.80	33.014
624.99	32.993
625.18	33.274
625.36	33.510
625.55	32.327
625.74	32.888
625.93	33.136
626.12	32.687
626.31	32.784
626.50	32.298
626.69	32.408
626.88	32.540
627.07	32.491
627.26	32.369
627.45	31.933
627.64	31.563
627.83	31.682
628.02	32.163
628.20	32.602
628.39	32.844
628.58	32.590
628.77	32.412
628.96	31.763
629.15	32.383
629.34	31.884
629.53	33.143
629.72	32.587
629.91	33.451
630.10	32.895
630.29	33.189
630.47	33.917
630.66	33.989
630.85	34.271
631.04	35.070
631.23	34.701
631.42	35.158
631.61	34.611
631.80	34.214
631.99	34.061
632.18	33.397
632.36	33.654
632.55	34.647
632.74	32.432
632.93	33.005
633.12	33.486
633.31	33.271
633.50	33.260
633.69	33.227
633.88	33.803
634.06	32.891
634.25	32.936
634.44	32.770
634.63	33.124
634.82	32.442
635.01	33.336
635.20	32.889
635.39	33.685
635.57	32.313
635.76	32.842
635.95	33.724
636.14	32.513
636.33	32.995
636.52	33.251
636.71	32.579
636.89	32.776
637.08	33.531
637.27	32.504
637.46	32.161
637.65	32.474
637.84	32.692
638.03	32.344
638.21	33.502
638.40	32.743
638.59	32.541
638.78	32.740
638.97	33.079
639.16	31.917
639.34	33.014
639.53	31.810
639.72	32.217
639.91	32.731
640.10	32.183
640.29	33.001
640.47	32.681
640.66	33.015
640.85	33.389
641.04	33.206
641.23	32.425
641.42	31.540
641.60	31.702
641.79	33.293
641.98	33.822
642.17	31.231
642.36	33.054
642.54	32.416
642.73	31.831
642.92	32.357
643.11	33.420
643.30	32.630
643.49	34.132
643.67	32.751
643.86	31.587
644.05	32.244
644.24	31.116
644.43	32.225
644.61	32.354
644.80	32.609
644.99	33.304
645.18	33.130
645.37	33.459
645.55	32.829
645.74	32.172
645.93	32.101
646.12	33.376
646.31	32.603
646.49	32.734
646.68	31.771
646.87	33.546
647.06	33.656
647.24	32.936
647.43	32.117
647.62	33.461
647.81	32.625
648.00	32.059
648.18	32.673
648.37	31.802
648.56	32.359
648.75	32.194
648.93	32.464
649.12	33.231
649.31	32.947
649.50	33.039
649.68	32.270
649.87	32.117
650.06	33.133
650.25	31.887
650.43	32.464
650.62	32.416
650.81	31.511
651.00	31.045
651.18	31.644
651.37	31.644
651.56	31.776
651.75	32.574
651.93	31.492
652.12	32.837
652.31	31.543
652.50	32.191
652.68	31.728
652.87	33.150
653.06	31.835
653.25	32.496
653.43	31.478
653.62	31.948
653.81	31.602
654.00	32.368
654.18	31.503
654.37	31.632
654.56	31.736
654.74	31.470
654.93	32.603
655.12	32.530
655.31	31.532
655.49	32.201
655.68	31.697
655.87	31.411
656.05	31.424
656.24	31.940
656.43	31.435
656.62	32.096
656.80	31.559
656.99	32.162
657.18	31.557
657.36	31.771
657.55	30.749
657.74	30.647
657.93	30.625
658.11	31.053
658.30	31.097
658.49	29.870
658.67	31.729
658.86	29.640
659.05	30.938
659.23	30.312
659.42	29.479
659.61	29.464
659.79	29.570
659.98	30.860
660.17	30.018
660.35	28.760
660.54	29.524
660.73	30.425
660.91	29.227
661.10	30.203
661.29	29.332
661.47	29.344
661.66	29.846
661.85	29.934
662.03	29.362
662.22	29.588
662.41	29.906
662.59	29.196
662.78	29.673
662.97	29.528
663.15	29.525
663.34	28.670
663.53	30.295
663.71	28.988
663.90	28.528
664.09	29.879
664.27	28.919
664.46	28.660
664.65	29.355
664.83	28.588
665.02	28.342
665.21	28.733
665.39	28.962
665.58	28.451
665.77	28.125
665.95	28.404
666.14	27.889
666.32	29.152
666.51	27.684
666.70	27.585
666.88	27.856
667.07	29.580
667.26	27.261
667.44	27.734
667.63	29.341
667.81	26.819
668.00	27.924
668.19	28.847
668.37	27.251
668.56	27.731
668.75	26.733
668.93	27.468
669.12	27.096
669.30	27.287
669.49	27.094
669.68	27.417
669.86	27.597
670.05	27.750
670.23	27.405
670.42	27.203
670.61	28.091
670.79	27.210
670.98	26.386
671.16	27.463
671.35	27.215
671.54	26.344
671.72	27.665
671.91	27.021
672.09	26.141
672.28	26.557
672.46	26.614
672.65	27.123
672.84	27.400
673.02	27.235
673.21	27.531
673.39	26.615
673.58	27.560
673.77	27.829
673.95	26.672
674.14	27.715
674.32	26.676
674.51	27.086
674.69	29.153
674.88	27.989
675.07	28.720
675.25	29.194
675.44	27.819
675.62	27.763
675.81	26.625
675.99	29.221
676.18	28.388
676.36	27.672
676.55	26.854
676.74	27.775
676.92	29.165
677.11	27.335
677.29	27.337
677.48	27.540
677.66	28.645
677.85	28.644
678.03	27.213
678.22	28.413
678.40	29.134
678.59	27.802
678.78	27.844
678.96	27.833
679.15	26.991
679.33	29.759
679.52	28.518
679.70	28.372
679.89	28.656
680.07	27.754
680.26	27.126
680.44	27.587
680.63	27.470
680.81	27.273
681.00	26.746
681.18	28.245
681.37	27.658
681.55	29.060
681.74	29.011
681.92	28.523
682.11	29.186
682.29	28.368
682.48	28.345
682.66	28.699
682.85	28.105
683.03	28.464
683.22	29.072
683.40	28.593
683.59	30.449
683.77	29.616
683.96	28.080
684.14	29.989
684.33	28.036
684.51	30.686
684.70	30.229
684.88	31.500
685.07	28.869
685.25	30.471
685.44	30.244
685.62	29.799
685.81	29.699
685.99	30.342
686.18	29.278
686.36	32.035
686.55	29.584
686.73	30.950
686.92	30.783
687.10	29.986
687.29	32.047
687.47	31.571
687.65	30.818
687.84	30.988
688.02	31.770
688.21	32.078
688.39	31.195
688.58	32.620
688.76	31.032
688.95	31.721
689.13	30.972
689.32	33.315
689.50	32.807
689.68	34.068
689.87	31.417
690.05	34.326
690.24	30.648
690.42	32.843
690.61	34.204
690.79	33.071
690.98	34.368
691.16	33.763
691.34	33.403
691.53	34.645
691.71	32.783
691.90	34.626
692.08	35.019
692.27	34.574
692.45	34.750
692.63	34.292
692.82	36.317
693.00	35.241
693.19	34.184
693.37	33.855
693.56	35.321
693.74	35.578
693.92	37.562
694.11	35.724
694.29	34.238
694.48	36.286
694.66	38.254
694.84	36.564
695.03	34.967
695.21	36.208
695.40	37.281
695.58	36.787
695.76	37.337
695.95	36.210
696.13	36.855
696.32	35.789
696.50	38.553
696.68	38.583
696.87	36.077
697.05	38.138
697.24	38.027
697.42	37.351
697.60	37.236
697.79	37.421
697.97	37.304
698.16	36.926
698.34	35.367
698.52	35.126
698.71	35.668
698.89	35.329
699.07	35.780
699.26	34.970
699.44	35.042
699.63	35.004
699.81	35.314
699.99	36.558
700.18	36.111
700.36	36.684
700.54	36.591
700.73	37.959
700.91	37.800
701.09	37.128
701.28	38.275
701.46	37.916
701.64	37.048
701.83	36.459
702.01	38.017
702.20	40.320
702.38	38.303
702.56	37.580
702.75	40.091
702.93	37.200
703.11	38.263
703.30	38.835
703.48	39.708
703.66	39.081
703.85	39.751
704.03	40.087
704.21	38.823
704.40	41.172
704.58	40.016
704.76	40.574
704.95	40.707
705.13	39.781
705.31	40.671
705.50	40.671
705.68	40.928
705.86	41.842
706.04	41.867
706.23	41.864
706.41	42.417
706.59	41.869
706.78	40.908
706.96	40.142
707.14	39.395
707.33	41.159
707.51	39.647
707.69	40.539
707.88	40.451
708.06	39.357
708.24	42.597
708.42	39.615
708.61	41.320
708.79	40.798
708.97	41.400
709.16	41.458
709.34	43.816
709.52	39.133
709.71	42.526
709.89	39.840
710.07	40.097
710.25	40.800
710.44	41.726
710.62	41.748
710.80	41.238
710.98	41.918
711.17	41.965
711.35	41.444
711.53	42.065
711.72	41.361
711.90	41.260
712.08	40.336
712.26	40.943
712.45	42.308
712.63	40.745
712.81	40.537
712.99	40.783
713.18	39.349
713.36	41.403
713.54	40.357
713.72	41.232
713.91	40.361
714.09	40.765
714.27	41.945
714.45	41.303
714.64	40.339
714.82	41.939
715.00	41.879
715.18	39.875
715.37	39.102
715.55	40.108
715.73	41.367
715.91	40.415
716.10	40.956
716.28	40.294
716.46	40.963
716.64	38.786
716.83	39.618
717.01	40.425
717.19	41.739
717.37	40.514
717.55	40.317
717.74	39.259
717.92	40.892
718.10	42.005
718.28	40.685
718.47	40.471
718.65	40.833
718.83	40.778
719.01	41.716
719.19	40.637
719.38	41.583
719.56	42.584
719.74	41.440
719.92	40.236
720.10	39.867
720.29	41.943
720.47	43.234
720.65	43.180
720.83	40.985
721.01	41.148
721.20	41.041
721.38	42.801
721.56	43.003
721.74	42.968
721.92	44.402
722.11	43.612
722.29	41.446
722.47	43.327
722.65	43.203
722.83	45.340
723.01	39.895
723.20	42.606
723.38	42.964
723.56	41.660
723.74	44.926
723.92	44.622
724.10	45.204
724.29	41.887
724.47	44.335
724.65	42.999
724.83	46.459
725.01	42.955
725.19	43.061
725.38	43.178
725.56	44.439
725.74	42.148
725.92	43.155
726.10	43.023
726.28	44.691
726.46	43.205
726.65	42.003
726.83	43.594
727.01	43.255
727.19	41.344
727.37	43.197
727.55	43.555
727.73	43.319
727.92	43.661
728.10	41.949
728.28	41.272
728.46	43.611
728.64	41.832
728.82	43.394
729.00	42.293
729.19	43.168
729.37	43.258
729.55	42.904
729.73	42.067
729.91	41.648
730.09	40.916
730.27	42.672
730.45	39.802
730.63	43.197
730.82	43.011
731.00	42.057
731.18	42.977
731.36	44.282
731.54	42.972
731.72	42.867
731.90	43.889
732.08	42.745
732.26	42.262
732.45	42.938
732.63	42.793
732.81	41.088
732.99	42.870
733.17	44.253
733.35	41.345
733.53	43.126
733.71	42.790
733.89	43.415
734.07	42.234
734.25	43.629
734.44	43.304
734.62	42.971
734.80	42.831
734.98	41.997
735.16	44.182
735.34	42.073
735.52	42.687
735.70	45.903
735.88	45.955
736.06	46.559
736.24	47.147
736.42	47.519
736.60	46.551
736.78	44.658
736.97	44.837
737.15	44.512
737.33	47.132
737.51	44.938
737.69	44.957
737.87	45.746
738.05	45.790
738.23	46.502
738.41	46.054
738.59	47.555
738.77	45.419
738.95	46.124
739.13	44.926
739.31	45.983
739.49	47.903
739.67	47.747
739.85	44.518
740.03	43.696
740.21	41.832
740.39	47.213
740.57	45.635
740.75	46.483
740.93	45.265
741.11	45.364
741.30	43.743
741.48	48.264
741.66	47.703
741.84	49.067
742.02	43.746
742.20	47.448
742.38	44.360
742.56	46.988
742.74	44.499
742.92	47.373
743.10	46.422
743.28	47.294
743.46	47.130
743.64	46.552
743.82	45.189
744.00	49.704
744.18	47.386
744.36	47.019
744.54	46.851
744.72	46.840
744.90	48.161
745.08	48.476
745.26	46.581
745.44	47.320
745.62	50.278
745.80	44.175
745.98	45.847
746.16	48.702
746.34	48.916
746.52	46.745
746.70	46.698
746.87	48.458
747.05	50.410
747.23	47.493
747.41	49.670
747.59	45.767
747.77	45.829
747.95	49.616
748.13	49.535
748.31	49.982
748.49	47.636
748.67	52.511
748.85	47.624
749.03	46.543
749.21	48.767
749.39	47.283
749.57	47.651
749.75	49.465
749.93	48.589
750.11	48.078
750.29	49.117
750.47	48.159
750.65	48.122
750.83	47.795
751.01	45.455
751.18	47.219
751.36	46.178
751.54	45.875
751.72	48.988
751.90	47.179
752.08	46.228
752.26	46.877
752.44	49.658
752.62	48.147
752.80	47.095
752.98	47.787
753.16	45.220
753.34	43.640
753.52	47.091
753.69	46.352
753.87	46.836
754.05	47.508
754.23	48.036
754.41	47.257
754.59	48.573
754.77	49.394
754.95	44.862
755.13	45.114
755.31	48.601
755.49	46.381
755.66	46.196
755.84	47.161
756.02	44.766
756.20	46.886
756.38	48.609
756.56	46.816
756.74	45.947
756.92	46.402
757.10	46.290
757.28	50.036
757.45	51.345
757.63	49.608
757.81	48.289
757.99	51.744
758.17	47.611
758.35	49.412
758.53	48.007
758.71	48.796
758.88	46.488
759.06	49.521
759.24	45.458
759.42	46.607
759.60	41.650
759.78	44.221
759.96	40.831
760.13	43.063
760.31	37.279
760.49	42.215
760.67	38.974
760.85	42.202
761.03	37.172
761.21	38.335
761.38	36.413
761.56	41.146
761.74	38.357
761.92	39.183
762.10	36.150
762.28	41.173
762.46	38.703
762.63	37.837
762.81	40.576
762.99	38.975
763.17	38.765
763.35	40.131
763.53	38.718
763.70	39.195
763.88	39.738
764.06	40.514
764.24	38.564
764.42	37.547
764.60	39.586
764.77	40.000
764.95	40.554
765.13	39.348
765.31	39.799
765.49	37.668
765.66	39.601
765.84	40.871
766.02	40.509
766.20	42.146
766.38	41.285
766.56	43.431
766.73	42.584
766.91	41.796
767.09	43.851
767.27	44.572
767.45	45.159
767.62	44.136
767.80	45.043
767.98	45.219
768.16	46.669
768.33	47.793
768.51	45.622
768.69	47.433
768.87	46.600
769.05	45.857
769.22	45.578
769.40	48.276
769.58	50.541
769.76	49.317
769.94	48.166
770.11	50.042
770.29	48.045
770.47	50.735
770.65	49.697
770.82	54.266
771.00	50.590
771.18	51.642
771.36	51.808
771.53	50.000
771.71	49.091
771.89	54.110
772.07	46.710
772.25	47.484
772.42	47.641
772.60	50.276
772.78	47.379
772.96	51.181
773.13	52.803
773.31	50.468
773.49	49.874
773.67	46.919
773.84	51.098
774.02	46.670
774.20	45.787
774.37	52.340
774.55	49.312
774.73	50.356
774.91	46.736
775.08	52.101
775.26	53.381
775.44	52.726
775.62	49.290
775.79	48.545
775.97	48.768
776.15	46.762
776.32	46.907
776.50	47.897
776.68	51.758
776.86	52.473
777.03	49.590
777.21	53.312
777.39	48.774
777.56	52.980
777.74	47.581
777.92	53.564
778.10	48.058
778.27	50.862
778.45	50.808
778.63	48.931
778.80	47.906
778.98	49.801
779.16	51.864
779.34	47.876
779.51	49.722
779.69	49.562
779.87	51.183
780.04	53.006
780.22	48.272
780.40	49.861
780.57	52.881
780.75	50.087
780.93	54.813
781.10	50.776
781.28	56.145
781.46	53.143
781.63	53.156
781.81	51.666
781.99	50.029
782.16	48.802
782.34	48.426
782.52	53.109
782.69	53.465
782.87	55.648
783.05	47.301
783.22	54.605
783.40	49.666
783.58	54.437
783.75	50.706
783.93	54.096
784.11	48.437
784.28	58.385
784.46	52.338
784.64	53.008
784.81	51.231
784.99	56.418
785.17	52.526
785.34	48.383
785.52	47.826
785.69	53.924
785.87	45.936
786.05	52.600
786.22	49.114
786.40	58.306
786.58	51.533
786.75	55.156
786.93	52.336
787.11	48.981
787.28	52.232
787.46	53.921
787.63	50.158
787.81	49.352
787.99	47.893
788.16	47.359
788.34	48.436
788.51	49.238
788.69	47.985
788.87	47.838
789.04	49.064
789.22	49.153
789.39	47.640
789.57	44.918
789.75	50.936
789.92	51.848
790.10	47.654
790.27	46.392
790.45	47.426
790.63	51.600
790.80	43.160
790.98	51.214
791.15	50.648
791.33	50.932
791.51	49.204
791.68	51.558
791.86	49.270
792.03	46.887
792.21	44.545
792.39	52.668
792.56	53.350
792.74	48.761
792.91	49.968
793.09	44.530
793.26	46.233
793.44	51.395
793.62	47.047
793.79	55.800
793.97	45.243
794.14	48.645
794.32	46.788
794.49	47.251
794.67	47.781
794.84	47.158
795.02	46.096
795.20	48.757
795.37	49.764
795.55	49.285
795.72	47.826
795.90	48.772
796.07	50.814
796.25	45.291
796.42	46.861
796.60	46.399
796.77	47.898
796.95	49.387
797.13	48.951
797.30	47.184
797.48	47.555
797.65	50.315
797.83	45.090
798.00	50.655
798.18	46.419
798.35	51.675
798.53	48.787
798.70	51.571
798.88	46.716
799.05	48.396
799.23	48.315
799.40	48.276
799.58	45.948
799.75	47.979
799.93	52.591
800.10	48.716
800.28	45.930
800.45	48.907
800.63	45.939
800.80	55.010
800.98	50.203
801.15	48.704
801.33	45.171
801.50	47.835
801.68	44.604
801.85	48.125
802.03	46.956
802.20	53.132
802.38	46.800
802.55	44.523
802.73	45.166
802.90	47.368
803.08	49.686
803.25	57.650
803.43	47.681
803.60	46.306
803.78	54.440
803.95	49.639
804.13	50.942
804.30	52.091
804.48	47.138
804.65	52.231
804.83	47.183
805.00	46.341
805.17	51.302
805.35	52.877
805.52	48.799
805.70	45.768
805.87	56.122
806.05	42.444
806.22	42.402
806.40	46.263
806.57	50.185
806.75	48.443
806.92	48.304
807.09	50.852
807.27	49.683
807.44	47.860
807.62	46.249
807.79	51.443
807.97	44.905
808.14	50.148
808.31	44.575
808.49	53.308
808.66	41.748
808.84	46.517
809.01	49.919
809.19	45.212
809.36	52.216
809.53	47.727
809.71	51.235
809.88	45.348
810.06	52.215
810.23	48.372
810.41	52.196
810.58	57.765
810.75	49.034
810.93	49.191
811.10	50.124
811.28	55.585
811.45	42.588
811.62	41.944
811.80	53.647
811.97	49.435
812.15	57.855
812.32	46.006
812.49	52.593
812.67	48.113
812.84	52.675
813.02	54.766
813.19	50.216
813.36	49.137
813.54	45.089
813.71	49.236
813.89	46.778
814.06	51.624
814.23	48.925
814.41	42.711
814.58	53.910
814.75	45.181
814.93	41.439
815.10	52.864
815.28	48.830
815.45	41.609
815.62	43.533
815.80	40.070
815.97	48.561
816.14	47.598
816.32	46.295
816.49	49.734
816.66	41.822
816.84	47.562
817.01	46.641
817.18	46.093
817.36	45.837
817.53	48.605
817.71	34.629
817.88	48.216
818.05	40.714
818.23	44.115
818.40	34.516
818.57	46.733
818.75	42.502
818.92	41.712
819.09	44.261
819.27	44.158
819.44	42.007
819.61	44.724
819.79	42.880
819.96	49.058
820.13	39.217
820.31	42.584
820.48	43.490
820.65	41.815
820.82	38.006
821.00	44.244
821.17	32.925
821.34	41.141
821.52	37.668
821.69	35.726
821.86	38.971
822.04	35.340
822.21	38.939
822.38	38.163
822.56	37.047
822.73	37.254
822.90	37.137
823.07	36.428
823.25	37.359
823.42	35.720
823.59	36.346
823.77	35.496
823.94	36.397
824.11	35.973
824.29	36.030
824.46	36.429
824.63	36.780
824.80	37.616
824.98	37.631
825.15	37.939
825.32	37.843
825.49	39.068
825.67	38.071
825.84	38.018
826.01	37.187
826.19	39.487
826.36	36.860
826.53	44.975
826.70	39.060
826.88	39.244
827.05	36.725
827.22	38.289
827.39	36.631
827.57	35.966
827.74	35.185
827.91	38.487
828.08	35.434
828.26	36.455
828.43	36.267
828.60	37.778
828.77	35.899
828.95	38.908
829.12	34.226
829.29	34.869
829.46	37.069
829.64	35.936
829.81	32.153
829.98	36.683
830.15	35.905
830.32	43.525
830.50	33.707
830.67	48.350
830.84	36.180
831.01	31.777
831.19	39.159
831.36	38.633
831.53	39.066
831.70	49.379
831.87	36.404
832.05	42.170
832.22	45.555
832.39	39.984
832.56	34.615
832.74	37.427
832.91	36.603
833.08	43.438
833.25	39.909
833.42	40.181
833.60	33.929
833.77	33.482
833.94	37.399
834.11	36.155
834.28	33.491
834.45	35.661
834.63	37.136
834.80	35.953
834.97	35.741
835.14	37.887
835.31	37.991
835.49	37.131
835.66	38.077
835.83	35.912
836.00	36.852
836.17	36.655
836.34	37.440
836.52	36.885
836.69	39.074
836.86	41.010
837.03	37.044
837.20	43.954
837.37	37.101
837.55	38.919
837.72	39.232
837.89	44.072
838.06	50.427
838.23	46.161
838.40	46.707
838.58	42.712
838.75	40.498
838.92	47.797
839.09	60.384
839.26	51.042
839.43	44.893
839.60	55.216
839.78	62.385
839.95	44.668
840.12	47.488
840.29	59.255
840.46	44.593
840.63	44.495
840.80	48.511
840.98	56.906
841.15	49.688
841.32	52.230
841.49	43.391
841.66	55.592
841.83	42.331
842.00	39.535
842.17	54.348
842.34	49.946
842.52	51.250
842.69	55.381
842.86	51.337
843.03	64.676
843.20	61.518
843.37	51.654
843.54	55.842
843.71	59.420
843.88	60.905
844.06	66.355
844.23	69.821
844.40	59.021
844.57	62.000
844.74	64.391
844.91	61.229
845.08	64.727
845.25	63.230
845.42	62.141
845.59	62.708
845.76	58.994
845.94	92.754
846.11	72.128
846.28	87.500
846.45	67.807
846.62	77.467
846.79	80.632
846.96	51.417
847.13	61.303
847.30	67.521
847.47	54.247
847.64	71.519
847.81	69.281
847.98	87.221
848.15	73.890
848.32	72.769
848.50	64.387
848.67	70.716
848.84	91.971
849.01	81.356
849.18	85.455
849.35	101.695
849.52	80.652
849.69	81.481
849.86	100.242
850.03	77.732
850.20	79.075
850.37	79.655
850.54	79.024
850.71	90.113
850.88	83.776
851.05	81.340
851.22	91.089
851.39	79.050
851.56	66.584
851.73	104.545
851.90	77.888
852.07	88.083
852.24	85.388
852.41	59.829
852.58	69.895
852.75	80.866
852.92	69.975
853.09	91.821
853.26	90.714
853.43	89.538
853.60	90.116
853.77	76.658
853.94	81.366
854.11	108.540
854.28	84.399
854.45	77.039
854.62	92.540
854.79	101.105
854.96	74.194
855.13	84.892
855.30	79.452
855.47	82.012
855.64	68.224
855.81	68.071
855.98	100.278
856.15	93.490
856.32	93.603
856.49	85.641
856.66	78.846
856.83	71.046
857.00	62.295
857.17	104.301
857.34	84.840
857.51	72.581
857.68	86.378
857.85	91.117
858.02	83.641
858.19	88.462
858.36	92.414
858.53	81.437
858.70	83.161
858.87	102.778
859.04	75.000
859.21	66.859
859.38	92.086
859.55	98.969
859.72	80.387
859.89	103.073
860.05	88.452
860.22	137.179
860.39	83.537
860.56	88.450
860.73	95.059
860.90	99.373
861.07	84.507
861.24	73.747
861.41	84.182
861.58	91.667
861.75	92.767
861.92	88.647
862.09	89.378
862.26	71.053
862.43	96.774
862.59	103.584
862.76	80.435
862.93	98.378
863.10	88.696
863.27	93.220
863.44	72.275
863.61	95.092
863.78	84.910
863.95	81.152
864.12	74.253
864.29	82.920
864.45	79.687
864.62	75.066
864.79	89.974
864.96	98.789
865.13	79.670
865.30	85.185
865.47	71.030
865.64	90.263
865.81	72.654
865.97	72.240
866.14	76.316
866.31	85.417
866.48	87.407
866.65	74.541
866.82	86.183
866.99	88.657
867.16	74.238
867.33	97.179
867.49	97.551
867.66	81.299
867.83	70.350
868.00	81.975
868.17	77.020
868.34	109.890
868.51	72.068
868.67	80.059
868.84	92.063
869.01	103.871
869.18	70.100
869.35	87.903
869.52	67.967
869.69	93.410
869.85	76.684
870.02	87.919
870.19	97.444
870.36	100.000
870.53	75.587
870.70	90.083
870.86	74.545
871.03	78.261
871.20	88.525
871.37	87.342
871.54	104.598
871.71	79.607
871.87	70.732
872.04	86.413
872.21	65.230
872.38	109.226
872.55	96.620
872.72	66.485
872.88	79.404
873.05	70.961
873.22	90.213
873.39	88.503
873.56	105.797
873.72	70.419
873.89	79.221
874.06	68.915
874.23	79.468
874.40	88.957
874.56	106.587
874.73	78.589
874.90	78.261
875.07	90.909
875.24	91.139
875.40	70.548
875.57	73.034
875.74	93.803
875.91	64.720
876.08	82.388
876.24	98.103
876.41	91.501
876.58	75.893
876.75	78.873
876.92	89.542
877.08	71.429
877.25	65.736
877.42	67.622
877.59	52.819
877.75	97.399
877.92	79.255
878.09	74.935
878.26	72.063
878.42	95.882
878.59	82.493
878.76	70.823
878.93	74.818
879.09	72.727
879.26	48.913
879.43	71.622
879.60	76.709
879.76	56.262
879.93	51.498
880.10	61.992
880.27	57.553
880.43	57.614
880.60	59.798
880.77	42.140
880.94	46.369
881.10	42.158
881.27	40.595
881.44	30.292
881.61	38.759
881.77	37.401
881.94	37.092
882.11	29.933
882.28	28.401
882.44	31.670
882.61	34.581
882.78	33.787
882.94	37.525
883.11	32.720
883.28	33.085
883.45	32.243
883.61	36.118
883.78	33.593
883.95	35.334
884.11	34.974
884.28	32.539
>>>>>End Processed Spectral Data<<<<<
