SpectraSuite Data File
++++++++++++++++++++++++++++++++++++
Date: Mon Sep 23 03:24:11 EST 2019
User: sgrac
Dark Spectrum Present: Yes
Reference Spectrum Present: Yes
Number of Sampled Component Spectra: 1
Spectrometers: USB4E01596
Integration Time (usec): 100000 (USB4E01596)
Spectra Averaged: 3 (USB4E01596)
Boxcar Smoothing: 0 (USB4E01596)
Correct for Electrical Dark: No (USB4E01596)
Strobe/Lamp Enabled: Yes (USB4E01596)
Correct for Detector Non-linearity: No (USB4E01596)
Correct for Stray Light: No (USB4E01596)
Number of Pixels in Processed Spectrum: 3648
>>>>>Begin Processed Spectral Data<<<<<
178.44	1107.692
178.66	1107.692
178.87	1107.692
179.09	5733.333
179.30	-5475.000
179.52	-522.581
179.74	-366.038
179.95	561.364
180.17	-566.667
180.38	456.140
180.60	-2690.909
180.82	533.333
181.03	3816.667
181.25	-2275.000
181.46	-932.000
181.68	954.167
181.89	-488.636
182.11	-1518.750
182.33	-1643.750
182.54	522.917
182.76	4016.667
182.97	-440.426
183.19	965.000
183.40	255.372
183.62	324.359
183.84	298.182
184.05	3485.714
184.27	395.455
184.48	359.091
184.70	1282.353
184.91	1176.190
185.13	1840.000
185.34	-9100.000
185.56	1034.615
185.78	329.167
185.99	769.444
186.21	345.455
186.42	-2675.000
186.64	1010.000
186.85	-4300.000
187.07	304.000
187.28	338.158
187.50	389.091
187.72	296.154
187.93	594.545
188.15	241.667
188.36	319.737
188.58	446.939
188.79	246.154
189.01	391.549
189.22	737.838
189.44	-824.242
189.65	268.644
189.87	-4525.000
190.09	363.492
190.30	709.524
190.52	425.000
190.73	584.783
190.95	-3750.000
191.16	298.810
191.38	358.108
191.59	332.353
191.81	483.871
192.02	1180.000
192.24	703.125
192.45	670.588
192.67	-1500.000
192.88	326.415
193.10	478.689
193.31	725.000
193.53	230.645
193.74	270.667
193.96	1735.714
194.18	738.462
194.39	1426.667
194.61	373.973
194.82	1222.727
195.04	248.780
195.25	-345.614
195.47	-305.556
195.68	3516.667
195.90	440.000
196.11	322.388
196.33	17000.000
196.54	621.951
196.76	1592.857
196.97	344.156
197.19	529.730
197.40	1728.571
197.62	244.954
197.83	593.548
198.05	540.000
198.26	551.724
198.48	384.507
198.69	360.000
198.91	961.111
199.12	634.884
199.34	484.783
199.55	354.286
199.77	1800.000
199.98	991.176
200.20	227.632
200.41	509.677
200.63	263.717
200.84	1192.857
201.06	2111.111
201.27	419.512
201.49	357.746
201.70	-653.333
201.91	365.278
202.13	518.644
202.34	308.621
202.56	-740.000
202.77	466.667
202.99	5450.000
203.20	-2412.500
203.42	1575.000
203.63	202.632
203.85	3183.333
204.06	474.000
204.28	196.970
204.49	509.259
204.71	345.763
204.92	784.615
205.14	0.000
205.35	880.000
205.56	-780.000
205.78	5140.000
205.99	-1650.000
206.21	10350.000
206.42	361.364
206.64	690.323
206.85	588.889
207.07	-2400.000
207.28	374.138
207.50	550.000
207.71	880.645
207.93	367.470
208.14	-681.481
208.35	530.909
208.57	972.000
208.78	-2088.889
209.00	324.468
209.21	-12450.000
209.43	-5933.333
209.64	-1520.000
209.86	247.423
210.07	350.000
210.28	388.732
210.50	834.483
210.71	376.471
210.93	191.176
211.14	300.000
211.36	1750.000
211.57	439.394
211.78	381.429
212.00	377.647
212.21	340.000
212.43	730.769
212.64	338.298
212.86	363.514
213.07	281.651
213.29	-616.667
213.50	252.174
213.71	222.989
213.93	320.732
214.14	1581.818
214.36	294.118
214.57	294.937
214.78	700.000
215.00	243.750
215.21	710.000
215.43	543.243
215.64	282.540
215.86	215.000
216.07	588.571
216.28	650.000
216.50	260.000
216.71	16500.000
216.93	434.848
217.14	1050.000
217.35	246.212
217.57	232.432
217.78	281.481
218.00	252.525
218.21	952.174
218.42	546.809
218.64	283.929
218.85	438.000
219.07	855.000
219.28	212.150
219.49	462.745
219.71	376.923
219.92	156.716
220.14	255.670
220.35	330.667
220.56	257.471
220.78	242.308
220.99	244.355
221.21	216.129
221.42	285.185
221.63	145.087
221.85	298.462
222.06	398.571
222.28	340.000
222.49	172.973
222.70	225.984
222.92	589.796
223.13	300.000
223.34	179.433
223.56	208.333
223.77	277.500
223.99	267.368
224.20	360.714
224.41	290.411
224.63	302.273
224.84	186.486
225.05	99.145
225.27	132.174
225.48	232.353
225.69	208.271
225.91	258.108
226.12	247.287
226.34	161.074
226.55	152.518
226.76	201.875
226.98	120.000
227.19	97.266
227.40	225.781
227.62	124.868
227.83	98.712
228.04	94.413
228.26	69.152
228.47	61.756
228.69	39.848
228.90	22.388
229.11	40.204
229.33	48.746
229.54	28.700
229.75	33.050
229.97	28.668
230.18	33.034
230.39	26.881
230.61	34.440
230.82	31.497
231.03	19.302
231.25	32.859
231.46	29.864
231.67	32.765
231.89	40.251
232.10	36.546
232.31	48.056
232.53	42.784
232.74	56.822
232.95	39.746
233.17	44.800
233.38	36.345
233.59	43.785
233.81	56.703
234.02	39.679
234.23	53.546
234.45	47.743
234.66	57.522
234.87	38.525
235.09	37.621
235.30	26.795
235.51	48.399
235.73	43.228
235.94	37.155
236.15	43.924
236.36	35.888
236.58	33.073
236.79	39.086
237.00	42.815
237.22	43.367
237.43	39.143
237.64	41.417
237.86	40.602
238.07	53.436
238.28	40.645
238.50	40.541
238.71	30.216
238.92	34.219
239.13	34.576
239.35	37.636
239.56	44.876
239.77	48.823
239.99	32.863
240.20	37.119
240.41	39.742
240.63	35.310
240.84	31.592
241.05	22.128
241.26	31.367
241.48	17.785
241.69	17.694
241.90	14.718
242.12	17.056
242.33	20.588
242.54	13.066
242.75	17.868
242.97	14.924
243.18	10.219
243.39	11.708
243.61	13.923
243.82	12.045
244.03	11.754
244.24	13.126
244.46	16.445
244.67	15.370
244.88	14.486
245.09	13.823
245.31	16.454
245.52	14.587
245.73	11.245
245.95	28.590
246.16	16.573
246.37	14.470
246.58	15.150
246.80	13.593
247.01	12.601
247.22	8.897
247.43	12.192
247.65	7.734
247.86	9.908
248.07	6.859
248.28	9.469
248.50	9.152
248.71	8.068
248.92	8.239
249.13	8.167
249.35	9.598
249.56	9.406
249.77	10.172
249.98	9.320
250.20	12.142
250.41	11.640
250.62	12.920
250.83	12.876
251.05	16.588
251.26	12.539
251.47	15.874
251.68	14.681
251.90	17.037
252.11	12.835
252.32	13.435
252.53	16.024
252.75	16.119
252.96	13.951
253.17	13.589
253.38	11.679
253.59	14.791
253.81	12.810
254.02	9.991
254.23	13.584
254.44	10.088
254.66	9.945
254.87	13.757
255.08	17.095
255.29	14.950
255.50	14.543
255.72	15.357
255.93	18.834
256.14	17.797
256.35	16.949
256.57	22.790
256.78	17.674
256.99	15.315
257.20	20.975
257.41	17.721
257.63	20.040
257.84	18.691
258.05	13.982
258.26	17.594
258.47	13.029
258.69	14.330
258.90	10.085
259.11	11.445
259.32	12.793
259.53	8.064
259.75	8.939
259.96	8.159
260.17	9.512
260.38	5.586
260.59	7.928
260.81	5.877
261.02	6.853
261.23	7.385
261.44	6.496
261.65	6.656
261.87	6.310
262.08	7.478
262.29	6.942
262.50	6.356
262.71	7.495
262.92	8.060
263.14	7.192
263.35	9.587
263.56	9.014
263.77	9.266
263.98	12.622
264.20	11.412
264.41	11.494
264.62	11.296
264.83	10.925
265.04	13.571
265.25	14.927
265.47	12.506
265.68	13.207
265.89	11.980
266.10	9.287
266.31	14.541
266.52	11.646
266.74	8.376
266.95	12.332
267.16	13.705
267.37	8.707
267.58	10.125
267.79	10.710
268.01	9.588
268.22	10.184
268.43	11.284
268.64	10.575
268.85	7.695
269.06	8.933
269.27	12.192
269.49	8.399
269.70	10.007
269.91	10.297
270.12	8.663
270.33	11.359
270.54	8.476
270.75	8.408
270.97	10.456
271.18	9.625
271.39	9.169
271.60	9.293
271.81	8.676
272.02	7.598
272.23	8.777
272.45	9.459
272.66	6.296
272.87	7.209
273.08	5.303
273.29	8.580
273.50	7.151
273.71	7.015
273.92	4.096
274.14	7.544
274.35	7.341
274.56	7.274
274.77	8.312
274.98	7.573
275.19	8.159
275.40	8.447
275.61	7.690
275.83	11.792
276.04	8.625
276.25	12.048
276.46	7.681
276.67	8.657
276.88	11.156
277.09	8.395
277.30	8.586
277.51	9.501
277.73	8.585
277.94	9.088
278.15	10.986
278.36	8.799
278.57	5.304
278.78	8.765
278.99	11.252
279.20	8.960
279.41	12.374
279.62	8.054
279.84	8.061
280.05	8.219
280.26	9.383
280.47	7.315
280.68	7.519
280.89	10.657
281.10	8.720
281.31	7.465
281.52	9.224
281.73	7.386
281.94	6.108
282.16	8.487
282.37	3.961
282.58	7.072
282.79	9.975
283.00	10.526
283.21	6.011
283.42	4.641
283.63	9.532
283.84	6.652
284.05	7.966
284.26	7.078
284.47	7.818
284.68	7.045
284.89	6.711
285.11	7.508
285.32	5.200
285.53	7.327
285.74	8.288
285.95	5.222
286.16	6.750
286.37	5.654
286.58	6.498
286.79	5.861
287.00	5.808
287.21	5.246
287.42	5.278
287.63	7.614
287.84	5.430
288.05	6.321
288.26	5.243
288.48	7.107
288.69	3.851
288.90	7.065
289.11	8.245
289.32	6.671
289.53	7.617
289.74	6.217
289.95	6.284
290.16	7.119
290.37	5.039
290.58	5.447
290.79	4.784
291.00	4.271
291.21	4.254
291.42	5.125
291.63	6.433
291.84	7.635
292.05	5.278
292.26	4.958
292.47	6.505
292.68	4.811
292.89	5.372
293.10	7.734
293.31	6.636
293.52	3.977
293.73	7.631
293.94	5.330
294.15	6.036
294.36	7.524
294.57	7.590
294.79	6.168
295.00	5.207
295.21	6.497
295.42	5.851
295.63	6.188
295.84	5.239
296.05	4.603
296.26	3.363
296.47	4.667
296.68	4.768
296.89	8.949
297.10	5.652
297.31	6.919
297.52	2.595
297.73	6.536
297.94	4.238
298.15	4.724
298.36	4.900
298.57	4.151
298.78	5.293
298.99	5.017
299.20	5.846
299.41	6.116
299.62	5.367
299.83	4.592
300.04	4.756
300.25	5.105
300.46	6.969
300.67	7.867
300.88	5.957
301.09	6.048
301.30	7.179
301.50	6.732
301.71	7.856
301.92	7.003
302.13	6.285
302.34	5.615
302.55	5.634
302.76	4.737
302.97	5.085
303.18	6.896
303.39	5.179
303.60	6.756
303.81	6.267
304.02	4.110
304.23	6.917
304.44	5.616
304.65	3.450
304.86	7.339
305.07	4.588
305.28	5.149
305.49	6.209
305.70	7.152
305.91	5.436
306.12	5.718
306.33	4.469
306.54	5.598
306.75	5.933
306.96	8.561
307.17	6.330
307.38	5.470
307.58	6.048
307.79	6.256
308.00	7.641
308.21	5.832
308.42	5.586
308.63	6.490
308.84	5.448
309.05	6.515
309.26	4.968
309.47	6.448
309.68	6.540
309.89	6.202
310.10	6.975
310.31	5.263
310.52	4.250
310.73	6.388
310.94	3.278
311.14	5.475
311.35	4.884
311.56	5.625
311.77	3.714
311.98	4.773
312.19	5.071
312.40	3.717
312.61	3.670
312.82	5.138
313.03	4.106
313.24	6.081
313.45	5.836
313.66	4.248
313.86	6.792
314.07	4.676
314.28	6.333
314.49	4.268
314.70	6.604
314.91	6.215
315.12	3.892
315.33	7.305
315.54	5.414
315.75	4.785
315.96	4.981
316.16	5.622
316.37	5.136
316.58	5.942
316.79	5.720
317.00	5.698
317.21	6.405
317.42	5.906
317.63	5.331
317.84	5.824
318.05	6.119
318.25	7.395
318.46	5.936
318.67	4.721
318.88	5.720
319.09	6.132
319.30	5.974
319.51	5.950
319.72	7.918
319.93	5.154
320.13	6.270
320.34	7.460
320.55	6.208
320.76	6.836
320.97	5.911
321.18	7.216
321.39	5.592
321.60	7.399
321.80	7.264
322.01	6.995
322.22	4.857
322.43	5.044
322.64	6.421
322.85	6.939
323.06	5.945
323.27	5.065
323.47	7.659
323.68	7.170
323.89	6.227
324.10	6.357
324.31	5.964
324.52	6.249
324.73	6.531
324.93	5.364
325.14	5.037
325.35	7.349
325.56	4.442
325.77	6.726
325.98	5.477
326.19	7.371
326.39	4.597
326.60	3.899
326.81	3.611
327.02	4.449
327.23	5.295
327.44	5.976
327.64	4.750
327.85	3.397
328.06	6.929
328.27	8.492
328.48	5.714
328.69	4.046
328.90	4.256
329.10	6.131
329.31	5.794
329.52	4.601
329.73	7.446
329.94	5.887
330.15	5.587
330.35	8.206
330.56	6.512
330.77	6.507
330.98	4.346
331.19	5.284
331.39	6.769
331.60	6.915
331.81	4.497
332.02	5.623
332.23	5.952
332.44	5.584
332.64	6.070
332.85	4.196
333.06	5.207
333.27	4.384
333.48	5.834
333.68	3.586
333.89	5.715
334.10	5.466
334.31	5.160
334.52	5.169
334.72	5.518
334.93	5.156
335.14	4.186
335.35	5.213
335.56	5.374
335.76	4.912
335.97	5.215
336.18	6.562
336.39	5.537
336.60	4.063
336.80	4.672
337.01	4.220
337.22	4.447
337.43	4.905
337.64	7.203
337.84	5.334
338.05	5.052
338.26	6.387
338.47	6.402
338.68	4.253
338.88	5.208
339.09	4.805
339.30	4.928
339.51	5.127
339.71	6.988
339.92	5.370
340.13	5.464
340.34	5.817
340.55	5.514
340.75	5.683
340.96	3.728
341.17	6.356
341.38	4.690
341.58	5.659
341.79	4.658
342.00	4.949
342.21	4.443
342.41	4.895
342.62	6.102
342.83	5.215
343.04	4.929
343.24	4.641
343.45	4.903
343.66	3.836
343.87	4.485
344.07	4.565
344.28	3.807
344.49	4.861
344.70	5.388
344.90	4.256
345.11	3.847
345.32	4.819
345.53	4.245
345.73	5.651
345.94	5.651
346.15	5.441
346.36	3.510
346.56	3.802
346.77	5.812
346.98	3.525
347.19	4.861
347.39	4.623
347.60	4.293
347.81	5.317
348.02	5.814
348.22	4.540
348.43	4.338
348.64	5.478
348.84	4.226
349.05	5.680
349.26	4.744
349.47	5.383
349.67	4.849
349.88	5.407
350.09	4.996
350.30	6.785
350.50	5.132
350.71	5.533
350.92	4.776
351.12	4.762
351.33	4.697
351.54	4.981
351.74	5.021
351.95	5.373
352.16	6.533
352.37	5.948
352.57	5.479
352.78	6.200
352.99	4.286
353.19	5.256
353.40	4.987
353.61	7.226
353.82	6.662
354.02	7.750
354.23	5.362
354.44	6.894
354.64	5.675
354.85	6.430
355.06	5.334
355.26	5.436
355.47	5.122
355.68	5.076
355.88	7.092
356.09	5.840
356.30	5.594
356.51	5.969
356.71	4.683
356.92	5.166
357.13	5.467
357.33	6.786
357.54	5.513
357.75	3.936
357.95	6.015
358.16	4.277
358.37	6.259
358.57	4.734
358.78	7.030
358.99	4.480
359.19	5.728
359.40	5.774
359.61	4.946
359.81	6.384
360.02	7.323
360.23	4.164
360.43	4.457
360.64	4.599
360.85	5.127
361.05	5.042
361.26	5.413
361.47	4.515
361.67	5.885
361.88	4.637
362.09	5.746
362.29	4.131
362.50	4.215
362.70	4.061
362.91	5.353
363.12	4.998
363.32	4.629
363.53	5.287
363.74	4.919
363.94	3.695
364.15	6.560
364.36	6.138
364.56	4.379
364.77	5.366
364.98	7.046
365.18	5.610
365.39	6.371
365.59	5.517
365.80	6.041
366.01	6.274
366.21	4.436
366.42	4.437
366.63	6.004
366.83	4.921
367.04	4.385
367.24	6.152
367.45	4.547
367.66	4.996
367.86	5.184
368.07	4.765
368.28	4.640
368.48	5.434
368.69	4.010
368.89	5.389
369.10	5.498
369.31	4.391
369.51	5.786
369.72	6.362
369.92	6.416
370.13	4.282
370.34	5.515
370.54	3.421
370.75	4.678
370.95	4.540
371.16	4.559
371.37	4.935
371.57	5.111
371.78	5.177
371.98	5.837
372.19	5.141
372.40	5.080
372.60	6.109
372.81	6.086
373.01	4.558
373.22	4.457
373.43	5.557
373.63	4.320
373.84	5.381
374.04	4.973
374.25	4.488
374.46	6.491
374.66	5.446
374.87	5.180
375.07	4.248
375.28	4.583
375.48	4.385
375.69	5.584
375.90	3.062
376.10	3.258
376.31	5.416
376.51	3.901
376.72	5.045
376.92	4.112
377.13	4.914
377.34	4.687
377.54	3.598
377.75	5.107
377.95	4.331
378.16	5.814
378.36	4.701
378.57	5.409
378.77	4.521
378.98	5.375
379.19	3.805
379.39	3.406
379.60	4.870
379.80	4.077
380.01	5.145
380.21	4.447
380.42	5.246
380.62	4.876
380.83	5.238
381.04	4.394
381.24	5.741
381.45	4.961
381.65	3.678
381.86	4.347
382.06	5.624
382.27	3.789
382.47	4.125
382.68	5.248
382.88	4.091
383.09	3.908
383.29	4.513
383.50	5.758
383.71	4.367
383.91	4.859
384.12	4.616
384.32	5.105
384.53	3.753
384.73	3.938
384.94	3.844
385.14	3.862
385.35	3.827
385.55	4.797
385.76	3.903
385.96	3.884
386.17	4.620
386.37	5.237
386.58	4.403
386.78	4.456
386.99	3.383
387.19	4.903
387.40	4.510
387.60	5.842
387.81	4.279
388.01	4.006
388.22	4.998
388.42	5.044
388.63	5.422
388.83	5.859
389.04	3.928
389.24	4.708
389.45	4.711
389.65	4.560
389.86	4.357
390.06	4.325
390.27	4.298
390.47	3.871
390.68	4.146
390.88	4.964
391.09	5.084
391.29	5.007
391.50	4.981
391.70	4.971
391.91	4.692
392.11	4.106
392.32	4.336
392.52	5.053
392.73	4.349
392.93	4.894
393.14	4.543
393.34	3.867
393.55	5.467
393.75	4.917
393.95	4.857
394.16	4.854
394.36	5.333
394.57	5.694
394.77	5.118
394.98	4.363
395.18	5.013
395.39	4.366
395.59	4.337
395.80	4.927
396.00	4.891
396.21	5.752
396.41	3.837
396.61	5.389
396.82	5.064
397.02	6.306
397.23	5.072
397.43	4.861
397.64	3.696
397.84	5.791
398.05	4.225
398.25	4.846
398.45	4.993
398.66	4.860
398.86	4.499
399.07	5.986
399.27	4.497
399.48	5.639
399.68	4.849
399.89	4.203
400.09	4.946
400.29	4.048
400.50	4.985
400.70	4.274
400.91	4.718
401.11	4.087
401.32	4.704
401.52	3.440
401.72	4.735
401.93	6.323
402.13	4.429
402.34	4.559
402.54	4.011
402.75	6.103
402.95	4.310
403.15	6.252
403.36	4.011
403.56	5.356
403.77	4.110
403.97	4.363
404.17	4.523
404.38	4.778
404.58	4.153
404.79	5.102
404.99	4.996
405.19	4.852
405.40	3.909
405.60	4.431
405.81	4.761
406.01	4.061
406.21	4.337
406.42	4.876
406.62	4.304
406.83	4.728
407.03	5.700
407.23	4.401
407.44	4.014
407.64	5.292
407.85	4.721
408.05	4.588
408.25	4.701
408.46	5.587
408.66	4.797
408.87	4.443
409.07	5.000
409.27	4.326
409.48	5.159
409.68	4.452
409.88	3.353
410.09	4.634
410.29	5.138
410.50	5.130
410.70	3.904
410.90	4.162
411.11	3.713
411.31	4.429
411.51	5.038
411.72	4.900
411.92	3.783
412.12	4.513
412.33	3.745
412.53	3.779
412.74	3.432
412.94	4.117
413.14	4.395
413.35	4.392
413.55	4.742
413.75	5.780
413.96	3.752
414.16	4.375
414.36	4.334
414.57	4.531
414.77	4.173
414.97	5.120
415.18	4.436
415.38	4.546
415.58	4.232
415.79	3.435
415.99	3.623
416.19	4.769
416.40	4.530
416.60	4.131
416.80	4.047
417.01	4.460
417.21	3.033
417.41	4.700
417.62	4.463
417.82	4.694
418.02	3.622
418.23	4.308
418.43	4.057
418.63	4.461
418.84	4.724
419.04	4.223
419.24	4.951
419.45	4.752
419.65	5.122
419.85	5.323
420.06	4.991
420.26	4.743
420.46	4.496
420.67	4.975
420.87	4.928
421.07	5.371
421.28	4.405
421.48	5.302
421.68	4.876
421.88	5.509
422.09	5.265
422.29	5.177
422.49	4.362
422.70	4.900
422.90	5.075
423.10	5.192
423.31	5.169
423.51	5.245
423.71	4.727
423.91	5.738
424.12	5.261
424.32	5.751
424.52	5.199
424.73	5.287
424.93	5.303
425.13	5.152
425.33	4.972
425.54	5.617
425.74	5.144
425.94	5.518
426.15	5.416
426.35	5.259
426.55	5.441
426.75	5.664
426.96	5.469
427.16	5.114
427.36	5.299
427.57	5.820
427.77	5.088
427.97	5.666
428.17	5.978
428.38	5.551
428.58	4.745
428.78	5.784
428.98	4.523
429.19	4.906
429.39	4.405
429.59	5.268
429.79	4.192
430.00	4.867
430.20	4.451
430.40	5.189
430.60	5.020
430.81	5.361
431.01	4.965
431.21	5.832
431.41	4.640
431.62	5.789
431.82	4.801
432.02	6.058
432.22	5.026
432.43	5.465
432.63	5.402
432.83	5.865
433.03	5.293
433.24	5.216
433.44	4.860
433.64	6.453
433.84	5.576
434.05	6.661
434.25	6.107
434.45	7.011
434.65	6.715
434.85	6.884
435.06	6.324
435.26	5.879
435.46	6.330
435.66	6.997
435.87	6.255
436.07	6.486
436.27	6.471
436.47	6.018
436.67	5.612
436.88	6.737
437.08	6.519
437.28	6.752
437.48	6.267
437.69	7.476
437.89	6.640
438.09	7.548
438.29	6.774
438.49	7.288
438.70	6.935
438.90	6.740
439.10	6.669
439.30	7.112
439.50	6.477
439.71	7.292
439.91	7.105
440.11	7.505
440.31	7.606
440.51	7.409
440.72	7.286
440.92	7.639
441.12	7.620
441.32	8.189
441.52	7.975
441.72	8.122
441.93	8.009
442.13	8.308
442.33	7.874
442.53	8.445
442.73	7.353
442.94	8.178
443.14	7.934
443.34	8.374
443.54	7.684
443.74	8.412
443.94	7.662
444.15	7.853
444.35	7.504
444.55	8.210
444.75	7.619
444.95	8.232
445.15	7.804
445.36	8.059
445.56	7.098
445.76	8.215
445.96	7.977
446.16	8.145
446.36	7.913
446.57	8.747
446.77	7.651
446.97	8.659
447.17	8.771
447.37	8.547
447.57	8.431
447.77	8.591
447.98	8.462
448.18	8.897
448.38	8.083
448.58	8.718
448.78	8.547
448.98	8.701
449.18	8.311
449.39	8.816
449.59	8.166
449.79	8.538
449.99	8.329
450.19	8.855
450.39	8.334
450.59	8.780
450.79	8.242
451.00	8.925
451.20	9.384
451.40	8.178
451.60	7.726
451.80	8.794
452.00	8.298
452.20	8.859
452.40	8.534
452.61	8.229
452.81	8.293
453.01	8.159
453.21	8.306
453.41	8.712
453.61	8.570
453.81	8.600
454.01	8.066
454.21	8.668
454.42	8.992
454.62	8.820
454.82	8.654
455.02	8.760
455.22	8.156
455.42	7.990
455.62	7.639
455.82	8.383
456.02	8.184
456.23	8.719
456.43	8.128
456.63	8.896
456.83	7.676
457.03	8.599
457.23	8.218
457.43	8.795
457.63	8.109
457.83	8.980
458.03	8.193
458.23	8.602
458.43	7.719
458.64	9.082
458.84	8.776
459.04	8.820
459.24	8.608
459.44	8.546
459.64	8.627
459.84	8.640
460.04	8.915
460.24	9.203
460.44	9.020
460.64	9.329
460.84	9.020
461.04	9.756
461.24	9.517
461.45	9.574
461.65	9.446
461.85	9.798
462.05	9.167
462.25	9.230
462.45	9.508
462.65	9.556
462.85	8.780
463.05	9.806
463.25	8.160
463.45	9.900
463.65	8.703
463.85	9.561
464.05	9.057
464.25	9.230
464.45	9.301
464.65	8.866
464.85	8.734
465.05	9.080
465.26	9.054
465.46	9.437
465.66	9.301
465.86	9.323
466.06	8.722
466.26	9.221
466.46	8.554
466.66	9.143
466.86	8.687
467.06	9.281
467.26	9.523
467.46	9.394
467.66	9.573
467.86	9.500
468.06	9.383
468.26	9.783
468.46	9.323
468.66	9.848
468.86	8.880
469.06	9.857
469.26	8.684
469.46	9.918
469.66	9.208
469.86	9.923
470.06	9.389
470.26	10.204
470.46	9.242
470.66	10.426
470.86	9.243
471.06	10.060
471.26	9.384
471.46	9.523
471.66	9.511
471.86	9.971
472.06	9.646
472.26	10.575
472.46	10.238
472.66	10.764
472.86	9.797
473.06	10.038
473.26	10.071
473.46	10.779
473.66	9.556
473.86	10.251
474.06	10.007
474.26	10.629
474.46	9.780
474.66	10.628
474.86	10.531
475.06	11.198
475.26	9.872
475.46	10.892
475.66	9.923
475.86	10.579
476.06	10.849
476.26	11.027
476.46	10.825
476.66	10.809
476.86	10.271
477.06	10.679
477.26	10.724
477.46	11.092
477.65	10.827
477.85	11.713
478.05	10.909
478.25	11.773
478.45	11.233
478.65	11.765
478.85	11.006
479.05	11.795
479.25	11.752
479.45	11.930
479.65	11.405
479.85	11.703
480.05	11.399
480.25	11.781
480.45	11.993
480.65	12.064
480.85	12.060
481.05	12.198
481.25	12.127
481.44	12.153
481.64	11.618
481.84	12.425
482.04	12.166
482.24	12.444
482.44	12.117
482.64	12.310
482.84	12.286
483.04	12.072
483.24	12.014
483.44	12.211
483.64	11.936
483.84	12.252
484.04	12.237
484.23	12.411
484.43	12.530
484.63	12.788
484.83	13.045
485.03	13.635
485.23	13.633
485.43	13.553
485.63	13.262
485.83	13.353
486.03	13.147
486.23	13.409
486.42	13.147
486.62	13.419
486.82	13.122
487.02	13.103
487.22	12.864
487.42	13.156
487.62	12.994
487.82	12.998
488.02	12.962
488.22	13.018
488.41	13.159
488.61	13.137
488.81	13.257
489.01	13.072
489.21	13.495
489.41	13.748
489.61	13.601
489.81	13.651
490.01	13.743
490.20	13.778
490.40	13.537
490.60	13.911
490.80	13.584
491.00	13.470
491.20	13.402
491.40	13.183
491.60	13.369
491.79	13.373
491.99	13.266
492.19	13.512
492.39	13.476
492.59	13.593
492.79	13.543
492.99	13.710
493.19	13.705
493.38	13.938
493.58	13.863
493.78	14.111
493.98	14.155
494.18	13.991
494.38	13.764
494.58	14.521
494.77	13.859
494.97	14.052
495.17	13.953
495.37	13.827
495.57	14.028
495.77	13.750
495.96	13.961
496.16	13.930
496.36	13.762
496.56	13.513
496.76	13.898
496.96	13.565
497.15	13.775
497.35	13.673
497.55	13.843
497.75	14.110
497.95	13.956
498.15	14.169
498.34	13.921
498.54	13.838
498.74	14.319
498.94	14.265
499.14	14.421
499.34	14.489
499.53	14.375
499.73	14.071
499.93	14.038
500.13	14.336
500.33	13.963
500.52	14.224
500.72	14.275
500.92	14.399
501.12	14.272
501.32	13.899
501.52	14.145
501.71	13.806
501.91	13.919
502.11	14.196
502.31	14.282
502.51	14.065
502.70	14.105
502.90	14.461
503.10	13.921
503.30	14.718
503.50	14.045
503.69	14.197
503.89	14.210
504.09	14.496
504.29	14.291
504.48	14.326
504.68	14.225
504.88	14.872
505.08	14.368
505.28	14.776
505.47	14.397
505.67	14.440
505.87	14.512
506.07	14.717
506.27	14.114
506.46	14.249
506.66	14.395
506.86	14.709
507.06	14.698
507.25	14.590
507.45	14.782
507.65	14.874
507.85	14.088
508.04	14.850
508.24	14.517
508.44	14.633
508.64	14.637
508.83	14.550
509.03	14.506
509.23	14.446
509.43	14.337
509.63	14.753
509.82	14.295
510.02	14.371
510.22	14.640
510.42	14.534
510.61	14.346
510.81	14.466
511.01	14.859
511.21	14.432
511.40	14.378
511.60	14.596
511.80	14.493
511.99	14.519
512.19	14.671
512.39	14.530
512.59	14.363
512.78	14.663
512.98	14.301
513.18	14.644
513.38	14.711
513.57	14.133
513.77	14.550
513.97	14.532
514.17	14.655
514.36	14.646
514.56	14.656
514.76	14.919
514.95	14.289
515.15	14.644
515.35	14.140
515.55	14.638
515.74	14.520
515.94	14.682
516.14	14.404
516.33	14.869
516.53	14.271
516.73	14.225
516.93	14.266
517.12	14.550
517.32	14.310
517.52	14.788
517.71	14.439
517.91	14.417
518.11	14.014
518.30	14.227
518.50	14.596
518.70	14.484
518.90	14.078
519.09	14.287
519.29	14.524
519.49	14.416
519.68	14.600
519.88	14.474
520.08	14.382
520.27	14.580
520.47	14.744
520.67	14.846
520.86	14.821
521.06	14.578
521.26	14.422
521.45	14.484
521.65	14.680
521.85	14.286
522.04	14.339
522.24	14.590
522.44	14.299
522.63	14.074
522.83	14.624
523.03	14.640
523.22	14.384
523.42	15.148
523.62	14.418
523.81	14.618
524.01	14.689
524.21	14.509
524.40	14.657
524.60	14.646
524.80	14.215
524.99	14.325
525.19	14.046
525.39	14.375
525.58	14.291
525.78	14.242
525.98	14.134
526.17	14.059
526.37	14.343
526.57	14.286
526.76	14.337
526.96	14.383
527.15	14.092
527.35	14.442
527.55	14.569
527.74	14.210
527.94	14.208
528.14	14.149
528.33	13.852
528.53	13.804
528.72	14.029
528.92	14.208
529.12	14.408
529.31	14.493
529.51	14.349
529.71	14.628
529.90	14.635
530.10	14.571
530.29	14.840
530.49	14.862
530.69	14.964
530.88	14.804
531.08	14.710
531.28	14.678
531.47	14.597
531.67	14.661
531.86	14.820
532.06	14.560
532.26	14.474
532.45	14.357
532.65	14.317
532.84	14.147
533.04	13.824
533.24	14.402
533.43	14.298
533.63	14.298
533.82	14.351
534.02	14.303
534.22	14.397
534.41	14.596
534.61	14.649
534.80	14.674
535.00	14.625
535.19	14.554
535.39	14.678
535.59	14.691
535.78	14.547
535.98	14.615
536.17	14.293
536.37	14.330
536.57	14.319
536.76	14.288
536.96	14.349
537.15	14.521
537.35	14.086
537.54	14.183
537.74	14.415
537.93	14.684
538.13	14.753
538.33	14.430
538.52	14.613
538.72	14.588
538.91	14.773
539.11	14.661
539.30	14.698
539.50	14.601
539.70	14.464
539.89	14.755
540.09	14.384
540.28	14.255
540.48	14.095
540.67	14.294
540.87	14.246
541.06	14.007
541.26	14.000
541.45	14.269
541.65	14.304
541.85	14.235
542.04	14.095
542.24	14.392
542.43	14.484
542.63	14.511
542.82	14.530
543.02	14.809
543.21	14.790
543.41	14.782
543.60	14.823
543.80	14.897
543.99	14.761
544.19	14.591
544.38	14.655
544.58	14.716
544.77	14.924
544.97	14.818
545.16	14.808
545.36	14.599
545.56	14.606
545.75	14.734
545.95	14.866
546.14	14.941
546.34	14.702
546.53	14.544
546.73	14.100
546.92	14.934
547.12	14.736
547.31	14.518
547.51	14.641
547.70	14.932
547.90	14.665
548.09	14.791
548.29	14.894
548.48	14.790
548.68	14.605
548.87	14.975
549.07	15.064
549.26	14.772
549.46	14.843
549.65	15.146
549.84	14.892
550.04	15.202
550.23	14.258
550.43	14.729
550.62	14.417
550.82	15.018
551.01	14.851
551.21	14.842
551.40	14.615
551.60	15.226
551.79	14.540
551.99	14.822
552.18	14.779
552.38	14.563
552.57	14.342
552.77	15.063
552.96	14.892
553.16	14.560
553.35	14.633
553.54	14.963
553.74	14.752
553.93	15.393
554.13	15.142
554.32	15.163
554.52	15.256
554.71	15.101
554.91	14.787
555.10	15.287
555.29	14.575
555.49	15.047
555.68	15.028
555.88	15.467
556.07	14.633
556.27	15.184
556.46	14.531
556.66	14.993
556.85	15.132
557.04	15.314
557.24	14.594
557.43	15.369
557.63	14.619
557.82	15.013
558.02	14.545
558.21	15.457
558.40	15.024
558.60	15.324
558.79	14.946
558.99	15.621
559.18	14.938
559.38	15.107
559.57	15.078
559.76	15.841
559.96	15.887
560.15	15.724
560.35	15.066
560.54	15.267
560.73	14.554
560.93	15.643
561.12	15.307
561.32	15.094
561.51	14.683
561.70	15.396
561.90	15.053
562.09	15.517
562.29	15.766
562.48	15.578
562.67	15.658
562.87	15.969
563.06	15.674
563.26	15.789
563.45	15.654
563.64	15.590
563.84	15.730
564.03	15.343
564.23	15.360
564.42	16.598
564.61	15.564
564.81	15.725
565.00	15.811
565.20	15.728
565.39	15.861
565.58	16.216
565.78	16.293
565.97	15.996
566.16	16.239
566.36	16.210
566.55	16.252
566.74	16.184
566.94	16.109
567.13	16.225
567.33	16.321
567.52	16.414
567.71	16.165
567.91	16.223
568.10	16.742
568.29	16.455
568.49	16.351
568.68	16.697
568.87	16.092
569.07	16.778
569.26	16.399
569.45	17.232
569.65	16.463
569.84	16.417
570.04	16.834
570.23	16.424
570.42	16.097
570.62	16.848
570.81	16.626
571.00	16.847
571.20	16.929
571.39	16.894
571.58	16.819
571.78	17.039
571.97	16.427
572.16	16.388
572.36	16.816
572.55	16.991
572.74	17.471
572.94	16.800
573.13	16.964
573.32	17.300
573.51	16.992
573.71	17.279
573.90	16.848
574.09	17.220
574.29	17.035
574.48	17.386
574.67	17.049
574.87	17.471
575.06	17.161
575.25	17.209
575.45	16.838
575.64	17.176
575.83	17.457
576.03	17.938
576.22	17.385
576.41	17.449
576.60	16.889
576.80	17.199
576.99	17.049
577.18	17.559
577.38	17.185
577.57	17.433
577.76	17.421
577.95	17.805
578.15	17.239
578.34	17.670
578.53	17.904
578.73	17.764
578.92	17.094
579.11	17.739
579.30	18.028
579.50	17.728
579.69	17.469
579.88	18.083
580.08	17.142
580.27	17.402
580.46	17.324
580.65	17.913
580.85	17.329
581.04	18.197
581.23	17.526
581.42	17.556
581.62	17.793
581.81	17.798
582.00	17.757
582.19	18.173
582.39	17.797
582.58	18.100
582.77	18.139
582.96	18.217
583.16	17.238
583.35	17.959
583.54	18.317
583.73	18.594
583.93	18.047
584.12	17.701
584.31	17.104
584.50	17.819
584.70	17.664
584.89	17.798
585.08	17.899
585.27	18.534
585.47	17.736
585.66	18.446
585.85	17.881
586.04	18.027
586.24	18.235
586.43	18.235
586.62	18.252
586.81	18.511
587.00	17.914
587.20	18.181
587.39	17.949
587.58	18.621
587.77	18.369
587.97	18.758
588.16	18.075
588.35	19.074
588.54	18.098
588.73	17.957
588.93	17.980
589.12	18.679
589.31	18.385
589.50	18.433
589.69	18.187
589.89	18.654
590.08	18.173
590.27	18.604
590.46	18.505
590.65	18.691
590.85	18.064
591.04	18.891
591.23	19.009
591.42	19.168
591.61	18.466
591.81	18.904
592.00	18.603
592.19	19.284
592.38	17.965
592.57	19.149
592.77	19.425
592.96	19.269
593.15	19.191
593.34	19.697
593.53	19.146
593.72	19.015
593.92	18.514
594.11	19.745
594.30	18.705
594.49	19.446
594.68	19.026
594.87	18.961
595.07	18.163
595.26	19.265
595.45	18.616
595.64	19.630
595.83	19.243
596.02	19.365
596.22	19.069
596.41	20.061
596.60	18.935
596.79	20.172
596.98	19.429
597.17	19.487
597.37	19.786
597.56	20.040
597.75	19.383
597.94	19.918
598.13	20.063
598.32	19.908
598.51	19.462
598.71	20.048
598.90	19.413
599.09	20.743
599.28	20.031
599.47	20.294
599.66	19.661
599.85	20.246
600.05	19.159
600.24	20.226
600.43	19.537
600.62	19.916
600.81	20.082
601.00	20.285
601.19	19.743
601.38	20.931
601.58	20.379
601.77	20.207
601.96	19.519
602.15	20.653
602.34	20.228
602.53	21.494
602.72	20.824
602.91	20.397
603.10	20.291
603.30	20.455
603.49	20.105
603.68	20.509
603.87	20.496
604.06	20.716
604.25	20.897
604.44	20.850
604.63	20.673
604.82	21.076
605.01	20.822
605.21	20.590
605.40	20.545
605.59	20.962
605.78	20.876
605.97	20.615
606.16	20.900
606.35	21.354
606.54	20.922
606.73	21.037
606.92	21.032
607.11	21.297
607.30	21.134
607.50	21.003
607.69	20.941
607.88	20.666
608.07	20.617
608.26	20.501
608.45	20.627
608.64	21.155
608.83	20.182
609.02	20.740
609.21	20.585
609.40	20.499
609.59	20.508
609.78	20.986
609.97	20.958
610.16	20.428
610.35	20.951
610.55	20.292
610.74	20.842
610.93	20.856
611.12	20.920
611.31	21.130
611.50	20.866
611.69	20.648
611.88	21.476
612.07	21.307
612.26	20.486
612.45	20.817
612.64	20.440
612.83	20.907
613.02	20.662
613.21	21.024
613.40	19.858
613.59	21.531
613.78	20.189
613.97	20.639
614.16	20.284
614.35	20.782
614.54	18.760
614.73	20.042
614.92	20.041
615.11	20.959
615.30	20.718
615.49	19.890
615.68	20.006
615.87	20.818
616.07	19.962
616.26	21.228
616.45	20.290
616.64	20.502
616.83	20.028
617.02	20.684
617.21	20.483
617.40	20.103
617.59	20.594
617.78	20.567
617.97	20.348
618.16	20.142
618.35	19.765
618.54	20.644
618.73	19.858
618.92	20.798
619.11	19.050
619.30	20.611
619.49	19.800
619.68	20.468
619.86	20.652
620.05	20.541
620.24	19.762
620.43	20.711
620.62	18.924
620.81	21.480
621.00	20.444
621.19	20.969
621.38	19.566
621.57	20.720
621.76	19.972
621.95	20.914
622.14	20.548
622.33	21.262
622.52	19.320
622.71	21.100
622.90	19.571
623.09	20.071
623.28	20.263
623.47	20.588
623.66	20.790
623.85	20.844
624.04	18.671
624.23	19.831
624.42	19.703
624.61	20.128
624.80	19.661
624.99	20.096
625.18	19.171
625.36	20.067
625.55	21.017
625.74	20.054
625.93	19.738
626.12	20.532
626.31	20.295
626.50	21.173
626.69	19.950
626.88	20.800
627.07	20.787
627.26	20.358
627.45	19.992
627.64	20.946
627.83	20.049
628.02	20.494
628.20	20.394
628.39	20.678
628.58	20.536
628.77	20.169
628.96	19.926
629.15	20.573
629.34	20.526
629.53	20.336
629.72	19.495
629.91	20.446
630.10	20.153
630.29	19.992
630.47	19.657
630.66	19.646
630.85	19.043
631.04	19.336
631.23	19.741
631.42	19.300
631.61	19.209
631.80	20.169
631.99	19.097
632.18	19.130
632.36	19.013
632.55	20.807
632.74	19.072
632.93	19.452
633.12	19.730
633.31	20.211
633.50	19.660
633.69	20.219
633.88	19.408
634.06	19.481
634.25	19.852
634.44	19.965
634.63	20.107
634.82	20.734
635.01	19.329
635.20	20.247
635.39	19.281
635.57	20.531
635.76	19.605
635.95	20.087
636.14	18.531
636.33	20.110
636.52	19.467
636.71	20.116
636.89	19.227
637.08	19.939
637.27	18.202
637.46	20.039
637.65	19.592
637.84	19.326
638.03	19.058
638.21	20.446
638.40	19.481
638.59	19.619
638.78	19.303
638.97	20.460
639.16	19.546
639.34	19.827
639.53	18.315
639.72	19.632
639.91	18.969
640.10	19.552
640.29	19.458
640.47	20.324
640.66	19.292
640.85	20.888
641.04	18.508
641.23	20.136
641.42	18.411
641.60	19.037
641.79	18.925
641.98	19.413
642.17	18.811
642.36	20.175
642.54	18.586
642.73	19.531
642.92	18.842
643.11	19.562
643.30	19.117
643.49	19.291
643.67	18.344
643.86	19.537
644.05	19.093
644.24	19.750
644.43	18.662
644.61	19.470
644.80	19.403
644.99	19.466
645.18	20.156
645.37	19.534
645.55	18.526
645.74	19.145
645.93	18.822
646.12	19.045
646.31	19.587
646.49	19.212
646.68	19.638
646.87	19.649
647.06	18.163
647.24	18.982
647.43	17.805
647.62	20.492
647.81	17.766
648.00	19.868
648.18	17.169
648.37	19.094
648.56	18.572
648.75	19.572
648.93	18.304
649.12	19.593
649.31	19.705
649.50	19.332
649.68	18.752
649.87	18.879
650.06	17.776
650.25	19.633
650.43	19.215
650.62	18.507
650.81	18.722
651.00	19.653
651.18	17.834
651.37	20.559
651.56	18.104
651.75	19.913
651.93	18.079
652.12	19.502
652.31	17.519
652.50	19.165
652.68	18.804
652.87	19.920
653.06	19.507
653.25	19.186
653.43	19.718
653.62	20.652
653.81	18.137
654.00	19.246
654.18	18.430
654.37	19.403
654.56	18.496
654.74	17.376
654.93	18.375
655.12	17.706
655.31	17.974
655.49	19.565
655.68	16.533
655.87	18.152
656.05	16.566
656.24	18.576
656.43	16.890
656.62	18.953
656.80	17.080
656.99	17.885
657.18	17.513
657.36	17.217
657.55	18.510
657.74	18.163
657.93	19.343
658.11	19.662
658.30	17.610
658.49	17.592
658.67	17.957
658.86	18.408
659.05	17.559
659.23	18.432
659.42	17.472
659.61	18.066
659.79	17.923
659.98	18.177
660.17	18.392
660.35	18.167
660.54	18.435
660.73	19.472
660.91	17.912
661.10	18.974
661.29	17.657
661.47	17.439
661.66	17.251
661.85	18.705
662.03	18.233
662.22	17.000
662.41	16.446
662.59	18.066
662.78	16.539
662.97	17.384
663.15	15.482
663.34	15.500
663.53	15.485
663.71	16.684
663.90	16.079
664.09	18.001
664.27	16.836
664.46	16.528
664.65	15.860
664.83	16.317
665.02	14.396
665.21	15.198
665.39	13.641
665.58	16.887
665.77	15.103
665.95	15.763
666.14	14.794
666.32	15.455
666.51	13.401
666.70	15.118
666.88	14.081
667.07	15.484
667.26	15.033
667.44	14.898
667.63	14.822
667.81	14.120
668.00	14.649
668.19	17.490
668.37	14.851
668.56	16.716
668.75	14.162
668.93	16.413
669.12	14.647
669.30	15.567
669.49	14.173
669.68	15.817
669.86	14.689
670.05	15.065
670.23	14.324
670.42	15.013
670.61	14.295
670.79	14.709
670.98	14.289
671.16	15.723
671.35	13.047
671.54	15.378
671.72	14.011
671.91	16.011
672.09	13.581
672.28	15.772
672.46	15.156
672.65	14.317
672.84	14.597
673.02	15.571
673.21	13.727
673.39	15.178
673.58	14.690
673.77	14.973
673.95	13.793
674.14	16.509
674.32	13.688
674.51	16.997
674.69	13.190
674.88	14.610
675.07	14.043
675.25	16.764
675.44	15.193
675.62	14.983
675.81	13.402
675.99	17.678
676.18	15.724
676.36	14.340
676.55	14.772
676.74	15.571
676.92	15.630
677.11	14.661
677.29	14.422
677.48	16.665
677.66	15.490
677.85	13.800
678.03	14.280
678.22	16.673
678.40	14.289
678.59	14.885
678.78	13.763
678.96	15.303
679.15	14.151
679.33	17.972
679.52	15.637
679.70	15.755
679.89	16.246
680.07	17.330
680.26	15.420
680.44	17.110
680.63	16.398
680.81	16.743
681.00	14.702
681.18	17.068
681.37	16.261
681.55	18.386
681.74	16.529
681.92	17.927
682.11	16.879
682.29	16.900
682.48	16.542
682.66	17.948
682.85	16.090
683.03	16.458
683.22	16.850
683.40	18.945
683.59	16.772
683.77	19.221
683.96	16.376
684.14	17.605
684.33	14.900
684.51	18.790
684.70	16.541
684.88	18.451
685.07	17.472
685.25	18.414
685.44	16.527
685.62	18.155
685.81	16.129
685.99	20.259
686.18	16.337
686.36	19.182
686.55	17.407
686.73	17.723
686.92	18.593
687.10	19.313
687.29	18.919
687.47	19.284
687.65	19.756
687.84	19.075
688.02	20.892
688.21	20.966
688.39	19.414
688.58	20.637
688.76	19.565
688.95	20.507
689.13	19.131
689.32	21.152
689.50	20.471
689.68	21.448
689.87	19.241
690.05	20.912
690.24	19.987
690.42	20.359
690.61	21.460
690.79	22.543
690.98	19.425
691.16	21.606
691.34	19.958
691.53	22.424
691.71	19.354
691.90	21.627
692.08	19.911
692.27	24.052
692.45	22.926
692.63	22.039
692.82	23.304
693.00	22.431
693.19	20.536
693.37	24.594
693.56	21.094
693.74	23.348
693.92	22.224
694.11	23.981
694.29	24.650
694.48	24.389
694.66	23.061
694.84	24.640
695.03	22.948
695.21	28.114
695.40	25.501
695.58	28.089
695.76	24.209
695.95	26.983
696.13	23.868
696.32	26.049
696.50	27.706
696.68	25.794
696.87	24.125
697.05	25.989
697.24	27.039
697.42	29.085
697.60	26.390
697.79	28.983
697.97	28.384
698.16	29.771
698.34	26.964
698.52	29.292
698.71	28.011
698.89	29.449
699.07	27.845
699.26	30.558
699.44	30.059
699.63	30.514
699.81	28.912
699.99	29.860
700.18	30.813
700.36	30.404
700.54	31.347
700.73	30.452
700.91	29.436
701.09	30.713
701.28	31.168
701.46	31.130
701.64	29.351
701.83	31.655
702.01	29.532
702.20	31.288
702.38	29.912
702.56	31.472
702.75	29.573
702.93	31.284
703.11	28.377
703.30	31.404
703.48	30.741
703.66	30.675
703.85	28.814
704.03	32.537
704.21	30.458
704.40	34.139
704.58	31.229
704.76	30.740
704.95	29.806
705.13	31.856
705.31	30.579
705.50	32.140
705.68	30.090
705.86	32.432
706.04	31.825
706.23	32.703
706.41	29.240
706.59	32.246
706.78	30.564
706.96	33.068
707.14	32.050
707.33	32.697
707.51	31.181
707.69	33.883
707.88	32.825
708.06	33.658
708.24	33.066
708.42	34.462
708.61	32.701
708.79	34.071
708.97	33.284
709.16	32.502
709.34	33.712
709.52	33.417
709.71	31.523
709.89	34.946
710.07	31.441
710.25	35.192
710.44	32.081
710.62	35.008
710.80	35.102
710.98	34.420
711.17	32.771
711.35	34.951
711.53	34.153
711.72	35.819
711.90	34.932
712.08	34.624
712.26	32.737
712.45	34.254
712.63	33.842
712.81	36.106
712.99	33.074
713.18	34.458
713.36	34.473
713.54	35.147
713.72	33.249
713.91	34.312
714.09	33.126
714.27	35.264
714.45	34.404
714.64	35.614
714.82	34.600
715.00	35.388
715.18	35.566
715.37	36.317
715.55	34.208
715.73	37.283
715.91	36.061
716.10	34.516
716.28	32.591
716.46	36.747
716.64	34.655
716.83	35.335
717.01	34.724
717.19	34.671
717.37	33.916
717.55	36.919
717.74	34.765
717.92	35.101
718.10	32.834
718.28	35.401
718.47	34.086
718.65	36.042
718.83	33.425
719.01	34.488
719.19	33.917
719.38	35.014
719.56	31.935
719.74	34.355
719.92	30.597
720.10	34.360
720.29	33.327
720.47	34.904
720.65	34.599
720.83	35.606
721.01	31.024
721.20	34.372
721.38	33.484
721.56	33.733
721.74	33.932
721.92	34.509
722.11	34.807
722.29	36.447
722.47	31.790
722.65	34.774
722.83	35.447
723.01	33.134
723.20	36.091
723.38	34.355
723.56	32.285
723.74	37.595
723.92	33.371
724.10	35.955
724.29	30.566
724.47	36.094
724.65	32.181
724.83	35.483
725.01	31.312
725.19	36.534
725.38	32.935
725.56	34.884
725.74	34.213
725.92	34.124
726.10	34.230
726.28	35.602
726.46	33.790
726.65	34.305
726.83	33.745
727.01	36.086
727.19	35.720
727.37	32.886
727.55	35.302
727.73	36.766
727.92	34.485
728.10	35.029
728.28	31.737
728.46	37.637
728.64	31.810
728.82	36.280
729.00	34.445
729.19	37.630
729.37	34.211
729.55	33.863
729.73	32.569
729.91	38.202
730.09	35.632
730.27	36.726
730.45	33.767
730.63	34.984
730.82	34.414
731.00	34.942
731.18	35.532
731.36	36.522
731.54	32.746
731.72	37.021
731.90	34.249
732.08	35.288
732.26	34.162
732.45	36.886
732.63	34.646
732.81	36.611
732.99	33.025
733.17	38.190
733.35	34.552
733.53	35.996
733.71	36.714
733.89	35.660
734.07	34.751
734.25	37.242
734.44	34.548
734.62	35.161
734.80	35.090
734.98	38.420
735.16	34.066
735.34	39.276
735.52	33.839
735.70	37.912
735.88	36.407
736.06	37.191
736.24	39.327
736.42	36.351
736.60	37.018
736.78	36.048
736.97	36.051
737.15	36.598
737.33	33.512
737.51	36.104
737.69	34.698
737.87	38.801
738.05	34.729
738.23	39.009
738.41	35.863
738.59	39.130
738.77	35.442
738.95	37.143
739.13	35.931
739.31	38.696
739.49	38.920
739.67	39.290
739.85	35.788
740.03	38.660
740.21	38.833
740.39	40.331
740.57	37.641
740.75	36.121
740.93	35.900
741.11	35.951
741.30	36.028
741.48	38.996
741.66	40.323
741.84	37.311
742.02	34.513
742.20	36.930
742.38	35.578
742.56	40.507
742.74	35.716
742.92	37.862
743.10	34.181
743.28	39.149
743.46	37.696
743.64	36.297
743.82	32.914
744.00	35.896
744.18	36.772
744.36	37.072
744.54	36.751
744.72	40.083
744.90	38.962
745.08	39.581
745.26	35.334
745.44	39.225
745.62	33.700
745.80	38.853
745.98	36.392
746.16	41.638
746.34	36.628
746.52	37.805
746.70	35.047
746.87	32.877
747.05	36.349
747.23	37.098
747.41	38.339
747.59	36.743
747.77	36.402
747.95	41.818
748.13	34.364
748.31	39.268
748.49	37.325
748.67	36.870
748.85	33.945
749.03	37.897
749.21	35.446
749.39	40.300
749.57	36.128
749.75	36.424
749.93	38.450
750.11	40.495
750.29	35.351
750.47	36.057
750.65	34.087
750.83	36.223
751.01	34.721
751.18	37.477
751.36	33.628
751.54	37.084
751.72	37.056
751.90	38.286
752.08	32.636
752.26	36.000
752.44	35.826
752.62	37.661
752.80	36.396
752.98	37.940
753.16	37.729
753.34	38.225
753.52	37.683
753.69	38.863
753.87	38.862
754.05	38.363
754.23	33.303
754.41	38.278
754.59	36.417
754.77	36.944
754.95	36.825
755.13	37.241
755.31	36.464
755.49	35.330
755.66	35.031
755.84	37.772
756.02	31.835
756.20	40.244
756.38	40.580
756.56	38.928
756.74	36.241
756.92	36.783
757.10	33.998
757.28	40.000
757.45	44.406
757.63	40.929
757.81	33.709
757.99	42.428
758.17	38.118
758.35	40.975
758.53	38.880
758.71	38.658
758.88	36.889
759.06	37.708
759.24	32.031
759.42	36.704
759.60	35.534
759.78	36.676
759.96	34.126
760.13	34.729
760.31	27.520
760.49	35.855
760.67	28.775
760.85	33.966
761.03	30.507
761.21	30.195
761.38	28.576
761.56	33.674
761.74	29.199
761.92	36.228
762.10	27.747
762.28	34.522
762.46	27.108
762.63	32.649
762.81	31.754
762.99	33.942
763.17	32.720
763.35	33.052
763.53	31.959
763.70	35.913
763.88	35.046
764.06	35.355
764.24	33.898
764.42	36.280
764.60	34.156
764.77	35.722
764.95	34.423
765.13	36.300
765.31	36.243
765.49	35.631
765.66	32.506
765.84	37.758
766.02	34.569
766.20	35.214
766.38	32.588
766.56	35.658
766.73	33.386
766.91	33.551
767.09	34.835
767.27	39.473
767.45	31.530
767.62	36.252
767.80	33.657
767.98	34.634
768.16	32.032
768.33	36.967
768.51	35.433
768.69	33.094
768.87	31.817
769.05	37.695
769.22	34.480
769.40	39.179
769.58	35.447
769.76	39.278
769.94	35.029
770.11	37.551
770.29	35.993
770.47	36.071
770.65	38.664
770.82	38.667
771.00	35.608
771.18	38.742
771.36	35.518
771.53	35.885
771.71	33.320
771.89	40.040
772.07	40.408
772.25	37.975
772.42	32.758
772.60	39.318
772.78	31.981
772.96	35.883
773.13	38.615
773.31	38.445
773.49	36.245
773.67	40.105
773.84	32.156
774.02	38.419
774.20	35.423
774.37	38.082
774.55	35.735
774.73	41.667
774.91	36.805
775.08	36.201
775.26	36.268
775.44	39.404
775.62	35.681
775.79	35.520
775.97	36.079
776.15	37.185
776.32	27.852
776.50	40.877
776.68	35.626
776.86	38.945
777.03	31.413
777.21	36.842
777.39	30.920
777.56	35.780
777.74	31.152
777.92	33.269
778.10	34.198
778.27	38.180
778.45	37.088
778.63	34.315
778.80	32.148
778.98	39.154
779.16	40.793
779.34	34.851
779.51	37.804
779.69	33.843
779.87	38.048
780.04	38.707
780.22	31.968
780.40	36.515
780.57	38.615
780.75	32.066
780.93	36.281
781.10	33.366
781.28	45.030
781.46	34.209
781.63	39.171
781.81	42.121
781.99	30.039
782.16	40.364
782.34	34.881
782.52	36.665
782.69	34.516
782.87	32.035
783.05	30.457
783.22	37.114
783.40	36.887
783.58	36.623
783.75	31.289
783.93	30.504
784.11	31.646
784.28	39.872
784.46	33.024
784.64	42.466
784.81	33.976
784.99	42.009
785.17	28.555
785.34	29.542
785.52	28.404
785.69	33.794
785.87	31.025
786.05	36.396
786.22	34.716
786.40	40.764
786.58	27.982
786.75	40.542
786.93	34.859
787.11	36.706
787.28	34.806
787.46	37.473
787.63	28.936
787.81	33.580
787.99	37.002
788.16	28.856
788.34	30.022
788.51	37.915
788.69	30.780
788.87	33.205
789.04	32.065
789.22	33.381
789.39	33.365
789.57	31.713
789.75	31.104
789.92	36.023
790.10	27.018
790.27	29.320
790.45	25.351
790.63	29.279
790.80	29.357
790.98	32.186
791.15	33.159
791.33	35.680
791.51	29.762
791.68	35.673
791.86	34.208
792.03	31.982
792.21	27.278
792.39	32.880
792.56	32.234
792.74	31.663
792.91	35.641
793.09	34.315
793.26	27.153
793.44	36.380
793.62	32.756
793.79	35.671
793.97	31.046
794.14	37.023
794.32	31.037
794.49	30.819
794.67	31.014
794.84	38.061
795.02	31.505
795.20	33.173
795.37	30.618
795.55	30.153
795.72	30.024
795.90	33.729
796.07	33.785
796.25	31.626
796.42	30.129
796.60	30.067
796.77	30.811
796.95	33.387
797.13	27.894
797.30	38.408
797.48	30.289
797.65	36.349
797.83	28.220
798.00	34.961
798.18	28.307
798.35	31.627
798.53	30.486
798.70	33.728
798.88	31.322
799.05	33.510
799.23	25.029
799.40	30.380
799.58	36.614
799.75	29.598
799.93	27.144
800.10	35.404
800.28	34.002
800.45	34.569
800.63	25.432
800.80	31.969
800.98	33.075
801.15	36.861
801.33	34.012
801.50	34.426
801.68	29.433
801.85	29.851
802.03	30.932
802.20	32.118
802.38	34.371
802.55	31.163
802.73	26.009
802.90	31.872
803.08	29.012
803.25	37.591
803.43	36.613
803.60	34.791
803.78	31.706
803.95	31.717
804.13	33.825
804.30	34.675
804.48	31.724
804.65	37.095
804.83	30.444
805.00	37.564
805.17	33.127
805.35	34.675
805.52	27.950
805.70	33.690
805.87	37.290
806.05	27.946
806.22	29.953
806.40	31.809
806.57	32.388
806.75	35.662
806.92	34.371
807.09	29.453
807.27	33.145
807.44	33.840
807.62	30.645
807.79	34.796
807.97	26.421
808.14	32.783
808.31	32.648
808.49	30.975
808.66	29.078
808.84	33.289
809.01	33.476
809.19	32.278
809.36	34.447
809.53	33.091
809.71	30.747
809.88	46.096
810.06	32.872
810.23	36.516
810.41	32.698
810.58	37.098
810.75	27.005
810.93	28.447
811.10	31.785
811.28	36.560
811.45	37.470
811.62	34.692
811.80	32.174
811.97	36.603
812.15	41.673
812.32	32.579
812.49	32.778
812.67	31.140
812.84	25.620
813.02	39.107
813.19	28.060
813.36	34.079
813.54	30.276
813.71	37.479
813.89	35.023
814.06	37.174
814.23	33.194
814.41	29.654
814.58	35.785
814.75	32.085
814.93	31.143
815.10	28.921
815.28	28.736
815.45	26.845
815.62	28.344
815.80	33.281
815.97	29.675
816.14	33.522
816.32	35.097
816.49	30.353
816.66	34.259
816.84	28.571
817.01	28.253
817.18	34.631
817.36	32.869
817.53	34.326
817.71	28.537
817.88	27.670
818.05	27.009
818.23	26.299
818.40	23.516
818.57	31.608
818.75	29.407
818.92	22.617
819.09	31.887
819.27	31.032
819.44	31.832
819.61	27.608
819.79	31.892
819.96	35.029
820.13	27.647
820.31	29.891
820.48	31.652
820.65	31.733
820.82	31.504
821.00	33.019
821.17	21.356
821.34	28.747
821.52	28.157
821.69	29.892
821.86	25.748
822.04	29.882
822.21	31.607
822.38	34.502
822.56	32.111
822.73	35.865
822.90	34.305
823.07	35.813
823.25	36.239
823.42	36.121
823.59	34.647
823.77	36.411
823.94	35.371
824.11	35.611
824.29	34.607
824.46	36.127
824.63	35.788
824.80	36.378
824.98	32.964
825.15	35.519
825.32	31.351
825.49	34.225
825.67	31.193
825.84	34.384
826.01	30.386
826.19	32.392
826.36	29.829
826.53	32.225
826.70	30.832
826.88	36.585
827.05	29.256
827.22	30.634
827.39	32.059
827.57	30.761
827.74	28.318
827.91	34.478
828.08	30.161
828.26	33.094
828.43	31.708
828.60	33.660
828.77	29.450
828.95	31.888
829.12	28.200
829.29	27.736
829.46	29.976
829.64	31.739
829.81	24.598
829.98	30.076
830.15	29.330
830.32	29.409
830.50	29.255
830.67	31.334
830.84	28.798
831.01	25.830
831.19	24.785
831.36	28.907
831.53	30.793
831.70	32.935
831.87	28.910
832.05	23.713
832.22	36.391
832.39	28.412
832.56	27.911
832.74	35.709
832.91	22.667
833.08	35.843
833.25	23.045
833.42	25.356
833.60	25.306
833.77	21.921
833.94	23.504
834.11	28.284
834.28	23.973
834.45	30.794
834.63	26.748
834.80	30.755
834.97	26.157
835.14	31.034
835.31	29.336
835.49	30.598
835.66	29.477
835.83	26.223
836.00	29.573
836.17	30.261
836.34	25.606
836.52	29.539
836.69	32.148
836.86	30.460
837.03	32.373
837.20	25.284
837.37	25.931
837.55	21.727
837.72	23.954
837.89	32.570
838.06	33.007
838.23	29.515
838.40	34.612
838.58	32.768
838.75	34.406
838.92	31.934
839.09	44.643
839.26	40.000
839.43	38.576
839.60	34.325
839.78	45.191
839.95	41.968
840.12	35.605
840.29	40.999
840.46	41.554
840.63	35.908
840.80	35.316
840.98	40.994
841.15	34.637
841.32	32.882
841.49	32.094
841.66	37.103
841.83	26.607
842.00	34.816
842.17	46.339
842.34	27.637
842.52	36.336
842.69	34.109
842.86	30.841
843.03	52.534
843.20	35.849
843.37	43.868
843.54	35.544
843.71	37.071
843.88	41.029
844.06	56.389
844.23	42.246
844.40	39.458
844.57	52.795
844.74	45.085
844.91	52.761
845.08	50.228
845.25	53.445
845.42	58.076
845.59	56.564
845.76	48.066
845.94	42.908
846.11	57.047
846.28	55.166
846.45	46.272
846.62	56.645
846.79	60.065
846.96	54.143
847.13	51.803
847.30	57.651
847.47	45.214
847.64	51.081
847.81	47.896
847.98	54.357
848.15	46.947
848.32	62.928
848.50	74.506
848.67	36.563
848.84	59.717
849.01	46.341
849.18	50.920
849.35	72.727
849.52	58.218
849.69	68.677
849.86	65.837
850.03	65.808
850.20	44.465
850.37	51.843
850.54	55.728
850.71	77.384
850.88	57.676
851.05	43.750
851.22	63.883
851.39	50.285
851.56	75.054
851.73	56.000
851.90	62.615
852.07	58.753
852.24	40.509
852.41	55.032
852.58	48.095
852.75	51.163
852.92	54.527
853.09	69.382
853.26	55.579
853.43	62.667
853.60	55.925
853.77	58.508
853.94	64.682
854.11	72.158
854.28	67.805
854.45	67.333
854.62	63.117
854.79	53.319
854.96	79.082
855.13	68.910
855.30	71.250
855.47	68.367
855.64	44.989
855.81	52.392
855.98	79.946
856.15	55.691
856.32	50.313
856.49	48.700
856.66	61.502
856.83	66.810
857.00	56.276
857.17	77.339
857.34	55.044
857.51	65.934
857.68	66.587
857.85	59.661
858.02	63.081
858.19	53.629
858.36	73.580
858.53	63.383
858.70	64.474
858.87	63.611
859.04	54.525
859.21	61.638
859.38	64.792
859.55	61.314
859.72	60.116
859.89	70.845
860.05	62.010
860.22	58.421
860.39	53.515
860.56	64.394
860.73	75.418
860.90	69.178
861.07	70.776
861.24	53.318
861.41	57.937
861.58	56.000
861.75	75.179
861.92	62.801
862.09	50.127
862.26	53.664
862.43	63.636
862.59	69.676
862.76	70.488
862.93	67.027
863.10	71.122
863.27	83.481
863.44	68.627
863.61	67.500
863.78	69.851
863.95	67.933
864.12	74.766
864.29	61.094
864.45	66.751
864.62	60.733
864.79	76.485
864.96	54.094
865.13	50.111
865.30	77.143
865.47	72.423
865.64	76.179
865.81	71.901
865.97	57.074
866.14	62.806
866.31	31.925
866.48	66.450
866.65	51.823
866.82	71.942
866.99	74.406
867.16	62.304
867.33	68.706
867.49	59.658
867.66	60.964
867.83	62.555
868.00	59.620
868.17	47.126
868.34	69.420
868.51	42.512
868.67	73.697
868.84	60.920
869.01	81.797
869.18	60.732
869.35	66.887
869.52	82.500
869.69	65.854
869.85	60.988
870.02	58.252
870.19	88.517
870.36	70.370
870.53	64.569
870.70	69.362
870.86	66.580
871.03	75.174
871.20	42.327
871.37	73.210
871.54	58.424
871.71	73.786
871.87	62.500
872.04	68.977
872.21	58.278
872.38	62.592
872.55	67.342
872.72	62.387
872.88	87.324
873.05	68.767
873.22	69.168
873.39	53.664
873.56	56.720
873.72	72.837
873.89	57.558
874.06	64.948
874.23	58.115
874.40	54.528
874.56	60.291
874.73	79.126
874.90	44.652
875.07	48.690
875.24	58.950
875.40	61.573
875.57	39.545
875.74	67.805
875.91	75.068
876.08	60.573
876.24	62.397
876.41	82.995
876.58	75.179
876.75	64.738
876.92	65.625
877.08	61.914
877.25	64.691
877.42	52.846
877.59	65.749
877.75	71.283
877.92	44.106
878.09	83.759
878.26	75.703
878.42	55.319
878.59	61.283
878.76	59.289
878.93	76.244
879.09	60.480
879.26	69.565
879.43	54.607
879.60	57.467
879.76	48.754
879.93	54.703
880.10	56.744
880.27	42.308
880.43	55.145
880.60	39.812
880.77	35.538
880.94	32.834
881.10	32.147
881.27	39.919
881.44	21.429
881.61	32.585
881.77	30.914
881.94	23.904
882.11	21.346
882.28	20.635
882.44	24.929
882.61	27.495
882.78	27.704
882.94	32.666
883.11	28.943
883.28	27.019
883.45	29.628
883.61	25.116
883.78	28.973
883.95	33.031
884.11	25.770
884.28	25.516
>>>>>End Processed Spectral Data<<<<<
