SpectraSuite Data File
++++++++++++++++++++++++++++++++++++
Date: Mon Sep 23 03:38:15 EST 2019
User: sgrac
Dark Spectrum Present: Yes
Reference Spectrum Present: Yes
Number of Sampled Component Spectra: 1
Spectrometers: USB4E01596
Integration Time (usec): 100000 (USB4E01596)
Spectra Averaged: 3 (USB4E01596)
Boxcar Smoothing: 0 (USB4E01596)
Correct for Electrical Dark: No (USB4E01596)
Strobe/Lamp Enabled: Yes (USB4E01596)
Correct for Detector Non-linearity: No (USB4E01596)
Correct for Stray Light: No (USB4E01596)
Number of Pixels in Processed Spectrum: 3648
>>>>>Begin Processed Spectral Data<<<<<
178.44	1184.615
178.66	1184.615
178.87	1184.615
179.09	8300.000
179.30	-5225.000
179.52	-470.968
179.74	-471.698
179.95	525.000
180.17	-455.556
180.38	498.246
180.60	-2754.545
180.82	742.222
181.03	4316.667
181.25	-2366.667
181.46	-1232.000
181.68	1420.833
181.89	-550.000
182.11	-2012.500
182.33	-1768.750
182.54	564.583
182.76	5033.333
182.97	-642.553
183.19	1265.000
183.40	272.727
183.62	388.462
183.84	288.182
184.05	4600.000
184.27	450.000
184.48	465.152
184.70	1623.529
184.91	1338.095
185.13	2480.000
185.34	-13350.000
185.56	1126.923
185.78	313.889
185.99	916.667
186.21	393.182
186.42	-4625.000
186.64	1500.000
186.85	-4940.000
187.07	450.000
187.28	413.158
187.50	387.273
187.72	335.897
187.93	792.727
188.15	322.917
188.36	407.895
188.58	551.020
188.79	309.615
189.01	469.014
189.22	745.946
189.44	-733.333
189.65	289.831
189.87	-4300.000
190.09	369.841
190.30	754.762
190.52	516.667
190.73	708.696
190.95	-4300.000
191.16	323.810
191.38	427.027
191.59	426.471
191.81	490.323
192.02	1346.667
192.24	634.375
192.45	676.471
192.67	-1375.000
192.88	433.962
193.10	481.967
193.31	695.000
193.53	283.065
193.74	369.333
193.96	2028.571
194.18	803.846
194.39	1660.000
194.61	394.521
194.82	1513.636
195.04	286.585
195.25	-392.982
195.47	-337.037
195.68	3700.000
195.90	334.545
196.11	413.433
196.33	24600.000
196.54	739.024
196.76	1835.714
196.97	366.234
197.19	781.081
197.40	1800.000
197.62	285.321
197.83	793.548
198.05	567.273
198.26	862.069
198.48	370.423
198.69	420.000
198.91	1283.333
199.12	486.047
199.34	571.739
199.55	351.429
199.77	1552.632
199.98	773.529
200.20	434.211
200.41	412.903
200.63	244.248
200.84	1764.286
201.06	2888.889
201.27	926.829
201.49	353.521
201.70	-603.333
201.91	358.333
202.13	493.220
202.34	450.000
202.56	-796.000
202.77	473.333
202.99	4633.333
203.20	-3000.000
203.42	2006.250
203.63	285.526
203.85	4866.667
204.06	512.000
204.28	239.394
204.49	557.407
204.71	433.898
204.92	923.077
205.14	0.000
205.35	770.000
205.56	-1295.000
205.78	5500.000
205.99	-1478.571
206.21	9050.000
206.42	720.455
206.64	1045.161
206.85	800.000
207.07	-2233.333
207.28	448.276
207.50	678.261
207.71	825.806
207.93	378.313
208.14	-985.185
208.35	327.273
208.57	1148.000
208.78	-2822.222
209.00	314.894
209.21	-13500.000
209.43	-8366.667
209.64	-1246.667
209.86	265.979
210.07	338.372
210.28	411.268
210.50	886.207
210.71	419.608
210.93	200.000
211.14	384.270
211.36	1550.000
211.57	434.848
211.78	270.000
212.00	367.059
212.21	415.714
212.43	738.462
212.64	379.787
212.86	417.568
213.07	289.908
213.29	-658.333
213.50	307.609
213.71	386.207
213.93	375.610
214.14	1836.364
214.36	466.176
214.57	340.506
214.78	520.000
215.00	339.583
215.21	943.333
215.43	629.730
215.64	295.238
215.86	305.000
216.07	617.143
216.28	652.632
216.50	323.333
216.71	20700.000
216.93	443.939
217.14	1311.111
217.35	255.303
217.57	236.036
217.78	370.370
218.00	191.919
218.21	1065.217
218.42	512.766
218.64	401.786
218.85	438.000
219.07	830.000
219.28	276.636
219.49	458.824
219.71	453.846
219.92	223.134
220.14	270.103
220.35	345.333
220.56	336.782
220.78	235.577
220.99	237.097
221.21	260.215
221.42	381.481
221.63	175.723
221.85	353.846
222.06	327.143
222.28	287.692
222.49	219.820
222.70	202.362
222.92	455.102
223.13	381.967
223.34	221.277
223.56	340.476
223.77	333.750
223.99	303.158
224.20	282.143
224.41	338.356
224.63	294.318
224.84	216.892
225.05	133.333
225.27	233.043
225.48	267.647
225.69	222.556
225.91	374.324
226.12	216.279
226.34	200.671
226.55	164.748
226.76	189.375
226.98	142.353
227.19	130.859
227.40	241.406
227.62	104.762
227.83	122.747
228.04	87.151
228.26	59.126
228.47	77.337
228.69	58.376
228.90	40.512
229.11	48.722
229.33	45.141
229.54	36.422
229.75	33.901
229.97	27.725
230.18	36.854
230.39	28.319
230.61	33.817
230.82	29.581
231.03	37.732
231.25	33.894
231.46	35.633
231.67	39.450
231.89	51.393
232.10	37.422
232.31	46.034
232.53	44.652
232.74	59.439
232.95	35.935
233.17	46.800
233.38	46.429
233.59	52.505
233.81	65.217
234.02	53.707
234.23	62.943
234.45	55.903
234.66	48.009
234.87	54.918
235.09	62.379
235.30	40.981
235.51	37.544
235.73	43.599
235.94	38.171
236.15	48.023
236.36	30.280
236.58	41.498
236.79	39.823
237.00	43.695
237.22	51.701
237.43	45.347
237.64	42.047
237.86	41.353
238.07	46.048
238.28	46.129
238.50	47.466
238.71	32.014
238.92	36.875
239.13	40.847
239.35	52.411
239.56	51.413
239.77	65.306
239.99	38.364
240.20	37.396
240.41	38.307
240.63	30.728
240.84	30.721
241.05	29.746
241.26	29.794
241.48	27.744
241.69	21.895
241.90	18.934
242.12	17.764
242.33	18.557
242.54	15.201
242.75	13.122
242.97	16.027
243.18	10.369
243.39	11.616
243.61	14.846
243.82	12.418
244.03	14.491
244.24	10.288
244.46	11.667
244.67	14.998
244.88	15.639
245.09	18.243
245.31	20.800
245.52	16.576
245.73	10.520
245.95	27.550
246.16	15.191
246.37	13.181
246.58	12.875
246.80	10.745
247.01	14.529
247.22	10.832
247.43	10.193
247.65	8.558
247.86	9.433
248.07	6.469
248.28	8.784
248.50	7.906
248.71	6.812
248.92	5.423
249.13	5.469
249.35	7.603
249.56	9.696
249.77	10.089
249.98	9.897
250.20	11.411
250.41	10.219
250.62	12.278
250.83	13.279
251.05	15.690
251.26	12.951
251.47	12.453
251.68	19.255
251.90	13.873
252.11	16.363
252.32	17.968
252.53	15.916
252.75	14.168
252.96	16.101
253.17	11.316
253.38	12.766
253.59	12.914
253.81	13.564
254.02	10.858
254.23	13.676
254.44	9.256
254.66	12.678
254.87	8.287
255.08	15.694
255.29	15.075
255.50	18.431
255.72	16.071
255.93	17.937
256.14	24.653
256.35	19.106
256.57	21.329
256.78	17.368
256.99	17.568
257.20	22.674
257.41	18.709
257.63	21.850
257.84	18.376
258.05	12.629
258.26	12.576
258.47	15.256
258.69	16.675
258.90	9.333
259.11	10.368
259.32	10.210
259.53	9.996
259.75	9.073
259.96	8.617
260.17	7.287
260.38	4.355
260.59	6.494
260.81	5.670
261.02	5.876
261.23	5.101
261.44	5.743
261.65	4.516
261.87	4.296
262.08	6.793
262.29	5.594
262.50	5.807
262.71	7.774
262.92	8.251
263.14	8.618
263.35	8.841
263.56	10.596
263.77	10.697
263.98	12.825
264.20	10.662
264.41	10.047
264.62	11.646
264.83	13.247
265.04	14.247
265.25	11.979
265.47	11.730
265.68	16.258
265.89	12.437
266.10	5.307
266.31	12.947
266.52	10.207
266.74	10.714
266.95	10.816
267.16	12.072
267.37	9.436
267.58	9.255
267.79	10.286
268.01	8.170
268.22	9.213
268.43	9.436
268.64	7.072
268.85	8.403
269.06	9.693
269.27	10.708
269.49	8.105
269.70	7.972
269.91	8.369
270.12	8.339
270.33	11.187
270.54	6.290
270.75	10.467
270.97	9.685
271.18	7.860
271.39	8.125
271.60	9.906
271.81	9.503
272.02	7.628
272.23	9.209
272.45	7.434
272.66	4.813
272.87	6.761
273.08	4.877
273.29	7.480
273.50	6.196
273.71	6.241
273.92	6.867
274.14	7.302
274.35	6.915
274.56	8.366
274.77	6.524
274.98	7.573
275.19	8.239
275.40	8.929
275.61	7.143
275.83	10.116
276.04	9.169
276.25	10.300
276.46	7.010
276.67	6.461
276.88	9.297
277.09	6.080
277.30	7.533
277.51	11.034
277.73	5.133
277.94	10.224
278.15	9.185
278.36	7.485
278.57	7.216
278.78	5.467
278.99	7.737
279.20	10.180
279.41	11.643
279.62	8.088
279.84	7.532
280.05	9.906
280.26	8.717
280.47	8.360
280.68	8.645
280.89	7.720
281.10	7.946
281.31	8.594
281.52	9.797
281.73	7.001
281.94	6.676
282.16	7.740
282.37	6.839
282.58	7.202
282.79	9.380
283.00	10.600
283.21	7.247
283.42	6.354
283.63	8.331
283.84	5.985
284.05	5.986
284.26	6.911
284.47	5.172
284.68	6.150
284.89	6.233
285.11	7.555
285.32	5.624
285.53	7.349
285.74	6.174
285.95	4.925
286.16	6.014
286.37	4.547
286.58	5.333
286.79	5.099
287.00	5.643
287.21	5.337
287.42	4.616
287.63	4.859
287.84	6.136
288.05	5.810
288.26	4.229
288.48	7.127
288.69	4.564
288.90	6.861
289.11	8.073
289.32	8.001
289.53	6.172
289.74	5.982
289.95	6.111
290.16	5.416
290.37	5.101
290.58	4.153
290.79	5.225
291.00	4.474
291.21	4.332
291.42	5.563
291.63	6.526
291.84	7.250
292.05	4.766
292.26	3.994
292.47	5.421
292.68	5.658
292.89	6.004
293.10	6.141
293.31	4.336
293.52	6.114
293.73	6.943
293.94	5.189
294.15	5.490
294.36	7.199
294.57	5.091
294.79	6.054
295.00	4.068
295.21	6.411
295.42	5.593
295.63	7.264
295.84	5.879
296.05	4.346
296.26	4.736
296.47	4.147
296.68	5.352
296.89	5.667
297.10	5.197
297.31	5.878
297.52	3.308
297.73	5.186
297.94	3.738
298.15	3.802
298.36	4.800
298.57	4.151
298.78	4.512
298.99	4.353
299.20	4.568
299.41	4.841
299.62	4.954
299.83	4.495
300.04	4.555
300.25	5.903
300.46	5.554
300.67	5.069
300.88	5.596
301.09	5.304
301.30	4.941
301.50	6.440
301.71	6.076
301.92	6.218
302.13	7.111
302.34	4.282
302.55	4.487
302.76	4.800
302.97	5.043
303.18	6.313
303.39	5.975
303.60	5.458
303.81	5.085
304.02	4.659
304.23	6.062
304.44	7.035
304.65	3.343
304.86	6.458
305.07	5.369
305.28	5.844
305.49	6.329
305.70	5.966
305.91	6.915
306.12	6.054
306.33	5.158
306.54	5.470
306.75	5.015
306.96	8.364
307.17	5.073
307.38	7.409
307.58	4.514
307.79	5.062
308.00	4.903
308.21	5.675
308.42	6.224
308.63	5.401
308.84	5.654
309.05	6.770
309.26	3.305
309.47	5.239
309.68	4.980
309.89	5.162
310.10	5.175
310.31	5.730
310.52	4.430
310.73	5.592
310.94	2.884
311.14	5.663
311.35	4.936
311.56	5.002
311.77	4.311
311.98	5.006
312.19	5.308
312.40	3.667
312.61	4.058
312.82	5.711
313.03	3.926
313.24	4.784
313.45	5.786
313.66	4.589
313.86	6.613
314.07	4.974
314.28	6.239
314.49	5.188
314.70	7.036
314.91	5.336
315.12	4.972
315.33	6.676
315.54	5.706
315.75	4.930
315.96	4.207
316.16	6.437
316.37	4.715
316.58	6.478
316.79	5.040
317.00	5.469
317.21	5.207
317.42	5.694
317.63	5.595
317.84	5.611
318.05	5.632
318.25	6.455
318.46	4.757
318.67	5.827
318.88	5.534
319.09	5.857
319.30	5.531
319.51	5.673
319.72	7.732
319.93	5.720
320.13	6.186
320.34	5.723
320.55	5.722
320.76	5.952
320.97	5.490
321.18	7.611
321.39	5.615
321.60	8.491
321.80	8.350
322.01	5.482
322.22	5.348
322.43	6.321
322.64	5.962
322.85	6.636
323.06	6.658
323.27	5.220
323.47	7.874
323.68	6.827
323.89	5.144
324.10	6.974
324.31	4.428
324.52	6.425
324.73	6.628
324.93	6.648
325.14	5.974
325.35	6.220
325.56	3.207
325.77	4.032
325.98	6.676
326.19	5.447
326.39	5.417
326.60	4.824
326.81	4.442
327.02	6.029
327.23	4.701
327.44	5.247
327.64	4.259
327.85	4.218
328.06	4.590
328.27	7.414
328.48	5.984
328.69	3.711
328.90	5.208
329.10	6.171
329.31	5.394
329.52	6.367
329.73	5.845
329.94	6.171
330.15	6.093
330.35	8.285
330.56	6.332
330.77	6.426
330.98	4.680
331.19	5.685
331.39	7.675
331.60	5.789
331.81	4.721
332.02	5.138
332.23	6.180
332.44	5.804
332.64	5.500
332.85	3.820
333.06	5.879
333.27	4.502
333.48	6.021
333.68	5.131
333.89	5.678
334.10	5.191
334.31	4.732
334.52	5.432
334.72	4.515
334.93	6.690
335.14	5.445
335.35	5.139
335.56	5.555
335.76	4.544
335.97	5.379
336.18	5.823
336.39	5.244
336.60	5.443
336.80	4.246
337.01	3.517
337.22	4.705
337.43	5.326
337.64	5.744
337.84	5.229
338.05	4.388
338.26	6.757
338.47	6.179
338.68	4.408
338.88	4.802
339.09	4.402
339.30	6.280
339.51	4.241
339.71	5.412
339.92	4.600
340.13	5.517
340.34	5.655
340.55	6.140
340.75	6.956
340.96	4.268
341.17	6.160
341.38	5.492
341.58	5.485
341.79	4.866
342.00	5.034
342.21	4.868
342.41	4.306
342.62	4.580
342.83	5.412
343.04	3.983
343.24	4.776
343.45	4.493
343.66	4.653
343.87	4.352
344.07	4.876
344.28	5.499
344.49	5.071
344.70	4.775
344.90	4.613
345.11	3.300
345.32	4.473
345.53	5.394
345.73	5.561
345.94	4.086
346.15	5.215
346.36	4.605
346.56	4.833
346.77	4.906
346.98	3.158
347.19	5.197
347.39	4.984
347.60	3.542
347.81	3.861
348.02	5.170
348.22	4.992
348.43	4.416
348.64	5.110
348.84	5.022
349.05	5.680
349.26	6.521
349.47	4.712
349.67	5.331
349.88	5.199
350.09	5.185
350.30	7.042
350.50	4.775
350.71	5.419
350.92	5.074
351.12	6.198
351.33	4.821
351.54	5.306
351.74	6.154
351.95	4.848
352.16	7.023
352.37	5.293
352.57	6.162
352.78	6.515
352.99	5.981
353.19	6.415
353.40	5.791
353.61	6.973
353.82	7.215
354.02	7.845
354.23	6.067
354.44	8.359
354.64	5.797
354.85	6.278
355.06	5.972
355.26	5.511
355.47	6.388
355.68	6.788
355.88	7.728
356.09	7.452
356.30	6.083
356.51	8.553
356.71	7.579
356.92	6.024
357.13	8.421
357.33	8.806
357.54	7.518
357.75	6.002
357.95	8.343
358.16	7.293
358.37	8.785
358.57	6.942
358.78	9.537
358.99	6.805
359.19	6.888
359.40	9.192
359.61	8.502
359.81	8.982
360.02	11.469
360.23	7.651
360.43	8.022
360.64	8.127
360.85	8.987
361.05	7.332
361.26	9.750
361.47	8.057
361.67	10.712
361.88	7.133
362.09	9.815
362.29	7.840
362.50	8.609
362.70	7.280
362.91	10.039
363.12	8.224
363.32	9.765
363.53	9.637
363.74	10.089
363.94	7.361
364.15	11.855
364.36	11.159
364.56	9.274
364.77	10.869
364.98	12.365
365.18	9.414
365.39	11.602
365.59	8.889
365.80	9.656
366.01	11.004
366.21	10.236
366.42	8.531
366.63	11.442
366.83	8.893
367.04	8.036
367.24	11.519
367.45	8.802
367.66	7.949
367.86	9.778
368.07	10.095
368.28	9.526
368.48	10.615
368.69	8.732
368.89	9.865
369.10	9.458
369.31	9.687
369.51	10.924
369.72	11.844
369.92	12.457
370.13	8.030
370.34	10.618
370.54	6.985
370.75	10.544
370.95	8.526
371.16	10.271
371.37	10.638
371.57	9.410
371.78	9.856
371.98	10.555
372.19	10.744
372.40	11.140
372.60	10.618
372.81	11.741
373.01	8.604
373.22	9.118
373.43	10.586
373.63	10.825
373.84	10.566
374.04	10.903
374.25	10.625
374.46	12.523
374.66	10.220
374.87	12.184
375.07	8.776
375.28	10.148
375.48	10.396
375.69	11.720
375.90	9.532
376.10	9.505
376.31	10.729
376.51	9.626
376.72	10.454
376.92	9.871
377.13	10.726
377.34	11.357
377.54	10.802
377.75	11.803
377.95	10.632
378.16	12.193
378.36	10.905
378.57	13.111
378.77	11.096
378.98	12.606
379.19	10.545
379.39	10.153
379.60	11.110
379.80	11.209
380.01	12.933
380.21	11.956
380.42	12.785
380.62	11.892
380.83	12.680
381.04	11.793
381.24	12.155
381.45	12.923
381.65	11.206
381.86	12.461
382.06	11.674
382.27	11.786
382.47	11.568
382.68	13.817
382.88	10.580
383.09	11.761
383.29	12.333
383.50	14.196
383.71	11.129
383.91	13.164
384.12	12.673
384.32	13.285
384.53	13.100
384.73	12.553
384.94	12.306
385.14	12.930
385.35	11.987
385.55	13.904
385.76	12.930
385.96	13.531
386.17	13.911
386.37	14.673
386.58	13.473
386.78	14.831
386.99	12.787
387.19	15.085
387.40	13.867
387.60	15.823
387.81	13.567
388.01	14.134
388.22	14.784
388.42	16.658
388.63	15.821
388.83	17.027
389.04	13.323
389.24	15.322
389.45	14.737
389.65	15.213
389.86	14.833
390.06	14.786
390.27	15.294
390.47	15.502
390.68	15.561
390.88	17.526
391.09	16.305
391.29	17.182
391.50	16.414
391.70	17.414
391.91	16.047
392.11	17.215
392.32	16.939
392.52	18.730
392.73	17.574
392.93	18.422
393.14	17.217
393.34	17.513
393.55	19.007
393.75	18.358
393.95	17.375
394.16	19.074
394.36	18.593
394.57	19.114
394.77	18.292
394.98	19.436
395.18	18.463
395.39	19.032
395.59	18.655
395.80	19.415
396.00	19.105
396.21	19.650
396.41	18.325
396.61	20.133
396.82	19.146
397.02	21.193
397.23	18.821
397.43	19.755
397.64	18.943
397.84	20.554
398.05	18.816
398.25	20.329
398.45	19.761
398.66	20.255
398.86	19.147
399.07	21.089
399.27	19.486
399.48	20.641
399.68	19.319
399.89	20.073
400.09	20.209
400.29	19.788
400.50	19.621
400.70	20.451
400.91	19.784
401.11	20.596
401.32	20.453
401.52	18.763
401.72	19.930
401.93	21.478
402.13	20.003
402.34	20.239
402.54	18.983
402.75	21.956
402.95	18.820
403.15	21.441
403.36	20.079
403.56	22.587
403.77	19.376
403.97	20.618
404.17	19.953
404.38	21.112
404.58	20.321
404.79	21.321
404.99	20.780
405.19	20.929
405.40	20.888
405.60	20.589
405.81	20.480
406.01	21.395
406.21	20.581
406.42	21.855
406.62	21.201
406.83	20.859
407.03	22.114
407.23	20.921
407.44	20.050
407.64	21.420
407.85	21.635
408.05	21.017
408.25	20.765
408.46	22.706
408.66	20.958
408.87	21.493
409.07	20.321
409.27	20.179
409.48	20.031
409.68	21.004
409.88	19.532
410.09	20.549
410.29	20.834
410.50	22.163
410.70	19.890
410.90	20.748
411.11	20.237
411.31	20.829
411.51	20.862
411.72	21.673
411.92	20.074
412.12	21.464
412.33	20.784
412.53	20.333
412.74	19.115
412.94	21.008
413.14	20.620
413.35	21.514
413.55	21.069
413.75	21.401
413.96	20.125
414.16	20.907
414.36	20.094
414.57	21.237
414.77	19.854
414.97	21.048
415.18	19.875
415.38	21.240
415.58	19.900
415.79	20.215
415.99	19.806
416.19	21.286
416.40	20.778
416.60	20.473
416.80	19.990
417.01	21.265
417.21	19.423
417.41	20.737
417.62	19.450
417.82	20.755
418.02	19.859
418.23	21.018
418.43	20.591
418.63	21.077
418.84	20.638
419.04	19.955
419.24	20.349
419.45	20.052
419.65	20.343
419.85	21.126
420.06	20.165
420.26	21.142
420.46	20.455
420.67	20.025
420.87	20.173
421.07	20.226
421.28	20.251
421.48	20.437
421.68	20.882
421.88	20.530
422.09	20.456
422.29	20.773
422.49	20.413
422.70	20.354
422.90	20.742
423.10	20.732
423.31	20.534
423.51	20.509
423.71	20.685
423.91	20.543
424.12	20.426
424.32	20.788
424.52	20.127
424.73	20.573
424.93	20.883
425.13	20.315
425.33	20.306
425.54	20.203
425.74	20.490
425.94	20.723
426.15	20.724
426.35	20.790
426.55	20.719
426.75	21.363
426.96	20.882
427.16	20.701
427.36	21.206
427.57	21.521
427.77	20.858
427.97	21.405
428.17	21.438
428.38	21.231
428.58	20.510
428.78	21.279
428.98	21.177
429.19	20.812
429.39	20.659
429.59	21.005
429.79	20.036
430.00	20.720
430.20	20.501
430.40	20.588
430.60	21.015
430.81	20.553
431.01	20.522
431.21	21.094
431.41	20.143
431.62	21.382
431.82	20.383
432.02	20.903
432.22	20.849
432.43	21.320
432.63	21.019
432.83	21.228
433.03	20.642
433.24	21.236
433.44	20.816
433.64	21.307
433.84	20.774
434.05	21.540
434.25	21.634
434.45	21.730
434.65	21.740
434.85	21.356
435.06	21.520
435.26	21.134
435.46	22.180
435.66	21.927
435.87	21.786
436.07	22.171
436.27	21.749
436.47	21.711
436.67	22.055
436.88	21.859
437.08	21.889
437.28	22.239
437.48	21.454
437.69	22.467
437.89	21.966
438.09	22.193
438.29	22.264
438.49	22.370
438.70	21.741
438.90	21.835
439.10	21.195
439.30	21.814
439.50	21.977
439.71	22.326
439.91	22.098
440.11	22.146
440.31	21.824
440.51	22.088
440.72	22.198
440.92	21.552
441.12	22.721
441.32	22.399
441.52	22.595
441.72	22.447
441.93	22.537
442.13	23.199
442.33	22.716
442.53	22.978
442.73	22.928
442.94	23.038
443.14	23.317
443.34	23.164
443.54	22.455
443.74	23.025
443.94	23.119
444.15	22.775
444.35	22.925
444.55	22.915
444.75	22.661
444.95	22.748
445.15	22.383
445.36	22.239
445.56	22.810
445.76	22.329
445.96	22.287
446.16	22.501
446.36	22.448
446.57	22.280
446.77	22.536
446.97	22.537
447.17	22.678
447.37	22.939
447.57	22.787
447.77	22.705
447.98	22.817
448.18	22.923
448.38	22.824
448.58	23.117
448.78	23.121
448.98	23.176
449.18	23.043
449.39	23.770
449.59	23.394
449.79	23.210
449.99	23.530
450.19	23.830
450.39	23.396
450.59	23.459
450.79	23.563
451.00	22.889
451.20	24.468
451.40	24.055
451.60	23.673
451.80	23.450
452.00	23.197
452.20	23.595
452.40	22.985
452.61	23.242
452.81	23.205
453.01	22.772
453.21	22.858
453.41	23.220
453.61	23.394
453.81	23.149
454.01	23.729
454.21	23.650
454.42	23.203
454.62	23.723
454.82	23.427
455.02	23.384
455.22	23.397
455.42	23.436
455.62	23.531
455.82	23.251
456.02	23.428
456.23	23.088
456.43	22.616
456.63	23.486
456.83	22.901
457.03	23.601
457.23	23.205
457.43	23.757
457.63	23.324
457.83	23.360
458.03	23.272
458.23	23.285
458.43	22.890
458.64	23.129
458.84	23.305
459.04	23.143
459.24	22.723
459.44	22.536
459.64	22.534
459.84	21.963
460.04	22.556
460.24	22.878
460.44	22.798
460.64	22.664
460.84	23.044
461.04	23.143
461.24	23.069
461.45	23.206
461.65	23.726
461.85	23.269
462.05	23.526
462.25	23.837
462.45	23.399
462.65	23.441
462.85	23.960
463.05	23.637
463.25	23.389
463.45	23.819
463.65	23.577
463.85	23.027
464.05	23.244
464.25	23.985
464.45	22.942
464.65	23.426
464.85	23.782
465.05	23.392
465.26	23.770
465.46	23.619
465.66	23.203
465.86	23.733
466.06	23.915
466.26	23.116
466.46	22.742
466.66	23.740
466.86	23.012
467.06	22.985
467.26	23.251
467.46	23.479
467.66	23.203
467.86	23.599
468.06	23.580
468.26	24.269
468.46	23.615
468.66	23.276
468.86	23.385
469.06	23.738
469.26	23.509
469.46	23.753
469.66	23.257
469.86	23.635
470.06	23.777
470.26	23.855
470.46	23.478
470.66	23.606
470.86	23.630
471.06	23.609
471.26	24.048
471.46	23.676
471.66	23.826
471.86	24.141
472.06	23.960
472.26	24.259
472.46	24.746
472.66	24.212
472.86	23.899
473.06	24.548
473.26	24.569
473.46	24.255
473.66	23.645
473.86	24.303
474.06	24.440
474.26	24.324
474.46	24.365
474.66	24.206
474.86	24.121
475.06	24.726
475.26	24.329
475.46	24.524
475.66	24.412
475.86	24.596
476.06	24.678
476.26	24.429
476.46	24.398
476.66	24.423
476.86	23.964
477.06	24.390
477.26	24.155
477.46	25.016
477.65	24.357
477.85	24.401
478.05	24.418
478.25	25.230
478.45	24.728
478.65	24.898
478.85	24.629
479.05	24.511
479.25	25.040
479.45	25.106
479.65	25.046
479.85	24.815
480.05	25.103
480.25	24.781
480.45	24.818
480.65	24.833
480.85	25.385
481.05	25.338
481.25	24.937
481.44	24.851
481.64	24.769
481.84	24.656
482.04	24.962
482.24	24.702
482.44	24.561
482.64	24.439
482.84	24.321
483.04	24.587
483.24	24.076
483.44	24.281
483.64	23.711
483.84	24.081
484.04	24.100
484.23	24.589
484.43	25.073
484.63	25.414
484.83	25.996
485.03	27.001
485.23	27.047
485.43	26.728
485.63	26.609
485.83	26.395
486.03	26.559
486.23	26.650
486.42	26.508
486.62	25.957
486.82	25.300
487.02	25.398
487.22	25.259
487.42	25.033
487.62	25.093
487.82	25.082
488.02	25.226
488.22	25.333
488.41	25.180
488.61	25.375
488.81	25.129
489.01	25.830
489.21	25.892
489.41	26.078
489.61	25.963
489.81	26.194
490.01	26.317
490.20	26.477
490.40	26.086
490.60	26.108
490.80	25.660
491.00	25.451
491.20	25.378
491.40	24.843
491.60	24.771
491.79	24.927
491.99	25.193
492.19	25.069
492.39	25.218
492.59	25.368
492.79	25.613
492.99	25.675
493.19	25.714
493.38	26.157
493.58	26.417
493.78	26.227
493.98	26.265
494.18	26.355
494.38	26.100
494.58	26.463
494.77	26.080
494.97	25.762
495.17	25.874
495.37	25.693
495.57	26.039
495.77	25.760
495.96	25.255
496.16	25.653
496.36	24.976
496.56	25.195
496.76	25.444
496.96	25.207
497.15	25.692
497.35	25.300
497.55	25.446
497.75	25.669
497.95	25.515
498.15	25.883
498.34	25.924
498.54	25.635
498.74	26.068
498.94	26.111
499.14	25.879
499.34	26.047
499.53	26.220
499.73	25.725
499.93	25.530
500.13	26.027
500.33	25.713
500.52	25.864
500.72	25.723
500.92	25.898
501.12	25.674
501.32	25.441
501.52	26.320
501.71	26.379
501.91	25.847
502.11	26.216
502.31	25.131
502.51	25.817
502.70	25.990
502.90	26.216
503.10	25.896
503.30	26.225
503.50	26.054
503.69	25.699
503.89	26.083
504.09	26.205
504.29	26.191
504.48	26.100
504.68	26.082
504.88	26.013
505.08	26.000
505.28	25.973
505.47	26.196
505.67	26.088
505.87	26.316
506.07	26.866
506.27	25.801
506.46	26.178
506.66	26.519
506.86	26.535
507.06	26.505
507.25	26.206
507.45	26.484
507.65	26.429
507.85	26.212
508.04	26.646
508.24	26.326
508.44	26.130
508.64	25.996
508.83	25.922
509.03	26.264
509.23	25.555
509.43	26.264
509.63	26.277
509.82	26.287
510.02	26.627
510.22	26.389
510.42	26.357
510.61	26.205
510.81	26.356
511.01	26.741
511.21	26.196
511.40	26.787
511.60	26.630
511.80	26.776
511.99	26.360
512.19	26.819
512.39	26.557
512.59	26.421
512.78	26.922
512.98	26.433
513.18	26.961
513.38	26.999
513.57	26.845
513.77	27.067
513.97	26.702
514.17	27.217
514.36	26.756
514.56	27.337
514.76	27.231
514.95	26.583
515.15	26.867
515.35	26.876
515.55	26.627
515.74	26.923
515.94	27.121
516.14	26.493
516.33	26.733
516.53	26.625
516.73	26.962
516.93	26.879
517.12	26.904
517.32	26.577
517.52	26.522
517.71	26.314
517.91	26.188
518.11	26.660
518.30	26.607
518.50	26.095
518.70	26.815
518.90	26.489
519.09	26.630
519.29	26.614
519.49	26.736
519.68	26.462
519.88	26.844
520.08	26.997
520.27	27.131
520.47	27.288
520.67	26.961
520.86	27.433
521.06	27.303
521.26	27.417
521.45	27.360
521.65	27.197
521.85	27.096
522.04	27.415
522.24	26.871
522.44	27.304
522.63	27.079
522.83	26.875
523.03	27.152
523.22	27.315
523.42	27.653
523.62	27.163
523.81	27.178
524.01	27.424
524.21	27.186
524.40	27.431
524.60	26.820
524.80	26.670
524.99	26.616
525.19	26.736
525.39	27.007
525.58	26.990
525.78	26.660
525.98	26.629
526.17	26.604
526.37	27.009
526.57	26.813
526.76	27.079
526.96	27.010
527.15	27.102
527.35	27.064
527.55	26.831
527.74	27.226
527.94	26.725
528.14	26.497
528.33	26.301
528.53	26.303
528.72	26.620
528.92	27.026
529.12	27.110
529.31	27.457
529.51	27.562
529.71	27.658
529.90	27.602
530.10	27.978
530.29	28.208
530.49	28.632
530.69	28.469
530.88	28.530
531.08	28.174
531.28	27.984
531.47	27.864
531.67	27.734
531.86	27.833
532.06	27.581
532.26	27.323
532.45	27.818
532.65	27.479
532.84	27.307
533.04	27.026
533.24	27.148
533.43	26.888
533.63	27.100
533.82	27.620
534.02	27.502
534.22	27.634
534.41	27.671
534.61	27.464
534.80	28.095
535.00	28.143
535.19	28.284
535.39	28.080
535.59	28.467
535.78	28.109
535.98	28.196
536.17	27.744
536.37	27.679
536.57	27.347
536.76	27.412
536.96	27.897
537.15	28.035
537.35	27.352
537.54	28.112
537.74	27.873
537.93	27.977
538.13	28.087
538.33	27.786
538.52	28.763
538.72	28.745
538.91	28.140
539.11	28.347
539.30	28.520
539.50	28.607
539.70	28.186
539.89	28.169
540.09	28.125
540.28	27.562
540.48	27.478
540.67	27.366
540.87	27.568
541.06	27.354
541.26	27.184
541.45	27.707
541.65	27.919
541.85	27.957
542.04	27.909
542.24	27.929
542.43	28.300
542.63	28.595
542.82	28.547
543.02	28.664
543.21	29.194
543.41	29.362
543.60	29.247
543.80	28.973
543.99	29.126
544.19	28.947
544.38	28.894
544.58	29.023
544.77	28.968
544.97	29.219
545.16	28.988
545.36	29.245
545.56	28.982
545.75	28.814
545.95	28.977
546.14	28.888
546.34	28.754
546.53	29.062
546.73	28.835
546.92	29.383
547.12	29.235
547.31	28.745
547.51	29.540
547.70	29.409
547.90	29.482
548.09	29.181
548.29	29.689
548.48	29.427
548.68	29.877
548.87	29.509
549.07	30.115
549.26	29.547
549.46	30.118
549.65	30.441
549.84	30.197
550.04	29.701
550.23	29.993
550.43	29.226
550.62	30.322
550.82	29.937
551.01	30.141
551.21	30.008
551.40	29.635
551.60	30.231
551.79	29.992
551.99	30.038
552.18	30.390
552.38	30.242
552.57	29.779
552.77	29.583
552.96	30.740
553.16	30.365
553.35	30.473
553.54	30.325
553.74	30.870
553.93	31.397
554.13	31.578
554.32	30.959
554.52	31.440
554.71	31.099
554.91	31.611
555.10	31.556
555.29	30.709
555.49	31.713
555.68	31.368
555.88	31.385
556.07	31.729
556.27	31.668
556.46	31.381
556.66	31.134
556.85	31.567
557.04	31.735
557.24	31.503
557.43	32.535
557.63	32.076
557.82	31.775
558.02	31.636
558.21	32.182
558.40	32.184
558.60	32.387
558.79	32.347
558.99	32.446
559.18	32.364
559.38	32.723
559.57	32.973
559.76	33.027
559.96	33.641
560.15	32.825
560.35	32.793
560.54	32.379
560.73	32.818
560.93	32.620
561.12	33.375
561.32	32.620
561.51	33.380
561.70	33.309
561.90	33.173
562.09	33.060
562.29	33.612
562.48	33.983
562.67	33.708
562.87	33.829
563.06	33.539
563.26	33.539
563.45	34.369
563.64	33.713
563.84	34.025
564.03	33.723
564.23	33.761
564.42	34.270
564.61	34.233
564.81	33.897
565.00	34.970
565.20	34.469
565.39	34.742
565.58	34.265
565.78	34.652
565.97	35.125
566.16	35.150
566.36	34.516
566.55	35.348
566.74	34.921
566.94	35.049
567.13	35.645
567.33	35.399
567.52	34.837
567.71	36.368
567.91	35.617
568.10	36.122
568.29	35.750
568.49	36.379
568.68	35.990
568.87	35.724
569.07	36.839
569.26	36.163
569.45	36.497
569.65	36.640
569.84	35.808
570.04	36.473
570.23	36.012
570.42	35.865
570.62	36.663
570.81	36.121
571.00	36.243
571.20	36.367
571.39	36.230
571.58	36.686
571.78	36.867
571.97	36.804
572.16	36.609
572.36	36.805
572.55	36.578
572.74	37.020
572.94	36.775
573.13	37.255
573.32	37.561
573.51	37.075
573.71	37.859
573.90	37.131
574.09	37.367
574.29	37.456
574.48	36.995
574.67	37.127
574.87	37.640
575.06	37.346
575.25	38.000
575.45	37.440
575.64	37.691
575.83	37.580
576.03	38.796
576.22	38.386
576.41	38.070
576.60	37.562
576.80	37.328
576.99	37.648
577.18	37.851
577.38	38.400
577.57	38.047
577.76	37.761
577.95	37.792
578.15	37.871
578.34	38.348
578.53	38.302
578.73	38.439
578.92	38.285
579.11	38.161
579.30	38.218
579.50	38.360
579.69	38.731
579.88	38.150
580.08	38.776
580.27	37.574
580.46	37.809
580.65	38.098
580.85	38.305
581.04	38.615
581.23	38.330
581.42	38.646
581.62	38.456
581.81	38.857
582.00	39.276
582.19	38.552
582.39	37.613
582.58	38.906
582.77	39.102
582.96	38.094
583.16	38.357
583.35	38.968
583.54	38.455
583.73	38.798
583.93	38.572
584.12	38.243
584.31	38.291
584.50	37.976
584.70	38.799
584.89	38.198
585.08	37.622
585.27	38.881
585.47	38.846
585.66	38.193
585.85	38.541
586.04	38.029
586.24	38.797
586.43	38.848
586.62	38.571
586.81	38.078
587.00	39.326
587.20	37.766
587.39	38.583
587.58	38.657
587.77	38.739
587.97	38.619
588.16	39.132
588.35	38.434
588.54	38.378
588.73	38.379
588.93	38.082
589.12	38.355
589.31	38.405
589.50	38.640
589.69	38.546
589.89	38.058
590.08	38.135
590.27	38.558
590.46	38.552
590.65	38.958
590.85	38.227
591.04	37.974
591.23	38.670
591.42	37.970
591.61	39.626
591.81	38.093
592.00	38.087
592.19	38.879
592.38	39.044
592.57	38.692
592.77	38.976
592.96	38.850
593.15	39.310
593.34	38.746
593.53	38.672
593.72	38.495
593.92	38.926
594.11	39.158
594.30	38.040
594.49	39.102
594.68	38.614
594.87	38.969
595.07	38.347
595.26	39.279
595.45	38.737
595.64	37.933
595.83	39.250
596.02	38.279
596.22	38.645
596.41	38.656
596.60	38.590
596.79	39.281
596.98	38.990
597.17	39.023
597.37	39.344
597.56	39.118
597.75	39.126
597.94	39.597
598.13	39.276
598.32	39.115
598.51	39.716
598.71	39.834
598.90	39.449
599.09	40.790
599.28	39.877
599.47	40.171
599.66	39.928
599.85	40.021
600.05	40.135
600.24	40.695
600.43	40.278
600.62	39.994
600.81	39.087
601.00	40.302
601.19	41.059
601.38	40.411
601.58	40.578
601.77	40.145
601.96	40.051
602.15	40.642
602.34	40.547
602.53	40.789
602.72	40.075
602.91	40.559
603.10	40.154
603.30	39.651
603.49	40.056
603.68	40.182
603.87	39.785
604.06	40.445
604.25	40.446
604.44	39.732
604.63	40.373
604.82	40.282
605.01	40.274
605.21	40.350
605.40	39.918
605.59	40.257
605.78	39.721
605.97	39.924
606.16	40.901
606.35	40.677
606.54	41.071
606.73	40.455
606.92	40.237
607.11	40.888
607.30	40.956
607.50	40.702
607.69	40.644
607.88	40.776
608.07	39.737
608.26	39.875
608.45	40.567
608.64	40.722
608.83	40.226
609.02	39.929
609.21	39.089
609.40	39.101
609.59	40.590
609.78	39.969
609.97	40.303
610.16	39.387
610.35	39.471
610.55	39.455
610.74	40.016
610.93	40.087
611.12	39.762
611.31	39.876
611.50	40.085
611.69	40.026
611.88	40.367
612.07	40.131
612.26	39.870
612.45	39.869
612.64	39.655
612.83	39.832
613.02	39.933
613.21	39.276
613.40	39.642
613.59	40.273
613.78	39.576
613.97	40.235
614.16	39.740
614.35	39.824
614.54	39.859
614.73	38.936
614.92	39.378
615.11	39.630
615.30	39.735
615.49	38.628
615.68	39.440
615.87	39.040
616.07	38.292
616.26	39.568
616.45	39.591
616.64	39.316
616.83	38.412
617.02	39.574
617.21	39.317
617.40	38.987
617.59	38.755
617.78	39.083
617.97	38.724
618.16	38.001
618.35	37.655
618.54	38.265
618.73	37.819
618.92	38.359
619.11	38.463
619.30	38.338
619.49	38.657
619.68	37.728
619.86	38.305
620.05	38.657
620.24	36.941
620.43	38.040
620.62	37.023
620.81	38.562
621.00	37.592
621.19	38.432
621.38	38.739
621.57	38.498
621.76	37.636
621.95	38.156
622.14	38.046
622.33	38.078
622.52	38.165
622.71	37.657
622.90	37.145
623.09	37.624
623.28	37.916
623.47	38.462
623.66	37.510
623.85	37.933
624.04	37.276
624.23	37.487
624.42	37.929
624.61	37.404
624.80	37.767
624.99	37.622
625.18	37.562
625.36	37.303
625.55	38.355
625.74	38.414
625.93	37.407
626.12	37.592
626.31	37.205
626.50	38.026
626.69	37.005
626.88	37.569
627.07	37.224
627.26	37.082
627.45	36.627
627.64	38.046
627.83	36.654
628.02	37.234
628.20	37.432
628.39	37.796
628.58	37.512
628.77	37.949
628.96	37.430
629.15	37.508
629.34	36.695
629.53	37.201
629.72	37.064
629.91	37.951
630.10	36.645
630.29	36.284
630.47	37.616
630.66	37.784
630.85	36.458
631.04	36.478
631.23	37.231
631.42	36.813
631.61	37.062
631.80	37.102
631.99	36.349
632.18	36.960
632.36	35.680
632.55	36.249
632.74	36.816
632.93	37.224
633.12	36.196
633.31	36.496
633.50	36.296
633.69	36.620
633.88	37.112
634.06	36.362
634.25	36.912
634.44	36.945
634.63	37.507
634.82	36.802
635.01	36.706
635.20	36.209
635.39	36.263
635.57	37.642
635.76	36.805
635.95	37.158
636.14	36.490
636.33	36.570
636.52	37.011
636.71	36.920
636.89	36.643
637.08	36.278
637.27	36.434
637.46	36.356
637.65	36.418
637.84	37.033
638.03	36.700
638.21	35.765
638.40	35.894
638.59	36.840
638.78	37.072
638.97	37.352
639.16	36.235
639.34	36.761
639.53	37.009
639.72	36.154
639.91	37.066
640.10	36.121
640.29	36.894
640.47	36.518
640.66	37.414
640.85	38.144
641.04	36.588
641.23	36.840
641.42	37.396
641.60	37.288
641.79	36.822
641.98	37.709
642.17	36.748
642.36	37.103
642.54	35.744
642.73	37.139
642.92	36.239
643.11	37.212
643.30	37.055
643.49	37.099
643.67	36.195
643.86	36.789
644.05	37.262
644.24	36.254
644.43	36.857
644.61	37.015
644.80	37.391
644.99	36.499
645.18	37.266
645.37	37.105
645.55	37.014
645.74	37.279
645.93	36.675
646.12	36.915
646.31	35.745
646.49	36.992
646.68	37.001
646.87	36.418
647.06	36.850
647.24	36.627
647.43	36.182
647.62	37.103
647.81	35.412
648.00	37.925
648.18	35.539
648.37	36.118
648.56	36.571
648.75	37.740
648.93	37.220
649.12	36.526
649.31	37.990
649.50	36.338
649.68	35.850
649.87	35.744
650.06	35.045
650.25	36.514
650.43	35.746
650.62	36.171
650.81	35.715
651.00	35.539
651.18	35.175
651.37	36.331
651.56	35.795
651.75	36.369
651.93	35.748
652.12	36.038
652.31	36.246
652.50	37.098
652.68	35.360
652.87	36.207
653.06	36.769
653.25	35.599
653.43	36.047
653.62	35.858
653.81	35.269
654.00	35.156
654.18	34.714
654.37	35.890
654.56	35.299
654.74	34.410
654.93	35.082
655.12	35.766
655.31	35.621
655.49	35.361
655.68	34.139
655.87	34.436
656.05	33.243
656.24	35.101
656.43	34.350
656.62	34.842
656.80	35.202
656.99	33.845
657.18	34.403
657.36	33.273
657.55	34.639
657.74	34.143
657.93	34.231
658.11	34.326
658.30	33.133
658.49	33.072
658.67	32.966
658.86	33.325
659.05	32.436
659.23	33.222
659.42	33.662
659.61	31.987
659.79	33.720
659.98	32.234
660.17	32.812
660.35	31.600
660.54	32.238
660.73	32.945
660.91	31.985
661.10	32.378
661.29	31.547
661.47	31.449
661.66	30.402
661.85	31.929
662.03	32.217
662.22	31.304
662.41	30.418
662.59	31.958
662.78	29.822
662.97	30.876
663.15	31.175
663.34	30.016
663.53	29.317
663.71	30.655
663.90	28.824
664.09	31.096
664.27	29.763
664.46	29.687
664.65	29.872
664.83	29.832
665.02	29.022
665.21	27.921
665.39	28.045
665.58	29.644
665.77	28.089
665.95	27.510
666.14	26.267
666.32	28.100
666.51	26.824
666.70	28.267
666.88	26.542
667.07	27.937
667.26	26.282
667.44	28.672
667.63	26.762
667.81	27.272
668.00	27.509
668.19	28.444
668.37	26.816
668.56	27.607
668.75	25.581
668.93	28.546
669.12	27.320
669.30	28.209
669.49	26.385
669.68	28.377
669.86	27.332
670.05	26.987
670.23	27.095
670.42	27.592
670.61	26.985
670.79	26.574
670.98	26.794
671.16	27.836
671.35	25.694
671.54	26.523
671.72	26.756
671.91	27.044
672.09	24.498
672.28	27.530
672.46	27.377
672.65	26.874
672.84	27.002
673.02	27.214
673.21	25.714
673.39	26.489
673.58	26.859
673.77	27.190
673.95	26.715
674.14	27.966
674.32	26.543
674.51	29.143
674.69	27.104
674.88	27.669
675.07	27.089
675.25	28.554
675.44	27.006
675.62	27.433
675.81	26.595
675.99	29.935
676.18	27.995
676.36	27.792
676.55	25.696
676.74	29.565
676.92	28.541
677.11	28.380
677.29	27.163
677.48	30.429
677.66	28.350
677.85	28.478
678.03	28.450
678.22	29.204
678.40	27.477
678.59	28.972
678.78	27.361
678.96	29.149
679.15	28.417
679.33	30.992
679.52	30.255
679.70	29.362
679.89	30.086
680.07	30.304
680.26	28.811
680.44	30.601
680.63	29.154
680.81	29.937
681.00	28.972
681.18	30.116
681.37	29.356
681.55	31.594
681.74	30.381
681.92	30.437
682.11	29.436
682.29	30.441
682.48	31.298
682.66	32.300
682.85	31.727
683.03	31.237
683.22	31.997
683.40	33.359
683.59	31.735
683.77	33.901
683.96	32.593
684.14	33.482
684.33	31.892
684.51	34.028
684.70	33.083
684.88	34.250
685.07	34.982
685.25	36.549
685.44	33.841
685.62	34.846
685.81	33.219
685.99	37.727
686.18	34.298
686.36	36.010
686.55	34.196
686.73	36.375
686.92	37.782
687.10	37.168
687.29	36.815
687.47	38.668
687.65	38.142
687.84	37.770
688.02	38.365
688.21	40.063
688.39	36.587
688.58	38.904
688.76	39.376
688.95	39.728
689.13	39.291
689.32	40.821
689.50	41.230
689.68	41.428
689.87	40.537
690.05	40.782
690.24	42.047
690.42	42.497
690.61	43.547
690.79	45.334
690.98	42.586
691.16	44.256
691.34	42.594
691.53	46.113
691.71	42.899
691.90	44.938
692.08	44.264
692.27	47.569
692.45	46.302
692.63	46.047
692.82	46.581
693.00	48.432
693.19	47.369
693.37	48.733
693.56	48.783
693.74	49.277
693.92	48.086
694.11	50.984
694.29	50.302
694.48	49.651
694.66	50.573
694.84	50.353
695.03	51.801
695.21	51.511
695.40	52.064
695.58	53.740
695.76	53.332
695.95	53.907
696.13	53.061
696.32	53.488
696.50	55.427
696.68	53.498
696.87	53.374
697.05	55.526
697.24	55.319
697.42	54.630
697.60	54.973
697.79	55.297
697.97	56.909
698.16	56.743
698.34	54.841
698.52	57.106
698.71	55.032
698.89	56.880
699.07	53.800
699.26	56.162
699.44	55.317
699.63	57.338
699.81	56.174
699.99	55.149
700.18	56.823
700.36	57.732
700.54	57.861
700.73	56.747
700.91	57.331
701.09	58.240
701.28	59.198
701.46	57.969
701.64	60.828
701.83	59.427
702.01	59.465
702.20	59.583
702.38	60.673
702.56	60.235
702.75	61.614
702.93	61.918
703.11	61.358
703.30	62.905
703.48	61.690
703.66	63.902
703.85	63.723
704.03	63.791
704.21	62.527
704.40	65.710
704.58	62.678
704.76	64.632
704.95	64.999
705.13	63.916
705.31	63.627
705.50	64.857
705.68	63.522
705.86	64.795
706.04	65.089
706.23	67.052
706.41	61.453
706.59	64.896
706.78	65.041
706.96	64.856
707.14	64.117
707.33	67.131
707.51	65.442
707.69	67.443
707.88	65.513
708.06	67.930
708.24	67.284
708.42	68.110
708.61	65.352
708.79	66.155
708.97	65.307
709.16	64.907
709.34	69.559
709.52	67.857
709.71	64.796
709.89	67.697
710.07	64.819
710.25	67.884
710.44	65.587
710.62	66.868
710.80	66.188
710.98	65.962
711.17	66.561
711.35	65.907
711.53	67.656
711.72	66.244
711.90	67.561
712.08	66.294
712.26	67.057
712.45	67.535
712.63	65.411
712.81	68.131
712.99	67.417
713.18	65.869
713.36	67.638
713.54	68.241
713.72	65.943
713.91	67.894
714.09	65.950
714.27	67.512
714.45	68.288
714.64	68.210
714.82	68.404
715.00	66.221
715.18	68.262
715.37	67.943
715.55	67.825
715.73	67.559
715.91	67.639
716.10	67.613
716.28	66.797
716.46	66.631
716.64	66.076
716.83	68.828
717.01	67.062
717.19	66.959
717.37	67.343
717.55	67.728
717.74	67.715
717.92	67.419
718.10	66.400
718.28	67.633
718.47	69.326
718.65	67.529
718.83	67.751
719.01	68.571
719.19	67.491
719.38	68.925
719.56	67.793
719.74	69.733
719.92	67.331
720.10	69.578
720.29	67.620
720.47	68.368
720.65	68.968
720.83	70.414
721.01	68.232
721.20	69.760
721.38	68.643
721.56	68.492
721.74	69.038
721.92	69.486
722.11	69.918
722.29	70.057
722.47	69.913
722.65	71.419
722.83	69.381
723.01	69.045
723.20	71.393
723.38	69.537
723.56	68.726
723.74	72.073
723.92	66.966
724.10	69.641
724.29	68.486
724.47	70.741
724.65	71.870
724.83	72.886
725.01	69.095
725.19	72.814
725.38	67.840
725.56	68.931
725.74	71.651
725.92	71.242
726.10	72.060
726.28	69.727
726.46	70.639
726.65	71.261
726.83	69.232
727.01	69.493
727.19	68.758
727.37	71.884
727.55	70.494
727.73	69.459
727.92	70.697
728.10	70.392
728.28	68.063
728.46	71.350
728.64	69.585
728.82	69.770
729.00	70.935
729.19	72.580
729.37	68.585
729.55	70.989
729.73	67.772
729.91	71.770
730.09	69.975
730.27	72.333
730.45	69.907
730.63	70.790
730.82	70.549
731.00	69.542
731.18	71.587
731.36	69.545
731.54	67.334
731.72	71.922
731.90	69.124
732.08	72.769
732.26	69.208
732.45	72.417
732.63	69.758
732.81	71.166
732.99	69.432
733.17	70.724
733.35	72.072
733.53	73.473
733.71	71.767
733.89	71.720
734.07	71.308
734.25	68.688
734.44	69.471
734.62	70.562
734.80	71.023
734.98	73.097
735.16	72.227
735.34	74.324
735.52	70.925
735.70	73.055
735.88	73.916
736.06	71.889
736.24	74.841
736.42	70.946
736.60	73.486
736.78	72.554
736.97	73.158
737.15	75.990
737.33	72.443
737.51	73.227
737.69	75.603
737.87	76.320
738.05	73.546
738.23	77.082
738.41	72.588
738.59	76.075
738.77	71.980
738.95	73.724
739.13	74.218
739.31	75.761
739.49	75.261
739.67	74.562
739.85	73.261
740.03	72.372
740.21	76.428
740.39	74.682
740.57	74.756
740.75	75.450
740.93	73.517
741.11	72.968
741.30	73.600
741.48	78.463
741.66	77.895
741.84	76.214
742.02	74.761
742.20	74.782
742.38	74.280
742.56	76.683
742.74	75.557
742.92	76.956
743.10	73.341
743.28	75.479
743.46	76.874
743.64	72.228
743.82	74.385
744.00	76.393
744.18	76.530
744.36	78.251
744.54	78.461
744.72	78.986
744.90	79.591
745.08	78.206
745.26	76.637
745.44	73.910
745.62	73.731
745.80	75.917
745.98	73.776
746.16	77.713
746.34	80.851
746.52	77.058
746.70	73.392
746.87	75.841
747.05	75.172
747.23	78.870
747.41	78.333
747.59	78.521
747.77	75.995
747.95	79.870
748.13	78.068
748.31	77.947
748.49	76.842
748.67	75.070
748.85	75.016
749.03	78.107
749.21	75.831
749.39	76.642
749.57	77.369
749.75	75.859
749.93	75.988
750.11	78.421
750.29	76.483
750.47	76.428
750.65	73.877
750.83	74.235
751.01	75.234
751.18	74.862
751.36	78.003
751.54	79.192
751.72	79.396
751.90	80.171
752.08	74.204
752.26	76.462
752.44	75.623
752.62	78.659
752.80	77.640
752.98	75.725
753.16	77.971
753.34	77.754
753.52	79.134
753.69	78.771
753.87	76.009
754.05	78.656
754.23	74.631
754.41	76.224
754.59	76.361
754.77	76.455
754.95	76.245
755.13	76.583
755.31	77.993
755.49	78.454
755.66	80.062
755.84	75.237
756.02	75.696
756.20	77.717
756.38	77.261
756.56	75.686
756.74	78.448
756.92	76.450
757.10	73.132
757.28	80.506
757.45	80.421
757.63	79.263
757.81	75.338
757.99	80.222
758.17	77.598
758.35	77.961
758.53	77.980
758.71	78.824
758.88	74.095
759.06	80.268
759.24	72.746
759.42	75.819
759.60	73.560
759.78	73.852
759.96	72.824
760.13	73.861
760.31	68.756
760.49	71.074
760.67	67.398
760.85	73.538
761.03	68.836
761.21	66.453
761.38	67.818
761.56	69.512
761.74	66.378
761.92	69.357
762.10	64.166
762.28	68.619
762.46	65.749
762.63	69.516
762.81	69.078
762.99	68.973
763.17	69.585
763.35	66.948
763.53	67.322
763.70	69.765
763.88	70.510
764.06	70.338
764.24	68.771
764.42	67.978
764.60	69.614
764.77	67.412
764.95	68.371
765.13	69.731
765.31	70.721
765.49	69.476
765.66	69.308
765.84	70.616
766.02	70.880
766.20	72.762
766.38	69.722
766.56	70.946
766.73	71.234
766.91	72.245
767.09	73.281
767.27	74.667
767.45	75.473
767.62	73.176
767.80	73.603
767.98	74.431
768.16	73.513
768.33	76.487
768.51	74.898
768.69	79.153
768.87	73.126
769.05	75.153
769.22	73.385
769.40	79.258
769.58	77.901
769.76	79.495
769.94	78.835
770.11	75.287
770.29	72.208
770.47	77.567
770.65	76.327
770.82	78.019
771.00	81.266
771.18	78.941
771.36	74.374
771.53	75.758
771.71	79.165
771.89	81.403
772.07	80.496
772.25	77.787
772.42	75.453
772.60	79.019
772.78	75.662
772.96	82.467
773.13	80.952
773.31	80.842
773.49	74.696
773.67	81.691
773.84	82.782
774.02	80.146
774.20	76.758
774.37	77.912
774.55	76.730
774.73	76.178
774.91	74.801
775.08	81.138
775.26	77.321
775.44	82.347
775.62	76.150
775.79	76.998
775.97	78.998
776.15	80.651
776.32	71.507
776.50	83.129
776.68	86.556
776.86	82.535
777.03	71.878
777.21	81.120
777.39	74.511
777.56	82.183
777.74	73.535
777.92	81.646
778.10	75.489
778.27	79.174
778.45	84.830
778.63	77.958
778.80	73.874
778.98	78.502
779.16	79.138
779.34	77.288
779.51	77.248
779.69	78.164
779.87	75.850
780.04	76.834
780.22	74.988
780.40	81.007
780.57	74.305
780.75	78.558
780.93	75.126
781.10	76.286
781.28	79.719
781.46	77.710
781.63	75.561
781.81	85.758
781.99	67.926
782.16	73.599
782.34	77.688
782.52	80.118
782.69	79.372
782.87	80.141
783.05	73.754
783.22	77.157
783.40	79.478
783.58	83.272
783.75	72.320
783.93	78.697
784.11	73.528
784.28	77.926
784.46	76.941
784.64	80.054
784.81	72.742
784.99	79.680
785.17	71.676
785.34	78.098
785.52	69.754
785.69	74.389
785.87	75.956
786.05	78.467
786.22	76.583
786.40	86.019
786.58	74.136
786.75	77.765
786.93	76.780
787.11	74.153
787.28	76.776
787.46	81.893
787.63	75.665
787.81	76.283
787.99	74.482
788.16	74.292
788.34	75.701
788.51	78.304
788.69	72.585
788.87	75.012
789.04	73.123
789.22	73.775
789.39	73.870
789.57	78.154
789.75	72.527
789.92	73.631
790.10	69.326
790.27	76.204
790.45	75.688
790.63	71.900
790.80	67.943
790.98	77.673
791.15	72.585
791.33	78.076
791.51	68.019
791.68	76.412
791.86	73.115
792.03	72.635
792.21	73.754
792.39	71.902
792.56	67.879
792.74	77.335
792.91	77.632
793.09	65.968
793.26	69.403
793.44	73.294
793.62	74.969
793.79	70.734
793.97	71.012
794.14	78.106
794.32	70.081
794.49	74.703
794.67	65.747
794.84	71.394
795.02	72.345
795.20	75.525
795.37	68.787
795.55	76.031
795.72	73.086
795.90	77.872
796.07	72.599
796.25	76.114
796.42	68.865
796.60	72.396
796.77	72.423
796.95	76.699
797.13	70.751
797.30	70.080
797.48	66.099
797.65	74.467
797.83	67.435
798.00	72.623
798.18	69.951
798.35	73.222
798.53	71.803
798.70	68.263
798.88	67.361
799.05	73.780
799.23	71.179
799.40	69.675
799.58	75.571
799.75	75.345
799.93	73.270
800.10	72.614
800.28	71.665
800.45	78.708
800.63	68.434
800.80	79.122
800.98	70.627
801.15	70.312
801.33	67.066
801.50	67.517
801.68	61.609
801.85	66.729
802.03	66.646
802.20	77.813
802.38	69.250
802.55	69.872
802.73	67.836
802.90	71.822
803.08	65.212
803.25	77.024
803.43	75.569
803.60	73.891
803.78	68.880
803.95	75.758
804.13	72.472
804.30	73.636
804.48	67.085
804.65	69.202
804.83	69.764
805.00	79.145
805.17	74.793
805.35	73.508
805.52	68.116
805.70	74.104
805.87	69.919
806.05	77.205
806.22	70.859
806.40	70.058
806.57	70.321
806.75	80.106
806.92	73.275
807.09	75.596
807.27	66.918
807.44	72.904
807.62	73.677
807.79	73.981
807.97	68.829
808.14	70.853
808.31	67.087
808.49	73.832
808.66	66.143
808.84	66.645
809.01	77.944
809.19	73.641
809.36	71.054
809.53	65.720
809.71	72.444
809.88	76.578
810.06	75.656
810.23	73.659
810.41	73.095
810.58	74.768
810.75	62.693
810.93	72.061
811.10	65.560
811.28	80.789
811.45	71.371
811.62	75.834
811.80	67.036
811.97	75.518
812.15	76.046
812.32	71.041
812.49	71.537
812.67	72.226
812.84	64.162
813.02	72.995
813.19	58.731
813.36	68.543
813.54	61.445
813.71	72.166
813.89	59.217
814.06	71.014
814.23	68.478
814.41	64.384
814.58	61.941
814.75	61.726
814.93	68.601
815.10	70.826
815.28	56.076
815.45	56.934
815.62	71.213
815.80	62.131
815.97	59.268
816.14	67.286
816.32	65.837
816.49	62.510
816.66	61.618
816.84	62.737
817.01	60.103
817.18	70.056
817.36	65.246
817.53	63.009
817.71	52.464
817.88	66.748
818.05	63.546
818.23	64.081
818.40	54.375
818.57	62.341
818.75	59.738
818.92	58.179
819.09	59.132
819.27	69.803
819.44	61.527
819.61	61.746
819.79	62.509
819.96	61.475
820.13	62.745
820.31	68.418
820.48	60.961
820.65	65.397
820.82	60.580
821.00	64.940
821.17	60.907
821.34	64.510
821.52	65.530
821.69	65.247
821.86	65.205
822.04	68.084
822.21	66.291
822.38	70.325
822.56	67.579
822.73	67.147
822.90	65.354
823.07	66.107
823.25	65.921
823.42	66.463
823.59	64.418
823.77	65.450
823.94	66.188
824.11	64.593
824.29	64.406
824.46	65.207
824.63	65.123
824.80	65.235
824.98	64.641
825.15	65.562
825.32	65.387
825.49	68.489
825.67	65.132
825.84	66.770
826.01	64.091
826.19	68.691
826.36	65.743
826.53	70.542
826.70	65.387
826.88	70.732
827.05	64.962
827.22	67.410
827.39	67.241
827.57	64.671
827.74	62.809
827.91	65.397
828.08	62.500
828.26	64.844
828.43	64.112
828.60	67.057
828.77	62.335
828.95	64.753
829.12	58.923
829.29	61.933
829.46	62.364
829.64	66.623
829.81	59.504
829.98	63.858
830.15	60.674
830.32	63.044
830.50	61.392
830.67	63.412
830.84	60.079
831.01	55.667
831.19	52.204
831.36	62.631
831.53	56.116
831.70	62.218
831.87	62.267
832.05	63.669
832.22	66.208
832.39	52.507
832.56	65.227
832.74	64.291
832.91	55.298
833.08	69.751
833.25	51.536
833.42	60.285
833.60	55.335
833.77	58.003
833.94	59.454
834.11	62.084
834.28	55.197
834.45	65.357
834.63	58.999
834.80	62.287
834.97	59.440
835.14	66.164
835.31	63.062
835.49	63.282
835.66	63.670
835.83	65.061
836.00	56.989
836.17	64.886
836.34	61.462
836.52	60.865
836.69	61.422
836.86	62.559
837.03	59.887
837.20	57.861
837.37	61.911
837.55	51.754
837.72	59.312
837.89	65.436
838.06	62.582
838.23	71.070
838.40	61.301
838.58	62.147
838.75	61.268
838.92	61.816
839.09	67.857
839.26	65.973
839.43	70.563
839.60	66.844
839.78	76.215
839.95	72.603
840.12	61.804
840.29	72.196
840.46	62.387
840.63	58.576
840.80	66.078
840.98	67.261
841.15	64.122
841.32	63.830
841.49	61.287
841.66	72.523
841.83	58.661
842.00	61.506
842.17	74.085
842.34	55.371
842.52	64.176
842.69	67.996
842.86	60.748
843.03	76.514
843.20	63.774
843.37	72.052
843.54	61.273
843.71	75.198
843.88	74.270
844.06	88.750
844.23	64.706
844.40	55.723
844.57	81.366
844.74	83.729
844.91	77.301
845.08	67.732
845.25	86.555
845.42	78.403
845.59	82.625
845.76	82.136
845.94	77.660
846.11	81.711
846.28	82.261
846.45	86.998
846.62	88.889
846.79	77.273
846.96	86.705
847.13	80.266
847.30	77.402
847.47	85.132
847.64	72.888
847.81	67.152
847.98	77.801
848.15	75.579
848.32	87.262
848.50	100.791
848.67	72.029
848.84	83.198
849.01	84.756
849.18	79.141
849.35	99.012
849.52	101.188
849.69	77.494
849.86	114.706
850.03	96.956
850.20	78.987
850.37	83.180
850.54	91.650
850.71	88.027
850.88	73.029
851.05	75.000
851.22	85.243
851.39	88.994
851.56	90.022
851.73	84.941
851.90	99.083
852.07	88.010
852.24	88.454
852.41	83.726
852.58	85.476
852.75	71.395
852.92	84.306
853.09	111.798
853.26	83.579
853.43	99.556
853.60	72.557
853.77	86.247
853.94	86.037
854.11	83.527
854.28	106.829
854.45	76.000
854.62	100.000
854.79	73.673
854.96	98.214
855.13	91.879
855.30	92.500
855.47	108.673
855.64	93.096
855.81	75.837
855.98	108.943
856.15	77.846
856.32	75.574
856.49	76.832
856.66	80.986
856.83	93.103
857.00	101.674
857.17	98.960
857.34	69.737
857.51	89.451
857.68	81.862
857.85	118.983
858.02	101.956
858.19	91.331
858.36	87.160
858.53	102.784
858.70	93.860
858.87	94.167
859.04	86.878
859.21	88.362
859.38	85.833
859.55	104.380
859.72	99.711
859.89	124.781
860.05	87.990
860.22	99.474
860.39	85.714
860.56	92.677
860.73	93.795
860.90	75.342
861.07	92.922
861.24	89.474
861.41	89.683
861.58	90.824
861.75	86.635
861.92	77.899
862.09	87.089
862.26	81.087
862.43	90.358
862.59	102.315
862.76	78.344
862.93	98.919
863.10	99.045
863.27	99.410
863.44	91.176
863.61	82.273
863.78	105.373
863.95	95.012
864.12	142.056
864.29	97.264
864.45	75.315
864.62	93.455
864.79	102.475
864.96	83.127
865.13	97.783
865.30	95.000
865.47	86.351
865.64	99.057
865.81	93.664
865.97	83.213
866.14	88.641
866.31	74.178
866.48	83.550
866.65	86.458
866.82	97.362
866.99	112.137
867.16	96.073
867.33	92.235
867.49	83.863
867.66	96.145
867.83	75.991
868.00	76.247
868.17	87.644
868.34	91.295
868.51	65.942
868.67	95.972
868.84	84.138
869.01	99.078
869.18	97.073
869.35	76.159
869.52	88.750
869.69	111.890
869.85	95.062
870.02	76.456
870.19	96.172
870.36	88.624
870.53	80.186
870.70	91.702
870.86	82.902
871.03	89.791
871.20	91.584
871.37	94.430
871.54	73.370
871.71	87.621
871.87	102.989
872.04	100.330
872.21	82.561
872.38	84.352
872.55	94.177
872.72	80.631
872.88	116.338
873.05	81.370
873.22	83.570
873.39	59.338
873.56	77.449
873.72	78.846
873.89	85.174
874.06	69.845
874.23	89.005
874.40	87.476
874.56	92.931
874.73	91.748
874.90	77.273
875.07	71.616
875.24	77.566
875.40	69.888
875.57	85.227
875.74	99.024
875.91	73.171
876.08	82.819
876.24	83.471
876.41	96.193
876.58	89.260
876.75	87.328
876.92	77.009
877.08	88.086
877.25	77.835
877.42	72.358
877.59	104.587
877.75	95.519
877.92	63.498
878.09	91.415
878.26	87.349
878.42	85.904
878.59	85.398
878.76	67.589
878.93	91.403
879.09	83.188
879.26	101.932
879.43	92.809
879.60	70.888
879.76	86.833
879.93	68.812
880.10	66.279
880.27	54.968
880.43	78.778
880.60	53.762
880.77	74.615
880.94	56.305
881.10	48.992
881.27	64.742
881.44	41.751
881.61	58.050
881.77	55.478
881.94	49.907
882.11	45.450
882.28	49.514
882.44	53.473
882.61	59.085
882.78	57.638
882.94	60.423
883.11	58.751
883.28	58.847
883.45	59.654
883.61	57.438
883.78	57.874
883.95	62.573
884.11	54.237
884.28	55.556
>>>>>End Processed Spectral Data<<<<<
