SpectraSuite Data File
++++++++++++++++++++++++++++++++++++
Date: Mon Sep 23 03:45:03 EST 2019
User: sgrac
Dark Spectrum Present: Yes
Reference Spectrum Present: Yes
Number of Sampled Component Spectra: 1
Spectrometers: USB4E01596
Integration Time (usec): 100000 (USB4E01596)
Spectra Averaged: 3 (USB4E01596)
Boxcar Smoothing: 0 (USB4E01596)
Correct for Electrical Dark: No (USB4E01596)
Strobe/Lamp Enabled: Yes (USB4E01596)
Correct for Detector Non-linearity: No (USB4E01596)
Correct for Stray Light: No (USB4E01596)
Number of Pixels in Processed Spectrum: 3648
>>>>>Begin Processed Spectral Data<<<<<
178.44	1400.000
178.66	1400.000
178.87	1400.000
179.09	7966.667
179.30	-6250.000
179.52	-667.742
179.74	-358.491
179.95	620.455
180.17	-663.889
180.38	464.912
180.60	-2690.909
180.82	655.556
181.03	4550.000
181.25	-2008.333
181.46	-1220.000
181.68	1304.167
181.89	-586.364
182.11	-1875.000
182.33	-1912.500
182.54	664.583
182.76	3700.000
182.97	-540.426
183.19	1435.000
183.40	220.661
183.62	306.410
183.84	273.636
184.05	3957.143
184.27	468.182
184.48	412.121
184.70	1500.000
184.91	1352.381
185.13	2830.000
185.34	-15050.000
185.56	1176.923
185.78	366.667
185.99	1100.000
186.21	359.091
186.42	-4525.000
186.64	2340.000
186.85	-5720.000
187.07	600.000
187.28	414.474
187.50	478.182
187.72	250.000
187.93	774.545
188.15	361.458
188.36	417.105
188.58	471.429
188.79	314.423
189.01	421.127
189.22	813.514
189.44	-1018.182
189.65	269.492
189.87	-6725.000
190.09	441.270
190.30	735.714
190.52	520.000
190.73	582.609
190.95	-3866.667
191.16	320.238
191.38	455.405
191.59	510.294
191.81	556.452
192.02	2086.667
192.24	790.625
192.45	894.118
192.67	-1750.000
192.88	522.642
193.10	537.705
193.31	780.000
193.53	284.677
193.74	377.333
193.96	1571.429
194.18	953.846
194.39	2246.667
194.61	535.616
194.82	1400.000
195.04	410.976
195.25	-424.561
195.47	-525.926
195.68	4383.333
195.90	561.818
196.11	343.284
196.33	24300.000
196.54	858.537
196.76	1728.571
196.97	374.026
197.19	910.811
197.40	2092.857
197.62	250.459
197.83	809.677
198.05	521.818
198.26	1034.483
198.48	454.930
198.69	451.667
198.91	1161.111
199.12	723.256
199.34	539.130
199.55	372.857
199.77	1952.632
199.98	888.235
200.20	453.947
200.41	435.484
200.63	322.124
200.84	1664.286
201.06	2944.444
201.27	843.902
201.49	407.042
201.70	-840.000
201.91	543.056
202.13	427.119
202.34	448.276
202.56	-932.000
202.77	602.222
202.99	4516.667
203.20	-3450.000
203.42	1593.750
203.63	384.211
203.85	6200.000
204.06	508.000
204.28	283.838
204.49	501.852
204.71	391.525
204.92	915.385
205.14	0.000
205.35	780.000
205.56	-1260.000
205.78	6300.000
205.99	-1814.286
206.21	13600.000
206.42	625.000
206.64	1016.129
206.85	818.519
207.07	-3255.556
207.28	470.690
207.50	691.304
207.71	1077.419
207.93	337.349
208.14	-985.185
208.35	423.636
208.57	952.000
208.78	-2500.000
209.00	360.638
209.21	-13750.000
209.43	-8800.000
209.64	-1993.333
209.86	259.794
210.07	373.256
210.28	457.746
210.50	948.276
210.71	374.510
210.93	203.676
211.14	371.910
211.36	1737.500
211.57	492.424
211.78	360.000
212.00	376.471
212.21	457.143
212.43	771.795
212.64	371.277
212.86	428.378
213.07	294.495
213.29	-525.000
213.50	279.348
213.71	352.874
213.93	334.146
214.14	1981.818
214.36	420.588
214.57	303.797
214.78	633.333
215.00	311.458
215.21	823.333
215.43	770.270
215.64	406.349
215.86	356.250
216.07	851.429
216.28	642.105
216.50	265.000
216.71	24600.000
216.93	515.152
217.14	1288.889
217.35	318.182
217.57	295.495
217.78	417.284
218.00	303.030
218.21	1191.304
218.42	674.468
218.64	494.643
218.85	548.000
219.07	1100.000
219.28	294.393
219.49	435.294
219.71	443.077
219.92	208.209
220.14	321.649
220.35	362.667
220.56	304.598
220.78	269.231
220.99	300.806
221.21	306.452
221.42	407.407
221.63	197.688
221.85	463.077
222.06	364.286
222.28	398.462
222.49	265.766
222.70	225.197
222.92	679.592
223.13	459.016
223.34	226.950
223.56	283.333
223.77	288.750
223.99	291.579
224.20	496.429
224.41	335.616
224.63	278.409
224.84	220.270
225.05	135.897
225.27	230.435
225.48	233.333
225.69	187.218
225.91	304.054
226.12	219.380
226.34	189.933
226.55	120.144
226.76	233.750
226.98	145.490
227.19	125.781
227.40	225.000
227.62	136.508
227.83	114.592
228.04	90.503
228.26	71.465
228.47	77.337
228.69	55.584
228.90	48.614
229.11	61.329
229.33	37.147
229.54	32.432
229.75	36.738
229.97	47.106
230.18	34.382
230.39	30.531
230.61	29.357
230.82	30.898
231.03	28.026
231.25	38.422
231.46	32.353
231.67	35.387
231.89	45.265
232.10	40.551
232.31	47.589
232.53	50.764
232.74	55.888
232.95	50.635
233.17	52.000
233.38	44.958
233.59	48.609
233.81	57.246
234.02	51.503
234.23	58.333
234.45	51.736
234.66	39.381
234.87	59.016
235.09	51.286
235.30	46.235
235.51	49.644
235.73	48.794
235.94	43.687
236.15	53.148
236.36	39.813
236.58	43.838
236.79	39.528
237.00	48.534
237.22	54.422
237.43	41.359
237.64	55.433
237.86	46.617
238.07	37.457
238.28	48.387
238.50	50.169
238.71	52.518
238.92	48.437
239.13	48.814
239.35	44.168
239.56	51.943
239.77	57.143
239.99	38.928
240.20	47.507
240.41	33.572
240.63	36.523
240.84	34.328
241.05	27.811
241.26	32.645
241.48	23.780
241.69	25.201
241.90	25.457
242.12	20.028
242.33	21.289
242.54	12.160
242.75	17.692
242.97	16.185
243.18	13.360
243.39	12.397
243.61	16.044
243.82	10.131
244.03	14.491
244.24	13.171
244.46	15.847
244.67	12.995
244.88	14.887
245.09	19.681
245.31	18.946
245.52	16.395
245.73	17.533
245.95	28.460
246.16	19.021
246.37	11.599
246.58	18.646
246.80	16.192
247.01	15.067
247.22	12.418
247.43	10.393
247.65	9.572
247.86	10.996
248.07	9.041
248.28	8.515
248.50	7.020
248.71	8.138
248.92	6.647
249.13	5.782
249.35	7.628
249.56	9.009
249.77	8.453
249.98	9.624
250.20	11.380
250.41	10.949
250.62	12.694
250.83	16.240
251.05	18.856
251.26	13.829
251.47	16.782
251.68	18.746
251.90	13.041
252.11	14.112
252.32	19.989
252.53	11.147
252.75	17.762
252.96	15.146
253.17	15.294
253.38	14.124
253.59	14.660
253.81	13.830
254.02	13.412
254.23	13.492
254.44	7.956
254.66	13.552
254.87	15.967
255.08	19.895
255.29	15.766
255.50	16.919
255.72	22.571
255.93	22.945
256.14	23.344
256.35	21.880
256.57	25.128
256.78	19.663
256.99	16.366
257.20	26.219
257.41	21.476
257.63	19.705
257.84	18.125
258.05	14.046
258.26	14.692
258.47	17.762
258.69	19.072
258.90	12.193
259.11	13.914
259.32	13.277
259.53	8.881
259.75	10.307
259.96	10.278
260.17	8.426
260.38	5.217
260.59	7.428
260.81	4.278
261.02	5.418
261.23	6.077
261.44	6.119
261.65	4.588
261.87	4.891
262.08	6.087
262.29	6.367
262.50	7.042
262.71	7.165
262.92	7.705
263.14	9.747
263.35	9.587
263.56	9.345
263.77	10.734
263.98	11.932
264.20	11.204
264.41	11.196
264.62	11.734
264.83	12.430
265.04	16.005
265.25	14.553
265.47	13.815
265.68	13.807
265.89	13.032
266.10	9.877
266.31	13.333
266.52	10.791
266.74	10.204
266.95	14.099
267.16	11.474
267.37	9.935
267.58	10.438
267.79	7.565
268.01	7.495
268.22	9.883
268.43	9.728
268.64	9.055
268.85	11.558
269.06	9.788
269.27	11.592
269.49	8.203
269.70	9.908
269.91	9.284
270.12	9.215
270.33	11.325
270.54	6.895
270.75	9.746
270.97	10.523
271.18	7.860
271.39	10.749
271.60	9.906
271.81	7.204
272.02	6.880
272.23	7.913
272.45	9.006
272.66	5.879
272.87	7.393
273.08	6.928
273.29	7.211
273.50	5.870
273.71	5.975
273.92	6.337
274.14	7.761
274.35	7.104
274.56	7.153
274.77	6.474
274.98	7.787
275.19	5.368
275.40	8.815
275.61	6.912
275.83	9.942
276.04	7.450
276.25	9.841
276.46	8.168
276.67	8.912
276.88	8.925
277.09	9.105
277.30	7.657
277.51	10.253
277.73	6.752
277.94	7.737
278.15	9.303
278.36	8.585
278.57	8.973
278.78	7.791
278.99	9.001
279.20	10.051
279.41	10.759
279.62	7.657
279.84	10.240
280.05	10.219
280.26	10.896
280.47	10.481
280.68	6.575
280.89	8.780
281.10	10.298
281.31	7.465
281.52	9.825
281.73	7.888
281.94	6.324
282.16	8.247
282.37	6.654
282.58	7.306
282.79	9.504
283.00	8.780
283.21	6.205
283.42	7.049
283.63	7.923
283.84	6.748
284.05	6.685
284.26	6.363
284.47	5.621
284.68	6.008
284.89	7.234
285.11	8.670
285.32	5.892
285.53	6.621
285.74	6.760
285.95	5.094
286.16	6.850
286.37	6.620
286.58	5.033
286.79	5.117
287.00	5.442
287.21	4.807
287.42	5.099
287.63	5.729
287.84	5.671
288.05	5.148
288.26	5.262
288.48	7.267
288.69	2.689
288.90	6.287
289.11	6.997
289.32	7.422
289.53	6.807
289.74	5.768
289.95	6.305
290.16	5.765
290.37	5.101
290.58	5.634
290.79	5.266
291.00	5.040
291.21	5.463
291.42	5.444
291.63	5.911
291.84	7.212
292.05	4.529
292.26	4.035
292.47	6.229
292.68	4.997
292.89	5.941
293.10	6.225
293.31	5.760
293.52	5.795
293.73	7.104
293.94	6.452
294.15	6.879
294.36	8.825
294.57	5.251
294.79	6.008
295.00	6.008
295.21	5.849
295.42	7.120
295.63	5.940
295.84	6.085
296.05	4.721
296.26	4.398
296.47	5.728
296.68	4.730
296.89	7.012
297.10	5.442
297.31	6.489
297.52	3.390
297.73	6.152
297.94	4.768
298.15	4.402
298.36	4.216
298.57	3.733
298.78	4.411
298.99	4.454
299.20	5.391
299.41	3.703
299.62	5.199
299.83	4.334
300.04	5.291
300.25	4.396
300.46	5.960
300.67	5.689
300.88	5.995
301.09	5.204
301.30	5.243
301.50	6.440
301.71	5.749
301.92	6.528
302.13	6.104
302.34	3.696
302.55	5.327
302.76	5.568
302.97	5.105
303.18	7.458
303.39	5.832
303.60	7.003
303.81	5.993
304.02	5.017
304.23	6.042
304.44	7.244
304.65	5.451
304.86	5.884
305.07	5.781
305.28	5.578
305.49	6.028
305.70	6.334
305.91	5.665
306.12	6.263
306.33	5.366
306.54	5.062
306.75	6.018
306.96	7.926
307.17	6.829
307.38	6.102
307.58	6.649
307.79	5.416
308.00	6.162
308.21	6.124
308.42	4.926
308.63	5.226
308.84	5.387
309.05	6.261
309.26	4.573
309.47	6.025
309.68	5.320
309.89	6.375
310.10	5.813
310.31	5.282
310.52	4.988
310.73	6.153
310.94	2.712
311.14	5.509
311.35	3.987
311.56	5.166
311.77	3.913
311.98	4.474
312.19	5.150
312.40	4.181
312.61	3.703
312.82	5.122
313.03	4.271
313.24	6.047
313.45	4.682
313.66	4.418
313.86	6.738
314.07	5.030
314.28	5.380
314.49	4.581
314.70	8.058
314.91	6.415
315.12	4.422
315.33	7.102
315.54	5.123
315.75	4.847
315.96	5.239
316.16	4.889
316.37	5.899
316.58	5.653
316.79	6.060
317.00	6.945
317.21	6.116
317.42	5.186
317.63	5.066
317.84	4.973
318.05	5.230
318.25	6.580
318.46	5.073
318.67	5.253
318.88	5.059
319.09	5.752
319.30	5.214
319.51	5.737
319.72	6.843
319.93	5.741
320.13	7.248
320.34	7.803
320.55	6.651
320.76	6.664
320.97	4.494
321.18	6.471
321.39	5.134
321.60	7.555
321.80	7.106
322.01	6.720
322.22	4.456
322.43	6.120
322.64	7.040
322.85	6.706
323.06	6.391
323.27	7.454
323.47	8.196
323.68	6.462
323.89	6.352
324.10	6.562
324.31	5.742
324.52	5.955
324.73	6.628
324.93	5.987
325.14	5.300
325.35	5.146
325.56	4.313
325.77	5.549
325.98	6.318
326.19	5.465
326.39	4.918
326.60	5.277
326.81	4.779
327.02	6.138
327.23	5.453
327.44	4.682
327.64	4.102
327.85	3.908
328.06	5.671
328.27	6.757
328.48	5.065
328.69	4.923
328.90	4.835
329.10	7.160
329.31	5.851
329.52	5.586
329.73	7.832
329.94	5.562
330.15	6.356
330.35	7.810
330.56	5.873
330.77	6.365
330.98	4.659
331.19	5.945
331.39	6.225
331.60	7.196
331.81	4.803
332.02	5.562
332.23	5.496
332.44	4.886
332.64	6.364
332.85	4.453
333.06	5.937
333.27	4.698
333.48	4.450
333.68	5.741
333.89	5.659
334.10	6.236
334.31	5.961
334.52	5.508
334.72	4.013
334.93	5.322
335.14	4.649
335.35	3.923
335.56	5.969
335.76	4.985
335.97	5.233
336.18	6.364
336.39	5.482
336.60	5.480
336.80	4.832
337.01	3.156
337.22	4.791
337.43	4.047
337.64	5.086
337.84	5.738
338.05	4.703
338.26	7.320
338.47	6.986
338.68	5.666
338.88	4.255
339.09	3.490
339.30	5.441
339.51	5.892
339.71	5.166
339.92	4.833
340.13	5.255
340.34	6.879
340.55	5.949
340.75	6.992
340.96	4.756
341.17	6.249
341.38	5.457
341.58	5.260
341.79	5.004
342.00	4.592
342.21	4.596
342.41	4.203
342.62	5.299
342.83	6.004
343.04	4.149
343.24	3.881
343.45	4.657
343.66	3.936
343.87	3.905
344.07	4.058
344.28	5.059
344.49	4.488
344.70	5.017
344.90	4.662
345.11	3.128
345.32	4.442
345.53	4.658
345.73	5.681
345.94	3.767
346.15	5.502
346.36	3.675
346.56	5.055
346.77	4.532
346.98	4.465
347.19	4.832
347.39	4.442
347.60	5.014
347.81	4.083
348.02	5.446
348.22	5.351
348.43	5.202
348.64	5.030
348.84	4.762
349.05	4.312
349.26	6.016
349.47	4.824
349.67	5.170
349.88	5.151
350.09	5.420
350.30	7.267
350.50	4.868
350.71	4.668
350.92	4.369
351.12	5.293
351.33	4.404
351.54	4.562
351.74	4.930
351.95	4.709
352.16	5.646
352.37	5.215
352.57	4.920
352.78	5.586
352.99	4.542
353.19	4.779
353.40	5.223
353.61	6.752
353.82	5.246
354.02	7.059
354.23	5.632
354.44	6.193
354.64	5.417
354.85	5.005
355.06	4.146
355.26	5.481
355.47	4.835
355.68	4.506
355.88	5.383
356.09	5.373
356.30	5.230
356.51	6.301
356.71	4.448
356.92	4.975
357.13	6.082
357.33	5.951
357.54	4.704
357.75	4.078
357.95	4.765
358.16	4.227
358.37	5.356
358.57	4.661
358.78	6.374
358.99	5.259
359.19	5.385
359.40	5.218
359.61	5.006
359.81	6.020
360.02	6.305
360.23	3.942
360.43	4.813
360.64	5.261
360.85	5.208
361.05	4.869
361.26	5.325
361.47	4.815
361.67	6.171
361.88	4.759
362.09	5.690
362.29	5.049
362.50	4.233
362.70	3.721
362.91	5.247
363.12	4.015
363.32	4.976
363.53	5.415
363.74	5.561
363.94	4.027
364.15	6.341
364.36	6.178
364.56	4.359
364.77	6.116
364.98	7.035
365.18	5.329
365.39	6.110
365.59	5.397
365.80	6.320
366.01	6.696
366.21	5.556
366.42	3.884
366.63	6.980
366.83	5.257
367.04	3.863
367.24	7.171
367.45	4.985
367.66	4.569
367.86	6.363
368.07	5.939
368.28	5.577
368.48	6.217
368.69	3.773
368.89	5.104
369.10	5.747
369.31	6.248
369.51	6.057
369.72	7.325
369.92	7.601
370.13	5.397
370.34	5.653
370.54	3.815
370.75	6.234
370.95	4.793
371.16	6.220
371.37	5.922
371.57	6.192
371.78	6.087
371.98	6.156
372.19	6.257
372.40	6.895
372.60	6.234
372.81	6.537
373.01	4.415
373.22	5.162
373.43	6.643
373.63	5.959
373.84	6.381
374.04	6.383
374.25	6.082
374.46	6.801
374.66	6.095
374.87	7.210
375.07	4.463
375.28	5.597
375.48	6.033
375.69	6.384
375.90	4.971
376.10	4.876
376.31	6.367
376.51	4.935
376.72	6.357
376.92	4.671
377.13	6.641
377.34	6.987
377.54	5.891
377.75	7.323
377.95	4.935
378.16	6.943
378.36	7.010
378.57	7.941
378.77	6.052
378.98	6.258
379.19	5.725
379.39	4.654
379.60	6.295
379.80	5.792
380.01	6.985
380.21	5.408
380.42	7.380
380.62	6.216
380.83	7.576
381.04	5.477
381.24	6.826
381.45	6.847
381.65	5.575
381.86	6.086
382.06	7.119
382.27	5.645
382.47	6.182
382.68	7.741
382.88	6.325
383.09	6.026
383.29	7.430
383.50	8.574
383.71	6.329
383.91	7.376
384.12	6.586
384.32	7.625
384.53	7.003
384.73	5.902
384.94	6.662
385.14	7.350
385.35	6.137
385.55	7.813
385.76	7.067
385.96	6.890
386.17	7.932
386.37	8.339
386.58	7.850
386.78	8.475
386.99	6.790
387.19	9.307
387.40	7.225
387.60	9.796
387.81	7.748
388.01	8.060
388.22	8.489
388.42	10.375
388.63	9.900
388.83	10.431
389.04	7.318
389.24	9.106
389.45	9.109
389.65	9.052
389.86	8.134
390.06	8.745
390.27	8.473
390.47	9.030
390.68	8.301
390.88	10.350
391.09	10.045
391.29	10.536
391.50	9.834
391.70	10.853
391.91	9.804
392.11	10.116
392.32	10.289
392.52	11.254
392.73	9.931
392.93	11.423
393.14	10.574
393.34	10.447
393.55	11.524
393.75	11.428
393.95	10.314
394.16	11.934
394.36	11.370
394.57	12.408
394.77	11.110
394.98	12.054
395.18	12.178
395.39	11.859
395.59	11.970
395.80	11.504
396.00	12.116
396.21	13.371
396.41	11.096
396.61	12.820
396.82	12.482
397.02	14.653
397.23	11.685
397.43	12.889
397.64	10.431
397.84	13.968
398.05	10.359
398.25	13.465
398.45	12.542
398.66	13.459
398.86	12.526
399.07	14.240
399.27	12.380
399.48	14.149
399.68	12.563
399.89	13.113
400.09	12.961
400.29	12.201
400.50	12.958
400.70	14.051
400.91	12.170
401.11	13.244
401.32	13.646
401.52	12.572
401.72	13.032
401.93	14.988
402.13	13.207
402.34	13.560
402.54	12.410
402.75	14.748
402.95	11.610
403.15	14.621
403.36	12.420
403.56	14.784
403.77	12.984
403.97	13.714
404.17	13.660
404.38	14.741
404.58	13.471
404.79	15.149
404.99	14.768
405.19	14.357
405.40	13.916
405.60	14.709
405.81	13.479
406.01	14.035
406.21	13.877
406.42	15.033
406.62	14.178
406.83	14.949
407.03	15.121
407.23	14.131
407.44	14.074
407.64	16.023
407.85	14.959
408.05	14.295
408.25	15.037
408.46	15.657
408.66	14.945
408.87	14.172
409.07	13.913
409.27	13.729
409.48	13.638
409.68	14.808
409.88	12.508
410.09	13.873
410.29	14.332
410.50	15.281
410.70	13.191
410.90	14.695
411.11	13.530
411.31	14.196
411.51	14.598
411.72	15.327
411.92	14.076
412.12	14.803
412.33	13.195
412.53	13.842
412.74	13.132
412.94	14.363
413.14	13.969
413.35	14.535
413.55	14.134
413.75	16.122
413.96	13.368
414.16	14.303
414.36	13.724
414.57	15.425
414.77	14.304
414.97	15.396
415.18	13.764
415.38	14.735
415.58	14.504
415.79	13.622
415.99	13.682
416.19	15.254
416.40	14.303
416.60	14.276
416.80	13.682
417.01	15.390
417.21	13.284
417.41	15.088
417.62	14.123
417.82	14.920
418.02	13.773
418.23	15.087
418.43	14.223
418.63	14.760
418.84	14.664
419.04	14.633
419.24	15.407
419.45	15.432
419.65	14.961
419.85	15.332
420.06	15.274
420.26	15.497
420.46	14.640
420.67	15.169
420.87	14.711
421.07	15.018
421.28	15.072
421.48	15.176
421.68	15.281
421.88	15.207
422.09	15.091
422.29	15.117
422.49	14.868
422.70	14.971
422.90	14.948
423.10	15.316
423.31	15.644
423.51	15.137
423.71	15.105
423.91	15.430
424.12	15.434
424.32	15.347
424.52	14.927
424.73	15.330
424.93	15.215
425.13	15.112
425.33	14.957
425.54	15.053
425.74	15.514
425.94	15.207
426.15	15.933
426.35	15.333
426.55	15.514
426.75	15.707
426.96	15.633
427.16	15.300
427.36	15.559
427.57	15.582
427.77	15.230
427.97	15.871
428.17	15.469
428.38	15.914
428.58	14.643
428.78	15.994
428.98	15.071
429.19	14.717
429.39	14.688
429.59	15.387
429.79	14.364
430.00	14.314
430.20	14.335
430.40	14.985
430.60	14.937
430.81	15.245
431.01	14.480
431.21	15.188
431.41	14.306
431.62	15.851
431.82	14.609
432.02	15.248
432.22	14.942
432.43	15.658
432.63	15.180
432.83	15.438
433.03	15.014
433.24	15.081
433.44	15.210
433.64	15.459
433.84	15.181
434.05	16.063
434.25	15.644
434.45	16.128
434.65	15.916
434.85	16.232
435.06	16.076
435.26	15.981
435.46	15.571
435.66	16.499
435.87	16.406
436.07	16.296
436.27	16.122
436.47	16.063
436.67	15.961
436.88	16.431
437.08	15.935
437.28	16.546
437.48	16.219
437.69	16.404
437.89	16.295
438.09	16.665
438.29	15.922
438.49	16.412
438.70	15.837
438.90	16.536
439.10	15.867
439.30	16.585
439.50	15.934
439.71	16.500
439.91	16.472
440.11	16.852
440.31	16.514
440.51	16.126
440.72	16.459
440.92	16.406
441.12	16.693
441.32	16.724
441.52	16.931
441.72	16.732
441.93	16.658
442.13	17.165
442.33	17.086
442.53	17.087
442.73	16.786
442.94	16.937
443.14	17.201
443.34	17.380
443.54	17.029
443.74	17.077
443.94	17.185
444.15	16.843
444.35	17.153
444.55	16.916
444.75	16.636
444.95	16.871
445.15	16.869
445.36	16.658
445.56	16.645
445.76	16.842
445.96	16.337
446.16	16.582
446.36	16.404
446.57	17.012
446.77	17.053
446.97	16.701
447.17	17.184
447.37	17.043
447.57	16.627
447.77	16.926
447.98	17.357
448.18	17.158
448.38	17.238
448.58	17.314
448.78	17.460
448.98	17.535
449.18	17.371
449.39	17.638
449.59	17.094
449.79	17.349
449.99	17.669
450.19	17.852
450.39	17.326
450.59	17.491
450.79	17.701
451.00	17.007
451.20	18.410
451.40	17.858
451.60	16.789
451.80	17.142
452.00	17.220
452.20	17.705
452.40	17.005
452.61	17.183
452.81	17.435
453.01	17.198
453.21	16.953
453.41	17.597
453.61	17.370
453.81	17.278
454.01	17.194
454.21	17.758
454.42	17.585
454.62	17.171
454.82	17.361
455.02	17.417
455.22	17.179
455.42	17.318
455.62	16.731
455.82	16.979
456.02	17.045
456.23	17.515
456.43	16.470
456.63	17.172
456.83	16.610
457.03	17.544
457.23	17.398
457.43	17.674
457.63	16.962
457.83	17.757
458.03	16.732
458.23	17.125
458.43	17.054
458.64	17.165
458.84	17.744
459.04	16.801
459.24	16.774
459.44	16.772
459.64	16.769
459.84	16.225
460.04	17.112
460.24	16.960
460.44	17.038
460.64	17.138
460.84	17.345
461.04	17.443
461.24	17.673
461.45	17.649
461.65	17.399
461.85	17.364
462.05	17.621
462.25	17.842
462.45	17.746
462.65	17.901
462.85	17.397
463.05	18.020
463.25	16.922
463.45	17.891
463.65	17.389
463.85	17.895
464.05	17.400
464.25	17.554
464.45	16.959
464.65	17.787
464.85	17.196
465.05	17.190
465.26	17.455
465.46	17.847
465.66	17.123
465.86	17.738
466.06	17.431
466.26	17.343
466.46	16.689
466.66	17.681
466.86	17.349
467.06	17.664
467.26	17.357
467.46	17.621
467.66	17.222
467.86	17.352
468.06	17.247
468.26	17.944
468.46	17.838
468.66	17.220
468.86	17.258
469.06	17.839
469.26	17.803
469.46	17.509
469.66	17.000
469.86	17.703
470.06	17.417
470.26	17.925
470.46	17.648
470.66	18.000
470.86	17.549
471.06	18.157
471.26	17.890
471.46	17.656
471.66	17.579
471.86	17.921
472.06	17.680
472.26	18.158
472.46	18.464
472.66	18.230
472.86	17.779
473.06	17.924
473.26	17.966
473.46	18.106
473.66	17.608
473.86	18.157
474.06	18.004
474.26	18.291
474.46	17.655
474.66	17.929
474.86	18.223
475.06	18.310
475.26	17.891
475.46	18.476
475.66	18.193
475.86	18.650
476.06	18.420
476.26	18.151
476.46	18.568
476.66	17.934
476.86	18.045
477.06	18.091
477.26	18.607
477.46	18.162
477.65	18.046
477.85	18.461
478.05	18.252
478.25	18.814
478.45	18.283
478.65	18.877
478.85	18.077
479.05	17.888
479.25	18.792
479.45	18.577
479.65	18.821
479.85	17.984
480.05	18.554
480.25	18.561
480.45	18.825
480.65	18.745
480.85	18.302
481.05	18.725
481.25	18.673
481.44	19.017
481.64	18.568
481.84	18.471
482.04	18.621
482.24	18.682
482.44	18.199
482.64	18.277
482.84	18.437
483.04	18.180
483.24	18.029
483.44	17.992
483.64	17.806
483.84	17.759
484.04	18.266
484.23	18.286
484.43	18.726
484.63	18.930
484.83	19.491
485.03	20.223
485.23	20.193
485.43	20.096
485.63	19.939
485.83	19.795
486.03	19.711
486.23	19.856
486.42	19.586
486.62	19.414
486.82	19.089
487.02	18.889
487.22	19.071
487.42	18.663
487.62	18.623
487.82	18.487
488.02	18.751
488.22	19.010
488.41	18.717
488.61	19.136
488.81	18.900
489.01	19.434
489.21	19.372
489.41	19.539
489.61	19.718
489.81	19.285
490.01	19.606
490.20	19.585
490.40	19.402
490.60	19.815
490.80	19.261
491.00	19.285
491.20	18.862
491.40	18.880
491.60	18.303
491.79	18.584
491.99	18.795
492.19	18.923
492.39	18.919
492.59	18.907
492.79	19.234
492.99	19.056
493.19	19.203
493.38	19.477
493.58	19.581
493.78	19.200
493.98	19.588
494.18	19.637
494.38	19.703
494.58	19.887
494.77	19.333
494.97	19.112
495.17	19.376
495.37	19.046
495.57	19.255
495.77	19.610
495.96	19.388
496.16	18.935
496.36	18.522
496.56	18.977
496.76	18.863
496.96	18.940
497.15	18.810
497.35	19.191
497.55	19.133
497.75	19.354
497.95	19.254
498.15	19.364
498.34	19.054
498.54	19.145
498.74	20.011
498.94	19.611
499.14	19.388
499.34	19.429
499.53	19.326
499.73	19.068
499.93	19.304
500.13	19.526
500.33	18.912
500.52	19.251
500.72	19.188
500.92	19.380
501.12	19.401
501.32	19.189
501.52	19.508
501.71	19.410
501.91	19.487
502.11	19.194
502.31	18.752
502.51	19.563
502.70	18.999
502.90	19.548
503.10	19.490
503.30	19.933
503.50	19.017
503.69	19.245
503.89	19.752
504.09	19.201
504.29	19.380
504.48	19.421
504.68	18.875
504.88	19.449
505.08	18.821
505.28	19.293
505.47	19.312
505.67	19.353
505.87	19.531
506.07	19.549
506.27	19.733
506.46	19.590
506.66	19.344
506.86	19.349
507.06	19.771
507.25	19.737
507.45	19.629
507.65	19.431
507.85	19.386
508.04	19.785
508.24	19.341
508.44	19.824
508.64	19.414
508.83	19.577
509.03	19.466
509.23	19.243
509.43	19.244
509.63	19.454
509.82	19.463
510.02	19.688
510.22	19.320
510.42	19.540
510.61	19.769
510.81	19.663
511.01	20.214
511.21	20.083
511.40	19.777
511.60	19.823
511.80	19.629
511.99	19.892
512.19	19.889
512.39	19.855
512.59	19.522
512.78	20.027
512.98	19.977
513.18	19.662
513.38	19.742
513.57	19.519
513.77	19.873
513.97	19.789
514.17	20.136
514.36	19.922
514.56	19.665
514.76	20.154
514.95	19.866
515.15	19.676
515.35	19.722
515.55	19.854
515.74	19.671
515.94	19.520
516.14	19.901
516.33	20.249
516.53	19.776
516.73	19.682
516.93	19.815
517.12	19.862
517.32	19.630
517.52	19.767
517.71	19.456
517.91	19.337
518.11	19.471
518.30	19.496
518.50	19.750
518.70	19.756
518.90	19.692
519.09	19.824
519.29	19.774
519.49	19.677
519.68	19.540
519.88	19.936
520.08	19.710
520.27	19.760
520.47	20.337
520.67	20.043
520.86	19.898
521.06	19.886
521.26	20.161
521.45	20.362
521.65	20.191
521.85	19.743
522.04	19.823
522.24	19.778
522.44	19.903
522.63	20.181
522.83	19.621
523.03	20.084
523.22	19.562
523.42	20.192
523.62	19.844
523.81	20.213
524.01	19.781
524.21	20.011
524.40	20.166
524.60	19.811
524.80	19.603
524.99	19.810
525.19	19.388
525.39	19.821
525.58	20.253
525.78	19.829
525.98	19.514
526.17	19.768
526.37	19.528
526.57	19.797
526.76	19.883
526.96	19.689
527.15	20.113
527.35	19.731
527.55	19.697
527.74	19.810
527.94	19.642
528.14	19.542
528.33	19.344
528.53	19.495
528.72	19.487
528.92	19.644
529.12	20.103
529.31	20.141
529.51	20.266
529.71	20.609
529.90	20.618
530.10	20.554
530.29	20.777
530.49	20.870
530.69	20.818
530.88	20.928
531.08	20.759
531.28	20.529
531.47	20.522
531.67	20.651
531.86	20.332
532.06	20.417
532.26	20.311
532.45	20.210
532.65	20.136
532.84	19.978
533.04	19.959
533.24	19.664
533.43	19.821
533.63	20.120
533.82	20.418
534.02	20.463
534.22	20.454
534.41	20.195
534.61	20.198
534.80	20.360
535.00	20.524
535.19	20.549
535.39	20.791
535.59	20.560
535.78	20.804
535.98	20.620
536.17	20.277
536.37	20.175
536.57	20.190
536.76	20.375
536.96	19.997
537.15	20.454
537.35	19.896
537.54	20.206
537.74	20.469
537.93	20.611
538.13	20.516
538.33	20.548
538.52	20.336
538.72	20.928
538.91	20.712
539.11	20.798
539.30	20.932
539.50	20.588
539.70	20.614
539.89	20.661
540.09	20.463
540.28	20.484
540.48	20.300
540.67	20.170
540.87	20.251
541.06	19.900
541.26	20.241
541.45	20.247
541.65	20.329
541.85	20.512
542.04	20.540
542.24	20.407
542.43	20.426
542.63	20.755
542.82	20.852
543.02	20.995
543.21	21.355
543.41	21.298
543.60	21.232
543.80	21.451
543.99	21.234
544.19	21.003
544.38	21.180
544.58	21.112
544.77	21.087
544.97	21.089
545.16	20.847
545.36	20.947
545.56	21.390
545.75	21.116
545.95	21.095
546.14	20.741
546.34	21.145
546.53	20.850
546.73	20.675
546.92	21.122
547.12	20.752
547.31	20.946
547.51	21.295
547.70	21.045
547.90	21.549
548.09	21.063
548.29	21.590
548.48	21.476
548.68	21.382
548.87	21.439
549.07	21.486
549.26	21.620
549.46	21.499
549.65	21.253
549.84	21.507
550.04	21.401
550.23	21.505
550.43	21.384
550.62	21.557
550.82	21.619
551.01	21.562
551.21	21.540
551.40	21.606
551.60	21.544
551.79	21.290
551.99	21.231
552.18	21.567
552.38	21.596
552.57	21.162
552.77	21.636
552.96	21.848
553.16	21.989
553.35	22.051
553.54	21.880
553.74	22.208
553.93	21.890
554.13	22.608
554.32	22.161
554.52	22.497
554.71	22.408
554.91	22.111
555.10	22.599
555.29	21.776
555.49	22.583
555.68	22.219
555.88	22.324
556.07	22.217
556.27	22.416
556.46	22.017
556.66	22.568
556.85	22.265
557.04	22.180
557.24	22.137
557.43	22.972
557.63	22.736
557.82	22.567
558.02	22.294
558.21	23.447
558.40	22.659
558.60	23.122
558.79	22.670
558.99	22.954
559.18	23.189
559.38	23.439
559.57	23.053
559.76	23.280
559.96	23.708
560.15	23.215
560.35	23.147
560.54	23.332
560.73	23.109
560.93	23.307
561.12	23.331
561.32	23.508
561.51	23.303
561.70	23.943
561.90	22.985
562.09	23.715
562.29	23.414
562.48	24.028
562.67	23.815
562.87	23.658
563.06	23.615
563.26	23.872
563.45	23.975
563.64	24.227
563.84	24.029
564.03	23.555
564.23	23.657
564.42	24.222
564.61	23.841
564.81	23.786
565.00	23.912
565.20	24.208
565.39	24.346
565.58	23.919
565.78	24.033
565.97	23.986
566.16	24.543
566.36	24.363
566.55	24.627
566.74	24.429
566.94	24.849
567.13	24.485
567.33	24.879
567.52	24.778
567.71	24.991
567.91	24.811
568.10	25.263
568.29	25.000
568.49	25.385
568.68	25.231
568.87	25.004
569.07	24.949
569.26	25.192
569.45	25.315
569.65	25.130
569.84	25.020
570.04	25.009
570.23	24.757
570.42	25.413
570.62	24.708
570.81	25.805
571.00	24.937
571.20	25.398
571.39	25.184
571.58	25.468
571.78	25.467
571.97	25.670
572.16	25.686
572.36	26.126
572.55	25.580
572.74	25.948
572.94	25.787
573.13	25.769
573.32	25.976
573.51	26.053
573.71	26.209
573.90	25.756
574.09	26.129
574.29	26.256
574.48	25.716
574.67	26.350
574.87	25.904
575.06	25.927
575.25	25.974
575.45	25.502
575.64	26.307
575.83	26.149
576.03	27.319
576.22	26.663
576.41	26.445
576.60	26.160
576.80	26.421
576.99	26.148
577.18	25.962
577.38	26.385
577.57	26.096
577.76	26.724
577.95	26.167
578.15	26.849
578.34	26.716
578.53	26.670
578.73	27.063
578.92	26.908
579.11	26.367
579.30	26.839
579.50	26.585
579.69	26.341
579.88	26.413
580.08	26.311
580.27	26.540
580.46	25.958
580.65	26.591
580.85	26.742
581.04	26.681
581.23	26.459
581.42	26.473
581.62	26.595
581.81	26.528
582.00	27.201
582.19	26.721
582.39	26.100
582.58	26.872
582.77	27.008
582.96	26.804
583.16	26.043
583.35	26.829
583.54	26.856
583.73	27.303
583.93	26.535
584.12	26.115
584.31	25.925
584.50	26.492
584.70	26.601
584.89	25.787
585.08	26.432
585.27	26.631
585.47	27.006
585.66	26.249
585.85	27.117
586.04	26.994
586.24	27.185
586.43	26.604
586.62	27.032
586.81	27.262
587.00	27.017
587.20	26.149
587.39	27.063
587.58	26.870
587.77	27.282
587.97	26.306
588.16	26.694
588.35	26.767
588.54	26.992
588.73	26.660
588.93	26.568
589.12	26.850
589.31	26.678
589.50	26.699
589.69	26.236
589.89	26.216
590.08	26.958
590.27	26.817
590.46	26.742
590.65	26.417
590.85	26.520
591.04	26.451
591.23	27.108
591.42	27.160
591.61	27.566
591.81	26.774
592.00	26.495
592.19	27.149
592.38	27.289
592.57	27.628
592.77	27.248
592.96	27.372
593.15	27.175
593.34	26.953
593.53	27.127
593.72	27.752
593.92	26.763
594.11	27.238
594.30	26.739
594.49	27.128
594.68	26.442
594.87	26.719
595.07	26.843
595.26	26.533
595.45	26.874
595.64	27.479
595.83	27.170
596.02	26.885
596.22	27.175
596.41	26.841
596.60	27.083
596.79	26.788
596.98	27.096
597.17	27.002
597.37	27.412
597.56	27.013
597.75	26.544
597.94	27.320
598.13	27.545
598.32	27.232
598.51	27.343
598.71	27.610
598.90	27.389
599.09	27.545
599.28	27.160
599.47	27.699
599.66	27.543
599.85	27.890
600.05	27.568
600.24	27.275
600.43	27.700
600.62	27.854
600.81	27.627
601.00	27.841
601.19	27.965
601.38	28.224
601.58	27.758
601.77	27.763
601.96	27.986
602.15	27.521
602.34	28.088
602.53	27.848
602.72	27.392
602.91	27.892
603.10	27.974
603.30	27.473
603.49	27.623
603.68	27.486
603.87	27.482
604.06	27.876
604.25	28.153
604.44	27.697
604.63	28.114
604.82	28.021
605.01	27.781
605.21	27.966
605.40	27.942
605.59	27.980
605.78	28.007
605.97	27.978
606.16	28.403
606.35	27.867
606.54	28.690
606.73	28.017
606.92	28.005
607.11	28.124
607.30	28.980
607.50	27.888
607.69	28.034
607.88	28.248
608.07	27.572
608.26	27.696
608.45	28.039
608.64	28.186
608.83	26.917
609.02	27.842
609.21	27.500
609.40	27.212
609.59	27.827
609.78	27.532
609.97	27.897
610.16	27.074
610.35	27.775
610.55	27.284
610.74	27.714
610.93	28.260
611.12	28.174
611.31	27.349
611.50	28.820
611.69	27.992
611.88	28.217
612.07	27.784
612.26	27.249
612.45	27.679
612.64	28.008
612.83	27.919
613.02	27.421
613.21	27.468
613.40	27.451
613.59	27.810
613.78	27.345
613.97	28.062
614.16	27.774
614.35	27.465
614.54	27.047
614.73	27.019
614.92	27.740
615.11	27.448
615.30	27.433
615.49	26.914
615.68	27.730
615.87	27.769
616.07	26.914
616.26	27.482
616.45	27.355
616.64	27.346
616.83	27.436
617.02	27.477
617.21	27.029
617.40	26.490
617.59	27.695
617.78	26.936
617.97	26.861
618.16	26.174
618.35	26.421
618.54	26.778
618.73	26.714
618.92	27.320
619.11	26.691
619.30	27.448
619.49	27.019
619.68	27.487
619.86	27.468
620.05	27.426
620.24	26.583
620.43	26.917
620.62	26.499
620.81	26.893
621.00	26.576
621.19	26.433
621.38	27.219
621.57	27.145
621.76	26.728
621.95	26.871
622.14	27.713
622.33	27.447
622.52	26.203
622.71	26.848
622.90	26.339
623.09	26.811
623.28	26.936
623.47	26.880
623.66	27.030
623.85	26.893
624.04	26.061
624.23	25.702
624.42	26.115
624.61	26.381
624.80	26.044
624.99	26.373
625.18	26.143
625.36	26.690
625.55	27.442
625.74	26.716
625.93	25.706
626.12	26.974
626.31	26.582
626.50	27.110
626.69	26.562
626.88	26.791
627.07	27.369
627.26	26.514
627.45	25.848
627.64	26.796
627.83	26.721
628.02	26.455
628.20	26.585
628.39	26.245
628.58	26.836
628.77	26.768
628.96	26.205
629.15	27.011
629.34	26.358
629.53	26.278
629.72	26.599
629.91	27.033
630.10	26.420
630.29	25.326
630.47	26.031
630.66	26.477
630.85	25.993
631.04	26.254
631.23	26.947
631.42	25.403
631.61	26.435
631.80	26.474
631.99	25.588
632.18	25.999
632.36	26.494
632.55	27.158
632.74	26.101
632.93	25.912
633.12	25.796
633.31	26.269
633.50	26.124
633.69	26.464
633.88	25.568
634.06	25.707
634.25	26.155
634.44	26.279
634.63	25.562
634.82	25.850
635.01	26.298
635.20	26.277
635.39	26.498
635.57	26.585
635.76	25.636
635.95	26.256
636.14	26.094
636.33	26.326
636.52	25.744
636.71	26.623
636.89	25.540
637.08	26.132
637.27	25.176
637.46	25.566
637.65	25.786
637.84	26.397
638.03	25.665
638.21	27.076
638.40	26.498
638.59	25.196
638.78	25.549
638.97	26.837
639.16	26.392
639.34	26.584
639.53	25.842
639.72	25.532
639.91	25.037
640.10	26.044
640.29	26.800
640.47	27.196
640.66	26.470
640.85	27.111
641.04	25.109
641.23	25.043
641.42	25.640
641.60	25.907
641.79	25.718
641.98	26.068
642.17	25.117
642.36	26.316
642.54	25.218
642.73	25.569
642.92	25.951
643.11	25.833
643.30	25.373
643.49	25.794
643.67	24.751
643.86	26.540
644.05	24.561
644.24	25.504
644.43	25.184
644.61	25.504
644.80	26.135
644.99	25.874
645.18	25.716
645.37	26.950
645.55	25.218
645.74	26.357
645.93	24.880
646.12	25.956
646.31	26.045
646.49	26.424
646.68	25.849
646.87	25.397
647.06	25.361
647.24	24.573
647.43	25.059
647.62	26.007
647.81	24.114
648.00	26.400
648.18	25.181
648.37	25.359
648.56	25.303
648.75	26.819
648.93	24.958
649.12	25.377
649.31	25.910
649.50	25.165
649.68	24.733
649.87	25.686
650.06	24.342
650.25	25.785
650.43	25.636
650.62	25.002
650.81	24.349
651.00	25.980
651.18	23.935
651.37	26.462
651.56	25.069
651.75	25.302
651.93	25.670
652.12	25.327
652.31	25.929
652.50	26.168
652.68	24.884
652.87	26.372
653.06	25.811
653.25	25.530
653.43	25.100
653.62	25.555
653.81	25.186
654.00	25.315
654.18	24.878
654.37	25.369
654.56	25.225
654.74	23.824
654.93	24.855
655.12	24.760
655.31	25.371
655.49	24.936
655.68	23.194
655.87	23.746
656.05	23.519
656.24	24.937
656.43	22.419
656.62	24.980
656.80	23.699
656.99	24.185
657.18	23.174
657.36	23.559
657.55	24.253
657.74	24.344
657.93	23.908
658.11	26.264
658.30	24.086
658.49	23.907
658.67	23.533
658.86	23.334
659.05	23.585
659.23	24.291
659.42	23.808
659.61	23.680
659.79	24.010
659.98	23.438
660.17	23.433
660.35	23.789
660.54	23.650
660.73	23.889
660.91	22.704
661.10	23.928
661.29	23.192
661.47	21.935
661.66	22.146
661.85	22.619
662.03	23.357
662.22	22.491
662.41	21.755
662.59	22.671
662.78	22.154
662.97	22.401
663.15	22.309
663.34	21.211
663.53	20.562
663.71	21.902
663.90	20.732
664.09	21.684
664.27	21.244
664.46	22.095
664.65	21.502
664.83	21.525
665.02	19.139
665.21	19.885
665.39	19.228
665.58	21.632
665.77	19.507
665.95	19.623
666.14	19.112
666.32	21.053
666.51	19.416
666.70	18.944
666.88	18.854
667.07	18.924
667.26	18.635
667.44	20.505
667.63	19.318
667.81	19.480
668.00	19.262
668.19	20.560
668.37	19.149
668.56	21.251
668.75	17.814
668.93	20.197
669.12	18.749
669.30	20.426
669.49	18.754
669.68	20.759
669.86	19.902
670.05	19.546
670.23	19.243
670.42	19.530
670.61	19.342
670.79	19.127
670.98	19.529
671.16	19.958
671.35	17.466
671.54	20.061
671.72	17.953
671.91	19.549
672.09	18.207
672.28	19.903
672.46	18.534
672.65	19.611
672.84	18.970
673.02	20.774
673.21	17.079
673.39	18.767
673.58	18.746
673.77	19.118
673.95	19.568
674.14	19.680
674.32	18.450
674.51	20.651
674.69	18.307
674.88	19.692
675.07	17.724
675.25	21.440
675.44	18.161
675.62	20.541
675.81	17.599
675.99	21.121
676.18	20.852
676.36	20.282
676.55	19.052
676.74	20.460
676.92	20.827
677.11	20.604
677.29	19.413
677.48	21.187
677.66	21.112
677.85	19.995
678.03	19.463
678.22	21.387
678.40	19.256
678.59	20.933
678.78	18.957
678.96	20.966
679.15	19.148
679.33	22.980
679.52	20.707
679.70	20.222
679.89	21.392
680.07	21.947
680.26	20.615
680.44	21.913
680.63	21.453
680.81	21.970
681.00	20.126
681.18	22.249
681.37	21.149
681.55	23.161
681.74	21.816
681.92	22.758
682.11	21.091
682.29	21.625
682.48	21.642
682.66	22.939
682.85	22.204
683.03	21.837
683.22	22.564
683.40	24.154
683.59	21.785
683.77	24.346
683.96	23.054
684.14	23.157
684.33	20.035
684.51	23.968
684.70	22.775
684.88	24.586
685.07	23.785
685.25	25.308
685.44	22.614
685.62	23.296
685.81	22.345
685.99	26.265
686.18	23.623
686.36	25.614
686.55	23.782
686.73	24.388
686.92	24.009
687.10	26.097
687.29	24.678
687.47	27.162
687.65	25.797
687.84	24.693
688.02	26.957
688.21	27.959
688.39	23.992
688.58	26.780
688.76	26.341
688.95	28.250
689.13	25.432
689.32	28.823
689.50	27.124
689.68	27.874
689.87	26.920
690.05	28.692
690.24	26.701
690.42	29.270
690.61	28.976
690.79	32.111
690.98	28.660
691.16	29.117
691.34	28.183
691.53	31.107
691.71	27.790
691.90	29.747
692.08	28.092
692.27	30.495
692.45	31.644
692.63	31.680
692.82	31.366
693.00	31.000
693.19	30.622
693.37	33.139
693.56	29.771
693.74	32.199
693.92	30.141
694.11	33.291
694.29	34.207
694.48	33.149
694.66	32.770
694.84	32.471
695.03	33.772
695.21	34.955
695.40	32.934
695.58	34.840
695.76	34.784
695.95	34.739
696.13	32.426
696.32	35.776
696.50	36.615
696.68	35.053
696.87	33.963
697.05	35.105
697.24	35.442
697.42	35.886
697.60	34.294
697.79	37.490
697.97	36.594
698.16	38.012
698.34	35.824
698.52	37.297
698.71	35.957
698.89	37.308
699.07	36.405
699.26	36.983
699.44	36.604
699.63	37.807
699.81	37.019
699.99	36.984
700.18	37.427
700.36	37.833
700.54	36.950
700.73	36.679
700.91	38.166
701.09	38.690
701.28	38.904
701.46	37.673
701.64	38.336
701.83	39.917
702.01	39.120
702.20	40.484
702.38	39.146
702.56	39.410
702.75	39.416
702.93	40.121
703.11	37.280
703.30	39.853
703.48	38.805
703.66	39.467
703.85	39.341
704.03	43.567
704.21	39.621
704.40	41.386
704.58	39.630
704.76	42.344
704.95	40.931
705.13	40.856
705.31	38.824
705.50	41.744
705.68	39.662
705.86	42.451
706.04	41.312
706.23	43.283
706.41	40.709
706.59	40.400
706.78	40.614
706.96	40.907
707.14	41.987
707.33	43.659
707.51	41.540
707.69	44.407
707.88	40.809
708.06	42.704
708.24	42.044
708.42	43.289
708.61	40.776
708.79	42.003
708.97	43.146
709.16	43.239
709.34	43.408
709.52	42.807
709.71	41.813
709.89	44.023
710.07	41.337
710.25	43.858
710.44	39.547
710.62	44.323
710.80	42.567
710.98	41.816
711.17	41.664
711.35	42.097
711.53	42.882
711.72	42.655
711.90	42.966
712.08	42.400
712.26	43.196
712.45	41.895
712.63	41.625
712.81	43.776
712.99	43.170
713.18	43.612
713.36	42.792
713.54	44.088
713.72	41.502
713.91	42.914
714.09	41.627
714.27	42.620
714.45	42.560
714.64	43.830
714.82	44.163
715.00	44.912
715.18	43.557
715.37	44.040
715.55	43.461
715.73	45.756
715.91	42.443
716.10	42.705
716.28	40.966
716.46	43.997
716.64	41.978
716.83	43.352
717.01	44.202
717.19	44.060
717.37	43.610
717.55	43.046
717.74	42.075
717.92	41.892
718.10	42.247
718.28	42.202
718.47	41.105
718.65	43.905
718.83	42.245
719.01	44.793
719.19	41.031
719.38	43.285
719.56	41.667
719.74	43.593
719.92	38.564
720.10	44.073
720.29	42.071
720.47	43.816
720.65	43.370
720.83	43.898
721.01	42.903
721.20	44.517
721.38	42.461
721.56	43.786
721.74	44.338
721.92	44.263
722.11	43.303
722.29	42.885
722.47	43.035
722.65	44.821
722.83	45.639
723.01	43.815
723.20	45.717
723.38	44.241
723.56	41.069
723.74	47.779
723.92	43.386
724.10	43.578
724.29	41.688
724.47	46.137
724.65	42.390
724.83	45.838
725.01	41.267
725.19	46.437
725.38	44.400
725.56	42.911
725.74	46.482
725.92	44.612
726.10	46.057
726.28	45.410
726.46	42.900
726.65	45.814
726.83	44.751
727.01	45.465
727.19	43.488
727.37	44.955
727.55	44.073
727.73	47.274
727.92	44.677
728.10	44.370
728.28	43.258
728.46	44.408
728.64	43.803
728.82	46.608
729.00	44.713
729.19	45.775
729.37	42.601
729.55	44.816
729.73	43.647
729.91	47.111
730.09	44.597
730.27	45.867
730.45	43.695
730.63	46.532
730.82	44.399
731.00	44.290
731.18	43.937
731.36	45.602
731.54	42.114
731.72	45.438
731.90	43.800
732.08	46.603
732.26	43.571
732.45	47.260
732.63	44.368
732.81	46.347
732.99	45.087
733.17	44.646
733.35	45.800
733.53	47.287
733.71	45.591
733.89	44.546
734.07	45.526
734.25	47.074
734.44	44.565
734.62	46.466
734.80	47.006
734.98	48.128
735.16	45.222
735.34	47.472
735.52	46.785
735.70	44.857
735.88	48.039
736.06	48.239
736.24	49.094
736.42	48.506
736.60	49.174
736.78	48.602
736.97	47.274
737.15	50.085
737.33	46.839
737.51	48.146
737.69	50.729
737.87	49.877
738.05	48.320
738.23	49.581
738.41	47.546
738.59	50.282
738.77	47.646
738.95	50.403
739.13	46.998
739.31	48.260
739.49	50.620
739.67	50.382
739.85	47.292
740.03	47.088
740.21	49.542
740.39	49.844
740.57	48.938
740.75	47.718
740.93	46.781
741.11	49.257
741.30	48.535
741.48	52.666
741.66	49.577
741.84	50.496
742.02	48.411
742.20	49.275
742.38	48.101
742.56	51.069
742.74	48.694
742.92	49.866
743.10	48.534
743.28	51.325
743.46	50.559
743.64	50.563
743.82	47.997
744.00	51.558
744.18	49.690
744.36	53.347
744.54	51.323
744.72	52.756
744.90	55.094
745.08	53.363
745.26	47.457
745.44	52.660
745.62	49.235
745.80	51.280
745.98	49.690
746.16	53.509
746.34	52.700
746.52	50.755
746.70	47.818
746.87	48.630
747.05	47.965
747.23	49.335
747.41	52.352
747.59	51.275
747.77	48.898
747.95	52.922
748.13	52.726
748.31	55.924
748.49	52.764
748.67	50.387
748.85	47.729
749.03	54.918
749.21	51.351
749.39	54.483
749.57	50.312
749.75	49.742
749.93	52.644
750.11	50.155
750.29	50.030
750.47	49.605
750.65	50.790
750.83	50.500
751.01	46.878
751.18	49.816
751.36	47.061
751.54	53.822
751.72	49.890
751.90	51.708
752.08	48.876
752.26	52.031
752.44	50.169
752.62	51.500
752.80	51.419
752.98	54.041
753.16	53.242
753.34	50.481
753.52	53.254
753.69	53.487
753.87	51.096
754.05	54.387
754.23	50.431
754.41	52.236
754.59	49.412
754.77	51.358
754.95	51.585
755.13	51.583
755.31	49.141
755.49	52.965
755.66	49.594
755.84	50.934
756.02	49.842
756.20	53.607
756.38	51.871
756.56	53.989
756.74	51.283
756.92	51.426
757.10	49.626
757.28	55.063
757.45	53.614
757.63	52.596
757.81	50.032
757.99	55.287
758.17	50.665
758.35	53.832
758.53	50.393
758.71	50.046
758.88	51.556
759.06	52.810
759.24	47.025
759.42	49.814
759.60	46.185
759.78	46.829
759.96	46.086
760.13	49.862
760.31	42.900
760.49	46.998
760.67	40.997
760.85	43.400
761.03	42.537
761.21	39.085
761.38	40.037
761.56	43.496
761.74	41.034
761.92	44.649
762.10	37.826
762.28	44.510
762.46	36.747
762.63	42.773
762.81	40.367
762.99	42.441
763.17	42.306
763.35	43.290
763.53	41.908
763.70	43.850
763.88	43.693
764.06	41.605
764.24	42.382
764.42	45.522
764.60	41.810
764.77	45.125
764.95	44.102
765.13	43.063
765.31	44.436
765.49	44.097
765.66	43.390
765.84	44.513
766.02	43.412
766.20	44.952
766.38	46.051
766.56	44.800
766.73	45.328
766.91	48.225
767.09	48.787
767.27	49.391
767.45	47.911
767.62	49.766
767.80	48.299
767.98	47.234
768.16	49.071
768.33	52.320
768.51	48.378
768.69	50.945
768.87	48.740
769.05	50.475
769.22	49.228
769.40	54.303
769.58	52.354
769.76	52.419
769.94	51.549
770.11	52.312
770.29	49.944
770.47	51.337
770.65	51.800
770.82	53.486
771.00	52.895
771.18	53.548
771.36	52.205
771.53	53.190
771.71	53.500
771.89	53.106
772.07	53.557
772.25	55.615
772.42	51.200
772.60	53.092
772.78	52.306
772.96	53.545
773.13	53.377
773.31	57.689
773.49	50.968
773.67	54.969
773.84	55.188
774.02	55.565
774.20	52.665
774.37	57.034
774.55	55.924
774.73	54.276
774.91	52.030
775.08	56.183
775.26	56.364
775.44	56.637
775.62	57.136
775.79	51.039
775.97	52.794
776.15	53.645
776.32	47.595
776.50	58.104
776.68	59.979
776.86	56.894
777.03	51.016
777.21	51.183
777.39	52.495
777.56	54.418
777.74	51.318
777.92	54.673
778.10	54.550
778.27	55.722
778.45	55.961
778.63	55.326
778.80	54.481
778.98	55.156
779.16	52.938
779.34	51.297
779.51	55.191
779.69	56.189
779.87	52.292
780.04	54.344
780.22	50.643
780.40	52.089
780.57	52.608
780.75	54.094
780.93	54.121
781.10	51.886
781.28	59.639
781.46	53.824
781.63	47.073
781.81	58.131
781.99	50.194
782.16	57.424
782.34	54.770
782.52	52.753
782.69	58.848
782.87	54.708
783.05	52.234
783.22	57.082
783.40	54.104
783.58	55.515
783.75	54.330
783.93	55.969
784.11	49.367
784.28	58.097
784.46	54.983
784.64	54.209
784.81	57.985
784.99	57.477
785.17	50.000
785.34	47.651
785.52	47.321
785.69	54.570
785.87	53.850
786.05	55.939
786.22	48.253
786.40	59.742
786.58	50.334
786.75	55.642
786.93	53.051
787.11	55.826
787.28	52.179
787.46	53.501
787.63	52.827
787.81	56.899
787.99	55.821
788.16	48.846
788.34	48.485
788.51	52.712
788.69	46.098
788.87	52.235
789.04	49.012
789.22	51.105
789.39	49.119
789.57	50.123
789.75	46.823
789.92	52.450
790.10	45.774
790.27	49.056
790.45	48.831
790.63	51.108
790.80	49.877
790.98	51.487
791.15	46.789
791.33	52.660
791.51	48.647
791.68	51.609
791.86	50.492
792.03	49.099
792.21	51.633
792.39	51.848
792.56	49.289
792.74	52.790
792.91	50.458
793.09	46.716
793.26	48.565
793.44	51.276
793.62	52.287
793.79	52.126
793.97	52.087
794.14	51.968
794.32	45.313
794.49	50.000
794.67	43.731
794.84	50.987
795.02	51.867
795.20	52.130
795.37	48.811
795.55	50.353
795.72	45.395
795.90	54.160
796.07	49.379
796.25	50.056
796.42	45.836
796.60	50.616
796.77	48.026
796.95	52.373
797.13	47.713
797.30	50.928
797.48	50.103
797.65	47.114
797.83	45.812
798.00	48.156
798.18	46.326
798.35	51.024
798.53	46.175
798.70	48.306
798.88	48.711
799.05	48.325
799.23	45.041
799.40	49.532
799.58	50.381
799.75	51.552
799.93	48.729
800.10	52.117
800.28	51.122
800.45	55.203
800.63	49.077
800.80	51.008
800.98	49.313
801.15	49.735
801.33	49.820
801.50	54.584
801.68	44.790
801.85	49.689
802.03	46.894
802.20	50.031
802.38	48.158
802.55	52.039
802.73	49.504
802.90	52.912
803.08	44.929
803.25	51.481
803.43	53.681
803.60	56.013
803.78	54.622
803.95	50.303
804.13	51.708
804.30	53.182
804.48	45.831
804.65	55.362
804.83	53.398
805.00	52.997
805.17	49.656
805.35	52.918
805.52	50.311
805.70	51.728
805.87	51.958
806.05	51.941
806.22	44.422
806.40	48.551
806.57	51.796
806.75	55.090
806.92	52.436
807.09	54.558
807.27	48.994
807.44	51.154
807.62	49.742
807.79	49.467
807.97	44.281
808.14	49.108
808.31	49.436
808.49	47.321
808.66	47.167
808.84	47.651
809.01	52.605
809.19	49.897
809.36	52.194
809.53	47.226
809.71	49.674
809.88	63.272
810.06	53.499
810.23	53.659
810.41	56.555
810.58	53.681
810.75	49.890
810.93	45.936
811.10	45.723
811.28	57.185
811.45	54.988
811.62	50.334
811.80	48.775
811.97	54.944
812.15	57.567
812.32	46.531
812.49	49.886
812.67	46.978
812.84	47.633
813.02	53.404
813.19	42.910
813.36	52.197
813.54	47.646
813.71	51.946
813.89	50.768
814.06	53.768
814.23	49.415
814.41	47.220
814.58	50.644
814.75	47.720
814.93	45.563
815.10	51.433
815.28	40.230
815.45	43.715
815.62	45.793
815.80	45.568
815.97	47.642
816.14	48.546
816.32	47.626
816.49	45.119
816.66	50.912
816.84	35.112
817.01	45.377
817.18	47.816
817.36	42.705
817.53	42.633
817.71	36.804
817.88	43.447
818.05	45.816
818.23	46.858
818.40	42.031
818.57	47.134
818.75	38.568
818.92	38.407
819.09	43.988
819.27	48.331
819.44	45.191
819.61	42.654
819.79	48.264
819.96	47.171
820.13	39.346
820.31	45.592
820.48	42.883
820.65	41.887
820.82	41.372
821.00	44.322
821.17	33.282
821.34	40.046
821.52	41.106
821.69	41.543
821.86	40.327
822.04	44.215
822.21	40.190
822.38	43.861
822.56	40.120
822.73	41.920
822.90	42.267
823.07	42.285
823.25	41.606
823.42	41.521
823.59	41.442
823.77	42.397
823.94	41.595
824.11	40.113
824.29	39.010
824.46	39.852
824.63	40.614
824.80	39.164
824.98	38.765
825.15	40.961
825.32	38.360
825.49	40.730
825.67	37.994
825.84	39.046
826.01	38.967
826.19	40.417
826.36	36.838
826.53	42.482
826.70	39.244
826.88	43.902
827.05	38.815
827.22	39.284
827.39	39.623
827.57	39.561
827.74	34.979
827.91	41.869
828.08	38.919
828.26	42.326
828.43	38.650
828.60	42.332
828.77	38.337
828.95	39.484
829.12	36.134
829.29	35.264
829.46	36.882
829.64	41.205
829.81	33.892
829.98	37.886
830.15	36.807
830.32	38.810
830.50	35.727
830.67	38.912
830.84	39.027
831.01	33.158
831.19	35.260
831.36	41.445
831.53	37.185
831.70	47.012
831.87	38.451
832.05	39.739
832.22	45.795
832.39	37.674
832.56	44.487
832.74	45.982
832.91	39.509
833.08	48.757
833.25	33.729
833.42	41.721
833.60	38.659
833.77	32.827
833.94	37.482
834.11	36.778
834.28	32.775
834.45	41.167
834.63	36.569
834.80	39.637
834.97	33.545
835.14	41.631
835.31	39.079
835.49	38.108
835.66	36.441
835.83	33.907
836.00	37.736
836.17	38.662
836.34	37.111
836.52	38.476
836.69	41.646
836.86	42.887
837.03	40.282
837.20	36.359
837.37	39.950
837.55	37.247
837.72	39.271
837.89	43.944
838.06	39.297
838.23	48.662
838.40	45.204
838.58	44.256
838.75	46.680
838.92	46.680
839.09	51.786
839.26	47.602
839.43	47.715
839.60	52.072
839.78	62.875
839.95	55.417
840.12	50.192
840.29	60.226
840.46	57.320
840.63	47.342
840.80	53.717
840.98	49.625
841.15	53.626
841.32	46.035
841.49	41.795
841.66	48.411
841.83	40.804
842.00	50.214
842.17	52.794
842.34	39.160
842.52	52.610
842.69	46.179
842.86	49.883
843.03	66.873
843.20	52.956
843.37	58.491
843.54	61.008
843.71	57.916
843.88	62.865
844.06	71.667
844.23	58.690
844.40	47.440
844.57	63.820
844.74	70.339
844.91	70.245
845.08	66.971
845.25	67.395
845.42	64.791
845.59	74.903
845.76	56.722
845.94	77.660
846.11	78.356
846.28	76.803
846.45	86.042
846.62	84.314
846.79	74.675
846.96	64.547
847.13	78.368
847.30	75.267
847.47	66.802
847.64	67.387
847.81	73.786
847.98	93.568
848.15	64.421
848.32	96.768
848.50	83.004
848.67	59.781
848.84	67.814
849.01	85.772
849.18	64.008
849.35	87.945
849.52	87.723
849.69	69.838
849.86	103.620
850.03	72.834
850.20	73.171
850.37	70.507
850.54	80.777
850.71	81.818
850.88	64.938
851.05	77.500
851.22	100.388
851.39	66.224
851.56	63.557
851.73	82.118
851.90	95.183
852.07	71.703
852.24	81.213
852.41	88.009
852.58	60.476
852.75	67.442
852.92	76.459
853.09	95.506
853.26	69.474
853.43	83.111
853.60	74.220
853.77	79.720
853.94	93.429
854.11	87.703
854.28	98.293
854.45	86.667
854.62	98.182
854.79	70.354
854.96	77.806
855.13	95.128
855.30	103.500
855.47	103.061
855.64	77.951
855.81	83.493
855.98	84.011
856.15	73.780
856.32	72.025
856.49	91.253
856.66	66.901
856.83	79.957
857.00	79.916
857.17	90.644
857.34	77.851
857.51	84.396
857.68	80.907
857.85	97.288
858.02	96.088
858.19	75.000
858.36	99.012
858.53	85.867
858.70	83.333
858.87	79.444
859.04	65.837
859.21	84.483
859.38	89.375
859.55	94.891
859.72	69.075
859.89	96.501
860.05	81.373
860.22	94.737
860.39	84.580
860.56	87.879
860.73	93.317
860.90	78.767
861.07	97.032
861.24	77.574
861.41	89.947
861.58	80.471
861.75	82.578
861.92	59.956
862.09	95.949
862.26	84.161
862.43	85.399
862.59	92.824
862.76	78.132
862.93	105.405
863.10	83.055
863.27	95.575
863.44	71.078
863.61	96.591
863.78	95.224
863.95	115.202
864.12	109.657
864.29	91.793
864.45	78.841
864.62	81.152
864.79	90.842
864.96	88.089
865.13	86.696
865.30	87.143
865.47	98.050
865.64	95.755
865.81	95.317
865.97	66.427
866.14	82.851
866.31	69.249
866.48	87.229
866.65	77.344
866.82	78.897
866.99	121.372
867.16	98.429
867.33	78.118
867.49	74.083
867.66	87.952
867.83	84.361
868.00	86.223
868.17	89.080
868.34	81.920
868.51	79.469
868.67	86.019
868.84	60.920
869.01	100.461
869.18	86.098
869.35	90.508
869.52	88.750
869.69	94.817
869.85	102.716
870.02	63.835
870.19	84.928
870.36	75.661
870.53	71.795
870.70	92.128
870.86	83.161
871.03	80.974
871.20	100.000
871.37	108.753
871.54	78.533
871.71	86.408
871.87	85.598
872.04	73.597
872.21	63.355
872.38	90.220
872.55	100.506
872.72	71.847
872.88	100.000
873.05	87.123
873.22	84.381
873.39	83.688
873.56	83.371
873.72	90.865
873.89	78.198
874.06	76.804
874.23	88.743
874.40	80.925
874.56	83.784
874.73	86.408
874.90	78.342
875.07	70.087
875.24	86.396
875.40	81.348
875.57	66.818
875.74	107.561
875.91	98.374
876.08	65.198
876.24	77.893
876.41	104.315
876.58	93.795
876.75	93.664
876.92	79.911
877.08	76.562
877.25	75.515
877.42	78.659
877.59	85.015
877.75	76.171
877.92	59.316
878.09	80.046
878.26	82.530
878.42	76.330
878.59	73.230
878.76	67.194
878.93	78.733
879.09	74.017
879.26	70.773
879.43	61.573
879.60	69.187
879.76	72.776
879.93	61.386
880.10	71.163
880.27	51.442
880.43	54.823
880.60	53.292
880.77	50.000
880.94	48.689
881.10	38.197
881.27	47.822
881.44	32.193
881.61	40.867
881.77	38.102
881.94	34.219
882.11	28.682
882.28	25.704
882.44	34.681
882.61	34.031
882.78	31.544
882.94	35.838
883.11	34.933
883.28	33.627
883.45	33.490
883.61	31.538
883.78	31.494
883.95	37.282
884.11	32.242
884.28	33.095
>>>>>End Processed Spectral Data<<<<<
