SpectraSuite Data File
++++++++++++++++++++++++++++++++++++
Date: Mon Sep 23 03:52:23 EST 2019
User: sgrac
Dark Spectrum Present: Yes
Reference Spectrum Present: Yes
Number of Sampled Component Spectra: 1
Spectrometers: USB4E01596
Integration Time (usec): 100000 (USB4E01596)
Spectra Averaged: 3 (USB4E01596)
Boxcar Smoothing: 0 (USB4E01596)
Correct for Electrical Dark: No (USB4E01596)
Strobe/Lamp Enabled: Yes (USB4E01596)
Correct for Detector Non-linearity: No (USB4E01596)
Correct for Stray Light: No (USB4E01596)
Number of Pixels in Processed Spectrum: 3648
>>>>>Begin Processed Spectral Data<<<<<
178.44	1546.154
178.66	1546.154
178.87	1546.154
179.09	6566.667
179.30	-5575.000
179.52	-709.677
179.74	-435.849
179.95	718.182
180.17	-455.556
180.38	515.789
180.60	-2954.545
180.82	708.889
181.03	4283.333
181.25	-2633.333
181.46	-1228.000
181.68	1116.667
181.89	-663.636
182.11	-1556.250
182.33	-1900.000
182.54	714.583
182.76	4650.000
182.97	-572.340
183.19	1340.000
183.40	262.810
183.62	394.872
183.84	343.636
184.05	4700.000
184.27	471.212
184.48	451.515
184.70	1552.941
184.91	1419.048
185.13	2790.000
185.34	-15550.000
185.56	1084.615
185.78	402.778
185.99	963.889
186.21	339.773
186.42	-6450.000
186.64	2490.000
186.85	-5120.000
187.07	592.000
187.28	369.737
187.50	405.455
187.72	283.333
187.93	792.727
188.15	371.875
188.36	459.211
188.58	469.388
188.79	319.231
189.01	492.958
189.22	848.649
189.44	-821.212
189.65	300.847
189.87	-6575.000
190.09	485.714
190.30	733.333
190.52	471.667
190.73	815.217
190.95	-3633.333
191.16	360.714
191.38	391.892
191.59	510.294
191.81	662.903
192.02	1860.000
192.24	840.625
192.45	776.471
192.67	-1425.000
192.88	435.849
193.10	481.967
193.31	810.000
193.53	283.065
193.74	437.333
193.96	1964.286
194.18	965.385
194.39	2366.667
194.61	442.466
194.82	1540.909
195.04	328.049
195.25	-475.439
195.47	-412.963
195.68	4250.000
195.90	614.545
196.11	346.269
196.33	24000.000
196.54	726.829
196.76	2171.429
196.97	470.130
197.19	821.622
197.40	1857.143
197.62	252.294
197.83	1006.452
198.05	501.818
198.26	803.448
198.48	484.507
198.69	483.333
198.91	1444.444
199.12	634.884
199.34	656.522
199.55	461.429
199.77	1831.579
199.98	1017.647
200.20	484.211
200.41	525.806
200.63	311.504
200.84	1835.714
201.06	3277.778
201.27	785.366
201.49	457.746
201.70	-836.667
201.91	438.889
202.13	569.492
202.34	493.103
202.56	-1012.000
202.77	680.000
202.99	5250.000
203.20	-3925.000
203.42	1993.750
203.63	365.789
203.85	5016.667
204.06	528.000
204.28	295.960
204.49	414.815
204.71	445.763
204.92	1061.538
205.14	0.000
205.35	816.667
205.56	-1520.000
205.78	5240.000
205.99	-1671.429
206.21	12600.000
206.42	665.909
206.64	1016.129
206.85	722.222
207.07	-2977.778
207.28	436.207
207.50	730.435
207.71	932.258
207.93	325.301
208.14	-877.778
208.35	500.000
208.57	1204.000
208.78	-3211.111
209.00	318.085
209.21	-13000.000
209.43	-7533.333
209.64	-1760.000
209.86	290.722
210.07	362.791
210.28	474.648
210.50	955.172
210.71	588.235
210.93	223.529
211.14	408.989
211.36	1750.000
211.57	363.636
211.78	437.143
212.00	377.647
212.21	417.143
212.43	866.667
212.64	378.723
212.86	405.405
213.07	416.514
213.29	-683.333
213.50	300.000
213.71	311.494
213.93	417.073
214.14	1881.818
214.36	458.824
214.57	353.165
214.78	795.556
215.00	290.625
215.21	986.667
215.43	781.081
215.64	384.127
215.86	327.500
216.07	740.000
216.28	757.895
216.50	263.333
216.71	25800.000
216.93	609.091
217.14	1583.333
217.35	270.455
217.57	273.874
217.78	371.605
218.00	247.475
218.21	1282.609
218.42	706.383
218.64	416.071
218.85	486.000
219.07	1050.000
219.28	310.280
219.49	533.333
219.71	443.077
219.92	207.463
220.14	348.454
220.35	382.667
220.56	296.552
220.78	305.769
220.99	232.258
221.21	352.688
221.42	288.889
221.63	167.630
221.85	396.923
222.06	402.857
222.28	438.462
222.49	252.252
222.70	252.756
222.92	512.245
223.13	495.082
223.34	181.560
223.56	345.238
223.77	317.500
223.99	327.368
224.20	425.000
224.41	349.315
224.63	381.818
224.84	204.730
225.05	104.701
225.27	296.522
225.48	282.353
225.69	240.602
225.91	343.243
226.12	255.039
226.34	208.725
226.55	179.137
226.76	260.625
226.98	119.608
227.19	136.328
227.40	222.656
227.62	171.958
227.83	128.326
228.04	106.425
228.26	71.722
228.47	74.221
228.69	63.959
228.90	53.731
229.11	63.373
229.33	45.141
229.54	34.106
229.75	29.929
229.97	40.781
230.18	35.955
230.39	34.292
230.61	35.166
230.82	40.719
231.03	30.971
231.25	36.093
231.46	39.367
231.67	38.925
231.89	46.240
232.10	49.937
232.31	45.412
232.53	50.255
232.74	60.000
232.95	47.005
233.17	42.800
233.38	46.849
233.59	47.866
233.81	60.507
234.02	49.699
234.23	54.610
234.45	57.292
234.66	65.044
234.87	57.172
235.09	61.736
235.30	41.681
235.51	50.000
235.73	61.596
235.94	45.283
236.15	49.195
236.36	41.682
236.58	51.638
236.79	46.313
237.00	49.707
237.22	50.000
237.43	45.643
237.64	45.827
237.86	47.556
238.07	48.625
238.28	42.742
238.50	45.439
238.71	45.144
238.92	29.062
239.13	47.966
239.35	52.411
239.56	50.177
239.77	60.754
239.99	37.236
240.20	47.368
240.41	39.024
240.63	34.097
240.84	34.453
241.05	32.769
241.26	28.810
241.48	25.102
241.69	24.486
241.90	22.037
242.12	19.887
242.33	19.118
242.54	16.171
242.75	19.684
242.97	16.658
243.18	16.401
243.39	13.866
243.61	17.059
243.82	13.445
244.03	14.311
244.24	15.565
244.46	17.869
244.67	15.184
244.88	11.529
245.09	18.345
245.31	19.351
245.52	16.034
245.73	12.334
245.95	35.023
246.16	20.276
246.37	15.759
246.58	17.592
246.80	15.592
247.01	16.143
247.22	10.948
247.43	11.326
247.65	10.523
247.86	9.238
248.07	9.197
248.28	8.099
248.50	7.762
248.71	8.905
248.92	7.154
249.13	7.444
249.35	8.841
249.56	8.032
249.77	9.229
249.98	9.836
250.20	10.744
250.41	11.948
250.62	14.771
250.83	15.657
251.05	17.297
251.26	14.293
251.47	14.217
251.68	17.730
251.90	15.760
252.11	17.092
252.32	18.951
252.53	13.934
252.75	16.016
252.96	17.917
253.17	13.968
253.38	16.252
253.59	16.230
253.81	11.348
254.02	12.181
254.23	15.099
254.44	11.492
254.66	11.093
254.87	16.243
255.08	17.911
255.29	17.776
255.50	15.839
255.72	18.714
255.93	22.347
256.14	24.191
256.35	20.724
256.57	27.392
256.78	25.861
256.99	19.595
257.20	27.622
257.41	21.014
257.63	26.139
257.84	18.817
258.05	19.910
258.26	17.050
258.47	19.042
258.69	14.799
258.90	13.096
259.11	13.016
259.32	12.833
259.53	8.621
259.75	13.075
259.96	10.822
260.17	7.684
260.38	4.478
260.59	7.428
260.81	6.604
261.02	5.458
261.23	6.077
261.44	5.931
261.65	5.822
261.87	4.699
262.08	6.148
262.29	7.075
262.50	6.790
262.71	6.682
262.92	9.098
263.14	7.221
263.35	8.943
263.56	9.971
263.77	9.416
263.98	11.810
264.20	13.036
264.41	13.069
264.62	11.033
264.83	12.516
265.04	15.464
265.25	14.179
265.47	12.361
265.68	16.508
265.89	15.821
266.10	10.123
266.31	13.527
266.52	12.500
266.74	10.459
266.95	14.015
267.16	10.757
267.37	8.707
267.58	10.995
267.79	13.256
268.01	12.086
268.22	10.955
268.43	8.009
268.64	10.674
268.85	9.659
269.06	8.616
269.27	9.792
269.49	7.353
269.70	9.121
269.91	10.690
270.12	9.247
270.33	11.874
270.54	7.534
270.75	8.545
270.97	13.237
271.18	10.010
271.39	8.631
271.60	8.583
271.81	9.994
272.02	9.064
272.23	8.858
272.45	8.873
272.66	5.671
272.87	7.261
273.08	4.227
273.29	7.700
273.50	6.382
273.71	7.354
273.92	5.470
274.14	5.754
274.35	6.488
274.56	6.547
274.77	7.028
274.98	8.617
275.19	8.025
275.40	10.062
275.61	7.776
275.83	12.717
276.04	10.000
276.25	9.994
276.46	7.010
276.67	10.821
276.88	8.305
277.09	9.907
277.30	6.975
277.51	10.162
277.73	6.874
277.94	9.395
278.15	10.543
278.36	9.502
278.57	7.061
278.78	7.540
278.99	8.940
279.20	9.249
279.41	12.100
279.62	8.485
279.84	6.785
280.05	10.313
280.26	9.443
280.47	9.278
280.68	7.915
280.89	8.477
281.10	8.423
281.31	8.825
281.52	8.594
281.73	7.179
281.94	5.730
282.16	8.220
282.37	7.288
282.58	7.020
282.79	7.320
283.00	7.304
283.21	6.229
283.42	7.421
283.63	8.091
283.84	6.915
284.05	7.547
284.26	6.888
284.47	6.164
284.68	7.375
284.89	7.188
285.11	8.159
285.32	5.713
285.53	7.813
285.74	6.823
285.95	5.986
286.16	5.755
286.37	6.036
286.58	6.329
286.79	4.065
287.00	5.038
287.21	5.027
287.42	4.956
287.63	5.257
287.84	5.411
288.05	5.905
288.26	5.511
288.48	6.426
288.69	4.381
288.90	6.123
289.11	7.061
289.32	8.194
289.53	6.807
289.74	6.131
289.95	7.040
290.16	5.875
290.37	5.080
290.58	5.509
290.79	4.847
291.00	3.158
291.21	4.898
291.42	6.042
291.63	6.302
291.84	7.288
292.05	5.396
292.26	4.516
292.47	6.190
292.68	4.212
292.89	6.931
293.10	7.441
293.31	6.986
293.52	6.591
293.73	8.226
293.94	4.605
294.15	6.606
294.36	7.548
294.57	6.650
294.79	5.644
295.00	5.122
295.21	7.770
295.42	6.625
295.63	6.623
295.84	5.136
296.05	6.124
296.26	4.100
296.47	5.767
296.68	5.956
296.89	7.873
297.10	5.267
297.31	6.126
297.52	3.179
297.73	5.937
297.94	4.283
298.15	3.510
298.36	4.957
298.57	4.235
298.78	3.847
298.99	5.636
299.20	4.715
299.41	5.160
299.62	5.306
299.83	3.979
300.04	5.208
300.25	5.992
300.46	6.349
300.67	6.065
300.88	6.776
301.09	6.952
301.30	6.352
301.50	6.595
301.71	6.547
301.92	6.300
302.13	7.293
302.34	5.554
302.55	5.388
302.76	5.402
302.97	5.684
303.18	6.646
303.39	5.852
303.60	6.529
303.81	6.795
304.02	5.017
304.23	5.312
304.44	6.326
304.65	4.898
304.86	6.909
305.07	6.254
305.28	5.599
305.49	7.173
305.70	6.702
305.91	5.874
306.12	6.745
306.33	4.761
306.54	4.655
306.75	5.954
306.96	9.393
307.17	8.628
307.38	7.431
307.58	7.138
307.79	5.261
308.00	6.007
308.21	6.909
308.42	5.894
308.63	5.793
308.84	5.366
309.05	6.728
309.26	5.051
309.47	6.407
309.68	5.040
309.89	6.722
310.10	5.775
310.31	6.700
310.52	5.348
310.73	5.646
310.94	4.308
311.14	5.595
311.35	5.350
311.56	5.034
311.77	4.344
311.98	5.538
312.19	4.708
312.40	4.978
312.61	3.605
312.82	4.893
313.03	5.141
313.24	6.198
313.45	3.544
313.66	4.452
313.86	6.863
314.07	4.881
314.28	6.725
314.49	5.638
314.70	7.351
314.91	6.914
315.12	5.660
315.33	6.128
315.54	5.539
315.75	6.524
315.96	6.053
316.16	6.906
316.37	6.019
316.58	4.642
316.79	5.520
317.00	5.011
317.21	7.087
317.42	7.748
317.63	5.758
317.84	5.313
318.05	6.691
318.25	7.437
318.46	5.999
318.67	5.530
318.88	5.678
319.09	6.682
319.30	6.439
319.51	7.336
319.72	8.394
319.93	5.866
320.13	6.499
320.34	7.417
320.55	7.095
320.76	7.311
320.97	7.638
321.18	7.611
321.39	4.607
321.60	6.864
321.80	9.188
322.01	6.468
322.22	5.192
322.43	5.627
322.64	6.535
322.85	6.846
323.06	5.856
323.27	6.746
323.47	7.874
323.68	7.042
323.89	6.456
324.10	7.879
324.31	5.944
324.52	7.424
324.73	6.240
324.93	6.364
325.14	7.397
325.35	5.572
325.56	5.346
325.77	6.869
325.98	5.960
326.19	5.574
326.39	4.597
326.60	4.915
326.81	4.637
327.02	4.685
327.23	5.785
327.44	5.320
327.64	4.820
327.85	4.803
328.06	5.618
328.27	6.702
328.48	5.750
328.69	4.904
328.90	6.758
329.10	6.883
329.31	6.480
329.52	5.484
329.73	7.369
329.94	6.070
330.15	5.000
330.35	8.325
330.56	6.452
330.77	6.609
330.98	4.889
331.19	7.646
331.39	8.783
331.60	6.312
331.81	5.332
332.02	5.259
332.23	4.708
332.44	6.721
332.64	6.718
332.85	5.363
333.06	6.052
333.27	7.262
333.48	5.366
333.68	5.340
333.89	7.059
334.10	5.319
334.31	5.514
334.52	5.602
334.72	4.228
334.93	6.136
335.14	4.482
335.35	5.397
335.56	5.645
335.76	4.857
335.97	6.492
336.18	6.057
336.39	5.757
336.60	5.051
336.80	4.424
337.01	4.815
337.22	4.671
337.43	5.869
337.64	6.136
337.84	5.597
338.05	4.493
338.26	6.704
338.47	6.694
338.68	4.718
338.88	3.831
339.09	4.174
339.30	5.835
339.51	5.318
339.71	5.709
339.92	4.546
340.13	5.656
340.34	6.123
340.55	5.497
340.75	5.898
340.96	4.895
341.17	6.285
341.38	5.404
341.58	6.405
341.79	4.693
342.00	5.799
342.21	5.123
342.41	5.033
342.62	5.015
342.83	4.853
343.04	4.149
343.24	4.759
343.45	4.838
343.66	3.736
343.87	3.839
344.07	3.845
344.28	4.555
344.49	5.266
344.70	5.194
344.90	3.704
345.11	4.176
345.32	5.541
345.53	4.796
345.73	5.033
345.94	3.950
346.15	4.701
346.36	3.480
346.56	3.831
346.77	4.992
346.98	4.039
347.19	4.073
347.39	5.195
347.60	4.383
347.81	3.877
348.02	4.679
348.22	4.977
348.43	4.636
348.64	4.789
348.84	4.242
349.05	5.760
349.26	4.581
349.47	4.903
349.67	4.785
349.88	4.783
350.09	5.075
350.30	6.898
350.50	5.612
350.71	5.435
350.92	5.481
351.12	5.933
351.33	3.832
351.54	4.856
351.74	5.710
351.95	5.002
352.16	5.493
352.37	5.152
352.57	5.510
352.78	5.681
352.99	4.814
353.19	5.192
353.40	4.324
353.61	6.515
353.82	6.708
354.02	6.791
354.23	4.853
354.44	6.864
354.64	5.933
354.85	6.142
355.06	4.972
355.26	5.106
355.47	5.137
355.68	4.754
355.88	5.934
356.09	6.519
356.30	5.076
356.51	5.956
356.71	5.016
356.92	3.503
357.13	6.496
357.33	6.409
357.54	5.346
357.75	3.820
357.95	6.615
358.16	5.340
358.37	5.332
358.57	5.344
358.78	5.944
358.99	5.491
359.19	6.225
359.40	6.450
359.61	5.624
359.81	6.906
360.02	6.996
360.23	5.716
360.43	5.669
360.64	5.297
360.85	5.623
361.05	5.759
361.26	6.939
361.47	5.093
361.67	6.753
361.88	5.580
362.09	6.820
362.29	5.170
362.50	5.174
362.70	4.814
362.91	6.406
363.12	5.122
363.32	6.033
363.53	6.507
363.74	6.649
363.94	5.072
364.15	7.044
364.36	7.655
364.56	5.512
364.77	7.827
364.98	7.814
365.18	7.026
365.39	7.315
365.59	6.305
365.80	6.640
366.01	7.684
366.21	6.998
366.42	5.731
366.63	8.490
366.83	6.670
367.04	6.216
367.24	8.720
367.45	6.725
367.66	6.074
367.86	7.264
368.07	6.899
368.28	7.161
368.48	7.099
368.69	5.366
368.89	6.885
369.10	7.614
369.31	7.337
369.51	7.565
369.72	9.395
369.92	9.114
370.13	5.824
370.34	7.637
370.54	4.434
370.75	8.181
370.95	6.210
371.16	7.490
371.37	7.299
371.57	7.094
371.78	6.964
371.98	8.276
372.19	7.910
372.40	8.543
372.60	8.519
372.81	7.902
373.01	6.371
373.22	6.746
373.43	8.583
373.63	8.041
373.84	9.055
374.04	8.589
374.25	7.294
374.46	9.090
374.66	8.724
374.87	8.915
375.07	6.324
375.28	6.600
375.48	7.811
375.69	8.641
375.90	6.418
376.10	5.938
376.31	7.659
376.51	7.063
376.72	7.649
376.92	6.488
377.13	8.169
377.34	8.730
377.54	7.566
377.75	9.493
377.95	8.039
378.16	9.763
378.36	8.837
378.57	9.490
378.77	8.655
378.98	8.149
379.19	8.240
379.39	8.033
379.60	8.116
379.80	8.528
380.01	9.665
380.21	8.395
380.42	9.347
380.62	9.319
380.83	9.589
381.04	9.041
381.24	9.116
381.45	10.173
381.65	7.575
381.86	9.143
382.06	10.645
382.27	8.349
382.47	9.307
382.68	10.609
382.88	8.163
383.09	8.453
383.29	9.767
383.50	11.622
383.71	9.446
383.91	10.740
384.12	10.079
384.32	10.946
384.53	9.722
384.73	8.670
384.94	10.002
385.14	10.127
385.35	10.112
385.55	11.265
385.76	10.179
385.96	10.608
386.17	11.416
386.37	12.556
386.58	11.177
386.78	12.729
386.99	10.098
387.19	12.221
387.40	10.932
387.60	13.500
387.81	11.811
388.01	12.720
388.22	12.918
388.42	13.208
388.63	13.375
388.83	14.728
389.04	11.263
389.24	13.370
389.45	13.548
389.65	13.611
389.86	12.588
390.06	13.044
390.27	12.632
390.47	13.639
390.68	12.625
390.88	15.720
391.09	15.171
391.29	15.445
391.50	14.493
391.70	15.515
391.91	14.403
392.11	15.197
392.32	14.807
392.52	16.737
392.73	14.845
392.93	16.231
393.14	15.527
393.34	15.707
393.55	16.126
393.75	16.512
393.95	15.857
394.16	16.943
394.36	16.719
394.57	17.284
394.77	16.280
394.98	17.194
395.18	17.111
395.39	17.173
395.59	17.363
395.80	17.851
396.00	17.257
396.21	19.015
396.41	17.107
396.61	18.201
396.82	17.831
397.02	19.418
397.23	17.095
397.43	17.551
397.64	16.276
397.84	19.273
398.05	17.403
398.25	18.581
398.45	18.616
398.66	18.490
398.86	18.118
399.07	19.230
399.27	17.836
399.48	19.628
399.68	17.244
399.89	18.207
400.09	18.895
400.29	18.665
400.50	18.000
400.70	18.870
400.91	18.824
401.11	19.169
401.32	18.997
401.52	18.123
401.72	18.424
401.93	20.761
402.13	18.928
402.34	19.680
402.54	18.160
402.75	21.427
402.95	18.091
403.15	20.554
403.36	18.588
403.56	20.236
403.77	18.737
403.97	19.012
404.17	19.038
404.38	20.200
404.58	18.994
404.79	20.371
404.99	19.963
405.19	20.861
405.40	20.054
405.60	19.963
405.81	19.810
406.01	19.749
406.21	20.574
406.42	21.151
406.62	19.175
406.83	19.710
407.03	20.431
407.23	19.720
407.44	19.153
407.64	20.959
407.85	20.220
408.05	19.856
408.25	20.201
408.46	20.939
408.66	20.507
408.87	20.058
409.07	20.291
409.27	20.164
409.48	19.612
409.68	20.278
409.88	18.127
410.09	19.675
410.29	19.738
410.50	21.419
410.70	19.146
410.90	19.067
411.11	18.937
411.31	19.410
411.51	20.435
411.72	20.711
411.92	19.892
412.12	20.608
412.33	18.944
412.53	20.703
412.74	18.063
412.94	20.335
413.14	20.195
413.35	20.591
413.55	20.208
413.75	20.857
413.96	19.465
414.16	20.453
414.36	19.997
414.57	20.299
414.77	18.814
414.97	20.139
415.18	19.038
415.38	20.606
415.58	19.589
415.79	19.508
415.99	18.930
416.19	20.755
416.40	19.591
416.60	20.041
416.80	19.436
417.01	20.615
417.21	18.727
417.41	20.242
417.62	20.131
417.82	20.261
418.02	18.911
418.23	19.822
418.43	18.915
418.63	20.622
418.84	20.042
419.04	20.348
419.24	20.429
419.45	19.955
419.65	19.927
419.85	20.312
420.06	20.010
420.26	20.145
420.46	19.524
420.67	19.940
420.87	19.836
421.07	19.607
421.28	19.865
421.48	19.771
421.68	19.879
421.88	19.711
422.09	20.061
422.29	19.626
422.49	19.804
422.70	19.593
422.90	19.819
423.10	20.315
423.31	20.264
423.51	19.768
423.71	19.740
423.91	20.381
424.12	19.782
424.32	20.186
424.52	19.630
424.73	19.879
424.93	19.896
425.13	19.438
425.33	19.751
425.54	19.544
425.74	19.989
425.94	20.503
426.15	20.429
426.35	20.267
426.55	20.106
426.75	20.659
426.96	20.405
427.16	20.058
427.36	20.365
427.57	20.643
427.77	20.219
427.97	20.987
428.17	20.769
428.38	20.635
428.58	19.566
428.78	21.124
428.98	20.246
429.19	20.304
429.39	19.737
429.59	20.042
429.79	19.354
430.00	19.919
430.20	19.586
430.40	20.355
430.60	19.797
430.81	19.466
431.01	20.148
431.21	20.621
431.41	19.598
431.62	20.652
431.82	19.765
432.02	20.175
432.22	19.633
432.43	20.548
432.63	20.723
432.83	19.919
433.03	20.033
433.24	19.656
433.44	19.958
433.64	20.324
433.84	20.139
434.05	20.680
434.25	20.548
434.45	21.282
434.65	20.881
434.85	20.861
435.06	20.897
435.26	21.195
435.46	21.184
435.66	21.517
435.87	21.077
436.07	21.336
436.27	21.443
436.47	21.104
436.67	21.254
436.88	21.410
437.08	21.192
437.28	21.472
437.48	21.334
437.69	21.164
437.89	21.170
438.09	21.433
438.29	21.662
438.49	21.600
438.70	21.197
438.90	21.478
439.10	21.452
439.30	21.352
439.50	20.908
439.71	21.412
439.91	21.450
440.11	22.076
440.31	21.456
440.51	21.338
440.72	21.258
440.92	21.281
441.12	22.255
441.32	21.531
441.52	21.883
441.72	21.528
441.93	21.534
442.13	22.085
442.33	21.802
442.53	21.913
442.73	22.087
442.94	21.952
443.14	22.287
443.34	22.450
443.54	22.072
443.74	22.593
443.94	22.098
444.15	21.938
444.35	22.033
444.55	22.139
444.75	21.407
444.95	21.852
445.15	22.387
445.36	21.544
445.56	21.834
445.76	21.955
445.96	21.273
446.16	21.643
446.36	21.531
446.57	22.104
446.77	21.679
446.97	21.747
447.17	21.794
447.37	22.055
447.57	22.196
447.77	21.989
447.98	22.665
448.18	21.868
448.38	22.498
448.58	22.452
448.78	22.945
448.98	22.446
449.18	22.465
449.39	22.699
449.59	22.707
449.79	22.437
449.99	22.296
450.19	23.250
450.39	22.971
450.59	22.671
450.79	22.441
451.00	22.347
451.20	23.848
451.40	22.395
451.60	22.158
451.80	22.268
452.00	22.751
452.20	22.396
452.40	22.741
452.61	22.424
452.81	22.504
453.01	22.205
453.21	22.442
453.41	22.691
453.61	22.418
453.81	22.559
454.01	22.515
454.21	22.606
454.42	22.913
454.62	23.042
454.82	22.407
455.02	23.337
455.22	22.767
455.42	22.828
455.62	22.758
455.82	23.020
456.02	22.612
456.23	22.858
456.43	22.238
456.63	22.214
456.83	22.522
457.03	22.911
457.23	22.838
457.43	23.148
457.63	22.267
457.83	22.793
458.03	22.266
458.23	22.219
458.43	22.423
458.64	22.173
458.84	22.584
459.04	22.348
459.24	22.046
459.44	21.877
459.64	21.873
459.84	21.229
460.04	22.162
460.24	21.871
460.44	21.799
460.64	22.111
460.84	22.400
461.04	22.499
461.24	22.579
461.45	22.438
461.65	22.596
461.85	22.983
462.05	22.974
462.25	22.648
462.45	22.893
462.65	22.702
462.85	23.015
463.05	22.858
463.25	22.855
463.45	22.663
463.65	22.856
463.85	22.910
464.05	22.477
464.25	22.614
464.45	22.479
464.65	22.045
464.85	22.815
465.05	22.560
465.26	22.828
465.46	22.493
465.66	23.046
465.86	23.218
466.06	23.124
466.26	22.580
466.46	22.319
466.66	22.980
466.86	22.752
467.06	22.342
467.26	22.840
467.46	22.499
467.66	22.955
467.86	22.671
468.06	22.696
468.26	22.378
468.46	22.646
468.66	22.947
468.86	22.929
469.06	23.017
469.26	22.846
469.46	22.876
469.66	22.949
469.86	22.859
470.06	22.924
470.26	23.513
470.46	22.883
470.66	23.540
470.86	22.811
471.06	23.168
471.26	23.718
471.46	22.389
471.66	23.005
471.86	23.231
472.06	22.696
472.26	23.238
472.46	23.263
472.66	23.499
472.86	22.769
473.06	23.007
473.26	23.467
473.46	23.469
473.66	22.667
473.86	23.345
474.06	23.890
474.26	23.113
474.46	23.176
474.66	23.539
474.86	23.530
475.06	23.815
475.26	23.620
475.46	23.100
475.66	24.057
475.86	23.820
476.06	23.337
476.26	23.661
476.46	23.866
476.66	23.571
476.86	23.670
477.06	24.041
477.26	23.144
477.46	23.568
477.65	23.517
477.85	24.038
478.05	23.657
478.25	24.344
478.45	23.802
478.65	23.972
478.85	23.674
479.05	23.914
479.25	24.244
479.45	24.094
479.65	24.095
479.85	23.552
480.05	23.661
480.25	23.962
480.45	24.042
480.65	23.675
480.85	24.148
481.05	23.623
481.25	24.410
481.44	24.115
481.64	23.766
481.84	23.873
482.04	23.818
482.24	23.992
482.44	23.713
482.64	23.607
482.84	23.523
483.04	23.249
483.24	23.057
483.44	23.068
483.64	22.755
483.84	22.583
484.04	23.228
484.23	23.707
484.43	23.939
484.63	24.326
484.83	24.991
485.03	26.167
485.23	25.784
485.43	25.802
485.63	25.559
485.83	25.403
486.03	25.413
486.23	25.465
486.42	25.210
486.62	24.824
486.82	24.636
487.02	24.375
487.22	24.246
487.42	24.087
487.62	23.971
487.82	24.029
488.02	24.123
488.22	24.142
488.41	24.099
488.61	24.323
488.81	24.277
489.01	24.792
489.21	25.002
489.41	25.126
489.61	24.829
489.81	25.047
490.01	25.237
490.20	25.074
490.40	24.846
490.60	25.119
490.80	24.571
491.00	24.539
491.20	24.142
491.40	23.936
491.60	23.512
491.79	23.819
491.99	24.050
492.19	24.261
492.39	24.175
492.59	24.208
492.79	24.350
492.99	24.446
493.19	24.581
493.38	24.903
493.58	25.165
493.78	25.120
493.98	25.445
494.18	25.289
494.38	25.132
494.58	25.395
494.77	25.313
494.97	24.610
495.17	24.568
495.37	24.305
495.57	25.247
495.77	24.556
495.96	24.395
496.16	24.734
496.36	24.383
496.56	24.165
496.76	24.321
496.96	24.318
497.15	24.385
497.35	24.334
497.55	24.139
497.75	24.629
497.95	24.878
498.15	24.587
498.34	24.732
498.54	24.544
498.74	25.089
498.94	24.660
499.14	24.869
499.34	24.961
499.53	24.839
499.73	24.523
499.93	24.610
500.13	25.285
500.33	24.485
500.52	24.950
500.72	24.966
500.92	25.128
501.12	25.218
501.32	24.267
501.52	24.944
501.71	24.894
501.91	24.436
502.11	24.722
502.31	24.419
502.51	25.076
502.70	24.694
502.90	24.928
503.10	24.356
503.30	24.918
503.50	24.509
503.69	24.800
503.89	25.012
504.09	25.063
504.29	24.886
504.48	24.837
504.68	24.448
504.88	24.708
505.08	24.750
505.28	25.061
505.47	25.226
505.67	24.729
505.87	25.128
506.07	25.096
506.27	24.772
506.46	25.071
506.66	25.004
506.86	25.212
507.06	25.479
507.25	24.967
507.45	25.223
507.65	25.058
507.85	25.042
508.04	25.559
508.24	24.926
508.44	24.655
508.64	24.701
508.83	24.639
509.03	25.032
509.23	24.537
509.43	25.075
509.63	25.203
509.82	25.208
510.02	25.338
510.22	25.072
510.42	24.991
510.61	25.206
510.81	25.170
511.01	25.412
511.21	25.131
511.40	25.294
511.60	25.005
511.80	25.851
511.99	25.394
512.19	25.490
512.39	25.258
512.59	25.470
512.78	25.660
512.98	25.117
513.18	25.164
513.38	25.939
513.57	25.194
513.77	25.441
513.97	25.379
514.17	25.532
514.36	25.768
514.56	25.557
514.76	25.346
514.95	25.682
515.15	25.866
515.35	25.743
515.55	25.137
515.74	25.695
515.94	25.828
516.14	25.518
516.33	25.721
516.53	25.571
516.73	25.253
516.93	25.253
517.12	25.428
517.32	25.119
517.52	25.155
517.71	25.192
517.91	24.971
518.11	25.143
518.30	25.097
518.50	24.905
518.70	25.303
518.90	25.500
519.09	25.101
519.29	25.464
519.49	25.531
519.68	25.548
519.88	25.431
520.08	25.905
520.27	25.578
520.47	26.594
520.67	25.926
520.86	26.438
521.06	25.719
521.26	25.838
521.45	25.961
521.65	25.937
521.85	25.633
522.04	25.910
522.24	25.642
522.44	26.011
522.63	25.737
522.83	26.200
523.03	25.811
523.22	25.764
523.42	26.273
523.62	25.875
523.81	25.722
524.01	26.035
524.21	25.850
524.40	25.774
524.60	25.865
524.80	25.538
524.99	25.280
525.19	25.583
525.39	25.515
525.58	25.636
525.78	25.650
525.98	25.498
526.17	25.618
526.37	25.509
526.57	25.446
526.76	25.870
526.96	25.648
527.15	25.701
527.35	25.769
527.55	25.830
527.74	25.782
527.94	25.613
528.14	24.945
528.33	24.809
528.53	24.805
528.72	25.415
528.92	25.505
529.12	25.864
529.31	25.969
529.51	26.271
529.71	26.327
529.90	26.487
530.10	26.295
530.29	27.119
530.49	27.162
530.69	27.354
530.88	26.961
531.08	26.960
531.28	26.526
531.47	26.542
531.67	26.544
531.86	26.258
532.06	26.142
532.26	26.182
532.45	25.803
532.65	26.341
532.84	25.599
533.04	25.666
533.24	25.892
533.43	25.749
533.63	26.099
533.82	26.252
534.02	26.085
534.22	26.263
534.41	26.237
534.61	26.508
534.80	26.632
535.00	26.973
535.19	26.629
535.39	27.013
535.59	26.875
535.78	26.848
535.98	26.547
536.17	26.355
536.37	26.569
536.57	26.250
536.76	25.960
536.96	26.105
537.15	26.006
537.35	26.461
537.54	26.343
537.74	26.735
537.93	26.986
538.13	27.110
538.33	26.826
538.52	26.929
538.72	27.188
538.91	26.992
539.11	27.051
539.30	27.279
539.50	27.134
539.70	26.748
539.89	26.505
540.09	26.789
540.28	26.197
540.48	25.880
540.67	25.938
540.87	26.014
541.06	25.684
541.26	26.095
541.45	26.366
541.65	26.405
541.85	26.389
542.04	26.655
542.24	26.584
542.43	27.019
542.63	26.927
542.82	27.270
543.02	27.314
543.21	27.534
543.41	27.796
543.60	27.757
543.80	27.423
543.99	27.461
544.19	27.480
544.38	27.614
544.58	27.514
544.77	27.904
544.97	27.727
545.16	27.540
545.36	27.490
545.56	27.700
545.75	26.982
545.95	27.665
546.14	27.777
546.34	27.444
546.53	27.180
546.73	27.023
546.92	27.248
547.12	27.763
547.31	27.358
547.51	27.540
547.70	27.710
547.90	27.708
548.09	27.631
548.29	27.741
548.48	27.861
548.68	27.991
548.87	28.134
549.07	28.199
549.26	28.194
549.46	28.620
549.65	28.301
549.84	28.182
550.04	28.253
550.23	28.461
550.43	28.231
550.62	28.261
550.82	28.277
551.01	28.455
551.21	28.267
551.40	28.448
551.60	28.911
551.79	28.784
551.99	28.408
552.18	28.246
552.38	28.755
552.57	28.715
552.77	28.067
552.96	29.298
553.16	28.590
553.35	28.992
553.54	28.354
553.74	28.505
553.93	28.693
554.13	29.598
554.32	29.512
554.52	29.480
554.71	29.015
554.91	29.682
555.10	29.604
555.29	29.306
555.49	29.364
555.68	29.592
555.88	29.021
556.07	29.542
556.27	29.578
556.46	28.844
556.66	29.869
556.85	29.388
557.04	29.447
557.24	29.438
557.43	30.191
557.63	29.878
557.82	29.626
558.02	29.791
558.21	30.564
558.40	29.649
558.60	29.789
558.79	29.990
558.99	30.591
559.18	30.043
559.38	30.280
559.57	30.151
559.76	30.367
559.96	31.379
560.15	30.749
560.35	30.298
560.54	30.906
560.73	30.510
560.93	30.223
561.12	30.926
561.32	30.936
561.51	30.681
561.70	31.254
561.90	31.134
562.09	31.354
562.29	31.330
562.48	31.475
562.67	31.073
562.87	31.224
563.06	31.100
563.26	31.373
563.45	32.216
563.64	31.204
563.84	31.749
564.03	31.187
564.23	31.574
564.42	32.026
564.61	31.760
564.81	32.031
565.00	32.013
565.20	31.384
565.39	31.364
565.58	31.302
565.78	31.365
565.97	31.830
566.16	31.893
566.36	32.207
566.55	32.638
566.74	31.870
566.94	32.621
567.13	32.641
567.33	32.586
567.52	32.720
567.71	33.823
567.91	32.816
568.10	33.179
568.29	33.257
568.49	33.807
568.68	32.833
568.87	33.306
569.07	33.576
569.26	33.563
569.45	33.201
569.65	33.685
569.84	33.280
570.04	33.325
570.23	33.461
570.42	33.758
570.62	33.385
570.81	33.790
571.00	33.371
571.20	33.863
571.39	34.433
571.58	33.999
571.78	33.575
571.97	33.771
572.16	33.712
572.36	33.880
572.55	34.019
572.74	34.371
572.94	33.900
573.13	34.774
573.32	34.575
573.51	34.865
573.71	34.554
573.90	34.194
574.09	34.268
574.29	34.621
574.48	35.108
574.67	34.623
574.87	34.446
575.06	34.905
575.25	33.953
575.45	35.182
575.64	34.531
575.83	34.981
576.03	35.293
576.22	34.947
576.41	34.583
576.60	35.234
576.80	34.526
576.99	35.380
577.18	35.122
577.38	35.169
577.57	34.844
577.76	35.511
577.95	34.789
578.15	34.970
578.34	35.054
578.53	35.585
578.73	35.523
578.92	35.273
579.11	35.687
579.30	35.685
579.50	35.547
579.69	35.328
579.88	35.191
580.08	34.846
580.27	34.638
580.46	35.098
580.65	34.822
580.85	35.243
581.04	35.427
581.23	35.413
581.42	34.988
581.62	35.257
581.81	34.555
582.00	35.045
582.19	34.874
582.39	35.506
582.58	35.840
582.77	35.826
582.96	35.075
583.16	34.613
583.35	35.061
583.54	35.888
583.73	36.050
583.93	35.017
584.12	35.413
584.31	35.397
584.50	34.886
584.70	35.339
584.89	34.817
585.08	35.188
585.27	36.170
585.47	35.502
585.66	35.609
585.85	35.047
586.04	35.177
586.24	35.253
586.43	35.827
586.62	35.298
586.81	34.901
587.00	35.805
587.20	34.925
587.39	35.966
587.58	35.791
587.77	35.847
587.97	35.736
588.16	36.189
588.35	35.648
588.54	34.670
588.73	35.647
588.93	34.979
589.12	34.591
589.31	36.022
589.50	34.596
589.69	35.164
589.89	35.089
590.08	35.907
590.27	35.816
590.46	35.979
590.65	36.006
590.85	35.454
591.04	35.517
591.23	35.560
591.42	35.074
591.61	36.027
591.81	35.677
592.00	35.283
592.19	36.475
592.38	35.953
592.57	36.057
592.77	36.113
592.96	35.378
593.15	36.180
593.34	35.822
593.53	36.299
593.72	35.674
593.92	34.915
594.11	35.735
594.30	35.561
594.49	35.900
594.68	36.291
594.87	35.956
595.07	35.283
595.26	35.392
595.45	36.000
595.64	35.566
595.83	36.011
596.02	35.603
596.22	36.214
596.41	35.683
596.60	35.594
596.79	36.188
596.98	35.772
597.17	36.206
597.37	36.245
597.56	36.128
597.75	35.696
597.94	36.170
598.13	36.249
598.32	35.861
598.51	36.549
598.71	36.534
598.90	35.888
599.09	36.854
599.28	36.958
599.47	36.501
599.66	36.722
599.85	36.450
600.05	36.055
600.24	36.909
600.43	36.479
600.62	36.562
600.81	36.785
601.00	37.140
601.19	37.643
601.38	37.567
601.58	37.006
601.77	36.477
601.96	36.885
602.15	36.642
602.34	37.361
602.53	37.266
602.72	37.714
602.91	36.509
603.10	37.340
603.30	36.876
603.49	36.534
603.68	36.411
603.87	37.119
604.06	36.855
604.25	37.174
604.44	36.535
604.63	37.647
604.82	36.606
605.01	37.638
605.21	36.574
605.40	36.465
605.59	36.896
605.78	37.094
605.97	36.437
606.16	37.403
606.35	37.557
606.54	37.962
606.73	37.422
606.92	36.469
607.11	36.967
607.30	37.651
607.50	36.910
607.69	38.291
607.88	37.418
608.07	36.905
608.26	36.105
608.45	36.667
608.64	37.663
608.83	36.596
609.02	35.570
609.21	36.283
609.40	35.990
609.59	36.392
609.78	36.486
609.97	36.868
610.16	36.546
610.35	37.035
610.55	36.612
610.74	36.696
610.93	37.375
611.12	37.240
611.31	36.495
611.50	37.060
611.69	36.378
611.88	37.151
612.07	36.565
612.26	36.558
612.45	36.282
612.64	37.165
612.83	36.462
613.02	36.761
613.21	36.048
613.40	35.750
613.59	37.377
613.78	35.930
613.97	37.224
614.16	36.571
614.35	36.141
614.54	35.758
614.73	36.216
614.92	36.208
615.11	36.389
615.30	37.018
615.49	35.084
615.68	36.562
615.87	36.198
616.07	35.186
616.26	36.704
616.45	35.884
616.64	36.294
616.83	35.478
617.02	35.683
617.21	35.741
617.40	35.242
617.59	35.644
617.78	35.737
617.97	35.929
618.16	34.597
618.35	35.867
618.54	35.602
618.73	35.666
618.92	36.333
619.11	35.410
619.30	35.796
619.49	36.231
619.68	35.190
619.86	36.088
620.05	35.888
620.24	34.997
620.43	35.471
620.62	34.620
620.81	35.855
621.00	34.981
621.19	35.766
621.38	35.426
621.57	35.159
621.76	35.298
621.95	35.433
622.14	35.003
622.33	35.633
622.52	34.905
622.71	35.809
622.90	34.601
623.09	35.654
623.28	34.791
623.47	34.956
623.66	34.992
623.85	35.574
624.04	34.426
624.23	34.374
624.42	34.998
624.61	33.749
624.80	34.891
624.99	35.402
625.18	34.492
625.36	35.421
625.55	35.179
625.74	34.835
625.93	34.478
626.12	34.412
626.31	35.030
626.50	35.084
626.69	34.712
626.88	35.191
627.07	34.835
627.26	33.987
627.45	34.600
627.64	34.091
627.83	34.739
628.02	34.369
628.20	34.822
628.39	35.299
628.58	35.251
628.77	34.705
628.96	34.547
629.15	35.232
629.34	34.698
629.53	34.992
629.72	34.875
629.91	34.574
630.10	34.052
630.29	33.902
630.47	34.614
630.66	33.960
630.85	34.026
631.04	33.363
631.23	35.044
631.42	33.831
631.61	34.240
631.80	34.697
631.99	34.018
632.18	34.059
632.36	33.887
632.55	35.073
632.74	33.754
632.93	34.522
633.12	33.548
633.31	34.312
633.50	33.894
633.69	33.573
633.88	34.323
634.06	33.734
634.25	34.667
634.44	34.485
634.63	34.539
634.82	34.240
635.01	34.837
635.20	33.577
635.39	34.552
635.57	34.313
635.76	33.814
635.95	34.373
636.14	33.794
636.33	33.797
636.52	34.921
636.71	34.150
636.89	34.610
637.08	35.265
637.27	33.753
637.46	33.115
637.65	34.083
637.84	34.585
638.03	34.317
638.21	35.448
638.40	34.116
638.59	34.040
638.78	34.203
638.97	33.879
639.16	35.179
639.34	34.314
639.53	33.501
639.72	33.494
639.91	33.887
640.10	33.957
640.29	35.199
640.47	34.958
640.66	33.899
640.85	36.320
641.04	33.631
641.23	35.159
641.42	34.537
641.60	34.281
641.79	33.008
641.98	34.271
642.17	33.955
642.36	34.006
642.54	34.596
642.73	35.054
642.92	34.026
643.11	34.356
643.30	33.951
643.49	33.789
643.67	32.964
643.86	34.005
644.05	33.333
644.24	33.656
644.43	33.377
644.61	33.901
644.80	34.376
644.99	34.226
645.18	34.057
645.37	34.664
645.55	33.417
645.74	34.457
645.93	33.613
646.12	33.818
646.31	34.865
646.49	34.362
646.68	33.952
646.87	34.530
647.06	33.011
647.24	33.818
647.43	32.630
647.62	35.571
647.81	33.080
648.00	34.468
648.18	32.849
648.37	32.441
648.56	33.284
648.75	33.563
648.93	33.892
649.12	34.402
649.31	34.530
649.50	34.366
649.68	33.761
649.87	33.758
650.06	32.358
650.25	33.355
650.43	34.882
650.62	33.127
650.81	33.039
651.00	32.643
651.18	32.166
651.37	33.848
651.56	32.482
651.75	33.661
651.93	32.823
652.12	33.108
652.31	33.312
652.50	33.543
652.68	32.796
652.87	34.565
653.06	33.599
653.25	34.167
653.43	33.500
653.62	33.518
653.81	32.187
654.00	33.108
654.18	32.455
654.37	33.400
654.56	33.221
654.74	32.176
654.93	33.031
655.12	33.324
655.31	32.670
655.49	32.364
655.68	32.253
655.87	31.548
656.05	32.023
656.24	33.580
656.43	31.423
656.62	33.390
656.80	31.950
656.99	32.621
657.18	32.788
657.36	32.303
657.55	31.187
657.74	32.583
657.93	31.490
658.11	33.311
658.30	31.210
658.49	31.228
658.67	30.929
658.86	30.875
659.05	29.847
659.23	31.833
659.42	30.754
659.61	30.382
659.79	30.772
659.98	29.967
660.17	30.352
660.35	30.185
660.54	30.497
660.73	30.950
660.91	29.499
661.10	30.834
661.29	30.513
661.47	29.699
661.66	29.497
661.85	29.925
662.03	30.521
662.22	29.563
662.41	28.778
662.59	29.960
662.78	29.383
662.97	28.830
663.15	29.056
663.34	28.880
663.53	27.242
663.71	28.056
663.90	27.141
664.09	29.091
664.27	27.728
664.46	27.434
664.65	28.014
664.83	26.821
665.02	25.958
665.21	25.810
665.39	25.290
665.58	27.417
665.77	26.343
665.95	26.034
666.14	24.910
666.32	25.970
666.51	23.457
666.70	25.558
666.88	25.462
667.07	25.429
667.26	25.097
667.44	25.478
667.63	24.028
667.81	23.680
668.00	23.909
668.19	26.397
668.37	24.080
668.56	25.996
668.75	23.943
668.93	26.319
669.12	24.127
669.30	24.898
669.49	24.100
669.68	24.847
669.86	25.797
670.05	24.082
670.23	24.949
670.42	24.534
670.61	24.731
670.79	24.153
670.98	23.833
671.16	25.170
671.35	22.585
671.54	24.710
671.72	22.847
671.91	25.842
672.09	22.546
672.28	25.407
672.46	24.697
672.65	23.715
672.84	23.034
673.02	25.560
673.21	21.438
673.39	24.604
673.58	23.254
673.77	23.891
673.95	23.327
674.14	25.482
674.32	23.237
674.51	25.635
674.69	22.785
674.88	24.371
675.07	23.603
675.25	25.585
675.44	23.143
675.62	24.532
675.81	22.202
675.99	26.442
676.18	25.400
676.36	24.679
676.55	21.935
676.74	25.776
676.92	23.900
677.11	24.158
677.29	23.175
677.48	25.587
677.66	25.407
677.85	24.125
678.03	24.548
678.22	25.910
678.40	24.089
678.59	25.608
678.78	22.627
678.96	25.347
679.15	23.513
679.33	26.527
679.52	25.431
679.70	25.326
679.89	25.663
680.07	26.836
680.26	24.806
680.44	26.318
680.63	25.224
680.81	26.387
681.00	24.696
681.18	26.288
681.37	25.305
681.55	28.270
681.74	26.288
681.92	27.059
682.11	25.959
682.29	27.134
682.48	26.916
682.66	28.374
682.85	25.623
683.03	27.377
683.22	27.544
683.40	27.834
683.59	27.354
683.77	27.941
683.96	26.028
684.14	28.995
684.33	26.110
684.51	29.309
684.70	28.183
684.88	28.679
685.07	28.718
685.25	29.838
685.44	28.365
685.62	30.111
685.81	27.206
685.99	30.775
686.18	27.951
686.36	30.573
686.55	28.415
686.73	28.467
686.92	30.098
687.10	31.620
687.29	31.018
687.47	31.759
687.65	31.290
687.84	30.250
688.02	33.170
688.21	33.313
688.39	31.304
688.58	33.538
688.76	32.196
688.95	33.581
689.13	31.390
689.32	34.672
689.50	32.937
689.68	35.977
689.87	33.892
690.05	35.239
690.24	34.075
690.42	34.750
690.61	35.851
690.79	38.885
690.98	36.319
691.16	36.419
691.34	35.356
691.53	36.943
691.71	35.011
691.90	37.057
692.08	36.828
692.27	38.695
692.45	39.014
692.63	37.672
692.82	39.593
693.00	40.045
693.19	38.245
693.37	40.957
693.56	38.977
693.74	40.326
693.92	39.281
694.11	43.142
694.29	42.203
694.48	40.425
694.66	41.025
694.84	41.713
695.03	41.650
695.21	44.376
695.40	44.062
695.58	45.041
695.76	43.609
695.95	45.134
696.13	42.803
696.32	44.873
696.50	46.592
696.68	46.473
696.87	44.854
697.05	46.509
697.24	47.348
697.42	47.056
697.60	44.654
697.79	46.975
697.97	46.958
698.16	49.052
698.34	46.073
698.52	48.257
698.71	47.423
698.89	48.712
699.07	46.357
699.26	48.820
699.44	48.343
699.63	49.079
699.81	48.247
699.99	48.112
700.18	49.481
700.36	49.247
700.54	49.097
700.73	48.373
700.91	48.724
701.09	50.802
701.28	50.759
701.46	49.615
701.64	50.086
701.83	51.723
702.01	50.383
702.20	51.524
702.38	51.133
702.56	51.559
702.75	51.234
702.93	52.523
703.11	50.956
703.30	52.080
703.48	50.735
703.66	52.511
703.85	50.478
704.03	52.632
704.21	52.106
704.40	55.427
704.58	52.580
704.76	53.547
704.95	51.391
705.13	51.961
705.31	52.383
705.50	53.402
705.68	51.688
705.86	54.082
706.04	55.287
706.23	56.735
706.41	51.368
706.59	53.200
706.78	53.146
706.96	54.975
707.14	51.789
707.33	55.636
707.51	52.826
707.69	55.168
707.88	53.435
708.06	54.685
708.24	55.686
708.42	55.898
708.61	54.407
708.79	54.604
708.97	54.351
709.16	53.568
709.34	58.061
709.52	55.047
709.71	54.441
709.89	55.478
710.07	52.474
710.25	56.043
710.44	52.729
710.62	55.171
710.80	56.482
710.98	54.271
711.17	52.450
711.35	55.656
711.53	56.007
711.72	55.378
711.90	56.065
712.08	54.860
712.26	56.424
712.45	56.002
712.63	55.448
712.81	57.074
712.99	55.436
713.18	56.403
713.36	55.349
713.54	57.248
713.72	54.221
713.91	55.610
714.09	53.231
714.27	56.375
714.45	54.905
714.64	56.739
714.82	55.350
715.00	56.092
715.18	56.172
715.37	55.577
715.55	55.323
715.73	57.318
715.91	56.146
716.10	55.999
716.28	54.046
716.46	56.019
716.64	55.100
716.83	55.688
717.01	55.956
717.19	56.348
717.37	55.556
717.55	56.569
717.74	55.478
717.92	55.703
718.10	54.026
718.28	55.326
718.47	56.442
718.65	56.904
718.83	56.762
719.01	56.166
719.19	54.936
719.38	56.794
719.56	57.440
719.74	55.660
719.92	54.054
720.10	55.805
720.29	54.584
720.47	56.349
720.65	57.365
720.83	56.675
721.01	53.782
721.20	57.733
721.38	54.940
721.56	56.706
721.74	56.517
721.92	55.355
722.11	56.697
722.29	56.045
722.47	53.581
722.65	58.966
722.83	56.876
723.01	55.950
723.20	55.748
723.38	55.155
723.56	54.302
723.74	60.094
723.92	56.007
724.10	57.259
724.29	54.821
724.47	59.118
724.65	56.352
724.83	57.911
725.01	53.190
725.19	59.671
725.38	54.714
725.56	56.582
725.74	55.345
725.92	57.317
726.10	56.996
726.28	57.322
726.46	56.347
726.65	59.090
726.83	54.389
727.01	58.489
727.19	55.452
727.37	57.485
727.55	56.387
727.73	56.382
727.92	57.245
728.10	56.693
728.28	54.418
728.46	58.133
728.64	54.569
728.82	58.810
729.00	56.556
729.19	59.484
729.37	56.256
729.55	57.781
729.73	55.066
729.91	58.186
730.09	58.002
730.27	58.673
730.45	56.058
730.63	58.119
730.82	55.560
731.00	56.896
731.18	57.289
731.36	60.991
731.54	54.384
731.72	57.671
731.90	58.057
732.08	59.281
732.26	56.810
732.45	59.232
732.63	56.951
732.81	58.100
732.99	57.149
733.17	56.583
733.35	58.683
733.53	60.340
733.71	58.501
733.89	56.827
734.07	57.725
734.25	56.886
734.44	56.464
734.62	58.855
734.80	57.337
734.98	58.042
735.16	56.485
735.34	58.152
735.52	57.530
735.70	58.725
735.88	59.417
736.06	58.005
736.24	60.085
736.42	59.407
736.60	59.560
736.78	58.627
736.97	57.515
737.15	59.903
737.33	54.943
737.51	59.194
737.69	58.467
737.87	59.620
738.05	58.927
738.23	59.586
738.41	57.936
738.59	62.884
738.77	58.481
738.95	58.779
739.13	59.032
739.31	60.380
739.49	59.718
739.67	62.386
739.85	59.013
740.03	58.452
740.21	60.871
740.39	59.548
740.57	58.135
740.75	58.327
740.93	58.218
741.11	59.217
741.30	60.518
741.48	59.357
741.66	63.088
741.84	60.052
742.02	58.693
742.20	58.903
742.38	61.056
742.56	62.002
742.74	57.657
742.92	60.343
743.10	57.826
743.28	60.372
743.46	61.326
743.64	60.129
743.82	59.702
744.00	60.532
744.18	59.030
744.36	60.815
744.54	59.294
744.72	64.338
744.90	61.761
745.08	61.256
745.26	60.280
745.44	63.300
745.62	55.474
745.80	62.072
745.98	59.981
746.16	62.287
746.34	59.902
746.52	59.019
746.70	58.455
746.87	59.091
747.05	59.800
747.23	61.733
747.41	61.661
747.59	63.799
747.77	59.191
747.95	62.792
748.13	57.571
748.31	61.166
748.49	58.736
748.67	58.645
748.85	60.143
749.03	59.636
749.21	59.087
749.39	62.189
749.57	57.512
749.75	59.441
749.93	61.125
750.11	61.084
750.29	55.752
750.47	59.356
750.65	60.521
750.83	59.109
751.01	58.281
751.18	61.176
751.36	57.901
751.54	60.481
751.72	63.385
751.90	58.389
752.08	56.184
752.26	59.354
752.44	57.772
752.62	63.043
752.80	60.670
752.98	60.518
753.16	57.338
753.34	59.479
753.52	59.327
753.69	62.458
753.87	61.646
754.05	63.628
754.23	60.486
754.41	61.269
754.59	57.983
754.77	59.505
754.95	61.002
755.13	60.871
755.31	60.467
755.49	60.697
755.66	60.000
755.84	62.749
756.02	60.443
756.20	63.440
756.38	57.891
756.56	63.720
756.74	57.761
756.92	60.718
757.10	56.009
757.28	61.867
757.45	66.373
757.63	62.115
757.81	57.180
757.99	66.221
758.17	56.717
758.35	60.450
758.53	60.333
758.71	62.265
758.88	63.460
759.06	63.825
759.24	56.641
759.42	58.689
759.60	56.493
759.78	59.450
759.96	54.039
760.13	62.917
760.31	51.983
760.49	55.167
760.67	52.269
760.85	56.148
761.03	55.015
761.21	53.600
761.38	54.921
761.56	56.270
761.74	54.871
761.92	58.246
762.10	51.919
762.28	57.301
762.46	51.578
762.63	53.009
762.81	55.498
762.99	56.905
763.17	56.140
763.35	57.182
763.53	55.047
763.70	58.321
763.88	56.600
764.06	58.932
764.24	56.742
764.42	58.449
764.60	55.928
764.77	59.311
764.95	57.232
765.13	59.861
765.31	58.154
765.49	58.000
765.66	56.589
765.84	60.793
766.02	54.332
766.20	58.857
766.38	57.501
766.56	58.625
766.73	56.693
766.91	58.956
767.09	61.381
767.27	60.782
767.45	58.762
767.62	60.391
767.80	56.258
767.98	56.915
768.16	56.568
768.33	61.414
768.51	58.898
768.69	61.173
768.87	56.007
769.05	56.814
769.22	58.989
769.40	65.142
769.58	56.767
769.76	60.903
769.94	60.472
770.11	60.821
770.29	55.918
770.47	61.798
770.65	59.777
770.82	59.010
771.00	60.753
771.18	62.447
771.36	57.926
771.53	60.885
771.71	60.213
771.89	60.561
772.07	60.112
772.25	62.148
772.42	58.526
772.60	61.620
772.78	54.782
772.96	62.269
773.13	63.593
773.31	65.249
773.49	60.513
773.67	63.426
773.84	56.306
774.02	61.281
774.20	54.411
774.37	62.455
774.55	62.085
774.73	61.562
774.91	59.047
775.08	64.292
775.26	62.967
775.44	61.993
775.62	59.765
775.79	61.386
775.97	59.249
776.15	60.477
776.32	54.237
776.50	68.349
776.68	65.047
776.86	62.409
777.03	57.454
777.21	61.275
777.39	57.094
777.56	61.275
777.74	58.740
777.92	57.627
778.10	55.431
778.27	62.852
778.45	58.397
778.63	61.856
778.80	60.882
778.98	67.607
779.16	63.075
779.34	62.163
779.51	59.513
779.69	59.713
779.87	58.206
780.04	60.087
780.22	55.884
780.40	60.399
780.57	61.385
780.75	58.285
780.93	59.347
781.10	59.138
781.28	66.566
781.46	58.470
781.63	59.024
781.81	65.960
781.99	56.783
782.16	60.275
782.34	56.537
782.52	60.877
782.69	61.163
782.87	63.690
783.05	55.213
783.22	62.939
783.40	57.889
783.58	62.480
783.75	55.928
783.93	62.048
784.11	53.825
784.28	64.297
784.46	58.806
784.64	61.662
784.81	56.278
784.99	64.669
785.17	60.000
785.34	55.971
785.52	53.516
785.69	58.555
785.87	56.288
786.05	63.019
786.22	55.349
786.40	62.830
786.58	53.400
786.75	62.998
786.93	60.508
787.11	59.958
787.28	58.388
787.46	66.357
787.63	59.479
787.81	63.512
787.99	59.755
788.16	56.663
788.34	55.892
788.51	64.560
788.69	54.341
788.87	55.118
789.04	55.484
789.22	56.340
789.39	58.068
789.57	58.174
789.75	53.942
789.92	64.121
790.10	52.042
790.27	61.709
790.45	53.247
790.63	54.550
790.80	51.154
790.98	59.364
791.15	57.650
791.33	52.606
791.51	54.654
791.68	58.311
791.86	57.923
792.03	57.770
792.21	51.175
792.39	56.033
792.56	53.439
792.74	60.364
792.91	58.124
793.09	55.153
793.26	51.665
793.44	58.576
793.62	54.574
793.79	55.936
793.97	55.689
794.14	53.321
794.32	52.204
794.49	57.126
794.67	51.770
794.84	58.229
795.02	53.209
795.20	59.208
795.37	51.367
795.55	61.720
795.72	51.136
795.90	59.649
796.07	55.706
796.25	56.682
796.42	56.456
796.60	49.944
796.77	55.318
796.95	56.149
797.13	51.214
797.30	59.629
797.48	54.799
797.65	53.926
797.83	47.120
798.00	55.688
798.18	50.299
798.35	56.196
798.53	58.068
798.70	55.406
798.88	56.610
799.05	61.023
799.23	53.851
799.40	58.118
799.58	57.469
799.75	57.529
799.93	52.158
800.10	57.143
800.28	53.129
800.45	61.423
800.63	52.531
800.80	57.414
800.98	54.925
801.15	58.025
801.33	55.090
801.50	55.920
801.68	52.346
801.85	54.291
802.03	49.379
802.20	56.380
802.38	58.831
802.55	56.482
802.73	57.445
802.90	52.849
803.08	47.433
803.25	66.952
803.43	60.843
803.60	56.913
803.78	54.232
803.95	57.643
804.13	50.167
804.30	60.779
804.48	52.100
804.65	54.863
804.83	56.796
805.00	62.564
805.17	57.782
805.35	61.905
805.52	55.210
805.70	57.260
805.87	60.721
806.05	58.786
806.22	51.251
806.40	51.384
806.57	58.538
806.75	60.346
806.92	59.405
807.09	58.345
807.27	51.447
807.44	55.225
807.62	55.226
807.79	58.433
807.97	49.231
808.14	57.303
808.31	54.745
808.49	53.022
808.66	49.761
808.84	51.291
809.01	58.744
809.19	57.949
809.36	55.075
809.53	55.020
809.71	50.471
809.88	64.291
810.06	58.892
810.23	55.470
810.41	64.482
810.58	59.042
810.75	51.950
810.93	56.749
811.10	50.885
811.28	57.185
811.45	57.908
811.62	53.076
811.80	55.336
811.97	57.815
812.15	70.646
812.32	51.659
812.49	57.305
812.67	56.236
812.84	46.882
813.02	57.867
813.19	41.269
813.36	54.665
813.54	51.705
813.71	57.276
813.89	54.685
814.06	53.986
814.23	51.756
814.41	50.766
814.58	56.785
814.75	51.629
814.93	59.386
815.10	58.094
815.28	44.417
815.45	49.554
815.62	62.888
815.80	48.834
815.97	55.366
816.14	52.423
816.32	49.339
816.49	52.256
816.66	52.736
816.84	54.733
817.01	50.171
817.18	55.838
817.36	56.803
817.53	56.034
817.71	40.620
817.88	52.832
818.05	51.864
818.23	55.702
818.40	45.781
818.57	52.627
818.75	48.422
818.92	45.306
819.09	48.097
819.27	49.848
819.44	56.183
819.61	51.739
819.79	51.807
819.96	60.140
820.13	46.797
820.31	50.543
820.48	55.556
820.65	48.951
820.82	48.971
821.00	56.567
821.17	48.522
821.34	49.613
821.52	53.318
821.69	52.069
821.86	52.401
822.04	55.299
822.21	55.681
822.38	58.825
822.56	55.318
822.73	59.472
822.90	56.416
823.07	56.707
823.25	57.320
823.42	57.686
823.59	55.362
823.77	55.674
823.94	55.920
824.11	54.785
824.29	54.302
824.46	55.379
824.63	55.584
824.80	55.880
824.98	53.674
825.15	55.845
825.32	51.445
825.49	55.059
825.67	52.841
825.84	55.893
826.01	51.529
826.19	56.309
826.36	52.350
826.53	54.136
826.70	51.524
826.88	54.623
827.05	50.930
827.22	51.543
827.39	56.474
827.57	52.077
827.74	49.254
827.91	54.924
828.08	51.932
828.26	53.957
828.43	50.901
828.60	56.283
828.77	51.979
828.95	53.798
829.12	49.272
829.29	47.517
829.46	50.362
829.64	53.063
829.81	45.073
829.98	53.542
830.15	51.065
830.32	51.790
830.50	47.385
830.67	48.210
830.84	41.559
831.01	40.063
831.19	47.796
831.36	46.201
831.53	44.991
831.70	50.797
831.87	45.481
832.05	47.136
832.22	55.810
832.39	47.145
832.56	49.422
832.74	52.481
832.91	45.123
833.08	53.867
833.25	39.665
833.42	49.159
833.60	42.449
833.77	42.105
833.94	42.221
834.11	49.212
834.28	44.174
834.45	50.081
834.63	46.198
834.80	52.554
834.97	49.701
835.14	53.879
835.31	51.356
835.49	47.844
835.66	52.248
835.83	48.089
836.00	44.474
836.17	50.326
836.34	41.349
836.52	48.824
836.69	50.901
836.86	48.334
837.03	52.090
837.20	48.190
837.37	47.270
837.55	39.676
837.72	43.252
837.89	47.858
838.06	45.997
838.23	49.582
838.40	46.372
838.58	46.139
838.75	48.290
838.92	48.340
839.09	62.290
839.26	49.412
839.43	61.637
839.60	61.105
839.78	63.289
839.95	63.761
840.12	60.940
840.29	61.074
840.46	55.856
840.63	56.570
840.80	55.204
840.98	64.540
841.15	48.950
841.32	48.356
841.49	45.694
841.66	61.682
841.83	51.607
842.00	51.497
842.17	59.152
842.34	45.996
842.52	49.130
842.69	59.801
842.86	58.061
843.03	74.289
843.20	55.220
843.37	67.217
843.54	49.867
843.71	65.567
843.88	51.182
844.06	64.583
844.23	61.096
844.40	61.446
844.57	67.081
844.74	75.593
844.91	64.264
845.08	54.795
845.25	71.092
845.42	63.884
845.59	77.413
845.76	61.510
845.94	71.986
846.11	70.470
846.28	72.320
846.45	84.321
846.62	70.806
846.79	77.110
846.96	66.281
847.13	85.769
847.30	66.548
847.47	68.432
847.64	65.422
847.81	61.489
847.98	86.722
848.15	66.105
848.32	74.905
848.50	85.771
848.67	59.963
848.84	72.267
849.01	77.642
849.18	71.166
849.35	82.806
849.52	87.129
849.69	86.079
849.86	93.439
850.03	73.536
850.20	75.422
850.37	75.806
850.54	78.835
850.71	84.035
850.88	72.614
851.05	78.750
851.22	87.379
851.39	65.844
851.56	74.620
851.73	72.000
851.90	80.046
852.07	81.535
852.24	57.926
852.41	62.313
852.58	81.905
852.75	61.628
852.92	67.807
853.09	102.528
853.26	82.105
853.43	90.889
853.60	80.873
853.77	86.014
853.94	94.867
854.11	83.991
854.28	100.488
854.45	69.111
854.62	75.584
854.79	70.796
854.96	96.684
855.13	92.111
855.30	90.000
855.47	90.816
855.64	64.811
855.81	87.321
855.98	95.935
856.15	78.252
856.32	65.344
856.49	88.416
856.66	80.516
856.83	87.069
857.00	76.360
857.17	94.179
857.34	66.886
857.51	75.824
857.68	76.134
857.85	105.763
858.02	87.286
858.19	78.024
858.36	101.728
858.53	93.362
858.70	85.746
858.87	89.444
859.04	79.412
859.21	83.836
859.38	87.292
859.55	109.002
859.72	97.977
859.89	108.455
860.05	77.206
860.22	101.053
860.39	92.063
860.56	75.758
860.73	87.112
860.90	81.735
861.07	99.087
861.24	73.913
861.41	76.984
861.58	90.588
861.75	96.897
861.92	71.991
862.09	95.949
862.26	86.761
862.43	95.592
862.59	84.028
862.76	87.686
862.93	109.189
863.10	77.804
863.27	107.080
863.44	74.020
863.61	81.591
863.78	89.851
863.95	97.150
864.12	93.769
864.29	105.167
864.45	86.398
864.62	100.262
864.79	100.990
864.96	76.923
865.13	92.018
865.30	95.000
865.47	89.136
865.64	96.698
865.81	102.479
865.97	73.141
866.14	79.510
866.31	50.235
866.48	94.589
866.65	87.500
866.82	95.923
866.99	109.235
867.16	96.335
867.33	99.059
867.49	93.888
867.66	75.663
867.83	74.449
868.00	67.221
868.17	93.678
868.34	84.598
868.51	62.802
868.67	79.147
868.84	74.713
869.01	98.618
869.18	82.927
869.35	83.444
869.52	75.500
869.69	99.085
869.85	75.802
870.02	80.097
870.19	94.737
870.36	84.392
870.53	81.352
870.70	84.681
870.86	92.487
871.03	75.174
871.20	87.376
871.37	97.613
871.54	56.793
871.71	75.000
871.87	95.652
872.04	96.370
872.21	68.433
872.38	84.108
872.55	100.253
872.72	72.973
872.88	102.817
873.05	81.096
873.22	84.381
873.39	81.560
873.56	79.954
873.72	79.327
873.89	89.535
874.06	75.773
874.23	85.340
874.40	72.640
874.56	93.763
874.73	91.748
874.90	77.005
875.07	76.419
875.24	84.726
875.40	90.787
875.57	77.045
875.74	92.195
875.91	89.702
876.08	80.837
876.24	93.595
876.41	98.731
876.58	86.396
876.75	104.132
876.92	79.464
877.08	71.289
877.25	64.175
877.42	75.203
877.59	90.520
877.75	90.428
877.92	72.053
878.09	99.768
878.26	81.124
878.42	106.117
878.59	86.062
878.76	81.818
878.93	90.045
879.09	81.223
879.26	81.884
879.43	59.101
879.60	74.669
879.76	73.488
879.93	68.317
880.10	61.628
880.27	62.340
880.43	69.775
880.60	63.793
880.77	56.923
880.94	54.432
881.10	45.907
881.27	53.698
881.44	30.282
881.61	44.350
881.77	47.034
881.94	35.763
882.11	37.010
882.28	38.812
882.44	43.292
882.61	46.318
882.78	47.936
882.94	50.227
883.11	47.781
883.28	46.366
883.45	48.647
883.61	48.270
883.78	44.830
883.95	53.379
884.11	46.032
884.28	44.167
>>>>>End Processed Spectral Data<<<<<
