SpectraSuite Data File
++++++++++++++++++++++++++++++++++++
Date: Mon Sep 23 03:59:30 EST 2019
User: sgrac
Dark Spectrum Present: Yes
Reference Spectrum Present: Yes
Number of Sampled Component Spectra: 1
Spectrometers: USB4E01596
Integration Time (usec): 100000 (USB4E01596)
Spectra Averaged: 3 (USB4E01596)
Boxcar Smoothing: 0 (USB4E01596)
Correct for Electrical Dark: No (USB4E01596)
Strobe/Lamp Enabled: Yes (USB4E01596)
Correct for Detector Non-linearity: No (USB4E01596)
Correct for Stray Light: No (USB4E01596)
Number of Pixels in Processed Spectrum: 3648
>>>>>Begin Processed Spectral Data<<<<<
178.44	1523.077
178.66	1523.077
178.87	1523.077
179.09	7666.667
179.30	-6625.000
179.52	-712.903
179.74	-533.962
179.95	734.091
180.17	-711.111
180.38	561.404
180.60	-2063.636
180.82	766.667
181.03	4683.333
181.25	-2400.000
181.46	-1336.000
181.68	1075.000
181.89	-784.091
182.11	-1968.750
182.33	-2000.000
182.54	577.083
182.76	4433.333
182.97	-593.617
183.19	1415.000
183.40	267.769
183.62	334.615
183.84	296.364
184.05	4357.143
184.27	445.455
184.48	492.424
184.70	1941.176
184.91	1500.000
185.13	3110.000
185.34	-16400.000
185.56	1088.462
185.78	420.833
185.99	930.556
186.21	381.818
186.42	-6550.000
186.64	2160.000
186.85	-5820.000
187.07	572.000
187.28	434.211
187.50	552.727
187.72	320.513
187.93	725.455
188.15	390.625
188.36	510.526
188.58	663.265
188.79	351.923
189.01	446.479
189.22	791.892
189.44	-848.485
189.65	298.305
189.87	-6550.000
190.09	487.302
190.30	857.143
190.52	471.667
190.73	867.391
190.95	-4633.333
191.16	461.905
191.38	433.784
191.59	466.176
191.81	527.419
192.02	1886.667
192.24	925.000
192.45	1017.647
192.67	-1712.500
192.88	462.264
193.10	513.115
193.31	810.000
193.53	271.774
193.74	481.333
193.96	2271.429
194.18	915.385
194.39	1993.333
194.61	498.630
194.82	1481.818
195.04	376.829
195.25	-428.070
195.47	-392.593
195.68	4116.667
195.90	567.273
196.11	414.925
196.33	29500.000
196.54	500.000
196.76	1971.429
196.97	436.364
197.19	829.730
197.40	2400.000
197.62	280.734
197.83	864.516
198.05	618.182
198.26	931.034
198.48	394.366
198.69	498.333
198.91	1211.111
199.12	723.256
199.34	730.435
199.55	444.286
199.77	1668.421
199.98	932.353
200.20	384.211
200.41	464.516
200.63	323.894
200.84	1914.286
201.06	2688.889
201.27	809.756
201.49	480.282
201.70	-866.667
201.91	519.444
202.13	505.085
202.34	560.345
202.56	-992.000
202.77	735.556
202.99	6216.667
203.20	-3212.500
203.42	1893.750
203.63	411.842
203.85	5133.333
204.06	650.000
204.28	313.131
204.49	624.074
204.71	438.983
204.92	1203.846
205.14	0.000
205.35	926.667
205.56	-1350.000
205.78	5600.000
205.99	-1921.429
206.21	10850.000
206.42	797.727
206.64	1022.581
206.85	766.667
207.07	-2866.667
207.28	379.310
207.50	713.043
207.71	838.710
207.93	367.470
208.14	-1014.815
208.35	480.000
208.57	1100.000
208.78	-3244.444
209.00	335.106
209.21	-11600.000
209.43	-8800.000
209.64	-1606.667
209.86	304.124
210.07	375.581
210.28	443.662
210.50	1065.517
210.71	529.412
210.93	188.971
211.14	393.258
211.36	1875.000
211.57	360.606
211.78	437.143
212.00	418.824
212.21	437.143
212.43	774.359
212.64	389.362
212.86	421.622
213.07	356.881
213.29	-905.556
213.50	304.348
213.71	393.103
213.93	462.195
214.14	1863.636
214.36	408.824
214.57	330.380
214.78	822.222
215.00	283.333
215.21	893.333
215.43	824.324
215.64	434.921
215.86	328.750
216.07	905.714
216.28	781.579
216.50	312.500
216.71	26300.000
216.93	519.697
217.14	1227.778
217.35	253.788
217.57	304.505
217.78	418.519
218.00	257.576
218.21	1408.696
218.42	714.894
218.64	432.143
218.85	464.000
219.07	1135.000
219.28	370.093
219.49	543.137
219.71	487.692
219.92	243.284
220.14	291.753
220.35	420.000
220.56	304.598
220.78	311.538
220.99	260.484
221.21	301.075
221.42	314.815
221.63	179.191
221.85	416.923
222.06	365.714
222.28	420.000
222.49	276.577
222.70	233.071
222.92	704.082
223.13	465.574
223.34	224.113
223.56	338.095
223.77	298.750
223.99	388.421
224.20	389.286
224.41	319.178
224.63	396.591
224.84	276.351
225.05	138.462
225.27	300.870
225.48	317.647
225.69	230.827
225.91	312.162
226.12	248.837
226.34	232.215
226.55	166.906
226.76	223.125
226.98	130.588
227.19	118.750
227.40	240.625
227.62	130.688
227.83	151.931
228.04	115.084
228.26	83.548
228.47	98.300
228.69	73.350
228.90	56.503
229.11	57.411
229.33	38.558
229.54	39.254
229.75	41.418
229.97	42.127
230.18	42.697
230.39	34.071
230.61	40.975
230.82	42.874
231.03	35.115
231.25	43.726
231.46	43.326
231.67	48.624
231.89	60.864
232.10	46.934
232.31	45.879
232.53	50.934
232.74	64.486
232.95	55.898
233.17	55.600
233.38	53.151
233.59	57.328
233.81	71.739
234.02	66.333
234.23	48.582
234.45	70.833
234.66	47.566
234.87	53.689
235.09	55.788
235.30	54.291
235.51	62.456
235.73	56.215
235.94	41.074
236.15	51.684
236.36	44.299
236.58	47.894
236.79	50.147
237.00	47.361
237.22	50.170
237.43	50.517
237.64	53.858
237.86	46.053
238.07	64.948
238.28	49.677
238.50	50.338
238.71	41.007
238.92	48.750
239.13	47.966
239.35	57.232
239.56	49.470
239.77	57.457
239.99	38.082
240.20	47.645
240.41	52.224
240.63	39.353
240.84	41.915
241.05	35.671
241.26	34.710
241.48	27.642
241.69	19.214
241.90	24.901
242.12	27.105
242.33	24.020
242.54	24.191
242.75	19.684
242.97	18.970
243.18	15.753
243.39	16.299
243.61	17.888
243.82	17.087
244.03	17.497
244.24	17.871
244.46	18.052
244.67	22.310
244.88	20.351
245.09	19.579
245.31	22.074
245.52	23.568
245.73	23.337
245.95	34.568
246.16	22.034
246.37	17.633
246.58	24.528
246.80	20.740
247.01	20.135
247.22	16.325
247.43	14.990
247.65	14.675
247.86	16.690
248.07	9.535
248.28	11.720
248.50	13.345
248.71	12.555
248.92	12.301
249.13	11.828
249.35	14.499
249.56	14.822
249.77	13.387
249.98	14.147
250.20	18.055
250.41	16.135
250.62	16.811
250.83	22.342
251.05	19.187
251.26	18.937
251.47	15.126
251.68	20.779
251.90	19.312
252.11	19.708
252.32	19.771
252.53	19.453
252.75	14.938
252.96	22.647
253.17	15.246
253.38	17.202
253.59	20.462
253.81	17.509
254.02	17.746
254.23	18.908
254.44	13.157
254.66	17.158
254.87	20.608
255.08	22.462
255.29	22.739
255.50	18.359
255.72	22.286
255.93	27.354
256.14	28.274
256.35	24.961
256.57	28.123
256.78	27.544
256.99	25.450
257.20	31.610
257.41	22.925
257.63	24.464
257.84	23.222
258.05	21.972
258.26	19.952
258.47	23.107
258.69	19.385
258.90	12.544
259.11	16.203
259.32	12.591
259.53	12.858
259.75	14.877
259.96	10.106
260.17	11.712
260.38	9.326
260.59	11.229
260.81	8.910
261.02	10.558
261.23	10.295
261.44	10.450
261.65	10.283
261.87	10.318
262.08	10.139
262.29	11.231
262.50	11.180
262.71	10.391
262.92	13.852
263.14	11.530
263.35	10.366
263.56	13.907
263.77	14.576
263.98	14.286
264.20	14.952
264.41	14.815
264.62	12.828
264.83	11.613
265.04	19.026
265.25	16.051
265.47	14.300
265.68	19.610
265.89	18.107
266.10	11.941
266.31	18.406
266.52	12.455
266.74	13.733
266.95	11.364
267.16	15.418
267.37	13.886
267.58	14.544
267.79	14.422
268.01	11.141
268.22	12.998
268.43	13.878
268.64	13.186
268.85	12.846
269.06	13.652
269.27	14.940
269.49	10.556
269.70	12.434
269.91	15.430
270.12	12.816
270.33	14.619
270.54	10.663
270.75	11.874
270.97	14.946
271.18	11.100
271.39	11.002
271.60	12.907
271.81	11.772
272.02	11.576
272.23	11.477
272.45	11.005
272.66	10.042
272.87	9.471
273.08	8.979
273.29	11.855
273.50	11.321
273.71	9.531
273.92	8.940
274.14	10.759
274.35	11.177
274.56	11.033
274.77	9.395
274.98	10.088
275.19	11.004
275.40	11.338
275.61	11.233
275.83	15.202
276.04	12.607
276.25	14.929
276.46	12.862
276.67	13.399
276.88	12.767
277.09	12.130
277.30	13.484
277.51	12.568
277.73	9.471
277.94	11.514
278.15	14.855
278.36	13.260
278.57	10.422
278.78	14.326
278.99	9.618
279.20	11.496
279.41	16.306
279.62	11.468
279.84	10.862
280.05	14.031
280.26	11.531
280.47	13.521
280.68	12.298
280.89	11.626
281.10	12.143
281.31	11.372
281.52	13.606
281.73	8.449
281.94	7.703
282.16	12.196
282.37	8.107
282.58	10.062
282.79	14.194
283.00	10.944
283.21	9.234
283.42	9.605
283.63	12.413
283.84	9.657
284.05	11.507
284.26	11.106
284.47	9.920
284.68	8.977
284.89	10.646
285.11	10.483
285.32	7.945
285.53	10.263
285.74	12.411
285.95	8.639
286.16	10.573
286.37	8.471
286.58	10.160
286.79	7.657
287.00	8.373
287.21	8.938
287.42	9.161
287.63	9.917
287.84	10.041
288.05	10.920
288.26	7.769
288.48	10.430
288.69	8.354
288.90	10.731
289.11	12.142
289.32	11.261
289.53	11.534
289.74	7.627
289.95	10.171
290.16	10.395
290.37	9.390
290.58	8.326
290.79	8.120
291.00	8.117
291.21	6.868
291.42	7.218
291.63	9.062
291.84	11.173
292.05	7.345
292.26	8.450
292.47	10.349
292.68	6.835
292.89	9.416
293.10	11.486
293.31	9.658
293.52	7.455
293.73	9.510
293.94	8.158
294.15	7.927
294.36	9.754
294.57	10.021
294.79	10.310
295.00	7.757
295.21	10.274
295.42	8.088
295.63	10.865
295.84	7.302
296.05	7.132
296.26	7.781
296.47	7.657
296.68	8.292
296.89	11.137
297.10	9.904
297.31	8.686
297.52	5.838
297.73	9.389
297.94	7.704
298.15	7.502
298.36	7.036
298.57	7.647
298.78	9.371
298.99	8.001
299.20	7.095
299.41	8.150
299.62	8.838
299.83	7.492
300.04	9.092
300.25	7.853
300.46	10.824
300.67	9.651
300.88	9.650
301.09	7.314
301.30	10.365
301.50	8.619
301.71	10.925
301.92	10.659
302.13	10.616
302.34	7.493
302.55	6.679
302.76	7.771
302.97	9.177
303.18	9.229
303.39	8.095
303.60	9.372
303.81	11.099
304.02	7.610
304.23	9.146
304.44	7.265
304.65	7.687
304.86	9.102
305.07	7.735
305.28	8.459
305.49	10.127
305.70	10.441
305.91	8.269
306.12	9.112
306.33	8.749
306.54	8.237
306.75	10.307
306.96	12.765
307.17	9.820
307.38	8.978
307.58	8.517
307.79	10.455
308.00	9.276
308.21	7.851
308.42	9.325
308.63	8.537
308.84	8.368
309.05	9.402
309.26	6.901
309.47	8.725
309.68	7.580
309.89	9.091
310.10	8.476
310.31	8.903
310.52	7.654
310.73	10.659
310.94	6.351
311.14	8.117
311.35	7.266
311.56	8.314
311.77	6.218
311.98	7.085
312.19	8.104
312.40	6.255
312.61	7.292
312.82	8.935
313.03	7.129
313.24	8.186
313.45	8.078
313.66	7.557
313.86	10.384
314.07	7.768
314.28	9.714
314.49	6.421
314.70	10.751
314.91	10.612
315.12	7.960
315.33	11.100
315.54	8.476
315.75	7.022
315.96	6.787
316.16	7.639
316.37	8.648
316.58	9.305
316.79	8.180
317.00	9.461
317.21	8.120
317.42	8.594
317.63	9.420
317.84	10.202
318.05	9.570
318.25	10.424
318.46	8.104
318.67	7.848
318.88	8.879
319.09	10.404
319.30	8.740
319.51	8.787
319.72	10.668
319.93	7.940
320.13	9.394
320.34	10.868
320.55	10.325
320.76	9.187
320.97	9.165
321.18	11.757
321.39	8.068
321.60	9.160
321.80	11.270
322.01	9.587
322.22	8.779
322.43	7.016
322.64	7.957
322.85	11.005
323.06	11.512
323.27	8.604
323.47	9.676
323.68	11.722
323.89	8.267
324.10	9.010
324.31	9.260
324.52	10.362
324.73	10.349
324.93	8.593
325.14	9.045
325.35	8.738
325.56	7.041
325.77	9.492
325.98	9.254
326.19	9.622
326.39	4.936
326.60	7.454
326.81	6.991
327.02	6.918
327.23	7.375
327.44	11.769
327.64	6.748
327.85	6.191
328.06	9.729
328.27	12.454
328.48	10.004
328.69	6.377
328.90	8.363
329.10	8.722
329.31	7.700
329.52	8.605
329.73	11.574
329.94	9.440
330.15	10.121
330.35	12.250
330.56	8.909
330.77	9.690
330.98	7.229
331.19	8.527
331.39	9.911
331.60	10.613
331.81	7.855
332.02	9.891
332.23	7.362
332.44	8.855
332.64	9.841
332.85	7.619
333.06	8.799
333.27	6.635
333.48	8.470
333.68	7.744
333.89	9.633
334.10	8.309
334.31	9.072
334.52	8.515
334.72	7.381
334.93	8.021
335.14	7.187
335.35	6.226
335.56	8.350
335.76	7.064
335.97	8.953
336.18	8.725
336.39	11.533
336.60	7.363
336.80	7.621
337.01	6.961
337.22	7.635
337.43	8.462
337.64	10.244
337.84	9.247
338.05	7.325
338.26	10.839
338.47	10.693
338.68	5.838
338.88	8.157
339.09	7.348
339.30	9.428
339.51	8.516
339.71	9.387
339.92	6.533
340.13	9.043
340.34	8.644
340.55	8.297
340.75	9.358
340.96	7.439
341.17	8.891
341.38	7.775
341.58	7.568
341.79	8.606
342.00	8.061
342.21	8.187
342.41	5.915
342.62	8.275
342.83	8.373
343.04	6.024
343.24	7.881
343.45	8.593
343.66	6.071
343.87	7.397
344.07	6.708
344.28	7.727
344.49	8.539
344.70	9.679
344.90	7.245
345.11	6.115
345.32	7.927
345.53	7.493
345.73	7.806
345.94	8.978
346.15	9.356
346.36	6.601
346.56	8.473
346.77	9.179
346.98	7.828
347.19	8.044
347.39	8.583
347.60	8.406
347.81	7.739
348.02	8.299
348.22	7.410
348.43	9.288
348.64	8.073
348.84	7.736
349.05	10.137
349.26	11.510
349.47	7.235
349.67	8.398
349.88	9.582
350.09	8.657
350.30	9.865
350.50	9.225
350.71	9.874
350.92	9.223
351.12	10.117
351.33	7.834
351.54	9.046
351.74	11.084
351.95	8.661
352.16	10.526
352.37	9.586
352.57	10.104
352.78	9.677
352.99	9.659
353.19	10.257
353.40	10.163
353.61	11.875
353.82	11.462
354.02	12.372
354.23	10.066
354.44	11.699
354.64	10.516
354.85	10.115
355.06	10.813
355.26	9.536
355.47	10.547
355.68	11.805
355.88	13.238
356.09	12.740
356.30	10.991
356.51	13.155
356.71	10.766
356.92	9.691
357.13	12.365
357.33	13.774
357.54	11.438
357.75	9.473
357.95	13.353
358.16	10.272
358.37	14.300
358.57	10.383
358.78	14.705
358.99	12.795
359.19	12.663
359.40	13.987
359.61	12.200
359.81	12.878
360.02	15.907
360.23	11.371
360.43	11.909
360.64	12.954
360.85	13.331
361.05	11.819
361.26	14.163
361.47	11.706
361.67	14.936
361.88	11.638
362.09	13.630
362.29	11.353
362.50	11.846
362.70	11.135
362.91	13.654
363.12	12.620
363.32	13.043
363.53	13.459
363.74	13.874
363.94	11.938
364.15	15.144
364.36	14.343
364.56	13.360
364.77	14.080
364.98	15.809
365.18	12.668
365.39	16.160
365.59	11.954
365.80	13.302
366.01	14.857
366.21	12.343
366.42	12.049
366.63	15.636
366.83	13.131
367.04	11.944
367.24	15.193
367.45	13.001
367.66	12.934
367.86	14.149
368.07	13.471
368.28	13.430
368.48	13.966
368.69	11.963
368.89	14.079
369.10	14.074
369.31	14.101
369.51	14.247
369.72	15.816
369.92	15.425
370.13	11.671
370.34	14.700
370.54	8.916
370.75	14.094
370.95	12.594
371.16	14.449
371.37	13.438
371.57	13.987
371.78	12.390
371.98	15.348
372.19	14.812
372.40	14.885
372.60	16.114
372.81	15.497
373.01	12.865
373.22	13.094
373.43	14.825
373.63	15.299
373.84	15.034
374.04	14.530
374.25	14.184
374.46	15.849
374.66	14.565
374.87	16.354
375.07	11.508
375.28	13.329
375.48	15.316
375.69	14.852
375.90	12.636
376.10	12.577
376.31	14.098
376.51	13.902
376.72	13.118
376.92	12.716
377.13	14.311
377.34	16.208
377.54	13.772
377.75	16.077
377.95	14.089
378.16	16.278
378.36	14.898
378.57	16.714
378.77	15.617
378.98	16.207
379.19	14.167
379.39	14.046
379.60	14.357
379.80	15.432
380.01	15.921
380.21	15.338
380.42	16.224
380.62	16.180
380.83	16.506
381.04	15.749
381.24	16.559
381.45	16.518
381.65	14.752
381.86	15.920
382.06	17.055
382.27	14.937
382.47	15.441
382.68	17.419
382.88	15.037
383.09	16.493
383.29	17.121
383.50	18.497
383.71	15.708
383.91	16.564
384.12	16.594
384.32	17.953
384.53	16.743
384.73	16.408
384.94	16.029
385.14	17.277
385.35	16.171
385.55	17.562
385.76	16.704
385.96	17.199
386.17	17.774
386.37	18.502
386.58	16.928
386.78	19.270
386.99	16.729
387.19	19.222
387.40	16.976
387.60	20.019
387.81	18.328
388.01	18.867
388.22	18.828
388.42	20.807
388.63	20.855
388.83	21.542
389.04	18.328
389.24	19.871
389.45	19.847
389.65	20.010
389.86	19.445
390.06	19.797
390.27	19.104
390.47	19.330
390.68	19.648
390.88	22.051
391.09	21.274
391.29	21.887
391.50	20.640
391.70	21.243
391.91	20.895
392.11	21.989
392.32	21.021
392.52	22.034
392.73	21.388
392.93	23.366
393.14	21.551
393.34	22.026
393.55	22.313
393.75	22.919
393.95	22.066
394.16	24.068
394.36	23.400
394.57	24.179
394.77	23.858
394.98	23.160
395.18	22.764
395.39	23.517
395.59	23.555
395.80	24.356
396.00	24.490
396.21	25.193
396.41	23.176
396.61	24.843
396.82	23.772
397.02	25.296
397.23	24.901
397.43	24.775
397.64	23.668
397.84	24.793
398.05	23.904
398.25	24.921
398.45	24.149
398.66	24.773
398.86	23.984
399.07	24.886
399.27	24.221
399.48	25.626
399.68	24.054
399.89	25.012
400.09	24.657
400.29	24.467
400.50	24.559
400.70	25.731
400.91	24.276
401.11	25.713
401.32	25.787
401.52	24.132
401.72	24.450
401.93	26.901
402.13	25.387
402.34	25.916
402.54	25.094
402.75	26.236
402.95	23.949
403.15	26.671
403.36	24.288
403.56	26.660
403.77	25.463
403.97	26.062
404.17	25.293
404.38	26.390
404.58	24.747
404.79	25.664
404.99	25.597
405.19	25.891
405.40	25.127
405.60	25.587
405.81	24.980
406.01	25.529
406.21	25.179
406.42	26.014
406.62	25.287
406.83	26.228
407.03	26.144
407.23	25.614
407.44	24.885
407.64	26.224
407.85	25.937
408.05	25.563
408.25	26.074
408.46	26.912
408.66	26.392
408.87	25.669
409.07	25.032
409.27	25.541
409.48	25.725
409.68	26.018
409.88	24.343
410.09	24.996
410.29	24.957
410.50	25.593
410.70	24.444
410.90	25.134
411.11	24.618
411.31	24.969
411.51	25.853
411.72	25.433
411.92	24.847
412.12	25.923
412.33	25.517
412.53	25.457
412.74	24.757
412.94	25.684
413.14	26.165
413.35	25.582
413.55	25.541
413.75	26.758
413.96	25.189
414.16	25.516
414.36	24.897
414.57	26.097
414.77	25.011
414.97	25.318
415.18	24.385
415.38	25.344
415.58	24.763
415.79	24.840
415.99	24.444
416.19	24.937
416.40	24.619
416.60	25.291
416.80	24.863
417.01	24.675
417.21	23.914
417.41	25.178
417.62	24.213
417.82	24.992
418.02	23.930
418.23	24.633
418.43	23.730
418.63	24.486
418.84	24.552
419.04	23.439
419.24	24.359
419.45	24.069
419.65	24.215
419.85	24.698
420.06	23.939
420.26	24.011
420.46	23.958
420.67	23.733
420.87	23.973
421.07	23.469
421.28	23.366
421.48	23.535
421.68	23.814
421.88	23.997
422.09	23.605
422.29	23.395
422.49	23.919
422.70	23.801
422.90	24.126
423.10	24.309
423.31	24.121
423.51	23.897
423.71	24.220
423.91	23.881
424.12	23.827
424.32	23.879
424.52	23.693
424.73	23.438
424.93	23.771
425.13	23.240
425.33	23.387
425.54	23.339
425.74	23.705
425.94	23.759
426.15	24.441
426.35	23.826
426.55	23.907
426.75	24.383
426.96	24.566
427.16	23.965
427.36	24.338
427.57	24.891
427.77	24.635
427.97	24.198
428.17	24.380
428.38	24.524
428.58	24.870
428.78	25.303
428.98	24.581
429.19	24.245
429.39	23.681
429.59	23.575
429.79	23.824
430.00	23.442
430.20	23.694
430.40	24.184
430.60	24.194
430.81	23.709
431.01	23.000
431.21	24.698
431.41	23.776
431.62	24.266
431.82	23.972
432.02	23.675
432.22	24.130
432.43	24.759
432.63	24.311
432.83	23.305
433.03	23.595
433.24	23.470
433.44	23.097
433.64	23.278
433.84	23.189
434.05	23.977
434.25	23.762
434.45	23.724
434.65	24.211
434.85	24.251
435.06	24.223
435.26	23.986
435.46	24.192
435.66	24.440
435.87	24.799
436.07	24.383
436.27	24.292
436.47	24.273
436.67	24.460
436.88	24.380
437.08	24.164
437.28	23.972
437.48	24.737
437.69	24.348
437.89	23.642
438.09	24.245
438.29	24.176
438.49	24.443
438.70	23.944
438.90	24.468
439.10	23.668
439.30	24.037
439.50	24.080
439.71	24.317
439.91	23.623
440.11	24.364
440.31	23.967
440.51	23.641
440.72	23.843
440.92	23.576
441.12	24.209
441.32	24.202
441.52	24.128
441.72	23.923
441.93	24.252
442.13	24.327
442.33	24.136
442.53	24.152
442.73	23.832
442.94	24.798
443.14	24.607
443.34	24.242
443.54	25.043
443.74	24.781
443.94	24.412
444.15	24.520
444.35	24.956
444.55	24.293
444.75	24.231
444.95	24.393
445.15	23.802
445.36	23.820
445.56	24.126
445.76	23.565
445.96	23.897
446.16	23.498
446.36	23.699
446.57	23.935
446.77	23.515
446.97	23.500
447.17	23.854
447.37	23.930
447.57	24.175
447.77	23.875
447.98	24.014
448.18	24.054
448.38	24.167
448.58	24.269
448.78	24.559
448.98	24.426
449.18	24.169
449.39	24.637
449.59	24.745
449.79	24.843
449.99	24.592
450.19	24.922
450.39	24.821
450.59	24.530
450.79	24.536
451.00	24.445
451.20	26.055
451.40	24.498
451.60	24.650
451.80	23.998
452.00	24.364
452.20	24.956
452.40	23.794
452.61	24.649
452.81	24.721
453.01	24.071
453.21	24.265
453.41	24.368
453.61	24.082
453.81	24.624
454.01	24.368
454.21	24.626
454.42	24.512
454.62	24.441
454.82	24.443
455.02	24.766
455.22	24.284
455.42	24.548
455.62	24.231
455.82	24.450
456.02	25.099
456.23	24.455
456.43	23.803
456.63	24.268
456.83	24.321
457.03	24.848
457.23	24.621
457.43	24.815
457.63	24.509
457.83	24.569
458.03	24.215
458.23	23.640
458.43	24.194
458.64	24.221
458.84	24.432
459.04	23.596
459.24	23.855
459.44	23.141
459.64	23.231
459.84	22.646
460.04	23.181
460.24	23.291
460.44	23.263
460.64	23.591
460.84	23.798
461.04	23.876
461.24	24.299
461.45	23.817
461.65	24.206
461.85	24.435
462.05	24.361
462.25	24.563
462.45	24.785
462.65	24.417
462.85	24.407
463.05	24.315
463.25	24.773
463.45	25.189
463.65	24.484
463.85	24.518
464.05	24.292
464.25	24.299
464.45	24.042
464.65	24.470
464.85	24.691
465.05	24.266
465.26	24.926
465.46	24.377
465.66	24.068
465.86	24.712
466.06	24.247
466.26	23.535
466.46	23.999
466.66	24.077
466.86	24.053
467.06	23.872
467.26	24.130
467.46	23.699
467.66	23.741
467.86	23.980
468.06	24.008
468.26	24.390
468.46	24.012
468.66	24.329
468.86	24.161
469.06	24.427
469.26	24.533
469.46	24.484
469.66	23.963
469.86	23.899
470.06	24.588
470.26	24.625
470.46	24.306
470.66	24.821
470.86	24.339
471.06	24.625
471.26	24.307
471.46	23.947
471.66	24.431
471.86	24.958
472.06	24.531
472.26	24.630
472.46	25.077
472.66	24.856
472.86	24.707
473.06	24.396
473.26	24.145
473.46	24.910
473.66	24.425
473.86	25.004
474.06	24.781
474.26	24.398
474.46	24.537
474.66	24.880
474.86	24.379
475.06	24.578
475.26	24.823
475.46	25.063
475.66	24.763
475.86	24.634
476.06	24.957
476.26	24.984
476.46	24.971
476.66	24.370
476.86	24.779
477.06	24.543
477.26	24.349
477.46	24.402
477.65	23.984
477.85	24.857
478.05	24.337
478.25	24.998
478.45	24.834
478.65	24.080
478.85	24.557
479.05	24.289
479.25	25.064
479.45	24.390
479.65	24.959
479.85	24.401
480.05	24.973
480.25	24.476
480.45	25.095
480.65	24.434
480.85	24.911
481.05	24.661
481.25	24.669
481.44	24.632
481.64	24.440
481.84	24.650
482.04	24.396
482.24	24.394
482.44	24.440
482.64	24.143
482.84	24.052
483.04	23.474
483.24	23.556
483.44	23.374
483.64	22.887
483.84	22.741
484.04	23.394
484.23	23.793
484.43	23.822
484.63	24.501
484.83	25.088
485.03	26.233
485.23	26.321
485.43	26.044
485.63	25.805
485.83	25.938
486.03	25.852
486.23	26.007
486.42	25.864
486.62	25.503
486.82	25.270
487.02	24.839
487.22	24.471
487.42	24.032
487.62	23.906
487.82	23.840
488.02	24.078
488.22	24.134
488.41	24.226
488.61	24.307
488.81	24.647
489.01	24.643
489.21	25.093
489.41	25.154
489.61	25.409
489.81	25.261
490.01	25.197
490.20	25.434
490.40	25.026
490.60	25.447
490.80	24.748
491.00	25.008
491.20	24.301
491.40	24.119
491.60	23.870
491.79	23.750
491.99	24.118
492.19	24.041
492.39	24.177
492.59	24.071
492.79	24.434
492.99	24.736
493.19	25.115
493.38	25.459
493.58	25.344
493.78	25.619
493.98	25.603
494.18	25.600
494.38	25.805
494.58	25.887
494.77	25.385
494.97	24.865
495.17	25.417
495.37	24.962
495.57	24.933
495.77	25.192
495.96	25.083
496.16	24.537
496.36	24.898
496.56	24.339
496.76	24.564
496.96	24.690
497.15	24.408
497.35	24.483
497.55	24.795
497.75	24.490
497.95	24.580
498.15	24.899
498.34	24.705
498.54	24.541
498.74	25.214
498.94	25.239
499.14	25.182
499.34	25.076
499.53	24.721
499.73	24.550
499.93	24.974
500.13	25.105
500.33	24.532
500.52	25.163
500.72	25.472
500.92	25.409
501.12	24.818
501.32	24.632
501.52	25.369
501.71	24.935
501.91	24.816
502.11	25.485
502.31	25.074
502.51	25.133
502.70	25.003
502.90	25.298
503.10	25.126
503.30	25.503
503.50	24.805
503.69	25.145
503.89	25.149
504.09	24.879
504.29	25.142
504.48	25.425
504.68	25.256
504.88	25.093
505.08	24.972
505.28	25.085
505.47	25.355
505.67	24.983
505.87	25.132
506.07	24.836
506.27	25.438
506.46	25.623
506.66	25.050
506.86	25.236
507.06	25.792
507.25	25.770
507.45	25.279
507.65	25.266
507.85	24.757
508.04	25.286
508.24	25.124
508.44	24.965
508.64	25.070
508.83	25.189
509.03	24.919
509.23	24.886
509.43	25.345
509.63	25.262
509.82	25.351
510.02	25.362
510.22	25.379
510.42	25.243
510.61	25.022
510.81	25.167
511.01	25.502
511.21	25.468
511.40	25.419
511.60	25.704
511.80	25.662
511.99	25.673
512.19	25.815
512.39	25.192
512.59	25.250
512.78	25.440
512.98	25.501
513.18	25.475
513.38	25.584
513.57	25.203
513.77	25.444
513.97	25.972
514.17	26.089
514.36	25.659
514.56	25.993
514.76	25.980
514.95	25.535
515.15	25.657
515.35	25.756
515.55	25.833
515.74	25.960
515.94	25.960
516.14	26.038
516.33	26.210
516.53	25.745
516.73	25.983
516.93	25.943
517.12	25.494
517.32	25.593
517.52	25.608
517.71	25.306
517.91	24.929
518.11	25.103
518.30	24.980
518.50	25.082
518.70	25.407
518.90	24.935
519.09	25.339
519.29	25.824
519.49	25.317
519.68	25.511
519.88	25.763
520.08	25.846
520.27	25.857
520.47	26.272
520.67	26.194
520.86	25.964
521.06	26.122
521.26	26.049
521.45	25.911
521.65	26.312
521.85	25.869
522.04	26.064
522.24	25.903
522.44	26.110
522.63	26.032
522.83	25.767
523.03	26.076
523.22	26.076
523.42	26.107
523.62	26.384
523.81	25.830
524.01	26.073
524.21	25.947
524.40	26.501
524.60	26.134
524.80	25.844
524.99	25.492
525.19	24.919
525.39	25.411
525.58	25.420
525.78	25.116
525.98	25.627
526.17	25.350
526.37	25.374
526.57	25.253
526.76	25.776
526.96	25.611
527.15	25.235
527.35	25.788
527.55	25.553
527.74	25.776
527.94	25.497
528.14	25.163
528.33	24.800
528.53	24.853
528.72	25.150
528.92	25.499
529.12	25.466
529.31	25.536
529.51	26.010
529.71	26.014
529.90	26.472
530.10	26.467
530.29	26.961
530.49	27.064
530.69	27.404
530.88	27.319
531.08	27.338
531.28	27.070
531.47	26.724
531.67	26.800
531.86	26.438
532.06	26.249
532.26	26.199
532.45	26.363
532.65	26.163
532.84	25.548
533.04	25.702
533.24	25.403
533.43	25.730
533.63	25.680
533.82	25.777
534.02	26.115
534.22	26.270
534.41	26.085
534.61	26.609
534.80	26.253
535.00	26.900
535.19	26.821
535.39	27.054
535.59	27.084
535.78	26.979
535.98	26.396
536.17	26.268
536.37	26.123
536.57	26.290
536.76	26.425
536.96	26.123
537.15	26.187
537.35	26.245
537.54	26.661
537.74	26.648
537.93	26.482
538.13	27.081
538.33	26.855
538.52	26.879
538.72	27.610
538.91	27.327
539.11	27.469
539.30	27.216
539.50	27.363
539.70	26.996
539.89	26.507
540.09	26.809
540.28	26.489
540.48	26.481
540.67	26.143
540.87	26.338
541.06	25.716
541.26	25.960
541.45	26.288
541.65	26.289
541.85	26.438
542.04	26.701
542.24	26.614
542.43	26.872
542.63	27.038
542.82	27.258
543.02	27.384
543.21	28.003
543.41	27.801
543.60	28.019
543.80	27.803
543.99	27.951
544.19	28.027
544.38	27.742
544.58	27.564
544.77	27.657
544.97	27.979
545.16	27.769
545.36	27.527
545.56	27.490
545.75	27.956
545.95	28.257
546.14	28.037
546.34	27.889
546.53	27.700
546.73	27.621
546.92	27.608
547.12	27.932
547.31	27.248
547.51	27.576
547.70	27.943
547.90	28.171
548.09	28.294
548.29	28.612
548.48	28.616
548.68	28.858
548.87	28.585
549.07	28.804
549.26	28.952
549.46	28.986
549.65	28.650
549.84	28.989
550.04	29.190
550.23	28.689
550.43	29.135
550.62	29.111
550.82	29.287
551.01	29.298
551.21	29.291
551.40	28.832
551.60	28.894
551.79	29.325
551.99	29.042
552.18	29.303
552.38	29.211
552.57	29.320
552.77	28.714
552.96	29.252
553.16	28.677
553.35	29.408
553.54	29.257
553.74	29.375
553.93	29.851
554.13	30.011
554.32	30.365
554.52	30.216
554.71	29.982
554.91	30.848
555.10	30.582
555.29	29.611
555.49	29.735
555.68	30.484
555.88	30.167
556.07	30.521
556.27	30.285
556.46	30.847
556.66	30.094
556.85	30.673
557.04	30.654
557.24	30.614
557.43	31.033
557.63	31.009
557.82	30.264
558.02	31.003
558.21	31.437
558.40	31.035
558.60	31.389
558.79	31.742
558.99	31.266
559.18	31.487
559.38	31.734
559.57	31.876
559.76	31.453
559.96	32.558
560.15	32.117
560.35	32.053
560.54	31.969
560.73	31.941
560.93	32.002
561.12	32.128
561.32	31.776
561.51	31.806
561.70	32.182
561.90	31.718
562.09	32.577
562.29	32.391
562.48	32.705
562.67	32.363
562.87	32.341
563.06	32.912
563.26	33.103
563.45	32.695
563.64	33.277
563.84	32.988
564.03	32.203
564.23	33.040
564.42	33.549
564.61	33.428
564.81	33.052
565.00	33.588
565.20	32.761
565.39	33.460
565.58	33.273
565.78	33.276
565.97	33.908
566.16	33.748
566.36	34.101
566.55	34.014
566.74	33.930
566.94	34.099
567.13	34.301
567.33	33.799
567.52	34.534
567.71	34.568
567.91	34.615
568.10	34.514
568.29	35.489
568.49	35.219
568.68	35.109
568.87	35.670
569.07	35.398
569.26	34.932
569.45	35.234
569.65	35.435
569.84	35.228
570.04	35.679
570.23	35.120
570.42	35.358
570.62	36.179
570.81	35.544
571.00	35.499
571.20	35.250
571.39	35.437
571.58	35.902
571.78	35.544
571.97	35.390
572.16	35.476
572.36	35.986
572.55	35.554
572.74	36.197
572.94	35.988
573.13	35.908
573.32	36.153
573.51	36.840
573.71	36.401
573.90	35.788
574.09	36.298
574.29	36.505
574.48	36.792
574.67	36.391
574.87	36.487
575.06	36.523
575.25	36.560
575.45	36.323
575.64	36.448
575.83	36.531
576.03	37.388
576.22	36.888
576.41	36.216
576.60	36.638
576.80	37.312
576.99	36.807
577.18	36.871
577.38	36.812
577.57	37.064
577.76	37.346
577.95	37.545
578.15	37.468
578.34	37.268
578.53	37.141
578.73	36.751
578.92	37.968
579.11	36.934
579.30	37.613
579.50	37.441
579.69	37.096
579.88	37.833
580.08	36.948
580.27	37.258
580.46	37.542
580.65	37.094
580.85	38.026
581.04	37.186
581.23	37.418
581.42	37.489
581.62	37.353
581.81	37.576
582.00	36.827
582.19	37.436
582.39	37.204
582.58	37.261
582.77	37.801
582.96	37.338
583.16	36.817
583.35	37.424
583.54	38.068
583.73	38.461
583.93	37.586
584.12	37.762
584.31	37.164
584.50	36.863
584.70	38.581
584.89	37.627
585.08	37.491
585.27	37.648
585.47	37.733
585.66	37.862
585.85	38.212
586.04	37.124
586.24	37.688
586.43	37.853
586.62	37.826
586.81	37.613
587.00	38.244
587.20	37.708
587.39	37.476
587.58	38.107
587.77	37.767
587.97	37.319
588.16	38.095
588.35	37.354
588.54	37.186
588.73	37.476
588.93	37.051
589.12	37.479
589.31	37.624
589.50	36.326
589.69	37.930
589.89	37.829
590.08	37.606
590.27	37.719
590.46	37.876
590.65	37.362
590.85	37.591
591.04	37.334
591.23	38.012
591.42	37.081
591.61	37.631
591.81	37.647
592.00	36.870
592.19	38.425
592.38	37.242
592.57	37.599
592.77	37.819
592.96	37.493
593.15	38.782
593.34	37.821
593.53	37.758
593.72	37.446
593.92	37.325
594.11	37.618
594.30	38.023
594.49	37.570
594.68	37.538
594.87	37.397
595.07	37.005
595.26	38.199
595.45	37.832
595.64	37.560
595.83	37.721
596.02	37.517
596.22	37.972
596.41	37.592
596.60	38.103
596.79	38.421
596.98	37.681
597.17	37.733
597.37	38.165
597.56	37.899
597.75	37.666
597.94	37.860
598.13	38.466
598.32	37.367
598.51	38.932
598.71	38.783
598.90	38.802
599.09	39.612
599.28	38.836
599.47	38.819
599.66	38.561
599.85	38.533
600.05	38.712
600.24	39.148
600.43	39.481
600.62	38.771
600.81	38.757
601.00	39.510
601.19	39.161
601.38	40.263
601.58	38.944
601.77	38.565
601.96	39.484
602.15	39.509
602.34	39.637
602.53	38.937
602.72	38.671
602.91	38.606
603.10	39.995
603.30	38.868
603.49	38.721
603.68	38.761
603.87	38.937
604.06	39.265
604.25	39.309
604.44	38.367
604.63	39.454
604.82	38.625
605.01	39.557
605.21	39.031
605.40	38.674
605.59	39.023
605.78	39.092
605.97	38.680
606.16	39.300
606.35	39.571
606.54	39.535
606.73	39.266
606.92	39.352
607.11	39.862
607.30	39.449
607.50	38.852
607.69	39.485
607.88	39.602
608.07	38.845
608.26	37.944
608.45	39.663
608.64	39.258
608.83	38.705
609.02	38.956
609.21	38.518
609.40	38.002
609.59	38.133
609.78	37.915
609.97	38.391
610.16	38.438
610.35	38.879
610.55	37.917
610.74	38.599
610.93	38.841
611.12	38.708
611.31	38.203
611.50	39.619
611.69	37.889
611.88	39.229
612.07	38.719
612.26	38.594
612.45	37.875
612.64	37.963
612.83	38.512
613.02	38.467
613.21	37.511
613.40	37.954
613.59	38.622
613.78	38.188
613.97	38.205
614.16	38.475
614.35	37.106
614.54	37.237
614.73	37.724
614.92	37.234
615.11	38.159
615.30	38.471
615.49	37.108
615.68	38.124
615.87	38.016
616.07	36.891
616.26	37.615
616.45	37.719
616.64	37.168
616.83	36.857
617.02	37.449
617.21	36.719
617.40	36.740
617.59	37.325
617.78	37.212
617.97	36.839
618.16	36.730
618.35	36.783
618.54	37.316
618.73	36.497
618.92	36.927
619.11	36.594
619.30	37.042
619.49	36.937
619.68	36.449
619.86	36.617
620.05	36.988
620.24	36.181
620.43	36.320
620.62	35.689
620.81	36.229
621.00	36.416
621.19	37.584
621.38	36.984
621.57	35.875
621.76	36.691
621.95	36.200
622.14	36.339
622.33	36.469
622.52	36.011
622.71	36.671
622.90	36.450
623.09	36.180
623.28	36.413
623.47	36.234
623.66	36.760
623.85	36.328
624.04	35.932
624.23	35.348
624.42	36.787
624.61	35.850
624.80	34.642
624.99	35.888
625.18	34.970
625.36	35.536
625.55	35.754
625.74	35.631
625.93	35.978
626.12	36.164
626.31	35.223
626.50	35.621
626.69	36.433
626.88	35.793
627.07	35.882
627.26	35.298
627.45	34.809
627.64	35.597
627.83	35.267
628.02	35.011
628.20	36.368
628.39	35.396
628.58	35.763
628.77	36.044
628.96	35.546
629.15	35.737
629.34	34.950
629.53	35.129
629.72	34.746
629.91	35.920
630.10	34.851
630.29	34.538
630.47	35.272
630.66	35.217
630.85	34.292
631.04	34.692
631.23	34.897
631.42	33.957
631.61	34.980
631.80	35.049
631.99	35.191
632.18	35.192
632.36	34.514
632.55	34.707
632.74	34.599
632.93	35.124
633.12	34.429
633.31	35.257
633.50	33.611
633.69	34.157
633.88	33.848
634.06	34.384
634.25	35.494
634.44	34.485
634.63	34.923
634.82	35.078
635.01	34.595
635.20	34.151
635.39	35.023
635.57	34.897
635.76	34.184
635.95	35.448
636.14	34.235
636.33	33.597
636.52	34.359
636.71	34.917
636.89	34.174
637.08	34.568
637.27	33.578
637.46	34.597
637.65	34.569
637.84	34.874
638.03	35.323
638.21	35.517
638.40	34.724
638.59	35.155
638.78	34.470
638.97	35.483
639.16	35.457
639.34	35.448
639.53	34.145
639.72	34.484
639.91	34.468
640.10	35.754
640.29	35.803
640.47	35.378
640.66	35.943
640.85	36.165
641.04	33.922
641.23	34.348
641.42	35.199
641.60	34.929
641.79	35.757
641.98	35.555
642.17	35.243
642.36	35.094
642.54	35.000
642.73	36.300
642.92	34.441
643.11	34.630
643.30	36.180
643.49	35.183
643.67	34.668
643.86	36.463
644.05	35.461
644.24	34.686
644.43	35.887
644.61	35.788
644.80	35.378
644.99	35.851
645.18	35.161
645.37	35.693
645.55	34.867
645.74	34.343
645.93	34.432
646.12	34.583
646.31	34.281
646.49	35.329
646.68	34.344
646.87	34.801
647.06	34.180
647.24	34.609
647.43	33.633
647.62	35.357
647.81	33.784
648.00	35.291
648.18	33.882
648.37	34.474
648.56	34.904
648.75	34.130
648.93	34.282
649.12	34.020
649.31	34.756
649.50	34.561
649.68	34.401
649.87	33.740
650.06	33.724
650.25	35.875
650.43	34.300
650.62	34.663
650.81	35.145
651.00	34.441
651.18	32.797
651.37	34.295
651.56	33.718
651.75	34.672
651.93	33.871
652.12	34.370
652.31	33.439
652.50	34.651
652.68	35.170
652.87	35.163
653.06	33.746
653.25	34.802
653.43	34.213
653.62	34.734
653.81	33.070
654.00	32.737
654.18	33.161
654.37	34.148
654.56	33.810
654.74	33.190
654.93	34.994
655.12	34.344
655.31	33.581
655.49	32.799
655.68	32.434
655.87	32.468
656.05	32.376
656.24	33.240
656.43	32.612
656.62	33.690
656.80	31.330
656.99	31.959
657.18	32.329
657.36	32.003
657.55	31.217
657.74	31.247
657.93	31.963
658.11	33.446
658.30	31.057
658.49	31.523
658.67	31.111
658.86	30.701
659.05	30.202
659.23	31.329
659.42	31.066
659.61	30.298
659.79	30.534
659.98	30.485
660.17	30.733
660.35	29.791
660.54	29.510
660.73	30.008
660.91	29.726
661.10	30.151
661.29	30.044
661.47	29.603
661.66	29.832
661.85	29.745
662.03	29.638
662.22	28.732
662.41	27.258
662.59	27.765
662.78	27.139
662.97	28.407
663.15	28.243
663.34	27.825
663.53	26.103
663.71	28.056
663.90	26.336
664.09	28.363
664.27	27.739
664.46	27.380
664.65	26.529
664.83	26.151
665.02	25.398
665.21	26.506
665.39	24.262
665.58	27.742
665.77	25.273
665.95	25.890
666.14	23.688
666.32	26.293
666.51	23.906
666.70	25.319
666.88	24.347
667.07	24.861
667.26	23.353
667.44	26.012
667.63	23.791
667.81	25.301
668.00	24.354
668.19	25.948
668.37	23.517
668.56	25.963
668.75	23.102
668.93	25.244
669.12	23.439
669.30	25.317
669.49	23.777
669.68	24.173
669.86	24.955
670.05	24.309
670.23	23.805
670.42	23.413
670.61	23.653
670.79	23.784
670.98	23.679
671.16	26.103
671.35	22.041
671.54	24.305
671.72	22.780
671.91	24.538
672.09	22.672
672.28	25.395
672.46	24.720
672.65	23.948
672.84	23.689
673.02	25.452
673.21	21.391
673.39	23.903
673.58	23.314
673.77	24.302
673.95	23.016
674.14	23.516
674.32	23.115
674.51	25.042
674.69	23.055
674.88	23.907
675.07	23.239
675.25	27.267
675.44	24.025
675.62	24.507
675.81	22.202
675.99	26.765
676.18	26.458
676.36	24.753
676.55	22.455
676.74	26.265
676.92	24.229
677.11	24.492
677.29	25.056
677.48	26.115
677.66	25.006
677.85	23.222
678.03	23.760
678.22	27.247
678.40	24.639
678.59	24.344
678.78	23.100
678.96	25.832
679.15	23.662
679.33	26.844
679.52	25.767
679.70	25.175
679.89	25.167
680.07	27.316
680.26	25.023
680.44	26.850
680.63	26.010
680.81	26.046
681.00	24.676
681.18	27.075
681.37	25.873
681.55	29.339
681.74	26.171
681.92	27.512
682.11	26.704
682.29	27.848
682.48	28.138
682.66	27.743
682.85	26.655
683.03	28.050
683.22	27.469
683.40	29.712
683.59	26.744
683.77	28.326
683.96	26.895
684.14	29.499
684.33	25.593
684.51	29.886
684.70	28.693
684.88	29.472
685.07	29.815
685.25	30.715
685.44	29.250
685.62	30.098
685.81	29.232
685.99	31.124
686.18	29.119
686.36	31.882
686.55	29.475
686.73	31.216
686.92	31.044
687.10	31.200
687.29	31.321
687.47	32.604
687.65	32.985
687.84	32.311
688.02	33.513
688.21	33.969
688.39	33.049
688.58	34.704
688.76	33.878
688.95	36.277
689.13	34.489
689.32	36.381
689.50	36.607
689.68	37.457
689.87	35.910
690.05	38.256
690.24	36.529
690.42	38.361
690.61	38.771
690.79	40.452
690.98	38.625
691.16	39.249
691.34	38.397
691.53	40.540
691.71	38.574
691.90	41.635
692.08	39.076
692.27	43.599
692.45	42.678
692.63	43.347
692.82	42.757
693.00	43.461
693.19	42.778
693.37	44.062
693.56	42.744
693.74	43.560
693.92	43.895
694.11	46.393
694.29	46.576
694.48	45.664
694.66	45.858
694.84	46.988
695.03	46.763
695.21	49.152
695.40	48.579
695.58	49.086
695.76	49.346
695.95	49.661
696.13	49.436
696.32	50.826
696.50	51.448
696.68	52.116
696.87	50.490
697.05	49.562
697.24	51.686
697.42	52.058
697.60	50.904
697.79	53.725
697.97	52.900
698.16	52.843
698.34	50.908
698.52	53.165
698.71	51.713
698.89	52.946
699.07	51.998
699.26	52.594
699.44	52.798
699.63	53.971
699.81	53.125
699.99	52.264
700.18	53.939
700.36	54.518
700.54	54.613
700.73	54.148
700.91	53.778
701.09	56.309
701.28	56.218
701.46	55.841
701.64	56.735
701.83	56.346
702.01	57.545
702.20	58.487
702.38	59.366
702.56	57.995
702.75	58.246
702.93	59.063
703.11	59.048
703.30	60.179
703.48	59.917
703.66	59.698
703.85	58.962
704.03	60.786
704.21	60.430
704.40	60.711
704.58	61.286
704.76	60.356
704.95	60.329
705.13	60.299
705.31	59.787
705.50	60.139
705.68	60.303
705.86	63.200
706.04	63.493
706.23	64.950
706.41	61.267
706.59	62.178
706.78	61.627
706.96	61.568
707.14	62.184
707.33	62.984
707.51	64.549
707.69	65.471
707.88	62.224
708.06	63.714
708.24	64.594
708.42	62.884
708.61	63.320
708.79	62.553
708.97	64.114
709.16	62.903
709.34	66.989
709.52	63.716
709.71	63.242
709.89	63.458
710.07	63.214
710.25	66.075
710.44	61.798
710.62	65.171
710.80	64.802
710.98	63.544
711.17	64.795
711.35	64.191
711.53	66.132
711.72	64.055
711.90	64.274
712.08	64.151
712.26	64.367
712.45	65.040
712.63	64.088
712.81	64.156
712.99	66.181
713.18	65.340
713.36	63.967
713.54	65.928
713.72	62.823
713.91	65.688
714.09	64.518
714.27	64.321
714.45	63.360
714.64	65.145
714.82	66.813
715.00	64.771
715.18	65.662
715.37	63.300
715.55	65.039
715.73	66.507
715.91	65.820
716.10	63.556
716.28	65.025
716.46	65.484
716.64	62.811
716.83	64.773
717.01	64.613
717.19	64.310
717.37	65.722
717.55	65.187
717.74	64.473
717.92	64.228
718.10	65.021
718.28	65.706
718.47	64.599
718.65	65.013
718.83	64.370
719.01	65.733
719.19	65.360
719.38	67.152
719.56	68.570
719.74	67.531
719.92	65.460
720.10	66.129
720.29	65.787
720.47	66.907
720.65	66.030
720.83	65.868
721.01	65.916
721.20	67.986
721.38	65.614
721.56	69.005
721.74	66.774
721.92	67.510
722.11	64.824
722.29	65.539
722.47	68.297
722.65	70.105
722.83	66.978
723.01	64.644
723.20	67.493
723.38	68.844
723.56	65.671
723.74	68.775
723.92	65.866
724.10	67.680
724.29	66.960
724.47	66.978
724.65	67.224
724.83	68.021
725.01	64.661
725.19	68.880
725.38	64.232
725.56	68.357
725.74	68.967
725.92	68.692
726.10	68.961
726.28	70.242
726.46	67.169
726.65	68.301
726.83	66.453
727.01	69.646
727.19	65.707
727.37	65.069
727.55	69.466
727.73	69.710
727.92	69.575
728.10	68.641
728.28	66.279
728.46	68.951
728.64	68.972
728.82	67.162
729.00	65.842
729.19	68.918
729.37	66.952
729.55	68.794
729.73	63.932
729.91	68.078
730.09	68.174
730.27	68.261
730.45	66.151
730.63	69.266
730.82	65.242
731.00	66.244
731.18	67.907
731.36	68.595
731.54	66.914
731.72	68.066
731.90	67.892
732.08	68.207
732.26	67.964
732.45	71.183
732.63	68.317
732.81	70.597
732.99	64.982
733.17	66.725
733.35	69.204
733.53	69.089
733.71	68.149
733.89	66.781
734.07	67.055
734.25	68.959
734.44	67.333
734.62	69.779
734.80	69.356
734.98	66.680
735.16	67.044
735.34	70.793
735.52	67.315
735.70	70.440
735.88	69.626
736.06	70.608
736.24	70.275
736.42	68.278
736.60	69.466
736.78	69.639
736.97	69.057
737.15	72.394
737.33	66.512
737.51	71.535
737.69	71.533
737.87	71.658
738.05	69.985
738.23	71.365
738.41	70.098
738.59	73.790
738.77	71.582
738.95	72.039
739.13	70.372
739.31	73.570
739.49	72.610
739.67	72.172
739.85	70.638
740.03	71.354
740.21	72.298
740.39	72.304
740.57	71.657
740.75	72.860
740.93	71.144
741.11	70.045
741.30	73.888
741.48	74.621
741.66	72.210
741.84	72.559
742.02	68.096
742.20	71.696
742.38	72.340
742.56	73.620
742.74	73.165
742.92	72.776
743.10	68.916
743.28	75.817
743.46	73.098
743.64	72.397
743.82	70.149
744.00	75.107
744.18	72.805
744.36	74.115
744.54	73.684
744.72	75.391
744.90	76.855
745.08	75.665
745.26	72.586
745.44	75.594
745.62	74.251
745.80	73.420
745.98	72.505
746.16	75.147
746.34	77.709
746.52	72.155
746.70	71.193
746.87	72.042
747.05	74.483
747.23	78.092
747.41	74.797
747.59	72.562
747.77	70.306
747.95	76.136
748.13	72.394
748.31	76.334
748.49	73.030
748.67	72.440
748.85	74.456
749.03	75.825
749.21	71.016
749.39	74.483
749.57	71.072
749.75	74.612
749.93	74.377
750.11	75.449
750.29	70.611
750.47	72.661
750.65	71.615
750.83	73.022
751.01	68.688
751.18	74.464
751.36	70.986
751.54	76.326
751.72	75.149
751.90	74.466
752.08	69.800
752.26	74.000
752.44	71.653
752.62	76.607
752.80	75.152
752.98	76.527
753.16	73.968
753.34	71.827
753.52	74.930
753.69	76.375
753.87	74.039
754.05	77.847
754.23	74.170
754.41	72.840
754.59	74.103
754.77	75.172
754.95	73.891
755.13	73.691
755.31	72.959
755.49	73.319
755.66	74.313
755.84	71.197
756.02	68.070
756.20	74.429
756.38	72.614
756.56	75.909
756.74	74.471
756.92	74.463
757.10	69.334
757.28	74.114
757.45	78.378
757.63	77.436
757.81	72.022
757.99	78.068
758.17	74.905
758.35	75.649
758.53	73.482
758.71	75.346
758.88	74.317
759.06	74.457
759.24	70.523
759.42	74.088
759.60	70.788
759.78	70.884
759.96	71.008
760.13	74.167
760.31	65.728
760.49	69.688
760.67	64.669
760.85	68.475
761.03	66.388
761.21	65.258
761.38	66.229
761.56	67.407
761.74	64.614
761.92	68.304
762.10	63.053
762.28	67.176
762.46	62.478
762.63	67.435
762.81	64.399
762.99	69.463
763.17	67.694
763.35	68.912
763.53	65.812
763.70	68.691
763.88	67.607
764.06	66.605
764.24	66.640
764.42	68.360
764.60	67.484
764.77	66.551
764.95	66.600
765.13	66.715
765.31	69.110
765.49	67.612
765.66	67.640
765.84	69.231
766.02	65.766
766.20	69.548
766.38	69.076
766.56	71.020
766.73	69.711
766.91	71.070
767.09	73.715
767.27	74.242
767.45	71.566
767.62	70.870
767.80	71.355
767.98	72.649
768.16	68.773
768.33	73.746
768.51	70.425
768.69	71.498
768.87	66.023
769.05	71.220
769.22	70.716
769.40	81.311
769.58	76.604
769.76	76.968
769.94	73.857
770.11	72.771
770.29	72.987
770.47	73.886
770.65	74.471
770.82	73.410
771.00	75.103
771.18	75.336
771.36	74.096
771.53	76.356
771.71	76.545
771.89	74.148
772.07	73.541
772.25	78.073
772.42	71.326
772.60	76.333
772.78	70.538
772.96	77.396
773.13	77.100
773.31	79.338
773.49	75.056
773.67	75.806
773.84	72.317
774.02	72.755
774.20	71.652
774.37	75.672
774.55	76.303
774.73	74.433
774.91	75.816
775.08	75.986
775.26	77.177
775.44	77.597
775.62	77.934
775.79	72.194
775.97	78.805
776.15	73.682
776.32	68.117
776.50	83.435
776.68	82.110
776.86	80.116
777.03	68.925
777.21	73.926
777.39	72.945
777.56	77.547
777.74	70.703
777.92	73.027
778.10	73.630
778.27	74.484
778.45	78.945
778.63	80.560
778.80	72.783
778.98	75.875
779.16	77.032
779.34	72.247
779.51	75.310
779.69	75.012
779.87	72.597
780.04	79.826
780.22	72.463
780.40	77.825
780.57	72.257
780.75	78.558
780.93	75.528
781.10	70.799
781.28	80.572
781.46	71.656
781.63	73.707
781.81	79.343
781.99	70.785
782.16	70.944
782.34	71.328
782.52	75.628
782.69	76.132
782.87	79.058
783.05	72.676
783.22	80.671
783.40	70.043
783.58	78.259
783.75	73.299
783.93	78.587
784.11	68.740
784.28	78.942
784.46	71.611
784.64	80.322
784.81	76.101
784.99	74.658
785.17	70.520
785.34	77.306
785.52	67.746
785.69	71.998
785.87	74.238
786.05	74.664
786.22	73.144
786.40	76.137
786.58	67.001
786.75	76.770
786.93	75.480
787.11	74.894
787.28	73.313
787.46	79.158
787.63	75.721
787.81	76.568
787.99	74.375
788.16	73.295
788.34	72.110
788.51	74.776
788.69	69.902
788.87	70.783
789.04	68.034
789.22	73.247
789.39	72.156
789.57	74.620
789.75	65.122
789.92	73.199
790.10	68.803
790.27	75.165
790.45	68.727
790.63	72.136
790.80	68.974
790.98	75.170
791.15	70.287
791.33	71.145
791.51	68.398
791.68	74.987
791.86	70.383
792.03	76.633
792.21	67.908
792.39	73.152
792.56	66.401
792.74	73.747
792.91	76.373
793.09	72.763
793.26	67.107
793.44	71.751
793.62	75.340
793.79	70.237
793.97	66.838
794.14	74.047
794.32	68.653
794.49	74.762
794.67	62.927
794.84	71.514
795.02	69.078
795.20	71.866
795.37	68.728
795.55	69.729
795.72	65.969
795.90	72.100
796.07	68.192
796.25	65.813
796.42	68.642
796.60	68.029
796.77	68.202
796.95	70.874
797.13	65.782
797.30	70.928
797.48	65.377
797.65	70.203
797.83	68.010
798.00	72.416
798.18	67.392
798.35	70.744
798.53	69.570
798.70	67.240
798.88	70.543
799.05	72.134
799.23	71.529
799.40	64.612
799.58	71.588
799.75	73.218
799.93	67.061
800.10	78.204
800.28	71.842
800.45	74.522
800.63	65.217
800.80	75.741
800.98	70.149
801.15	75.191
801.33	68.922
801.50	72.313
801.68	59.902
801.85	66.667
802.03	65.342
802.20	70.019
802.38	66.773
802.55	70.116
802.73	68.564
802.90	67.689
803.08	63.800
803.25	76.761
803.43	74.900
803.60	73.569
803.78	69.401
803.95	76.296
804.13	72.873
804.30	73.506
804.48	63.072
804.65	69.888
804.83	66.574
805.00	73.151
805.17	74.793
805.35	70.423
805.52	68.530
805.70	69.453
805.87	67.620
806.05	71.066
806.22	67.951
806.40	67.869
806.57	63.705
806.75	78.909
806.92	73.072
807.09	77.349
807.27	68.050
807.44	73.755
807.62	68.581
807.79	70.408
807.97	63.946
808.14	74.157
808.31	67.618
808.49	67.582
808.66	62.184
808.84	68.696
809.01	72.805
809.19	68.892
809.36	72.692
809.53	68.164
809.71	67.658
809.88	73.999
810.06	72.741
810.23	68.711
810.41	73.247
810.58	74.339
810.75	62.399
810.93	68.142
811.10	65.044
811.28	77.736
811.45	68.289
811.62	73.610
811.80	66.166
811.97	73.206
812.15	77.795
812.32	62.519
812.49	64.421
812.67	66.182
812.84	58.828
813.02	78.139
813.19	61.493
813.36	71.781
813.54	67.289
813.71	75.381
813.89	63.210
814.06	66.957
814.23	65.385
814.41	62.047
814.58	68.006
814.75	65.961
814.93	70.819
815.10	69.646
815.28	61.987
815.45	56.772
815.62	65.368
815.80	54.743
815.97	61.789
816.14	62.520
816.32	63.424
816.49	67.350
816.66	62.411
816.84	60.327
817.01	62.671
817.18	64.734
817.36	62.295
817.53	63.793
817.71	59.141
817.88	62.379
818.05	66.611
818.23	67.106
818.40	56.094
818.57	64.092
818.75	58.199
818.92	59.459
819.09	58.524
819.27	62.367
819.44	67.099
819.61	62.740
819.79	64.493
819.96	69.294
820.13	59.608
820.31	63.949
820.48	65.465
820.65	61.313
820.82	65.963
821.00	66.614
821.17	59.327
821.34	65.968
821.52	63.180
821.69	64.122
821.86	62.735
822.04	67.689
822.21	62.763
822.38	67.681
822.56	64.441
822.73	65.641
822.90	63.934
823.07	63.072
823.25	64.731
823.42	65.220
823.59	63.198
823.77	63.150
823.94	62.890
824.11	63.405
824.29	62.549
824.46	63.445
824.63	65.292
824.80	65.557
824.98	65.015
825.15	65.236
825.32	62.926
825.49	66.075
825.67	63.358
825.84	66.815
826.01	65.063
826.19	68.479
826.36	65.200
826.53	66.574
826.70	65.035
826.88	68.293
827.05	64.410
827.22	66.088
827.39	66.218
827.57	63.174
827.74	59.928
827.91	62.942
828.08	61.228
828.26	64.388
828.43	63.296
828.60	64.548
828.77	65.049
828.95	62.823
829.12	62.279
829.29	56.700
829.46	62.033
829.64	65.509
829.81	58.456
829.98	63.930
830.15	62.146
830.32	66.882
830.50	60.106
830.67	62.157
830.84	54.916
831.01	55.140
831.19	54.264
831.36	59.543
831.53	62.200
831.70	67.065
831.87	63.199
832.05	63.307
832.22	69.037
832.39	55.223
832.56	51.503
832.74	63.173
832.91	61.544
833.08	68.923
833.25	54.679
833.42	60.285
833.60	56.560
833.77	51.112
833.94	54.859
834.11	58.450
834.28	55.239
834.45	66.572
834.63	57.623
834.80	62.213
834.97	56.679
835.14	63.685
835.31	61.420
835.49	61.787
835.66	62.196
835.83	62.309
836.00	58.645
836.17	63.499
836.34	55.104
836.52	60.160
836.69	59.133
836.86	63.141
837.03	64.294
837.20	62.993
837.37	56.017
837.55	53.914
837.72	54.791
837.89	62.925
838.06	61.846
838.23	63.796
838.40	57.798
838.58	63.183
838.75	65.091
838.92	58.984
839.09	78.992
839.26	63.710
839.43	73.539
839.60	65.994
839.78	79.628
839.95	78.954
840.12	64.971
840.29	67.955
840.46	65.315
840.63	67.101
840.80	63.755
840.98	70.919
841.15	61.546
841.32	59.865
841.49	56.936
841.66	68.318
841.83	60.357
842.00	58.426
842.17	74.952
842.34	58.203
842.52	69.294
842.69	67.996
842.86	66.472
843.03	85.661
843.20	77.484
843.37	78.538
843.54	70.292
843.71	72.559
843.88	62.170
844.06	92.500
844.23	77.273
844.40	63.253
844.57	80.745
844.74	81.864
844.91	83.742
845.08	69.559
845.25	70.924
845.42	90.744
845.59	79.151
845.76	80.479
845.94	92.199
846.11	94.295
846.28	78.363
846.45	92.734
846.62	94.771
846.79	91.883
846.96	91.329
847.13	88.805
847.30	89.324
847.47	68.024
847.64	84.479
847.81	79.935
847.98	93.361
848.15	77.895
848.32	105.703
848.50	88.340
848.67	69.104
848.84	84.615
849.01	88.821
849.18	86.503
849.35	84.387
849.52	84.356
849.69	91.415
849.86	102.262
850.03	92.506
850.20	88.931
850.37	92.166
850.54	83.107
850.71	100.000
850.88	89.627
851.05	85.833
851.22	95.146
851.39	77.799
851.56	95.662
851.73	94.824
851.90	102.064
852.07	94.964
852.24	85.519
852.41	80.514
852.58	94.524
852.75	79.302
852.92	90.543
853.09	136.236
853.26	103.789
853.43	82.222
853.60	79.418
853.77	90.909
853.94	98.768
854.11	96.984
854.28	116.829
854.45	79.556
854.62	97.922
854.79	91.150
854.96	89.286
855.13	93.968
855.30	110.000
855.47	111.224
855.64	89.310
855.81	87.799
855.98	92.141
856.15	86.789
856.32	72.025
856.49	87.943
856.66	80.516
856.83	90.948
857.00	89.540
857.17	100.416
857.34	84.430
857.51	90.989
857.68	100.955
857.85	119.661
858.02	100.978
858.19	85.081
858.36	93.333
858.53	105.567
858.70	100.000
858.87	109.444
859.04	95.701
859.21	94.612
859.38	100.833
859.55	108.029
859.72	105.202
859.89	122.741
860.05	102.206
860.22	110.526
860.39	87.528
860.56	87.626
860.73	99.284
860.90	104.566
861.07	113.470
861.24	99.314
861.41	95.767
861.58	100.706
861.75	97.613
861.92	88.403
862.09	100.759
862.26	94.563
862.43	111.019
862.59	89.120
862.76	96.603
862.93	114.865
863.10	103.819
863.27	103.835
863.44	100.490
863.61	96.818
863.78	110.149
863.95	109.264
864.12	113.084
864.29	139.210
864.45	77.330
864.62	103.403
864.79	105.198
864.96	92.060
865.13	93.126
865.30	104.762
865.47	111.699
865.64	106.604
865.81	109.917
865.97	76.739
866.14	99.777
866.31	68.075
866.48	103.896
866.65	83.594
866.82	108.153
866.99	115.831
867.16	89.791
867.33	90.118
867.49	86.797
867.66	89.880
867.83	84.141
868.00	88.124
868.17	106.897
868.34	89.732
868.51	58.937
868.67	89.573
868.84	83.218
869.01	105.069
869.18	94.390
869.35	92.053
869.52	84.000
869.69	125.000
869.85	100.000
870.02	91.262
870.19	116.268
870.36	109.788
870.53	68.298
870.70	93.191
870.86	86.528
871.03	102.088
871.20	94.307
871.37	114.324
871.54	90.761
871.71	90.049
871.87	107.609
872.04	104.290
872.21	86.976
872.38	100.244
872.55	108.608
872.72	96.396
872.88	117.746
873.05	77.260
873.22	89.047
873.39	93.381
873.56	95.444
873.72	99.760
873.89	109.593
874.06	89.948
874.23	94.241
874.40	81.696
874.56	91.060
874.73	95.146
874.90	94.385
875.07	84.716
875.24	80.191
875.40	75.056
875.57	82.727
875.74	99.024
875.91	99.187
876.08	82.159
876.24	88.017
876.41	115.228
876.58	95.227
876.75	100.551
876.92	88.393
877.08	79.687
877.25	85.567
877.42	81.301
877.59	115.291
877.75	93.686
877.92	71.863
878.09	85.383
878.26	89.558
878.42	103.723
878.59	106.195
878.76	76.087
878.93	93.665
879.09	91.266
879.26	84.300
879.43	94.382
879.60	83.365
879.76	74.377
879.93	91.832
880.10	74.419
880.27	71.795
880.43	68.971
880.60	73.041
880.77	60.769
880.94	55.930
881.10	57.295
881.27	65.046
881.44	34.608
881.61	56.037
881.77	55.618
881.94	50.216
882.11	47.435
882.28	46.953
882.44	53.330
882.61	55.904
882.78	53.592
882.94	60.574
883.11	57.669
883.28	59.875
883.45	58.679
883.61	56.368
883.78	55.499
883.95	59.629
884.11	56.433
884.28	55.992
>>>>>End Processed Spectral Data<<<<<
