SpectraSuite Data File
++++++++++++++++++++++++++++++++++++
Date: Mon Sep 23 04:06:43 EST 2019
User: sgrac
Dark Spectrum Present: Yes
Reference Spectrum Present: Yes
Number of Sampled Component Spectra: 1
Spectrometers: USB4E01596
Integration Time (usec): 100000 (USB4E01596)
Spectra Averaged: 3 (USB4E01596)
Boxcar Smoothing: 0 (USB4E01596)
Correct for Electrical Dark: No (USB4E01596)
Strobe/Lamp Enabled: Yes (USB4E01596)
Correct for Detector Non-linearity: No (USB4E01596)
Correct for Stray Light: No (USB4E01596)
Number of Pixels in Processed Spectrum: 3648
>>>>>Begin Processed Spectral Data<<<<<
178.44	1623.077
178.66	1623.077
178.87	1623.077
179.09	9033.333
179.30	-5275.000
179.52	-770.968
179.74	-528.302
179.95	740.909
180.17	-530.556
180.38	508.772
180.60	-2518.182
180.82	886.667
181.03	5183.333
181.25	-2400.000
181.46	-1276.000
181.68	1554.167
181.89	-663.636
182.11	-1556.250
182.33	-2193.750
182.54	787.500
182.76	4916.667
182.97	-593.617
183.19	1675.000
183.40	294.215
183.62	402.564
183.84	314.545
184.05	4642.857
184.27	500.000
184.48	412.121
184.70	1770.588
184.91	1476.190
185.13	2970.000
185.34	-13200.000
185.56	1342.308
185.78	381.944
185.99	1002.778
186.21	384.091
186.42	-7050.000
186.64	2440.000
186.85	-5300.000
187.07	652.000
187.28	363.158
187.50	532.727
187.72	351.282
187.93	805.455
188.15	367.708
188.36	515.789
188.58	559.184
188.79	375.962
189.01	494.366
189.22	916.216
189.44	-939.394
189.65	347.458
189.87	-6825.000
190.09	487.302
190.30	771.429
190.52	616.667
190.73	700.000
190.95	-4400.000
191.16	403.571
191.38	537.838
191.59	489.706
191.81	554.839
192.02	1893.333
192.24	940.625
192.45	805.882
192.67	-1837.500
192.88	445.283
193.10	524.590
193.31	880.000
193.53	253.226
193.74	460.000
193.96	2214.286
194.18	1173.077
194.39	2006.667
194.61	457.534
194.82	1331.818
195.04	385.366
195.25	-482.456
195.47	-470.370
195.68	5000.000
195.90	620.000
196.11	429.851
196.33	29700.000
196.54	900.000
196.76	2178.571
196.97	428.571
197.19	883.784
197.40	2478.571
197.62	258.716
197.83	883.871
198.05	574.545
198.26	855.172
198.48	439.437
198.69	538.333
198.91	1411.111
199.12	732.558
199.34	750.000
199.55	467.143
199.77	2263.158
199.98	917.647
200.20	430.263
200.41	530.645
200.63	314.159
200.84	2171.429
201.06	3122.222
201.27	724.390
201.49	514.085
201.70	-780.000
201.91	534.722
202.13	569.492
202.34	524.138
202.56	-1160.000
202.77	571.111
202.99	4616.667
203.20	-3600.000
203.42	1943.750
203.63	385.526
203.85	5233.333
204.06	522.000
204.28	315.152
204.49	494.444
204.71	447.458
204.92	1438.462
205.14	0.000
205.35	720.000
205.56	-1295.000
205.78	7040.000
205.99	-1978.571
206.21	11700.000
206.42	620.455
206.64	1045.161
206.85	974.074
207.07	-2577.778
207.28	515.517
207.50	647.826
207.71	880.645
207.93	350.602
208.14	-1100.000
208.35	541.818
208.57	1200.000
208.78	-3066.667
209.00	402.128
209.21	-14750.000
209.43	-9466.667
209.64	-1540.000
209.86	338.144
210.07	516.279
210.28	397.183
210.50	1220.690
210.71	505.882
210.93	244.853
211.14	415.730
211.36	2118.750
211.57	518.182
211.78	504.286
212.00	442.353
212.21	474.286
212.43	789.744
212.64	434.043
212.86	478.378
213.07	354.128
213.29	-661.111
213.50	339.130
213.71	377.011
213.93	362.195
214.14	2154.545
214.36	455.882
214.57	388.608
214.78	804.444
215.00	410.417
215.21	1023.333
215.43	770.270
215.64	395.238
215.86	360.000
216.07	880.000
216.28	702.632
216.50	326.667
216.71	30800.000
216.93	542.424
217.14	1505.556
217.35	260.606
217.57	309.910
217.78	439.506
218.00	313.131
218.21	1247.826
218.42	723.404
218.64	508.929
218.85	558.000
219.07	1425.000
219.28	352.336
219.49	566.667
219.71	430.769
219.92	227.612
220.14	371.134
220.35	506.667
220.56	320.690
220.78	283.654
220.99	252.419
221.21	407.527
221.42	354.321
221.63	224.855
221.85	444.615
222.06	357.143
222.28	418.462
222.49	305.405
222.70	316.535
222.92	657.143
223.13	454.098
223.34	247.518
223.56	380.952
223.77	377.500
223.99	321.053
224.20	358.929
224.41	297.260
224.63	354.545
224.84	256.757
225.05	166.239
225.27	286.087
225.48	309.804
225.69	249.624
225.91	329.730
226.12	291.473
226.34	257.718
226.55	176.259
226.76	272.500
226.98	169.804
227.19	128.125
227.40	277.344
227.62	178.836
227.83	143.348
228.04	101.676
228.26	103.599
228.47	81.303
228.69	72.081
228.90	47.122
229.11	74.617
229.33	56.897
229.54	47.619
229.75	47.234
229.97	37.416
230.18	48.427
230.39	39.712
230.61	46.369
230.82	48.383
231.03	35.769
231.25	43.208
231.46	51.018
231.67	56.750
231.89	47.632
232.10	53.692
232.31	60.498
232.53	64.007
232.74	65.794
232.95	52.813
233.17	53.800
233.38	71.639
233.59	44.712
233.81	71.920
234.02	61.523
234.23	59.220
234.45	79.514
234.66	63.938
234.87	59.631
235.09	62.219
235.30	52.014
235.51	61.210
235.73	63.080
235.94	59.507
236.15	55.783
236.36	56.822
236.58	49.922
236.79	52.065
237.00	61.877
237.22	59.694
237.43	62.186
237.64	59.843
237.86	54.887
238.07	64.261
238.28	50.484
238.50	58.784
238.71	65.288
238.92	58.281
239.13	55.763
239.35	59.253
239.56	64.488
239.77	69.859
239.99	35.966
240.20	54.848
240.41	49.067
240.63	45.418
240.84	40.174
241.05	38.331
241.26	33.825
241.48	38.211
241.69	32.976
241.90	26.173
242.12	26.115
242.33	33.543
242.54	22.057
242.75	25.835
242.97	27.693
243.18	20.738
243.39	18.320
243.61	25.127
243.82	30.065
244.03	26.604
244.24	24.346
244.46	22.646
244.67	31.952
244.88	26.266
245.09	30.781
245.31	30.881
245.52	26.281
245.73	25.333
245.95	47.044
246.16	27.746
246.37	22.144
246.58	26.138
246.80	22.589
247.01	26.682
247.22	23.868
247.43	21.019
247.65	23.391
247.86	22.495
248.07	17.381
248.28	22.559
248.50	24.844
248.71	22.018
248.92	24.233
249.13	21.055
249.35	24.148
249.56	23.884
249.77	23.697
249.98	20.310
250.20	28.512
250.41	26.124
250.62	28.825
250.83	25.348
251.05	28.214
251.26	22.807
251.47	27.312
251.68	29.588
251.90	19.978
252.11	24.939
252.32	24.140
252.53	27.170
252.75	24.281
252.96	28.810
253.17	25.568
253.38	22.318
253.59	23.342
253.81	25.621
254.02	19.434
254.23	23.497
254.44	22.153
254.66	21.202
254.87	23.204
255.08	31.739
255.29	23.116
255.50	22.030
255.72	28.929
255.93	29.522
256.14	33.282
256.35	25.886
256.57	29.803
256.78	29.227
256.99	29.354
257.20	38.479
257.41	23.650
257.63	27.346
257.84	26.621
258.05	24.291
258.26	23.398
258.47	29.343
258.69	24.336
258.90	15.253
259.11	22.935
259.32	21.792
259.53	17.614
259.75	18.712
259.96	15.660
260.17	15.395
260.38	15.231
260.59	18.397
260.81	17.944
261.02	17.689
261.23	18.840
261.44	20.260
261.65	20.403
261.87	18.872
262.08	21.326
262.29	21.114
262.50	18.976
262.71	19.411
262.92	21.694
263.14	18.425
263.35	20.088
263.56	20.162
263.77	20.603
263.98	23.052
264.20	23.490
264.41	16.986
264.62	16.462
264.83	15.742
265.04	26.195
265.25	20.870
265.47	21.861
265.68	23.262
265.89	22.314
266.10	16.020
266.31	24.783
266.52	17.536
266.74	22.151
266.95	19.318
267.16	20.598
267.37	18.642
267.58	18.476
267.79	17.886
268.01	17.927
268.22	19.196
268.43	20.136
268.64	19.299
268.85	19.124
269.06	16.820
269.27	23.152
269.49	16.471
269.70	15.846
269.91	20.693
270.12	17.618
270.33	21.345
270.54	15.775
270.75	16.026
270.97	22.755
271.18	17.806
271.39	17.262
271.60	18.716
271.81	18.363
272.02	18.068
272.23	19.282
272.45	17.479
272.66	15.349
272.87	16.496
273.08	14.357
273.29	20.900
273.50	18.192
273.71	17.030
273.92	16.289
274.14	16.949
274.35	19.654
274.56	19.277
274.77	19.899
274.98	19.053
275.19	17.982
275.40	15.505
275.61	16.388
275.83	20.173
276.04	20.258
276.25	20.080
276.46	17.525
276.67	20.815
276.88	23.458
277.09	17.438
277.30	20.056
277.51	20.836
277.73	15.399
277.94	17.685
278.15	21.323
278.36	20.532
278.57	17.145
278.78	18.159
278.99	19.945
279.20	19.107
279.41	23.316
279.62	16.838
279.84	15.624
280.05	16.531
280.26	14.558
280.47	17.543
280.68	17.412
280.89	14.078
281.10	17.857
281.31	19.850
281.52	22.887
281.73	12.319
281.94	15.405
282.16	16.066
282.37	12.807
282.58	13.079
282.79	20.273
283.00	19.970
283.21	16.990
283.42	16.009
283.63	19.112
283.84	14.998
284.05	15.467
284.26	15.562
284.47	18.139
284.68	16.847
284.89	16.492
285.11	15.900
285.32	13.345
285.53	16.773
285.74	19.925
285.95	16.875
286.16	15.253
286.37	15.493
286.58	15.418
286.79	13.609
287.00	16.636
287.21	15.061
287.42	16.926
287.63	15.645
287.84	16.177
288.05	16.162
288.26	15.442
288.48	16.877
288.69	14.262
288.90	14.725
289.11	19.247
289.32	18.619
289.53	17.093
289.74	12.027
289.95	15.245
290.16	16.860
290.37	14.595
290.58	13.314
290.79	13.827
291.00	12.713
291.21	12.956
291.42	11.785
291.63	15.999
291.84	17.231
292.05	12.367
292.26	13.248
292.47	14.686
292.68	12.348
292.89	16.663
293.10	16.873
293.31	16.732
293.52	11.273
293.73	12.947
293.94	12.740
294.15	13.098
294.36	15.304
294.57	15.845
294.79	12.403
295.00	9.380
295.21	16.016
295.42	14.820
295.63	15.501
295.84	13.449
296.05	11.221
296.26	11.642
296.47	13.211
296.68	13.815
296.89	16.015
297.10	14.663
297.31	14.399
297.52	9.779
297.73	14.636
297.94	14.364
298.15	13.717
298.36	14.855
298.57	12.160
298.78	15.401
298.99	13.680
299.20	15.335
299.41	15.587
299.62	14.495
299.83	11.632
300.04	12.776
300.25	15.157
300.46	16.077
300.67	15.246
300.88	15.169
301.09	11.814
301.30	14.842
301.50	12.471
301.71	18.024
301.92	15.121
302.13	13.114
302.34	12.846
302.55	11.309
302.76	11.531
302.97	13.828
303.18	12.896
303.39	12.031
303.60	12.297
303.81	14.687
304.02	9.949
304.23	14.646
304.44	12.526
304.65	10.733
304.86	13.448
305.07	11.520
305.28	11.545
305.49	16.014
305.70	14.038
305.91	13.164
306.12	13.008
306.33	12.570
306.54	11.926
306.75	14.063
306.96	18.787
307.17	13.158
307.38	11.353
307.58	12.831
307.79	12.356
308.00	11.882
308.21	10.229
308.42	12.844
308.63	11.280
308.84	11.739
309.05	12.436
309.26	10.497
309.47	12.029
309.68	11.740
309.89	12.712
310.10	12.095
310.31	11.553
310.52	11.111
310.73	15.436
310.94	10.230
311.14	12.253
311.35	11.357
311.56	12.545
311.77	11.474
311.98	11.708
312.19	13.128
312.40	9.292
312.61	11.997
312.82	12.535
313.03	11.367
313.24	12.262
313.45	14.342
313.66	11.157
313.86	15.621
314.07	11.569
314.28	14.478
314.49	10.454
314.70	13.738
314.91	14.408
315.12	12.559
315.33	14.448
315.54	10.516
315.75	10.957
315.96	10.379
316.16	9.880
316.37	12.901
316.58	11.223
316.79	11.400
317.00	12.414
317.21	11.219
317.42	14.310
317.63	11.658
317.84	12.774
318.05	12.577
318.25	12.576
318.46	12.376
318.67	11.442
318.88	14.000
319.09	14.845
319.30	9.901
319.51	11.666
319.72	14.017
319.93	10.769
320.13	10.706
320.34	13.119
320.55	12.078
320.76	13.177
320.97	13.460
321.18	14.652
321.39	11.047
321.60	13.327
321.80	16.723
322.01	11.995
322.22	10.383
322.43	12.082
322.64	10.709
322.85	13.435
323.06	14.162
323.27	12.829
323.47	12.637
323.68	13.439
323.89	12.224
324.10	13.043
324.31	11.322
324.52	13.281
324.73	14.535
324.93	12.125
325.14	12.453
325.35	12.218
325.56	11.705
325.77	14.041
325.98	13.209
326.19	12.200
326.39	9.765
326.60	10.845
326.81	11.823
327.02	10.405
327.23	11.342
327.44	14.137
327.64	8.729
327.85	10.281
328.06	13.043
328.27	15.358
328.48	13.879
328.69	9.323
328.90	10.808
329.10	12.104
329.31	12.884
329.52	11.604
329.73	14.853
329.94	10.962
330.15	12.794
330.35	13.637
330.56	12.525
330.77	11.899
330.98	10.217
331.19	12.010
331.39	12.490
331.60	11.578
331.81	11.905
332.02	11.104
332.23	10.680
332.44	10.092
332.64	12.885
332.85	10.984
333.06	12.469
333.27	9.963
333.48	13.126
333.68	10.471
333.89	11.317
334.10	11.757
334.31	13.152
334.52	10.940
334.72	9.764
334.93	11.199
335.14	9.520
335.35	10.499
335.56	12.786
335.76	9.695
335.97	12.874
336.18	11.015
336.39	13.623
336.60	12.544
336.80	10.126
337.01	9.558
337.22	9.945
337.43	11.475
337.64	14.885
337.84	11.511
338.05	10.559
338.26	14.024
338.47	14.161
338.68	9.006
338.88	11.547
339.09	11.154
339.30	12.663
339.51	10.932
339.71	12.294
339.92	9.594
340.13	10.649
340.34	10.877
340.55	10.750
340.75	12.424
340.96	10.105
341.17	11.998
341.38	10.216
341.58	11.265
341.79	11.273
342.00	9.422
342.21	11.149
342.41	9.547
342.62	11.167
342.83	10.693
343.04	8.579
343.24	10.682
343.45	11.676
343.66	8.839
343.87	10.624
344.07	8.082
344.28	11.680
344.49	11.017
344.70	12.954
344.90	10.185
345.11	8.617
345.32	9.559
345.53	9.562
345.73	11.513
345.94	12.107
346.15	11.835
346.36	10.186
346.56	11.450
346.77	13.077
346.98	10.339
347.19	12.292
347.39	10.721
347.60	10.537
347.81	11.758
348.02	11.674
348.22	9.298
348.43	10.420
348.64	9.979
348.84	11.653
349.05	12.534
349.26	14.118
349.47	9.855
349.67	11.095
349.88	11.390
350.09	11.170
350.30	13.138
350.50	11.101
350.71	12.078
350.92	11.008
351.12	11.772
351.33	10.368
351.54	11.296
351.74	11.803
351.95	10.730
352.16	12.867
352.37	12.443
352.57	11.796
352.78	11.235
352.99	12.650
353.19	10.749
353.40	11.614
353.61	14.137
353.82	14.123
354.02	13.048
354.23	12.193
354.44	14.292
354.64	12.382
354.85	12.648
355.06	13.466
355.26	11.503
355.47	12.216
355.68	12.668
355.88	14.764
356.09	13.942
356.30	13.760
356.51	13.735
356.71	13.496
356.92	11.367
357.13	14.343
357.33	14.919
357.54	13.379
357.75	10.416
357.95	14.774
358.16	13.572
358.37	16.093
358.57	12.055
358.78	15.577
358.99	14.061
359.19	13.917
359.40	15.473
359.61	13.389
359.81	15.900
360.02	17.713
360.23	12.615
360.43	13.715
360.64	13.677
360.85	14.944
361.05	13.253
361.26	16.293
361.47	14.199
361.67	15.158
361.88	12.338
362.09	15.665
362.29	13.844
362.50	14.205
362.70	12.363
362.91	16.146
363.12	14.321
363.32	15.300
363.53	15.961
363.74	15.938
363.94	13.107
364.15	17.787
364.36	16.878
364.56	15.038
364.77	15.306
364.98	17.418
365.18	15.348
365.39	16.866
365.59	13.377
365.80	15.280
366.01	16.489
366.21	13.940
366.42	13.067
366.63	16.513
366.83	14.382
367.04	12.454
367.24	16.189
367.45	14.618
367.66	13.607
367.86	15.428
368.07	13.923
368.28	14.969
368.48	14.572
368.69	12.754
368.89	15.312
369.10	15.285
369.31	15.132
369.51	15.143
369.72	15.983
369.92	17.349
370.13	12.952
370.34	15.377
370.54	11.086
370.75	14.652
370.95	13.631
371.16	15.603
371.37	14.746
371.57	15.022
371.78	14.058
371.98	15.976
372.19	15.477
372.40	16.241
372.60	15.855
372.81	16.513
373.01	14.248
373.22	14.995
373.43	14.804
373.63	16.773
373.84	16.360
374.04	15.757
374.25	14.708
374.46	16.683
374.66	15.490
374.87	17.472
375.07	12.960
375.28	14.451
375.48	15.381
375.69	15.878
375.90	13.517
376.10	13.227
376.31	15.380
376.51	15.452
376.72	15.136
376.92	13.834
377.13	15.370
377.34	17.478
377.54	15.285
377.75	17.621
377.95	15.809
378.16	17.780
378.36	17.065
378.57	17.741
378.77	15.834
378.98	17.171
379.19	15.959
379.39	16.524
379.60	15.998
379.80	16.974
380.01	17.210
380.21	16.092
380.42	17.622
380.62	17.375
380.83	16.668
381.04	17.149
381.24	17.419
381.45	17.679
381.65	16.316
381.86	17.369
382.06	18.395
382.27	16.327
382.47	16.877
382.68	17.936
382.88	16.461
383.09	17.777
383.29	17.834
383.50	18.973
383.71	17.497
383.91	18.933
384.12	18.269
384.32	19.181
384.53	17.613
384.73	17.221
384.94	17.133
385.14	18.188
385.35	17.278
385.55	18.350
385.76	18.698
385.96	19.087
386.17	19.374
386.37	20.437
386.58	19.625
386.78	20.397
386.99	18.867
387.19	21.104
387.40	19.378
387.60	21.375
387.81	19.749
388.01	20.559
388.22	20.452
388.42	22.096
388.63	21.816
388.83	22.926
389.04	20.338
389.24	21.840
389.45	22.258
389.65	21.315
389.86	22.509
390.06	21.866
390.27	21.801
390.47	22.240
390.68	21.983
390.88	23.487
391.09	23.435
391.29	23.942
391.50	22.777
391.70	23.628
391.91	23.942
392.11	24.238
392.32	23.283
392.52	25.030
392.73	23.984
392.93	24.736
393.14	24.714
393.34	24.869
393.55	25.022
393.75	25.489
393.95	25.231
394.16	26.665
394.36	25.778
394.57	26.516
394.77	25.598
394.98	27.171
395.18	26.092
395.39	26.720
395.59	26.409
395.80	27.641
396.00	26.867
396.21	28.278
396.41	26.262
396.61	28.006
396.82	28.062
397.02	28.683
397.23	27.853
397.43	28.753
397.64	26.607
397.84	29.049
398.05	26.803
398.25	28.456
398.45	28.424
398.66	28.466
398.86	28.395
399.07	28.534
399.27	28.321
399.48	29.319
399.68	28.036
399.89	28.472
400.09	29.056
400.29	28.507
400.50	29.943
400.70	29.752
400.91	29.083
401.11	28.784
401.32	29.813
401.52	29.209
401.72	29.216
401.93	30.581
402.13	29.872
402.34	29.986
402.54	28.956
402.75	30.886
402.95	28.177
403.15	30.480
403.36	29.740
403.56	30.398
403.77	29.996
403.97	29.220
404.17	28.561
404.38	30.908
404.58	29.603
404.79	30.348
404.99	30.037
405.19	30.784
405.40	29.843
405.60	30.075
405.81	30.258
406.01	30.579
406.21	30.891
406.42	30.897
406.62	29.743
406.83	31.178
407.03	31.481
407.23	30.884
407.44	30.089
407.64	30.496
407.85	31.056
408.05	30.531
408.25	30.913
408.46	31.713
408.66	30.806
408.87	30.876
409.07	30.406
409.27	30.641
409.48	30.310
409.68	31.084
409.88	30.438
410.09	29.552
410.29	31.057
410.50	30.898
410.70	29.913
410.90	30.143
411.11	29.659
411.31	29.983
411.51	31.283
411.72	30.824
411.92	29.976
412.12	31.455
412.33	31.059
412.53	30.098
412.74	30.065
412.94	30.359
413.14	30.618
413.35	30.946
413.55	30.725
413.75	31.378
413.96	30.238
414.16	30.759
414.36	29.947
414.57	30.721
414.77	29.331
414.97	30.533
415.18	30.327
415.38	30.153
415.58	30.221
415.79	30.138
415.99	29.454
416.19	30.445
416.40	29.876
416.60	30.083
416.80	29.582
417.01	30.271
417.21	29.424
417.41	30.585
417.62	29.620
417.82	30.227
418.02	29.757
418.23	29.542
418.43	28.804
418.63	29.623
418.84	29.677
419.04	29.299
419.24	29.890
419.45	29.246
419.65	29.200
419.85	29.669
420.06	29.717
420.26	29.640
420.46	29.240
420.67	29.415
420.87	29.102
421.07	28.718
421.28	28.857
421.48	28.900
421.68	29.562
421.88	28.875
422.09	29.533
422.29	28.904
422.49	29.177
422.70	28.845
422.90	28.909
423.10	29.629
423.31	30.015
423.51	29.332
423.71	29.767
423.91	29.238
424.12	29.430
424.32	29.212
424.52	29.354
424.73	29.039
424.93	29.261
425.13	29.106
425.33	29.113
425.54	28.676
425.74	29.165
425.94	29.942
426.15	29.610
426.35	29.290
426.55	29.671
426.75	30.233
426.96	30.243
427.16	29.975
427.36	30.320
427.57	30.479
427.77	29.863
427.97	30.506
428.17	29.925
428.38	30.617
428.58	29.535
428.78	30.217
428.98	29.797
429.19	29.536
429.39	29.417
429.59	29.847
429.79	29.196
430.00	29.439
430.20	29.793
430.40	29.907
430.60	29.517
430.81	29.608
431.01	29.734
431.21	29.812
431.41	29.536
431.62	30.253
431.82	29.731
432.02	29.534
432.22	29.371
432.43	30.131
432.63	30.155
432.83	29.165
433.03	28.728
433.24	29.195
433.44	29.228
433.64	29.101
433.84	29.531
434.05	29.510
434.25	29.752
434.45	29.782
434.65	29.722
434.85	29.901
435.06	30.217
435.26	29.988
435.46	30.284
435.66	30.481
435.87	30.942
436.07	30.233
436.27	30.217
436.47	30.825
436.67	30.272
436.88	30.593
437.08	29.801
437.28	30.271
437.48	30.257
437.69	30.247
437.89	30.572
438.09	30.805
438.29	30.130
438.49	30.499
438.70	30.634
438.90	30.483
439.10	29.726
439.30	29.888
439.50	29.741
439.71	30.389
439.91	30.219
440.11	30.119
440.31	30.082
440.51	29.852
440.72	30.189
440.92	29.704
441.12	30.829
441.32	30.812
441.52	30.541
441.72	30.227
441.93	31.086
442.13	30.837
442.33	30.833
442.53	30.961
442.73	30.630
442.94	30.984
443.14	31.485
443.34	31.475
443.54	30.867
443.74	30.536
443.94	31.285
444.15	30.668
444.35	31.273
444.55	30.465
444.75	30.165
444.95	30.854
445.15	30.509
445.36	30.597
445.56	30.273
445.76	30.404
445.96	30.468
446.16	30.315
446.36	30.091
446.57	30.240
446.77	30.357
446.97	30.406
447.17	30.744
447.37	30.680
447.57	30.578
447.77	30.552
447.98	31.138
448.18	30.705
448.38	31.149
448.58	31.494
448.78	31.482
448.98	31.144
449.18	31.316
449.39	31.736
449.59	31.510
449.79	31.697
449.99	31.551
450.19	31.633
450.39	31.119
450.59	31.348
450.79	31.227
451.00	31.085
451.20	32.772
451.40	31.300
451.60	31.178
451.80	30.773
452.00	31.153
452.20	31.084
452.40	30.745
452.61	31.003
452.81	30.868
453.01	30.249
453.21	31.042
453.41	31.142
453.61	31.221
453.81	31.126
454.01	31.635
454.21	31.294
454.42	31.092
454.62	31.727
454.82	31.530
455.02	31.550
455.22	31.211
455.42	31.057
455.62	31.358
455.82	31.564
456.02	31.946
456.23	31.148
456.43	30.686
456.63	30.796
456.83	31.078
457.03	31.093
457.23	31.418
457.43	31.208
457.63	30.848
457.83	30.991
458.03	31.523
458.23	30.242
458.43	30.858
458.64	30.659
458.84	31.543
459.04	30.551
459.24	29.942
459.44	29.916
459.64	29.845
459.84	29.478
460.04	29.707
460.24	30.250
460.44	30.526
460.64	30.408
460.84	31.026
461.04	30.427
461.24	30.684
461.45	30.645
461.65	31.605
461.85	31.758
462.05	31.604
462.25	31.422
462.45	31.701
462.65	31.428
462.85	31.531
463.05	31.221
463.25	31.114
463.45	31.426
463.65	31.732
463.85	31.161
464.05	31.344
464.25	31.303
464.45	30.528
464.65	30.971
464.85	31.479
465.05	31.211
465.26	31.939
465.46	30.735
465.66	31.034
465.86	30.996
466.06	30.995
466.26	30.858
466.46	31.076
466.66	31.027
466.86	31.096
467.06	30.844
467.26	31.185
467.46	30.994
467.66	30.699
467.86	30.870
468.06	31.463
468.26	31.410
468.46	31.131
468.66	31.654
468.86	31.343
469.06	31.539
469.26	31.071
469.46	31.476
469.66	30.951
469.86	30.718
470.06	31.614
470.26	31.316
470.46	31.462
470.66	31.413
470.86	31.197
471.06	31.663
471.26	31.847
471.46	31.604
471.66	31.561
471.86	31.676
472.06	31.476
472.26	31.587
472.46	31.722
472.66	31.930
472.86	32.234
473.06	31.852
473.26	31.988
473.46	31.742
473.66	31.600
473.86	31.529
474.06	31.965
474.26	32.199
474.46	31.796
474.66	32.352
474.86	31.729
475.06	32.162
475.26	32.172
475.46	32.167
475.66	32.074
475.86	31.766
476.06	32.216
476.26	32.264
476.46	31.984
476.66	32.123
476.86	32.143
477.06	32.172
477.26	32.061
477.46	31.593
477.65	31.956
477.85	32.353
478.05	32.320
478.25	32.520
478.45	32.631
478.65	32.311
478.85	31.880
479.05	31.932
479.25	32.640
479.45	32.126
479.65	32.559
479.85	31.994
480.05	32.241
480.25	32.106
480.45	32.593
480.65	32.480
480.85	32.227
481.05	32.447
481.25	32.580
481.44	32.314
481.64	32.027
481.84	32.341
482.04	32.267
482.24	32.548
482.44	32.097
482.64	31.789
482.84	32.090
483.04	31.343
483.24	31.299
483.44	31.060
483.64	30.412
483.84	30.717
484.04	31.453
484.23	31.869
484.43	32.590
484.63	33.211
484.83	34.186
485.03	35.311
485.23	35.557
485.43	35.005
485.63	34.990
485.83	34.548
486.03	34.863
486.23	34.541
486.42	34.577
486.62	33.820
486.82	33.262
487.02	32.970
487.22	32.566
487.42	32.638
487.62	32.391
487.82	32.183
488.02	32.304
488.22	32.762
488.41	32.836
488.61	32.950
488.81	33.321
489.01	33.507
489.21	33.832
489.41	33.900
489.61	34.070
489.81	33.970
490.01	33.923
490.20	34.260
490.40	33.687
490.60	33.615
490.80	33.360
491.00	32.722
491.20	32.646
491.40	31.949
491.60	31.701
491.79	31.908
491.99	32.791
492.19	32.535
492.39	32.965
492.59	33.139
492.79	32.919
492.99	33.071
493.19	33.469
493.38	34.013
493.58	33.923
493.78	34.003
493.98	33.816
494.18	34.095
494.38	33.942
494.58	34.091
494.77	33.845
494.97	33.530
495.17	33.380
495.37	33.201
495.57	33.503
495.77	32.887
495.96	33.493
496.16	33.250
496.36	32.974
496.56	32.109
496.76	32.352
496.96	32.366
497.15	32.805
497.35	32.749
497.55	33.113
497.75	33.016
497.95	32.830
498.15	33.106
498.34	33.056
498.54	33.189
498.74	33.836
498.94	33.616
499.14	33.781
499.34	33.636
499.53	33.123
499.73	33.422
499.93	33.142
500.13	32.901
500.33	33.418
500.52	33.145
500.72	33.561
500.92	34.155
501.12	33.861
501.32	32.958
501.52	33.601
501.71	33.527
501.91	33.367
502.11	33.456
502.31	33.002
502.51	33.275
502.70	33.481
502.90	32.747
503.10	33.360
503.30	33.714
503.50	33.593
503.69	33.208
503.89	33.941
504.09	33.210
504.29	34.172
504.48	33.401
504.68	33.244
504.88	33.374
505.08	33.605
505.28	33.289
505.47	33.412
505.67	33.462
505.87	34.023
506.07	33.485
506.27	33.836
506.46	33.468
506.66	33.663
506.86	33.440
507.06	34.156
507.25	33.430
507.45	34.706
507.65	33.601
507.85	33.731
508.04	34.104
508.24	33.942
508.44	33.831
508.64	33.552
508.83	33.449
509.03	33.525
509.23	33.228
509.43	33.277
509.63	33.622
509.82	33.803
510.02	33.985
510.22	33.838
510.42	33.973
510.61	34.127
510.81	33.524
511.01	34.286
511.21	33.668
511.40	34.282
511.60	34.180
511.80	33.979
511.99	34.111
512.19	34.033
512.39	33.996
512.59	34.045
512.78	34.452
512.98	33.348
513.18	34.393
513.38	34.493
513.57	34.067
513.77	34.465
513.97	34.066
514.17	34.597
514.36	34.121
514.56	34.463
514.76	34.388
514.95	34.426
515.15	34.373
515.35	34.477
515.55	34.111
515.74	33.875
515.94	34.087
516.14	33.724
516.33	34.361
516.53	34.436
516.73	34.164
516.93	34.168
517.12	34.006
517.32	33.923
517.52	33.760
517.71	33.757
517.91	33.661
518.11	33.834
518.30	34.040
518.50	33.689
518.70	33.890
518.90	33.995
519.09	33.875
519.29	34.314
519.49	34.378
519.68	34.401
519.88	34.216
520.08	34.760
520.27	34.463
520.47	34.828
520.67	34.754
520.86	35.294
521.06	34.711
521.26	34.778
521.45	34.705
521.65	34.951
521.85	34.764
522.04	34.906
522.24	34.692
522.44	35.010
522.63	34.433
522.83	34.615
523.03	34.690
523.22	34.578
523.42	35.601
523.62	34.569
523.81	34.549
524.01	34.972
524.21	34.533
524.40	34.231
524.60	34.356
524.80	34.106
524.99	33.692
525.19	34.495
525.39	34.222
525.58	34.236
525.78	34.078
525.98	33.996
526.17	34.458
526.37	34.564
526.57	34.137
526.76	35.113
526.96	34.062
527.15	34.758
527.35	34.825
527.55	34.691
527.74	34.805
527.94	34.066
528.14	33.517
528.33	33.524
528.53	33.543
528.72	34.185
528.92	34.393
529.12	34.657
529.31	34.878
529.51	35.549
529.71	35.801
529.90	35.992
530.10	35.766
530.29	36.254
530.49	36.728
530.69	36.836
530.88	36.447
531.08	36.348
531.28	35.878
531.47	35.968
531.67	35.638
531.86	35.547
532.06	35.136
532.26	35.194
532.45	35.036
532.65	34.799
532.84	34.656
533.04	34.854
533.24	34.418
533.43	34.631
533.63	34.620
533.82	35.410
534.02	35.313
534.22	35.339
534.41	35.494
534.61	35.492
534.80	35.689
535.00	36.075
535.19	36.093
535.39	36.474
535.59	36.221
535.78	36.559
535.98	35.915
536.17	35.821
536.37	35.474
536.57	34.965
536.76	35.482
536.96	35.310
537.15	35.302
537.35	35.279
537.54	35.288
537.74	35.794
537.93	35.716
538.13	35.647
538.33	35.884
538.52	36.298
538.72	36.678
538.91	36.606
539.11	36.192
539.30	36.056
539.50	35.937
539.70	35.719
539.89	35.847
540.09	35.617
540.28	35.178
540.48	35.471
540.67	34.387
540.87	34.784
541.06	34.228
541.26	34.805
541.45	34.868
541.65	35.478
541.85	35.497
542.04	35.689
542.24	35.872
542.43	36.037
542.63	36.213
542.82	36.472
543.02	36.465
543.21	37.394
543.41	37.159
543.60	37.281
543.80	36.722
543.99	37.026
544.19	36.745
544.38	36.868
544.58	37.260
544.77	36.958
544.97	36.904
545.16	36.802
545.36	36.280
545.56	37.124
545.75	36.677
545.95	37.275
546.14	36.736
546.34	36.690
546.53	36.517
546.73	36.118
546.92	36.932
547.12	36.703
547.31	36.200
547.51	36.951
547.70	36.513
547.90	37.193
548.09	36.908
548.29	37.126
548.48	37.327
548.68	37.624
548.87	37.235
549.07	37.680
549.26	37.944
549.46	38.258
549.65	38.076
549.84	37.708
550.04	37.551
550.23	37.574
550.43	37.771
550.62	37.904
550.82	37.810
551.01	38.771
551.21	37.788
551.40	37.951
551.60	38.307
551.79	37.917
551.99	37.178
552.18	37.843
552.38	37.483
552.57	37.929
552.77	38.094
552.96	38.734
553.16	38.237
553.35	37.730
553.54	37.907
553.74	38.382
553.93	38.452
554.13	39.513
554.32	38.419
554.52	39.508
554.71	39.139
554.91	39.538
555.10	39.227
555.29	38.980
555.49	39.505
555.68	39.595
555.88	38.769
556.07	39.045
556.27	39.198
556.46	39.263
556.66	39.822
556.85	39.360
557.04	39.120
557.24	39.611
557.43	39.908
557.63	39.283
557.82	39.766
558.02	40.385
558.21	39.965
558.40	40.125
558.60	40.478
558.79	40.475
558.99	40.065
559.18	39.847
559.38	40.232
559.57	40.438
559.76	40.508
559.96	42.165
560.15	40.658
560.35	40.641
560.54	40.775
560.73	41.388
560.93	40.070
561.12	40.914
561.32	40.571
561.51	40.999
561.70	41.304
561.90	41.160
562.09	41.493
562.29	41.314
562.48	41.235
562.67	42.229
562.87	42.287
563.06	41.516
563.26	42.176
563.45	42.429
563.64	41.908
563.84	42.708
564.03	41.720
564.23	42.741
564.42	42.743
564.61	42.642
564.81	41.556
565.00	42.187
565.20	42.218
565.39	42.727
565.58	42.834
565.78	42.361
565.97	42.435
566.16	42.540
566.36	42.850
566.55	42.846
566.74	42.984
566.94	43.386
567.13	43.330
567.33	43.474
567.52	43.346
567.71	44.060
567.91	43.449
568.10	44.177
568.29	44.506
568.49	44.569
568.68	43.884
568.87	44.873
569.07	44.403
569.26	44.589
569.45	44.803
569.65	43.986
569.84	44.304
570.04	43.771
570.23	44.754
570.42	44.223
570.62	45.081
570.81	44.727
571.00	44.454
571.20	45.028
571.39	44.390
571.58	45.120
571.78	44.778
571.97	45.064
572.16	44.994
572.36	44.865
572.55	45.031
572.74	45.100
572.94	44.764
573.13	46.111
573.32	45.435
573.51	45.493
573.71	45.600
573.90	44.941
574.09	45.574
574.29	45.810
574.48	45.329
574.67	45.808
574.87	46.317
575.06	45.846
575.25	45.679
575.45	45.508
575.64	45.396
575.83	46.315
576.03	47.263
576.22	46.249
576.41	46.394
576.60	45.711
576.80	46.379
576.99	46.622
577.18	46.311
577.38	47.055
577.57	46.592
577.76	46.417
577.95	46.223
578.15	46.028
578.34	46.636
578.53	46.506
578.73	46.338
578.92	46.981
579.11	46.331
579.30	47.064
579.50	46.504
579.69	46.504
579.88	46.521
580.08	46.132
580.27	45.936
580.46	46.824
580.65	46.050
580.85	46.779
581.04	46.617
581.23	46.651
581.42	46.594
581.62	46.285
581.81	46.949
582.00	46.696
582.19	46.856
582.39	45.955
582.58	47.237
582.77	47.160
582.96	46.583
583.16	46.444
583.35	46.640
583.54	47.134
583.73	47.119
583.93	46.226
584.12	46.243
584.31	46.445
584.50	45.530
584.70	46.631
584.89	46.025
585.08	46.509
585.27	47.722
585.47	46.538
585.66	46.304
585.85	46.691
586.04	46.613
586.24	46.763
586.43	46.302
586.62	47.489
586.81	46.433
587.00	47.532
587.20	46.293
587.39	46.269
587.58	47.641
587.77	47.149
587.97	46.710
588.16	46.928
588.35	46.274
588.54	46.294
588.73	46.596
588.93	45.795
589.12	46.576
589.31	46.885
589.50	46.559
589.69	46.162
589.89	46.331
590.08	46.708
590.27	46.434
590.46	46.716
590.65	46.778
590.85	46.853
591.04	47.144
591.23	46.941
591.42	46.856
591.61	47.127
591.81	47.422
592.00	48.196
592.19	47.109
592.38	47.134
592.57	47.283
592.77	47.583
592.96	47.094
593.15	47.950
593.34	46.923
593.53	46.789
593.72	47.311
593.92	46.571
594.11	47.378
594.30	47.063
594.49	47.763
594.68	47.095
594.87	47.072
595.07	46.852
595.26	46.895
595.45	47.140
595.64	46.572
595.83	46.997
596.02	47.319
596.22	46.881
596.41	46.831
596.60	46.733
596.79	47.463
596.98	46.896
597.17	47.443
597.37	47.792
597.56	47.484
597.75	47.002
597.94	47.484
598.13	47.667
598.32	47.178
598.51	48.625
598.71	48.634
598.90	47.921
599.09	49.016
599.28	49.158
599.47	48.389
599.66	48.555
599.85	47.389
600.05	47.182
600.24	48.850
600.43	48.534
600.62	49.078
600.81	47.739
601.00	48.644
601.19	48.611
601.38	49.247
601.58	48.615
601.77	48.362
601.96	48.115
602.15	48.941
602.34	48.292
602.53	48.903
602.72	48.939
602.91	48.669
603.10	48.305
603.30	48.485
603.49	48.298
603.68	48.585
603.87	48.927
604.06	48.815
604.25	48.512
604.44	48.584
604.63	48.746
604.82	48.400
605.01	49.474
605.21	49.120
605.40	48.170
605.59	48.451
605.78	48.590
605.97	48.316
606.16	49.695
606.35	49.300
606.54	49.467
606.73	48.914
606.92	49.404
607.11	49.111
607.30	49.479
607.50	48.772
607.69	49.759
607.88	48.659
608.07	47.913
608.26	48.022
608.45	48.955
608.64	48.829
608.83	48.332
609.02	47.647
609.21	47.789
609.40	47.948
609.59	48.645
609.78	48.124
609.97	48.322
610.16	48.334
610.35	48.823
610.55	47.938
610.74	48.571
610.93	48.231
611.12	48.907
611.31	47.742
611.50	48.797
611.69	47.655
611.88	48.898
612.07	48.092
612.26	47.874
612.45	48.088
612.64	48.259
612.83	48.219
613.02	47.800
613.21	48.742
613.40	47.948
613.59	48.895
613.78	47.813
613.97	48.593
614.16	48.850
614.35	47.908
614.54	47.858
614.73	46.723
614.92	47.233
615.11	47.783
615.30	48.020
615.49	47.533
615.68	47.714
615.87	48.003
616.07	46.194
616.26	47.091
616.45	47.155
616.64	47.171
616.83	48.172
617.02	47.853
617.21	47.482
617.40	46.953
617.59	47.677
617.78	46.805
617.97	47.697
618.16	46.862
618.35	46.279
618.54	46.778
618.73	46.508
618.92	46.793
619.11	46.668
619.30	47.523
619.49	46.848
619.68	45.970
619.86	47.113
620.05	46.656
620.24	45.470
620.43	46.536
620.62	46.270
620.81	46.869
621.00	46.739
621.19	46.511
621.38	46.639
621.57	46.932
621.76	47.223
621.95	45.996
622.14	46.857
622.33	46.365
622.52	45.686
622.71	47.342
622.90	45.370
623.09	46.852
623.28	46.195
623.47	46.437
623.66	46.966
623.85	46.931
624.04	46.098
624.23	45.366
624.42	45.915
624.61	46.370
624.80	45.888
624.99	46.469
625.18	46.286
625.36	46.996
625.55	47.301
625.74	45.612
625.93	46.408
626.12	46.850
626.31	46.079
626.50	46.117
626.69	45.865
626.88	46.559
627.07	46.507
627.26	44.912
627.45	45.315
627.64	45.728
627.83	45.389
628.02	46.127
628.20	46.307
628.39	45.593
628.58	46.148
628.77	47.402
628.96	45.969
629.15	45.497
629.34	45.372
629.53	46.052
629.72	45.707
629.91	45.896
630.10	44.765
630.29	44.689
630.47	46.064
630.66	45.213
630.85	44.730
631.04	45.318
631.23	45.026
631.42	44.026
631.61	45.673
631.80	45.212
631.99	44.547
632.18	44.501
632.36	44.828
632.55	45.582
632.74	44.743
632.93	44.792
633.12	45.174
633.31	45.329
633.50	44.697
633.69	44.126
633.88	44.106
634.06	45.244
634.25	45.805
634.44	45.137
634.63	44.778
634.82	46.009
635.01	45.183
635.20	44.617
635.39	45.516
635.57	45.879
635.76	44.837
635.95	45.317
636.14	44.711
636.33	45.773
636.52	45.269
636.71	44.541
636.89	45.084
637.08	45.531
637.27	44.371
637.46	44.688
637.65	45.177
637.84	44.895
638.03	46.036
638.21	45.431
638.40	45.979
638.59	44.688
638.78	45.071
638.97	45.789
639.16	46.888
639.34	45.438
639.53	46.327
639.72	44.926
639.91	45.160
640.10	44.836
640.29	45.058
640.47	46.277
640.66	45.510
640.85	45.253
641.04	45.375
641.23	45.550
641.42	44.978
641.60	45.325
641.79	45.646
641.98	44.830
642.17	44.243
642.36	45.040
642.54	45.374
642.73	45.803
642.92	46.202
643.11	45.066
643.30	45.882
643.49	44.986
643.67	45.079
643.86	46.576
644.05	44.961
644.24	45.072
644.43	45.265
644.61	45.783
644.80	45.678
644.99	45.819
645.18	46.101
645.37	44.651
645.55	45.306
645.74	45.606
645.93	43.910
646.12	44.050
646.31	45.594
646.49	45.934
646.68	45.776
646.87	44.635
647.06	44.730
647.24	44.236
647.43	43.960
647.62	46.351
647.81	44.046
648.00	46.341
648.18	45.245
648.37	43.581
648.56	45.440
648.75	45.200
648.93	45.005
649.12	44.552
649.31	44.749
649.50	45.390
649.68	45.918
649.87	44.795
650.06	44.021
650.25	44.622
650.43	45.752
650.62	44.416
650.81	43.908
651.00	45.171
651.18	43.955
651.37	44.601
651.56	44.344
651.75	44.268
651.93	44.396
652.12	44.946
652.31	44.437
652.50	45.466
652.68	45.202
652.87	45.373
653.06	44.438
653.25	43.620
653.43	43.883
653.62	44.383
653.81	44.178
654.00	43.810
654.18	44.334
654.37	44.081
654.56	44.397
654.74	43.161
654.93	44.995
655.12	44.046
655.31	44.662
655.49	44.728
655.68	42.837
655.87	43.417
656.05	43.208
656.24	44.473
656.43	42.530
656.62	43.953
656.80	42.772
656.99	43.515
657.18	43.578
657.36	42.747
657.55	42.521
657.74	42.166
657.93	42.049
658.11	43.499
658.30	41.838
658.49	42.015
658.67	42.218
658.86	41.795
659.05	42.278
659.23	42.552
659.42	41.384
659.61	40.583
659.79	40.874
659.98	40.259
660.17	41.952
660.35	39.630
660.54	40.834
660.73	40.297
660.91	40.125
661.10	41.389
661.29	40.339
661.47	39.454
661.66	40.335
661.85	40.733
662.03	41.140
662.22	39.188
662.41	39.609
662.59	39.462
662.78	39.200
662.97	40.227
663.15	39.247
663.34	40.262
663.53	38.233
663.71	38.805
663.90	38.829
664.09	39.358
664.27	38.525
664.46	38.276
664.65	39.903
664.83	37.348
665.02	36.576
665.21	37.990
665.39	35.524
665.58	38.384
665.77	36.536
665.95	36.572
666.14	35.487
666.32	36.396
666.51	35.735
666.70	35.496
666.88	35.322
667.07	35.827
667.26	35.845
667.44	35.681
667.63	35.484
667.81	35.401
668.00	36.530
668.19	36.621
668.37	35.920
668.56	36.004
668.75	35.561
668.93	36.193
669.12	35.137
669.30	35.358
669.49	34.372
669.68	35.680
669.86	35.497
670.05	36.911
670.23	36.371
670.42	36.447
670.61	36.013
670.79	35.020
670.98	35.788
671.16	36.241
671.35	34.943
671.54	35.078
671.72	34.808
671.91	36.671
672.09	34.554
672.28	35.237
672.46	36.207
672.65	36.271
672.84	35.665
673.02	37.298
673.21	34.656
673.39	36.387
673.58	35.613
673.77	36.689
673.95	35.724
674.14	36.238
674.32	35.664
674.51	38.060
674.69	34.503
674.88	37.405
675.07	35.848
675.25	37.894
675.44	36.609
675.62	37.508
675.81	35.690
675.99	37.718
676.18	37.117
676.36	36.709
676.55	35.680
676.74	38.756
676.92	37.607
677.11	36.652
677.29	36.707
677.48	39.007
677.66	38.267
677.85	38.333
678.03	37.301
678.22	38.071
678.40	37.876
678.59	38.299
678.78	37.181
678.96	38.997
679.15	36.940
679.33	39.422
679.52	38.426
679.70	38.276
679.89	37.864
680.07	39.068
680.26	38.001
680.44	39.268
680.63	38.945
680.81	39.025
681.00	38.162
681.18	38.588
681.37	39.228
681.55	40.930
681.74	39.509
681.92	40.262
682.11	38.903
682.29	39.982
682.48	40.729
682.66	40.453
682.85	39.787
683.03	40.488
683.22	40.341
683.40	41.941
683.59	40.584
683.77	41.698
683.96	40.775
684.14	41.907
684.33	41.046
684.51	42.440
684.70	42.687
684.88	43.145
685.07	42.700
685.25	45.987
685.44	43.233
685.62	43.764
685.81	44.145
685.99	45.564
686.18	45.265
686.36	45.425
686.55	43.537
686.73	45.312
686.92	46.696
687.10	46.225
687.29	46.413
687.47	48.161
687.65	47.521
687.84	47.240
688.02	47.923
688.21	48.246
688.39	46.956
688.58	49.950
688.76	49.527
688.95	50.006
689.13	48.666
689.32	50.312
689.50	49.724
689.68	50.321
689.87	49.199
690.05	50.484
690.24	51.011
690.42	51.588
690.61	53.931
690.79	55.450
690.98	52.590
691.16	53.123
691.34	52.261
691.53	55.665
691.71	52.456
691.90	55.340
692.08	53.515
692.27	57.802
692.45	56.368
692.63	58.375
692.82	57.161
693.00	57.281
693.19	57.528
693.37	59.086
693.56	57.798
693.74	56.624
693.92	56.557
694.11	59.624
694.29	60.934
694.48	58.920
694.66	58.608
694.84	61.152
695.03	63.178
695.21	62.450
695.40	62.175
695.58	63.881
695.76	62.538
695.95	61.796
696.13	62.596
696.32	63.844
696.50	63.950
696.68	63.154
696.87	62.948
697.05	64.019
697.24	65.624
697.42	65.280
697.60	65.554
697.79	65.324
697.97	64.914
698.16	64.910
698.34	63.505
698.52	65.112
698.71	63.895
698.89	64.420
699.07	63.898
699.26	64.731
699.44	63.514
699.63	64.206
699.81	64.371
699.99	63.383
700.18	66.148
700.36	64.077
700.54	65.779
700.73	64.158
700.91	65.632
701.09	66.681
701.28	67.459
701.46	67.104
701.64	66.900
701.83	67.605
702.01	69.301
702.20	68.565
702.38	68.822
702.56	69.861
702.75	69.788
702.93	70.589
703.11	69.940
703.30	71.640
703.48	70.664
703.66	70.496
703.85	70.890
704.03	72.547
704.21	71.153
704.40	73.159
704.58	70.638
704.76	70.501
704.95	72.013
705.13	70.708
705.31	71.735
705.50	70.915
705.68	69.527
705.86	72.820
706.04	73.908
706.23	73.113
706.41	70.253
706.59	71.699
706.78	71.264
706.96	71.673
707.14	71.392
707.33	74.996
707.51	74.471
707.69	74.209
707.88	73.342
708.06	73.477
708.24	73.956
708.42	74.614
708.61	73.963
708.79	72.827
708.97	73.330
709.16	72.206
709.34	76.101
709.52	74.111
709.71	74.252
709.89	74.298
710.07	72.894
710.25	74.198
710.44	73.377
710.62	75.546
710.80	71.106
710.98	72.992
711.17	72.176
711.35	74.442
711.53	74.718
711.72	75.571
711.90	74.198
712.08	73.427
712.26	73.465
712.45	74.878
712.63	73.257
712.81	74.331
712.99	73.946
713.18	75.241
713.36	75.343
713.54	75.326
713.72	72.390
713.91	74.242
714.09	72.493
714.27	74.996
714.45	72.146
714.64	72.982
714.82	76.620
715.00	73.626
715.18	74.721
715.37	72.922
715.55	73.427
715.73	76.047
715.91	74.004
716.10	72.687
716.28	73.667
716.46	75.167
716.64	74.129
716.83	74.013
717.01	74.708
717.19	74.279
717.37	73.938
717.55	75.752
717.74	74.279
717.92	74.865
718.10	74.315
718.28	71.485
718.47	73.983
718.65	75.602
718.83	75.083
719.01	73.548
719.19	73.844
719.38	76.172
719.56	75.583
719.74	76.022
719.92	72.822
720.10	76.739
720.29	74.632
720.47	75.139
720.65	77.004
720.83	78.522
721.01	76.711
721.20	78.109
721.38	75.451
721.56	76.171
721.74	75.705
721.92	76.668
722.11	76.290
722.29	74.945
722.47	76.769
722.65	78.971
722.83	76.658
723.01	75.561
723.20	76.465
723.38	76.426
723.56	74.410
723.74	76.806
723.92	75.724
724.10	74.752
724.29	75.607
724.47	77.243
724.65	77.386
724.83	76.255
725.01	74.661
725.19	78.806
725.38	75.542
725.56	75.237
725.74	75.598
725.92	78.271
726.10	76.869
726.28	76.892
726.46	77.260
726.65	76.673
726.83	75.011
727.01	76.345
727.19	76.785
727.37	77.665
727.55	76.662
727.73	79.173
727.92	76.420
728.10	76.314
728.28	74.254
728.46	75.864
728.64	75.465
728.82	76.166
729.00	74.719
729.19	78.085
729.37	76.403
729.55	76.827
729.73	73.784
729.91	75.823
730.09	78.101
730.27	78.461
730.45	75.996
730.63	74.960
730.82	75.349
731.00	76.598
731.18	77.116
731.36	75.996
731.54	74.500
731.72	76.726
731.90	77.645
732.08	76.876
732.26	78.576
732.45	78.928
732.63	75.584
732.81	75.788
732.99	76.359
733.17	77.394
733.35	77.161
733.53	78.599
733.71	75.247
733.89	77.803
734.07	77.970
734.25	76.743
734.44	75.054
734.62	76.627
734.80	78.329
734.98	77.314
735.16	76.493
735.34	79.294
735.52	73.916
735.70	77.582
735.88	80.317
736.06	77.539
736.24	81.525
736.42	79.156
736.60	78.009
736.78	78.627
736.97	78.045
737.15	79.781
737.33	75.543
737.51	80.045
737.69	81.206
737.87	80.414
738.05	76.028
738.23	82.183
738.41	76.658
738.59	80.423
738.77	78.929
738.95	80.781
739.13	78.412
739.31	80.287
739.49	82.486
739.67	80.577
739.85	78.748
740.03	77.249
740.21	79.001
740.39	79.918
740.57	80.180
740.75	80.336
740.93	79.828
741.11	81.591
741.30	79.356
741.48	80.946
741.66	83.554
741.84	78.277
742.02	77.319
742.20	78.686
742.38	79.720
742.56	81.172
742.74	79.901
742.92	80.118
743.10	79.452
743.28	83.033
743.46	78.607
743.64	81.401
743.82	79.164
744.00	83.195
744.18	80.845
744.36	83.695
744.54	81.685
744.72	81.580
744.90	85.220
745.08	83.886
745.26	81.815
745.44	80.914
745.62	79.235
745.80	83.164
745.98	83.943
746.16	82.597
746.34	81.342
746.52	79.525
746.70	78.888
746.87	81.413
747.05	78.334
747.23	82.830
747.41	85.663
747.59	83.015
747.77	80.335
747.95	82.597
748.13	80.204
748.31	83.592
748.49	82.592
748.67	79.152
748.85	77.785
749.03	81.622
749.21	80.336
749.39	83.298
749.57	79.863
749.75	79.629
749.93	82.705
750.11	80.774
750.29	77.951
750.47	81.045
750.65	75.581
750.83	79.570
751.01	77.738
751.18	82.119
751.36	82.585
751.54	85.358
751.72	84.083
751.90	79.347
752.08	77.951
752.26	80.738
752.44	80.517
752.62	81.721
752.80	80.957
752.98	81.740
753.16	82.439
753.34	81.818
753.52	77.608
753.69	83.594
753.87	82.841
754.05	85.034
754.23	81.242
754.41	80.514
754.59	81.900
754.77	80.155
754.95	81.859
755.13	80.207
755.31	79.834
755.49	82.152
755.66	81.500
755.84	78.727
756.02	80.127
756.20	80.457
756.38	82.377
756.56	81.812
756.74	81.270
756.92	78.565
757.10	78.456
757.28	82.975
757.45	84.318
757.63	81.987
757.81	77.431
757.99	82.474
758.17	80.418
758.35	82.742
758.53	81.346
758.71	81.287
758.88	81.492
759.06	80.971
759.24	75.631
759.42	79.406
759.60	79.944
759.78	81.131
759.96	75.548
760.13	79.395
760.31	77.869
760.49	76.530
760.67	73.213
760.85	78.662
761.03	75.761
761.21	71.991
761.38	72.800
761.56	76.557
761.74	71.219
761.92	78.246
762.10	72.956
762.28	76.118
762.46	70.568
762.63	75.169
762.81	75.022
762.99	77.990
763.17	72.876
763.35	74.453
763.53	76.456
763.70	76.957
763.88	76.274
764.06	76.506
764.24	75.284
764.42	75.902
764.60	73.572
764.77	74.652
764.95	74.836
765.13	73.460
765.31	76.420
765.49	74.097
765.66	74.333
765.84	75.964
766.02	74.855
766.20	76.690
766.38	74.466
766.56	75.259
766.73	76.115
766.91	78.120
767.09	80.618
767.27	79.314
767.45	80.252
767.62	78.838
767.80	75.577
767.98	79.994
768.16	76.735
768.33	79.383
768.51	81.606
768.69	79.349
768.87	74.370
769.05	80.271
769.22	77.388
769.40	85.128
769.58	79.162
769.76	84.910
769.94	78.724
770.11	81.243
770.29	77.069
770.47	78.109
770.65	79.443
770.82	81.600
771.00	82.175
771.18	83.736
771.36	80.334
771.53	81.021
771.71	80.065
771.89	81.804
772.07	81.655
772.25	82.728
772.42	80.421
772.60	82.942
772.78	79.249
772.96	83.197
773.13	77.359
773.31	83.634
773.49	79.964
773.67	83.522
773.84	76.342
774.02	82.553
774.20	80.654
774.37	83.423
774.55	78.294
774.73	83.202
774.91	79.788
775.08	81.900
775.26	81.483
775.44	85.095
775.62	78.028
775.79	83.326
775.97	79.528
776.15	89.042
776.32	73.935
776.50	86.544
776.68	87.642
776.86	83.067
777.03	75.605
777.21	77.354
777.39	73.386
777.56	81.362
777.74	75.488
777.92	83.438
778.10	77.789
778.27	82.176
778.45	90.056
778.63	85.567
778.80	79.090
778.98	81.955
779.16	83.105
779.34	83.798
779.51	77.298
779.69	81.456
779.87	81.272
780.04	82.288
780.22	77.037
780.40	80.437
780.57	80.400
780.75	81.871
780.93	80.653
781.10	76.972
781.28	87.299
781.46	78.226
781.63	79.805
781.81	86.061
781.99	74.661
782.16	79.253
782.34	78.799
782.52	80.652
782.69	81.944
782.87	86.310
783.05	76.066
783.22	83.014
783.40	82.569
783.58	82.322
783.75	73.557
783.93	82.147
784.11	72.757
784.28	83.378
784.46	80.997
784.64	83.324
784.81	77.313
784.99	90.639
785.17	82.717
785.34	80.532
785.52	73.493
785.69	77.949
785.87	78.338
786.05	84.143
786.22	79.476
786.40	84.728
786.58	76.589
786.75	83.407
786.93	76.836
787.11	77.383
787.28	75.940
787.46	87.910
787.63	80.876
787.81	84.778
787.99	79.638
788.16	76.076
788.34	79.854
788.51	81.095
788.69	78.341
788.87	76.598
789.04	79.249
789.22	79.299
789.39	76.487
789.57	77.467
789.75	75.729
789.92	89.337
790.10	72.602
790.27	79.415
790.45	77.922
790.63	79.632
790.80	71.674
790.98	80.177
791.15	74.987
791.33	81.623
791.51	76.515
791.68	82.322
791.86	76.448
792.03	74.606
792.21	76.848
792.39	77.120
792.56	71.688
792.74	79.328
792.91	80.492
793.09	76.331
793.26	75.660
793.44	82.077
793.62	71.137
793.79	72.336
793.97	74.157
794.14	80.012
794.32	73.122
794.49	77.732
794.67	68.266
794.84	76.302
795.02	72.870
795.20	78.644
795.37	72.711
795.55	82.686
795.72	73.744
795.90	80.192
796.07	74.350
796.25	78.508
796.42	76.747
796.60	79.619
796.77	67.818
796.95	79.612
797.13	67.928
797.30	78.037
797.48	69.608
797.65	78.107
797.83	72.094
798.00	77.818
798.18	72.237
798.35	80.550
798.53	77.554
798.70	78.107
798.88	71.256
799.05	81.188
799.23	75.496
799.40	76.335
799.58	75.923
799.75	75.230
799.93	73.980
800.10	79.955
800.28	76.564
800.45	78.947
800.63	74.032
800.80	79.181
800.98	79.881
801.15	76.837
801.33	75.449
801.50	79.356
801.68	67.520
801.85	72.264
802.03	72.174
802.20	76.681
802.38	75.540
802.55	71.516
802.73	75.579
802.90	73.638
803.08	64.763
803.25	80.513
803.43	83.601
803.60	80.386
803.78	72.135
803.95	78.249
804.13	72.137
804.30	76.753
804.48	74.796
804.65	71.945
804.83	76.699
805.00	79.592
805.17	75.482
805.35	78.672
805.52	74.741
805.70	77.750
805.87	77.253
806.05	81.016
806.22	70.183
806.40	74.050
806.57	76.497
806.75	81.703
806.92	78.687
807.09	81.487
807.27	71.887
807.44	78.007
807.62	71.032
807.79	78.182
807.97	67.358
808.14	74.818
808.31	73.059
808.49	76.580
808.66	71.468
808.84	76.506
809.01	79.300
809.19	79.628
809.36	78.062
809.53	70.013
809.71	70.631
809.88	87.984
810.06	83.090
810.23	73.171
810.41	74.543
810.58	78.342
810.75	64.974
810.93	76.923
811.10	69.469
811.28	82.651
811.45	80.373
811.62	75.315
811.80	70.277
811.97	79.665
812.15	80.152
812.32	68.552
812.49	70.174
812.67	73.757
812.84	63.937
813.02	74.281
813.19	61.119
813.36	68.157
813.54	61.932
813.71	78.003
813.89	72.811
814.06	71.232
814.23	73.328
814.41	71.394
814.58	66.793
814.75	68.485
814.93	65.785
815.10	73.356
815.28	60.673
815.45	66.423
815.62	70.328
815.80	62.053
815.97	65.285
816.14	71.082
816.32	66.537
816.49	68.745
816.66	65.741
816.84	66.437
817.01	72.003
817.18	72.597
817.36	73.689
817.53	71.003
817.71	60.493
817.88	73.948
818.05	60.729
818.23	63.926
818.40	60.234
818.57	67.596
818.75	59.969
818.92	61.735
819.09	63.851
819.27	68.968
819.44	67.405
819.61	68.559
819.79	67.541
819.96	78.512
820.13	71.373
820.31	72.343
820.48	70.931
820.65	65.894
820.82	66.491
821.00	76.661
821.17	66.463
821.34	72.301
821.52	67.327
821.69	71.354
821.86	70.077
822.04	74.613
822.21	72.197
822.38	74.732
822.56	72.031
822.73	74.109
822.90	72.769
823.07	71.734
823.25	72.892
823.42	72.449
823.59	71.591
823.77	71.955
823.94	69.747
824.11	71.222
824.29	69.582
824.46	71.398
824.63	71.156
824.80	70.968
824.98	71.028
825.15	71.433
825.32	69.916
825.49	74.197
825.67	70.982
825.84	70.610
826.01	70.396
826.19	74.340
826.36	69.954
826.53	72.694
826.70	73.066
826.88	76.064
827.05	73.678
827.22	73.168
827.39	71.978
827.57	72.155
827.74	69.316
827.91	74.092
828.08	69.887
828.26	73.070
828.43	69.902
828.60	72.002
828.77	71.372
828.95	70.168
829.12	66.909
829.29	66.578
829.46	69.934
829.64	69.669
829.81	64.186
829.98	68.253
830.15	66.486
830.32	65.890
830.50	64.894
830.67	66.667
830.84	66.038
831.01	61.202
831.19	60.218
831.36	67.696
831.53	60.234
831.70	70.319
831.87	59.900
832.05	69.398
832.22	71.254
832.39	57.312
832.56	67.232
832.74	65.269
832.91	63.088
833.08	72.652
833.25	56.844
833.42	65.136
833.60	63.557
833.77	63.375
833.94	57.922
834.11	67.513
834.28	57.795
834.45	70.016
834.63	63.814
834.80	68.616
834.97	67.649
835.14	72.450
835.31	71.163
835.49	68.950
835.66	66.875
835.83	65.482
836.00	64.844
836.17	65.579
836.34	61.981
836.52	67.733
836.69	67.901
836.86	70.175
837.03	65.706
837.20	61.858
837.37	64.268
837.55	59.919
837.72	58.300
837.89	65.140
838.06	64.297
838.23	67.475
838.40	63.386
838.58	68.362
838.75	66.197
838.92	63.379
839.09	80.147
839.26	64.887
839.43	64.081
839.60	71.201
839.78	78.594
839.95	75.592
840.12	65.643
840.29	78.134
840.46	77.027
840.63	68.806
840.80	69.888
840.98	79.081
841.15	64.504
841.32	66.344
841.49	62.919
841.66	76.822
841.83	61.071
842.00	66.382
842.17	74.085
842.34	59.473
842.52	79.120
842.69	68.882
842.86	67.290
843.03	93.201
843.20	75.346
843.37	70.283
843.54	72.812
843.71	68.997
843.88	57.302
844.06	84.583
844.23	67.647
844.40	66.867
844.57	79.503
844.74	94.576
844.91	77.914
845.08	76.408
845.25	84.202
845.42	75.136
845.59	83.012
845.76	74.770
845.94	83.156
846.11	88.423
846.28	85.380
846.45	103.250
846.62	83.442
846.79	84.416
846.96	71.098
847.13	87.476
847.30	79.893
847.47	72.301
847.64	64.440
847.81	69.741
847.98	103.734
848.15	88.421
848.32	92.015
848.50	94.862
848.67	73.309
848.84	87.854
849.01	79.065
849.18	89.775
849.35	106.126
849.52	96.832
849.69	88.631
849.86	88.235
850.03	98.126
850.20	82.552
850.37	71.659
850.54	89.126
850.71	83.592
850.88	75.104
851.05	86.250
851.22	95.534
851.39	96.774
851.56	93.059
851.73	123.059
851.90	96.560
852.07	90.887
852.24	78.278
852.41	74.090
852.58	83.571
852.75	83.488
852.92	81.489
853.09	120.787
853.26	102.526
853.43	112.889
853.60	77.547
853.77	94.172
853.94	92.608
854.11	102.320
854.28	102.439
854.45	75.778
854.62	104.935
854.79	90.708
854.96	109.439
855.13	110.209
855.30	108.500
855.47	115.561
855.64	110.690
855.81	107.416
855.98	105.149
856.15	86.585
856.32	84.969
856.49	99.291
856.66	93.192
856.83	96.121
857.00	89.121
857.17	100.832
857.34	89.474
857.51	87.692
857.68	88.305
857.85	104.068
858.02	99.511
858.19	82.661
858.36	93.580
858.53	93.576
858.70	84.211
858.87	113.333
859.04	83.710
859.21	102.586
859.38	102.083
859.55	98.783
859.72	118.208
859.89	111.370
860.05	112.500
860.22	99.474
860.39	76.190
860.56	100.253
860.73	96.181
860.90	100.457
861.07	108.676
861.24	91.762
861.41	108.995
861.58	106.588
861.75	85.442
861.92	80.744
862.09	102.025
862.26	89.598
862.43	123.140
862.59	93.519
862.76	77.707
862.93	120.270
863.10	94.033
863.27	105.900
863.44	87.990
863.61	92.955
863.78	104.478
863.95	108.076
864.12	130.841
864.29	128.875
864.45	98.237
864.62	91.623
864.79	98.020
864.96	94.541
865.13	97.783
865.30	92.857
865.47	101.393
865.64	114.623
865.81	129.477
865.97	85.132
866.14	106.013
866.31	92.254
866.48	87.013
866.65	80.469
866.82	100.959
866.99	95.515
867.16	96.335
867.33	91.529
867.49	83.374
867.66	95.904
867.83	75.991
868.00	68.171
868.17	103.448
868.34	92.634
868.51	64.251
868.67	99.289
868.84	95.632
869.01	114.286
869.18	109.756
869.35	86.093
869.52	87.250
869.69	119.512
869.85	101.235
870.02	86.165
870.19	109.809
870.36	111.376
870.53	75.524
870.70	105.957
870.86	81.347
871.03	103.944
871.20	103.465
871.37	124.668
871.54	117.935
871.71	85.922
871.87	102.717
872.04	104.290
872.21	79.691
872.38	95.110
872.55	120.506
872.72	82.432
872.88	97.465
873.05	92.877
873.22	93.103
873.39	85.343
873.56	92.483
873.72	110.337
873.89	94.767
874.06	87.371
874.23	99.738
874.40	95.376
874.56	95.426
874.73	119.903
874.90	83.690
875.07	90.393
875.24	83.771
875.40	86.517
875.57	92.273
875.74	120.244
875.91	108.943
876.08	75.551
876.24	101.446
876.41	127.157
876.58	99.045
876.75	110.468
876.92	77.009
877.08	88.086
877.25	77.062
877.42	89.634
877.59	118.960
877.75	95.316
877.92	70.913
878.09	100.464
878.26	99.398
878.42	99.734
878.59	101.991
878.76	83.202
878.93	102.941
879.09	89.738
879.26	92.754
879.43	78.202
879.60	82.231
879.76	80.783
879.93	85.644
880.10	85.116
880.27	66.346
880.43	62.701
880.60	68.339
880.77	66.462
880.94	63.795
881.10	53.618
881.27	66.971
881.44	49.698
881.61	62.539
881.77	58.548
881.94	59.234
882.11	50.745
882.28	51.869
882.44	59.182
882.61	61.176
882.78	63.708
882.94	69.109
883.11	62.180
883.28	65.162
883.45	62.721
883.61	63.111
883.78	63.902
883.95	69.186
884.11	63.752
884.28	62.302
>>>>>End Processed Spectral Data<<<<<
