SpectraSuite Data File
++++++++++++++++++++++++++++++++++++
Date: Mon Sep 23 04:21:10 EST 2019
User: sgrac
Dark Spectrum Present: Yes
Reference Spectrum Present: Yes
Number of Sampled Component Spectra: 1
Spectrometers: USB4E01596
Integration Time (usec): 100000 (USB4E01596)
Spectra Averaged: 3 (USB4E01596)
Boxcar Smoothing: 0 (USB4E01596)
Correct for Electrical Dark: No (USB4E01596)
Strobe/Lamp Enabled: Yes (USB4E01596)
Correct for Detector Non-linearity: No (USB4E01596)
Correct for Stray Light: No (USB4E01596)
Number of Pixels in Processed Spectrum: 3648
>>>>>Begin Processed Spectral Data<<<<<
178.44	1623.077
178.66	1623.077
178.87	1623.077
179.09	9066.667
179.30	-5800.000
179.52	-696.774
179.74	-609.434
179.95	777.273
180.17	-636.111
180.38	535.088
180.60	-3445.455
180.82	824.444
181.03	5583.333
181.25	-2316.667
181.46	-1284.000
181.68	1429.167
181.89	-781.818
182.11	-1900.000
182.33	-2287.500
182.54	706.250
182.76	4883.333
182.97	-587.234
183.19	1240.000
183.40	290.083
183.62	446.154
183.84	334.545
184.05	4771.429
184.27	554.545
184.48	477.273
184.70	1876.471
184.91	1819.048
185.13	2920.000
185.34	-16100.000
185.56	1388.462
185.78	381.944
185.99	1055.556
186.21	357.955
186.42	-7025.000
186.64	2410.000
186.85	-6380.000
187.07	590.000
187.28	468.421
187.50	487.273
187.72	330.769
187.93	805.455
188.15	426.042
188.36	463.158
188.58	646.939
188.79	368.269
189.01	504.225
189.22	932.432
189.44	-951.515
189.65	333.051
189.87	-5400.000
190.09	626.984
190.30	769.048
190.52	513.333
190.73	834.783
190.95	-5083.333
191.16	323.810
191.38	428.378
191.59	557.353
191.81	630.645
192.02	1926.667
192.24	678.125
192.45	1029.412
192.67	-2081.250
192.88	505.660
193.10	503.279
193.31	847.500
193.53	301.613
193.74	425.333
193.96	2014.286
194.18	1153.846
194.39	2140.000
194.61	490.411
194.82	1354.545
195.04	357.317
195.25	-550.877
195.47	-461.111
195.68	5516.667
195.90	485.455
196.11	429.851
196.33	30300.000
196.54	770.732
196.76	1942.857
196.97	402.597
197.19	945.946
197.40	2464.286
197.62	285.321
197.83	1051.613
198.05	665.455
198.26	968.966
198.48	483.099
198.69	490.000
198.91	1466.667
199.12	874.419
199.34	800.000
199.55	461.429
199.77	2052.632
199.98	1079.412
200.20	339.474
200.41	562.903
200.63	306.195
200.84	2207.143
201.06	2922.222
201.27	824.390
201.49	576.056
201.70	-996.667
201.91	538.889
202.13	583.051
202.34	431.034
202.56	-1284.000
202.77	564.444
202.99	6616.667
203.20	-4612.500
203.42	2068.750
203.63	375.000
203.85	5083.333
204.06	576.000
204.28	326.263
204.49	616.667
204.71	500.000
204.92	1123.077
205.14	0.000
205.35	1203.333
205.56	-1725.000
205.78	6860.000
205.99	-2100.000
206.21	14600.000
206.42	688.636
206.64	1100.000
206.85	1003.704
207.07	-2944.444
207.28	524.138
207.50	702.174
207.71	1032.258
207.93	363.855
208.14	-1025.926
208.35	574.545
208.57	1236.000
208.78	-3122.222
209.00	382.979
209.21	-16650.000
209.43	-8433.333
209.64	-1406.667
209.86	306.186
210.07	400.000
210.28	430.986
210.50	1065.517
210.71	537.255
210.93	278.676
211.14	458.427
211.36	1881.250
211.57	536.364
211.78	481.429
212.00	423.529
212.21	434.286
212.43	879.487
212.64	378.723
212.86	425.676
213.07	364.220
213.29	-861.111
213.50	388.043
213.71	365.517
213.93	387.805
214.14	1890.909
214.36	494.118
214.57	440.506
214.78	797.778
215.00	382.292
215.21	993.333
215.43	845.946
215.64	376.190
215.86	327.500
216.07	1037.143
216.28	713.158
216.50	300.833
216.71	27000.000
216.93	539.394
217.14	1711.111
217.35	298.485
217.57	311.712
217.78	380.247
218.00	278.788
218.21	1378.261
218.42	719.149
218.64	450.000
218.85	618.000
219.07	1540.000
219.28	360.748
219.49	541.176
219.71	596.923
219.92	243.284
220.14	386.598
220.35	520.000
220.56	349.425
220.78	280.769
220.99	312.097
221.21	321.505
221.42	397.531
221.63	241.618
221.85	513.846
222.06	465.714
222.28	403.077
222.49	297.297
222.70	239.370
222.92	628.571
223.13	362.295
223.34	245.390
223.56	370.238
223.77	366.250
223.99	398.947
224.20	489.286
224.41	332.877
224.63	376.136
224.84	252.027
225.05	139.316
225.27	273.043
225.48	310.784
225.69	253.383
225.91	358.108
226.12	260.465
226.34	246.309
226.55	152.518
226.76	223.125
226.98	140.000
227.19	161.719
227.40	277.344
227.62	160.317
227.83	148.927
228.04	108.101
228.26	84.833
228.47	113.881
228.69	70.812
228.90	47.335
229.11	65.928
229.33	45.925
229.54	40.798
229.75	58.298
229.97	40.377
230.18	37.865
230.39	39.934
230.61	42.324
230.82	52.216
231.03	35.878
231.25	42.561
231.46	48.869
231.67	52.031
231.89	65.181
232.10	50.688
232.31	50.544
232.53	60.611
232.74	62.991
232.95	53.358
233.17	53.200
233.38	58.193
233.59	54.545
233.81	67.029
234.02	65.932
234.23	61.525
234.45	82.986
234.66	70.796
234.87	54.508
235.09	70.096
235.30	64.098
235.51	68.683
235.73	63.265
235.94	56.604
236.15	59.004
236.36	59.439
236.58	49.610
236.79	48.968
237.00	54.839
237.22	61.565
237.43	55.391
237.64	58.110
237.86	58.647
238.07	57.216
238.28	56.452
238.50	61.993
238.71	59.173
238.92	47.813
239.13	59.492
239.35	55.832
239.56	59.541
239.77	64.992
239.99	38.505
240.20	59.557
240.41	51.937
240.63	46.226
240.84	48.632
241.05	40.266
241.26	35.202
241.48	36.585
241.69	31.546
241.90	28.401
242.12	27.176
242.33	30.252
242.54	21.410
242.75	23.374
242.97	22.911
243.18	20.439
243.39	19.100
243.61	20.885
243.82	24.837
244.03	22.297
244.24	19.823
244.46	24.391
244.67	23.987
244.88	24.311
245.09	27.133
245.31	25.492
245.52	23.508
245.73	21.040
245.95	44.444
246.16	22.662
246.37	19.098
246.58	22.642
246.80	19.840
247.01	24.664
247.22	18.375
247.43	19.887
247.65	19.493
247.86	19.425
248.07	14.056
248.28	17.935
248.50	19.765
248.71	15.322
248.92	17.724
249.13	15.659
249.35	21.596
249.56	18.547
249.77	18.265
249.98	16.758
250.20	25.175
250.41	20.822
250.62	23.687
250.83	20.906
251.05	24.433
251.26	22.704
251.47	23.303
251.68	25.240
251.90	23.252
252.11	23.540
252.32	24.631
252.53	25.670
252.75	21.355
252.96	25.466
253.17	23.532
253.38	20.145
253.59	19.721
253.81	19.548
254.02	16.971
254.23	22.992
254.44	17.733
254.66	15.301
254.87	20.829
255.08	27.363
255.29	26.005
255.50	22.534
255.72	22.286
255.93	29.596
256.14	34.515
256.35	24.961
256.57	31.337
256.78	24.560
256.99	26.877
257.20	36.780
257.41	23.913
257.63	29.692
257.84	25.425
258.05	27.513
258.26	19.710
258.47	21.102
258.69	22.199
258.90	17.260
259.11	19.300
259.32	18.644
259.53	17.986
259.75	14.243
259.96	15.316
260.17	13.593
260.38	13.214
260.59	14.639
260.81	15.472
261.02	13.765
261.23	15.064
261.44	14.781
261.65	15.579
261.87	12.812
262.08	17.920
262.29	17.378
262.50	16.278
262.71	12.856
262.92	20.519
263.14	14.710
263.35	16.972
263.56	17.145
263.77	16.573
263.98	17.938
264.20	18.992
264.41	16.688
264.62	18.214
264.83	15.441
265.04	23.354
265.25	21.338
265.47	19.632
265.68	21.161
265.89	19.479
266.10	13.120
266.31	21.353
266.52	18.885
266.74	15.476
266.95	17.929
267.16	20.797
267.37	13.847
267.58	16.075
267.79	17.462
268.01	17.117
268.22	18.057
268.43	15.661
268.64	18.209
268.85	17.032
269.06	15.743
269.27	17.435
269.49	14.281
269.70	15.289
269.91	14.776
270.12	14.568
270.33	19.149
270.54	12.883
270.75	14.550
270.97	17.962
271.18	14.309
271.39	15.681
271.60	17.038
271.81	15.083
272.02	14.059
272.23	16.392
272.45	14.522
272.66	11.420
272.87	15.785
273.08	13.482
273.29	16.744
273.50	14.093
273.71	12.869
273.92	13.470
274.14	13.588
274.35	15.937
274.56	14.573
274.77	15.315
274.98	15.039
275.19	15.781
275.40	14.994
275.61	15.467
275.83	18.642
276.04	15.587
276.25	17.995
276.46	17.129
276.67	17.027
276.88	20.917
277.09	15.031
277.30	15.437
277.51	16.627
277.73	13.841
277.94	14.400
278.15	17.720
278.36	17.171
278.57	12.858
278.78	15.740
278.99	16.924
279.20	14.965
279.41	20.360
279.62	14.750
279.84	14.721
280.05	14.812
280.26	13.378
280.47	18.271
280.68	16.073
280.89	13.715
281.10	17.589
281.31	14.728
281.52	18.963
281.73	11.846
281.94	13.405
282.16	15.799
282.37	15.131
282.58	13.937
282.79	17.444
283.00	17.290
283.21	13.476
283.42	14.420
283.63	16.206
283.84	13.448
284.05	14.512
284.26	13.513
284.47	14.360
284.68	13.407
284.89	14.354
285.11	14.807
285.32	11.984
285.53	15.582
285.74	17.455
285.95	14.243
286.16	13.321
286.37	12.435
286.58	12.770
286.79	10.416
287.00	14.309
287.21	11.570
287.42	13.366
287.63	13.851
287.84	11.993
288.05	15.197
288.26	11.864
288.48	15.916
288.69	11.756
288.90	13.578
289.11	16.233
289.32	16.323
289.53	15.890
289.74	10.105
289.95	12.049
290.16	14.370
290.37	12.076
290.58	10.518
290.79	11.729
291.00	11.660
291.21	11.883
291.42	11.705
291.63	13.313
291.84	15.750
292.05	9.748
292.26	11.261
292.47	12.123
292.68	10.840
292.89	13.609
293.10	14.965
293.31	13.688
293.52	8.636
293.73	12.259
293.94	12.295
294.15	11.435
294.36	13.679
294.57	13.988
294.79	13.041
295.00	8.263
295.21	13.749
295.42	15.122
295.63	12.873
295.84	11.139
296.05	10.134
296.26	10.189
296.47	10.608
296.68	11.515
296.89	14.527
297.10	12.266
297.31	12.071
297.52	8.450
297.73	11.905
297.94	12.214
298.15	10.763
298.36	11.879
298.57	10.224
298.78	13.651
298.99	10.812
299.20	13.014
299.41	12.430
299.62	11.498
299.83	10.053
300.04	10.951
300.25	12.250
300.46	14.167
300.67	13.763
300.88	13.152
301.09	9.624
301.30	12.684
301.50	11.401
301.71	14.280
301.92	12.188
302.13	11.765
302.34	11.634
302.55	8.933
302.76	9.661
302.97	10.934
303.18	12.125
303.39	9.951
303.60	11.040
303.81	12.112
304.02	8.706
304.23	11.417
304.44	9.499
304.65	9.604
304.86	11.255
305.07	11.232
305.28	9.542
305.49	13.100
305.70	12.239
305.91	10.894
306.12	11.144
306.33	10.775
306.54	11.798
306.75	12.697
306.96	16.050
307.17	11.012
307.38	11.114
307.58	10.429
307.79	10.787
308.00	12.721
308.21	10.408
308.42	10.974
308.63	10.540
308.84	9.971
309.05	9.868
309.26	9.645
309.47	11.042
309.68	11.320
309.89	10.535
310.10	10.632
310.31	9.462
310.52	10.193
310.73	12.396
310.94	7.535
311.14	9.696
311.35	10.770
311.56	10.020
311.77	8.970
311.98	9.030
312.19	10.032
312.40	7.383
312.61	9.426
312.82	9.507
313.03	9.494
313.24	10.662
313.45	10.600
313.66	9.161
313.86	12.708
314.07	11.662
314.28	11.022
314.49	8.516
314.70	12.638
314.91	12.890
315.12	9.178
315.33	11.384
315.54	8.955
315.75	8.803
315.96	8.692
316.16	9.798
316.37	10.634
316.58	9.759
316.79	9.660
317.00	9.545
317.21	9.504
317.42	11.452
317.63	9.583
317.84	9.883
318.05	10.565
318.25	10.737
318.46	8.314
318.67	9.996
318.88	10.242
319.09	11.461
319.30	8.824
319.51	10.685
319.72	12.094
319.93	8.862
320.13	9.790
320.34	10.525
320.55	10.895
320.76	10.848
320.97	11.091
321.18	13.095
321.39	9.168
321.60	10.230
321.80	14.687
322.01	10.069
322.22	8.512
322.43	7.151
322.64	10.021
322.85	11.799
323.06	11.022
323.27	9.666
323.47	10.298
323.68	10.648
323.89	8.476
324.10	12.179
324.31	9.867
324.52	10.519
324.73	11.628
324.93	9.858
325.14	10.749
325.35	11.422
325.56	8.055
325.77	11.847
325.98	9.916
326.19	10.748
326.39	6.058
326.60	8.542
326.81	8.673
327.02	7.500
327.23	9.402
327.44	11.988
327.64	7.222
327.85	8.346
328.06	11.040
328.27	13.696
328.48	11.986
328.69	8.596
328.90	10.043
329.10	9.771
329.31	9.567
329.52	9.304
329.73	12.384
329.94	8.303
330.15	10.587
330.35	11.814
330.56	10.368
330.77	11.271
330.98	7.480
331.19	9.868
331.39	9.448
331.60	10.814
331.81	9.158
332.02	9.264
332.23	8.710
332.44	8.855
332.64	9.055
332.85	7.758
333.06	11.182
333.27	7.731
333.48	10.415
333.68	9.613
333.89	9.198
334.10	8.712
334.31	10.004
334.52	8.440
334.72	9.298
334.93	9.111
335.14	8.909
335.35	8.289
335.56	10.009
335.76	7.745
335.97	9.865
336.18	8.419
336.39	12.486
336.60	8.910
336.80	8.438
337.01	8.115
337.22	8.704
337.43	9.355
337.64	12.235
337.84	9.739
338.05	8.462
338.26	12.141
338.47	12.221
338.68	8.042
338.88	10.205
339.09	8.295
339.30	11.071
339.51	9.941
339.71	10.841
339.92	8.645
340.13	10.196
340.34	9.274
340.55	9.636
340.75	10.111
340.96	7.387
341.17	9.998
341.38	9.327
341.58	10.658
341.79	9.316
342.00	7.755
342.21	8.783
342.41	5.984
342.62	9.361
342.83	9.706
343.04	7.451
343.24	8.893
343.45	9.905
343.66	8.039
343.87	9.184
344.07	7.477
344.28	9.517
344.49	9.608
344.70	10.728
344.90	7.147
345.11	6.709
345.32	8.492
345.53	8.213
345.73	10.187
345.94	9.919
346.15	8.691
346.36	7.846
346.56	9.107
346.77	8.920
346.98	7.578
347.19	9.168
347.39	8.312
347.60	8.286
347.81	8.451
348.02	9.204
348.22	7.239
348.43	8.015
348.64	8.105
348.84	8.825
349.05	9.091
349.26	11.200
349.47	7.858
349.67	8.799
349.88	10.478
350.09	10.385
350.30	11.967
350.50	9.566
350.71	9.091
350.92	8.644
351.12	8.946
351.33	9.456
351.54	9.061
351.74	9.874
351.95	8.939
352.16	10.435
352.37	9.446
352.57	9.514
352.78	9.976
352.99	11.179
353.19	10.019
353.40	10.383
353.61	11.875
353.82	11.554
354.02	11.948
354.23	10.995
354.44	14.292
354.64	11.426
354.85	11.890
355.06	11.799
355.26	10.842
355.47	11.971
355.68	14.043
355.88	15.146
356.09	13.829
356.30	13.117
356.51	15.310
356.71	14.743
356.92	12.335
357.13	15.827
357.33	17.234
357.54	15.756
357.75	13.178
357.95	17.751
358.16	15.612
358.37	18.350
358.57	15.898
358.78	20.017
358.99	17.641
359.19	18.734
359.40	19.628
359.61	19.394
359.81	20.051
360.02	22.612
360.23	19.909
360.43	20.609
360.64	19.685
360.85	21.800
361.05	20.527
361.26	23.496
361.47	21.293
361.67	23.447
361.88	20.536
362.09	24.237
362.29	21.141
362.50	24.007
362.70	21.974
362.91	26.220
363.12	24.309
363.32	25.864
363.53	24.452
363.74	26.799
363.94	24.437
364.15	27.512
364.36	26.350
364.56	26.770
364.77	26.693
364.98	28.387
365.18	25.930
365.39	28.945
365.59	25.703
365.80	26.476
366.01	27.304
366.21	27.903
366.42	25.968
366.63	28.654
366.83	26.575
367.04	26.118
367.24	28.649
367.45	27.810
367.66	26.294
367.86	28.287
368.07	26.355
368.28	27.697
368.48	27.249
368.69	26.954
368.89	27.244
369.10	27.978
369.31	27.491
369.51	28.470
369.72	28.993
369.92	29.466
370.13	26.082
370.34	26.935
370.54	25.033
370.75	28.948
370.95	25.625
371.16	28.909
371.37	28.162
371.57	28.352
371.78	25.994
371.98	28.725
372.19	27.444
372.40	27.923
372.60	28.156
372.81	29.454
373.01	27.307
373.22	27.589
373.43	28.427
373.63	28.495
373.84	27.938
374.04	28.910
374.25	27.637
374.46	28.831
374.66	28.394
374.87	30.372
375.07	26.264
375.28	28.125
375.48	27.828
375.69	27.846
375.90	26.122
376.10	26.773
376.31	27.173
376.51	27.500
376.72	26.842
376.92	26.739
377.13	27.215
377.34	27.421
377.54	26.668
377.75	29.031
377.95	25.753
378.16	28.490
378.36	27.451
378.57	27.594
378.77	26.912
378.98	28.138
379.19	26.440
379.39	26.632
379.60	26.720
379.80	26.824
380.01	28.089
380.21	27.737
380.42	27.900
380.62	27.648
380.83	26.076
381.04	26.749
381.24	26.237
381.45	28.038
381.65	25.332
381.86	26.821
382.06	27.137
382.27	26.399
382.47	26.359
382.68	27.671
382.88	25.520
383.09	26.914
383.29	26.936
383.50	27.139
383.71	26.356
383.91	27.341
384.12	25.247
384.32	27.270
384.53	26.831
384.73	26.329
384.94	25.187
385.14	25.842
385.35	24.470
385.55	26.437
385.76	25.499
385.96	25.894
386.17	26.480
386.37	26.823
386.58	25.947
386.78	26.593
386.99	25.357
387.19	27.281
387.40	25.250
387.60	27.072
387.81	25.353
388.01	26.559
388.22	25.760
388.42	26.261
388.63	26.843
388.83	27.102
389.04	24.712
389.24	26.171
389.45	27.470
389.65	25.689
389.86	25.343
390.06	25.702
390.27	25.298
390.47	26.120
390.68	26.130
390.88	26.146
391.09	26.085
391.29	26.535
391.50	25.886
391.70	25.396
391.91	24.682
392.11	25.620
392.32	25.952
392.52	25.948
392.73	25.722
392.93	25.928
393.14	25.476
393.34	25.689
393.55	25.598
393.75	25.552
393.95	25.593
394.16	26.524
394.36	25.304
394.57	25.944
394.77	25.922
394.98	25.072
395.18	25.554
395.39	24.436
395.59	25.931
395.80	26.042
396.00	24.998
396.21	26.505
396.41	25.168
396.61	25.691
396.82	25.022
397.02	26.510
397.23	25.788
397.43	25.714
397.64	24.261
397.84	26.241
398.05	23.888
398.25	25.214
398.45	25.036
398.66	24.765
398.86	24.578
399.07	26.346
399.27	25.085
399.48	25.754
399.68	24.624
399.89	24.083
400.09	25.449
400.29	23.998
400.50	24.207
400.70	25.140
400.91	24.575
401.11	24.643
401.32	24.650
401.52	24.512
401.72	23.963
401.93	25.293
402.13	23.798
402.34	24.503
402.54	22.955
402.75	26.030
402.95	23.540
403.15	25.210
403.36	23.324
403.56	24.962
403.77	23.865
403.97	23.792
404.17	23.576
404.38	25.282
404.58	23.162
404.79	24.006
404.99	23.737
405.19	24.390
405.40	23.785
405.60	24.234
405.81	23.813
406.01	23.386
406.21	22.779
406.42	24.600
406.62	23.505
406.83	24.621
407.03	24.242
407.23	23.324
407.44	22.450
407.64	23.759
407.85	23.640
408.05	24.022
408.25	23.919
408.46	23.951
408.66	24.043
408.87	23.347
409.07	22.818
409.27	23.738
409.48	22.607
409.68	24.117
409.88	21.254
410.09	23.020
410.29	21.878
410.50	23.542
410.70	21.749
410.90	22.856
411.11	22.262
411.31	22.799
411.51	23.012
411.72	23.052
411.92	23.258
412.12	22.891
412.33	22.405
412.53	22.255
412.74	20.998
412.94	22.841
413.14	22.744
413.35	22.917
413.55	23.028
413.75	24.330
413.96	22.081
414.16	22.879
414.36	21.869
414.57	22.897
414.77	22.004
414.97	22.333
415.18	21.946
415.38	22.401
415.58	21.860
415.79	22.191
415.99	20.934
416.19	22.606
416.40	20.999
416.60	22.062
416.80	21.395
417.01	21.550
417.21	20.588
417.41	21.846
417.62	21.011
417.82	21.382
418.02	21.363
418.23	21.762
418.43	21.424
418.63	21.435
418.84	21.506
419.04	21.644
419.24	21.879
419.45	21.130
419.65	20.714
419.85	21.906
420.06	21.527
420.26	21.173
420.46	21.639
420.67	20.888
420.87	21.107
421.07	20.918
421.28	21.410
421.48	20.759
421.68	21.056
421.88	21.305
422.09	21.197
422.29	21.149
422.49	21.240
422.70	21.104
422.90	21.467
423.10	21.708
423.31	21.746
423.51	21.379
423.71	21.516
423.91	21.584
424.12	21.701
424.32	21.620
424.52	21.646
424.73	21.196
424.93	21.576
425.13	21.141
425.33	21.054
425.54	21.200
425.74	21.344
425.94	21.732
426.15	21.978
426.35	21.877
426.55	22.133
426.75	21.888
426.96	22.762
427.16	21.352
427.36	22.694
427.57	22.577
427.77	22.433
427.97	22.527
428.17	22.596
428.38	22.393
428.58	22.162
428.78	23.231
428.98	22.027
429.19	22.584
429.39	22.346
429.59	22.323
429.79	21.861
430.00	21.694
430.20	22.170
430.40	22.358
430.60	22.301
430.81	22.553
431.01	22.553
431.21	22.673
431.41	22.239
431.62	23.186
431.82	22.360
432.02	22.418
432.22	22.469
432.43	22.811
432.63	23.047
432.83	21.700
433.03	22.309
433.24	22.435
433.44	22.070
433.64	22.399
433.84	22.426
434.05	22.865
434.25	22.630
434.45	23.151
434.65	22.972
434.85	23.135
435.06	23.378
435.26	22.366
435.46	23.208
435.66	23.293
435.87	23.962
436.07	23.518
436.27	23.251
436.47	23.305
436.67	23.996
436.88	23.543
437.08	23.673
437.28	23.353
437.48	23.095
437.69	23.690
437.89	22.977
438.09	23.576
438.29	22.880
438.49	23.695
438.70	23.769
438.90	23.694
439.10	23.250
439.30	23.900
439.50	23.252
439.71	23.577
439.91	23.438
440.11	23.650
440.31	23.595
440.51	23.206
440.72	23.626
440.92	22.850
441.12	24.034
441.32	23.612
441.52	23.911
441.72	23.967
441.93	24.437
442.13	23.876
442.33	24.269
442.53	24.221
442.73	24.600
442.94	24.435
443.14	25.087
443.34	24.907
443.54	24.789
443.74	24.944
443.94	24.550
444.15	24.296
444.35	25.005
444.55	24.631
444.75	24.091
444.95	24.428
445.15	24.071
445.36	24.213
445.56	23.975
445.76	23.884
445.96	24.169
446.16	23.932
446.36	24.094
446.57	24.318
446.77	24.416
446.97	24.056
447.17	24.480
447.37	24.135
447.57	24.417
447.77	24.468
447.98	24.689
448.18	24.801
448.38	24.571
448.58	24.802
448.78	25.390
448.98	25.159
449.18	25.197
449.39	25.049
449.59	24.969
449.79	25.366
449.99	25.600
450.19	25.438
450.39	25.744
450.59	25.743
450.79	25.782
451.00	24.938
451.20	26.836
451.40	25.358
451.60	25.496
451.80	25.167
452.00	25.383
452.20	25.789
452.40	25.171
452.61	24.771
452.81	25.023
453.01	24.947
453.21	25.362
453.41	24.904
453.61	25.094
453.81	25.419
454.01	25.208
454.21	26.012
454.42	24.818
454.62	25.069
454.82	25.592
455.02	25.775
455.22	25.997
455.42	25.743
455.62	25.475
455.82	25.907
456.02	25.559
456.23	25.400
456.43	25.301
456.63	25.243
456.83	25.404
457.03	25.507
457.23	25.496
457.43	25.684
457.63	25.094
457.83	25.055
458.03	25.527
458.23	24.929
458.43	24.816
458.64	24.940
458.84	25.457
459.04	24.606
459.24	24.620
459.44	24.347
459.64	24.146
459.84	23.924
460.04	24.708
460.24	24.422
460.44	24.679
460.64	24.898
460.84	24.830
461.04	24.488
461.24	24.979
461.45	24.623
461.65	25.273
461.85	25.549
462.05	25.806
462.25	25.649
462.45	25.958
462.65	25.679
462.85	25.653
463.05	26.477
463.25	25.692
463.45	25.696
463.65	25.695
463.85	25.901
464.05	25.591
464.25	25.847
464.45	24.950
464.65	25.464
464.85	25.724
465.05	25.573
465.26	25.445
465.46	25.511
465.66	25.388
465.86	25.390
466.06	25.625
466.26	25.420
466.46	25.463
466.66	25.581
466.86	25.313
467.06	25.055
467.26	25.520
467.46	25.400
467.66	25.511
467.86	25.035
468.06	25.955
468.26	25.755
468.46	25.735
468.66	25.683
468.86	25.507
469.06	25.959
469.26	25.906
469.46	25.534
469.66	25.571
469.86	25.484
470.06	25.923
470.26	25.882
470.46	25.352
470.66	26.049
470.86	25.532
471.06	25.748
471.26	25.863
471.46	25.850
471.66	25.927
471.86	26.282
472.06	26.151
472.26	26.585
472.46	26.283
472.66	26.627
472.86	26.211
473.06	26.175
473.26	26.216
473.46	26.535
473.66	26.005
473.86	26.438
474.06	26.295
474.26	25.998
474.46	26.029
474.66	26.375
474.86	26.357
475.06	26.681
475.26	26.515
475.46	27.013
475.66	26.669
475.86	26.203
476.06	26.830
476.26	26.705
476.46	26.711
476.66	26.836
476.86	26.863
477.06	26.829
477.26	26.521
477.46	26.574
477.65	26.334
477.85	26.932
478.05	26.889
478.25	27.391
478.45	27.203
478.65	26.828
478.85	26.953
479.05	26.283
479.25	27.230
479.45	27.454
479.65	27.144
479.85	27.115
480.05	27.229
480.25	27.077
480.45	27.560
480.65	27.506
480.85	26.920
481.05	26.906
481.25	27.393
481.44	26.866
481.64	27.200
481.84	27.159
482.04	27.031
482.24	26.944
482.44	26.646
482.64	26.590
482.84	26.797
483.04	26.307
483.24	26.036
483.44	25.955
483.64	25.332
483.84	25.413
484.04	26.013
484.23	26.462
484.43	26.962
484.63	27.437
484.83	28.003
485.03	29.390
485.23	29.319
485.43	28.961
485.63	29.020
485.83	29.013
486.03	28.995
486.23	29.277
486.42	29.154
486.62	28.482
486.82	28.289
487.02	27.836
487.22	27.474
487.42	27.580
487.62	27.266
487.82	27.355
488.02	27.220
488.22	27.353
488.41	27.667
488.61	27.789
488.81	28.005
489.01	28.191
489.21	28.266
489.41	28.661
489.61	28.584
489.81	28.629
490.01	29.046
490.20	28.863
490.40	28.934
490.60	29.051
490.80	28.486
491.00	27.886
491.20	27.990
491.40	27.322
491.60	27.067
491.79	26.997
491.99	27.369
492.19	27.310
492.39	27.486
492.59	27.754
492.79	28.253
492.99	28.049
493.19	28.292
493.38	28.946
493.58	28.925
493.78	29.135
493.98	29.162
494.18	29.020
494.38	29.262
494.58	29.627
494.77	29.001
494.97	28.657
495.17	29.119
495.37	28.784
495.57	28.679
495.77	28.180
495.96	28.617
496.16	28.556
496.36	28.060
496.56	27.951
496.76	27.976
496.96	27.817
497.15	28.283
497.35	27.865
497.55	28.044
497.75	28.126
497.95	28.202
498.15	28.575
498.34	28.323
498.54	28.614
498.74	28.672
498.94	29.078
499.14	28.493
499.34	29.016
499.53	28.635
499.73	28.389
499.93	28.820
500.13	28.411
500.33	28.802
500.52	29.055
500.72	29.157
500.92	28.453
501.12	29.171
501.32	28.807
501.52	29.113
501.71	29.165
501.91	28.615
502.11	29.379
502.31	28.581
502.51	28.799
502.70	28.820
502.90	29.035
503.10	28.747
503.30	29.233
503.50	28.632
503.69	28.796
503.89	29.251
504.09	28.632
504.29	29.325
504.48	29.116
504.68	29.010
504.88	28.859
505.08	28.971
505.28	28.443
505.47	29.375
505.67	28.635
505.87	28.994
506.07	29.270
506.27	29.318
506.46	29.462
506.66	28.794
506.86	29.341
507.06	29.601
507.25	29.237
507.45	29.397
507.65	29.369
507.85	29.370
508.04	29.414
508.24	29.485
508.44	29.250
508.64	29.530
508.83	29.214
509.03	29.200
509.23	28.916
509.43	29.076
509.63	29.360
509.82	29.161
510.02	29.176
510.22	28.919
510.42	29.707
510.61	29.475
510.81	29.201
511.01	29.813
511.21	29.649
511.40	30.056
511.60	29.601
511.80	29.394
511.99	29.588
512.19	29.552
512.39	29.305
512.59	29.864
512.78	30.084
512.98	29.894
513.18	29.898
513.38	29.759
513.57	29.442
513.77	29.944
513.97	30.001
514.17	29.984
514.36	29.882
514.56	29.717
514.76	30.218
514.95	29.412
515.15	30.355
515.35	29.975
515.55	29.858
515.74	30.040
515.94	30.252
516.14	30.073
516.33	29.797
516.53	29.927
516.73	29.832
516.93	29.581
517.12	30.138
517.32	29.821
517.52	29.383
517.71	29.309
517.91	29.125
518.11	29.107
518.30	29.271
518.50	28.848
518.70	29.455
518.90	29.193
519.09	29.464
519.29	29.748
519.49	29.498
519.68	29.344
519.88	29.979
520.08	29.592
520.27	29.829
520.47	30.193
520.67	30.413
520.86	30.504
521.06	30.545
521.26	30.113
521.45	30.297
521.65	30.317
521.85	29.949
522.04	30.069
522.24	30.121
522.44	29.903
522.63	30.059
522.83	30.214
523.03	30.454
523.22	30.146
523.42	30.352
523.62	30.108
523.81	29.969
524.01	30.296
524.21	30.020
524.40	30.007
524.60	29.613
524.80	29.663
524.99	29.418
525.19	29.506
525.39	29.534
525.58	29.343
525.78	29.880
525.98	29.399
526.17	29.403
526.37	29.810
526.57	29.435
526.76	29.719
526.96	29.820
527.15	29.551
527.35	29.760
527.55	29.913
527.74	29.720
527.94	29.343
528.14	29.082
528.33	28.738
528.53	28.815
528.72	28.893
528.92	29.199
529.12	29.639
529.31	30.110
529.51	30.213
529.71	30.129
529.90	30.681
530.10	30.727
530.29	31.021
530.49	31.495
530.69	31.768
530.88	31.471
531.08	31.313
531.28	31.101
531.47	30.850
531.67	30.737
531.86	30.595
532.06	30.451
532.26	30.457
532.45	30.145
532.65	29.950
532.84	29.986
533.04	29.381
533.24	29.517
533.43	29.513
533.63	29.758
533.82	29.969
534.02	29.827
534.22	30.270
534.41	30.044
534.61	30.441
534.80	30.343
535.00	30.827
535.19	31.152
535.39	31.313
535.59	31.402
535.78	31.068
535.98	30.647
536.17	30.389
536.37	30.019
536.57	30.090
536.76	30.132
536.96	30.149
537.15	30.080
537.35	30.319
537.54	30.564
537.74	30.607
537.93	30.432
538.13	30.988
538.33	30.546
538.52	30.831
538.72	31.487
538.91	31.472
539.11	31.120
539.30	31.207
539.50	31.367
539.70	30.554
539.89	30.904
540.09	30.731
540.28	30.517
540.48	29.910
540.67	29.661
540.87	29.783
541.06	29.475
541.26	29.589
541.45	29.854
541.65	29.939
541.85	29.903
542.04	30.362
542.24	30.367
542.43	30.673
542.63	30.928
542.82	31.028
543.02	31.283
543.21	31.841
543.41	31.916
543.60	31.929
543.80	31.636
543.99	31.910
544.19	31.602
544.38	31.990
544.58	31.492
544.77	31.505
544.97	31.490
545.16	32.017
545.36	31.449
545.56	31.276
545.75	31.482
545.95	32.182
546.14	31.374
546.34	31.765
546.53	31.214
546.73	31.598
546.92	31.359
547.12	31.428
547.31	31.552
547.51	31.904
547.70	31.317
547.90	32.096
548.09	31.826
548.29	32.174
548.48	32.382
548.68	32.637
548.87	32.405
549.07	32.537
549.26	32.495
549.46	32.438
549.65	32.588
549.84	32.021
550.04	32.695
550.23	32.464
550.43	32.237
550.62	32.166
550.82	32.453
551.01	32.962
551.21	32.428
551.40	32.580
551.60	32.569
551.79	32.801
551.99	32.860
552.18	32.687
552.38	32.096
552.57	32.365
552.77	32.276
552.96	32.664
553.16	32.516
553.35	32.817
553.54	32.836
553.74	32.899
553.93	33.436
554.13	33.543
554.32	33.967
554.52	33.207
554.71	33.152
554.91	33.628
555.10	33.951
555.29	33.462
555.49	33.922
555.68	33.699
555.88	33.089
556.07	34.280
556.27	33.837
556.46	33.588
556.66	34.153
556.85	34.042
557.04	33.502
557.24	33.563
557.43	33.771
557.63	34.114
557.82	34.117
558.02	34.072
558.21	34.658
558.40	34.247
558.60	34.206
558.79	34.803
558.99	33.871
559.18	34.404
559.38	34.597
559.57	34.736
559.76	34.418
559.96	35.470
560.15	34.720
560.35	34.837
560.54	34.656
560.73	34.578
560.93	34.594
561.12	34.913
561.32	34.672
561.51	35.005
561.70	34.934
561.90	34.799
562.09	35.252
562.29	35.138
562.48	35.310
562.67	35.575
562.87	35.286
563.06	35.758
563.26	34.979
563.45	35.913
563.64	35.644
563.84	35.913
564.03	35.375
564.23	35.724
564.42	35.933
564.61	35.967
564.81	35.656
565.00	35.900
565.20	34.810
565.39	35.664
565.58	35.593
565.78	35.539
565.97	35.666
566.16	35.862
566.36	35.968
566.55	36.000
566.74	35.976
566.94	36.309
567.13	36.403
567.33	36.143
567.52	36.352
567.71	36.679
567.91	36.832
568.10	37.596
568.29	36.542
568.49	36.891
568.68	37.262
568.87	36.559
569.07	36.998
569.26	36.891
569.45	37.332
569.65	36.674
569.84	36.383
570.04	36.796
570.23	37.137
570.42	37.101
570.62	37.359
570.81	37.153
571.00	36.823
571.20	37.113
571.39	37.302
571.58	37.692
571.78	37.162
571.97	37.184
572.16	37.074
572.36	37.479
572.55	37.115
572.74	37.924
572.94	37.121
573.13	38.185
573.32	37.892
573.51	37.884
573.71	38.026
573.90	37.522
574.09	37.397
574.29	37.787
574.48	37.690
574.67	38.233
574.87	37.597
575.06	37.342
575.25	37.650
575.45	37.708
575.64	37.477
575.83	38.023
576.03	38.850
576.22	38.228
576.41	38.124
576.60	38.106
576.80	37.881
576.99	38.275
577.18	38.404
577.38	38.949
577.57	38.748
577.76	38.447
577.95	38.605
578.15	37.703
578.34	38.842
578.53	38.710
578.73	38.754
578.92	38.664
579.11	38.290
579.30	39.614
579.50	38.868
579.69	39.293
579.88	38.426
580.08	38.251
580.27	38.614
580.46	39.064
580.65	38.272
580.85	39.764
581.04	39.069
581.23	38.839
581.42	38.641
581.62	38.639
581.81	38.792
582.00	38.989
582.19	38.579
582.39	39.027
582.58	38.421
582.77	39.874
582.96	38.508
583.16	38.357
583.35	39.182
583.54	39.738
583.73	39.229
583.93	38.622
584.12	38.853
584.31	38.448
584.50	37.909
584.70	39.177
584.89	38.758
585.08	39.058
585.27	39.364
585.47	39.207
585.66	38.741
585.85	39.581
586.04	39.295
586.24	39.497
586.43	39.167
586.62	40.528
586.81	39.345
587.00	39.600
587.20	38.724
587.39	38.572
587.58	39.489
587.77	38.774
587.97	38.993
588.16	39.109
588.35	39.442
588.54	38.226
588.73	39.076
588.93	38.619
589.12	39.589
589.31	38.323
589.50	39.256
589.69	38.432
589.89	38.254
590.08	38.950
590.27	38.969
590.46	38.906
590.65	39.372
590.85	39.415
591.04	39.104
591.23	39.345
591.42	39.177
591.61	40.005
591.81	39.794
592.00	39.495
592.19	40.640
592.38	40.159
592.57	39.423
592.77	39.239
592.96	40.105
593.15	40.042
593.34	39.751
593.53	39.739
593.72	38.753
593.92	39.045
594.11	40.189
594.30	39.274
594.49	39.749
594.68	39.646
594.87	39.752
595.07	39.004
595.26	40.142
595.45	39.364
595.64	39.196
595.83	39.776
596.02	39.965
596.22	39.944
596.41	39.404
596.60	39.276
596.79	40.223
596.98	39.197
597.17	39.336
597.37	39.687
597.56	40.171
597.75	39.730
597.94	40.379
598.13	40.503
598.32	39.897
598.51	40.291
598.71	41.364
598.90	40.702
599.09	41.712
599.28	41.073
599.47	41.324
599.66	40.202
599.85	40.800
600.05	40.607
600.24	41.086
600.43	40.714
600.62	42.005
600.81	41.589
601.00	41.222
601.19	41.594
601.38	43.014
601.58	42.273
601.77	41.094
601.96	41.570
602.15	41.957
602.34	40.663
602.53	42.093
602.72	42.311
602.91	41.198
603.10	42.402
603.30	41.086
603.49	40.993
603.68	41.122
603.87	40.694
604.06	40.976
604.25	41.228
604.44	40.906
604.63	41.988
604.82	40.962
605.01	42.146
605.21	41.051
605.40	40.929
605.59	41.887
605.78	41.111
605.97	41.566
606.16	42.002
606.35	41.809
606.54	42.544
606.73	41.550
606.92	42.484
607.11	42.539
607.30	42.743
607.50	41.849
607.69	42.286
607.88	42.143
608.07	41.413
608.26	41.462
608.45	41.995
608.64	42.452
608.83	40.180
609.02	40.993
609.21	41.209
609.40	40.886
609.59	41.595
609.78	41.248
609.97	41.577
610.16	40.448
610.35	42.228
610.55	40.632
610.74	41.510
610.93	41.505
611.12	40.855
611.31	41.195
611.50	42.230
611.69	41.869
611.88	41.803
612.07	42.150
612.26	41.483
612.45	41.651
612.64	41.141
612.83	41.132
613.02	41.412
613.21	41.047
613.40	41.166
613.59	41.971
613.78	41.242
613.97	41.494
614.16	41.922
614.35	42.092
614.54	40.796
614.73	41.050
614.92	41.436
615.11	41.677
615.30	41.509
615.49	40.523
615.68	41.256
615.87	41.044
616.07	40.803
616.26	40.662
616.45	42.140
616.64	41.129
616.83	41.272
617.02	40.504
617.21	40.696
617.40	40.844
617.59	40.835
617.78	40.537
617.97	40.710
618.16	39.739
618.35	40.222
618.54	40.071
618.73	40.085
618.92	40.858
619.11	41.574
619.30	40.113
619.49	40.687
619.68	39.797
619.86	40.333
620.05	40.788
620.24	39.574
620.43	40.244
620.62	39.821
620.81	40.347
621.00	40.319
621.19	40.309
621.38	40.042
621.57	39.965
621.76	40.571
621.95	40.441
622.14	40.513
622.33	39.707
622.52	40.028
622.71	40.783
622.90	40.074
623.09	40.542
623.28	40.199
623.47	39.383
623.66	39.664
623.85	40.129
624.04	39.653
624.23	39.379
624.42	40.022
624.61	39.090
624.80	39.902
624.99	39.763
625.18	40.227
625.36	40.206
625.55	39.870
625.74	39.104
625.93	39.350
626.12	39.095
626.31	39.101
626.50	39.261
626.69	39.259
626.88	39.720
627.07	39.853
627.26	38.370
627.45	38.987
627.64	39.164
627.83	39.256
628.02	38.985
628.20	39.656
628.39	38.728
628.58	39.913
628.77	39.164
628.96	39.391
629.15	39.364
629.34	39.473
629.53	39.617
629.72	40.149
629.91	39.854
630.10	39.547
630.29	39.020
630.47	39.221
630.66	39.658
630.85	39.143
631.04	39.327
631.23	39.523
631.42	38.719
631.61	39.260
631.80	39.485
631.99	38.483
632.18	39.401
632.36	39.088
632.55	38.720
632.74	39.374
632.93	39.287
633.12	38.294
633.31	38.932
633.50	38.849
633.69	38.407
633.88	38.470
634.06	38.157
634.25	39.747
634.44	39.061
634.63	39.350
634.82	39.079
635.01	39.183
635.20	38.595
635.39	38.278
635.57	39.769
635.76	37.865
635.95	39.231
636.14	38.942
636.33	38.323
636.52	37.749
636.71	38.048
636.89	38.808
637.08	38.805
637.27	38.161
637.46	38.665
637.65	38.975
637.84	39.056
638.03	39.280
638.21	38.956
638.40	39.050
638.59	39.087
638.78	38.979
638.97	39.477
639.16	38.953
639.34	38.405
639.53	38.825
639.72	38.265
639.91	38.909
640.10	38.302
640.29	39.495
640.47	39.225
640.66	38.869
640.85	40.055
641.04	39.074
641.23	38.798
641.42	39.223
641.60	38.559
641.79	38.311
641.98	38.614
642.17	38.514
642.36	38.209
642.54	38.903
642.73	39.386
642.92	39.319
643.11	38.795
643.30	39.654
643.49	39.410
643.67	37.927
643.86	39.002
644.05	38.895
644.24	37.877
644.43	38.770
644.61	39.024
644.80	39.573
644.99	38.905
645.18	39.598
645.37	39.742
645.55	38.371
645.74	38.761
645.93	38.540
646.12	39.685
646.31	38.914
646.49	38.898
646.68	38.176
646.87	38.783
647.06	38.442
647.24	38.009
647.43	37.719
647.62	39.731
647.81	37.633
648.00	39.215
648.18	38.963
648.37	37.906
648.56	38.496
648.75	37.758
648.93	38.146
649.12	38.542
649.31	38.874
649.50	39.055
649.68	38.191
649.87	38.413
650.06	37.298
650.25	38.794
650.43	39.106
650.62	38.281
650.81	38.483
651.00	38.081
651.18	37.699
651.37	39.037
651.56	38.248
651.75	38.671
651.93	37.981
652.12	38.464
652.31	37.898
652.50	38.578
652.68	38.287
652.87	38.519
653.06	38.748
653.25	38.526
653.43	38.807
653.62	38.743
653.81	37.938
654.00	38.482
654.18	37.660
654.37	38.400
654.56	38.480
654.74	37.971
654.93	38.672
655.12	37.414
655.31	38.522
655.49	38.694
655.68	37.169
655.87	37.293
656.05	38.210
656.24	38.772
656.43	37.317
656.62	38.086
656.80	37.412
656.99	37.175
657.18	37.519
657.36	36.575
657.55	36.526
657.74	37.194
657.93	37.494
658.11	38.473
658.30	37.333
658.49	36.271
658.67	35.732
658.86	35.488
659.05	36.117
659.23	36.310
659.42	35.440
659.61	34.870
659.79	35.631
659.98	34.880
660.17	34.892
660.35	34.780
660.54	35.530
660.73	35.590
660.91	34.797
661.10	35.497
661.29	35.176
661.47	34.580
661.66	34.476
661.85	33.967
662.03	35.610
662.22	34.625
662.41	33.568
662.59	35.184
662.78	34.091
662.97	34.941
663.15	34.367
663.34	33.252
663.53	32.974
663.71	33.909
663.90	34.323
664.09	33.070
664.27	32.867
664.46	32.947
664.65	32.875
664.83	32.919
665.02	31.415
665.21	32.696
665.39	31.209
665.58	32.643
665.77	32.301
665.95	31.880
666.14	31.483
666.32	31.523
666.51	30.471
666.70	31.979
666.88	30.065
667.07	31.025
667.26	30.818
667.44	32.744
667.63	30.547
667.81	31.415
668.00	31.917
668.19	32.651
668.37	30.287
668.56	32.142
668.75	29.852
668.93	32.748
669.12	31.057
669.30	31.294
669.49	30.470
669.68	30.285
669.86	31.692
670.05	32.257
670.23	30.784
670.42	31.940
670.61	31.614
670.79	31.416
670.98	30.856
671.16	32.039
671.35	30.036
671.54	30.755
671.72	30.799
671.91	32.419
672.09	30.100
672.28	31.914
672.46	31.722
672.65	31.106
672.84	30.195
673.02	32.357
673.21	30.439
673.39	30.792
673.58	30.498
673.77	31.577
673.95	30.712
674.14	31.162
674.32	29.971
674.51	32.071
674.69	30.528
674.88	32.226
675.07	30.199
675.25	33.874
675.44	31.292
675.62	33.003
675.81	30.044
675.99	33.690
676.18	32.859
676.36	33.276
676.55	31.560
676.74	33.794
676.92	32.600
677.11	32.046
677.29	32.593
677.48	34.276
677.66	33.509
677.85	33.140
678.03	32.008
678.22	33.882
678.40	31.245
678.59	33.969
678.78	32.684
678.96	33.484
679.15	33.127
679.33	35.411
679.52	33.871
679.70	32.999
679.89	33.700
680.07	33.971
680.26	32.671
680.44	34.209
680.63	33.423
680.81	33.398
681.00	32.778
681.18	34.539
681.37	33.446
681.55	35.468
681.74	33.427
681.92	34.661
682.11	33.936
682.29	35.307
682.48	35.269
682.66	36.330
682.85	34.663
683.03	35.162
683.22	35.047
683.40	36.438
683.59	34.568
683.77	36.420
683.96	35.157
684.14	37.580
684.33	34.771
684.51	36.993
684.70	36.672
684.88	37.659
685.07	37.090
685.25	39.715
685.44	38.518
685.62	38.499
685.81	37.828
685.99	39.995
686.18	38.055
686.36	39.358
686.55	38.324
686.73	39.111
686.92	40.399
687.10	39.404
687.29	40.654
687.47	41.625
687.65	40.994
687.84	40.334
688.02	41.625
688.21	41.556
688.39	40.646
688.58	42.678
688.76	42.175
688.95	42.758
689.13	41.514
689.32	44.038
689.50	43.586
689.68	43.266
689.87	43.715
690.05	43.408
690.24	43.764
690.42	44.456
690.61	45.493
690.79	47.853
690.98	44.322
691.16	46.395
691.34	45.595
691.53	46.667
691.71	44.981
691.90	47.048
692.08	47.623
692.27	49.011
692.45	49.258
692.63	49.091
692.82	49.292
693.00	49.524
693.19	49.279
693.37	50.114
693.56	49.839
693.74	50.071
693.92	51.827
694.11	53.450
694.29	51.760
694.48	50.771
694.66	50.969
694.84	52.601
695.03	52.893
695.21	52.646
695.40	54.053
695.58	53.368
695.76	53.545
695.95	53.775
696.13	52.655
696.32	54.088
696.50	56.318
696.68	56.246
696.87	55.292
697.05	55.483
697.24	55.376
697.42	55.290
697.60	55.677
697.79	56.565
697.97	55.646
698.16	56.926
698.34	55.604
698.52	56.640
698.71	56.075
698.89	55.802
699.07	55.730
699.26	55.066
699.44	55.911
699.63	56.245
699.81	55.304
699.99	55.009
700.18	56.696
700.36	56.556
700.54	56.967
700.73	56.872
700.91	57.229
701.09	57.206
701.28	58.462
701.46	59.033
701.64	59.747
701.83	60.143
702.01	61.645
702.20	60.225
702.38	60.242
702.56	59.682
702.75	61.745
702.93	61.964
703.11	62.322
703.30	63.191
703.48	62.632
703.66	62.971
703.85	62.504
704.03	64.457
704.21	63.601
704.40	64.184
704.58	63.425
704.76	63.810
704.95	62.848
705.13	62.320
705.31	63.507
705.50	65.230
705.68	63.522
705.86	65.783
706.04	65.825
706.23	66.719
706.41	62.601
706.59	64.843
706.78	64.023
706.96	63.073
707.14	64.389
707.33	66.426
707.51	67.104
707.69	67.494
707.88	66.216
708.06	66.394
708.24	67.074
708.42	65.820
708.61	65.855
708.79	66.107
708.97	66.302
709.16	63.881
709.34	68.692
709.52	66.667
709.71	65.287
709.89	66.683
710.07	65.315
710.25	66.880
710.44	65.198
710.62	66.607
710.80	67.736
710.98	66.121
711.17	66.592
711.35	66.422
711.53	66.831
711.72	65.752
711.90	66.259
712.08	66.922
712.26	65.332
712.45	65.244
712.63	63.776
712.81	68.038
712.99	68.431
713.18	68.247
713.36	67.670
713.54	67.313
713.72	65.262
713.91	68.370
714.09	66.125
714.27	67.097
714.45	67.171
714.64	66.819
714.82	67.998
715.00	68.100
715.18	66.427
715.37	66.762
715.55	68.929
715.73	68.180
715.91	67.294
716.10	64.759
716.28	66.750
716.46	68.521
716.64	65.454
716.83	67.064
717.01	66.335
717.19	67.241
717.37	66.682
717.55	67.776
717.74	67.601
717.92	65.112
718.10	65.634
718.28	66.422
718.47	67.460
718.65	68.707
718.83	66.850
719.01	69.917
719.19	66.178
719.38	67.743
719.56	68.745
719.74	68.239
719.92	68.155
720.10	68.415
720.29	69.736
720.47	69.500
720.65	67.814
720.83	69.595
721.01	68.827
721.20	71.945
721.38	70.919
721.56	70.246
721.74	69.338
721.92	70.378
722.11	71.283
722.29	68.529
722.47	71.135
722.65	71.976
722.83	69.604
723.01	69.173
723.20	70.266
723.38	68.821
723.56	69.175
723.74	70.861
723.92	70.941
724.10	72.681
724.29	71.908
724.47	70.853
724.65	71.870
724.83	71.948
725.01	68.801
725.19	70.615
725.38	68.659
725.56	70.099
725.74	71.019
725.92	72.461
726.10	71.604
726.28	70.667
726.46	70.913
726.65	71.791
726.83	69.012
727.01	71.096
727.19	69.342
727.37	68.784
727.55	70.647
727.73	70.984
727.92	70.978
728.10	70.976
728.28	67.502
728.46	70.272
728.64	70.220
728.82	69.953
729.00	71.017
729.19	71.660
729.37	69.851
729.55	68.351
729.73	68.014
729.91	70.225
730.09	69.648
730.27	72.700
730.45	70.464
730.63	72.193
730.82	70.670
731.00	69.924
731.18	70.722
731.36	71.547
731.54	68.094
731.72	73.072
731.90	69.709
732.08	73.420
732.26	71.093
732.45	73.145
732.63	72.093
732.81	71.871
732.99	72.090
733.17	69.748
733.35	74.051
733.53	72.833
733.71	72.578
733.89	69.146
734.07	70.987
734.25	70.639
734.44	69.808
734.62	70.522
734.80	71.784
734.98	72.624
735.16	70.392
735.34	75.915
735.52	70.135
735.70	72.725
735.88	74.352
736.06	71.134
736.24	74.935
736.42	71.927
736.60	74.252
736.78	74.723
736.97	76.400
737.15	77.035
737.33	70.491
737.51	76.810
737.69	78.367
737.87	77.356
738.05	74.122
738.23	76.195
738.41	71.846
738.59	76.934
738.77	72.877
738.95	76.142
739.13	73.002
739.31	76.126
739.49	76.599
739.67	76.781
739.85	72.780
740.03	73.722
740.21	76.651
740.39	76.003
740.57	76.531
740.75	71.774
740.93	76.294
741.11	74.034
741.30	77.760
741.48	79.535
741.66	79.720
741.84	78.329
742.02	75.975
742.20	76.418
742.38	76.407
742.56	77.792
742.74	77.481
742.92	77.465
743.10	75.774
743.28	78.213
743.46	80.006
743.64	75.324
743.82	78.535
744.00	78.765
744.18	78.599
744.36	80.363
744.54	81.138
744.72	79.959
744.90	83.805
745.08	82.093
745.26	79.866
745.44	80.162
745.62	79.541
745.80	79.864
745.98	78.611
746.16	81.824
746.34	84.386
746.52	76.102
746.70	79.017
746.87	79.234
747.05	77.614
747.23	81.564
747.41	81.901
747.59	80.402
747.77	79.546
747.95	80.844
748.13	79.056
748.31	80.304
748.49	80.813
748.67	76.895
748.85	78.811
749.03	77.182
749.21	77.540
749.39	77.301
749.57	78.616
749.75	77.227
749.93	78.237
750.11	83.467
750.29	77.801
750.47	79.739
750.65	78.339
750.83	77.539
751.01	77.406
751.18	78.047
751.36	76.738
751.54	82.090
751.72	79.427
751.90	80.567
752.08	77.889
752.26	77.446
752.44	78.147
752.62	82.058
752.80	80.638
752.98	78.871
753.16	78.809
753.34	81.136
753.52	80.941
753.69	84.086
753.87	82.459
754.05	80.709
754.23	76.568
754.41	80.937
754.59	80.879
754.77	78.096
754.95	79.988
755.13	77.771
755.31	78.514
755.49	80.348
755.66	78.656
755.84	79.584
756.02	78.639
756.20	81.644
756.38	79.850
756.56	82.961
756.74	79.731
756.92	80.135
757.10	77.273
757.28	82.880
757.45	80.924
757.63	84.006
757.81	78.364
757.99	84.693
758.17	80.260
758.35	82.457
758.53	80.245
758.71	77.962
758.88	80.635
759.06	79.374
759.24	72.987
759.42	77.922
759.60	77.671
759.78	73.196
759.96	77.865
760.13	74.259
760.31	68.816
760.49	73.383
760.67	70.335
760.85	71.459
761.03	69.701
761.21	67.356
761.38	71.027
761.56	70.710
761.74	69.187
761.92	73.158
762.10	67.858
762.28	72.581
762.46	67.126
762.63	71.513
762.81	72.323
762.99	69.136
763.17	71.062
763.35	68.638
763.53	70.511
763.70	71.804
763.88	71.533
764.06	68.358
764.24	69.010
764.42	66.393
764.60	69.142
764.77	68.603
764.95	69.503
765.13	70.261
765.31	72.276
765.49	69.340
765.66	69.829
765.84	72.661
766.02	70.098
766.20	73.190
766.38	71.982
766.56	73.460
766.73	74.383
766.91	74.099
767.09	77.152
767.27	77.359
767.45	77.968
767.62	76.036
767.80	75.030
767.98	76.306
768.16	76.518
768.33	77.235
768.51	75.937
768.69	78.827
768.87	77.283
769.05	81.051
769.22	80.126
769.40	84.588
769.58	81.016
769.76	79.134
769.94	81.748
770.11	80.466
770.29	79.406
770.47	81.596
770.65	77.625
770.82	79.810
771.00	84.450
771.18	84.657
771.36	81.446
771.53	81.818
771.71	83.217
771.89	82.244
772.07	81.855
772.25	81.053
772.42	81.263
772.60	84.478
772.78	76.302
772.96	87.323
773.13	86.407
773.31	87.586
773.49	82.575
773.67	84.786
773.84	86.047
774.02	82.252
774.20	83.430
774.37	84.050
774.55	85.355
774.73	85.209
774.91	79.700
775.08	83.557
775.26	86.411
775.44	86.539
775.62	84.413
775.79	83.788
775.97	83.285
776.15	83.631
776.32	80.394
776.50	88.838
776.68	86.970
776.86	85.389
777.03	77.686
777.21	83.148
777.39	78.816
777.56	84.887
777.74	83.838
777.92	81.453
778.10	86.791
778.27	81.942
778.45	86.200
778.63	85.911
778.80	79.232
778.98	83.755
779.16	91.381
779.34	78.267
779.51	82.663
779.69	79.416
779.87	84.426
780.04	80.598
780.22	80.372
780.40	84.425
780.57	80.205
780.75	83.821
780.93	86.784
781.10	84.076
781.28	89.809
781.46	79.822
781.63	83.512
781.81	87.121
781.99	79.264
782.16	84.661
782.34	85.008
782.52	88.295
782.69	88.272
782.87	84.361
783.05	79.661
783.22	85.037
783.40	81.663
783.58	84.855
783.75	77.165
783.93	85.542
784.11	78.646
784.28	87.547
784.46	87.717
784.64	86.381
784.81	86.509
784.99	90.183
785.17	83.642
785.34	81.098
785.52	74.330
785.69	81.775
785.87	81.551
786.05	88.414
786.22	82.915
786.40	92.588
786.58	80.658
786.75	83.905
786.93	83.503
787.11	83.686
787.28	83.104
787.46	86.816
787.63	82.927
787.81	89.852
787.99	84.689
788.16	82.162
788.34	82.716
788.51	85.993
788.69	77.463
788.87	79.289
789.04	76.532
789.22	82.421
789.39	80.295
789.57	82.081
789.75	77.926
789.92	81.172
790.10	75.689
790.27	78.234
790.45	74.961
790.63	78.218
790.80	74.570
790.98	82.055
791.15	83.342
791.33	83.826
791.51	78.734
791.68	85.594
791.86	80.109
792.03	83.052
792.21	78.567
792.39	83.533
792.56	78.454
792.74	81.492
792.91	83.753
793.09	83.465
793.26	78.588
793.44	83.027
793.62	81.150
793.79	79.735
793.97	76.730
794.14	82.472
794.32	81.316
794.49	85.748
794.67	72.585
794.84	79.114
795.02	75.846
795.20	83.563
795.37	76.219
795.55	83.098
795.72	77.931
795.90	78.721
796.07	83.842
796.25	81.180
796.42	83.622
796.60	83.315
796.77	75.439
796.95	79.288
797.13	78.091
797.30	81.910
797.48	76.213
797.65	77.483
797.83	75.079
798.00	81.455
798.18	75.504
798.35	80.442
798.53	76.438
798.70	75.740
798.88	77.016
799.05	83.186
799.23	77.246
799.40	76.280
799.58	79.496
799.75	82.701
799.93	72.324
800.10	83.907
800.28	79.516
800.45	80.084
800.63	78.261
800.80	85.706
800.98	76.657
801.15	77.190
801.33	83.293
801.50	80.692
801.68	71.785
801.85	76.306
802.03	74.037
802.20	77.498
802.38	78.780
802.55	78.637
802.73	76.969
802.90	77.270
803.08	75.289
803.25	84.332
803.43	80.388
803.60	83.601
803.78	81.966
803.95	81.684
804.13	79.772
804.30	87.078
804.48	70.533
804.65	78.803
804.83	80.236
805.00	76.977
805.17	78.719
805.35	83.166
805.52	79.089
805.70	75.299
805.87	78.247
806.05	83.557
806.22	74.780
806.40	77.012
806.57	77.064
806.75	83.899
806.92	83.356
807.09	80.435
807.27	76.918
807.44	79.465
807.62	76.452
807.79	76.928
807.97	72.776
808.14	78.387
808.31	77.372
808.49	78.709
808.66	72.765
808.84	80.940
809.01	83.583
809.19	82.863
809.36	76.228
809.53	74.439
809.71	78.173
809.88	87.916
810.06	82.726
810.23	78.537
810.41	85.518
810.58	83.560
810.75	78.587
810.93	81.930
811.10	71.903
811.28	79.300
811.45	83.779
811.62	81.987
811.80	80.316
811.97	80.702
812.15	86.008
812.32	78.281
812.49	80.318
812.67	75.976
812.84	69.572
813.02	81.316
813.19	70.970
813.36	81.187
813.54	72.971
813.71	82.572
813.89	72.811
814.06	79.638
814.23	77.090
814.41	76.954
814.58	77.255
814.75	76.466
814.93	77.389
815.10	75.717
815.28	69.294
815.45	71.695
815.62	70.505
815.80	70.684
815.97	74.634
816.14	73.263
816.32	69.883
816.49	71.370
816.66	67.803
816.84	78.657
817.01	66.353
817.18	75.854
817.36	66.803
817.53	73.041
817.71	59.539
817.88	72.573
818.05	70.754
818.23	73.778
818.40	67.344
818.57	72.771
818.75	67.898
818.92	64.011
819.09	67.504
819.27	74.127
819.44	71.221
819.61	70.972
819.79	69.383
819.96	80.674
820.13	66.471
820.31	69.505
820.48	72.673
820.65	73.234
820.82	66.491
821.00	71.115
821.17	69.113
821.34	68.109
821.52	71.290
821.69	67.015
821.86	65.310
822.04	69.572
822.21	67.868
822.38	70.577
822.56	67.542
822.73	67.017
822.90	66.405
823.07	64.993
823.25	66.943
823.42	65.037
823.59	64.512
823.77	64.698
823.94	65.714
824.11	64.774
824.29	64.786
824.46	66.050
824.63	66.498
824.80	66.496
824.98	67.590
825.15	69.150
825.32	67.847
825.49	70.166
825.67	66.082
825.84	70.144
826.01	69.448
826.19	71.621
826.36	66.368
826.53	71.800
826.70	70.252
826.88	70.647
827.05	69.233
827.22	71.598
827.39	68.964
827.57	65.497
827.74	63.812
827.91	65.773
828.08	63.699
828.26	67.794
828.43	67.716
828.60	68.012
828.77	64.974
828.95	66.032
829.12	65.323
829.29	62.520
829.46	67.853
829.64	69.669
829.81	63.033
829.98	67.781
830.15	63.735
830.32	70.073
830.50	64.273
830.67	71.595
830.84	64.101
831.01	63.943
831.19	57.642
831.36	72.205
831.53	66.503
831.70	76.361
831.87	68.436
832.05	69.906
832.22	77.829
832.39	64.485
832.56	74.094
832.74	70.161
832.91	64.281
833.08	74.931
833.25	60.196
833.42	64.360
833.60	58.542
833.77	62.235
833.94	60.603
834.11	65.061
834.28	59.891
834.45	67.626
834.63	61.483
834.80	62.768
834.97	65.597
835.14	69.756
835.31	63.490
835.49	65.438
835.66	65.107
835.83	68.463
836.00	63.920
836.17	68.719
836.34	62.803
836.52	69.379
836.69	67.219
836.86	69.699
837.03	73.051
837.20	67.855
837.37	66.563
837.55	59.649
837.72	63.023
837.89	69.350
838.06	74.510
838.23	69.064
838.40	69.808
838.58	71.469
838.75	76.358
838.92	76.172
839.09	88.340
839.26	76.290
839.43	74.176
839.60	83.103
839.78	81.179
839.95	90.037
840.12	69.962
840.29	83.035
840.46	79.505
840.63	79.639
840.80	75.743
840.98	72.889
841.15	68.321
841.32	70.309
841.49	64.642
841.66	82.897
841.83	64.464
842.00	71.856
842.17	79.961
842.34	65.039
842.52	83.828
842.69	79.956
842.86	77.804
843.03	105.810
843.20	88.553
843.37	78.184
843.54	83.820
843.71	90.501
843.88	85.257
844.06	97.222
844.23	87.834
844.40	78.012
844.57	84.627
844.74	98.644
844.91	90.951
845.08	85.236
845.25	88.571
845.42	82.033
845.59	93.436
845.76	94.659
845.94	100.177
846.11	94.463
846.28	104.483
846.45	104.971
846.62	118.301
846.79	94.805
846.96	92.293
847.13	103.226
847.30	92.349
847.47	93.075
847.64	88.998
847.81	90.129
847.98	103.734
848.15	91.368
848.32	107.414
848.50	115.613
848.67	93.601
848.84	94.332
849.01	97.764
849.18	91.207
849.35	107.312
849.52	111.683
849.69	108.817
849.86	115.837
850.03	105.386
850.20	104.878
850.37	90.092
850.54	109.126
850.71	115.965
850.88	99.585
851.05	99.167
851.22	103.495
851.39	111.765
851.56	109.978
851.73	115.765
851.90	98.853
852.07	109.592
852.24	101.370
852.41	107.923
852.58	95.238
852.75	94.419
852.92	107.042
853.09	133.427
853.26	105.684
853.43	114.444
853.60	94.179
853.77	117.249
853.94	106.571
854.11	120.882
854.28	118.049
854.45	98.444
854.62	123.636
854.79	95.796
854.96	120.408
855.13	116.009
855.30	119.750
855.47	124.490
855.64	99.109
855.81	96.890
855.98	124.932
856.15	91.667
856.32	84.342
856.49	115.603
856.66	97.183
856.83	117.026
857.00	110.669
857.17	112.474
857.34	103.070
857.51	96.923
857.68	107.876
857.85	149.492
858.02	104.156
858.19	94.153
858.36	110.123
858.53	97.430
858.70	105.044
858.87	110.556
859.04	99.548
859.21	100.647
859.38	103.542
859.55	116.302
859.72	118.497
859.89	141.399
860.05	107.108
860.22	135.789
860.39	105.669
860.56	116.919
860.73	109.308
860.90	108.447
861.07	125.799
861.24	93.593
861.41	111.905
861.58	110.118
861.75	113.126
861.92	88.184
862.09	120.253
862.26	94.090
862.43	134.160
862.59	92.130
862.76	103.609
862.93	130.000
863.10	108.353
863.27	117.404
863.44	93.382
863.61	95.000
863.78	126.567
863.95	106.176
864.12	133.645
864.29	134.650
864.45	96.474
864.62	119.634
864.79	129.208
864.96	105.459
865.13	102.661
865.30	118.571
865.47	131.755
865.64	105.896
865.81	114.601
865.97	97.842
866.14	102.227
866.31	67.606
866.48	109.740
866.65	92.969
866.82	112.230
866.99	127.441
867.16	106.283
867.33	108.000
867.49	113.936
867.66	101.928
867.83	92.291
868.00	99.050
868.17	104.598
868.34	103.571
868.51	88.164
868.67	103.791
868.84	84.368
869.01	109.677
869.18	107.317
869.35	116.777
869.52	121.250
869.69	125.000
869.85	110.617
870.02	92.233
870.19	107.895
870.36	110.053
870.53	89.277
870.70	102.979
870.86	115.285
871.03	118.794
871.20	102.723
871.37	116.446
871.54	103.261
871.71	112.136
871.87	107.065
872.04	108.911
872.21	98.455
872.38	100.000
872.55	110.380
872.72	90.090
872.88	130.141
873.05	96.986
873.22	107.302
873.39	103.073
873.56	88.155
873.72	114.423
873.89	122.384
874.06	103.608
874.23	111.518
874.40	104.239
874.56	106.237
874.73	112.136
874.90	108.289
875.07	87.773
875.24	97.136
875.40	86.742
875.57	109.091
875.74	99.268
875.91	121.138
876.08	87.665
876.24	108.678
876.41	138.071
876.58	111.456
876.75	105.510
876.92	85.045
877.08	85.742
877.25	102.320
877.42	91.463
877.59	110.398
877.75	92.057
877.92	73.954
878.09	112.297
878.26	97.590
878.42	115.160
878.59	109.513
878.76	96.443
878.93	112.217
879.09	100.655
879.26	97.101
879.43	92.809
879.60	91.493
879.76	84.342
879.93	101.238
880.10	82.791
880.27	67.468
880.43	75.884
880.60	66.771
880.77	67.231
880.94	67.790
881.10	61.210
881.27	67.579
881.44	49.497
881.61	60.062
881.77	64.689
881.94	56.022
882.11	55.709
882.28	50.435
882.44	58.373
882.61	59.608
882.78	61.850
882.94	64.690
883.11	58.643
883.28	66.446
883.45	65.789
883.61	61.720
883.78	61.783
883.95	67.551
884.11	56.703
884.28	62.183
>>>>>End Processed Spectral Data<<<<<
