SpectraSuite Data File
++++++++++++++++++++++++++++++++++++
Date: Mon Sep 23 04:28:49 EST 2019
User: sgrac
Dark Spectrum Present: Yes
Reference Spectrum Present: Yes
Number of Sampled Component Spectra: 1
Spectrometers: USB4E01596
Integration Time (usec): 100000 (USB4E01596)
Spectra Averaged: 3 (USB4E01596)
Boxcar Smoothing: 0 (USB4E01596)
Correct for Electrical Dark: No (USB4E01596)
Strobe/Lamp Enabled: Yes (USB4E01596)
Correct for Detector Non-linearity: No (USB4E01596)
Correct for Stray Light: No (USB4E01596)
Number of Pixels in Processed Spectrum: 3648
>>>>>Begin Processed Spectral Data<<<<<
178.44	1600.000
178.66	1600.000
178.87	1600.000
179.09	7000.000
179.30	-6750.000
179.52	-780.645
179.74	-488.679
179.95	781.818
180.17	-708.333
180.38	542.105
180.60	-2690.909
180.82	737.778
181.03	4566.667
181.25	-2666.667
181.46	-1252.000
181.68	1150.000
181.89	-600.000
182.11	-1850.000
182.33	-2000.000
182.54	835.417
182.76	5300.000
182.97	-704.255
183.19	1300.000
183.40	350.413
183.62	446.154
183.84	360.909
184.05	4928.571
184.27	533.333
184.48	546.970
184.70	1688.235
184.91	1533.333
185.13	3530.000
185.34	-15900.000
185.56	1176.923
185.78	348.611
185.99	1105.556
186.21	350.000
186.42	-5975.000
186.64	2300.000
186.85	-7360.000
187.07	650.000
187.28	488.158
187.50	569.091
187.72	437.179
187.93	856.364
188.15	412.500
188.36	478.947
188.58	520.408
188.79	343.269
189.01	466.197
189.22	935.135
189.44	-984.848
189.65	334.746
189.87	-6550.000
190.09	492.063
190.30	840.476
190.52	595.000
190.73	682.609
190.95	-4783.333
191.16	425.000
191.38	458.108
191.59	451.471
191.81	606.452
192.02	2166.667
192.24	918.750
192.45	1141.176
192.67	-1737.500
192.88	633.962
193.10	575.410
193.31	982.500
193.53	273.387
193.74	390.667
193.96	2414.286
194.18	1096.154
194.39	2193.333
194.61	493.151
194.82	1872.727
195.04	432.927
195.25	-454.386
195.47	-518.519
195.68	4900.000
195.90	581.818
196.11	511.940
196.33	30800.000
196.54	765.854
196.76	1964.286
196.97	466.234
197.19	916.216
197.40	2128.571
197.62	343.119
197.83	1141.935
198.05	598.182
198.26	989.655
198.48	476.056
198.69	590.000
198.91	1750.000
199.12	741.860
199.34	676.087
199.55	352.857
199.77	2157.895
199.98	1070.588
200.20	485.526
200.41	569.355
200.63	335.398
200.84	2235.714
201.06	3355.556
201.27	802.439
201.49	518.310
201.70	-986.667
201.91	379.167
202.13	549.153
202.34	601.724
202.56	-1072.000
202.77	755.556
202.99	7016.667
203.20	-4200.000
203.42	2356.250
203.63	434.211
203.85	5200.000
204.06	716.000
204.28	230.303
204.49	611.111
204.71	576.271
204.92	1088.462
205.14	0.000
205.35	1060.000
205.56	-1570.000
205.78	8320.000
205.99	-2057.143
206.21	12350.000
206.42	593.182
206.64	1112.903
206.85	1103.704
207.07	-3155.556
207.28	436.207
207.50	808.696
207.71	1012.903
207.93	378.313
208.14	-1100.000
208.35	507.273
208.57	1232.000
208.78	-3388.889
209.00	398.936
209.21	-17200.000
209.43	-10766.667
209.64	-1793.333
209.86	331.959
210.07	462.791
210.28	440.845
210.50	1324.138
210.71	527.451
210.93	248.529
211.14	457.303
211.36	2000.000
211.57	481.818
211.78	461.429
212.00	431.765
212.21	415.714
212.43	769.231
212.64	431.915
212.86	527.027
213.07	336.697
213.29	-777.778
213.50	331.522
213.71	414.943
213.93	417.073
214.14	1590.909
214.36	522.059
214.57	392.405
214.78	731.111
215.00	308.333
215.21	1013.333
215.43	751.351
215.64	430.159
215.86	442.500
216.07	931.429
216.28	797.368
216.50	332.500
216.71	30500.000
216.93	654.545
217.14	1494.444
217.35	337.879
217.57	354.955
217.78	358.025
218.00	282.828
218.21	952.174
218.42	770.213
218.64	539.286
218.85	630.000
219.07	1655.000
219.28	336.449
219.49	635.294
219.71	415.385
219.92	229.104
220.14	330.928
220.35	482.667
220.56	326.437
220.78	304.808
220.99	237.903
221.21	211.828
221.42	330.864
221.63	209.827
221.85	481.538
222.06	414.286
222.28	486.154
222.49	270.270
222.70	228.346
222.92	736.735
223.13	472.131
223.34	273.050
223.56	384.524
223.77	320.000
223.99	358.947
224.20	521.429
224.41	408.219
224.63	318.182
224.84	247.973
225.05	151.709
225.27	320.000
225.48	320.588
225.69	282.707
225.91	394.595
226.12	280.620
226.34	222.819
226.55	171.942
226.76	261.875
226.98	151.765
227.19	141.016
227.40	289.844
227.62	152.381
227.83	146.352
228.04	116.760
228.26	97.686
228.47	86.119
228.69	77.919
228.90	59.488
229.11	56.899
229.33	52.665
229.54	44.530
229.75	55.603
229.97	49.933
230.18	48.427
230.39	35.398
230.61	40.560
230.82	55.090
231.03	36.641
231.25	45.537
231.46	43.439
231.67	51.900
231.89	61.142
232.10	50.438
232.31	56.610
232.53	60.611
232.74	70.654
232.95	58.258
233.17	62.800
233.38	57.353
233.59	71.614
233.81	71.558
234.02	67.335
234.23	71.277
234.45	78.646
234.66	74.779
234.87	65.164
235.09	57.878
235.30	51.839
235.51	75.623
235.73	61.967
235.94	51.379
236.15	53.001
236.36	61.682
236.58	55.850
236.79	48.230
237.00	56.305
237.22	61.224
237.43	60.857
237.64	51.654
237.86	59.398
238.07	74.570
238.28	58.871
238.50	57.770
238.71	52.338
238.92	51.562
239.13	52.542
239.35	58.476
239.56	55.654
239.77	65.306
239.99	45.275
240.20	56.233
240.41	53.945
240.63	41.914
240.84	44.527
241.05	37.606
241.26	37.561
241.48	32.520
241.69	34.227
241.90	27.208
242.12	23.071
242.33	28.571
242.54	25.873
242.75	25.249
242.97	24.330
243.18	20.189
243.39	19.559
243.61	22.222
243.82	22.736
244.03	22.835
244.24	22.927
244.46	24.116
244.67	24.872
244.88	25.163
245.09	25.334
245.31	25.550
245.52	25.075
245.73	19.407
245.95	42.885
246.16	23.792
246.37	24.663
246.58	24.140
246.80	19.640
247.01	24.888
247.22	18.491
247.43	19.753
247.65	19.873
247.86	18.588
248.07	14.783
248.28	15.806
248.50	18.136
248.71	15.462
248.92	18.463
249.13	13.780
249.35	18.085
249.56	18.362
249.77	17.073
249.98	17.395
250.20	21.964
250.41	22.935
250.62	21.949
250.83	21.803
251.05	24.244
251.26	21.465
251.47	23.036
251.68	24.224
251.90	22.475
252.11	25.122
252.32	25.614
252.53	26.259
252.75	19.302
252.96	24.988
253.17	18.750
253.38	20.416
253.59	21.466
253.81	20.080
254.02	17.473
254.23	18.082
254.44	14.301
254.66	18.525
254.87	20.552
255.08	24.912
255.29	22.990
255.50	20.230
255.72	28.357
255.93	28.176
256.14	37.057
256.35	24.037
256.57	27.538
256.78	26.779
256.99	24.249
257.20	34.860
257.41	26.350
257.63	29.625
257.84	25.677
258.05	22.487
258.26	22.854
258.47	21.938
258.69	22.460
258.90	17.913
259.11	18.402
259.32	17.111
259.53	14.456
259.75	14.843
259.96	13.112
260.17	11.897
260.38	11.737
260.59	13.727
260.81	13.811
261.02	13.745
261.23	13.223
261.44	14.743
261.65	14.853
261.87	13.195
262.08	15.319
262.29	15.565
262.50	15.866
262.71	12.703
262.92	18.361
263.14	15.245
263.35	15.955
263.56	15.673
263.77	18.267
263.98	17.411
264.20	18.742
264.41	15.070
264.62	16.681
264.83	15.226
265.04	20.694
265.25	23.023
265.47	19.147
265.68	21.761
265.89	19.753
266.10	14.005
266.31	23.575
266.52	18.390
266.74	15.434
266.95	18.266
267.16	16.534
267.37	14.960
267.58	16.527
267.79	16.543
268.01	14.315
268.22	17.085
268.43	17.477
268.64	16.656
268.85	14.874
269.06	13.747
269.27	18.825
269.49	14.771
269.70	17.618
269.91	16.509
270.12	16.158
270.33	19.801
270.54	13.690
270.75	13.898
270.97	13.639
271.18	11.357
271.39	12.709
271.60	16.167
271.81	13.795
272.02	13.910
272.23	15.933
272.45	13.882
272.66	10.848
272.87	12.128
273.08	12.706
273.29	14.104
273.50	14.232
273.71	12.554
273.92	12.627
274.14	12.307
274.35	13.782
274.56	14.888
274.77	13.652
274.98	14.744
275.19	15.003
275.40	15.533
275.61	13.393
275.83	15.780
276.04	15.100
276.25	18.700
276.46	15.757
276.67	17.823
276.88	20.855
277.09	14.228
277.30	15.282
277.51	15.995
277.73	13.291
277.94	13.448
278.15	18.281
278.36	15.796
278.57	11.687
278.78	13.949
278.99	17.540
279.20	17.309
279.41	18.379
279.62	15.181
279.84	14.659
280.05	14.375
280.26	12.379
280.47	15.326
280.68	15.282
280.89	15.107
281.10	13.958
281.31	13.281
281.52	16.729
281.73	11.669
281.94	13.135
282.16	15.319
282.37	12.332
282.58	12.741
282.79	17.742
283.00	15.937
283.21	11.537
283.42	13.155
283.63	15.510
283.84	12.184
284.05	14.605
284.26	12.512
284.47	13.203
284.68	12.559
284.89	13.285
285.11	13.575
285.32	11.493
285.53	13.551
285.74	16.597
285.95	14.328
286.16	14.337
286.37	12.535
286.58	12.695
286.79	10.869
287.00	13.027
287.21	11.716
287.42	13.115
287.63	12.799
287.84	12.570
288.05	14.724
288.26	13.529
288.48	15.836
288.69	11.858
288.90	13.230
289.11	17.309
289.32	16.645
289.53	14.620
289.74	9.912
289.95	13.410
290.16	14.829
290.37	11.597
290.58	10.997
290.79	9.820
291.00	10.344
291.21	12.429
291.42	10.309
291.63	13.052
291.84	14.135
292.05	10.713
292.26	13.167
292.47	11.689
292.68	11.501
292.89	12.387
293.10	13.268
293.31	12.834
293.52	8.886
293.73	12.741
293.94	12.295
294.15	9.522
294.36	13.446
294.57	13.942
294.79	12.927
295.00	10.476
295.21	14.699
295.42	13.680
295.63	14.114
295.84	11.077
296.05	10.628
296.26	11.363
296.47	12.266
296.68	11.421
296.89	14.616
297.10	14.488
297.31	12.913
297.52	9.098
297.73	13.286
297.94	12.517
298.15	12.474
298.36	13.189
298.57	13.205
298.78	13.868
298.99	12.325
299.20	12.456
299.41	14.615
299.62	13.838
299.83	11.052
300.04	13.781
300.25	14.714
300.46	15.741
300.67	14.589
300.88	13.799
301.09	11.754
301.30	12.865
301.50	11.109
301.71	15.303
301.92	15.617
302.13	11.966
302.34	11.513
302.55	10.264
302.76	12.155
302.97	12.092
303.18	12.896
303.39	10.665
303.60	12.049
303.81	13.610
304.02	10.729
304.23	12.229
304.44	9.311
304.65	9.455
304.86	11.788
305.07	10.348
305.28	10.707
305.49	13.361
305.70	13.915
305.91	11.810
306.12	11.877
306.33	10.608
306.54	11.390
306.75	13.167
306.96	16.575
307.17	13.549
307.38	9.784
307.58	11.652
307.79	12.622
308.00	11.042
308.21	11.081
308.42	10.117
308.63	10.017
308.84	10.506
309.05	10.739
309.26	7.649
309.47	11.445
309.68	10.960
309.89	11.633
310.10	10.969
310.31	11.404
310.52	9.616
310.73	12.685
310.94	8.153
311.14	9.662
311.35	9.769
311.56	10.052
311.77	9.086
311.98	9.130
312.19	10.474
312.40	8.362
312.61	8.068
312.82	10.538
313.03	8.476
313.24	10.544
313.45	10.402
313.66	9.553
313.86	11.814
314.07	9.911
314.28	11.153
314.49	8.144
314.70	12.559
314.91	10.831
315.12	9.650
315.33	12.338
315.54	8.809
315.75	9.010
315.96	7.918
316.16	8.596
316.37	10.132
316.58	8.913
316.79	10.900
317.00	11.146
317.21	9.731
317.42	10.119
317.63	9.379
317.84	9.798
318.05	10.629
318.25	10.863
318.46	9.977
318.67	10.421
318.88	10.696
319.09	10.996
319.30	9.099
319.51	10.279
319.72	10.916
319.93	9.177
320.13	9.373
320.34	12.154
320.55	11.698
320.76	9.036
320.97	10.693
321.18	11.516
321.39	7.449
321.60	9.918
321.80	13.578
322.01	9.564
322.22	9.447
322.43	9.482
322.64	9.700
322.85	9.486
323.06	11.467
323.27	11.015
323.47	11.307
323.68	11.550
323.89	8.892
324.10	10.101
324.31	9.038
324.52	9.736
324.73	9.903
324.93	8.404
325.14	10.524
325.35	10.218
325.56	8.147
325.77	10.544
325.98	11.061
326.19	10.330
326.39	8.607
326.60	9.322
326.81	8.602
327.02	8.099
327.23	8.441
327.44	12.279
327.64	7.117
327.85	6.300
328.06	10.544
328.27	12.637
328.48	10.995
328.69	8.260
328.90	7.448
329.10	10.621
329.31	9.625
329.52	10.474
329.73	11.246
329.94	8.790
330.15	9.960
330.35	11.873
330.56	10.268
330.77	11.008
330.98	7.501
331.19	10.248
331.39	9.831
331.60	10.673
331.81	7.896
332.02	10.032
332.23	9.125
332.44	8.157
332.64	8.957
332.85	9.183
333.06	9.587
333.27	8.788
333.48	9.817
333.68	7.686
333.89	9.141
334.10	7.979
334.31	10.525
334.52	8.515
334.72	8.868
334.93	8.298
335.14	8.390
335.35	8.823
335.56	10.027
335.76	8.057
335.97	10.230
336.18	7.770
336.39	11.404
336.60	7.605
336.80	8.776
337.01	6.997
337.22	8.376
337.43	9.933
337.64	9.906
337.84	10.212
338.05	8.112
338.26	11.526
338.47	10.796
338.68	7.904
338.88	9.145
339.09	7.436
339.30	8.658
339.51	9.506
339.71	8.774
339.92	7.159
340.13	9.008
340.34	8.716
340.55	9.376
340.75	9.269
340.96	7.352
341.17	9.891
341.38	8.421
341.58	8.714
341.79	8.139
342.00	7.942
342.21	8.119
342.41	7.160
342.62	8.292
342.83	9.409
343.04	6.704
343.24	7.526
343.45	8.347
343.66	7.005
343.87	9.168
344.07	7.297
344.28	8.183
344.49	8.960
344.70	9.953
344.90	7.781
345.11	6.944
345.32	7.095
345.53	7.968
345.73	8.439
345.94	10.770
346.15	10.323
346.36	8.266
346.56	9.652
346.77	9.725
346.98	7.608
347.19	10.088
347.39	9.005
347.60	8.601
347.81	9.400
348.02	9.695
348.22	7.051
348.43	8.911
348.64	8.842
348.84	8.256
349.05	9.445
349.26	11.167
349.47	7.603
349.67	9.634
349.88	10.526
350.09	10.118
350.30	11.309
350.50	10.326
350.71	11.343
350.92	10.554
351.12	10.898
351.33	9.997
351.54	10.628
351.74	11.834
351.95	10.005
352.16	13.112
352.37	12.912
352.57	12.060
352.78	11.802
352.99	13.034
353.19	12.194
353.40	11.741
353.61	16.256
353.82	15.000
354.02	17.246
354.23	14.455
354.44	17.541
354.64	16.434
354.85	15.666
355.06	15.611
355.26	14.462
355.47	15.640
355.68	19.763
355.88	20.302
356.09	19.174
356.30	17.452
356.51	20.658
356.71	18.872
356.92	16.642
357.13	21.374
357.33	22.997
357.54	22.709
357.75	19.631
357.95	23.153
358.16	21.409
358.37	25.317
358.57	22.328
358.78	26.689
358.99	24.592
359.19	25.136
359.40	24.894
359.61	24.816
359.81	26.629
360.02	29.474
360.23	24.590
360.43	27.074
360.64	26.403
360.85	27.964
361.05	25.882
361.26	29.776
361.47	28.215
361.67	29.512
361.88	27.283
362.09	29.352
362.29	27.960
362.50	30.024
362.70	29.200
362.91	30.107
363.12	29.342
363.32	31.497
363.53	30.649
363.74	31.523
363.94	30.231
364.15	32.341
364.36	32.888
364.56	30.795
364.77	33.083
364.98	33.621
365.18	32.706
365.39	33.037
365.59	30.969
365.80	32.389
366.01	33.655
366.21	31.507
366.42	30.250
366.63	33.104
366.83	32.237
367.04	30.314
367.24	33.341
367.45	32.963
367.66	31.526
367.86	33.359
368.07	33.130
368.28	31.712
368.48	32.914
368.69	32.411
368.89	32.850
369.10	33.895
369.31	33.039
369.51	33.773
369.72	35.093
369.92	35.155
370.13	30.827
370.34	32.921
370.54	31.184
370.75	33.792
370.95	31.398
371.16	33.953
371.37	32.890
371.57	33.742
371.78	32.579
371.98	32.900
372.19	33.069
372.40	34.025
372.60	34.982
372.81	33.590
373.01	32.162
373.22	33.814
373.43	33.056
373.63	33.412
373.84	33.852
374.04	33.882
374.25	32.038
374.46	33.964
374.66	34.037
374.87	34.716
375.07	30.125
375.28	31.975
375.48	32.748
375.69	33.830
375.90	31.533
376.10	31.773
376.31	32.331
376.51	32.820
376.72	32.371
376.92	32.169
377.13	33.097
377.34	33.474
377.54	31.931
377.75	32.997
377.95	31.217
378.16	33.339
378.36	32.375
378.57	32.914
378.77	31.928
378.98	33.297
379.19	32.257
379.39	32.516
379.60	32.347
379.80	33.756
380.01	33.719
380.21	32.646
380.42	33.482
380.62	32.244
380.83	31.409
381.04	32.114
381.24	32.698
381.45	32.897
381.65	30.963
381.86	32.121
382.06	32.226
382.27	30.845
382.47	31.609
382.68	32.534
382.88	31.103
383.09	31.094
383.29	31.658
383.50	32.333
383.71	31.560
383.91	31.317
384.12	31.192
384.32	32.220
384.53	30.721
384.73	31.674
384.94	30.423
385.14	31.760
385.35	30.669
385.55	31.817
385.76	30.657
385.96	30.805
386.17	31.994
386.37	32.656
386.58	32.014
386.78	31.730
386.99	31.045
387.19	32.850
387.40	31.253
387.60	32.526
387.81	30.949
388.01	31.080
388.22	32.281
388.42	31.888
388.63	32.021
388.83	31.925
389.04	29.910
389.24	32.353
389.45	31.367
389.65	31.723
389.86	30.431
390.06	30.593
390.27	30.761
390.47	31.906
390.68	29.557
390.88	31.195
391.09	31.873
391.29	31.200
391.50	30.521
391.70	30.336
391.91	30.777
392.11	30.900
392.32	30.136
392.52	30.822
392.73	30.343
392.93	31.657
393.14	30.832
393.34	30.572
393.55	30.676
393.75	30.873
393.95	30.334
394.16	30.912
394.36	30.963
394.57	31.045
394.77	30.416
394.98	30.671
395.18	30.291
395.39	30.780
395.59	30.853
395.80	31.234
396.00	29.660
396.21	31.543
396.41	30.055
396.61	32.164
396.82	30.759
397.02	32.256
397.23	31.473
397.43	30.559
397.64	30.370
397.84	30.655
398.05	29.399
398.25	30.672
398.45	30.569
398.66	29.967
398.86	30.018
399.07	31.037
399.27	29.534
399.48	29.965
399.68	29.351
399.89	29.292
400.09	30.060
400.29	29.404
400.50	29.424
400.70	29.890
400.91	30.591
401.11	30.413
401.32	30.156
401.52	28.987
401.72	29.741
401.93	30.612
402.13	29.383
402.34	30.336
402.54	28.682
402.75	30.341
402.95	28.914
403.15	30.216
403.36	27.705
403.56	29.561
403.77	28.755
403.97	29.089
404.17	28.349
404.38	29.959
404.58	28.226
404.79	29.363
404.99	28.939
405.19	29.845
405.40	28.845
405.60	28.945
405.81	28.735
406.01	28.788
406.21	28.880
406.42	29.483
406.62	28.614
406.83	28.083
407.03	29.080
407.23	29.265
407.44	28.475
407.64	29.714
407.85	29.030
408.05	27.753
408.25	28.526
408.46	29.633
408.66	28.892
408.87	28.915
409.07	28.838
409.27	27.949
409.48	28.130
409.68	28.524
409.88	27.221
410.09	27.847
410.29	28.081
410.50	28.337
410.70	27.726
410.90	28.272
411.11	28.086
411.31	27.394
411.51	28.734
411.72	28.108
411.92	27.883
412.12	28.166
412.33	27.336
412.53	27.799
412.74	27.187
412.94	27.603
413.14	27.901
413.35	28.408
413.55	27.421
413.75	28.470
413.96	27.255
414.16	28.190
414.36	27.545
414.57	27.965
414.77	27.224
414.97	26.943
415.18	27.205
415.38	27.211
415.58	26.584
415.79	27.000
415.99	26.455
416.19	27.331
416.40	26.862
416.60	26.835
416.80	26.896
417.01	27.576
417.21	26.025
417.41	27.281
417.62	25.768
417.82	27.004
418.02	26.104
418.23	26.696
418.43	26.562
418.63	26.743
418.84	26.702
419.04	26.371
419.24	26.527
419.45	26.209
419.65	26.119
419.85	26.803
420.06	26.626
420.26	26.295
420.46	26.099
420.67	26.237
420.87	25.652
421.07	25.386
421.28	26.136
421.48	25.911
421.68	26.165
421.88	25.824
422.09	25.680
422.29	25.744
422.49	26.164
422.70	25.771
422.90	25.994
423.10	26.372
423.31	26.574
423.51	25.597
423.71	26.340
423.91	25.642
424.12	26.413
424.32	26.141
424.52	25.924
424.73	25.253
424.93	25.792
425.13	25.449
425.33	25.260
425.54	25.495
425.74	26.242
425.94	26.000
426.15	26.365
426.35	25.760
426.55	26.489
426.75	26.495
426.96	26.934
427.16	26.192
427.36	26.335
427.57	26.454
427.77	26.350
427.97	26.635
428.17	27.056
428.38	26.530
428.58	25.912
428.78	27.058
428.98	26.439
429.19	26.174
429.39	25.897
429.59	26.402
429.79	26.058
430.00	26.325
430.20	25.581
430.40	26.166
430.60	26.194
430.81	26.062
431.01	25.395
431.21	25.889
431.41	25.605
431.62	26.466
431.82	26.035
432.02	26.133
432.22	26.174
432.43	26.353
432.63	25.823
432.83	25.026
433.03	25.656
433.24	25.829
433.44	25.538
433.64	25.373
433.84	25.740
434.05	25.813
434.25	25.387
434.45	26.004
434.65	25.950
434.85	26.046
435.06	26.412
435.26	26.075
435.46	26.808
435.66	26.701
435.87	27.124
436.07	26.802
436.27	26.650
436.47	26.588
436.67	26.551
436.88	26.609
437.08	25.952
437.28	26.170
437.48	26.665
437.69	25.858
437.89	26.082
438.09	26.383
438.29	26.433
438.49	26.271
438.70	26.205
438.90	25.979
439.10	25.665
439.30	26.131
439.50	25.869
439.71	26.388
439.91	25.488
440.11	25.886
440.31	26.110
440.51	25.695
440.72	26.194
440.92	25.371
441.12	26.202
441.32	26.415
441.52	26.219
441.72	25.722
441.93	26.823
442.13	26.342
442.33	26.441
442.53	26.847
442.73	26.598
442.94	26.372
443.14	26.677
443.34	26.286
443.54	26.312
443.74	27.057
443.94	27.035
444.15	26.229
444.35	27.032
444.55	26.425
444.75	25.895
444.95	25.946
445.15	26.251
445.36	25.529
445.56	26.217
445.76	25.575
445.96	25.603
446.16	25.611
446.36	25.602
446.57	25.784
446.77	25.958
446.97	25.736
447.17	26.286
447.37	25.868
447.57	26.492
447.77	25.891
447.98	26.448
448.18	25.959
448.38	26.555
448.58	26.940
448.78	26.900
448.98	26.688
449.18	26.653
449.39	26.648
449.59	26.867
449.79	27.395
449.99	26.974
450.19	27.087
450.39	27.172
450.59	26.225
450.79	27.044
451.00	26.172
451.20	28.314
451.40	26.572
451.60	26.545
451.80	26.446
452.00	26.541
452.20	26.608
452.40	26.399
452.61	26.773
452.81	26.568
453.01	26.336
453.21	26.582
453.41	26.573
453.61	26.699
453.81	26.968
454.01	26.880
454.21	27.055
454.42	26.698
454.62	26.693
454.82	26.769
455.02	26.451
455.22	26.631
455.42	26.525
455.62	26.301
455.82	26.692
456.02	26.843
456.23	27.039
456.43	26.368
456.63	26.099
456.83	26.961
457.03	26.964
457.23	26.701
457.43	26.940
457.63	26.510
457.83	26.373
458.03	26.501
458.23	26.380
458.43	26.261
458.64	25.875
458.84	26.157
459.04	25.744
459.24	25.471
459.44	25.182
459.64	25.292
459.84	24.823
460.04	25.631
460.24	25.244
460.44	25.678
460.64	25.830
460.84	25.770
461.04	25.800
461.24	26.044
461.45	26.100
461.65	26.408
461.85	26.508
462.05	26.242
462.25	26.313
462.45	27.087
462.65	26.491
462.85	26.334
463.05	26.365
463.25	25.951
463.45	26.615
463.65	26.784
463.85	26.113
464.05	26.484
464.25	26.969
464.45	25.941
464.65	26.175
464.85	26.444
465.05	25.694
465.26	26.322
465.46	26.323
465.66	26.349
465.86	26.198
466.06	26.255
466.26	26.447
466.46	26.090
466.66	25.652
466.86	26.218
467.06	25.930
467.26	25.822
467.46	26.002
467.66	26.273
467.86	25.389
468.06	26.246
468.26	26.004
468.46	26.000
468.66	25.586
468.86	26.158
469.06	26.424
469.26	25.813
469.46	25.988
469.66	25.822
469.86	25.591
470.06	26.040
470.26	25.939
470.46	26.083
470.66	26.294
470.86	25.994
471.06	26.018
471.26	26.308
471.46	25.649
471.66	26.048
471.86	26.224
472.06	26.048
472.26	26.459
472.46	26.260
472.66	26.315
472.86	26.641
473.06	26.024
473.26	26.341
473.46	25.929
473.66	25.728
473.86	26.555
474.06	26.006
474.26	26.704
474.46	26.508
474.66	26.428
474.86	26.301
475.06	26.173
475.26	26.675
475.46	26.570
475.66	26.464
475.86	26.570
476.06	26.703
476.26	26.208
476.46	26.291
476.66	26.209
476.86	26.179
477.06	26.648
477.26	25.760
477.46	25.922
477.65	25.976
477.85	26.371
478.05	25.764
478.25	26.599
478.45	26.449
478.65	26.408
478.85	25.750
479.05	26.040
479.25	26.754
479.45	26.522
479.65	27.028
479.85	26.607
480.05	26.696
480.25	26.327
480.45	27.144
480.65	26.518
480.85	26.522
481.05	26.314
481.25	26.478
481.44	26.676
481.64	26.065
481.84	26.206
482.04	26.115
482.24	26.072
482.44	26.133
482.64	25.865
482.84	26.084
483.04	25.778
483.24	25.586
483.44	25.264
483.64	24.627
483.84	24.798
484.04	25.480
484.23	25.528
484.43	26.149
484.63	26.393
484.83	26.982
485.03	28.383
485.23	28.408
485.43	28.210
485.63	27.890
485.83	27.664
486.03	28.153
486.23	27.932
486.42	27.649
486.62	27.360
486.82	26.847
487.02	26.705
487.22	26.382
487.42	26.244
487.62	26.161
487.82	25.859
488.02	26.327
488.22	26.122
488.41	26.299
488.61	26.671
488.81	26.586
489.01	26.624
489.21	27.339
489.41	27.474
489.61	27.289
489.81	27.493
490.01	27.865
490.20	27.401
490.40	27.082
490.60	27.633
490.80	27.006
491.00	26.448
491.20	26.323
491.40	25.831
491.60	25.823
491.79	26.043
491.99	26.395
492.19	26.332
492.39	26.358
492.59	26.362
492.79	26.721
492.99	26.834
493.19	27.069
493.38	27.515
493.58	27.854
493.78	27.703
493.98	27.895
494.18	27.473
494.38	27.611
494.58	27.649
494.77	27.307
494.97	27.412
495.17	27.158
495.37	27.239
495.57	27.359
495.77	26.702
495.96	26.941
496.16	27.072
496.36	26.748
496.56	27.110
496.76	26.990
496.96	26.229
497.15	27.315
497.35	26.267
497.55	26.794
497.75	26.582
497.95	26.920
498.15	26.555
498.34	27.172
498.54	27.114
498.74	27.199
498.94	26.945
499.14	27.364
499.34	27.210
499.53	27.215
499.73	26.880
499.93	26.908
500.13	26.802
500.33	26.793
500.52	26.842
500.72	27.672
500.92	27.227
501.12	27.148
501.32	27.243
501.52	27.654
501.71	27.232
501.91	26.979
502.11	27.211
502.31	26.828
502.51	27.304
502.70	27.254
502.90	27.174
503.10	27.228
503.30	27.466
503.50	27.408
503.69	26.924
503.89	27.573
504.09	26.978
504.29	27.665
504.48	27.034
504.68	27.397
504.88	27.294
505.08	27.226
505.28	27.230
505.47	27.317
505.67	27.025
505.87	27.727
506.07	27.650
506.27	26.950
506.46	27.313
506.66	27.493
506.86	27.605
507.06	27.716
507.25	27.599
507.45	27.816
507.65	27.578
507.85	27.280
508.04	27.713
508.24	27.513
508.44	27.028
508.64	27.630
508.83	27.092
509.03	27.308
509.23	26.774
509.43	27.145
509.63	27.479
509.82	27.223
510.02	27.548
510.22	27.050
510.42	27.163
510.61	27.385
510.81	27.383
511.01	27.665
511.21	27.383
511.40	27.788
511.60	27.752
511.80	27.957
511.99	27.251
512.19	27.620
512.39	27.345
512.59	27.408
512.78	27.419
512.98	27.532
513.18	27.618
513.38	27.765
513.57	27.203
513.77	28.055
513.97	27.807
514.17	28.191
514.36	27.788
514.56	27.728
514.76	28.128
514.95	27.703
515.15	28.353
515.35	27.274
515.55	27.511
515.74	27.956
515.94	28.556
516.14	27.727
516.33	28.180
516.53	27.628
516.73	27.867
516.93	27.565
517.12	27.786
517.32	27.457
517.52	27.401
517.71	27.432
517.91	27.125
518.11	27.127
518.30	27.029
518.50	27.193
518.70	27.267
518.90	26.853
519.09	27.093
519.29	27.848
519.49	27.529
519.68	27.270
519.88	27.671
520.08	27.582
520.27	27.736
520.47	28.161
520.67	27.868
520.86	27.947
521.06	28.328
521.26	28.288
521.45	28.372
521.65	27.904
521.85	27.832
522.04	27.766
522.24	27.676
522.44	28.019
522.63	27.390
522.83	28.083
523.03	28.019
523.22	27.762
523.42	28.667
523.62	27.442
523.81	27.787
524.01	27.834
524.21	27.782
524.40	27.952
524.60	27.583
524.80	27.187
524.99	27.512
525.19	27.354
525.39	27.199
525.58	27.507
525.78	27.155
525.98	27.241
526.17	27.319
526.37	27.706
526.57	27.314
526.76	27.394
526.96	27.645
527.15	27.628
527.35	27.196
527.55	27.492
527.74	27.553
527.94	27.248
528.14	26.579
528.33	26.602
528.53	26.326
528.72	26.876
528.92	27.141
529.12	27.358
529.31	27.761
529.51	27.809
529.71	28.095
529.90	28.329
530.10	28.476
530.29	28.519
530.49	28.847
530.69	29.085
530.88	29.007
531.08	28.995
531.28	28.370
531.47	28.451
531.67	28.301
531.86	28.304
532.06	28.029
532.26	28.047
532.45	27.863
532.65	28.159
532.84	27.430
533.04	27.391
533.24	27.440
533.43	27.211
533.63	27.599
533.82	28.024
534.02	27.860
534.22	28.293
534.41	27.831
534.61	28.086
534.80	28.553
535.00	28.689
535.19	28.632
535.39	29.243
535.59	28.430
535.78	28.465
535.98	28.453
536.17	28.064
536.37	27.679
536.57	28.063
536.76	27.868
536.96	27.837
537.15	28.216
537.35	28.020
537.54	28.274
537.74	28.530
537.93	28.243
538.13	28.721
538.33	28.577
538.52	28.944
538.72	29.047
538.91	28.822
539.11	28.743
539.30	28.809
539.50	28.913
539.70	28.662
539.89	28.795
540.09	28.474
540.28	27.885
540.48	28.394
540.67	27.681
540.87	27.294
541.06	27.338
541.26	27.594
541.45	27.802
541.65	27.933
541.85	27.941
542.04	28.215
542.24	28.237
542.43	28.505
542.63	28.691
542.82	29.231
543.02	28.897
543.21	29.352
543.41	29.386
543.60	29.417
543.80	29.237
543.99	29.412
544.19	29.411
544.38	29.332
544.58	29.295
544.77	29.118
544.97	29.427
545.16	29.424
545.36	29.504
545.56	29.526
545.75	28.966
545.95	29.707
546.14	29.307
546.34	29.520
546.53	29.206
546.73	29.209
546.92	29.039
547.12	29.372
547.31	28.676
547.51	29.901
547.70	29.250
547.90	29.611
548.09	29.724
548.29	29.966
548.48	29.996
548.68	30.262
548.87	30.149
549.07	30.086
549.26	30.156
549.46	30.847
549.65	30.598
549.84	30.200
550.04	30.408
550.23	30.170
550.43	29.638
550.62	29.843
550.82	30.706
551.01	31.259
551.21	30.298
551.40	30.435
551.60	30.009
551.79	30.330
551.99	30.706
552.18	30.756
552.38	30.287
552.57	30.484
552.77	30.203
552.96	30.421
553.16	30.525
553.35	30.803
553.54	30.507
553.74	30.419
553.93	31.050
554.13	31.458
554.32	30.428
554.52	31.277
554.71	31.342
554.91	31.527
555.10	31.823
555.29	31.430
555.49	31.247
555.68	31.507
555.88	31.364
556.07	31.347
556.27	31.330
556.46	32.062
556.66	31.345
556.85	31.935
557.04	31.060
557.24	31.585
557.43	31.549
557.63	32.076
557.82	32.464
558.02	31.480
558.21	32.687
558.40	31.543
558.60	31.812
558.79	32.089
558.99	32.315
559.18	32.688
559.38	32.483
559.57	32.410
559.76	32.386
559.96	33.887
560.15	32.735
560.35	32.736
560.54	32.247
560.73	33.023
560.93	32.768
561.12	32.188
561.32	32.368
561.51	32.202
561.70	33.450
561.90	32.194
562.09	33.028
562.29	33.062
562.48	33.535
562.67	32.846
562.87	33.128
563.06	32.831
563.26	33.099
563.45	33.467
563.64	32.973
563.84	33.674
564.03	33.035
564.23	32.998
564.42	34.062
564.61	33.512
564.81	33.130
565.00	33.542
565.20	32.929
565.39	33.740
565.58	33.118
565.78	33.580
565.97	33.362
566.16	34.105
566.36	33.202
566.55	33.746
566.74	33.513
566.94	34.256
567.13	34.084
567.33	33.711
567.52	34.437
567.71	34.253
567.91	34.267
568.10	34.726
568.29	34.256
568.49	34.467
568.68	35.166
568.87	34.132
569.07	34.690
569.26	34.833
569.45	34.934
569.65	34.495
569.84	34.516
570.04	34.850
570.23	33.879
570.42	34.764
570.62	34.828
570.81	34.623
571.00	34.452
571.20	34.784
571.39	34.718
571.58	35.188
571.78	34.784
571.97	34.276
572.16	34.596
572.36	34.770
572.55	34.911
572.74	34.958
572.94	34.516
573.13	35.252
573.32	35.191
573.51	35.078
573.71	35.674
573.90	35.110
574.09	35.281
574.29	35.317
574.48	35.356
574.67	35.601
574.87	35.416
575.06	35.301
575.25	35.581
575.45	35.435
575.64	35.324
575.83	35.381
576.03	36.597
576.22	36.047
576.41	35.263
576.60	35.809
576.80	35.547
576.99	35.782
577.18	35.878
577.38	36.358
577.57	35.646
577.76	36.061
577.95	36.562
578.15	35.998
578.34	35.907
578.53	35.687
578.73	36.028
578.92	36.668
579.11	36.045
579.30	35.938
579.50	36.230
579.69	36.579
579.88	36.085
580.08	35.886
580.27	35.989
580.46	36.281
580.65	36.515
580.85	36.138
581.04	35.908
581.23	36.369
581.42	36.049
581.62	35.889
581.81	36.398
582.00	36.535
582.19	35.973
582.39	36.096
582.58	36.640
582.77	37.128
582.96	35.738
583.16	35.819
583.35	36.198
583.54	37.020
583.73	36.769
583.93	36.110
584.12	35.933
584.31	35.649
584.50	36.100
584.70	36.771
584.89	36.317
585.08	36.539
585.27	36.534
585.47	36.580
585.66	36.761
585.85	36.976
586.04	36.884
586.24	36.595
586.43	36.584
586.62	36.828
586.81	36.317
587.00	36.294
587.20	36.085
587.39	35.955
587.58	36.507
587.77	36.761
587.97	36.793
588.16	37.070
588.35	36.588
588.54	35.557
588.73	36.829
588.93	35.744
589.12	36.536
589.31	36.061
589.50	36.105
589.69	36.563
589.89	35.392
590.08	36.108
590.27	36.206
590.46	36.365
590.65	35.917
590.85	36.345
591.04	35.793
591.23	36.909
591.42	35.978
591.61	36.423
591.81	36.452
592.00	36.755
592.19	36.370
592.38	35.931
592.57	37.031
592.77	36.336
592.96	35.904
593.15	37.220
593.34	36.248
593.53	36.990
593.72	37.056
593.92	35.770
594.11	36.823
594.30	36.119
594.49	36.801
594.68	36.318
594.87	36.893
595.07	35.566
595.26	36.804
595.45	36.284
595.64	35.924
595.83	36.431
596.02	36.049
596.22	37.607
596.41	36.320
596.60	36.195
596.79	36.357
596.98	36.414
597.17	35.825
597.37	36.714
597.56	36.454
597.75	35.996
597.94	36.561
598.13	36.635
598.32	35.993
598.51	36.958
598.71	37.825
598.90	37.302
599.09	37.294
599.28	37.153
599.47	37.289
599.66	37.124
599.85	37.359
600.05	36.055
600.24	37.657
600.43	36.450
600.62	37.613
600.81	37.157
601.00	38.243
601.19	38.042
601.38	38.379
601.58	38.770
601.77	37.934
601.96	37.221
602.15	38.371
602.34	37.768
602.53	38.030
602.72	38.276
602.91	37.316
603.10	37.804
603.30	36.716
603.49	37.737
603.68	36.651
603.87	37.397
604.06	37.143
604.25	36.727
604.44	37.289
604.63	37.473
604.82	37.090
605.01	37.659
605.21	37.517
605.40	37.133
605.59	37.621
605.78	37.472
605.97	37.500
606.16	37.851
606.35	37.587
606.54	37.926
606.73	38.096
606.92	38.345
607.11	37.861
607.30	38.534
607.50	38.160
607.69	38.000
607.88	38.167
608.07	37.400
608.26	37.366
608.45	38.054
608.64	38.046
608.83	37.207
609.02	36.605
609.21	36.695
609.40	37.210
609.59	37.144
609.78	37.526
609.97	37.654
610.16	36.794
610.35	37.957
610.55	36.517
610.74	37.017
610.93	36.803
611.12	37.142
611.31	37.625
611.50	37.851
611.69	37.131
611.88	37.825
612.07	37.073
612.26	36.958
612.45	36.671
612.64	37.409
612.83	37.385
613.02	36.692
613.21	37.685
613.40	36.924
613.59	37.743
613.78	36.902
613.97	37.366
614.16	37.517
614.35	37.444
614.54	36.350
614.73	36.765
614.92	36.764
615.11	37.200
615.30	37.112
615.49	36.741
615.68	37.437
615.87	37.302
616.07	36.768
616.26	37.177
616.45	36.508
616.64	37.423
616.83	36.643
617.02	37.068
617.21	37.121
617.40	35.705
617.59	37.207
617.78	36.557
617.97	36.322
618.16	35.660
618.35	36.198
618.54	35.744
618.73	37.130
618.92	36.727
619.11	36.144
619.30	36.906
619.49	36.994
619.68	35.044
619.86	36.494
620.05	36.757
620.24	36.683
620.43	35.992
620.62	35.352
620.81	36.517
621.00	35.817
621.19	35.512
621.38	36.481
621.57	36.280
621.76	35.305
621.95	35.652
622.14	36.458
622.33	36.462
622.52	36.093
622.71	36.291
622.90	34.578
623.09	36.372
623.28	35.319
623.47	35.356
623.66	35.014
623.85	35.870
624.04	34.670
624.23	35.021
624.42	35.711
624.61	34.253
624.80	35.713
624.99	35.612
625.18	35.382
625.36	35.276
625.55	35.572
625.74	34.814
625.93	35.068
626.12	35.027
626.31	35.129
626.50	35.388
626.69	35.207
626.88	35.074
627.07	35.437
627.26	34.806
627.45	34.402
627.64	34.541
627.83	35.043
628.02	34.425
628.20	35.121
628.39	35.231
628.58	35.087
628.77	35.667
628.96	34.260
629.15	35.262
629.34	35.202
629.53	34.380
629.72	34.997
629.91	35.484
630.10	34.686
630.29	34.479
630.47	34.486
630.66	35.400
630.85	34.149
631.04	34.706
631.23	36.046
631.42	34.963
631.61	34.864
631.80	35.719
631.99	34.503
632.18	34.644
632.36	34.654
632.55	35.614
632.74	35.177
632.93	34.288
633.12	34.979
633.31	35.670
633.50	34.228
633.69	34.654
633.88	34.143
634.06	34.808
634.25	34.876
634.44	34.835
634.63	35.088
634.82	35.646
635.01	34.339
635.20	33.687
635.39	34.344
635.57	35.168
635.76	35.090
635.95	34.066
636.14	33.497
636.33	35.137
636.52	34.753
636.71	34.895
636.89	35.031
637.08	34.628
637.27	33.708
637.46	34.130
637.65	34.145
637.84	34.494
638.03	35.111
638.21	35.300
638.40	34.877
638.59	34.673
638.78	33.363
638.97	34.079
639.16	34.474
639.34	34.614
639.53	33.741
639.72	34.419
639.91	33.970
640.10	35.628
640.29	34.561
640.47	34.916
640.66	35.207
640.85	35.605
641.04	35.362
641.23	34.521
641.42	35.022
641.60	34.618
641.79	34.525
641.98	34.385
642.17	34.045
642.36	35.059
642.54	34.057
642.73	34.197
642.92	34.532
643.11	34.713
643.30	35.544
643.49	34.482
643.67	34.268
643.86	35.383
644.05	34.929
644.24	33.874
644.43	34.515
644.61	34.691
644.80	35.013
644.99	34.451
645.18	35.790
645.37	33.654
645.55	35.230
645.74	34.900
645.93	34.187
646.12	34.630
646.31	34.587
646.49	34.641
646.68	34.651
646.87	34.745
647.06	34.107
647.24	33.909
647.43	32.630
647.62	35.487
647.81	33.515
648.00	35.108
648.18	34.366
648.37	34.129
648.56	34.062
648.75	34.837
648.93	33.689
649.12	34.738
649.31	34.474
649.50	33.957
649.68	34.067
649.87	34.460
650.06	34.343
650.25	33.679
650.43	34.985
650.62	34.293
650.81	33.766
651.00	33.996
651.18	33.565
651.37	34.340
651.56	33.974
651.75	33.995
651.93	33.361
652.12	33.928
652.31	33.476
652.50	33.818
652.68	34.400
652.87	35.056
653.06	34.341
653.25	33.596
653.43	34.343
653.62	34.891
653.81	34.085
654.00	34.192
654.18	33.453
654.37	34.318
654.56	34.187
654.74	33.707
654.93	34.431
655.12	33.834
655.31	33.353
655.49	33.699
655.68	32.163
655.87	33.796
656.05	32.185
656.24	34.230
656.43	32.246
656.62	33.580
656.80	32.012
656.99	32.882
657.18	31.879
657.36	32.133
657.55	32.388
657.74	32.544
657.93	32.338
658.11	34.026
658.30	32.495
658.49	32.095
658.67	32.266
658.86	31.804
659.05	31.336
659.23	31.816
659.42	31.571
659.61	31.257
659.79	31.617
659.98	31.152
660.17	31.436
660.35	30.973
660.54	30.892
660.73	31.936
660.91	31.532
661.10	31.257
661.29	30.077
661.47	30.638
661.66	30.075
661.85	30.456
662.03	30.415
662.22	31.616
662.41	29.575
662.59	31.235
662.78	29.851
662.97	30.031
663.15	29.398
663.34	30.229
663.53	28.551
663.71	30.520
663.90	28.395
664.09	30.896
664.27	29.551
664.46	30.185
664.65	28.828
664.83	29.337
665.02	27.506
665.21	28.507
665.39	27.182
665.58	29.320
665.77	27.323
665.95	27.476
666.14	26.873
666.32	28.278
666.51	27.508
666.70	28.575
666.88	27.172
667.07	27.245
667.26	27.468
667.44	28.616
667.63	27.180
667.81	27.722
668.00	28.249
668.19	28.861
668.37	27.782
668.56	29.207
668.75	26.875
668.93	27.987
669.12	27.619
669.30	27.650
669.49	26.633
669.68	27.176
669.86	28.131
670.05	27.678
670.23	27.246
670.42	26.608
670.61	27.392
670.79	28.137
670.98	27.598
671.16	27.759
671.35	26.149
671.54	26.995
671.72	26.319
671.91	28.019
672.09	26.599
672.28	28.407
672.46	27.074
672.65	27.352
672.84	26.883
673.02	29.476
673.21	26.827
673.39	27.662
673.58	27.346
673.77	28.616
673.95	27.228
674.14	29.060
674.32	27.571
674.51	29.264
674.69	26.785
674.88	27.620
675.07	26.774
675.25	29.284
675.44	27.304
675.62	28.620
675.81	26.964
675.99	29.687
676.18	29.873
676.36	27.693
676.55	27.391
676.74	29.516
676.92	29.160
677.11	28.678
677.29	27.715
677.48	30.675
677.66	29.001
677.85	29.789
678.03	30.112
678.22	29.705
678.40	28.468
678.59	29.461
678.78	28.081
678.96	28.537
679.15	28.498
679.33	31.660
679.52	29.024
679.70	28.920
679.89	30.313
680.07	29.750
680.26	28.811
680.44	30.632
680.63	28.836
680.81	29.946
681.00	29.060
681.18	29.137
681.37	29.760
681.55	31.712
681.74	29.508
681.92	30.976
682.11	28.661
682.29	30.753
682.48	30.590
682.66	30.740
682.85	30.727
683.03	30.777
683.22	31.317
683.40	31.928
683.59	29.904
683.77	30.669
683.96	30.895
684.14	31.948
684.33	29.777
684.51	32.263
684.70	32.622
684.88	33.782
685.07	32.565
685.25	34.210
685.44	32.481
685.62	32.312
685.81	31.257
685.99	33.927
686.18	32.115
686.36	34.235
686.55	31.734
686.73	33.589
686.92	34.154
687.10	34.141
687.29	34.074
687.47	35.586
687.65	34.031
687.84	34.924
688.02	35.510
688.21	36.178
688.39	34.546
688.58	37.124
688.76	36.737
688.95	35.832
689.13	35.645
689.32	38.077
689.50	37.058
689.68	37.580
689.87	35.809
690.05	38.381
690.24	36.351
690.42	38.950
690.61	39.808
690.79	40.791
690.98	38.413
691.16	37.828
691.34	37.253
691.53	40.092
691.71	38.668
691.90	39.950
692.08	39.130
692.27	42.802
692.45	40.785
692.63	42.094
692.82	40.748
693.00	41.571
693.19	41.306
693.37	43.435
693.56	42.026
693.74	41.603
693.92	42.949
694.11	44.368
694.29	43.366
694.48	42.913
694.66	43.464
694.84	42.830
695.03	44.670
695.21	45.820
695.40	45.109
695.58	46.052
695.76	45.055
695.95	46.107
696.13	44.819
696.32	46.380
696.50	47.439
696.68	46.620
696.87	46.362
697.05	45.308
697.24	48.112
697.42	46.789
697.60	48.503
697.79	48.428
697.97	48.041
698.16	47.842
698.34	45.217
698.52	48.423
698.71	46.717
698.89	47.653
699.07	46.601
699.26	47.855
699.44	47.184
699.63	48.439
699.81	47.834
699.99	46.862
700.18	47.089
700.36	48.264
700.54	48.174
700.73	46.910
700.91	48.366
701.09	48.713
701.28	49.475
701.46	50.430
701.64	49.791
701.83	50.558
702.01	50.006
702.20	51.430
702.38	50.591
702.56	50.780
702.75	50.537
702.93	52.583
703.11	52.058
703.30	52.622
703.48	51.805
703.66	53.056
703.85	53.114
704.03	55.296
704.21	52.408
704.40	55.008
704.58	52.766
704.76	54.469
704.95	54.801
705.13	53.591
705.31	52.108
705.50	54.319
705.68	54.821
705.86	54.793
706.04	55.094
706.23	55.001
706.41	53.057
706.59	55.672
706.78	54.370
706.96	54.802
707.14	53.671
707.33	55.963
707.51	54.961
707.69	56.443
707.88	54.017
708.06	55.351
708.24	56.140
708.42	55.749
708.61	54.255
708.79	54.653
708.97	55.478
709.16	55.246
709.34	59.279
709.52	56.942
709.71	55.407
709.89	56.209
710.07	53.533
710.25	56.159
710.44	53.830
710.62	56.542
710.80	55.369
710.98	54.557
711.17	54.232
711.35	55.672
711.53	56.451
711.72	55.568
711.90	57.272
712.08	55.488
712.26	54.937
712.45	55.390
712.63	55.651
712.81	56.827
712.99	56.957
713.18	56.419
713.36	55.317
713.54	56.873
713.72	54.712
713.91	55.515
714.09	55.158
714.27	56.454
714.45	57.361
714.64	56.075
714.82	56.162
715.00	57.875
715.18	55.072
715.37	58.066
715.55	56.475
715.73	56.697
715.91	56.695
716.10	55.706
716.28	55.348
716.46	58.095
716.64	55.939
716.83	56.261
717.01	57.314
717.19	54.890
717.37	56.169
717.55	56.295
717.74	55.786
717.92	56.406
718.10	54.928
718.28	56.588
718.47	56.087
718.65	56.271
718.83	56.542
719.01	57.659
719.19	56.953
719.38	58.724
719.56	57.692
719.74	57.017
719.92	55.602
720.10	56.274
720.29	57.364
720.47	59.271
720.65	56.525
720.83	59.726
721.01	57.884
721.20	59.204
721.38	57.560
721.56	59.123
721.74	58.761
721.92	57.565
722.11	60.056
722.29	57.900
722.47	56.376
722.65	61.885
722.83	59.502
723.01	58.812
723.20	59.152
723.38	59.584
723.56	56.886
723.74	59.466
723.92	57.916
724.10	58.581
724.29	59.538
724.47	59.319
724.65	58.091
724.83	62.598
725.01	57.376
725.19	58.260
725.38	58.057
725.56	58.192
725.74	58.480
725.92	59.778
726.10	60.620
726.28	60.524
726.46	60.776
726.65	60.791
726.83	58.778
727.01	58.818
727.19	57.984
727.37	59.464
727.55	58.661
727.73	59.390
727.92	58.756
728.10	58.966
728.28	55.800
728.46	59.374
728.64	58.143
728.82	60.073
729.00	57.967
729.19	60.160
729.37	59.073
729.55	60.701
729.73	58.142
729.91	61.176
730.09	58.535
730.27	61.726
730.45	58.163
730.63	61.347
730.82	58.274
731.00	60.454
731.18	60.004
731.36	60.789
731.54	58.086
731.72	60.678
731.90	59.208
732.08	58.649
732.26	58.355
732.45	63.761
732.63	60.321
732.81	60.999
732.99	59.303
733.17	58.650
733.35	59.935
733.53	60.861
733.71	61.566
733.89	60.812
734.07	62.299
734.25	59.610
734.44	59.275
734.62	59.639
734.80	62.914
734.98	61.868
735.16	60.346
735.34	62.184
735.52	59.752
735.70	61.473
735.88	64.717
736.06	64.936
736.24	64.768
736.42	65.108
736.60	64.202
736.78	63.831
736.97	64.538
737.15	65.128
737.33	61.850
737.51	63.548
737.69	65.126
737.87	66.971
738.05	62.713
738.23	64.860
738.41	63.395
738.59	65.733
738.77	67.123
738.95	64.103
739.13	64.194
739.31	64.468
739.49	66.480
739.67	65.664
739.85	64.260
740.03	63.968
740.21	65.125
740.39	66.899
740.57	65.409
740.75	65.877
740.93	65.867
741.11	65.387
741.30	65.803
741.48	68.819
741.66	66.103
741.84	65.483
742.02	63.963
742.20	66.236
742.38	66.900
742.56	67.864
742.74	65.109
742.92	67.176
743.10	65.570
743.28	68.517
743.46	67.338
743.64	66.967
743.82	65.026
744.00	68.105
744.18	64.469
744.36	69.027
744.54	69.821
744.72	71.559
744.90	70.881
745.08	70.194
745.26	68.017
745.44	69.252
745.62	67.125
745.80	70.737
745.98	68.258
746.16	68.563
746.34	72.570
746.52	66.852
746.70	67.960
746.87	69.738
747.05	66.061
747.23	71.405
747.41	69.478
747.59	69.917
747.77	70.010
747.95	68.409
748.13	69.206
748.31	70.751
748.49	69.632
748.67	68.976
748.85	65.277
749.03	68.424
749.21	71.544
749.39	69.535
749.57	67.488
749.75	68.349
749.93	69.970
750.11	69.474
750.29	67.675
750.47	69.350
750.65	66.718
750.83	68.172
751.01	67.632
751.18	67.697
751.36	68.647
751.54	71.332
751.72	68.198
751.90	69.372
752.08	68.457
752.26	68.062
752.44	70.883
752.62	71.310
752.80	69.601
752.98	71.746
753.16	71.176
753.34	69.500
753.52	71.317
753.69	69.155
753.87	72.418
754.05	71.531
754.23	70.203
754.41	69.819
754.59	65.687
754.77	70.695
754.95	69.423
755.13	69.671
755.31	69.890
755.49	72.280
755.66	69.750
755.84	67.952
756.02	68.797
756.20	73.090
756.38	70.243
756.56	70.996
756.74	67.094
756.92	70.394
757.10	68.337
757.28	71.266
757.45	74.450
757.63	71.603
757.81	67.386
757.99	75.000
758.17	68.821
758.35	71.058
758.53	71.815
758.71	72.915
758.88	65.968
759.06	68.997
759.24	64.513
759.42	67.904
759.60	67.705
759.78	67.791
759.96	62.774
760.13	69.214
760.31	60.884
760.49	62.587
760.67	58.736
760.85	62.236
761.03	60.299
761.21	59.778
761.38	59.138
761.56	60.158
761.74	57.770
761.92	60.409
762.10	57.691
762.28	58.942
762.46	59.696
762.63	61.333
762.81	61.154
762.99	61.373
763.17	60.233
763.35	62.301
763.53	59.003
763.70	60.338
763.88	61.487
764.06	60.252
764.24	60.048
764.42	60.512
764.60	59.774
764.77	59.457
764.95	59.149
765.13	60.483
765.31	61.608
765.49	62.272
765.66	60.092
765.84	63.797
766.02	62.640
766.20	63.214
766.38	62.245
766.56	64.194
766.73	64.278
766.91	65.744
767.09	70.624
767.27	67.980
767.45	68.530
767.62	66.492
767.80	64.490
767.98	66.964
768.16	69.331
768.33	69.106
768.51	68.661
768.69	69.381
768.87	67.201
769.05	70.441
769.22	67.240
769.40	74.901
769.58	71.376
769.76	72.058
769.94	73.673
770.11	70.773
770.29	70.056
770.47	74.583
770.65	71.243
770.82	71.467
771.00	73.449
771.18	73.379
771.36	69.011
771.53	73.206
771.71	73.844
771.89	72.465
772.07	72.662
772.25	75.255
772.42	71.116
772.60	75.053
772.78	70.453
772.96	76.150
773.13	75.498
773.31	75.473
773.49	70.779
773.67	76.417
773.84	72.048
774.02	72.712
774.20	72.593
774.37	74.552
774.55	73.981
774.73	75.742
774.91	71.403
775.08	74.149
775.26	76.794
775.44	77.317
775.62	75.587
775.79	74.365
775.97	72.977
776.15	75.928
776.32	69.904
776.50	79.103
776.68	79.990
776.86	80.987
777.03	70.087
777.21	73.298
777.39	69.521
777.56	77.933
777.74	74.170
777.92	69.637
778.10	74.804
778.27	73.452
778.45	82.040
778.63	77.516
778.80	74.680
778.98	73.006
779.16	77.620
779.34	77.239
779.51	77.943
779.69	71.998
779.87	74.027
780.04	75.097
780.22	72.558
780.40	72.175
780.57	75.037
780.75	75.244
780.93	77.337
781.10	71.534
781.28	82.530
781.46	71.563
781.63	72.927
781.81	79.646
781.99	68.072
782.16	73.550
782.34	75.820
782.52	75.307
782.69	74.743
782.87	76.569
783.05	72.060
783.22	81.576
783.40	73.561
783.58	73.668
783.75	69.278
783.93	73.604
784.11	70.996
784.28	78.247
784.46	72.074
784.64	76.836
784.81	73.183
784.99	79.966
785.17	72.890
785.34	70.402
785.52	68.025
785.69	75.452
785.87	70.471
786.05	76.360
786.22	73.472
786.40	80.517
786.58	68.116
786.75	77.323
786.93	74.972
787.11	75.900
787.28	75.164
787.46	77.954
787.63	75.831
787.81	75.485
787.99	74.854
788.16	67.366
788.34	70.258
788.51	73.618
788.69	66.683
788.87	70.303
789.04	70.109
789.22	71.134
789.39	68.491
789.57	73.098
789.75	66.603
789.92	74.400
790.10	67.759
790.27	70.538
790.45	67.117
790.63	67.893
790.80	64.899
790.98	72.770
791.15	65.744
791.33	74.369
791.51	67.965
791.68	72.401
791.86	71.148
792.03	71.453
792.21	74.613
792.39	72.228
792.56	65.492
792.74	73.064
792.91	74.256
793.09	66.818
793.26	67.451
793.44	73.412
793.62	74.227
793.79	69.740
793.97	71.755
794.14	76.937
794.32	73.122
794.49	70.309
794.67	71.686
794.84	74.506
795.02	71.645
795.20	76.125
795.37	67.122
795.55	72.615
795.72	69.677
795.90	72.326
796.07	75.819
796.25	73.497
796.42	72.275
796.60	67.077
796.77	66.173
796.95	72.492
797.13	68.605
797.30	75.809
797.48	70.021
797.65	70.047
797.83	66.021
798.00	71.584
798.18	60.642
798.35	72.845
798.53	70.687
798.70	66.918
798.88	65.551
799.05	72.310
799.23	71.120
799.40	74.408
799.58	69.479
799.75	69.943
799.93	69.840
800.10	70.920
800.28	71.547
800.45	78.050
800.63	64.622
800.80	72.301
800.98	71.522
801.15	68.136
801.33	67.066
801.50	68.852
801.68	67.885
801.85	66.480
802.03	67.764
802.20	68.510
802.38	69.060
802.55	70.177
802.73	73.064
802.90	73.075
803.08	59.628
803.25	84.068
803.43	73.427
803.60	71.254
803.78	66.732
803.95	70.707
804.13	73.543
804.30	72.662
804.48	64.953
804.65	67.830
804.83	74.619
805.00	71.492
805.17	72.176
805.35	73.374
805.52	68.185
805.70	70.522
805.87	68.365
806.05	72.336
806.22	70.115
806.40	69.285
806.57	65.028
806.75	78.443
806.92	70.839
807.09	69.215
807.27	71.258
807.44	68.834
807.62	68.839
807.79	72.414
807.97	70.435
808.14	67.812
808.31	66.224
808.49	69.849
808.66	67.645
808.84	66.645
809.01	78.515
809.19	72.471
809.36	72.823
809.53	68.824
809.71	74.909
809.88	73.591
810.06	74.344
810.23	71.498
810.41	76.753
810.58	79.771
810.75	64.018
810.93	73.512
811.10	63.201
811.28	66.642
811.45	76.642
811.62	70.645
811.80	68.221
811.97	77.512
812.15	77.186
812.32	63.348
812.49	64.497
812.67	69.702
812.84	62.885
813.02	77.458
813.19	63.955
813.36	67.232
813.54	65.503
813.71	80.118
813.89	70.968
814.06	69.710
814.23	67.224
814.41	68.574
814.58	71.190
814.75	70.033
814.93	69.198
815.10	74.789
815.28	55.255
815.45	63.017
815.62	67.316
815.80	62.286
815.97	64.390
816.14	71.809
816.32	65.136
816.49	60.049
816.66	64.076
816.84	68.761
817.01	72.260
817.18	66.481
817.36	59.508
817.53	67.320
817.71	55.326
817.88	63.511
818.05	59.901
818.23	61.133
818.40	56.016
818.57	59.395
818.75	56.428
818.92	55.050
819.09	58.828
819.27	63.581
819.44	63.817
819.61	60.114
819.79	61.446
819.96	70.757
820.13	58.954
820.31	67.391
820.48	61.081
820.65	59.934
820.82	58.997
821.00	64.050
821.17	56.575
821.34	59.362
821.52	58.157
821.69	58.819
821.86	56.646
822.04	60.735
822.21	58.433
822.38	60.609
822.56	57.435
822.73	58.517
822.90	57.600
823.07	57.486
823.25	56.105
823.42	56.040
823.59	55.552
823.77	55.916
823.94	55.061
824.11	55.894
824.29	55.504
824.46	55.014
824.63	57.267
824.80	56.437
824.98	56.526
825.15	57.614
825.32	54.166
825.49	59.050
825.67	57.170
825.84	58.135
826.01	57.597
826.19	60.507
826.36	55.039
826.53	60.872
826.70	58.148
826.88	59.387
827.05	59.326
827.22	58.512
827.39	58.223
827.57	56.981
827.74	53.832
827.91	58.281
828.08	54.672
828.26	59.185
828.43	55.729
828.60	58.672
828.77	54.518
828.95	55.603
829.12	54.448
829.29	53.684
829.46	55.428
829.64	58.467
829.81	52.865
829.98	58.373
830.15	56.490
830.32	58.646
830.50	58.112
830.67	58.020
830.84	55.114
831.01	52.873
831.19	49.742
831.36	60.902
831.53	57.775
831.70	64.143
831.87	51.722
832.05	60.406
832.22	70.107
832.39	53.969
832.56	55.590
832.74	62.753
832.91	52.000
833.08	70.166
833.25	53.911
833.42	53.881
833.60	58.192
833.77	50.570
833.94	50.838
834.11	53.503
834.28	54.443
834.45	57.861
834.63	52.274
834.80	55.181
834.97	53.396
835.14	59.052
835.31	55.924
835.49	54.694
835.66	54.385
835.83	56.193
836.00	55.064
836.17	58.483
836.34	51.860
836.52	53.528
836.69	62.007
836.86	60.021
837.03	57.966
837.20	59.643
837.37	60.174
837.55	43.995
837.72	58.030
837.89	61.891
838.06	63.235
838.23	64.548
838.40	65.221
838.58	68.550
838.75	59.457
838.92	62.793
839.09	75.525
839.26	66.063
839.43	73.114
839.60	66.525
839.78	72.802
839.95	77.210
840.12	66.315
840.29	81.244
840.46	77.027
840.63	68.907
840.80	65.520
840.98	67.824
841.15	62.500
841.32	61.896
841.49	60.199
841.66	69.346
841.83	60.536
842.00	62.104
842.17	76.782
842.34	58.203
842.52	71.955
842.69	66.777
842.86	70.794
843.03	87.268
843.20	70.440
843.37	75.825
843.54	71.353
843.71	76.913
843.88	73.713
844.06	86.389
844.23	68.717
844.40	66.265
844.57	84.938
844.74	82.203
844.91	79.294
845.08	74.277
845.25	88.571
845.42	87.659
845.59	105.598
845.76	84.162
845.94	104.787
846.11	91.946
846.28	88.694
846.45	115.870
846.62	106.100
846.79	97.240
846.96	93.449
847.13	88.615
847.30	97.153
847.47	85.743
847.64	82.515
847.81	84.628
847.98	106.224
848.15	93.474
848.32	104.563
848.50	100.198
848.67	85.923
848.84	100.810
849.01	104.675
849.18	67.689
849.35	117.984
849.52	108.515
849.69	106.497
849.86	124.208
850.03	96.956
850.20	88.180
850.37	96.083
850.54	92.621
850.71	102.661
850.88	88.589
851.05	92.708
851.22	97.864
851.39	92.220
851.56	101.518
851.73	94.824
851.90	104.358
852.07	95.444
852.24	82.583
852.41	100.214
852.58	106.429
852.75	98.372
852.92	105.433
853.09	116.292
853.26	107.579
853.43	96.000
853.60	88.565
853.77	107.692
853.94	90.349
854.11	103.248
854.28	105.122
854.45	103.111
854.62	116.104
854.79	104.867
854.96	111.224
855.13	114.617
855.30	112.750
855.47	130.867
855.64	97.550
855.81	104.545
855.98	137.669
856.15	99.187
856.32	87.891
856.49	91.962
856.66	102.817
856.83	100.431
857.00	94.770
857.17	124.740
857.34	93.421
857.51	110.549
857.68	95.704
857.85	145.763
858.02	100.244
858.19	94.153
858.36	102.963
858.53	114.989
858.70	104.605
858.87	128.889
859.04	93.665
859.21	89.655
859.38	105.833
859.55	107.056
859.72	100.578
859.89	129.738
860.05	126.471
860.22	117.895
860.39	98.413
860.56	104.545
860.73	105.728
860.90	104.566
861.07	115.297
861.24	96.796
861.41	114.815
861.58	115.059
861.75	115.513
861.92	100.000
862.09	115.949
862.26	95.981
862.43	109.366
862.59	98.148
862.76	106.582
862.93	106.757
863.10	91.647
863.27	116.519
863.44	102.696
863.61	112.955
863.78	117.910
863.95	114.489
864.12	128.349
864.29	118.237
864.45	118.388
864.62	119.634
864.79	116.089
864.96	86.104
865.13	96.674
865.30	104.048
865.47	128.691
865.64	110.377
865.81	104.408
865.97	95.683
866.14	100.000
866.31	86.620
866.48	98.052
866.65	79.427
866.82	117.026
866.99	115.303
867.16	114.660
867.33	106.353
867.49	101.222
867.66	109.398
867.83	90.749
868.00	94.774
868.17	106.609
868.34	106.473
868.51	83.092
868.67	90.284
868.84	102.069
869.01	105.069
869.18	96.098
869.35	96.026
869.52	108.000
869.69	116.463
869.85	92.840
870.02	97.330
870.19	104.785
870.36	109.788
870.53	99.767
870.70	107.021
870.86	94.560
871.03	124.362
871.20	93.812
871.37	112.997
871.54	111.685
871.71	104.612
871.87	117.391
872.04	127.393
872.21	98.675
872.38	103.178
872.55	117.975
872.72	93.468
872.88	118.028
873.05	81.644
873.22	104.057
873.39	91.017
873.56	102.050
873.72	97.356
873.89	119.767
874.06	98.969
874.23	95.550
874.40	96.339
874.56	96.050
874.73	112.136
874.90	109.358
875.07	106.114
875.24	89.499
875.40	84.944
875.57	95.909
875.74	112.683
875.91	114.092
876.08	81.718
876.24	101.240
876.41	119.036
876.58	99.045
876.75	107.163
876.92	88.170
877.08	98.633
877.25	107.990
877.42	89.431
877.59	117.737
877.75	93.686
877.92	69.772
878.09	106.729
878.26	108.835
878.42	103.989
878.59	99.336
878.76	98.221
878.93	110.407
879.09	101.965
879.26	105.797
879.43	98.427
879.60	95.463
879.76	75.801
879.93	94.554
880.10	89.535
880.27	70.994
880.43	74.598
880.60	75.862
880.77	62.615
880.94	50.687
881.10	57.888
881.27	64.944
881.44	40.644
881.61	56.811
881.77	58.339
881.94	47.684
882.11	43.850
882.28	50.128
882.44	50.856
882.61	48.540
882.78	50.248
882.94	54.758
883.11	49.910
883.28	53.231
883.45	51.173
883.61	50.054
883.78	51.772
883.95	54.615
884.11	47.573
884.28	51.190
>>>>>End Processed Spectral Data<<<<<
