SpectraSuite Data File
++++++++++++++++++++++++++++++++++++
Date: Mon Sep 23 04:36:34 EST 2019
User: sgrac
Dark Spectrum Present: Yes
Reference Spectrum Present: Yes
Number of Sampled Component Spectra: 1
Spectrometers: USB4E01596
Integration Time (usec): 100000 (USB4E01596)
Spectra Averaged: 3 (USB4E01596)
Boxcar Smoothing: 0 (USB4E01596)
Correct for Electrical Dark: No (USB4E01596)
Strobe/Lamp Enabled: Yes (USB4E01596)
Correct for Detector Non-linearity: No (USB4E01596)
Correct for Stray Light: No (USB4E01596)
Number of Pixels in Processed Spectrum: 3648
>>>>>Begin Processed Spectral Data<<<<<
178.44	1630.769
178.66	1630.769
178.87	1630.769
179.09	9000.000
179.30	-6300.000
179.52	-716.129
179.74	-492.453
179.95	729.545
180.17	-777.778
180.38	642.105
180.60	-3018.182
180.82	748.889
181.03	5283.333
181.25	-2608.333
181.46	-1320.000
181.68	1345.833
181.89	-647.727
182.11	-2400.000
182.33	-2293.750
182.54	791.667
182.76	4233.333
182.97	-578.723
183.19	1380.000
183.40	339.669
183.62	443.590
183.84	331.818
184.05	4700.000
184.27	528.788
184.48	507.576
184.70	1788.235
184.91	1328.571
185.13	3330.000
185.34	-16000.000
185.56	1276.923
185.78	388.889
185.99	1111.111
186.21	359.091
186.42	-6000.000
186.64	2310.000
186.85	-5200.000
187.07	580.000
187.28	465.789
187.50	570.909
187.72	406.410
187.93	709.091
188.15	396.875
188.36	638.158
188.58	620.408
188.79	364.423
189.01	500.000
189.22	989.189
189.44	-900.000
189.65	316.102
189.87	-5975.000
190.09	541.270
190.30	904.762
190.52	506.667
190.73	917.391
190.95	-4516.667
191.16	313.095
191.38	495.946
191.59	492.647
191.81	487.097
192.02	1853.333
192.24	1059.375
192.45	944.118
192.67	-2025.000
192.88	433.962
193.10	440.984
193.31	887.500
193.53	229.032
193.74	454.667
193.96	2171.429
194.18	1134.615
194.39	2700.000
194.61	508.219
194.82	1631.818
195.04	282.927
195.25	-549.123
195.47	-587.037
195.68	4633.333
195.90	692.727
196.11	465.672
196.33	25000.000
196.54	804.878
196.76	2292.857
196.97	418.182
197.19	840.541
197.40	2621.429
197.62	355.963
197.83	1293.548
198.05	683.636
198.26	1193.103
198.48	457.746
198.69	491.667
198.91	1316.667
199.12	797.674
199.34	697.826
199.55	437.143
199.77	1973.684
199.98	888.235
200.20	451.316
200.41	537.097
200.63	349.558
200.84	2450.000
201.06	3600.000
201.27	865.854
201.49	560.563
201.70	-1130.000
201.91	550.000
202.13	591.525
202.34	639.655
202.56	-1192.000
202.77	720.000
202.99	6833.333
203.20	-3775.000
203.42	1700.000
203.63	369.737
203.85	6683.333
204.06	546.000
204.28	286.869
204.49	490.741
204.71	547.458
204.92	1103.846
205.14	0.000
205.35	1070.000
205.56	-1230.000
205.78	8160.000
205.99	-1857.143
206.21	14750.000
206.42	797.727
206.64	1096.774
206.85	1059.259
207.07	-3377.778
207.28	496.552
207.50	865.217
207.71	948.387
207.93	367.470
208.14	-1333.333
208.35	509.091
208.57	1152.000
208.78	-3033.333
209.00	371.277
209.21	-14950.000
209.43	-9400.000
209.64	-2260.000
209.86	275.258
210.07	376.744
210.28	561.972
210.50	1058.621
210.71	562.745
210.93	261.029
211.14	411.236
211.36	1743.750
211.57	516.667
211.78	462.857
212.00	397.647
212.21	504.286
212.43	1048.718
212.64	440.426
212.86	482.432
213.07	398.165
213.29	-861.111
213.50	357.609
213.71	341.379
213.93	393.902
214.14	1509.091
214.36	517.647
214.57	375.949
214.78	822.222
215.00	356.250
215.21	1113.333
215.43	959.459
215.64	501.587
215.86	371.250
216.07	951.429
216.28	723.684
216.50	303.333
216.71	29700.000
216.93	615.152
217.14	1761.111
217.35	305.303
217.57	327.027
217.78	403.704
218.00	297.980
218.21	1104.348
218.42	676.596
218.64	551.786
218.85	740.000
219.07	1050.000
219.28	306.542
219.49	541.176
219.71	527.692
219.92	238.060
220.14	372.165
220.35	512.000
220.56	341.379
220.78	331.731
220.99	277.419
221.21	351.613
221.42	441.975
221.63	228.324
221.85	530.769
222.06	542.857
222.28	444.615
222.49	291.892
222.70	252.756
222.92	583.673
223.13	496.721
223.34	210.638
223.56	385.714
223.77	373.750
223.99	372.632
224.20	480.357
224.41	395.890
224.63	387.500
224.84	220.946
225.05	141.880
225.27	265.217
225.48	294.118
225.69	281.955
225.91	345.946
226.12	290.698
226.34	234.899
226.55	141.727
226.76	266.250
226.98	182.353
227.19	151.562
227.40	230.469
227.62	187.831
227.83	154.077
228.04	132.123
228.26	90.231
228.47	86.402
228.69	68.782
228.90	49.254
229.11	58.092
229.33	45.455
229.54	46.976
229.75	53.475
229.97	47.106
230.18	45.169
230.39	42.810
230.61	42.012
230.82	44.431
231.03	33.152
231.25	39.586
231.46	53.281
231.67	57.798
231.89	54.596
232.10	48.310
232.31	59.253
232.53	56.537
232.74	64.860
232.95	49.728
233.17	57.200
233.38	48.319
233.59	63.265
233.81	74.638
234.02	66.132
234.23	71.986
234.45	68.924
234.66	63.717
234.87	65.984
235.09	76.206
235.30	64.623
235.51	65.480
235.73	63.080
235.94	57.475
236.15	59.590
236.36	57.570
236.58	58.658
236.79	50.590
237.00	58.358
237.22	61.395
237.43	54.948
237.64	56.220
237.86	43.985
238.07	65.292
238.28	61.129
238.50	55.743
238.71	58.094
238.92	49.375
239.13	62.034
239.35	49.145
239.56	54.770
239.77	56.201
239.99	41.890
240.20	50.554
240.41	49.928
240.63	39.892
240.84	43.035
241.05	41.475
241.26	42.675
241.48	31.911
241.69	29.669
241.90	31.106
242.12	25.619
242.33	30.252
242.54	20.569
242.75	22.789
242.97	23.594
243.18	18.096
243.39	17.539
243.61	19.871
243.82	20.355
244.03	20.906
244.24	18.625
244.46	21.727
244.67	24.266
244.88	19.799
245.09	22.199
245.31	26.535
245.52	22.725
245.73	20.375
245.95	39.831
246.16	23.289
246.37	20.445
246.58	19.700
246.80	20.790
247.01	24.215
247.22	15.861
247.43	15.556
247.65	15.689
247.86	16.076
248.07	10.938
248.28	14.314
248.50	14.111
248.71	12.904
248.92	14.009
249.13	13.659
249.35	14.423
249.56	14.875
249.77	15.576
249.98	14.086
250.20	21.329
250.41	21.091
250.62	19.532
250.83	20.458
251.05	19.802
251.26	17.079
251.47	23.196
251.68	24.337
251.90	23.973
252.11	21.837
252.32	24.413
252.53	23.098
252.75	18.275
252.96	24.319
253.17	19.271
253.38	18.062
253.59	20.593
253.81	19.016
254.02	16.560
254.23	19.688
254.44	15.133
254.66	17.760
254.87	21.105
255.08	22.812
255.29	27.136
255.50	20.302
255.72	23.214
255.93	28.999
256.14	32.743
256.35	26.502
256.57	31.556
256.78	26.779
256.99	27.252
257.20	31.462
257.41	20.619
257.63	29.893
257.84	24.229
258.05	21.972
258.26	18.077
258.47	21.325
258.69	23.241
258.90	16.207
259.11	18.088
259.32	16.223
259.53	15.236
259.75	14.810
259.96	11.423
260.17	11.076
260.38	9.867
260.59	11.360
260.81	11.900
261.02	11.514
261.23	11.344
261.44	12.163
261.65	12.060
261.87	11.105
262.08	11.933
262.29	14.061
262.50	13.443
262.71	10.213
262.92	14.454
263.14	14.354
263.35	12.432
263.56	12.362
263.77	15.669
263.98	17.451
264.20	16.618
264.41	17.412
264.62	16.375
264.83	17.118
265.04	22.498
265.25	18.156
265.47	18.565
265.68	20.760
265.89	18.519
266.10	16.118
266.31	23.092
266.52	13.534
266.74	13.946
266.95	15.572
267.16	14.900
267.37	15.880
267.58	14.196
267.79	14.599
268.01	12.492
268.22	14.673
268.43	14.591
268.64	15.796
268.85	15.873
269.06	13.177
269.27	15.698
269.49	12.418
269.70	12.139
269.91	15.430
270.12	11.973
270.33	17.021
270.54	11.806
270.75	11.565
270.97	15.248
271.18	11.325
271.39	12.046
271.60	15.069
271.81	13.489
272.02	11.666
272.23	13.854
272.45	12.630
272.66	9.651
272.87	10.155
273.08	9.780
273.29	12.466
273.50	10.948
273.71	10.015
273.92	11.012
274.14	9.478
274.35	13.284
274.56	12.997
274.77	11.411
274.98	12.176
275.19	12.185
275.40	11.961
275.61	11.089
275.83	16.243
276.04	12.292
276.25	16.002
276.46	12.039
276.67	15.054
276.88	14.565
277.09	12.253
277.30	13.763
277.51	15.544
277.73	13.352
277.94	13.417
278.15	16.037
278.36	16.621
278.57	12.828
278.78	11.656
278.99	13.132
279.20	14.130
279.41	18.683
279.62	12.993
279.84	12.574
280.05	13.281
280.26	11.955
280.47	13.965
280.68	13.120
280.89	14.532
281.10	12.946
281.31	14.265
281.52	14.953
281.73	10.842
281.94	10.811
282.16	13.664
282.37	10.721
282.58	10.504
282.79	14.367
283.00	14.092
283.21	11.100
283.42	11.119
283.63	12.029
283.84	11.278
284.05	12.905
284.26	12.345
284.47	11.195
284.68	10.485
284.89	11.738
285.11	11.460
285.32	10.422
285.53	12.668
285.74	14.148
285.95	10.911
286.16	9.498
286.37	10.141
286.58	10.160
286.79	8.619
287.00	10.517
287.21	10.876
287.42	9.644
287.63	10.515
287.84	10.078
288.05	11.847
288.26	9.759
288.48	12.653
288.69	9.291
288.90	9.748
289.11	13.455
289.32	12.291
289.53	10.506
289.74	9.848
289.95	11.488
290.16	11.575
290.37	9.973
290.58	8.639
290.79	8.162
291.00	10.040
291.21	8.898
291.42	8.395
291.63	10.796
291.84	12.019
292.05	8.232
292.26	9.233
292.47	11.413
292.68	9.065
292.89	10.849
293.10	12.283
293.31	10.688
293.52	8.545
293.73	10.243
293.94	10.309
294.15	9.157
294.36	10.869
294.57	10.709
294.79	9.604
295.00	9.127
295.21	12.109
295.42	10.863
295.63	11.714
295.84	9.055
296.05	8.021
296.26	8.677
296.47	10.087
296.68	9.291
296.89	11.532
297.10	10.534
297.31	9.528
297.52	6.730
297.73	10.095
297.94	8.839
298.15	9.433
298.36	9.343
298.57	8.135
298.78	10.210
298.99	8.851
299.20	9.812
299.41	10.017
299.62	8.960
299.83	8.055
300.04	10.516
300.25	10.973
300.46	10.895
300.67	11.547
300.88	10.544
301.09	8.680
301.30	10.385
301.50	9.514
301.71	12.643
301.92	10.907
302.13	10.375
302.34	9.291
302.55	7.294
302.76	8.851
302.97	10.335
303.18	10.229
303.39	8.646
303.60	9.289
303.81	11.437
304.02	8.495
304.23	10.437
304.44	9.269
304.65	7.815
304.86	10.414
305.07	8.002
305.28	9.358
305.49	10.187
305.70	11.116
305.91	9.748
306.12	9.154
306.33	9.376
306.54	8.902
306.75	10.158
306.96	15.590
307.17	11.533
307.38	10.612
307.58	8.695
307.79	9.306
308.00	9.717
308.21	9.376
308.42	10.710
308.63	8.907
308.84	9.293
309.05	10.229
309.26	6.755
309.47	8.281
309.68	8.580
309.89	9.110
310.10	9.901
310.31	9.966
310.52	9.292
310.73	9.682
310.94	6.728
311.14	7.946
311.35	7.076
311.56	8.675
311.77	7.876
311.98	7.001
312.19	8.310
312.40	6.089
312.61	6.985
312.82	9.278
313.03	7.457
313.24	9.079
313.45	8.193
313.66	7.216
313.86	8.847
314.07	8.178
314.28	10.293
314.49	7.537
314.70	10.535
314.91	9.492
315.12	7.449
315.33	11.425
315.54	8.413
315.75	7.850
315.96	8.494
316.16	8.148
316.37	9.330
316.58	7.427
316.79	9.360
317.00	9.753
317.21	9.504
317.42	9.399
317.63	9.461
317.84	8.735
318.05	8.935
318.25	8.753
318.46	9.787
318.67	6.912
318.88	8.858
319.09	9.643
319.30	6.924
319.51	9.021
319.72	10.378
319.93	7.291
320.13	8.436
320.34	10.461
320.55	9.903
320.76	9.467
320.97	10.472
321.18	10.989
321.39	7.220
321.60	8.892
321.80	11.654
322.01	9.381
322.22	6.907
322.43	8.025
322.64	7.682
322.85	10.070
323.06	8.350
323.27	9.025
323.47	10.599
323.68	10.155
323.89	8.892
324.10	10.183
324.31	7.258
324.52	8.795
324.73	10.174
324.93	8.083
325.14	8.483
325.35	9.774
325.56	5.880
325.77	9.456
325.98	8.627
326.19	10.185
326.39	5.666
326.60	7.653
326.81	6.584
327.02	7.209
327.23	8.406
327.44	10.239
327.64	8.484
327.85	6.720
328.06	9.286
328.27	10.793
328.48	9.048
328.69	7.123
328.90	9.128
329.10	7.872
329.31	8.900
329.52	8.318
329.73	10.648
329.94	7.937
330.15	8.502
330.35	10.525
330.56	8.050
330.77	8.048
330.98	6.791
331.19	8.787
331.39	10.032
331.60	9.849
331.81	6.085
332.02	7.868
332.23	8.669
332.44	9.134
332.64	7.445
332.85	6.768
333.06	8.549
333.27	8.142
333.48	8.676
333.68	7.248
333.89	8.970
334.10	7.465
334.31	8.886
334.52	7.688
334.72	7.309
334.93	8.206
335.14	6.668
335.35	7.036
335.56	8.206
335.76	6.733
335.97	8.242
336.18	7.121
336.39	8.911
336.60	6.990
336.80	7.923
337.01	6.078
337.22	8.152
337.43	7.901
337.64	8.821
337.84	8.370
338.05	6.591
338.26	9.924
338.47	10.264
338.68	7.147
338.88	6.974
339.09	7.664
339.30	7.529
339.51	8.238
339.71	8.231
339.92	6.784
340.13	7.577
340.34	7.563
340.55	7.393
340.75	9.161
340.96	7.265
341.17	8.516
341.38	7.775
341.58	7.273
341.79	7.359
342.00	6.752
342.21	6.860
342.41	6.797
342.62	7.723
342.83	8.817
343.04	6.372
343.24	8.269
343.45	7.019
343.66	6.154
343.87	6.917
344.07	5.841
344.28	8.069
344.49	7.469
344.70	9.018
344.90	6.871
345.11	6.209
345.32	7.016
345.53	8.259
345.73	7.474
345.94	7.337
346.15	8.570
346.36	6.136
346.56	7.132
346.77	7.884
346.98	6.139
347.19	7.401
347.39	7.288
347.60	7.835
347.81	7.754
348.02	9.096
348.22	6.802
348.43	7.669
348.64	7.865
348.84	7.460
349.05	9.268
349.26	9.390
349.47	7.155
349.67	6.888
349.88	8.495
350.09	7.840
350.30	9.384
350.50	7.752
350.71	8.683
350.92	7.595
351.12	8.478
351.33	7.077
351.54	7.649
351.74	8.619
351.95	8.600
352.16	8.736
352.37	7.728
352.57	7.729
352.78	9.032
352.99	9.084
353.19	8.463
353.40	8.316
353.61	8.776
353.82	10.062
354.02	9.825
354.23	8.898
354.44	10.586
354.64	10.000
354.85	10.221
355.06	9.248
355.26	8.710
355.47	9.108
355.68	11.264
355.88	10.596
356.09	10.633
356.30	9.817
356.51	11.483
356.71	10.267
356.92	9.445
357.13	11.496
357.33	12.697
357.54	11.644
357.75	9.370
357.95	12.642
358.16	9.716
358.37	13.153
358.57	11.018
358.78	14.598
358.99	11.639
359.19	12.734
359.40	13.794
359.61	12.461
359.81	12.999
360.02	15.846
360.23	11.186
360.43	13.192
360.64	12.774
360.85	14.126
361.05	11.669
361.26	13.856
361.47	14.188
361.67	15.529
361.88	12.601
362.09	15.203
362.29	13.142
362.50	14.483
362.70	12.740
362.91	15.514
363.12	13.736
363.32	15.060
363.53	16.007
363.74	16.626
363.94	13.933
364.15	17.312
364.36	17.058
364.56	15.524
364.77	16.278
364.98	18.218
365.18	15.597
365.39	17.593
365.59	14.362
365.80	16.456
366.01	17.499
366.21	15.704
366.42	13.045
366.63	17.124
366.83	15.910
367.04	13.675
367.24	18.114
367.45	15.303
367.66	13.473
367.86	16.852
368.07	15.289
368.28	15.851
368.48	16.226
368.69	14.415
368.89	15.768
369.10	17.015
369.31	15.339
369.51	17.016
369.72	17.945
369.92	18.158
370.13	13.830
370.34	15.984
370.54	13.100
370.75	17.086
370.95	14.380
371.16	16.561
371.37	15.389
371.57	15.991
371.78	15.835
371.98	16.977
372.19	16.164
372.40	16.846
372.60	16.675
372.81	17.067
373.01	14.780
373.22	14.331
373.43	15.605
373.63	16.907
373.84	16.947
374.04	16.177
374.25	16.041
374.46	16.961
374.66	16.238
374.87	17.689
375.07	13.659
375.28	14.612
375.48	15.403
375.69	16.634
375.90	13.654
376.10	14.423
376.31	14.739
376.51	14.855
376.72	15.883
376.92	15.241
377.13	16.389
377.34	17.218
377.54	14.904
377.75	17.050
377.95	14.545
378.16	17.288
378.36	15.194
378.57	16.847
378.77	15.554
378.98	16.496
379.19	14.990
379.39	15.285
379.60	15.105
379.80	15.697
380.01	16.304
380.21	14.716
380.42	15.739
380.62	15.823
380.83	15.647
381.04	15.759
381.24	15.942
381.45	15.598
381.65	13.187
381.86	15.883
382.06	16.249
382.27	14.309
382.47	13.995
382.68	17.109
382.88	13.747
383.09	14.404
383.29	15.496
383.50	15.875
383.71	14.448
383.91	15.775
384.12	14.482
384.32	16.533
384.53	14.720
384.73	14.234
384.94	14.472
385.14	15.012
385.35	14.341
385.55	15.797
385.76	15.242
385.96	15.212
386.17	15.236
386.37	15.909
386.58	15.222
386.78	16.075
386.99	14.107
387.19	16.975
387.40	13.867
387.60	16.784
387.81	15.091
388.01	15.287
388.22	15.756
388.42	16.872
388.63	17.119
388.83	18.111
389.04	14.316
389.24	15.607
389.45	15.976
389.65	14.993
389.86	15.616
390.06	15.395
390.27	14.824
390.47	15.588
390.68	14.926
390.88	16.843
391.09	15.874
391.29	16.146
391.50	15.305
391.70	15.523
391.91	15.720
392.11	15.389
392.32	15.322
392.52	16.522
392.73	15.447
392.93	17.002
393.14	16.555
393.34	15.250
393.55	16.162
393.75	16.666
393.95	15.228
394.16	16.381
394.36	16.259
394.57	17.168
394.77	16.449
394.98	15.735
395.18	15.665
395.39	15.759
395.59	15.666
395.80	16.202
396.00	15.840
396.21	17.242
396.41	15.684
396.61	17.125
396.82	16.187
397.02	17.689
397.23	16.144
397.43	16.000
397.64	15.049
397.84	17.253
398.05	14.528
398.25	16.873
398.45	15.753
398.66	16.499
398.86	16.110
399.07	16.562
399.27	15.370
399.48	16.574
399.68	14.789
399.89	15.722
400.09	15.867
400.29	14.876
400.50	14.972
400.70	15.985
400.91	15.388
401.11	15.617
401.32	15.250
401.52	14.786
401.72	15.581
401.93	17.321
402.13	15.398
402.34	16.550
402.54	14.447
402.75	18.017
402.95	14.076
403.15	17.081
403.36	15.088
403.56	16.355
403.77	15.095
403.97	14.301
404.17	14.008
404.38	16.406
404.58	15.272
404.79	16.028
404.99	15.063
405.19	15.933
405.40	15.457
405.60	15.660
405.81	15.370
406.01	15.323
406.21	15.432
406.42	16.031
406.62	15.010
406.83	15.511
407.03	16.264
407.23	15.425
407.44	14.679
407.64	16.400
407.85	16.104
408.05	15.241
408.25	15.594
408.46	16.421
408.66	15.358
408.87	15.636
409.07	15.625
409.27	15.148
409.48	15.175
409.68	15.699
409.88	13.134
410.09	14.475
410.29	15.353
410.50	16.923
410.70	13.227
410.90	15.027
411.11	14.399
411.31	14.678
411.51	15.452
411.72	15.777
411.92	14.581
412.12	14.341
412.33	14.567
412.53	14.817
412.74	13.736
412.94	14.442
413.14	14.569
413.35	15.184
413.55	14.654
413.75	15.671
413.96	14.269
414.16	14.711
414.36	14.067
414.57	15.360
414.77	14.044
414.97	14.694
415.18	13.713
415.38	14.692
415.58	14.671
415.79	14.032
415.99	13.715
416.19	14.837
416.40	14.120
416.60	14.422
416.80	14.175
417.01	14.753
417.21	13.083
417.41	14.577
417.62	14.037
417.82	14.909
418.02	12.954
418.23	15.132
418.43	14.238
418.63	14.853
418.84	14.211
419.04	13.630
419.24	14.345
419.45	14.831
419.65	14.251
419.85	15.245
420.06	14.691
420.26	14.680
420.46	14.709
420.67	14.469
420.87	14.746
421.07	14.316
421.28	14.268
421.48	14.470
421.68	14.779
421.88	14.554
422.09	14.655
422.29	14.338
422.49	14.453
422.70	14.240
422.90	14.558
423.10	14.954
423.31	14.961
423.51	14.671
423.71	14.568
423.91	15.017
424.12	14.938
424.32	15.056
424.52	14.174
424.73	14.269
424.93	14.453
425.13	14.127
425.33	14.239
425.54	14.067
425.74	14.374
425.94	15.171
426.15	15.251
426.35	14.723
426.55	14.928
426.75	14.989
426.96	14.845
427.16	14.739
427.36	14.807
427.57	15.207
427.77	14.835
427.97	15.027
428.17	15.044
428.38	15.368
428.58	14.127
428.78	15.823
428.98	13.876
429.19	14.382
429.39	14.525
429.59	15.372
429.79	13.404
430.00	13.958
430.20	13.898
430.40	14.834
430.60	14.251
430.81	14.743
431.01	14.598
431.21	15.406
431.41	14.270
431.62	15.248
431.82	14.625
432.02	14.774
432.22	14.403
432.43	14.753
432.63	14.577
432.83	14.863
433.03	14.566
433.24	14.897
433.44	14.121
433.64	15.117
433.84	14.687
434.05	15.495
434.25	14.991
434.45	15.329
434.65	15.312
434.85	15.829
435.06	15.671
435.26	15.308
435.46	15.406
435.66	15.538
435.87	15.622
436.07	15.357
436.27	15.476
436.47	16.004
436.67	15.496
436.88	15.783
437.08	15.563
437.28	16.234
437.48	15.426
437.69	15.781
437.89	16.211
438.09	15.878
438.29	15.573
438.49	16.314
438.70	16.074
438.90	15.999
439.10	15.656
439.30	15.988
439.50	15.609
439.71	15.854
439.91	16.001
440.11	16.148
440.31	16.233
440.51	15.811
440.72	15.694
440.92	15.622
441.12	16.168
441.32	16.019
441.52	16.134
441.72	16.351
441.93	16.684
442.13	16.345
442.33	16.496
442.53	16.988
442.73	16.304
442.94	16.473
443.14	16.824
443.34	16.756
443.54	16.513
443.74	16.835
443.94	16.530
444.15	16.571
444.35	16.449
444.55	16.502
444.75	16.279
444.95	16.856
445.15	16.240
445.36	16.321
445.56	16.107
445.76	16.219
445.96	16.019
446.16	16.275
446.36	16.596
446.57	16.572
446.77	15.975
446.97	16.109
447.17	16.561
447.37	16.437
447.57	16.799
447.77	16.424
447.98	16.822
448.18	16.700
448.38	16.775
448.58	17.061
448.78	17.355
448.98	17.006
449.18	16.549
449.39	17.163
449.59	16.930
449.79	16.979
449.99	17.088
450.19	17.532
450.39	17.322
450.59	17.097
450.79	17.012
451.00	17.129
451.20	18.360
451.40	17.042
451.60	17.072
451.80	17.117
452.00	16.652
452.20	17.070
452.40	16.731
452.61	17.002
452.81	16.759
453.01	16.680
453.21	16.765
453.41	16.516
453.61	16.642
453.81	16.794
454.01	16.808
454.21	16.846
454.42	16.913
454.62	17.318
454.82	16.980
455.02	17.174
455.22	16.728
455.42	17.127
455.62	16.957
455.82	16.984
456.02	17.184
456.23	16.889
456.43	16.519
456.63	16.700
456.83	16.615
457.03	17.190
457.23	16.710
457.43	16.676
457.63	16.586
457.83	16.750
458.03	16.570
458.23	16.638
458.43	16.681
458.64	16.670
458.84	16.660
459.04	16.586
459.24	16.187
459.44	16.153
459.64	16.024
459.84	15.940
460.04	16.271
460.24	16.263
460.44	16.512
460.64	16.357
460.84	16.861
461.04	16.623
461.24	17.079
461.45	16.712
461.65	17.147
461.85	16.966
462.05	16.995
462.25	16.962
462.45	17.666
462.65	17.166
462.85	16.757
463.05	17.450
463.25	16.659
463.45	17.198
463.65	16.591
463.85	17.058
464.05	17.097
464.25	16.922
464.45	17.102
464.65	16.679
464.85	16.823
465.05	16.959
465.26	17.241
465.46	17.023
465.66	16.754
465.86	16.946
466.06	16.997
466.26	16.690
466.46	16.664
466.66	17.013
466.86	16.543
467.06	16.844
467.26	17.566
467.46	16.856
467.66	17.175
467.86	17.190
468.06	16.807
468.26	17.265
468.46	17.088
468.66	17.100
468.86	16.894
469.06	17.449
469.26	16.958
469.46	17.304
469.66	16.729
469.86	17.258
470.06	16.972
470.26	17.428
470.46	16.840
470.66	17.427
470.86	17.150
471.06	17.111
471.26	17.551
471.46	17.291
471.66	17.380
471.86	17.196
472.06	17.315
472.26	17.998
472.46	18.022
472.66	17.940
472.86	17.464
473.06	17.756
473.26	17.344
473.46	18.024
473.66	17.254
473.86	17.972
474.06	17.630
474.26	17.815
474.46	17.343
474.66	17.848
474.86	18.114
475.06	18.214
475.26	17.668
475.46	18.284
475.66	17.607
475.86	18.036
476.06	17.968
476.26	17.921
476.46	17.779
476.66	18.085
476.86	18.012
477.06	18.951
477.26	18.175
477.46	18.591
477.65	17.586
477.85	18.561
478.05	18.116
478.25	18.814
478.45	17.986
478.65	18.292
478.85	18.102
479.05	18.114
479.25	18.830
479.45	18.479
479.65	18.719
479.85	18.391
480.05	18.417
480.25	18.654
480.45	19.113
480.65	18.849
480.85	18.803
481.05	18.708
481.25	18.749
481.44	18.824
481.64	18.455
481.84	18.771
482.04	18.989
482.24	19.377
482.44	18.792
482.64	18.395
482.84	18.749
483.04	18.345
483.24	18.210
483.44	18.084
483.64	18.022
483.84	17.607
484.04	18.196
484.23	18.492
484.43	18.722
484.63	18.946
484.83	19.491
485.03	20.441
485.23	20.358
485.43	20.340
485.63	20.237
485.83	20.145
486.03	20.035
486.23	20.263
486.42	20.099
486.62	19.788
486.82	19.286
487.02	19.334
487.22	19.194
487.42	19.084
487.62	18.936
487.82	18.870
488.02	18.960
488.22	19.017
488.41	19.518
488.61	19.304
488.81	19.516
489.01	19.509
489.21	19.893
489.41	19.950
489.61	20.122
489.81	19.895
490.01	20.160
490.20	20.249
490.40	20.141
490.60	20.208
490.80	20.069
491.00	19.585
491.20	19.341
491.40	18.906
491.60	18.966
491.79	18.959
491.99	19.363
492.19	19.112
492.39	19.492
492.59	19.543
492.79	19.658
492.99	19.643
493.19	19.940
493.38	20.201
493.58	20.286
493.78	20.335
493.98	20.352
494.18	20.313
494.38	20.221
494.58	20.427
494.77	20.118
494.97	19.972
495.17	20.166
495.37	20.403
495.57	20.251
495.77	20.153
495.96	20.261
496.16	20.134
496.36	19.994
496.56	19.455
496.76	20.030
496.96	19.604
497.15	19.979
497.35	19.814
497.55	20.156
497.75	20.030
497.95	19.979
498.15	20.214
498.34	19.914
498.54	19.780
498.74	20.108
498.94	20.150
499.14	20.321
499.34	20.336
499.53	20.127
499.73	19.818
499.93	19.948
500.13	20.246
500.33	19.986
500.52	20.455
500.72	20.219
500.92	20.613
501.12	20.350
501.32	19.992
501.52	20.797
501.71	20.481
501.91	20.303
502.11	20.466
502.31	19.843
502.51	20.330
502.70	20.859
502.90	20.223
503.10	20.498
503.30	20.477
503.50	20.386
503.69	19.962
503.89	20.448
504.09	20.326
504.29	20.496
504.48	20.448
504.68	20.302
504.88	20.417
505.08	20.389
505.28	20.601
505.47	20.789
505.67	20.545
505.87	20.801
506.07	20.480
506.27	20.554
506.46	20.663
506.66	20.555
506.86	20.697
507.06	21.375
507.25	21.179
507.45	21.049
507.65	21.080
507.85	20.639
508.04	20.948
508.24	20.939
508.44	20.709
508.64	21.048
508.83	20.797
509.03	20.409
509.23	20.476
509.43	20.558
509.63	20.840
509.82	20.548
510.02	20.900
510.22	20.728
510.42	20.666
510.61	21.198
510.81	20.870
511.01	21.438
511.21	21.282
511.40	21.245
511.60	21.213
511.80	21.412
511.99	21.629
512.19	20.926
512.39	20.951
512.59	20.928
512.78	21.497
512.98	21.537
513.18	21.175
513.38	21.205
513.57	20.755
513.77	21.502
513.97	21.198
514.17	21.369
514.36	21.189
514.56	21.581
514.76	21.440
514.95	21.615
515.15	21.197
515.35	21.128
515.55	21.175
515.74	21.231
515.94	21.464
516.14	21.601
516.33	21.407
516.53	21.366
516.73	21.546
516.93	21.477
517.12	21.461
517.32	20.822
517.52	21.134
517.71	21.284
517.91	20.896
518.11	20.857
518.30	21.095
518.50	20.650
518.70	20.926
518.90	20.862
519.09	21.126
519.29	21.215
519.49	21.120
519.68	21.287
519.88	21.269
520.08	20.997
520.27	21.272
520.47	21.776
520.67	21.553
520.86	21.684
521.06	21.655
521.26	21.593
521.45	21.919
521.65	21.778
521.85	21.496
522.04	21.641
522.24	21.549
522.44	21.188
522.63	21.547
522.83	21.526
523.03	21.658
523.22	21.955
523.42	22.066
523.62	21.489
523.81	21.631
524.01	21.965
524.21	21.437
524.40	21.838
524.60	21.673
524.80	21.451
524.99	21.332
525.19	21.107
525.39	21.278
525.58	21.348
525.78	21.202
525.98	21.040
526.17	20.661
526.37	21.332
526.57	21.222
526.76	21.080
526.96	21.126
527.15	21.210
527.35	21.338
527.55	21.060
527.74	21.073
527.94	20.936
528.14	20.781
528.33	20.544
528.53	20.333
528.72	20.770
528.92	20.939
529.12	21.123
529.31	21.263
529.51	21.377
529.71	21.357
529.90	21.748
530.10	21.711
530.29	22.332
530.49	22.057
530.69	22.593
530.88	22.356
531.08	22.223
531.28	22.202
531.47	22.184
531.67	21.979
531.86	21.504
532.06	21.623
532.26	21.672
532.45	21.582
532.65	21.487
532.84	20.999
533.04	20.843
533.24	21.034
533.43	21.137
533.63	21.334
533.82	21.380
534.02	21.390
534.22	21.601
534.41	21.381
534.61	21.654
534.80	21.456
535.00	22.157
535.19	21.709
535.39	22.164
535.59	21.885
535.78	22.169
535.98	22.160
536.17	21.509
536.37	21.420
536.57	21.571
536.76	21.569
536.96	21.245
537.15	21.600
537.35	21.733
537.54	21.301
537.74	21.498
537.93	21.593
538.13	21.865
538.33	21.751
538.52	21.905
538.72	21.977
538.91	22.331
539.11	22.316
539.30	22.212
539.50	22.286
539.70	21.911
539.89	22.030
540.09	21.575
540.28	21.812
540.48	21.769
540.67	21.351
540.87	21.255
541.06	21.018
541.26	21.047
541.45	21.318
541.65	21.582
541.85	21.379
542.04	21.577
542.24	21.584
542.43	21.778
542.63	21.788
542.82	21.858
543.02	22.150
543.21	22.484
543.41	22.666
543.60	22.482
543.80	22.568
543.99	22.510
544.19	22.304
544.38	22.230
544.58	22.412
544.77	22.662
544.97	22.870
545.16	22.350
545.36	22.358
545.56	22.762
545.75	22.655
545.95	22.748
546.14	22.366
546.34	22.718
546.53	22.708
546.73	22.220
546.92	22.755
547.12	22.696
547.31	22.445
547.51	22.917
547.70	23.074
547.90	22.981
548.09	23.018
548.29	23.558
548.48	23.553
548.68	23.277
548.87	23.845
549.07	23.566
549.26	23.791
549.46	23.556
549.65	23.851
549.84	24.436
550.04	24.458
550.23	23.854
550.43	24.009
550.62	24.433
550.82	24.408
551.01	24.700
551.21	24.649
551.40	24.302
551.60	23.916
551.79	25.029
551.99	24.322
552.18	24.908
552.38	24.057
552.57	24.356
552.77	24.544
552.96	24.876
553.16	24.906
553.35	24.601
553.54	24.600
553.74	25.051
553.93	25.090
554.13	25.485
554.32	25.510
554.52	25.374
554.71	25.321
554.91	25.593
555.10	25.796
555.29	25.171
555.49	25.503
555.68	25.422
555.88	25.885
556.07	25.822
556.27	25.419
556.46	25.600
556.66	26.542
556.85	25.966
557.04	26.239
557.24	26.713
557.43	26.435
557.63	26.553
557.82	26.898
558.02	26.469
558.21	26.576
558.40	26.909
558.60	26.866
558.79	27.051
558.99	26.974
559.18	26.959
559.38	26.928
559.57	26.757
559.76	26.929
559.96	28.087
560.15	27.652
560.35	26.931
560.54	26.958
560.73	26.695
560.93	26.944
561.12	27.346
561.32	26.721
561.51	26.262
561.70	27.067
561.90	26.934
562.09	27.338
562.29	27.481
562.48	27.255
562.67	27.563
562.87	27.186
563.06	27.005
563.26	26.701
563.45	27.942
563.64	27.504
563.84	27.786
564.03	27.027
564.23	28.065
564.42	28.219
564.61	28.095
564.81	27.812
565.00	27.500
565.20	27.180
565.39	27.878
565.58	27.157
565.78	27.315
565.97	27.218
566.16	27.665
566.36	27.646
566.55	27.609
566.74	27.449
566.94	28.130
567.13	27.735
567.33	27.124
567.52	27.584
567.71	28.168
567.91	28.075
568.10	28.118
568.29	27.450
568.49	28.038
568.68	28.158
568.87	27.738
569.07	28.040
569.26	27.994
569.45	28.534
569.65	27.814
569.84	27.728
570.04	28.007
570.23	28.083
570.42	27.962
570.62	28.142
570.81	28.611
571.00	28.296
571.20	28.245
571.39	28.350
571.58	28.293
571.78	27.971
571.97	27.992
572.16	28.304
572.36	28.180
572.55	28.168
572.74	28.048
572.94	27.946
573.13	28.416
573.32	28.638
573.51	28.411
573.71	28.296
573.90	28.291
574.09	28.887
574.29	28.128
574.48	28.676
574.67	28.177
574.87	28.310
575.06	27.980
575.25	28.435
575.45	28.573
575.64	28.152
575.83	28.337
576.03	29.044
576.22	28.251
576.41	28.413
576.60	27.934
576.80	28.150
576.99	28.689
577.18	29.167
577.38	28.889
577.57	28.961
577.76	28.874
577.95	28.696
578.15	29.267
578.34	28.903
578.53	28.908
578.73	29.186
578.92	28.740
579.11	28.955
579.30	29.514
579.50	29.378
579.69	29.257
579.88	28.639
580.08	29.103
580.27	28.829
580.46	28.997
580.65	28.458
580.85	29.043
581.04	29.382
581.23	29.316
581.42	28.583
581.62	29.130
581.81	28.933
582.00	29.330
582.19	28.958
582.39	28.518
582.58	29.616
582.77	29.230
582.96	29.432
583.16	29.009
583.35	29.378
583.54	29.209
583.73	29.238
583.93	28.585
584.12	29.527
584.31	28.774
584.50	29.225
584.70	29.162
584.89	29.028
585.08	29.522
585.27	29.506
585.47	29.025
585.66	28.827
585.85	29.109
586.04	29.130
586.24	29.353
586.43	29.068
586.62	29.658
586.81	29.350
587.00	29.886
587.20	29.671
587.39	28.929
587.58	29.685
587.77	29.092
587.97	29.461
588.16	29.786
588.35	29.474
588.54	28.349
588.73	29.609
588.93	28.967
589.12	29.126
589.31	29.353
589.50	29.175
589.69	29.374
589.89	28.781
590.08	28.969
590.27	28.726
590.46	29.210
590.65	29.129
590.85	28.800
591.04	28.899
591.23	29.062
591.42	28.995
591.61	29.263
591.81	29.368
592.00	29.527
592.19	29.796
592.38	29.484
592.57	30.038
592.77	29.367
592.96	29.979
593.15	29.729
593.34	29.185
593.53	29.770
593.72	29.913
593.92	29.082
594.11	29.883
594.30	29.073
594.49	29.960
594.68	28.433
594.87	29.124
595.07	29.374
595.26	29.617
595.45	29.590
595.64	29.463
595.83	29.326
596.02	28.960
596.22	29.194
596.41	29.188
596.60	29.274
596.79	29.905
596.98	29.071
597.17	29.385
597.37	29.623
597.56	29.573
597.75	29.135
597.94	29.477
598.13	29.693
598.32	29.588
598.51	29.970
598.71	30.076
598.90	30.119
599.09	30.421
599.28	30.293
599.47	30.687
599.66	29.553
599.85	30.607
600.05	30.175
600.24	30.534
600.43	30.149
600.62	30.898
600.81	30.345
601.00	30.827
601.19	31.461
601.38	31.743
601.58	30.516
601.77	31.125
601.96	30.212
602.15	30.888
602.34	30.455
602.53	31.370
602.72	30.829
602.91	30.732
603.10	30.838
603.30	30.133
603.49	30.288
603.68	30.708
603.87	30.441
604.06	30.375
604.25	30.677
604.44	30.360
604.63	30.112
604.82	29.967
605.01	30.451
605.21	30.069
605.40	30.485
605.59	30.537
605.78	30.345
605.97	30.490
606.16	30.851
606.35	30.807
606.54	30.985
606.73	30.264
606.92	30.903
607.11	31.019
607.30	32.084
607.50	31.150
607.69	30.952
607.88	30.908
608.07	30.756
608.26	30.923
608.45	30.594
608.64	31.268
608.83	30.057
609.02	30.388
609.21	30.258
609.40	30.729
609.59	30.299
609.78	30.290
609.97	30.496
610.16	29.929
610.35	30.565
610.55	29.938
610.74	30.339
610.93	30.779
611.12	30.385
611.31	30.411
611.50	31.007
611.69	30.934
611.88	31.250
612.07	30.311
612.26	29.807
612.45	31.013
612.64	30.766
612.83	30.930
613.02	30.870
613.21	30.991
613.40	30.182
613.59	31.511
613.78	30.549
613.97	31.121
614.16	30.957
614.35	30.655
614.54	30.662
614.73	30.282
614.92	30.760
615.11	30.832
615.30	30.652
615.49	30.387
615.68	30.963
615.87	30.870
616.07	29.468
616.26	30.464
616.45	30.149
616.64	30.681
616.83	30.259
617.02	30.034
617.21	29.860
617.40	29.772
617.59	30.954
617.78	30.311
617.97	29.554
618.16	29.118
618.35	29.774
618.54	29.313
618.73	29.726
618.92	29.704
619.11	29.752
619.30	30.305
619.49	29.862
619.68	29.451
619.86	30.330
620.05	29.634
620.24	29.230
620.43	29.115
620.62	28.307
620.81	29.924
621.00	29.786
621.19	29.665
621.38	29.753
621.57	29.240
621.76	29.700
621.95	29.367
622.14	29.906
622.33	30.197
622.52	28.935
622.71	29.718
622.90	28.846
623.09	29.810
623.28	28.863
623.47	29.833
623.66	29.421
623.85	29.947
624.04	28.734
624.23	28.648
624.42	29.017
624.61	29.664
624.80	28.736
624.99	29.066
625.18	27.711
625.36	29.883
625.55	29.183
625.74	29.276
625.93	28.461
626.12	28.876
626.31	29.103
626.50	29.121
626.69	28.487
626.88	29.311
627.07	28.476
627.26	29.025
627.45	28.045
627.64	28.994
627.83	28.618
628.02	28.594
628.20	29.189
628.39	28.679
628.58	29.021
628.77	28.820
628.96	29.016
629.15	29.275
629.34	29.333
629.53	28.812
629.72	29.214
629.91	29.487
630.10	28.478
630.29	28.594
630.47	28.764
630.66	29.933
630.85	28.596
631.04	29.014
631.23	29.401
631.42	29.628
631.61	30.388
631.80	29.133
631.99	28.924
632.18	29.580
632.36	28.744
632.55	29.621
632.74	29.386
632.93	29.061
633.12	27.644
633.31	28.712
633.50	28.250
633.69	28.683
633.88	28.314
634.06	28.632
634.25	29.573
634.44	28.914
634.63	28.516
634.82	28.806
635.01	28.166
635.20	28.785
635.39	27.945
635.57	29.865
635.76	28.620
635.95	28.881
636.14	28.458
636.33	28.522
636.52	28.871
636.71	28.221
636.89	28.275
637.08	28.644
637.27	28.277
637.46	28.183
637.65	27.920
637.84	28.701
638.03	28.756
638.21	28.237
638.40	27.788
638.59	28.328
638.78	27.925
638.97	28.312
639.16	28.071
639.34	28.253
639.53	28.648
639.72	28.249
639.91	27.171
640.10	27.799
640.29	28.797
640.47	28.601
640.66	28.531
640.85	29.650
641.04	27.930
641.23	28.769
641.42	28.588
641.60	28.845
641.79	27.510
641.98	28.583
642.17	27.784
642.36	29.024
642.54	28.260
642.73	28.448
642.92	27.857
643.11	28.588
643.30	27.833
643.49	27.727
643.67	28.066
643.86	28.553
644.05	27.846
644.24	27.628
644.43	27.694
644.61	29.382
644.80	27.662
644.99	28.439
645.18	27.868
645.37	28.726
645.55	27.487
645.74	28.519
645.93	27.518
646.12	28.679
646.31	27.175
646.49	28.311
646.68	28.749
646.87	28.650
647.06	28.491
647.24	28.064
647.43	27.467
647.62	29.415
647.81	26.548
648.00	28.577
648.18	27.015
648.37	27.156
648.56	27.562
648.75	28.921
648.93	27.887
649.12	28.545
649.31	28.044
649.50	28.570
649.68	26.943
649.87	27.265
650.06	27.029
650.25	27.657
650.43	27.279
650.62	27.390
650.81	27.411
651.00	27.306
651.18	26.486
651.37	28.633
651.56	26.872
651.75	27.722
651.93	27.137
652.12	27.635
652.31	27.155
652.50	28.260
652.68	27.377
652.87	28.532
653.06	28.331
653.25	28.249
653.43	27.637
653.62	28.154
653.81	26.952
654.00	27.622
654.18	26.177
654.37	28.172
654.56	27.429
654.74	26.810
654.93	27.981
655.12	27.036
655.31	27.312
655.49	26.182
655.68	25.863
655.87	26.004
656.05	26.401
656.24	27.168
656.43	25.722
656.62	27.683
656.80	25.620
656.99	26.663
657.18	26.770
657.36	26.761
657.55	25.828
657.74	27.035
657.93	26.826
658.11	28.014
658.30	26.743
658.49	26.259
658.67	26.954
658.86	25.549
659.05	25.167
659.23	25.754
659.42	25.210
659.61	24.821
659.79	25.484
659.98	25.343
660.17	25.991
660.35	24.613
660.54	25.669
660.73	25.607
660.91	25.539
661.10	25.134
661.29	24.727
661.47	24.312
661.66	24.250
661.85	24.914
662.03	25.627
662.22	24.304
662.41	23.358
662.59	24.210
662.78	23.377
662.97	24.044
663.15	23.825
663.34	23.910
663.53	22.980
663.71	23.836
663.90	23.157
664.09	24.850
664.27	22.844
664.46	22.983
664.65	23.262
664.83	22.855
665.02	22.236
665.21	22.173
665.39	20.943
665.58	23.142
665.77	21.388
665.95	21.608
666.14	20.704
666.32	22.502
666.51	20.180
666.70	20.754
666.88	20.914
667.07	21.535
667.26	20.390
667.44	22.018
667.63	21.136
667.81	21.169
668.00	21.859
668.19	23.259
668.37	21.103
668.56	22.156
668.75	20.491
668.93	22.501
669.12	19.747
669.30	22.834
669.49	20.080
669.68	21.812
669.86	21.725
670.05	21.263
670.23	21.411
670.42	20.250
670.61	21.289
670.79	21.146
670.98	20.971
671.16	21.824
671.35	19.320
671.54	21.051
671.72	19.801
671.91	21.862
672.09	19.332
672.28	22.026
672.46	20.363
672.65	22.770
672.84	20.508
673.02	22.857
673.21	19.981
673.39	22.091
673.58	21.101
673.77	21.656
673.95	21.286
674.14	20.922
674.32	19.307
674.51	23.179
674.69	19.497
674.88	20.914
675.07	20.943
675.25	23.568
675.44	20.832
675.62	21.520
675.81	19.858
675.99	24.615
676.18	21.154
676.36	21.801
676.55	20.995
676.74	23.466
676.92	20.979
677.11	22.412
677.29	21.696
677.48	23.289
677.66	22.740
677.85	21.380
678.03	20.965
678.22	24.036
678.40	21.458
678.59	23.259
678.78	20.928
678.96	22.191
679.15	21.939
679.33	23.343
679.52	22.274
679.70	22.499
679.89	22.449
680.07	23.838
680.26	22.488
680.44	23.845
680.63	23.572
680.81	23.823
681.00	22.028
681.18	23.688
681.37	22.525
681.55	24.691
681.74	23.106
681.92	23.816
682.11	22.720
682.29	24.027
682.48	23.243
682.66	24.788
682.85	24.571
683.03	24.083
683.22	23.685
683.40	25.300
683.59	23.354
683.77	25.500
683.96	25.117
684.14	25.389
684.33	21.727
684.51	27.309
684.70	24.569
684.88	25.786
685.07	25.425
685.25	27.488
685.44	25.209
685.62	25.363
685.81	25.016
685.99	27.461
686.18	24.689
686.36	27.690
686.55	25.663
686.73	26.660
686.92	27.274
687.10	27.827
687.29	27.747
687.47	28.454
687.65	29.023
687.84	26.276
688.02	28.820
688.21	29.890
688.39	27.840
688.58	28.711
688.76	29.103
688.95	29.635
689.13	28.557
689.32	30.718
689.50	28.953
689.68	29.909
689.87	30.097
690.05	30.175
690.24	30.617
690.42	31.216
690.61	31.716
690.79	32.280
690.98	30.303
691.16	32.051
691.34	30.301
691.53	33.505
691.71	30.459
691.90	32.533
692.08	31.573
692.27	34.093
692.45	33.796
692.63	34.504
692.82	33.595
693.00	34.052
693.19	32.459
693.37	36.343
693.56	32.894
693.74	34.965
693.92	33.387
694.11	36.798
694.29	34.472
694.48	36.365
694.66	36.222
694.84	36.409
695.03	35.476
695.21	37.520
695.40	39.067
695.58	39.881
695.76	36.990
695.95	38.396
696.13	37.314
696.32	38.979
696.50	39.599
696.68	38.977
696.87	39.526
697.05	41.026
697.24	40.112
697.42	40.565
697.60	40.226
697.79	40.502
697.97	40.436
698.16	42.059
698.34	39.144
698.52	41.217
698.71	40.278
698.89	41.112
699.07	40.196
699.26	42.761
699.44	40.356
699.63	42.653
699.81	40.947
699.99	41.731
700.18	41.385
700.36	41.882
700.54	42.120
700.73	41.463
700.91	42.128
701.09	43.047
701.28	43.257
701.46	43.265
701.64	42.859
701.83	43.994
702.01	44.297
702.20	43.959
702.38	44.959
702.56	46.002
702.75	44.759
702.93	45.498
703.11	45.587
703.30	45.608
703.48	45.385
703.66	47.104
703.85	44.975
704.03	47.092
704.21	47.105
704.40	47.878
704.58	45.740
704.76	47.426
704.95	47.752
705.13	48.107
705.31	46.400
705.50	46.954
705.68	46.102
705.86	48.795
706.04	48.010
706.23	50.534
706.41	47.247
706.59	49.237
706.78	47.423
706.96	48.642
707.14	48.788
707.33	49.682
707.51	49.099
707.69	49.507
707.88	47.747
708.06	49.514
708.24	50.061
708.42	51.253
708.61	48.346
708.79	49.192
708.97	50.058
709.16	49.756
709.34	52.253
709.52	50.922
709.71	50.777
709.89	50.308
710.07	48.651
710.25	50.419
710.44	48.713
710.62	51.223
710.80	50.629
710.98	50.278
711.17	50.350
711.35	51.989
711.53	51.119
711.72	52.570
711.90	50.429
712.08	50.222
712.26	50.617
712.45	50.730
712.63	49.626
712.81	50.193
712.99	50.317
713.18	50.979
713.36	49.409
713.54	52.606
713.72	49.533
713.91	51.595
714.09	49.491
714.27	50.726
714.45	49.992
714.64	52.236
714.82	51.096
715.00	51.123
715.18	50.638
715.37	51.221
715.55	51.129
715.73	53.464
715.91	52.415
716.10	50.000
716.28	50.314
716.46	52.812
716.64	51.011
716.83	52.206
717.01	50.964
717.19	50.266
717.37	50.016
717.55	52.629
717.74	49.352
717.92	51.579
718.10	49.600
718.28	51.525
718.47	50.631
718.65	51.504
718.83	51.433
719.01	51.152
719.19	51.550
719.38	55.022
719.56	53.225
719.74	51.474
719.92	49.306
720.10	52.112
720.29	50.735
720.47	52.624
720.65	50.692
720.83	52.048
721.01	51.062
721.20	52.801
721.38	52.513
721.56	54.246
721.74	54.060
721.92	53.102
722.11	53.468
722.29	53.797
722.47	52.751
722.65	56.583
722.83	55.162
723.01	53.920
723.20	52.457
723.38	54.194
723.56	50.056
723.74	55.810
723.92	51.651
724.10	52.148
724.29	53.087
724.47	53.284
724.65	56.191
724.83	54.653
725.01	48.710
725.19	54.535
725.38	53.873
725.56	52.723
725.74	54.195
725.92	56.386
726.10	56.518
726.28	54.926
726.46	51.301
726.65	54.694
726.83	51.787
727.01	54.689
727.19	53.527
727.37	52.935
727.55	54.156
727.73	54.544
727.92	54.632
728.10	54.441
728.28	51.192
728.46	53.680
728.64	53.342
728.82	53.860
729.00	55.471
729.19	55.249
729.37	52.296
729.55	52.768
729.73	52.533
729.91	55.799
730.09	54.298
730.27	54.682
730.45	53.953
730.63	55.894
730.82	54.061
731.00	53.036
731.18	54.193
731.36	56.684
731.54	53.122
731.72	55.127
731.90	55.594
732.08	57.504
732.26	56.289
732.45	54.803
732.63	54.232
732.81	54.456
732.99	53.061
733.17	54.925
733.35	53.574
733.53	56.416
733.71	54.508
733.89	55.797
734.07	56.079
734.25	54.916
734.44	53.930
734.62	55.502
734.80	53.838
734.98	56.890
735.16	54.608
735.34	57.956
735.52	56.142
735.70	57.626
735.88	58.637
736.06	56.930
736.24	59.732
736.42	56.807
736.60	57.215
736.78	58.361
736.97	56.631
737.15	58.202
737.33	55.284
737.51	59.517
737.69	58.518
737.87	61.026
738.05	58.250
738.23	60.103
738.41	55.758
738.59	61.680
738.77	59.203
738.95	60.122
739.13	56.650
739.31	58.481
739.49	60.229
739.67	59.921
739.85	57.256
740.03	59.517
740.21	59.510
740.39	58.900
740.57	59.685
740.75	58.969
740.93	58.470
741.11	59.465
741.30	60.937
741.48	60.847
741.66	59.968
741.84	58.042
742.02	58.383
742.20	57.241
742.38	58.443
742.56	60.285
742.74	57.575
742.92	58.441
743.10	57.163
743.28	63.698
743.46	60.654
743.64	56.922
743.82	59.674
744.00	60.846
744.18	62.489
744.36	61.619
744.54	62.367
744.72	64.014
744.90	63.428
745.08	63.767
745.26	63.204
745.44	61.587
745.62	61.162
745.80	62.319
745.98	61.996
746.16	66.801
746.34	63.601
746.52	62.411
746.70	61.170
746.87	61.488
747.05	61.835
747.23	61.733
747.41	61.823
747.59	65.201
747.77	62.775
747.95	60.617
748.13	63.213
748.31	63.834
748.49	60.356
748.67	63.996
748.85	58.805
749.03	62.319
749.21	61.261
749.39	64.408
749.57	60.567
749.75	61.417
749.93	64.863
750.11	62.384
750.29	60.935
750.47	63.426
750.65	60.459
750.83	62.564
751.01	60.483
751.18	62.829
751.36	60.556
751.54	63.748
751.72	63.416
751.90	63.209
752.08	60.087
752.26	62.985
752.44	60.018
752.62	63.595
752.80	62.775
752.98	61.289
753.16	62.706
753.34	63.295
753.52	64.341
753.69	64.363
753.87	63.775
754.05	64.437
754.23	62.300
754.41	60.574
754.59	62.129
754.77	63.533
754.95	61.847
755.13	65.164
755.31	61.387
755.49	61.522
755.66	61.844
755.84	62.075
756.02	61.835
756.20	65.084
756.38	61.478
756.56	64.008
756.74	60.712
756.92	59.564
757.10	58.499
757.28	65.222
757.45	67.568
757.63	66.827
757.81	60.947
757.99	69.354
758.17	62.262
758.35	63.616
758.53	62.158
758.71	63.835
758.88	62.921
759.06	60.632
759.24	57.782
759.42	60.884
759.60	58.268
759.78	60.575
759.96	60.457
760.13	59.370
760.31	55.162
760.49	54.561
760.67	54.020
760.85	56.661
761.03	53.493
761.21	50.802
761.38	53.301
761.56	54.282
761.74	51.524
761.92	53.801
762.10	51.392
762.28	55.065
762.46	51.692
762.63	54.528
762.81	55.383
762.99	54.917
763.17	56.192
763.35	55.144
763.53	54.663
763.70	55.514
763.88	54.302
764.06	55.157
764.24	53.655
764.42	53.447
764.60	52.158
764.77	52.859
764.95	52.593
765.13	54.067
765.31	56.274
765.49	54.738
765.66	55.338
765.84	57.405
766.02	53.886
766.20	58.119
766.38	55.464
766.56	56.974
766.73	56.824
766.91	59.112
767.09	60.890
767.27	61.009
767.45	57.740
767.62	60.771
767.80	56.592
767.98	61.524
768.16	57.962
768.33	62.348
768.51	62.110
768.69	60.879
768.87	58.854
769.05	63.119
769.22	63.518
769.40	66.547
769.58	65.591
769.76	66.173
769.94	66.630
770.11	64.077
770.29	60.111
770.47	62.650
770.65	63.302
770.82	65.790
771.00	64.392
771.18	68.623
771.36	65.793
771.53	65.710
771.71	65.411
771.89	65.050
772.07	63.269
772.25	65.904
772.42	65.768
772.60	67.036
772.78	59.351
772.96	68.199
773.13	67.835
773.31	69.416
773.49	66.952
773.67	67.132
773.84	67.934
774.02	66.394
774.20	65.428
774.37	65.323
774.55	69.384
774.73	69.284
774.91	67.299
775.08	67.294
775.26	67.990
775.44	68.188
775.62	70.563
775.79	64.065
775.97	71.243
776.15	65.154
776.32	61.750
776.50	70.489
776.68	77.301
776.86	72.230
777.03	61.278
777.21	69.000
777.39	63.796
777.56	68.035
777.74	66.748
777.92	64.165
778.10	66.977
778.27	72.373
778.45	69.762
778.63	69.416
778.80	66.145
778.98	68.093
779.16	67.728
779.34	68.380
779.51	70.541
779.69	64.673
779.87	64.317
780.04	65.927
780.22	67.413
780.40	66.144
780.57	66.845
780.75	66.764
780.93	67.186
781.10	64.723
781.28	71.135
781.46	67.339
781.63	66.390
781.81	71.818
781.99	62.161
782.16	69.961
782.34	66.482
782.52	68.733
782.69	65.329
782.87	71.429
783.05	64.561
783.22	71.725
783.40	67.004
783.58	68.232
783.75	61.443
783.93	67.525
784.11	64.337
784.28	69.161
784.46	68.830
784.64	69.115
784.81	67.070
784.99	69.920
785.17	61.329
785.34	67.968
785.52	64.900
785.69	69.394
785.87	63.989
786.05	68.695
786.22	66.812
786.40	73.498
786.58	64.548
786.75	69.690
786.93	67.514
787.11	67.373
787.28	70.269
787.46	72.210
787.63	68.847
787.81	70.068
787.99	64.540
788.16	60.441
788.34	63.973
788.51	65.245
788.69	57.951
788.87	64.344
789.04	62.204
789.22	62.872
789.39	63.351
789.57	63.476
789.75	62.494
789.92	64.745
790.10	58.879
790.27	62.512
790.45	63.325
790.63	63.225
790.80	57.781
790.98	62.911
791.15	63.655
791.33	65.180
791.51	58.496
791.68	63.377
791.86	60.109
792.03	63.682
792.21	61.834
792.39	63.098
792.56	58.727
792.74	65.604
792.91	63.902
793.09	63.930
793.26	58.553
793.44	63.145
793.62	68.789
793.79	66.759
793.97	61.521
794.14	66.421
794.32	66.418
794.49	63.242
794.67	57.948
794.84	64.153
795.02	66.219
795.20	65.747
795.37	60.404
795.55	67.609
795.72	63.397
795.90	63.894
796.07	64.407
796.25	64.644
796.42	63.723
796.60	62.934
796.77	59.978
796.95	61.543
797.13	58.837
797.30	68.223
797.48	59.649
797.65	64.535
797.83	58.743
798.00	61.818
798.18	57.703
798.35	64.224
798.53	65.047
798.70	63.152
798.88	60.285
799.05	67.019
799.23	65.869
799.40	59.494
799.58	63.269
799.75	65.517
799.93	59.846
800.10	66.290
800.28	61.511
800.45	72.189
800.63	60.393
800.80	65.362
800.98	63.104
801.15	62.375
801.33	63.533
801.50	68.185
801.68	59.476
801.85	58.955
802.03	59.006
802.20	67.442
802.38	65.375
802.55	62.690
802.73	63.865
802.90	66.249
803.08	59.114
803.25	68.927
803.43	65.730
803.60	65.852
803.78	65.625
803.95	68.350
804.13	66.510
804.30	64.091
804.48	61.881
804.65	64.339
804.83	65.811
805.00	64.286
805.17	66.253
805.35	70.355
805.52	62.664
805.70	66.122
805.87	65.755
806.05	65.420
806.22	58.283
806.40	63.490
806.57	66.352
806.75	71.058
806.92	64.885
807.09	63.324
807.27	63.208
807.44	63.548
807.62	64.516
807.79	67.022
807.97	60.334
808.14	64.243
808.31	59.124
808.49	62.157
808.66	57.201
808.84	62.806
809.01	64.454
809.19	61.046
809.36	69.155
809.53	64.399
809.71	60.261
809.88	68.635
810.06	72.303
810.23	67.944
810.41	66.921
810.58	66.190
810.75	60.633
810.93	65.385
811.10	64.159
811.28	61.653
811.45	73.236
811.62	62.491
811.80	64.506
811.97	73.844
812.15	71.255
812.32	57.466
812.49	62.150
812.67	66.488
812.84	61.683
813.02	61.573
813.19	57.612
813.36	57.594
813.54	65.584
813.71	67.597
813.89	58.295
814.06	67.391
814.23	62.793
814.41	55.681
814.58	58.832
814.75	60.586
814.93	64.676
815.10	65.430
815.28	61.658
815.45	57.502
815.62	61.736
815.80	58.320
815.97	54.959
816.14	60.339
816.32	56.965
816.49	58.983
816.66	63.125
816.84	61.015
817.01	65.411
817.18	59.889
817.36	56.967
817.53	57.524
817.71	50.874
817.88	55.421
818.05	55.261
818.23	60.279
818.40	54.766
818.57	58.041
818.75	57.660
818.92	49.929
819.09	53.425
819.27	54.856
819.44	56.336
819.61	56.778
819.79	53.650
819.96	63.700
820.13	53.203
820.31	58.213
820.48	58.498
820.65	52.539
820.82	53.456
821.00	56.777
821.17	51.835
821.34	52.938
821.52	53.318
821.69	54.399
821.86	49.965
822.04	53.933
822.21	50.300
822.38	55.278
822.56	52.107
822.73	53.449
822.90	50.585
823.07	51.430
823.25	52.496
823.42	50.128
823.59	50.426
823.77	50.682
823.94	49.944
824.11	50.362
824.29	49.804
824.46	51.378
824.63	50.407
824.80	51.144
824.98	51.214
825.15	51.451
825.32	49.021
825.49	52.405
825.67	50.898
825.84	54.473
826.01	49.538
826.19	53.353
826.36	49.742
826.53	54.360
826.70	51.114
826.88	54.708
827.05	51.017
827.22	51.515
827.39	53.082
827.57	50.942
827.74	49.100
827.91	52.894
828.08	49.486
828.26	51.942
828.43	49.820
828.60	50.741
828.77	50.510
828.95	51.692
829.12	49.116
829.29	47.117
829.46	51.206
829.64	51.196
829.81	50.140
829.98	52.525
830.15	48.315
830.32	54.506
830.50	50.266
830.67	52.022
830.84	48.262
831.01	44.702
831.19	46.136
831.36	48.301
831.53	55.931
831.70	57.039
831.87	54.089
832.05	57.433
832.22	60.245
832.39	51.045
832.56	53.045
832.74	60.098
832.91	52.982
833.08	64.365
833.25	45.810
833.42	47.607
833.60	51.429
833.77	46.337
833.94	41.742
834.11	53.327
834.28	46.060
834.45	53.768
834.63	47.039
834.80	51.628
834.97	47.687
835.14	55.172
835.31	49.179
835.49	49.444
835.66	49.632
835.83	49.962
836.00	49.904
836.17	51.713
836.34	49.524
836.52	49.436
836.69	55.139
836.86	52.406
837.03	56.441
837.20	54.403
837.37	53.598
837.55	47.099
837.72	47.436
837.89	53.914
838.06	58.170
838.23	64.381
838.40	63.720
838.58	58.475
838.75	59.557
838.92	61.035
839.09	69.538
839.26	63.439
839.43	66.738
839.60	73.326
839.78	69.183
839.95	75.716
840.12	57.486
840.29	70.877
840.46	69.482
840.63	71.615
840.80	62.546
840.98	65.854
841.15	60.401
841.32	61.122
841.49	49.229
841.66	64.766
841.83	53.482
842.00	55.774
842.17	72.543
842.34	52.539
842.52	68.987
842.69	65.006
842.86	66.238
843.03	76.761
843.20	68.679
843.37	67.807
843.54	75.862
843.71	81.794
843.88	73.713
844.06	87.778
844.23	71.925
844.40	77.259
844.57	92.236
844.74	86.949
844.91	79.601
845.08	85.084
845.25	87.899
845.42	74.410
845.59	102.317
845.76	69.982
845.94	91.135
846.11	85.067
846.28	92.203
846.45	94.073
846.62	98.039
846.79	85.227
846.96	93.449
847.13	96.015
847.30	89.146
847.47	75.560
847.64	93.124
847.81	80.906
847.98	105.809
848.15	80.421
848.32	96.958
848.50	95.455
848.67	68.007
848.84	87.854
849.01	93.089
849.18	96.319
849.35	106.917
849.52	100.594
849.69	83.759
849.86	127.376
850.03	105.152
850.20	86.116
850.37	81.106
850.54	86.990
850.71	111.086
850.88	82.988
851.05	95.625
851.22	99.223
851.39	86.907
851.56	96.095
851.73	98.824
851.90	104.358
852.07	84.892
852.24	86.888
852.41	98.287
852.58	91.429
852.75	88.372
852.92	88.934
853.09	119.663
853.26	105.263
853.43	99.556
853.60	82.328
853.77	92.541
853.94	98.357
854.11	101.160
854.28	129.756
854.45	85.778
854.62	110.130
854.79	82.301
854.96	108.673
855.13	102.552
855.30	126.250
855.47	121.429
855.64	77.060
855.81	94.498
855.98	128.184
856.15	84.553
856.32	73.069
856.49	100.709
856.66	105.399
856.83	105.172
857.00	90.586
857.17	106.029
857.34	94.079
857.51	92.967
857.68	103.580
857.85	130.847
858.02	121.760
858.19	95.161
858.36	104.444
858.53	101.071
858.70	94.737
858.87	123.333
859.04	90.498
859.21	94.397
859.38	93.125
859.55	123.844
859.72	114.740
859.89	133.819
860.05	97.304
860.22	119.474
860.39	115.193
860.56	96.465
860.73	92.601
860.90	96.119
861.07	124.886
861.24	97.025
861.41	113.492
861.58	109.176
861.75	113.604
861.92	92.560
862.09	126.076
862.26	96.454
862.43	100.275
862.59	102.315
862.76	80.679
862.93	116.216
863.10	89.499
863.27	116.814
863.44	97.304
863.61	93.636
863.78	125.075
863.95	97.150
864.12	133.022
864.29	138.298
864.45	108.312
864.62	92.932
864.79	101.238
864.96	97.767
865.13	93.792
865.30	121.429
865.47	134.262
865.64	111.321
865.81	115.978
865.97	89.209
866.14	102.227
866.31	76.056
866.48	96.537
866.65	97.396
866.82	106.954
866.99	125.066
867.16	101.047
867.33	103.765
867.49	92.665
867.66	102.169
867.83	92.731
868.00	77.672
868.17	113.793
868.34	120.536
868.51	79.952
868.67	94.550
868.84	90.345
869.01	117.742
869.18	105.610
869.35	96.689
869.52	91.250
869.69	126.220
869.85	90.370
870.02	101.942
870.19	105.981
870.36	113.492
870.53	83.683
870.70	110.426
870.86	105.959
871.03	97.680
871.20	92.079
871.37	118.568
871.54	102.174
871.71	91.262
871.87	99.185
872.04	112.541
872.21	91.611
872.38	102.934
872.55	118.734
872.72	92.342
872.88	124.789
873.05	89.863
873.22	96.957
873.39	98.582
873.56	78.588
873.72	101.442
873.89	114.826
874.06	90.206
874.23	102.618
874.40	96.532
874.56	75.052
874.73	100.000
874.90	103.476
875.07	70.742
875.24	96.659
875.40	85.393
875.57	97.273
875.74	101.707
875.91	128.997
876.08	87.885
876.24	107.025
876.41	113.706
876.58	93.317
876.75	117.906
876.92	76.786
877.08	82.031
877.25	86.598
877.42	92.276
877.59	127.523
877.75	106.721
877.92	68.251
878.09	108.121
878.26	104.618
878.42	79.787
878.59	104.425
878.76	80.632
878.93	102.715
879.09	89.301
879.26	99.034
879.43	88.539
879.60	85.822
879.76	80.249
879.93	90.842
880.10	81.860
880.27	64.583
880.43	84.244
880.60	68.182
880.77	66.000
880.94	54.931
881.10	53.737
881.27	57.244
881.44	39.437
881.61	56.656
881.77	49.058
881.94	44.410
882.11	39.823
882.28	38.044
882.44	44.339
882.61	47.887
882.78	44.509
882.94	51.020
883.11	43.883
883.28	48.972
883.45	46.806
883.61	42.990
883.78	42.821
883.95	49.128
884.11	42.643
884.28	46.865
>>>>>End Processed Spectral Data<<<<<
