SpectraSuite Data File
++++++++++++++++++++++++++++++++++++
Date: Mon Sep 23 04:43:54 EST 2019
User: sgrac
Dark Spectrum Present: Yes
Reference Spectrum Present: Yes
Number of Sampled Component Spectra: 1
Spectrometers: USB4E01596
Integration Time (usec): 100000 (USB4E01596)
Spectra Averaged: 3 (USB4E01596)
Boxcar Smoothing: 0 (USB4E01596)
Correct for Electrical Dark: No (USB4E01596)
Strobe/Lamp Enabled: Yes (USB4E01596)
Correct for Detector Non-linearity: No (USB4E01596)
Correct for Stray Light: No (USB4E01596)
Number of Pixels in Processed Spectrum: 3648
>>>>>Begin Processed Spectral Data<<<<<
178.44	1492.308
178.66	1492.308
178.87	1492.308
179.09	10666.667
179.30	-6225.000
179.52	-709.677
179.74	-581.132
179.95	843.182
180.17	-647.222
180.38	547.368
180.60	-2681.818
180.82	864.444
181.03	5200.000
181.25	-2908.333
181.46	-1360.000
181.68	1495.833
181.89	-788.636
182.11	-2175.000
182.33	-2393.750
182.54	789.583
182.76	4883.333
182.97	-744.681
183.19	1715.000
183.40	337.190
183.62	434.615
183.84	369.091
184.05	5600.000
184.27	477.273
184.48	496.970
184.70	2064.706
184.91	1476.190
185.13	3030.000
185.34	-15050.000
185.56	1153.846
185.78	490.278
185.99	1108.333
186.21	451.136
186.42	-8150.000
186.64	2940.000
186.85	-5440.000
187.07	464.000
187.28	469.737
187.50	532.727
187.72	338.462
187.93	878.182
188.15	439.583
188.36	440.789
188.58	759.184
188.79	363.462
189.01	509.859
189.22	1000.000
189.44	-809.091
189.65	356.780
189.87	-7250.000
190.09	563.492
190.30	852.381
190.52	545.000
190.73	760.870
190.95	-4450.000
191.16	395.238
191.38	497.297
191.59	527.941
191.81	572.581
192.02	1893.333
192.24	1125.000
192.45	1135.294
192.67	-2012.500
192.88	567.925
193.10	547.541
193.31	842.500
193.53	304.839
193.74	448.000
193.96	2485.714
194.18	1250.000
194.39	2186.667
194.61	501.370
194.82	1550.000
195.04	386.585
195.25	-482.456
195.47	-525.926
195.68	4866.667
195.90	536.364
196.11	362.687
196.33	28400.000
196.54	831.707
196.76	2307.143
196.97	457.143
197.19	1002.703
197.40	2150.000
197.62	281.651
197.83	1038.710
198.05	683.636
198.26	1086.207
198.48	497.183
198.69	493.333
198.91	1600.000
199.12	809.302
199.34	654.348
199.55	477.143
199.77	2236.842
199.98	885.294
200.20	439.474
200.41	575.806
200.63	346.903
200.84	2207.143
201.06	3833.333
201.27	929.268
201.49	504.225
201.70	-943.333
201.91	520.833
202.13	559.322
202.34	455.172
202.56	-1276.000
202.77	620.000
202.99	5583.333
203.20	-3812.500
203.42	2306.250
203.63	450.000
203.85	5350.000
204.06	618.000
204.28	364.646
204.49	579.630
204.71	547.458
204.92	1261.538
205.14	0.000
205.35	940.000
205.56	-1790.000
205.78	7540.000
205.99	-1914.286
206.21	16200.000
206.42	745.455
206.64	1222.581
206.85	944.444
207.07	-3011.111
207.28	468.966
207.50	702.174
207.71	983.871
207.93	304.819
208.14	-1085.185
208.35	496.364
208.57	1492.000
208.78	-3800.000
209.00	360.638
209.21	-17100.000
209.43	-9366.667
209.64	-2093.333
209.86	304.124
210.07	466.279
210.28	502.817
210.50	1220.690
210.71	558.824
210.93	271.324
211.14	474.157
211.36	2018.750
211.57	409.091
211.78	465.714
212.00	451.765
212.21	468.571
212.43	884.615
212.64	432.979
212.86	495.946
213.07	358.716
213.29	-719.444
213.50	377.174
213.71	355.172
213.93	530.488
214.14	2609.091
214.36	467.647
214.57	422.785
214.78	793.333
215.00	302.083
215.21	1153.333
215.43	794.595
215.64	465.079
215.86	408.750
216.07	740.000
216.28	871.053
216.50	369.167
216.71	28600.000
216.93	648.485
217.14	1905.556
217.35	271.970
217.57	345.946
217.78	420.988
218.00	282.828
218.21	1117.391
218.42	785.106
218.64	564.286
218.85	688.000
219.07	1625.000
219.28	328.972
219.49	623.529
219.71	516.923
219.92	234.328
220.14	403.093
220.35	542.667
220.56	383.908
220.78	330.769
220.99	289.516
221.21	253.763
221.42	386.420
221.63	227.746
221.85	520.000
222.06	408.571
222.28	373.846
222.49	309.009
222.70	296.850
222.92	824.490
223.13	419.672
223.34	253.901
223.56	421.429
223.77	378.750
223.99	355.789
224.20	596.429
224.41	356.164
224.63	398.864
224.84	239.865
225.05	161.538
225.27	228.696
225.48	321.569
225.69	273.684
225.91	401.351
226.12	273.643
226.34	229.530
226.55	174.820
226.76	218.750
226.98	160.784
227.19	142.578
227.40	248.437
227.62	186.772
227.83	168.240
228.04	106.983
228.26	87.918
228.47	84.986
228.69	73.858
228.90	47.761
229.11	60.307
229.33	55.329
229.54	47.104
229.75	54.043
229.97	40.915
230.18	52.809
230.39	43.031
230.61	44.710
230.82	50.659
231.03	39.695
231.25	39.586
231.46	53.281
231.67	51.638
231.89	53.760
232.10	54.443
232.31	64.386
232.53	61.290
232.74	72.523
232.95	54.991
233.17	63.200
233.38	61.134
233.59	65.863
233.81	76.630
234.02	73.347
234.23	68.085
234.45	70.660
234.66	73.673
234.87	65.984
235.09	71.383
235.30	58.669
235.51	62.278
235.73	64.193
235.94	55.152
236.15	61.054
236.36	40.000
236.58	52.574
236.79	50.000
237.00	58.504
237.22	61.395
237.43	56.869
237.64	53.228
237.86	55.075
238.07	71.306
238.28	61.935
238.50	59.628
238.71	53.058
238.92	62.813
239.13	53.898
239.35	51.944
239.56	47.527
239.77	65.463
239.99	44.852
240.20	62.327
240.41	56.671
240.63	49.461
240.84	40.299
241.05	38.815
241.26	41.003
241.48	34.858
241.69	32.797
241.90	29.196
242.12	25.478
242.33	28.221
242.54	24.709
242.75	24.136
242.97	27.693
243.18	21.186
243.39	19.835
243.61	26.325
243.82	22.736
244.03	22.432
244.24	22.262
244.46	22.738
244.67	24.360
244.88	23.810
245.09	26.721
245.31	30.533
245.52	24.834
245.73	23.096
245.95	45.224
246.16	27.056
246.37	24.136
246.58	25.194
246.80	20.190
247.01	23.767
247.22	20.193
247.43	20.120
247.65	19.620
247.86	21.128
248.07	14.289
248.28	17.788
248.50	20.676
248.71	16.229
248.92	17.147
249.13	16.887
249.35	18.742
249.56	18.890
249.77	18.792
249.98	19.095
250.20	23.490
250.41	24.164
250.62	22.365
250.83	23.374
251.05	23.110
251.26	20.227
251.47	24.425
251.68	23.490
251.90	24.473
252.11	24.453
252.32	23.921
252.53	22.294
252.75	20.277
252.96	23.364
253.17	21.591
253.38	21.775
253.59	20.375
253.81	19.770
254.02	20.438
254.23	23.222
254.44	18.357
254.66	21.913
254.87	24.972
255.08	22.987
255.29	22.362
255.50	21.166
255.72	25.286
255.93	29.148
256.14	32.126
256.35	29.661
256.57	37.034
256.78	26.779
256.99	25.450
257.20	33.530
257.41	26.877
257.63	29.223
257.84	27.187
258.05	22.487
258.26	24.486
258.47	20.490
258.69	20.219
258.90	16.157
259.11	19.345
259.32	19.532
259.53	17.651
259.75	16.544
259.96	14.916
260.17	13.858
260.38	12.894
260.59	15.204
260.81	14.413
261.02	15.498
261.23	15.175
261.44	15.684
261.65	16.431
261.87	13.579
262.08	16.186
262.29	15.034
262.50	16.598
262.71	12.576
262.92	17.678
263.14	13.908
263.35	15.650
263.56	16.667
263.77	18.644
263.98	18.425
264.20	18.534
264.41	18.604
264.62	15.806
264.83	17.677
265.04	22.317
265.25	20.964
265.47	20.407
265.68	24.312
265.89	20.027
266.10	11.941
266.31	26.377
266.52	17.491
266.74	15.731
266.95	17.508
267.16	17.729
267.37	18.757
267.58	14.335
267.79	16.684
268.01	14.315
268.22	16.449
268.43	16.958
268.64	18.176
268.85	14.552
269.06	14.983
269.27	18.446
269.49	15.327
269.70	15.256
269.91	15.593
270.12	15.639
270.33	19.218
270.54	12.042
270.75	14.447
270.97	15.918
271.18	15.207
271.39	15.397
271.60	15.650
271.81	15.451
272.02	13.581
272.23	16.473
272.45	14.362
272.66	12.565
272.87	15.180
273.08	13.632
273.29	16.549
273.50	13.580
273.71	13.449
273.92	12.747
274.14	13.322
274.35	15.510
274.56	13.288
274.77	14.836
274.98	15.092
275.19	15.191
275.40	15.249
275.61	15.524
275.83	17.312
276.04	15.444
276.25	18.056
276.46	16.215
276.67	18.141
276.88	16.238
277.09	13.611
277.30	17.979
277.51	18.250
277.73	12.893
277.94	14.461
278.15	19.256
278.36	15.826
278.57	13.167
278.78	14.389
278.99	14.982
279.20	16.859
279.41	18.897
279.62	14.120
279.84	15.033
280.05	15.875
280.26	13.620
280.47	14.250
280.68	14.216
280.89	14.078
281.10	14.792
281.31	15.191
281.52	18.390
281.73	11.492
281.94	12.676
282.16	14.011
282.37	12.015
282.58	12.793
282.79	19.454
283.00	18.593
283.21	11.658
283.42	13.527
283.63	15.174
283.84	11.922
284.05	14.023
284.26	13.322
284.47	13.510
284.68	14.161
284.89	14.354
285.11	13.296
285.32	11.694
285.53	15.559
285.74	15.969
285.95	13.691
286.16	13.998
286.37	12.254
286.58	13.014
286.79	11.468
287.00	11.872
287.21	11.625
287.42	13.294
287.63	12.872
287.84	13.983
288.05	14.553
288.26	12.629
288.48	14.615
288.69	11.349
288.90	13.823
289.11	15.974
289.32	14.994
289.53	14.708
289.74	11.280
289.95	13.582
290.16	13.868
290.37	12.159
290.58	12.083
290.79	10.806
291.00	11.619
291.21	12.000
291.42	9.850
291.63	13.258
291.84	15.115
292.05	10.693
292.26	12.365
292.47	13.030
292.68	10.861
292.89	13.040
293.10	15.217
293.31	12.133
293.52	10.909
293.73	12.489
293.94	13.721
294.15	10.774
294.36	13.957
294.57	13.437
294.79	12.039
295.00	8.558
295.21	14.505
295.42	12.454
295.63	13.390
295.84	11.324
296.05	9.147
296.26	10.687
296.47	11.437
296.68	11.855
296.89	15.585
297.10	12.038
297.31	12.417
297.52	8.969
297.73	12.765
297.94	11.306
298.15	10.895
298.36	11.095
298.57	10.809
298.78	13.174
298.99	10.884
299.20	13.308
299.41	11.853
299.62	12.080
299.83	9.135
300.04	11.688
300.25	12.799
300.46	14.308
300.67	13.312
300.88	12.505
301.09	10.106
301.30	12.180
301.50	11.401
301.71	14.034
301.92	13.923
302.13	11.241
302.34	10.745
302.55	10.264
302.76	9.931
302.97	12.009
303.18	13.187
303.39	8.911
303.60	9.454
303.81	13.146
304.02	7.884
304.23	11.625
304.44	9.937
304.65	10.775
304.86	11.665
305.07	9.628
305.28	9.134
305.49	12.457
305.70	12.934
305.91	10.956
306.12	10.871
306.33	10.169
306.54	10.124
306.75	9.923
306.96	15.634
307.17	11.836
307.38	10.482
307.58	9.918
307.79	10.831
308.00	9.828
308.21	10.520
308.42	9.963
308.63	10.126
308.84	9.704
309.05	10.208
309.26	8.127
309.47	11.505
309.68	10.180
309.89	10.362
310.10	10.032
310.31	9.836
310.52	8.896
310.73	12.903
310.94	7.312
311.14	9.113
311.35	9.458
311.56	10.216
311.77	8.373
311.98	7.916
312.19	9.368
312.40	8.031
312.61	7.874
312.82	9.557
313.03	8.361
313.24	9.938
313.45	10.073
313.66	8.444
313.86	10.545
314.07	8.681
314.28	10.723
314.49	9.495
314.70	10.653
314.91	11.111
315.12	9.198
315.33	12.459
315.54	8.247
315.75	7.933
315.96	8.295
316.16	8.821
316.37	10.173
316.58	9.202
316.79	9.720
317.00	9.586
317.21	8.698
317.42	9.568
317.63	9.563
317.84	8.608
318.05	8.596
318.25	10.194
318.46	8.019
318.67	8.911
318.88	10.593
319.09	11.778
319.30	8.170
319.51	9.597
319.72	11.391
319.93	8.485
320.13	9.685
320.34	11.640
320.55	10.832
320.76	11.408
320.97	11.136
321.18	10.792
321.39	8.320
321.60	9.806
321.80	12.175
322.01	9.151
322.22	9.002
322.43	7.577
322.64	8.507
322.85	10.234
323.06	10.554
323.27	10.175
323.47	10.706
323.68	9.790
323.89	9.621
324.10	10.574
324.31	8.714
324.52	10.558
324.73	10.465
324.93	10.028
325.14	9.494
325.35	10.663
325.56	7.963
325.77	9.295
325.98	10.328
326.19	10.294
326.39	6.326
326.60	9.394
326.81	7.611
327.02	6.719
327.23	8.039
327.44	11.314
327.64	6.345
327.85	6.446
328.06	9.977
328.27	13.240
328.48	9.607
328.69	6.302
328.90	7.859
329.10	9.929
329.31	9.396
329.52	10.474
329.73	10.147
329.94	9.602
330.15	9.028
330.35	11.853
330.56	8.809
330.77	9.386
330.98	8.399
331.19	8.947
331.39	9.992
331.60	10.151
331.81	7.509
332.02	9.689
332.23	10.535
332.44	9.653
332.64	9.094
332.85	9.282
333.06	11.105
333.27	7.634
333.48	9.368
333.68	7.839
333.89	8.876
334.10	8.474
334.31	9.538
334.52	9.474
334.72	8.241
334.93	8.612
335.14	6.575
335.35	8.381
335.56	8.963
335.76	8.867
335.97	8.807
336.18	7.896
336.39	10.249
336.60	8.145
336.80	8.048
337.01	7.214
337.22	8.411
337.43	8.619
337.64	11.631
337.84	9.054
338.05	9.161
338.26	10.329
338.47	10.058
338.68	6.389
338.88	8.316
339.09	8.436
339.30	9.873
339.51	9.246
339.71	8.932
339.92	7.661
340.13	10.772
340.34	9.292
340.55	9.028
340.75	10.326
340.96	7.666
341.17	9.784
341.38	7.828
341.58	8.540
341.79	7.948
342.00	7.483
342.21	7.932
342.41	7.350
342.62	7.991
342.83	9.228
343.04	5.858
343.24	8.319
343.45	8.396
343.66	6.821
343.87	8.158
344.07	6.201
344.28	8.346
344.49	9.089
344.70	9.195
344.90	7.359
345.11	7.147
345.32	7.785
345.53	7.432
345.73	9.253
345.94	9.251
346.15	9.507
346.36	6.721
346.56	8.046
346.77	9.006
346.98	7.226
347.19	8.467
347.39	7.484
347.60	8.421
347.81	8.831
348.02	9.511
348.22	7.051
348.43	8.644
348.64	7.512
348.84	9.735
349.05	9.735
349.26	11.151
349.47	7.491
349.67	8.622
349.88	10.094
350.09	9.615
350.30	10.764
350.50	9.473
350.71	10.348
350.92	9.443
351.12	10.195
351.33	8.514
351.54	8.410
351.74	9.430
351.95	8.939
352.16	12.087
352.37	10.336
352.57	10.290
352.78	9.851
352.99	11.754
353.19	10.464
353.40	10.967
353.61	13.567
353.82	12.908
354.02	14.180
354.23	13.481
354.44	15.619
354.64	13.794
354.85	14.483
355.06	13.625
355.26	12.164
355.47	14.288
355.68	15.477
355.88	16.813
356.09	16.403
356.30	16.208
356.51	18.696
356.71	17.611
356.92	15.565
357.13	19.570
357.33	20.560
357.54	19.496
357.75	16.275
357.95	20.850
358.16	18.467
358.37	21.791
358.57	19.876
358.78	23.430
358.99	20.258
359.19	22.071
359.40	23.747
359.61	23.686
359.81	23.996
360.02	25.994
360.23	21.535
360.43	24.138
360.64	24.223
360.85	24.968
361.05	24.494
361.26	26.208
361.47	24.759
361.67	27.088
361.88	24.817
362.09	26.978
362.29	24.869
362.50	26.688
362.70	25.498
362.91	28.019
363.12	27.091
363.32	28.876
363.53	28.028
363.74	29.728
363.94	26.061
364.15	30.402
364.36	30.083
364.56	29.197
364.77	30.168
364.98	30.231
365.18	28.772
365.39	29.954
365.59	28.320
365.80	30.624
366.01	30.913
366.21	28.968
366.42	29.077
366.63	30.729
366.83	29.458
367.04	28.338
367.24	31.338
367.45	29.235
367.66	28.461
367.86	31.157
368.07	29.935
368.28	30.943
368.48	29.597
368.69	28.525
368.89	29.082
369.10	30.252
369.31	29.749
369.51	30.639
369.72	31.454
369.92	32.000
370.13	28.822
370.34	31.625
370.54	26.821
370.75	30.872
370.95	28.379
371.16	31.287
371.37	29.722
371.57	29.911
371.78	29.080
371.98	30.269
372.19	30.085
372.40	30.489
372.60	30.753
372.81	30.932
373.01	29.284
373.22	30.338
373.43	30.747
373.63	30.907
373.84	30.221
374.04	31.493
374.25	29.308
374.46	31.098
374.66	29.351
374.87	31.100
375.07	28.727
375.28	29.624
375.48	29.661
375.69	29.682
375.90	27.370
376.10	28.278
376.31	28.961
376.51	28.706
376.72	28.597
376.92	27.837
377.13	29.212
377.34	29.163
377.54	28.733
377.75	30.340
377.95	28.206
378.16	29.818
378.36	28.937
378.57	30.108
378.77	29.488
378.98	30.056
379.19	27.364
379.39	28.771
379.60	28.884
379.80	28.758
380.01	29.461
380.21	28.623
380.42	29.047
380.62	29.402
380.83	27.612
381.04	28.056
381.24	28.191
381.45	28.883
381.65	27.977
381.86	27.924
382.06	29.293
382.27	27.761
382.47	27.349
382.68	28.367
382.88	27.339
383.09	27.130
383.29	28.086
383.50	28.129
383.71	26.847
383.91	28.056
384.12	27.939
384.32	27.853
384.53	27.499
384.73	26.256
384.94	27.118
385.14	26.814
385.35	26.327
385.55	27.516
385.76	26.874
385.96	27.120
386.17	26.549
386.37	27.117
386.58	27.073
386.78	27.451
386.99	25.574
387.19	27.672
387.40	26.177
387.60	28.726
387.81	27.101
388.01	27.679
388.22	26.957
388.42	27.937
388.63	27.585
388.83	28.340
389.04	25.974
389.24	27.042
389.45	26.791
389.65	26.299
389.86	27.113
390.06	26.113
390.27	26.464
390.47	26.395
390.68	25.419
390.88	25.758
391.09	26.590
391.29	27.408
391.50	26.255
391.70	26.144
391.91	25.953
392.11	26.756
392.32	26.459
392.52	26.772
392.73	25.965
392.93	26.698
393.14	26.267
393.34	25.653
393.55	26.678
393.75	27.049
393.95	25.831
394.16	26.746
394.36	26.259
394.57	26.697
394.77	25.481
394.98	25.582
395.18	25.460
395.39	26.490
395.59	25.246
395.80	26.716
396.00	26.366
396.21	26.678
396.41	25.788
396.61	26.583
396.82	25.592
397.02	27.180
397.23	26.151
397.43	26.176
397.64	23.619
397.84	26.400
398.05	23.936
398.25	25.953
398.45	24.996
398.66	24.819
398.86	25.462
399.07	25.616
399.27	25.117
399.48	25.762
399.68	24.495
399.89	23.394
400.09	25.008
400.29	24.434
400.50	23.999
400.70	24.733
400.91	23.865
401.11	25.364
401.32	25.542
401.52	24.259
401.72	24.936
401.93	25.165
402.13	23.702
402.34	25.124
402.54	23.190
402.75	25.746
402.95	23.687
403.15	24.435
403.36	23.192
403.56	25.098
403.77	23.263
403.97	23.483
404.17	22.812
404.38	24.616
404.58	23.320
404.79	24.375
404.99	23.291
405.19	24.555
405.40	23.527
405.60	23.742
405.81	23.196
406.01	23.120
406.21	22.632
406.42	23.486
406.62	22.911
406.83	23.197
407.03	23.777
407.23	23.463
407.44	22.631
407.64	24.122
407.85	23.470
408.05	23.414
408.25	23.297
408.46	23.987
408.66	22.752
408.87	22.964
409.07	23.274
409.27	22.810
409.48	22.320
409.68	23.264
409.88	21.911
410.09	21.924
410.29	22.638
410.50	23.039
410.70	21.584
410.90	21.887
411.11	22.047
411.31	22.345
411.51	23.303
411.72	22.335
411.92	21.885
412.12	21.546
412.33	22.156
412.53	21.692
412.74	20.252
412.94	21.846
413.14	22.407
413.35	22.205
413.55	22.145
413.75	22.604
413.96	20.938
414.16	22.312
414.36	21.690
414.57	22.504
414.77	21.631
414.97	21.868
415.18	21.183
415.38	21.568
415.58	21.057
415.79	21.127
415.99	20.403
416.19	22.069
416.40	21.025
416.60	20.670
416.80	20.988
417.01	21.283
417.21	19.691
417.41	20.576
417.62	20.978
417.82	21.525
418.02	20.086
418.23	21.003
418.43	20.735
418.63	20.651
418.84	21.057
419.04	20.857
419.24	21.120
419.45	20.096
419.65	20.965
419.85	21.088
420.06	20.425
420.26	20.867
420.46	20.835
420.67	20.677
420.87	20.254
421.07	20.133
421.28	20.478
421.48	20.374
421.68	20.246
421.88	20.156
422.09	20.359
422.29	20.203
422.49	20.029
422.70	20.230
422.90	20.161
423.10	20.696
423.31	20.886
423.51	20.105
423.71	20.540
423.91	20.410
424.12	20.475
424.32	20.477
424.52	20.161
424.73	20.194
424.93	19.718
425.13	20.009
425.33	19.840
425.54	19.920
425.74	20.156
425.94	20.442
426.15	20.990
426.35	20.186
426.55	20.705
426.75	20.711
426.96	20.607
427.16	20.746
427.36	20.893
427.57	21.171
427.77	20.516
427.97	20.604
428.17	20.980
428.38	20.593
428.58	20.176
428.78	21.184
428.98	19.865
429.19	20.349
429.39	20.408
429.59	20.743
429.79	19.952
430.00	19.862
430.20	20.101
430.40	20.552
430.60	20.057
430.81	19.930
431.01	20.271
431.21	20.180
431.41	19.418
431.62	20.469
431.82	19.765
432.02	20.299
432.22	20.084
432.43	20.627
432.63	19.930
432.83	19.998
433.03	19.864
433.24	19.646
433.44	19.309
433.64	19.762
433.84	19.692
434.05	20.016
434.25	19.841
434.45	20.095
434.65	20.017
434.85	19.722
435.06	20.247
435.26	20.314
435.46	20.470
435.66	20.751
435.87	20.430
436.07	20.131
436.27	20.243
436.47	20.565
436.67	20.538
436.88	20.859
437.08	20.025
437.28	20.188
437.48	19.775
437.69	20.378
437.89	20.425
438.09	20.482
438.29	20.073
438.49	20.517
438.70	20.349
438.90	20.217
439.10	19.772
439.30	20.017
439.50	19.746
439.71	20.002
439.91	20.268
440.11	20.352
440.31	19.706
440.51	19.523
440.72	20.041
440.92	19.668
441.12	20.087
441.32	20.346
441.52	20.470
441.72	19.995
441.93	20.216
442.13	20.440
442.33	20.658
442.53	20.877
442.73	20.628
442.94	20.589
443.14	20.884
443.34	20.737
443.54	20.223
443.74	21.147
443.94	20.197
444.15	20.397
444.35	21.214
444.55	20.576
444.75	20.226
444.95	20.165
445.15	20.456
445.36	19.967
445.56	20.088
445.76	20.249
445.96	20.016
446.16	20.311
446.36	20.344
446.57	20.387
446.77	20.239
446.97	20.145
447.17	20.615
447.37	20.759
447.57	20.440
447.77	20.703
447.98	20.724
448.18	20.571
448.38	20.960
448.58	20.936
448.78	21.066
448.98	21.344
449.18	21.003
449.39	21.317
449.59	21.160
449.79	21.345
449.99	21.199
450.19	21.359
450.39	21.417
450.59	20.885
450.79	20.830
451.00	21.060
451.20	22.362
451.40	21.080
451.60	20.800
451.80	20.878
452.00	20.657
452.20	21.410
452.40	20.504
452.61	21.076
452.81	20.694
453.01	20.968
453.21	20.236
453.41	20.600
453.61	20.801
453.81	20.990
454.01	20.960
454.21	20.622
454.42	20.920
454.62	21.039
454.82	21.105
455.02	20.925
455.22	20.592
455.42	21.090
455.62	20.523
455.82	21.336
456.02	21.250
456.23	21.177
456.43	20.188
456.63	20.873
456.83	20.648
457.03	21.090
457.23	20.510
457.43	20.967
457.63	20.184
457.83	21.125
458.03	20.451
458.23	20.321
458.43	20.605
458.64	20.541
458.84	20.612
459.04	20.407
459.24	20.142
459.44	20.045
459.64	19.614
459.84	19.457
460.04	20.260
460.24	19.916
460.44	20.028
460.64	20.198
460.84	20.225
461.04	20.256
461.24	20.690
461.45	20.216
461.65	20.602
461.85	20.797
462.05	20.745
462.25	21.201
462.45	21.287
462.65	20.899
462.85	20.690
463.05	20.767
463.25	20.769
463.45	20.829
463.65	20.596
463.85	20.974
464.05	20.848
464.25	21.036
464.45	20.039
464.65	20.617
464.85	21.155
465.05	20.366
465.26	21.179
465.46	20.721
465.66	20.260
465.86	20.660
466.06	20.903
466.26	20.759
466.46	20.312
466.66	20.959
466.86	20.505
467.06	20.900
467.26	20.594
467.46	20.448
467.66	20.693
467.86	20.216
468.06	20.274
468.26	21.116
468.46	20.346
468.66	21.024
468.86	21.009
469.06	21.123
469.26	21.225
469.46	21.023
469.66	21.021
469.86	21.109
470.06	21.111
470.26	21.572
470.46	20.971
470.66	21.102
470.86	21.262
471.06	21.213
471.26	21.107
471.46	20.744
471.66	21.180
471.86	20.662
472.06	21.277
472.26	21.665
472.46	21.364
472.66	21.622
472.86	21.617
473.06	21.056
473.26	21.796
473.46	21.688
473.66	21.236
473.86	21.101
474.06	21.800
474.26	21.726
474.46	21.196
474.66	22.369
474.86	21.713
475.06	22.507
475.26	22.051
475.46	22.051
475.66	21.881
475.86	22.009
476.06	22.319
476.26	21.541
476.46	22.417
476.66	22.255
476.86	22.069
477.06	22.349
477.26	22.169
477.46	22.071
477.65	22.026
477.85	22.621
478.05	22.639
478.25	23.007
478.45	22.722
478.65	22.469
478.85	22.567
479.05	22.421
479.25	22.978
479.45	22.373
479.65	22.948
479.85	22.786
480.05	22.883
480.25	23.222
480.45	23.140
480.65	23.009
480.85	23.128
481.05	22.838
481.25	23.310
481.44	23.177
481.64	22.540
481.84	22.991
482.04	22.790
482.24	22.835
482.44	22.701
482.64	22.475
482.84	22.404
483.04	22.120
483.24	21.642
483.44	21.662
483.64	21.171
483.84	21.129
484.04	21.489
484.23	21.825
484.43	22.262
484.63	22.611
484.83	23.221
485.03	24.129
485.23	24.034
485.43	24.054
485.63	23.933
485.83	23.912
486.03	23.922
486.23	24.160
486.42	23.976
486.62	23.529
486.82	23.087
487.02	23.046
487.22	22.890
487.42	22.764
487.62	22.426
487.82	22.646
488.02	22.498
488.22	22.674
488.41	22.681
488.61	23.051
488.81	23.101
489.01	23.231
489.21	23.626
489.41	23.590
489.61	23.724
489.81	23.762
490.01	24.177
490.20	24.071
490.40	23.538
490.60	24.007
490.80	23.608
491.00	23.757
491.20	23.158
491.40	22.592
491.60	22.307
491.79	22.837
491.99	22.960
492.19	22.501
492.39	22.937
492.59	23.041
492.79	23.149
492.99	23.227
493.19	23.519
493.38	23.920
493.58	23.841
493.78	24.351
493.98	24.340
494.18	24.231
494.38	24.311
494.58	24.535
494.77	24.235
494.97	24.132
495.17	24.224
495.37	24.287
495.57	24.166
495.77	23.803
495.96	23.668
496.16	24.086
496.36	23.903
496.56	23.402
496.76	23.839
496.96	23.647
497.15	24.232
497.35	23.995
497.55	23.775
497.75	23.905
497.95	24.271
498.15	24.120
498.34	23.996
498.54	23.822
498.74	24.168
498.94	24.126
499.14	24.465
499.34	24.293
499.53	24.302
499.73	23.743
499.93	24.668
500.13	24.577
500.33	24.466
500.52	24.428
500.72	24.835
500.92	24.355
501.12	24.227
501.32	24.499
501.52	24.847
501.71	24.590
501.91	24.718
502.11	25.235
502.31	24.911
502.51	24.726
502.70	24.554
502.90	24.845
503.10	24.859
503.30	25.626
503.50	25.361
503.69	24.598
503.89	25.207
504.09	24.777
504.29	25.132
504.48	25.183
504.68	24.752
504.88	25.127
505.08	24.880
505.28	25.193
505.47	25.605
505.67	25.147
505.87	25.262
506.07	25.034
506.27	25.956
506.46	25.207
506.66	25.563
506.86	25.483
507.06	26.243
507.25	25.910
507.45	25.391
507.65	26.030
507.85	25.842
508.04	25.518
508.24	25.599
508.44	25.738
508.64	25.902
508.83	25.589
509.03	25.491
509.23	25.077
509.43	25.259
509.63	25.680
509.82	25.912
510.02	26.205
510.22	25.340
510.42	26.058
510.61	25.906
510.81	25.648
511.01	26.471
511.21	26.017
511.40	26.292
511.60	25.870
511.80	26.396
511.99	26.042
512.19	26.378
512.39	26.180
512.59	26.165
512.78	26.250
512.98	26.213
513.18	26.276
513.38	26.557
513.57	26.069
513.77	26.326
513.97	26.736
514.17	26.807
514.36	26.819
514.56	26.532
514.76	26.848
514.95	26.622
515.15	26.933
515.35	26.683
515.55	27.041
515.74	27.222
515.94	27.229
516.14	26.622
516.33	27.290
516.53	26.458
516.73	26.979
516.93	27.050
517.12	27.010
517.32	26.658
517.52	26.484
517.71	26.554
517.91	26.521
518.11	26.374
518.30	26.270
518.50	25.895
518.70	26.614
518.90	26.538
519.09	26.554
519.29	26.835
519.49	26.882
519.68	26.694
519.88	26.948
520.08	26.862
520.27	26.953
520.47	27.341
520.67	27.283
520.86	27.496
521.06	27.608
521.26	27.171
521.45	27.854
521.65	27.524
521.85	27.372
522.04	27.737
522.24	27.302
522.44	27.575
522.63	27.427
522.83	27.446
523.03	28.120
523.22	27.755
523.42	28.329
523.62	27.348
523.81	27.537
524.01	27.619
524.21	27.620
524.40	27.836
524.60	27.362
524.80	27.277
524.99	26.968
525.19	27.025
525.39	26.991
525.58	27.342
525.78	27.150
525.98	26.950
526.17	27.051
526.37	27.458
526.57	26.838
526.76	26.786
526.96	27.205
527.15	27.425
527.35	27.447
527.55	26.991
527.74	27.238
527.94	27.132
528.14	26.559
528.33	26.277
528.53	26.373
528.72	26.411
528.92	26.761
529.12	27.075
529.31	27.371
529.51	27.360
529.71	27.519
529.90	27.987
530.10	28.023
530.29	28.271
530.49	28.572
530.69	28.636
530.88	28.706
531.08	28.640
531.28	28.454
531.47	28.345
531.67	28.437
531.86	28.057
532.06	28.230
532.26	28.127
532.45	28.017
532.65	27.801
532.84	27.213
533.04	27.259
533.24	27.021
533.43	27.066
533.63	27.595
533.82	27.794
534.02	27.842
534.22	27.790
534.41	28.013
534.61	27.876
534.80	28.233
535.00	28.096
535.19	28.705
535.39	29.074
535.59	29.115
535.78	28.821
535.98	28.713
536.17	28.171
536.37	28.026
536.57	28.102
536.76	28.324
536.96	27.959
537.15	27.994
537.35	28.117
537.54	27.945
537.74	28.401
537.93	28.625
538.13	28.730
538.33	28.831
538.52	28.982
538.72	29.318
538.91	28.961
539.11	29.087
539.30	29.219
539.50	28.885
539.70	28.919
539.89	28.849
540.09	28.491
540.28	28.832
540.48	28.117
540.67	28.038
540.87	28.408
541.06	27.955
541.26	27.835
541.45	28.000
541.65	28.528
541.85	28.461
542.04	28.228
542.24	28.329
542.43	28.614
542.63	28.884
542.82	29.022
543.02	29.278
543.21	29.583
543.41	30.154
543.60	29.853
543.80	29.778
543.99	29.686
544.19	29.490
544.38	29.718
544.58	29.854
544.77	29.536
544.97	29.599
545.16	29.975
545.36	29.855
545.56	29.739
545.75	29.594
545.95	29.837
546.14	30.206
546.34	30.071
546.53	29.595
546.73	29.316
546.92	29.843
547.12	30.138
547.31	29.533
547.51	30.034
547.70	30.319
547.90	30.419
548.09	30.119
548.29	30.516
548.48	30.906
548.68	31.182
548.87	30.703
549.07	30.574
549.26	31.175
549.46	31.213
549.65	31.131
549.84	31.081
550.04	31.526
550.23	31.458
550.43	31.537
550.62	31.802
550.82	31.263
551.01	31.627
551.21	31.620
551.40	31.323
551.60	31.375
551.79	31.546
551.99	30.811
552.18	31.301
552.38	31.342
552.57	31.680
552.77	31.424
552.96	32.392
553.16	31.682
553.35	32.135
553.54	31.487
553.74	31.925
553.93	31.996
554.13	32.658
554.32	32.535
554.52	32.672
554.71	32.012
554.91	32.765
555.10	32.993
555.29	32.434
555.49	32.923
555.68	33.506
555.88	32.780
556.07	33.011
556.27	33.543
556.46	32.778
556.66	33.094
556.85	32.784
557.04	33.506
557.24	33.157
557.43	34.146
557.63	33.681
557.82	33.020
558.02	33.586
558.21	33.362
558.40	32.970
558.60	34.326
558.79	33.920
558.99	33.927
559.18	34.013
559.38	33.641
559.57	34.188
559.76	34.545
559.96	35.210
560.15	34.397
560.35	34.457
560.54	33.942
560.73	34.297
560.93	34.784
561.12	34.534
561.32	34.337
561.51	34.382
561.70	34.654
561.90	34.997
562.09	34.391
562.29	35.080
562.48	35.363
562.67	34.953
562.87	34.960
563.06	34.933
563.26	35.065
563.45	35.643
563.64	35.405
563.84	35.749
564.03	35.319
564.23	35.195
564.42	35.726
564.61	35.717
564.81	35.656
565.00	36.729
565.20	35.156
565.39	36.242
565.58	35.378
565.78	35.329
565.97	36.070
566.16	36.002
566.36	35.913
566.55	36.410
566.74	35.911
566.94	36.309
567.13	36.271
567.33	36.099
567.52	36.136
567.71	36.764
567.91	36.828
568.10	37.419
568.29	37.244
568.49	37.003
568.68	37.135
568.87	36.796
569.07	36.575
569.26	37.233
569.45	37.430
569.65	36.635
569.84	36.979
570.04	37.113
570.23	37.300
570.42	37.265
570.62	37.795
570.81	37.106
571.00	37.248
571.20	37.318
571.39	37.050
571.58	37.331
571.78	37.603
571.97	37.068
572.16	37.198
572.36	37.613
572.55	37.243
572.74	37.159
572.94	37.477
573.13	37.957
573.32	37.596
573.51	37.941
573.71	37.357
573.90	37.694
574.09	37.675
574.29	37.844
574.48	37.656
574.67	37.913
574.87	37.562
575.06	37.749
575.25	37.524
575.45	38.183
575.64	38.045
575.83	38.318
576.03	39.019
576.22	37.816
576.41	37.716
576.60	37.570
576.80	38.222
576.99	37.845
577.18	38.799
577.38	38.775
577.57	38.697
577.76	38.390
577.95	37.983
578.15	37.920
578.34	38.801
578.53	38.589
578.73	38.805
578.92	37.364
579.11	38.127
579.30	38.960
579.50	38.601
579.69	38.873
579.88	38.974
580.08	38.477
580.27	37.890
580.46	38.520
580.65	38.819
580.85	38.321
581.04	38.641
581.23	38.281
581.42	38.662
581.62	38.040
581.81	38.732
582.00	39.216
582.19	38.633
582.39	38.842
582.58	38.867
582.77	39.610
582.96	38.214
583.16	38.072
583.35	39.067
583.54	39.407
583.73	39.080
583.93	38.521
584.12	38.294
584.31	38.156
584.50	37.670
584.70	39.647
584.89	37.946
585.08	39.657
585.27	39.182
585.47	39.253
585.66	38.244
585.85	38.732
586.04	38.756
586.24	38.575
586.43	38.507
586.62	38.571
586.81	37.825
587.00	38.645
587.20	37.685
587.39	39.249
587.58	38.594
587.77	38.323
587.97	38.484
588.16	39.230
588.35	38.406
588.54	37.259
588.73	37.782
588.93	37.472
589.12	38.426
589.31	37.393
589.50	37.889
589.69	38.622
589.89	38.281
590.08	37.923
590.27	37.350
590.46	38.420
590.65	38.419
590.85	38.126
591.04	37.917
591.23	38.740
591.42	38.168
591.61	38.986
591.81	38.573
592.00	37.652
592.19	38.824
592.38	37.991
592.57	38.883
592.77	39.280
592.96	37.402
593.15	39.153
593.34	38.604
593.53	39.094
593.72	38.867
593.92	37.877
594.11	39.299
594.30	37.828
594.49	39.002
594.68	38.570
594.87	38.186
595.07	37.733
595.26	38.639
595.45	38.582
595.64	38.391
595.83	38.794
596.02	38.855
596.22	39.344
596.41	38.376
596.60	37.810
596.79	39.121
596.98	38.089
597.17	38.203
597.37	38.549
597.56	38.861
597.75	37.799
597.94	38.455
598.13	38.946
598.32	38.498
598.51	39.250
598.71	39.648
598.90	39.096
599.09	40.194
599.28	39.494
599.47	39.973
599.66	39.113
599.85	39.539
600.05	39.129
600.24	39.539
600.43	40.237
600.62	39.690
600.81	39.502
601.00	39.687
601.19	40.058
601.38	40.597
601.58	40.435
601.77	40.096
601.96	39.899
602.15	40.100
602.34	40.620
602.53	40.091
602.72	40.392
602.91	39.775
603.10	39.781
603.30	39.993
603.49	39.753
603.68	39.513
603.87	39.871
604.06	39.404
604.25	39.942
604.44	39.705
604.63	39.824
604.82	39.738
605.01	40.313
605.21	39.707
605.40	39.753
605.59	40.048
605.78	39.633
605.97	39.886
606.16	40.049
606.35	40.330
606.54	41.053
606.73	39.814
606.92	40.153
607.11	40.583
607.30	41.379
607.50	40.805
607.69	40.964
607.88	40.532
608.07	40.146
608.26	39.974
608.45	40.779
608.64	40.546
608.83	39.638
609.02	39.515
609.21	39.221
609.40	39.090
609.59	39.722
609.78	39.035
609.97	39.860
610.16	39.533
610.35	39.364
610.55	39.014
610.74	39.588
610.93	39.437
611.12	39.279
611.31	39.572
611.50	40.189
611.69	39.679
611.88	40.406
612.07	40.041
612.26	40.009
612.45	39.993
612.64	39.917
612.83	39.664
613.02	39.770
613.21	39.481
613.40	39.761
613.59	39.387
613.78	38.854
613.97	39.532
614.16	40.164
614.35	39.451
614.54	39.140
614.73	38.788
614.92	40.004
615.11	39.197
615.30	39.532
615.49	39.212
615.68	39.693
615.87	38.376
616.07	38.270
616.26	40.261
616.45	39.108
616.64	39.825
616.83	38.375
617.02	38.145
617.21	39.164
617.40	39.471
617.59	38.092
617.78	37.550
617.97	38.054
618.16	38.346
618.35	37.778
618.54	38.052
618.73	38.387
618.92	39.182
619.11	37.621
619.30	38.023
619.49	37.829
619.68	37.351
619.86	38.341
620.05	37.865
620.24	37.680
620.43	38.368
620.62	37.052
620.81	37.813
621.00	38.710
621.19	38.048
621.38	38.273
621.57	38.224
621.76	37.606
621.95	37.353
622.14	37.994
622.33	37.794
622.52	37.882
622.71	38.913
622.90	37.633
623.09	37.654
623.28	37.239
623.47	37.997
623.66	37.243
623.85	38.191
624.04	37.113
624.23	36.956
624.42	36.653
624.61	37.557
624.80	36.600
624.99	37.165
625.18	36.906
625.36	37.281
625.55	38.290
625.74	36.698
625.93	37.116
626.12	36.584
626.31	37.158
626.50	36.927
626.69	36.477
626.88	36.230
627.07	36.761
627.26	35.906
627.45	36.633
627.64	36.607
627.83	36.276
628.02	36.536
628.20	36.299
628.39	36.613
628.58	36.480
628.77	36.923
628.96	36.114
629.15	36.930
629.34	36.351
629.53	36.515
629.72	36.472
629.91	36.452
630.10	36.355
630.29	35.936
630.47	36.642
630.66	36.996
630.85	36.315
631.04	35.701
631.23	36.558
631.42	36.080
631.61	36.873
631.80	36.700
631.99	36.240
632.18	36.456
632.36	35.613
632.55	36.330
632.74	36.564
632.93	36.783
633.12	36.174
633.31	36.364
633.50	35.207
633.69	36.022
633.88	36.300
634.06	35.274
634.25	37.279
634.44	36.489
634.63	35.924
634.82	36.359
635.01	36.346
635.20	35.149
635.39	35.951
635.57	36.725
635.76	35.543
635.95	36.390
636.14	35.637
636.33	36.948
636.52	35.857
636.71	36.074
636.89	35.637
637.08	36.158
637.27	35.434
637.46	35.409
637.65	35.932
637.84	36.805
638.03	35.874
638.21	35.695
638.40	35.614
638.59	36.168
638.78	36.433
638.97	35.916
639.16	36.652
639.34	36.266
639.53	35.589
639.72	34.943
639.91	36.992
640.10	36.288
640.29	36.457
640.47	36.132
640.66	36.168
640.85	36.845
641.04	36.142
641.23	36.030
641.42	36.249
641.60	36.122
641.79	36.121
641.98	35.608
642.17	35.270
642.36	35.997
642.54	36.310
642.73	36.895
642.92	36.212
643.11	36.745
643.30	36.143
643.49	36.118
643.67	35.124
643.86	36.753
644.05	36.320
644.24	36.446
644.43	35.084
644.61	36.346
644.80	37.241
644.99	36.481
645.18	37.227
645.37	36.273
645.55	36.438
645.74	36.364
645.93	35.629
646.12	35.311
646.31	36.616
646.49	35.598
646.68	36.852
646.87	36.549
647.06	36.159
647.24	35.809
647.43	35.507
647.62	37.772
647.81	35.283
648.00	36.965
648.18	35.288
648.37	35.591
648.56	36.043
648.75	36.130
648.93	36.117
649.12	36.181
649.31	35.978
649.50	34.943
649.68	35.609
649.87	34.571
650.06	34.842
650.25	35.115
650.43	36.487
650.62	36.560
650.81	35.347
651.00	35.385
651.18	35.065
651.37	35.643
651.56	35.402
651.75	35.178
651.93	35.548
652.12	34.893
652.31	35.900
652.50	35.706
652.68	35.378
652.87	36.430
653.06	35.725
653.25	35.708
653.43	36.066
653.62	36.319
653.81	35.250
654.00	35.990
654.18	34.977
654.37	34.981
654.56	34.410
654.74	34.790
654.93	35.368
655.12	34.520
655.31	35.255
655.49	35.104
655.68	33.417
655.87	34.356
656.05	34.190
656.24	35.801
656.43	33.750
656.62	34.301
656.80	33.881
656.99	34.136
657.18	33.636
657.36	33.113
657.55	32.560
657.74	33.558
657.93	34.043
658.11	34.258
658.30	33.200
658.49	33.303
658.67	32.603
658.86	32.673
659.05	31.768
659.23	31.467
659.42	32.140
659.61	30.732
659.79	31.862
659.98	31.123
660.17	31.197
660.35	31.739
660.54	30.717
660.73	31.615
660.91	30.481
661.10	30.834
661.29	31.071
661.47	29.884
661.66	29.933
661.85	30.147
662.03	31.219
662.22	30.179
662.41	29.871
662.59	30.363
662.78	29.593
662.97	29.041
663.15	28.544
663.34	29.509
663.53	29.115
663.71	29.418
663.90	28.552
664.09	29.598
664.27	29.307
664.46	29.210
664.65	28.179
664.83	28.184
665.02	28.407
665.21	27.357
665.39	26.718
665.58	28.659
665.77	26.163
665.95	26.012
666.14	26.626
666.32	27.163
666.51	25.578
666.70	27.117
666.88	25.304
667.07	25.531
667.26	25.085
667.44	25.790
667.63	25.576
667.81	25.707
668.00	25.675
668.19	27.398
668.37	26.241
668.56	26.945
668.75	25.481
668.93	26.999
669.12	24.581
669.30	24.629
669.49	23.971
669.68	25.585
669.86	25.274
670.05	25.961
670.23	25.272
670.42	25.688
670.61	24.665
670.79	24.653
670.98	24.362
671.16	25.653
671.35	23.140
671.54	25.498
671.72	25.322
671.91	25.252
672.09	23.993
672.28	25.557
672.46	25.058
672.65	25.230
672.84	25.441
673.02	25.750
673.21	24.458
673.39	25.438
673.58	25.193
673.77	25.728
673.95	25.057
674.14	26.638
674.32	23.874
674.51	27.462
674.69	24.233
674.88	25.324
675.07	24.733
675.25	27.552
675.44	26.037
675.62	26.454
675.81	25.454
675.99	27.959
676.18	25.854
676.36	26.470
676.55	26.141
676.74	27.389
676.92	26.973
677.11	26.461
677.29	26.185
677.48	27.860
677.66	26.997
677.85	26.611
678.03	26.653
678.22	28.428
678.40	26.144
678.59	27.815
678.78	26.204
678.96	27.624
679.15	26.315
679.33	29.790
679.52	27.569
679.70	27.031
679.89	27.087
680.07	28.027
680.26	27.093
680.44	29.211
680.63	27.393
680.81	28.630
681.00	26.824
681.18	27.660
681.37	27.519
681.55	29.251
681.74	28.373
681.92	29.013
682.11	27.995
682.29	28.984
682.48	28.620
682.66	30.254
682.85	29.086
683.03	29.697
683.22	30.735
683.40	30.334
683.59	28.814
683.77	31.526
683.96	29.470
684.14	31.044
684.33	29.730
684.51	31.310
684.70	31.627
684.88	31.573
685.07	32.219
685.25	33.747
685.44	32.406
685.62	32.558
685.81	31.776
685.99	33.404
686.18	32.889
686.36	34.588
686.55	32.025
686.73	34.254
686.92	34.491
687.10	34.375
687.29	34.668
687.47	36.841
687.65	35.488
687.84	35.145
688.02	36.662
688.21	37.866
688.39	35.115
688.58	37.387
688.76	36.075
688.95	37.724
689.13	36.789
689.32	38.763
689.50	38.161
689.68	39.726
689.87	39.440
690.05	39.324
690.24	39.021
690.42	39.872
690.61	41.588
690.79	42.397
690.98	41.526
691.16	40.396
691.34	40.852
691.53	43.017
691.71	40.590
691.90	42.855
692.08	42.246
692.27	45.838
692.45	44.681
692.63	45.317
692.82	44.477
693.00	47.060
693.19	44.119
693.37	46.041
693.56	44.606
693.74	45.560
693.92	47.591
694.11	49.216
694.29	47.637
694.48	47.759
694.66	47.635
694.84	47.620
695.03	50.217
695.21	51.261
695.40	50.284
695.58	49.264
695.76	49.270
695.95	51.637
696.13	50.955
696.32	51.265
696.50	52.650
696.68	52.587
696.87	52.789
697.05	52.940
697.24	53.329
697.42	53.604
697.60	52.904
697.79	53.554
697.97	54.163
698.16	53.870
698.34	51.891
698.52	53.986
698.71	52.619
698.89	53.755
699.07	52.135
699.26	53.156
699.44	52.104
699.63	53.755
699.81	52.955
699.99	52.089
700.18	52.838
700.36	52.663
700.54	53.258
700.73	52.502
700.91	54.554
701.09	55.244
701.28	55.704
701.46	55.173
701.64	56.096
701.83	56.989
702.01	58.155
702.20	58.500
702.38	57.308
702.56	58.024
702.75	57.462
702.93	60.257
703.11	59.186
703.30	60.625
703.48	60.380
703.66	60.821
703.85	61.203
704.03	61.046
704.21	59.993
704.40	62.590
704.58	60.217
704.76	60.691
704.95	61.658
705.13	61.606
705.31	61.022
705.50	61.955
705.68	61.208
705.86	63.217
706.04	63.844
706.23	65.318
706.41	61.402
706.59	62.055
706.78	60.265
706.96	63.091
707.14	62.048
707.33	63.070
707.51	63.937
707.69	63.261
707.88	64.639
708.06	64.089
708.24	63.843
708.42	64.477
708.61	63.237
708.79	63.845
708.97	63.783
709.16	62.333
709.34	66.405
709.52	61.804
709.71	63.111
709.89	63.757
710.07	62.105
710.25	65.713
710.44	62.186
710.62	64.731
710.80	64.124
710.98	63.178
711.17	63.061
711.35	64.207
711.53	65.037
711.72	65.006
711.90	64.386
712.08	63.998
712.26	63.592
712.45	64.569
712.63	63.605
712.81	65.053
712.99	63.487
713.18	62.776
713.36	64.913
713.54	65.700
713.72	64.328
713.91	64.212
714.09	62.989
714.27	63.779
714.45	63.565
714.64	63.817
714.82	65.660
715.00	65.727
715.18	63.668
715.37	63.619
715.55	64.703
715.73	65.345
715.91	64.660
716.10	63.819
716.28	64.758
716.46	64.694
716.64	63.775
716.83	64.386
717.01	63.412
717.19	64.248
717.37	63.362
717.55	63.853
717.74	64.019
717.92	63.034
718.10	63.626
718.28	63.849
718.47	65.950
718.65	64.274
718.83	63.763
719.01	64.590
719.19	63.439
719.38	64.415
719.56	65.210
719.74	66.175
719.92	63.689
720.10	68.007
720.29	65.404
720.47	66.042
720.65	65.653
720.83	65.070
721.01	65.958
721.20	69.349
721.38	64.605
721.56	69.733
721.74	66.218
721.92	66.893
722.11	67.815
722.29	67.263
722.47	67.009
722.65	70.327
722.83	66.377
723.01	67.357
723.20	68.327
723.38	69.202
723.56	65.131
723.74	69.493
723.92	67.280
724.10	67.262
724.29	67.237
724.47	67.401
724.65	70.703
724.83	67.039
725.01	66.086
725.19	69.528
725.38	65.781
725.56	65.204
725.74	67.230
725.92	67.738
726.10	67.001
726.28	68.719
726.46	67.580
726.65	67.882
726.83	68.791
727.01	65.869
727.19	67.633
727.37	66.718
727.55	67.301
727.73	65.114
727.92	67.696
728.10	67.139
728.28	64.296
728.46	65.941
728.64	64.615
728.82	67.814
729.00	67.519
729.19	69.941
729.37	66.177
729.55	66.257
729.73	64.918
729.91	66.553
730.09	68.215
730.27	68.526
730.45	68.421
730.63	66.720
730.82	66.417
731.00	66.164
731.18	67.102
731.36	67.462
731.54	65.773
731.72	67.824
731.90	68.901
732.08	67.674
732.26	65.998
732.45	69.707
732.63	67.648
732.81	68.266
732.99	66.291
733.17	66.491
733.35	67.791
733.53	69.129
733.71	67.477
733.89	66.648
734.07	68.840
734.25	68.186
734.44	67.135
734.62	68.775
734.80	68.286
734.98	69.231
735.16	69.113
735.34	68.832
735.52	68.297
735.70	68.110
735.88	73.113
736.06	70.791
736.24	70.111
736.42	69.897
736.60	69.442
736.78	69.759
736.97	70.776
737.15	73.682
737.33	68.074
737.51	72.182
737.69	73.166
737.87	74.445
738.05	71.941
738.23	72.844
738.41	70.577
738.59	75.461
738.77	70.535
738.95	72.405
739.13	71.811
739.31	72.791
739.49	71.491
739.67	73.996
739.85	72.732
740.03	71.117
740.21	72.545
740.39	72.280
740.57	73.982
740.75	71.527
740.93	73.264
741.11	71.234
741.30	71.900
741.48	75.013
741.66	75.119
741.84	72.507
742.02	71.919
742.20	74.809
742.38	73.525
742.56	75.442
742.74	73.605
742.92	73.607
743.10	75.719
743.28	75.254
743.46	73.770
743.64	74.142
743.82	72.009
744.00	77.508
744.18	73.219
744.36	77.120
744.54	78.217
744.72	72.709
744.90	80.692
745.08	77.010
745.26	74.322
745.44	74.692
745.62	72.752
745.80	77.737
745.98	75.604
746.16	77.187
746.34	79.411
746.52	75.516
746.70	73.780
746.87	75.093
747.05	77.145
747.23	78.384
747.41	80.344
747.59	75.335
747.77	75.238
747.95	78.896
748.13	75.805
748.31	78.381
748.49	73.698
748.67	76.214
748.85	71.842
749.03	75.825
749.21	77.229
749.39	75.022
749.57	75.561
749.75	76.984
749.93	76.413
750.11	77.183
750.29	75.614
750.47	73.755
750.65	72.513
750.83	75.447
751.01	74.811
751.18	73.393
751.36	75.948
751.54	79.624
751.72	77.729
751.90	76.846
752.08	74.422
752.26	76.031
752.44	74.823
752.62	75.505
752.80	77.512
752.98	79.087
753.16	77.567
753.34	76.202
753.52	76.269
753.69	76.989
753.87	78.265
754.05	75.918
754.23	76.814
754.41	77.523
754.59	75.712
754.77	74.575
754.95	76.849
755.13	75.396
755.31	73.051
755.49	77.689
755.66	75.938
755.84	76.921
756.02	75.063
756.20	77.352
756.38	76.419
756.56	76.611
756.74	78.159
756.92	76.065
757.10	72.011
757.28	80.063
757.45	78.787
757.63	76.506
757.81	75.789
757.99	81.364
758.17	76.077
758.35	76.916
758.53	76.596
758.71	74.515
758.88	74.159
759.06	76.596
759.24	71.064
759.42	72.480
759.60	69.822
759.78	71.197
759.96	68.159
760.13	70.682
760.31	66.182
760.49	67.350
760.67	62.830
760.85	66.275
761.03	65.284
761.21	60.711
761.38	63.814
761.56	67.086
761.74	62.194
761.92	65.029
762.10	62.174
762.28	66.072
762.46	62.106
762.63	65.748
762.81	62.819
762.99	65.187
763.17	66.244
763.35	65.134
763.53	64.661
763.70	65.205
763.88	64.014
764.06	63.758
764.24	63.195
764.42	65.534
764.60	63.732
764.77	62.830
764.95	63.240
765.13	62.804
765.31	65.388
765.49	63.650
765.66	63.803
765.84	67.079
766.02	63.935
766.20	67.524
766.38	68.082
766.56	65.426
766.73	70.682
766.91	68.903
767.09	71.057
767.27	74.015
767.45	70.544
767.62	70.724
767.80	72.175
767.98	72.127
768.16	71.561
768.33	76.082
768.51	73.543
768.69	72.736
768.87	71.195
769.05	73.729
769.22	74.579
769.40	81.023
769.58	77.790
769.76	77.581
769.94	75.406
770.11	75.768
770.29	74.249
770.47	78.303
770.65	76.735
770.82	78.019
771.00	77.998
771.18	79.171
771.36	78.347
771.53	78.987
771.71	77.773
771.89	80.441
772.07	77.938
772.25	80.849
772.42	77.221
772.60	77.100
772.78	78.864
772.96	81.177
773.13	80.130
773.31	83.978
773.49	77.217
773.67	86.792
773.84	78.801
774.02	75.720
774.20	78.056
774.37	83.916
774.55	78.294
774.73	77.923
774.91	78.906
775.08	81.048
775.26	83.541
775.44	82.161
775.62	81.174
775.79	80.370
775.97	82.129
776.15	81.201
776.32	73.935
776.50	85.831
776.68	86.298
776.86	80.793
777.03	76.089
777.21	75.278
777.39	76.517
777.56	80.831
777.74	76.758
777.92	80.775
778.10	80.675
778.27	83.255
778.45	83.765
778.63	81.934
778.80	74.964
778.98	84.582
779.16	78.991
779.34	80.078
779.51	76.950
779.69	76.495
779.87	76.688
780.04	79.633
780.22	77.323
780.40	77.493
780.57	78.059
780.75	80.166
780.93	79.950
781.10	77.462
781.28	87.751
781.46	73.909
781.63	77.073
781.81	83.586
781.99	75.630
782.16	80.728
782.34	79.404
782.52	78.407
782.69	80.041
782.87	83.387
783.05	81.613
783.22	86.901
783.40	79.478
783.58	85.858
783.75	81.082
783.93	84.995
784.11	76.995
784.28	81.507
784.46	77.173
784.64	82.681
784.81	81.718
784.99	86.301
785.17	76.069
785.34	84.097
785.52	74.330
785.69	82.094
785.87	72.022
786.05	86.834
786.22	77.293
786.40	86.861
786.58	76.087
786.75	82.135
786.93	80.113
787.11	77.225
787.28	79.522
787.46	84.354
787.63	81.541
787.81	84.949
787.99	80.330
788.16	76.443
788.34	78.844
788.51	83.096
788.69	72.732
788.87	77.078
789.04	71.739
789.22	73.919
789.39	72.013
789.57	75.356
789.75	75.490
789.92	75.552
790.10	70.655
790.27	76.110
790.45	72.675
790.63	74.729
790.80	71.232
790.98	76.317
791.15	72.376
791.33	79.420
791.51	75.216
791.68	78.997
791.86	80.055
792.03	76.802
792.21	76.676
792.39	74.946
792.56	77.430
792.74	79.954
792.91	84.497
793.09	74.066
793.26	72.445
793.44	80.772
793.62	79.295
793.79	79.625
793.97	77.530
794.14	81.611
794.32	73.867
794.49	77.197
794.67	76.425
794.84	77.499
795.02	74.912
795.20	78.704
795.37	73.603
795.55	82.862
795.72	73.146
795.90	75.891
796.07	77.345
796.25	75.612
796.42	73.393
796.60	70.997
796.77	70.121
796.95	74.542
797.13	71.203
797.30	77.931
797.48	68.421
797.65	75.611
797.83	72.670
798.00	77.662
798.18	70.169
798.35	74.569
798.53	76.103
798.70	77.300
798.88	74.109
799.05	75.073
799.23	75.321
799.40	72.537
799.58	76.157
799.75	76.724
799.93	71.141
800.10	76.962
800.28	75.148
800.45	77.572
800.63	69.923
800.80	79.893
800.98	74.030
801.15	75.132
801.33	72.036
801.50	76.503
801.68	72.882
801.85	73.694
802.03	74.099
802.20	78.001
802.38	75.222
802.55	73.767
802.73	74.057
802.90	72.949
803.08	66.367
803.25	83.213
803.43	78.112
803.60	77.942
803.78	76.758
803.95	80.606
804.13	74.012
804.30	81.753
804.48	72.727
804.65	75.623
804.83	78.710
805.00	74.490
805.17	79.477
805.35	79.074
805.52	76.052
805.70	77.624
805.87	80.112
806.05	71.489
806.22	73.225
806.40	74.565
806.57	73.913
806.75	81.238
806.92	74.899
807.09	80.154
807.27	69.748
807.44	77.400
807.62	71.419
807.79	79.060
807.97	70.301
808.14	69.993
808.31	68.945
808.49	70.604
808.66	73.515
808.84	78.623
809.01	86.153
809.19	75.912
809.36	70.007
809.53	76.750
809.71	76.650
809.88	82.892
810.06	81.706
810.23	76.098
810.41	83.079
810.58	74.053
810.75	72.038
810.93	74.165
811.10	77.581
811.28	75.652
811.45	80.373
811.62	75.241
811.80	75.336
811.97	81.659
812.15	79.240
812.32	71.493
812.49	74.489
812.67	75.669
812.84	67.017
813.02	72.466
813.19	70.448
813.36	69.237
813.54	70.698
813.71	76.819
813.89	69.662
814.06	75.000
814.23	67.475
814.41	72.361
814.58	75.512
814.75	70.928
814.93	75.768
815.10	74.283
815.28	65.025
815.45	67.072
815.62	72.985
815.80	64.774
815.97	66.260
816.14	71.082
816.32	66.615
816.49	67.842
816.66	66.376
816.84	74.957
817.01	61.301
817.18	67.514
817.36	69.836
817.53	71.003
817.71	60.572
817.88	70.227
818.05	63.546
818.23	66.253
818.40	64.219
818.57	66.003
818.75	67.052
818.92	62.376
819.09	65.373
819.27	61.608
819.44	68.168
819.61	70.476
819.79	65.982
819.96	64.590
820.13	62.810
820.31	69.143
820.48	67.087
820.65	66.060
820.82	61.266
821.00	68.603
821.17	60.907
821.34	61.959
821.52	63.917
821.69	64.885
821.86	61.691
822.04	62.496
822.21	61.336
822.38	63.673
822.56	59.715
822.73	60.460
822.90	59.642
823.07	57.607
823.25	59.118
823.42	59.405
823.59	58.464
823.77	58.771
823.94	58.495
824.11	57.636
824.29	57.920
824.46	58.185
824.63	60.031
824.80	58.754
824.98	59.508
825.15	60.361
825.32	57.875
825.49	62.423
825.67	59.092
825.84	59.334
826.01	62.029
826.19	65.707
826.36	60.201
826.53	63.555
826.70	62.251
826.88	64.634
827.05	61.273
827.22	61.212
827.39	62.207
827.57	60.129
827.74	56.893
827.91	62.691
828.08	60.543
828.26	60.168
828.43	59.957
828.60	61.132
828.77	60.169
828.95	59.363
829.12	57.908
829.29	55.900
829.46	58.233
829.64	63.970
829.81	55.031
829.98	62.041
830.15	59.822
830.32	61.751
830.50	57.668
830.67	62.390
830.84	58.987
831.01	56.563
831.19	58.958
831.36	64.978
831.53	67.302
831.70	64.077
831.87	58.752
832.05	63.234
832.22	68.731
832.39	57.312
832.56	58.443
832.74	58.281
832.91	59.579
833.08	73.412
833.25	54.888
833.42	64.360
833.60	60.875
833.77	54.965
833.94	57.875
834.11	56.874
834.28	53.856
834.45	59.724
834.63	56.057
834.80	58.475
834.97	59.627
835.14	64.763
835.31	59.636
835.49	58.484
835.66	61.238
835.83	59.213
836.00	57.874
836.17	63.214
836.34	57.353
836.52	60.066
836.69	62.299
836.86	63.088
837.03	65.537
837.20	62.939
837.37	58.189
837.55	51.147
837.72	62.686
837.89	66.691
838.06	64.216
838.23	72.910
838.40	65.888
838.58	67.514
838.75	72.133
838.92	71.191
839.09	82.563
839.26	68.869
839.43	81.084
839.60	78.108
839.78	83.868
839.95	84.682
840.12	73.608
840.29	77.663
840.46	83.333
840.63	68.506
840.80	69.145
840.98	71.201
841.15	67.653
841.32	67.215
841.49	64.189
841.66	74.393
841.83	62.054
842.00	63.559
842.17	76.301
842.34	66.016
842.52	77.789
842.69	69.989
842.86	70.561
843.03	85.538
843.20	73.836
843.37	79.599
843.54	81.034
843.71	87.599
843.88	76.634
844.06	82.917
844.23	84.759
844.40	72.139
844.57	79.193
844.74	98.136
844.91	95.092
845.08	93.912
845.25	94.958
845.42	97.278
845.59	95.174
845.76	90.239
845.94	101.241
846.11	98.658
846.28	103.314
846.45	120.459
846.62	123.747
846.79	100.974
846.96	94.027
847.13	105.503
847.30	95.552
847.47	77.393
847.64	82.515
847.81	85.761
847.98	114.938
848.15	105.684
848.32	109.696
848.50	116.601
848.67	86.472
848.84	94.939
849.01	94.106
849.18	95.910
849.35	125.494
849.52	108.119
849.69	102.320
849.86	119.005
850.03	108.197
850.20	106.379
850.37	101.152
850.54	105.049
850.71	112.639
850.88	119.502
851.05	89.583
851.22	107.961
851.39	91.461
851.56	107.592
851.73	117.176
851.90	114.450
852.07	113.909
852.24	89.628
852.41	107.495
852.58	107.857
852.75	95.116
852.92	100.402
853.09	135.955
853.26	103.789
853.43	123.778
853.60	101.455
853.77	104.196
853.94	104.517
854.11	113.921
854.28	110.000
854.45	99.333
854.62	101.558
854.79	97.566
854.96	98.469
855.13	107.657
855.30	117.750
855.47	107.398
855.64	112.695
855.81	111.722
855.98	121.680
856.15	101.626
856.32	84.969
856.49	119.385
856.66	105.869
856.83	93.966
857.00	92.887
857.17	108.940
857.34	107.895
857.51	106.374
857.68	105.012
857.85	137.627
858.02	110.513
858.19	104.839
858.36	127.160
858.53	111.135
858.70	107.456
858.87	115.556
859.04	94.118
859.21	108.405
859.38	114.792
859.55	125.061
859.72	113.295
859.89	138.192
860.05	104.902
860.22	112.632
860.39	98.413
860.56	113.384
860.73	117.661
860.90	108.219
861.07	118.265
861.24	110.755
861.41	108.466
861.58	114.353
861.75	99.523
861.92	93.217
862.09	117.722
862.26	109.693
862.43	123.416
862.59	107.639
862.76	102.548
862.93	110.000
863.10	93.795
863.27	106.490
863.44	96.078
863.61	103.864
863.78	119.701
863.95	115.439
864.12	122.741
864.29	129.483
864.45	116.373
864.62	116.754
864.79	113.861
864.96	85.608
865.13	108.426
865.30	120.952
865.47	123.398
865.64	130.660
865.81	125.069
865.97	99.041
866.14	108.241
866.31	75.822
866.48	107.143
866.65	110.156
866.82	116.547
866.99	148.285
867.16	116.754
867.33	99.529
867.49	109.291
867.66	106.747
867.83	101.322
868.00	95.249
868.17	112.644
868.34	116.964
868.51	82.367
868.67	95.735
868.84	92.184
869.01	119.816
869.18	98.537
869.35	106.843
869.52	98.750
869.69	129.573
869.85	116.543
870.02	83.010
870.19	103.349
870.36	127.778
870.53	104.662
870.70	106.809
870.86	106.736
871.03	107.657
871.20	105.693
871.37	131.034
871.54	108.696
871.71	118.447
871.87	100.272
872.04	140.924
872.21	90.287
872.38	109.046
872.55	124.304
872.72	96.847
872.88	117.465
873.05	112.329
873.22	98.783
873.39	100.236
873.56	87.244
873.72	113.221
873.89	112.791
874.06	106.186
874.23	114.660
874.40	115.029
874.56	97.297
874.73	113.592
874.90	90.107
875.07	91.921
875.24	100.716
875.40	69.663
875.57	90.682
875.74	118.537
875.91	115.989
876.08	80.837
876.24	102.893
876.41	130.711
876.58	113.604
876.75	102.479
876.92	98.438
877.08	88.477
877.25	80.928
877.42	91.463
877.59	128.440
877.75	100.407
877.92	73.574
878.09	97.912
878.26	102.410
878.42	102.926
878.59	106.416
878.76	79.051
878.93	117.873
879.09	103.275
879.26	99.034
879.43	91.461
879.60	92.628
879.76	75.089
879.93	103.218
880.10	79.302
880.27	73.558
880.43	70.900
880.60	71.944
880.77	70.923
880.94	60.799
881.10	58.600
881.27	65.755
881.44	43.763
881.61	59.985
881.77	54.710
881.94	52.131
882.11	46.277
882.28	44.700
882.44	55.090
882.61	53.856
882.78	54.583
882.94	56.458
883.11	53.049
883.28	54.846
883.45	53.663
883.61	53.015
883.78	53.307
883.95	56.904
884.11	52.119
884.28	51.786
>>>>>End Processed Spectral Data<<<<<
