SpectraSuite Data File
++++++++++++++++++++++++++++++++++++
Date: Wed Sep 18 04:01:15 EST 2019
User: sgrac
Dark Spectrum Present: Yes
Reference Spectrum Present: Yes
Number of Sampled Component Spectra: 1
Spectrometers: USB4E01596
Integration Time (usec): 100000 (USB4E01596)
Spectra Averaged: 3 (USB4E01596)
Boxcar Smoothing: 0 (USB4E01596)
Correct for Electrical Dark: No (USB4E01596)
Strobe/Lamp Enabled: Yes (USB4E01596)
Correct for Detector Non-linearity: No (USB4E01596)
Correct for Stray Light: No (USB4E01596)
Number of Pixels in Processed Spectrum: 3648
>>>>>Begin Processed Spectral Data<<<<<
178.44	-167.742
178.66	-167.742
178.87	-167.742
179.09	-238.000
179.30	267.391
179.52	642.105
179.74	-1127.778
179.95	-1600.000
180.17	669.767
180.38	-800.000
180.60	437.143
180.82	1506.250
181.03	467.442
181.25	-2221.429
181.46	-487.500
181.68	-497.674
181.89	585.714
182.11	557.500
182.33	539.216
182.54	559.649
182.76	1330.435
182.97	1692.857
183.19	377.174
183.40	279.545
183.62	594.231
183.84	398.387
184.05	993.939
184.27	427.869
184.48	3312.500
184.70	644.444
184.91	684.783
185.13	-668.750
185.34	-355.000
185.56	-663.636
185.78	1177.778
185.99	532.787
186.21	534.146
186.42	-2250.000
186.64	345.455
186.85	1862.500
187.07	452.381
187.28	611.905
187.50	-1182.353
187.72	440.000
187.93	401.205
188.15	513.235
188.36	-1805.882
188.58	316.883
188.79	-13100.000
189.01	190.476
189.22	353.247
189.44	1158.333
189.65	365.169
189.87	411.842
190.09	367.021
190.30	823.333
190.52	1481.250
190.73	308.434
190.95	922.727
191.16	340.299
191.38	-24300.000
191.59	660.870
191.81	484.286
192.02	-602.564
192.24	459.677
192.45	351.111
192.67	354.545
192.88	425.000
193.10	688.636
193.31	362.500
193.53	417.742
193.74	812.121
193.96	433.898
194.18	-1134.783
194.39	549.020
194.61	855.172
194.82	1180.769
195.04	371.111
195.25	388.525
195.47	-5800.000
195.68	419.718
195.90	245.055
196.11	585.417
196.33	1958.824
196.54	634.884
196.76	-812.000
196.97	263.000
197.19	1110.000
197.40	267.669
197.62	-669.697
197.83	544.231
198.05	252.349
198.26	-940.000
198.48	563.889
198.69	275.229
198.91	369.565
199.12	-2300.000
199.34	1044.000
199.55	21200.000
199.77	444.737
199.98	5166.667
200.20	582.353
200.41	461.972
200.63	414.815
200.84	1300.000
201.06	506.452
201.27	355.556
201.49	506.250
201.70	463.934
201.91	618.182
202.13	1550.000
202.34	-648.571
202.56	456.667
202.77	-231.395
202.99	373.171
203.20	685.106
203.42	444.286
203.63	234.862
203.85	-1034.483
204.06	718.182
204.28	1866.667
204.49	679.070
204.71	249.580
204.92	819.231
205.14	1231.579
205.35	6175.000
205.56	390.141
205.78	356.790
205.99	238.931
206.21	261.616
206.42	600.000
206.64	726.471
206.85	336.667
207.07	674.286
207.28	336.364
207.50	1200.000
207.71	523.256
207.93	502.083
208.14	651.163
208.35	406.780
208.57	534.000
208.78	336.170
209.00	302.151
209.21	249.296
209.43	376.389
209.64	934.615
209.86	1781.818
210.07	367.089
210.28	310.843
210.50	392.754
210.71	353.030
210.93	503.636
211.14	610.000
211.36	814.286
211.57	210.833
211.78	1042.308
212.00	691.892
212.21	1966.667
212.43	2276.923
212.64	809.375
212.86	277.273
213.07	438.462
213.29	319.388
213.50	431.667
213.71	298.750
213.93	351.685
214.14	725.000
214.36	687.805
214.57	376.190
214.78	7725.000
215.00	320.732
215.21	568.889
215.43	-4960.000
215.64	350.000
215.86	394.118
216.07	315.068
216.28	500.000
216.50	566.000
216.71	1146.667
216.93	-21500.000
217.14	1484.211
217.35	-335.593
217.57	323.864
217.78	696.552
218.00	278.095
218.21	297.059
218.42	-5925.000
218.64	750.000
218.85	338.235
219.07	400.000
219.28	608.333
219.49	-10700.000
219.71	405.970
219.92	573.684
220.14	-20400.000
220.35	453.425
220.56	456.522
220.78	258.537
220.99	-364.444
221.21	344.578
221.42	200.658
221.63	1230.769
221.85	-640.000
222.06	249.495
222.28	-542.857
222.49	435.088
222.70	260.345
222.92	560.526
223.13	168.493
223.34	2250.000
223.56	200.000
223.77	297.531
223.99	264.646
224.20	170.238
224.41	247.273
224.63	181.818
224.84	239.516
225.05	259.016
225.27	514.545
225.48	278.049
225.69	421.875
225.91	393.846
226.12	342.667
226.34	332.353
226.55	194.340
226.76	189.922
226.98	283.333
227.19	167.857
227.40	186.620
227.62	142.564
227.83	120.476
228.04	148.108
228.26	158.108
228.47	100.481
228.69	63.934
228.90	70.845
229.11	55.337
229.33	58.652
229.54	50.965
229.75	39.677
229.97	25.381
230.18	43.581
230.39	41.512
230.61	26.871
230.82	45.000
231.03	27.489
231.25	38.663
231.46	49.785
231.67	37.715
231.89	39.693
232.10	54.939
232.31	51.132
232.53	70.222
232.74	55.422
232.95	62.376
233.17	54.084
233.38	65.957
233.59	54.967
233.81	72.921
234.02	67.723
234.23	61.198
234.45	64.525
234.66	50.743
234.87	71.461
235.09	63.636
235.30	63.568
235.51	58.396
235.73	44.418
235.94	62.395
236.15	46.269
236.36	50.112
236.58	49.242
236.79	42.351
237.00	50.279
237.22	42.541
237.43	56.604
237.64	34.879
237.86	58.740
238.07	73.942
238.28	54.292
238.50	59.305
238.71	41.731
238.92	40.774
239.13	51.282
239.35	51.020
239.56	59.236
239.77	55.078
239.99	58.228
240.20	61.875
240.41	30.550
240.63	54.228
240.84	47.195
241.05	35.852
241.26	39.051
241.48	39.224
241.69	33.871
241.90	29.084
242.12	31.568
242.33	29.395
242.54	24.692
242.75	18.408
242.97	30.487
243.18	16.921
243.39	13.269
243.61	16.805
243.82	23.407
244.03	23.199
244.24	17.560
244.46	15.474
244.67	14.310
244.88	19.813
245.09	20.053
245.31	19.051
245.52	13.573
245.73	23.768
245.95	39.225
246.16	27.090
246.37	23.048
246.58	21.528
246.80	27.133
247.01	21.654
247.22	18.572
247.43	15.827
247.65	16.736
247.86	13.794
248.07	12.895
248.28	11.175
248.50	10.601
248.71	15.433
248.92	11.279
249.13	11.042
249.35	12.418
249.56	13.031
249.77	11.088
249.98	13.018
250.20	16.350
250.41	18.809
250.62	16.894
250.83	19.042
251.05	22.531
251.26	21.700
251.47	19.764
251.68	20.301
251.90	21.771
252.11	22.498
252.32	20.485
252.53	25.690
252.75	17.954
252.96	24.051
253.17	21.385
253.38	17.121
253.59	14.586
253.81	17.454
254.02	17.873
254.23	18.826
254.44	18.968
254.66	19.515
254.87	19.298
255.08	16.105
255.29	29.010
255.50	20.458
255.72	21.277
255.93	31.388
256.14	25.828
256.35	24.255
256.57	21.699
256.78	31.342
256.99	26.529
257.20	19.420
257.41	18.670
257.63	17.940
257.84	27.809
258.05	23.937
258.26	18.542
258.47	23.047
258.69	27.267
258.90	15.374
259.11	17.335
259.32	15.514
259.53	16.139
259.75	9.249
259.96	12.694
260.17	14.185
260.38	12.708
260.59	8.264
260.81	11.443
261.02	10.326
261.23	9.476
261.44	11.132
261.65	8.065
261.87	9.572
262.08	10.815
262.29	12.387
262.50	7.921
262.71	8.341
262.92	10.282
263.14	11.638
263.35	10.802
263.56	11.392
263.77	12.367
263.98	11.659
264.20	20.645
264.41	17.405
264.62	12.835
264.83	11.317
265.04	21.040
265.25	14.830
265.47	23.054
265.68	16.647
265.89	15.862
266.10	12.432
266.31	19.045
266.52	17.485
266.74	15.747
266.95	13.859
267.16	16.012
267.37	16.378
267.58	9.688
267.79	13.483
268.01	11.947
268.22	9.860
268.43	16.106
268.64	13.736
268.85	13.470
269.06	11.080
269.27	12.651
269.49	9.704
269.70	12.527
269.91	14.778
270.12	13.373
270.33	16.347
270.54	12.527
270.75	11.430
270.97	13.208
271.18	11.867
271.39	12.239
271.60	12.110
271.81	11.483
272.02	11.410
272.23	11.474
272.45	9.297
272.66	11.972
272.87	10.916
273.08	9.904
273.29	12.741
273.50	7.904
273.71	8.676
273.92	10.623
274.14	7.066
274.35	11.248
274.56	13.863
274.77	9.880
274.98	11.466
275.19	11.262
275.40	12.057
275.61	10.835
275.83	10.043
276.04	9.746
276.25	14.286
276.46	13.179
276.67	12.846
276.88	14.971
277.09	11.160
277.30	16.024
277.51	10.343
277.73	14.154
277.94	13.071
278.15	14.367
278.36	12.782
278.57	12.258
278.78	11.876
278.99	12.632
279.20	13.691
279.41	13.469
279.62	12.219
279.84	12.724
280.05	8.262
280.26	13.325
280.47	12.166
280.68	9.000
280.89	12.645
281.10	11.299
281.31	14.024
281.52	13.756
281.73	7.643
281.94	7.381
282.16	12.555
282.37	11.713
282.58	11.216
282.79	10.931
283.00	11.803
283.21	8.705
283.42	9.348
283.63	11.189
283.84	9.235
284.05	8.989
284.26	8.587
284.47	11.045
284.68	8.210
284.89	9.003
285.11	8.281
285.32	9.603
285.53	9.544
285.74	11.652
285.95	10.019
286.16	10.524
286.37	6.649
286.58	8.519
286.79	6.975
287.00	6.504
287.21	8.139
287.42	8.511
287.63	8.107
287.84	8.371
288.05	9.126
288.26	9.084
288.48	10.553
288.69	8.378
288.90	10.392
289.11	11.906
289.32	11.470
289.53	9.937
289.74	8.055
289.95	9.648
290.16	10.625
290.37	9.069
290.58	7.053
290.79	6.633
291.00	8.700
291.21	9.720
291.42	8.512
291.63	8.410
291.84	8.724
292.05	6.148
292.26	8.669
292.47	8.434
292.68	5.631
292.89	8.499
293.10	8.866
293.31	10.057
293.52	7.215
293.73	6.886
293.94	11.526
294.15	8.595
294.36	10.542
294.57	11.264
294.79	8.477
295.00	8.309
295.21	10.296
295.42	9.946
295.63	11.021
295.84	6.389
296.05	9.096
296.26	9.668
296.47	9.464
296.68	6.313
296.89	10.410
297.10	8.085
297.31	7.905
297.52	7.628
297.73	6.431
297.94	6.489
298.15	6.084
298.36	5.544
298.57	5.913
298.78	7.963
298.99	6.515
299.20	7.510
299.41	6.880
299.62	5.824
299.83	6.540
300.04	7.150
300.25	7.429
300.46	7.308
300.67	9.884
300.88	7.309
301.09	6.054
301.30	7.798
301.50	7.391
301.71	9.485
301.92	9.160
302.13	5.818
302.34	7.761
302.55	7.523
302.76	6.968
302.97	7.688
303.18	5.652
303.39	8.700
303.60	7.242
303.81	8.373
304.02	6.332
304.23	9.596
304.44	7.875
304.65	7.291
304.86	9.098
305.07	6.870
305.28	7.989
305.49	7.803
305.70	9.431
305.91	8.380
306.12	6.590
306.33	6.202
306.54	8.300
306.75	8.869
306.96	10.609
307.17	6.268
307.38	7.516
307.58	6.712
307.79	7.741
308.00	11.234
308.21	7.106
308.42	7.834
308.63	8.518
308.84	9.659
309.05	7.634
309.26	4.728
309.47	8.436
309.68	6.615
309.89	9.498
310.10	9.292
310.31	7.604
310.52	7.616
310.73	10.047
310.94	6.441
311.14	6.610
311.35	5.817
311.56	8.457
311.77	6.590
311.98	7.153
312.19	6.373
312.40	5.977
312.61	6.702
312.82	7.587
313.03	7.974
313.24	6.853
313.45	6.755
313.66	6.950
313.86	7.538
314.07	6.337
314.28	6.570
314.49	5.885
314.70	7.913
314.91	7.520
315.12	7.459
315.33	10.124
315.54	8.110
315.75	6.976
315.96	6.779
316.16	9.876
316.37	11.147
316.58	9.671
316.79	8.526
317.00	9.304
317.21	8.534
317.42	9.741
317.63	6.663
317.84	7.472
318.05	6.397
318.25	8.506
318.46	9.404
318.67	7.437
318.88	9.523
319.09	8.851
319.30	9.653
319.51	7.092
319.72	6.644
319.93	5.402
320.13	8.860
320.34	10.471
320.55	6.586
320.76	9.954
320.97	10.964
321.18	10.972
321.39	7.465
321.60	8.555
321.80	10.060
322.01	9.727
322.22	10.404
322.43	8.307
322.64	10.605
322.85	8.021
323.06	6.236
323.27	8.823
323.47	9.946
323.68	10.350
323.89	9.223
324.10	6.998
324.31	7.304
324.52	8.485
324.73	7.883
324.93	7.141
325.14	7.188
325.35	8.347
325.56	8.009
325.77	9.736
325.98	7.049
326.19	8.090
326.39	7.084
326.60	8.994
326.81	5.892
327.02	5.755
327.23	7.533
327.44	10.884
327.64	6.337
327.85	6.316
328.06	8.011
328.27	11.212
328.48	9.489
328.69	4.022
328.90	6.779
329.10	6.785
329.31	8.047
329.52	9.952
329.73	9.257
329.94	8.549
330.15	9.319
330.35	11.439
330.56	9.849
330.77	9.886
330.98	8.895
331.19	8.691
331.39	8.987
331.60	7.941
331.81	6.072
332.02	10.876
332.23	8.562
332.44	9.007
332.64	9.013
332.85	9.967
333.06	9.697
333.27	6.983
333.48	8.493
333.68	9.060
333.89	9.037
334.10	8.433
334.31	9.737
334.52	9.359
334.72	9.192
334.93	7.291
335.14	6.347
335.35	7.346
335.56	9.934
335.76	7.178
335.97	9.444
336.18	8.051
336.39	10.483
336.60	8.984
336.80	8.348
337.01	8.303
337.22	8.186
337.43	10.167
337.64	10.038
337.84	8.746
338.05	8.907
338.26	9.936
338.47	11.840
338.68	8.293
338.88	10.751
339.09	9.552
339.30	8.675
339.51	8.879
339.71	11.956
339.92	8.495
340.13	10.694
340.34	9.545
340.55	8.066
340.75	9.258
340.96	10.184
341.17	10.181
341.38	9.328
341.58	11.370
341.79	8.947
342.00	8.368
342.21	9.646
342.41	9.216
342.62	11.678
342.83	10.418
343.04	9.047
343.24	11.642
343.45	13.112
343.66	12.259
343.87	11.349
344.07	10.550
344.28	14.578
344.49	13.779
344.70	15.103
344.90	11.211
345.11	10.874
345.32	14.791
345.53	13.102
345.73	14.388
345.94	17.374
346.15	18.187
346.36	14.304
346.56	14.992
346.77	18.468
346.98	16.270
347.19	17.221
347.39	18.623
347.60	17.790
347.81	19.633
348.02	19.393
348.22	16.364
348.43	18.826
348.64	16.582
348.84	20.685
349.05	20.222
349.26	23.816
349.47	19.828
349.67	20.969
349.88	24.434
350.09	24.453
350.30	25.761
350.50	26.569
350.71	26.561
350.92	25.763
351.12	26.925
351.33	26.808
351.54	25.814
351.74	28.954
351.95	26.132
352.16	31.246
352.37	30.131
352.57	32.612
352.78	30.216
352.99	32.992
353.19	29.779
353.40	35.394
353.61	34.409
353.82	35.899
354.02	35.881
354.23	35.579
354.44	38.466
354.64	38.388
354.85	38.027
355.06	38.488
355.26	35.353
355.47	39.690
355.68	43.453
355.88	41.628
356.09	39.411
356.30	39.870
356.51	42.179
356.71	43.374
356.92	41.281
357.13	43.345
357.33	44.571
357.54	43.847
357.75	41.816
357.95	44.358
358.16	43.611
358.37	46.466
358.57	42.826
358.78	47.706
358.99	45.511
359.19	44.926
359.40	46.381
359.61	47.905
359.81	46.652
360.02	48.462
360.23	48.360
360.43	46.805
360.64	46.736
360.85	47.559
361.05	47.005
361.26	49.153
361.47	46.861
361.67	48.988
361.88	45.528
362.09	47.500
362.29	46.575
362.50	46.580
362.70	46.556
362.91	49.268
363.12	47.942
363.32	47.958
363.53	48.785
363.74	49.286
363.94	48.514
364.15	50.631
364.36	48.794
364.56	49.981
364.77	49.642
364.98	51.645
365.18	48.585
365.39	49.528
365.59	49.754
365.80	50.982
366.01	48.802
366.21	49.888
366.42	49.654
366.63	49.528
366.83	48.634
367.04	49.182
367.24	49.775
367.45	50.509
367.66	47.397
367.86	47.873
368.07	49.482
368.28	50.057
368.48	49.421
368.69	48.060
368.89	49.297
369.10	49.501
369.31	48.810
369.51	50.943
369.72	47.765
369.92	49.635
370.13	47.345
370.34	50.445
370.54	46.329
370.75	50.369
370.95	47.181
371.16	48.341
371.37	48.542
371.57	48.616
371.78	46.941
371.98	48.622
372.19	49.202
372.40	47.865
372.60	47.080
372.81	48.056
373.01	46.336
373.22	47.024
373.43	48.964
373.63	49.316
373.84	49.191
374.04	48.870
374.25	47.001
374.46	48.339
374.66	49.560
374.87	49.071
375.07	45.571
375.28	48.327
375.48	47.346
375.69	48.890
375.90	44.568
376.10	47.517
376.31	47.128
376.51	48.000
376.72	45.169
376.92	46.659
377.13	47.337
377.34	46.854
377.54	47.118
377.75	47.348
377.95	45.289
378.16	48.173
378.36	46.776
378.57	47.424
378.77	46.087
378.98	46.192
379.19	47.684
379.39	48.103
379.60	47.251
379.80	46.653
380.01	45.619
380.21	46.528
380.42	45.689
380.62	46.703
380.83	46.519
381.04	46.190
381.24	46.006
381.45	45.673
381.65	45.964
381.86	46.238
382.06	46.269
382.27	44.702
382.47	44.550
382.68	45.607
382.88	44.995
383.09	44.695
383.29	45.704
383.50	46.224
383.71	45.065
383.91	45.199
384.12	43.893
384.32	46.083
384.53	44.324
384.73	45.370
384.94	43.175
385.14	43.724
385.35	42.490
385.55	44.525
385.76	45.204
385.96	45.024
386.17	45.699
386.37	44.481
386.58	44.732
386.78	45.238
386.99	44.201
387.19	44.825
387.40	44.229
387.60	44.124
387.81	43.697
388.01	45.548
388.22	44.517
388.42	45.059
388.63	43.880
388.83	44.496
389.04	43.852
389.24	45.670
389.45	44.525
389.65	42.714
389.86	43.554
390.06	42.614
390.27	43.288
390.47	45.136
390.68	44.082
390.88	43.512
391.09	44.967
391.29	43.543
391.50	43.787
391.70	44.152
391.91	42.920
392.11	42.814
392.32	44.096
392.52	42.959
392.73	42.138
392.93	43.015
393.14	41.978
393.34	43.442
393.55	42.663
393.75	43.560
393.95	43.123
394.16	43.520
394.36	43.136
394.57	43.339
394.77	43.335
394.98	43.079
395.18	42.376
395.39	41.812
395.59	42.608
395.80	43.069
396.00	42.791
396.21	42.699
396.41	41.785
396.61	42.405
396.82	43.503
397.02	44.315
397.23	42.912
397.43	42.627
397.64	41.105
397.84	43.700
398.05	41.386
398.25	42.886
398.45	41.129
398.66	42.125
398.86	41.374
399.07	42.084
399.27	41.975
399.48	41.552
399.68	40.664
399.89	42.132
400.09	42.933
400.29	42.247
400.50	40.301
400.70	41.457
400.91	40.516
401.11	41.203
401.32	42.114
401.52	41.283
401.72	40.816
401.93	41.160
402.13	40.338
402.34	41.738
402.54	40.140
402.75	42.494
402.95	40.193
403.15	40.978
403.36	40.968
403.56	40.876
403.77	39.215
403.97	40.582
404.17	38.508
404.38	39.500
404.58	38.483
404.79	39.641
404.99	40.951
405.19	38.892
405.40	38.823
405.60	39.085
405.81	38.899
406.01	39.710
406.21	39.685
406.42	39.338
406.62	38.718
406.83	39.462
407.03	38.735
407.23	38.719
407.44	39.493
407.64	39.285
407.85	37.956
408.05	38.208
408.25	39.820
408.46	40.002
408.66	38.424
408.87	38.722
409.07	39.009
409.27	38.646
409.48	38.542
409.68	39.524
409.88	38.016
410.09	38.953
410.29	38.619
410.50	38.133
410.70	36.778
410.90	38.452
411.11	37.670
411.31	38.237
411.51	38.310
411.72	37.786
411.92	37.136
412.12	37.759
412.33	36.941
412.53	37.613
412.74	37.741
412.94	38.340
413.14	37.632
413.35	37.266
413.55	37.170
413.75	36.666
413.96	36.461
414.16	36.635
414.36	37.177
414.57	37.202
414.77	36.650
414.97	37.636
415.18	36.482
415.38	36.511
415.58	35.969
415.79	37.185
415.99	35.379
416.19	36.036
416.40	35.170
416.60	36.112
416.80	34.978
417.01	36.425
417.21	35.911
417.41	35.979
417.62	35.890
417.82	34.771
418.02	34.890
418.23	35.571
418.43	35.032
418.63	35.207
418.84	35.189
419.04	34.447
419.24	34.468
419.45	34.482
419.65	34.424
419.85	34.411
420.06	33.952
420.26	34.867
420.46	33.710
420.67	33.884
420.87	33.581
421.07	34.482
421.28	33.714
421.48	34.058
421.68	34.019
421.88	34.127
422.09	34.683
422.29	33.537
422.49	33.993
422.70	33.749
422.90	34.046
423.10	33.904
423.31	34.053
423.51	34.335
423.71	33.776
423.91	33.643
424.12	33.765
424.32	34.123
424.52	33.340
424.73	33.045
424.93	33.514
425.13	33.350
425.33	33.568
425.54	33.290
425.74	33.282
425.94	33.581
426.15	34.211
426.35	33.490
426.55	34.233
426.75	34.014
426.96	33.674
427.16	33.833
427.36	34.329
427.57	33.897
427.77	33.832
427.97	34.390
428.17	33.982
428.38	33.640
428.58	33.347
428.78	34.464
428.98	33.464
429.19	33.938
429.39	33.773
429.59	34.210
429.79	33.831
430.00	33.050
430.20	33.096
430.40	33.545
430.60	33.583
430.81	33.285
431.01	32.302
431.21	33.471
431.41	32.486
431.62	33.264
431.82	32.889
432.02	34.075
432.22	33.229
432.43	32.598
432.63	32.914
432.83	32.817
433.03	32.385
433.24	33.048
433.44	31.985
433.64	32.676
433.84	32.487
434.05	32.495
434.25	32.160
434.45	32.285
434.65	32.790
434.85	32.940
435.06	32.467
435.26	32.557
435.46	32.579
435.66	32.611
435.87	33.152
436.07	33.247
436.27	33.026
436.47	33.471
436.67	33.452
436.88	33.399
437.08	33.130
437.28	34.036
437.48	32.933
437.69	32.371
437.89	33.438
438.09	33.055
438.29	32.709
438.49	32.752
438.70	33.124
438.90	32.491
439.10	32.031
439.30	32.175
439.50	32.262
439.71	32.123
439.91	31.858
440.11	32.121
440.31	31.883
440.51	32.147
440.72	32.347
440.92	32.142
441.12	31.764
441.32	32.079
441.52	32.512
441.72	31.678
441.93	32.503
442.13	32.493
442.33	32.429
442.53	33.045
442.73	33.380
442.94	32.764
443.14	33.056
443.34	32.439
443.54	32.685
443.74	32.885
443.94	33.029
444.15	32.439
444.35	32.421
444.55	32.631
444.75	32.872
444.95	32.883
445.15	32.249
445.36	32.476
445.56	31.908
445.76	32.013
445.96	31.720
446.16	32.269
446.36	31.877
446.57	31.703
446.77	31.379
446.97	31.318
447.17	32.186
447.37	31.439
447.57	31.937
447.77	31.420
447.98	31.551
448.18	32.401
448.38	32.650
448.58	32.198
448.78	32.273
448.98	32.492
449.18	32.328
449.39	32.229
449.59	32.241
449.79	32.796
449.99	32.948
450.19	32.653
450.39	33.041
450.59	32.837
450.79	33.060
451.00	32.173
451.20	32.983
451.40	32.908
451.60	32.938
451.80	32.672
452.00	32.913
452.20	33.200
452.40	32.700
452.61	32.035
452.81	32.610
453.01	31.943
453.21	32.401
453.41	31.931
453.61	31.630
453.81	32.308
454.01	31.736
454.21	32.350
454.42	32.504
454.62	32.381
454.82	31.842
455.02	31.807
455.22	32.303
455.42	33.125
455.62	32.309
455.82	32.177
456.02	32.169
456.23	32.354
456.43	32.392
456.63	32.574
456.83	32.442
457.03	32.588
457.23	32.611
457.43	32.681
457.63	31.869
457.83	32.365
458.03	31.611
458.23	32.069
458.43	31.381
458.64	31.895
458.84	32.073
459.04	31.316
459.24	31.211
459.44	31.265
459.64	30.590
459.84	30.661
460.04	30.644
460.24	30.259
460.44	30.211
460.64	31.124
460.84	30.831
461.04	31.089
461.24	30.670
461.45	31.243
461.65	31.108
461.85	31.128
462.05	31.800
462.25	31.695
462.45	31.855
462.65	31.666
462.85	31.926
463.05	32.280
463.25	31.767
463.45	31.060
463.65	32.288
463.85	31.126
464.05	31.951
464.25	31.888
464.45	32.044
464.65	31.782
464.85	31.513
465.05	31.172
465.26	31.256
465.46	31.383
465.66	31.253
465.86	31.517
466.06	32.014
466.26	31.122
466.46	31.208
466.66	30.876
466.86	31.986
467.06	30.521
467.26	31.310
467.46	31.469
467.66	31.241
467.86	31.318
468.06	31.258
468.26	31.177
468.46	31.213
468.66	31.812
468.86	31.928
469.06	31.803
469.26	31.840
469.46	31.561
469.66	32.042
469.86	31.362
470.06	31.090
470.26	31.629
470.46	31.258
470.66	31.487
470.86	30.871
471.06	31.375
471.26	30.715
471.46	31.310
471.66	31.253
471.86	31.885
472.06	31.506
472.26	31.628
472.46	31.436
472.66	31.182
472.86	31.625
473.06	31.134
473.26	31.569
473.46	31.982
473.66	31.474
473.86	31.422
474.06	31.778
474.26	30.962
474.46	31.357
474.66	31.680
474.86	31.931
475.06	31.821
475.26	31.956
475.46	31.946
475.66	31.268
475.86	32.245
476.06	32.460
476.26	32.303
476.46	31.310
476.66	31.314
476.86	30.697
477.06	31.237
477.26	30.957
477.46	31.803
477.65	31.673
477.85	32.020
478.05	30.894
478.25	31.143
478.45	31.249
478.65	30.775
478.85	31.192
479.05	31.400
479.25	31.403
479.45	31.324
479.65	31.574
479.85	32.465
480.05	31.415
480.25	31.184
480.45	31.734
480.65	31.692
480.85	31.849
481.05	31.865
481.25	31.759
481.44	31.848
481.64	30.902
481.84	31.015
482.04	31.350
482.24	31.091
482.44	31.377
482.64	30.567
482.84	30.833
483.04	30.376
483.24	30.325
483.44	30.020
483.64	29.157
483.84	29.191
484.04	29.491
484.23	29.641
484.43	30.071
484.63	30.631
484.83	30.796
485.03	30.777
485.23	31.371
485.43	31.322
485.63	31.867
485.83	31.966
486.03	32.378
486.23	32.251
486.42	31.840
486.62	31.896
486.82	31.652
487.02	31.255
487.22	31.215
487.42	30.481
487.62	30.396
487.82	30.531
488.02	30.727
488.22	30.628
488.41	30.602
488.61	30.604
488.81	30.589
489.01	31.209
489.21	31.231
489.41	31.352
489.61	31.533
489.81	31.645
490.01	31.871
490.20	31.614
490.40	32.057
490.60	32.205
490.80	31.617
491.00	31.462
491.20	31.235
491.40	30.411
491.60	30.149
491.79	30.441
491.99	30.176
492.19	30.304
492.39	30.684
492.59	30.539
492.79	30.671
492.99	31.001
493.19	31.285
493.38	31.547
493.58	31.509
493.78	32.150
493.98	32.524
494.18	32.314
494.38	32.252
494.58	32.114
494.77	31.588
494.97	32.088
495.17	31.772
495.37	31.315
495.57	32.226
495.77	31.446
495.96	31.952
496.16	31.820
496.36	30.768
496.56	31.087
496.76	30.853
496.96	31.063
497.15	30.977
497.35	30.888
497.55	31.419
497.75	31.405
497.95	31.221
498.15	30.649
498.34	31.416
498.54	31.127
498.74	31.840
498.94	31.838
499.14	31.330
499.34	31.542
499.53	31.769
499.73	31.869
499.93	31.299
500.13	31.684
500.33	32.154
500.52	31.867
500.72	32.029
500.92	31.957
501.12	32.228
501.32	32.082
501.52	32.317
501.71	32.074
501.91	32.184
502.11	32.526
502.31	32.087
502.51	32.118
502.70	31.854
502.90	32.122
503.10	32.341
503.30	32.077
503.50	32.583
503.69	32.442
503.89	32.694
504.09	31.870
504.29	32.232
504.48	32.195
504.68	32.098
504.88	31.794
505.08	32.073
505.28	32.568
505.47	32.880
505.67	32.552
505.87	32.273
506.07	32.493
506.27	32.898
506.46	32.790
506.66	32.738
506.86	33.030
507.06	32.797
507.25	33.299
507.45	32.536
507.65	32.292
507.85	32.002
508.04	32.627
508.24	32.116
508.44	32.124
508.64	32.232
508.83	32.159
509.03	31.914
509.23	32.211
509.43	32.763
509.63	32.489
509.82	32.485
510.02	32.527
510.22	32.549
510.42	32.365
510.61	32.729
510.81	32.529
511.01	32.191
511.21	32.773
511.40	32.729
511.60	32.991
511.80	32.777
511.99	32.714
512.19	32.746
512.39	32.697
512.59	32.383
512.78	32.907
512.98	32.693
513.18	32.686
513.38	32.624
513.57	32.696
513.77	33.346
513.97	32.775
514.17	32.864
514.36	33.561
514.56	33.198
514.76	33.722
514.95	32.821
515.15	33.144
515.35	33.683
515.55	33.195
515.74	33.044
515.94	33.610
516.14	33.327
516.33	33.278
516.53	33.745
516.73	33.397
516.93	33.793
517.12	33.531
517.32	33.133
517.52	32.974
517.71	32.759
517.91	32.770
518.11	32.484
518.30	32.275
518.50	32.821
518.70	32.091
518.90	32.580
519.09	32.980
519.29	32.576
519.49	32.477
519.68	32.824
519.88	33.066
520.08	33.048
520.27	33.207
520.47	33.061
520.67	33.292
520.86	33.489
521.06	33.597
521.26	33.347
521.45	33.564
521.65	33.259
521.85	33.611
522.04	33.898
522.24	33.497
522.44	33.553
522.63	33.922
522.83	34.136
523.03	33.333
523.22	32.711
523.42	33.949
523.62	33.794
523.81	33.516
524.01	33.813
524.21	33.956
524.40	33.319
524.60	33.159
524.80	33.529
524.99	32.963
525.19	33.520
525.39	32.828
525.58	33.270
525.78	32.531
525.98	33.129
526.17	32.907
526.37	33.334
526.57	33.186
526.76	32.992
526.96	32.828
527.15	33.014
527.35	33.421
527.55	33.150
527.74	33.525
527.94	33.067
528.14	32.472
528.33	31.962
528.53	31.714
528.72	32.127
528.92	32.373
529.12	32.644
529.31	32.571
529.51	32.851
529.71	33.153
529.90	33.337
530.10	33.774
530.29	33.696
530.49	33.948
530.69	34.234
530.88	34.548
531.08	33.934
531.28	33.700
531.47	34.131
531.67	34.070
531.86	34.060
532.06	34.090
532.26	34.045
532.45	33.433
532.65	33.260
532.84	33.055
533.04	32.787
533.24	32.719
533.43	32.835
533.63	32.941
533.82	33.308
534.02	33.212
534.22	33.271
534.41	33.353
534.61	33.450
534.80	33.721
535.00	34.276
535.19	34.255
535.39	34.420
535.59	34.766
535.78	34.537
535.98	34.168
536.17	34.323
536.37	34.104
536.57	33.267
536.76	33.647
536.96	33.738
537.15	33.572
537.35	33.618
537.54	33.702
537.74	34.238
537.93	34.235
538.13	34.073
538.33	34.550
538.52	34.857
538.72	34.169
538.91	35.200
539.11	34.897
539.30	34.820
539.50	34.810
539.70	34.494
539.89	34.671
540.09	34.638
540.28	34.196
540.48	33.991
540.67	33.537
540.87	33.484
541.06	33.711
541.26	33.335
541.45	33.059
541.65	33.350
541.85	33.775
542.04	33.599
542.24	33.827
542.43	34.105
542.63	33.892
542.82	34.160
543.02	34.531
543.21	34.769
543.41	34.729
543.60	35.419
543.80	35.782
543.99	34.763
544.19	35.301
544.38	34.923
544.58	34.938
544.77	35.177
544.97	35.615
545.16	34.969
545.36	35.350
545.56	35.303
545.75	35.447
545.95	35.352
546.14	35.214
546.34	35.142
546.53	35.562
546.73	34.735
546.92	35.700
547.12	35.180
547.31	35.713
547.51	36.126
547.70	35.318
547.90	35.907
548.09	35.613
548.29	35.991
548.48	36.112
548.68	35.587
548.87	36.599
549.07	35.857
549.26	36.066
549.46	36.394
549.65	37.025
549.84	36.680
550.04	36.769
550.23	37.300
550.43	36.699
550.62	37.342
550.82	37.394
551.01	37.105
551.21	36.758
551.40	37.400
551.60	36.981
551.79	36.941
551.99	38.138
552.18	36.692
552.38	36.868
552.57	36.887
552.77	36.917
552.96	36.519
553.16	37.115
553.35	36.801
553.54	37.077
553.74	36.461
553.93	37.749
554.13	37.310
554.32	37.751
554.52	37.762
554.71	37.769
554.91	37.945
555.10	38.148
555.29	38.157
555.49	38.381
555.68	38.259
555.88	38.536
556.07	38.844
556.27	38.735
556.46	38.514
556.66	38.242
556.85	39.106
557.04	38.718
557.24	39.113
557.43	38.888
557.63	38.789
557.82	38.903
558.02	39.284
558.21	39.100
558.40	39.740
558.60	39.714
558.79	39.406
558.99	39.063
559.18	38.672
559.38	39.128
559.57	39.306
559.76	39.806
559.96	40.016
560.15	39.373
560.35	39.485
560.54	39.963
560.73	39.494
560.93	39.616
561.12	39.299
561.32	39.529
561.51	39.824
561.70	39.547
561.90	39.464
562.09	39.546
562.29	38.843
562.48	40.068
562.67	39.551
562.87	39.787
563.06	39.197
563.26	39.960
563.45	40.029
563.64	40.345
563.84	40.636
564.03	40.141
564.23	40.165
564.42	40.074
564.61	40.221
564.81	40.794
565.00	39.967
565.20	40.573
565.39	39.902
565.58	40.202
565.78	39.672
565.97	39.727
566.16	40.674
566.36	39.491
566.55	40.298
566.74	39.795
566.94	40.366
567.13	39.874
567.33	39.464
567.52	40.226
567.71	40.224
567.91	40.868
568.10	40.386
568.29	40.599
568.49	40.425
568.68	41.404
568.87	40.463
569.07	41.503
569.26	40.963
569.45	40.906
569.65	40.359
569.84	40.974
570.04	40.636
570.23	40.684
570.42	41.009
570.62	41.182
570.81	40.993
571.00	40.791
571.20	40.821
571.39	41.130
571.58	40.894
571.78	40.771
571.97	40.879
572.16	40.470
572.36	40.877
572.55	40.440
572.74	41.219
572.94	40.694
573.13	41.172
573.32	41.358
573.51	41.212
573.71	41.215
573.90	40.876
574.09	41.251
574.29	41.487
574.48	41.687
574.67	41.731
574.87	42.144
575.06	40.608
575.25	41.231
575.45	40.969
575.64	41.457
575.83	40.925
576.03	42.152
576.22	41.569
576.41	41.242
576.60	41.580
576.80	41.399
576.99	41.610
577.18	41.851
577.38	41.805
577.57	41.652
577.76	41.591
577.95	42.214
578.15	41.825
578.34	42.696
578.53	41.715
578.73	42.013
578.92	42.443
579.11	42.582
579.30	41.812
579.50	42.478
579.69	41.883
579.88	41.548
580.08	43.328
580.27	42.628
580.46	42.258
580.65	42.817
580.85	42.631
581.04	41.976
581.23	41.894
581.42	42.803
581.62	42.665
581.81	42.489
582.00	41.647
582.19	42.005
582.39	42.288
582.58	42.125
582.77	42.153
582.96	42.903
583.16	41.396
583.35	42.104
583.54	43.510
583.73	42.096
583.93	42.293
584.12	42.291
584.31	42.427
584.50	42.852
584.70	41.853
584.89	42.213
585.08	42.728
585.27	42.610
585.47	42.240
585.66	41.760
585.85	42.571
586.04	43.116
586.24	43.073
586.43	42.168
586.62	41.923
586.81	41.839
587.00	41.834
587.20	41.768
587.39	42.200
587.58	42.092
587.77	42.321
587.97	41.420
588.16	42.444
588.35	41.688
588.54	41.423
588.73	41.604
588.93	42.192
589.12	41.049
589.31	42.276
589.50	41.321
589.69	41.558
589.89	42.166
590.08	41.096
590.27	42.309
590.46	39.892
590.65	41.082
590.85	41.662
591.04	40.556
591.23	41.882
591.42	41.545
591.61	41.923
591.81	41.911
592.00	42.086
592.19	41.553
592.38	41.823
592.57	41.620
592.77	42.072
592.96	42.294
593.15	41.998
593.34	41.382
593.53	42.148
593.72	41.462
593.92	41.473
594.11	41.575
594.30	41.844
594.49	41.485
594.68	40.785
594.87	42.372
595.07	41.081
595.26	40.388
595.45	42.054
595.64	41.355
595.83	42.069
596.02	41.743
596.22	41.508
596.41	40.824
596.60	40.628
596.79	40.919
596.98	41.107
597.17	40.768
597.37	40.089
597.56	40.618
597.75	40.401
597.94	41.456
598.13	41.341
598.32	41.579
598.51	40.582
598.71	41.475
598.90	41.363
599.09	41.497
599.28	42.784
599.47	42.363
599.66	41.305
599.85	42.377
600.05	42.303
600.24	41.740
600.43	42.343
600.62	42.167
600.81	42.028
601.00	43.154
601.19	42.244
601.38	42.022
601.58	43.019
601.77	42.220
601.96	42.101
602.15	42.132
602.34	42.957
602.53	42.724
602.72	42.253
602.91	42.750
603.10	42.189
603.30	41.940
603.49	42.164
603.68	42.068
603.87	41.938
604.06	41.513
604.25	42.372
604.44	40.900
604.63	40.984
604.82	40.859
605.01	41.804
605.21	41.486
605.40	40.385
605.59	41.105
605.78	41.571
605.97	41.392
606.16	42.050
606.35	42.121
606.54	41.316
606.73	42.475
606.92	41.497
607.11	41.892
607.30	41.502
607.50	42.721
607.69	42.367
607.88	41.275
608.07	42.522
608.26	41.784
608.45	42.919
608.64	42.365
608.83	41.366
609.02	41.859
609.21	41.619
609.40	41.325
609.59	41.729
609.78	40.664
609.97	41.438
610.16	41.324
610.35	41.332
610.55	41.135
610.74	41.357
610.93	41.185
611.12	41.768
611.31	41.157
611.50	41.605
611.69	41.284
611.88	41.581
612.07	42.043
612.26	42.536
612.45	41.818
612.64	41.944
612.83	43.034
613.02	42.522
613.21	42.334
613.40	41.944
613.59	43.042
613.78	42.791
613.97	42.909
614.16	42.383
614.35	42.810
614.54	41.778
614.73	42.766
614.92	43.454
615.11	41.735
615.30	42.463
615.49	42.105
615.68	42.155
615.87	41.405
616.07	42.075
616.26	42.383
616.45	41.925
616.64	41.866
616.83	42.113
617.02	41.296
617.21	41.592
617.40	42.200
617.59	40.965
617.78	40.560
617.97	40.098
618.16	41.554
618.35	40.079
618.54	41.313
618.73	40.807
618.92	40.814
619.11	40.744
619.30	41.225
619.49	40.491
619.68	41.146
619.86	41.059
620.05	40.468
620.24	40.565
620.43	40.824
620.62	39.892
620.81	40.834
621.00	41.685
621.19	41.223
621.38	41.200
621.57	40.299
621.76	40.696
621.95	40.620
622.14	40.738
622.33	40.441
622.52	39.693
622.71	39.981
622.90	40.774
623.09	40.037
623.28	39.797
623.47	41.246
623.66	41.252
623.85	40.278
624.04	40.037
624.23	40.468
624.42	40.359
624.61	40.444
624.80	41.051
624.99	40.839
625.18	40.621
625.36	40.844
625.55	40.526
625.74	39.663
625.93	40.370
626.12	39.713
626.31	40.579
626.50	39.572
626.69	39.246
626.88	39.652
627.07	39.997
627.26	39.819
627.45	39.293
627.64	39.286
627.83	38.898
628.02	39.069
628.20	39.936
628.39	39.444
628.58	39.654
628.77	39.715
628.96	39.980
629.15	39.090
629.34	39.169
629.53	39.179
629.72	39.439
629.91	39.611
630.10	40.947
630.29	40.293
630.47	40.901
630.66	40.249
630.85	40.089
631.04	41.548
631.23	41.095
631.42	40.058
631.61	39.715
631.80	41.098
631.99	40.732
632.18	40.463
632.36	40.524
632.55	40.956
632.74	39.910
632.93	40.289
633.12	40.913
633.31	39.998
633.50	39.997
633.69	39.921
633.88	39.930
634.06	40.426
634.25	40.634
634.44	39.132
634.63	39.135
634.82	39.182
635.01	40.634
635.20	38.979
635.39	39.038
635.57	39.447
635.76	40.426
635.95	40.064
636.14	39.641
636.33	39.500
636.52	40.596
636.71	39.046
636.89	38.062
637.08	40.134
637.27	39.164
637.46	39.943
637.65	39.901
637.84	40.337
638.03	39.401
638.21	39.897
638.40	39.014
638.59	40.126
638.78	39.390
638.97	39.853
639.16	39.442
639.34	39.680
639.53	39.139
639.72	39.040
639.91	39.670
640.10	39.086
640.29	40.076
640.47	39.608
640.66	39.939
640.85	39.574
641.04	40.097
641.23	39.037
641.42	38.314
641.60	38.614
641.79	39.197
641.98	39.022
642.17	39.726
642.36	38.271
642.54	39.863
642.73	39.912
642.92	39.176
643.11	39.950
643.30	40.167
643.49	39.470
643.67	38.614
643.86	39.066
644.05	40.037
644.24	38.661
644.43	38.895
644.61	40.186
644.80	39.281
644.99	40.002
645.18	38.906
645.37	39.064
645.55	39.205
645.74	39.428
645.93	39.471
646.12	39.545
646.31	39.814
646.49	39.681
646.68	39.955
646.87	38.692
647.06	39.817
647.24	40.157
647.43	38.719
647.62	40.600
647.81	40.028
648.00	38.158
648.18	39.807
648.37	39.329
648.56	39.529
648.75	40.331
648.93	38.978
649.12	38.492
649.31	39.541
649.50	38.570
649.68	39.395
649.87	37.936
650.06	38.056
650.25	38.300
650.43	38.343
650.62	39.191
650.81	38.490
651.00	38.110
651.18	38.648
651.37	39.535
651.56	39.257
651.75	38.466
651.93	38.436
652.12	38.345
652.31	37.671
652.50	38.419
652.68	37.579
652.87	39.383
653.06	38.229
653.25	38.382
653.43	39.039
653.62	38.728
653.81	37.542
654.00	38.741
654.18	37.843
654.37	38.523
654.56	37.003
654.74	39.025
654.93	38.000
655.12	39.668
655.31	38.374
655.49	39.555
655.68	38.732
655.87	37.259
656.05	38.474
656.24	37.057
656.43	37.447
656.62	37.603
656.80	37.395
656.99	37.027
657.18	37.469
657.36	37.926
657.55	36.956
657.74	37.014
657.93	35.367
658.11	36.727
658.30	36.873
658.49	36.057
658.67	37.427
658.86	33.973
659.05	35.355
659.23	35.144
659.42	34.565
659.61	35.430
659.79	34.274
659.98	35.384
660.17	35.318
660.35	33.918
660.54	36.403
660.73	35.838
660.91	34.201
661.10	34.649
661.29	35.082
661.47	34.464
661.66	34.538
661.85	35.236
662.03	35.080
662.22	34.111
662.41	34.141
662.59	33.960
662.78	33.461
662.97	33.474
663.15	33.855
663.34	33.614
663.53	34.417
663.71	33.824
663.90	33.341
664.09	34.000
664.27	34.135
664.46	32.974
664.65	32.980
664.83	32.347
665.02	31.927
665.21	33.058
665.39	31.324
665.58	33.830
665.77	31.122
665.95	33.859
666.14	31.503
666.32	32.536
666.51	32.091
666.70	32.368
666.88	31.516
667.07	31.965
667.26	30.310
667.44	30.633
667.63	31.789
667.81	30.445
668.00	30.730
668.19	32.000
668.37	30.851
668.56	31.031
668.75	28.943
668.93	31.485
669.12	29.970
669.30	31.050
669.49	29.941
669.68	30.543
669.86	30.174
670.05	32.151
670.23	29.035
670.42	30.993
670.61	30.240
670.79	30.821
670.98	29.185
671.16	31.176
671.35	30.497
671.54	29.914
671.72	30.414
671.91	32.223
672.09	28.522
672.28	30.588
672.46	29.976
672.65	32.048
672.84	30.572
673.02	31.724
673.21	30.957
673.39	30.742
673.58	30.213
673.77	31.426
673.95	30.393
674.14	30.522
674.32	29.937
674.51	31.799
674.69	30.586
674.88	32.403
675.07	31.852
675.25	32.760
675.44	30.600
675.62	31.461
675.81	30.256
675.99	34.958
676.18	33.118
676.36	31.960
676.55	29.674
676.74	32.662
676.92	32.016
677.11	31.862
677.29	30.179
677.48	34.148
677.66	32.333
677.85	33.816
678.03	32.264
678.22	33.717
678.40	32.353
678.59	32.683
678.78	31.032
678.96	33.218
679.15	32.745
679.33	32.870
679.52	32.477
679.70	32.717
679.89	33.530
680.07	32.418
680.26	31.642
680.44	32.531
680.63	32.108
680.81	32.709
681.00	31.214
681.18	32.737
681.37	33.289
681.55	34.170
681.74	33.465
681.92	34.007
682.11	33.184
682.29	33.669
682.48	32.294
682.66	33.914
682.85	32.761
683.03	33.825
683.22	35.037
683.40	34.384
683.59	35.191
683.77	35.495
683.96	33.598
684.14	35.810
684.33	33.912
684.51	35.752
684.70	36.400
684.88	37.844
685.07	34.587
685.25	36.876
685.44	36.105
685.62	39.028
685.81	36.982
685.99	37.076
686.18	34.929
686.36	38.393
686.55	36.774
686.73	39.135
686.92	36.933
687.10	38.279
687.29	38.828
687.47	39.580
687.65	38.003
687.84	38.598
688.02	38.883
688.21	40.835
688.39	37.910
688.58	39.366
688.76	38.428
688.95	37.970
689.13	38.524
689.32	39.860
689.50	40.184
689.68	42.248
689.87	40.483
690.05	41.092
690.24	41.012
690.42	42.750
690.61	42.622
690.79	42.147
690.98	41.162
691.16	42.978
691.34	42.194
691.53	43.153
691.71	41.710
691.90	44.051
692.08	42.942
692.27	45.998
692.45	44.620
692.63	43.967
692.82	45.780
693.00	45.139
693.19	45.942
693.37	45.492
693.56	44.268
693.74	47.049
693.92	47.461
694.11	45.881
694.29	43.590
694.48	48.065
694.66	49.957
694.84	47.901
695.03	47.737
695.21	48.195
695.40	48.322
695.58	47.115
695.76	49.555
695.95	49.787
696.13	48.117
696.32	50.142
696.50	50.051
696.68	49.414
696.87	48.952
697.05	49.951
697.24	47.955
697.42	51.578
697.60	49.969
697.79	49.437
697.97	50.345
698.16	49.755
698.34	47.546
698.52	48.412
698.71	48.697
698.89	48.081
699.07	48.462
699.26	47.908
699.44	47.839
699.63	48.394
699.81	47.560
699.99	49.271
700.18	50.021
700.36	48.573
700.54	48.673
700.73	50.406
700.91	50.444
701.09	50.426
701.28	51.807
701.46	51.015
701.64	51.040
701.83	51.843
702.01	52.467
702.20	53.894
702.38	53.213
702.56	53.295
702.75	53.488
702.93	54.594
703.11	53.408
703.30	54.416
703.48	54.453
703.66	55.213
703.85	55.301
704.03	55.684
704.21	56.885
704.40	57.236
704.58	55.080
704.76	54.852
704.95	56.935
705.13	54.553
705.31	56.658
705.50	56.992
705.68	56.408
705.86	56.297
706.04	56.678
706.23	58.096
706.41	58.392
706.59	58.151
706.78	57.320
706.96	56.319
707.14	56.406
707.33	57.157
707.51	56.228
707.69	57.534
707.88	55.231
708.06	56.719
708.24	58.523
708.42	57.317
708.61	58.330
708.79	56.410
708.97	58.118
709.16	57.820
709.34	59.587
709.52	58.534
709.71	58.077
709.89	57.185
710.07	55.949
710.25	56.903
710.44	57.540
710.62	58.326
710.80	57.795
710.98	59.246
711.17	58.163
711.35	57.992
711.53	58.044
711.72	57.200
711.90	58.378
712.08	57.070
712.26	57.165
712.45	58.510
712.63	57.546
712.81	57.816
712.99	54.784
713.18	57.590
713.36	58.744
713.54	57.344
713.72	55.688
713.91	59.621
714.09	56.269
714.27	58.612
714.45	59.224
714.64	56.643
714.82	57.515
715.00	58.503
715.18	56.380
715.37	56.993
715.55	56.781
715.73	58.229
715.91	58.621
716.10	56.549
716.28	55.347
716.46	57.544
716.64	55.720
716.83	59.589
717.01	56.891
717.19	58.077
717.37	57.388
717.55	56.256
717.74	57.110
717.92	55.716
718.10	57.956
718.28	58.419
718.47	55.746
718.65	58.053
718.83	56.524
719.01	59.962
719.19	56.327
719.38	58.395
719.56	59.106
719.74	58.136
719.92	59.104
720.10	57.935
720.29	57.822
720.47	58.828
720.65	59.482
720.83	60.141
721.01	58.459
721.20	59.679
721.38	62.875
721.56	62.042
721.74	60.592
721.92	61.222
722.11	60.847
722.29	60.713
722.47	61.053
722.65	61.786
722.83	63.877
723.01	59.076
723.20	62.968
723.38	60.838
723.56	61.124
723.74	64.210
723.92	60.396
724.10	63.512
724.29	60.113
724.47	62.772
724.65	60.926
724.83	62.915
725.01	58.573
725.19	60.791
725.38	61.142
725.56	64.480
725.74	63.375
725.92	61.265
726.10	62.110
726.28	63.659
726.46	65.377
726.65	60.680
726.83	62.017
727.01	63.149
727.19	59.419
727.37	61.759
727.55	61.865
727.73	62.603
727.92	64.635
728.10	59.722
728.28	60.808
728.46	63.662
728.64	62.003
728.82	61.636
729.00	61.161
729.19	61.418
729.37	62.588
729.55	61.526
729.73	59.991
729.91	60.564
730.09	59.061
730.27	60.448
730.45	59.922
730.63	60.696
730.82	59.475
731.00	59.981
731.18	60.307
731.36	61.610
731.54	60.843
731.72	60.886
731.90	63.823
732.08	61.953
732.26	61.354
732.45	63.096
732.63	65.258
732.81	61.936
732.99	64.887
733.17	63.857
733.35	61.903
733.53	63.691
733.71	61.106
733.89	62.576
734.07	61.836
734.25	64.115
734.44	63.824
734.62	63.638
734.80	62.738
734.98	62.795
735.16	63.967
735.34	64.249
735.52	65.008
735.70	67.771
735.88	65.005
736.06	66.189
736.24	69.133
736.42	69.811
736.60	66.280
736.78	68.485
736.97	69.760
737.15	68.842
737.33	70.444
737.51	67.267
737.69	69.545
737.87	68.704
738.05	67.749
738.23	66.760
738.41	68.748
738.59	67.229
738.77	67.862
738.95	68.907
739.13	67.878
739.31	66.877
739.49	71.555
739.67	68.324
739.85	66.085
740.03	69.659
740.21	67.467
740.39	69.592
740.57	68.411
740.75	68.233
740.93	67.287
741.11	68.486
741.30	67.811
741.48	72.744
741.66	75.060
741.84	72.836
742.02	68.761
742.20	70.352
742.38	66.434
742.56	73.447
742.74	70.832
742.92	73.671
743.10	72.018
743.28	72.188
743.46	69.780
743.64	75.652
743.82	70.815
744.00	73.206
744.18	72.228
744.36	71.905
744.54	72.011
744.72	73.741
744.90	74.116
745.08	73.869
745.26	71.746
745.44	72.955
745.62	72.481
745.80	73.108
745.98	73.067
746.16	75.720
746.34	76.012
746.52	74.896
746.70	73.905
746.87	79.487
747.05	79.179
747.23	73.424
747.41	77.070
747.59	76.514
747.77	74.070
747.95	76.434
748.13	73.485
748.31	77.588
748.49	76.146
748.67	74.851
748.85	74.118
749.03	75.359
749.21	71.434
749.39	76.071
749.57	71.671
749.75	72.834
749.93	72.471
750.11	74.368
750.29	71.094
750.47	75.684
750.65	76.601
750.83	72.889
751.01	73.699
751.18	76.139
751.36	71.479
751.54	76.040
751.72	73.758
751.90	73.313
752.08	73.132
752.26	77.406
752.44	74.973
752.62	75.210
752.80	72.585
752.98	76.856
753.16	75.152
753.34	70.769
753.52	70.878
753.69	74.938
753.87	72.283
754.05	74.390
754.23	74.174
754.41	75.469
754.59	75.660
754.77	75.562
754.95	73.138
755.13	79.553
755.31	80.129
755.49	73.845
755.66	72.771
755.84	72.205
756.02	73.488
756.20	75.230
756.38	76.111
756.56	76.417
756.74	76.802
756.92	75.367
757.10	75.141
757.28	76.740
757.45	76.906
757.63	76.800
757.81	76.614
757.99	79.036
758.17	75.186
758.35	78.197
758.53	78.564
758.71	72.834
758.88	67.803
759.06	72.382
759.24	68.813
759.42	65.897
759.60	63.655
759.78	66.068
759.96	61.439
760.13	63.221
760.31	56.940
760.49	56.001
760.67	54.780
760.85	55.604
761.03	55.400
761.21	56.697
761.38	52.772
761.56	60.217
761.74	55.745
761.92	55.961
762.10	55.298
762.28	58.347
762.46	56.918
762.63	56.016
762.81	57.984
762.99	55.206
763.17	53.755
763.35	54.982
763.53	54.321
763.70	56.415
763.88	54.756
764.06	54.117
764.24	52.992
764.42	54.727
764.60	57.146
764.77	54.064
764.95	54.734
765.13	57.694
765.31	56.622
765.49	56.149
765.66	58.842
765.84	59.664
766.02	60.698
766.20	62.184
766.38	62.230
766.56	63.999
766.73	63.337
766.91	64.810
767.09	68.383
767.27	65.559
767.45	70.616
767.62	69.067
767.80	68.620
767.98	70.088
768.16	68.266
768.33	72.784
768.51	69.610
768.69	73.772
768.87	75.984
769.05	69.454
769.22	79.144
769.40	78.458
769.58	76.248
769.76	79.693
769.94	76.152
770.11	75.664
770.29	76.364
770.47	79.257
770.65	78.745
770.82	79.955
771.00	79.473
771.18	76.878
771.36	80.741
771.53	80.543
771.71	76.098
771.89	81.212
772.07	75.150
772.25	83.830
772.42	77.798
772.60	78.722
772.78	81.200
772.96	81.494
773.13	85.627
773.31	78.582
773.49	77.284
773.67	80.392
773.84	78.624
774.02	79.717
774.20	78.142
774.37	85.554
774.55	79.165
774.73	82.179
774.91	78.964
775.08	81.457
775.26	82.483
775.44	83.536
775.62	84.426
775.79	83.028
775.97	84.882
776.15	82.962
776.32	80.619
776.50	84.981
776.68	83.040
776.86	89.176
777.03	80.666
777.21	83.440
777.39	80.064
777.56	80.960
777.74	77.366
777.92	82.340
778.10	80.529
778.27	90.632
778.45	81.142
778.63	82.264
778.80	85.083
778.98	80.125
779.16	87.898
779.34	81.401
779.51	86.707
779.69	78.993
779.87	81.288
780.04	81.633
780.22	79.046
780.40	87.771
780.57	88.902
780.75	81.945
780.93	82.503
781.10	82.650
781.28	83.575
781.46	85.390
781.63	84.661
781.81	83.998
781.99	77.556
782.16	82.350
782.34	81.901
782.52	83.400
782.69	82.550
782.87	87.286
783.05	79.687
783.22	82.596
783.40	84.195
783.58	84.875
783.75	86.393
783.93	86.752
784.11	82.158
784.28	91.677
784.46	79.660
784.64	84.461
784.81	82.462
784.99	90.920
785.17	85.298
785.34	81.818
785.52	85.464
785.69	80.759
785.87	77.757
786.05	89.057
786.22	78.923
786.40	89.126
786.58	76.667
786.75	83.965
786.93	87.204
787.11	78.443
787.28	85.651
787.46	82.631
787.63	79.054
787.81	76.443
787.99	75.786
788.16	74.777
788.34	76.354
788.51	74.502
788.69	72.113
788.87	73.785
789.04	77.037
789.22	77.354
789.39	72.558
789.57	68.931
789.75	72.245
789.92	75.898
790.10	73.799
790.27	76.017
790.45	72.015
790.63	73.891
790.80	72.811
790.98	73.010
791.15	74.912
791.33	77.270
791.51	77.968
791.68	73.916
791.86	76.508
792.03	75.667
792.21	75.065
792.39	77.510
792.56	77.409
792.74	75.887
792.91	78.502
793.09	72.523
793.26	74.243
793.44	75.384
793.62	82.685
793.79	81.867
793.97	83.915
794.14	80.271
794.32	74.510
794.49	78.984
794.67	73.301
794.84	75.507
795.02	74.202
795.20	81.146
795.37	77.643
795.55	80.234
795.72	82.405
795.90	85.675
796.07	77.980
796.25	74.311
796.42	80.388
796.60	76.143
796.77	76.417
796.95	82.147
797.13	67.945
797.30	78.316
797.48	74.680
797.65	78.121
797.83	75.090
798.00	75.060
798.18	71.931
798.35	85.696
798.53	79.216
798.70	76.463
798.88	75.155
799.05	74.198
799.23	77.462
799.40	76.309
799.58	73.197
799.75	74.221
799.93	72.681
800.10	74.640
800.28	73.619
800.45	74.658
800.63	69.721
800.80	80.543
800.98	78.252
801.15	77.012
801.33	74.220
801.50	80.767
801.68	75.396
801.85	73.194
802.03	72.988
802.20	84.156
802.38	69.993
802.55	71.802
802.73	71.348
802.90	71.053
803.08	71.279
803.25	83.539
803.43	75.000
803.60	78.347
803.78	79.622
803.95	78.427
804.13	78.571
804.30	75.862
804.48	69.888
804.65	76.518
804.83	80.829
805.00	68.364
805.17	86.397
805.35	75.965
805.52	75.450
805.70	71.910
805.87	83.726
806.05	76.412
806.22	67.438
806.40	70.819
806.57	77.094
806.75	74.366
806.92	79.729
807.09	77.770
807.27	75.873
807.44	71.755
807.62	71.959
807.79	71.789
807.97	76.346
808.14	78.635
808.31	71.261
808.49	74.753
808.66	75.433
808.84	70.861
809.01	75.608
809.19	71.344
809.36	86.301
809.53	76.026
809.71	68.287
809.88	75.859
810.06	81.516
810.23	77.284
810.41	78.873
810.58	82.423
810.75	77.330
810.93	79.574
811.10	74.772
811.28	76.684
811.45	76.093
811.62	74.419
811.80	77.831
811.97	76.281
812.15	75.591
812.32	68.291
812.49	74.977
812.67	74.786
812.84	75.793
813.02	77.730
813.19	70.043
813.36	71.323
813.54	69.107
813.71	75.637
813.89	72.462
814.06	69.658
814.23	66.039
814.41	71.216
814.58	65.141
814.75	70.557
814.93	64.438
815.10	63.662
815.28	71.540
815.45	72.228
815.62	64.286
815.80	63.415
815.97	67.967
816.14	72.314
816.32	68.893
816.49	61.812
816.66	60.781
816.84	68.261
817.01	70.199
817.18	66.901
817.36	66.057
817.53	73.447
817.71	62.263
817.88	67.063
818.05	60.804
818.23	66.728
818.40	59.113
818.57	63.158
818.75	63.325
818.92	59.985
819.09	61.354
819.27	64.222
819.44	69.576
819.61	63.393
819.79	64.560
819.96	68.406
820.13	64.199
820.31	63.481
820.48	64.681
820.65	61.294
820.82	55.214
821.00	61.802
821.17	53.170
821.34	59.057
821.52	52.707
821.69	53.007
821.86	55.287
822.04	49.583
822.21	53.687
822.38	52.279
822.56	51.433
822.73	51.963
822.90	50.008
823.07	50.799
823.25	47.571
823.42	48.416
823.59	49.541
823.77	52.074
823.94	50.503
824.11	50.507
824.29	49.356
824.46	51.528
824.63	51.124
824.80	52.591
824.98	52.428
825.15	51.306
825.32	50.538
825.49	52.765
825.67	52.973
825.84	55.632
826.01	50.085
826.19	53.495
826.36	53.863
826.53	57.811
826.70	54.717
826.88	55.039
827.05	52.730
827.22	53.188
827.39	51.168
827.57	51.245
827.74	50.940
827.91	52.412
828.08	50.857
828.26	51.556
828.43	51.110
828.60	54.458
828.77	50.843
828.95	52.105
829.12	48.753
829.29	49.858
829.46	53.223
829.64	53.197
829.81	49.396
829.98	56.425
830.15	54.231
830.32	56.269
830.50	51.068
830.67	61.661
830.84	54.508
831.01	50.000
831.19	54.045
831.36	59.209
831.53	61.323
831.70	65.286
831.87	62.110
832.05	66.404
832.22	67.231
832.39	56.381
832.56	51.486
832.74	56.057
832.91	51.937
833.08	64.687
833.25	54.346
833.42	59.192
833.60	52.500
833.77	48.910
833.94	48.469
834.11	49.928
834.28	49.478
834.45	50.950
834.63	48.669
834.80	52.425
834.97	50.469
835.14	54.249
835.31	55.080
835.49	51.636
835.66	50.630
835.83	51.878
836.00	52.494
836.17	51.969
836.34	55.125
836.52	55.200
836.69	56.176
836.86	49.790
837.03	57.878
837.20	56.793
837.37	56.594
837.55	53.171
837.72	60.768
837.89	65.034
838.06	67.488
838.23	69.479
838.40	68.164
838.58	65.341
838.75	68.536
838.92	63.503
839.09	88.595
839.26	72.801
839.43	78.029
839.60	84.224
839.78	90.564
839.95	69.905
840.12	70.455
840.29	77.284
840.46	71.473
840.63	69.126
840.80	63.404
840.98	75.182
841.15	66.354
841.32	60.456
841.49	54.390
841.66	74.593
841.83	62.550
842.00	63.123
842.17	79.977
842.34	69.752
842.52	77.875
842.69	71.785
842.86	77.139
843.03	83.863
843.20	82.385
843.37	72.756
843.54	82.473
843.71	87.246
843.88	88.045
844.06	97.196
844.23	95.893
844.40	87.156
844.57	88.167
844.74	88.007
844.91	107.627
845.08	97.884
845.25	85.992
845.42	88.910
845.59	99.167
845.76	97.872
845.94	133.575
846.11	96.383
846.28	120.109
846.45	95.372
846.62	106.145
846.79	104.941
846.96	86.842
847.13	90.805
847.30	110.897
847.47	87.838
847.64	91.983
847.81	113.508
847.98	104.462
848.15	108.355
848.32	114.416
848.50	113.443
848.67	99.132
848.84	123.114
849.01	116.949
849.18	111.136
849.35	129.056
849.52	100.611
849.69	99.259
849.86	139.952
850.03	100.206
850.20	124.229
850.37	107.931
850.54	117.805
850.71	119.492
850.88	102.655
851.05	97.847
851.22	110.891
851.39	96.976
851.56	104.950
851.73	134.943
851.90	125.743
852.07	97.150
852.24	116.210
852.41	105.983
852.58	118.586
852.75	98.633
852.92	86.104
853.09	113.984
853.26	115.476
853.43	109.489
853.60	132.849
853.77	101.966
853.94	93.789
854.11	123.416
854.28	111.253
854.45	96.352
854.62	101.008
854.79	119.890
854.96	98.387
855.13	124.460
855.30	96.347
855.47	121.646
855.64	92.835
855.81	94.235
855.98	103.889
856.15	122.135
856.32	125.589
856.49	114.103
856.66	136.859
856.83	96.594
857.00	95.355
857.17	126.882
857.34	92.553
857.51	119.624
857.68	142.105
857.85	125.788
858.02	118.433
858.19	135.256
858.36	102.299
858.53	103.593
858.70	103.886
858.87	121.605
859.04	100.278
859.21	88.761
859.38	123.261
859.55	111.340
859.72	125.414
859.89	116.201
860.05	107.617
860.22	109.295
860.39	124.695
860.56	110.638
860.73	115.059
860.90	121.944
861.07	103.380
861.24	96.659
861.41	123.861
861.58	88.235
861.75	119.811
861.92	121.498
862.09	120.207
862.26	100.718
862.43	104.839
862.59	117.921
862.76	112.733
862.93	135.946
863.10	104.348
863.27	94.237
863.44	101.185
863.61	97.239
863.78	105.405
863.95	108.377
864.12	99.540
864.29	118.457
864.45	117.813
864.62	93.103
864.79	119.794
864.96	95.400
865.13	100.000
865.30	103.951
865.47	88.841
865.64	95.263
865.81	90.349
865.97	105.047
866.14	98.684
866.31	103.385
866.48	108.642
866.65	90.551
866.82	111.944
866.99	111.940
867.16	111.080
867.33	121.944
867.49	145.714
867.66	102.078
867.83	112.129
868.00	108.889
868.17	94.192
868.34	110.989
868.51	96.375
868.67	112.317
868.84	110.847
869.01	139.677
869.18	92.027
869.35	120.968
869.52	84.123
869.69	122.350
869.85	89.637
870.02	119.128
870.19	125.879
870.36	121.846
870.53	85.915
870.70	106.612
870.86	110.000
871.03	95.924
871.20	101.913
871.37	116.456
871.54	114.080
871.71	87.961
871.87	108.943
872.04	96.196
872.21	84.483
872.38	112.500
872.55	113.521
872.72	78.474
872.88	99.504
873.05	92.140
873.22	138.723
873.39	113.904
873.56	118.261
873.72	78.010
873.89	97.727
874.06	103.226
874.23	90.114
874.40	111.043
874.56	112.575
874.73	86.902
874.90	93.606
875.07	100.673
875.24	112.405
875.40	84.018
875.57	104.213
875.74	88.169
875.91	79.075
876.08	109.552
876.24	100.542
876.41	126.346
876.58	112.500
876.75	115.211
876.92	112.418
877.08	79.449
877.25	72.589
877.42	100.000
877.59	89.614
877.75	123.121
877.92	97.606
878.09	87.206
878.26	103.655
878.42	107.059
878.59	98.939
878.76	75.062
878.93	88.862
879.09	91.948
879.26	96.467
879.43	97.973
879.60	96.709
879.76	67.992
879.93	85.768
880.10	60.569
880.27	74.379
880.43	70.644
880.60	63.256
880.77	57.596
880.94	60.892
881.10	45.671
881.27	50.096
881.44	42.974
881.61	46.495
881.77	50.396
881.94	46.580
882.11	36.232
882.28	38.837
882.44	40.909
882.61	44.908
882.78	40.807
882.94	48.484
883.11	44.254
883.28	45.274
883.45	43.017
883.61	44.472
883.78	41.756
883.95	46.318
884.11	46.772
884.28	46.022
>>>>>End Processed Spectral Data<<<<<
