SpectraSuite Data File
++++++++++++++++++++++++++++++++++++
Date: Mon Sep 23 04:50:09 EST 2019
User: sgrac
Dark Spectrum Present: Yes
Reference Spectrum Present: Yes
Number of Sampled Component Spectra: 1
Spectrometers: USB4E01596
Integration Time (usec): 100000 (USB4E01596)
Spectra Averaged: 3 (USB4E01596)
Boxcar Smoothing: 0 (USB4E01596)
Correct for Electrical Dark: No (USB4E01596)
Strobe/Lamp Enabled: Yes (USB4E01596)
Correct for Detector Non-linearity: No (USB4E01596)
Correct for Stray Light: No (USB4E01596)
Number of Pixels in Processed Spectrum: 3648
>>>>>Begin Processed Spectral Data<<<<<
178.44	1869.231
178.66	1869.231
178.87	1869.231
179.09	10133.333
179.30	-5825.000
179.52	-964.516
179.74	-707.547
179.95	702.273
180.17	-680.556
180.38	529.825
180.60	-2836.364
180.82	908.889
181.03	4133.333
181.25	-2791.667
181.46	-1256.000
181.68	1516.667
181.89	-690.909
182.11	-2356.250
182.33	-2393.750
182.54	775.000
182.76	4566.667
182.97	-685.106
183.19	1720.000
183.40	267.769
183.62	421.795
183.84	356.364
184.05	4657.143
184.27	513.636
184.48	566.667
184.70	2047.059
184.91	1471.429
185.13	3240.000
185.34	-15800.000
185.56	1276.923
185.78	369.444
185.99	1022.222
186.21	386.364
186.42	-7400.000
186.64	2760.000
186.85	-7100.000
187.07	658.000
187.28	421.053
187.50	600.000
187.72	361.538
187.93	869.091
188.15	376.042
188.36	556.579
188.58	606.122
188.79	323.077
189.01	466.197
189.22	908.108
189.44	-1000.000
189.65	329.661
189.87	-7850.000
190.09	633.333
190.30	1007.143
190.52	608.333
190.73	882.609
190.95	-5133.333
191.16	441.667
191.38	501.351
191.59	510.294
191.81	553.226
192.02	2280.000
192.24	953.125
192.45	1026.471
192.67	-1612.500
192.88	479.245
193.10	545.902
193.31	1002.500
193.53	295.161
193.74	397.333
193.96	2135.714
194.18	1153.846
194.39	2380.000
194.61	473.973
194.82	1727.273
195.04	385.366
195.25	-514.035
195.47	-557.407
195.68	4416.667
195.90	769.091
196.11	486.567
196.33	31100.000
196.54	1031.707
196.76	2150.000
196.97	548.052
197.19	856.757
197.40	2900.000
197.62	317.431
197.83	1064.516
198.05	763.636
198.26	1006.897
198.48	478.873
198.69	565.000
198.91	1566.667
199.12	830.233
199.34	817.391
199.55	517.143
199.77	2210.526
199.98	926.471
200.20	477.632
200.41	530.645
200.63	330.973
200.84	2300.000
201.06	3033.333
201.27	817.073
201.49	569.014
201.70	-1046.667
201.91	490.278
202.13	535.593
202.34	662.069
202.56	-1180.000
202.77	586.667
202.99	6083.333
203.20	-4337.500
203.42	2762.500
203.63	465.789
203.85	5966.667
204.06	600.000
204.28	347.475
204.49	651.852
204.71	494.915
204.92	1276.923
205.14	0.000
205.35	1163.333
205.56	-1780.000
205.78	7500.000
205.99	-2235.714
206.21	16850.000
206.42	738.636
206.64	1209.677
206.85	937.037
207.07	-3144.444
207.28	503.448
207.50	863.043
207.71	1019.355
207.93	353.012
208.14	-1062.963
208.35	541.818
208.57	1408.000
208.78	-3377.778
209.00	381.915
209.21	-12400.000
209.43	-10400.000
209.64	-1873.333
209.86	365.979
210.07	446.512
210.28	566.197
210.50	1079.310
210.71	600.000
210.93	250.735
211.14	459.551
211.36	2193.750
211.57	480.303
211.78	568.571
212.00	501.176
212.21	561.429
212.43	933.333
212.64	438.298
212.86	458.108
213.07	388.991
213.29	-813.889
213.50	419.565
213.71	411.494
213.93	454.878
214.14	2354.545
214.36	538.235
214.57	401.266
214.78	860.000
215.00	369.792
215.21	1116.667
215.43	921.622
215.64	468.254
215.86	406.250
216.07	851.429
216.28	792.105
216.50	330.833
216.71	28500.000
216.93	581.818
217.14	1411.111
217.35	304.545
217.57	349.550
217.78	417.284
218.00	380.808
218.21	1421.739
218.42	757.447
218.64	619.643
218.85	604.000
219.07	1325.000
219.28	383.178
219.49	619.608
219.71	466.154
219.92	235.821
220.14	348.454
220.35	464.000
220.56	397.701
220.78	409.615
220.99	300.806
221.21	352.688
221.42	391.358
221.63	193.064
221.85	609.231
222.06	421.429
222.28	423.077
222.49	345.045
222.70	274.803
222.92	667.347
223.13	477.049
223.34	246.099
223.56	350.000
223.77	346.250
223.99	404.211
224.20	378.571
224.41	373.973
224.63	448.864
224.84	260.135
225.05	156.410
225.27	294.783
225.48	321.569
225.69	236.842
225.91	409.459
226.12	272.093
226.34	240.268
226.55	153.957
226.76	230.000
226.98	150.588
227.19	158.203
227.40	286.719
227.62	192.593
227.83	186.695
228.04	128.212
228.26	91.517
228.47	101.983
228.69	80.457
228.90	69.936
229.11	81.942
229.33	64.577
229.54	48.005
229.75	65.390
229.97	46.299
230.18	61.348
230.39	39.712
230.61	49.793
230.82	67.305
231.03	45.583
231.25	57.827
231.46	55.882
231.67	69.332
231.89	70.195
232.10	58.448
232.31	69.207
232.53	64.007
232.74	86.542
232.95	75.318
233.17	76.600
233.38	67.227
233.59	77.922
233.81	86.594
234.02	72.745
234.23	59.397
234.45	98.090
234.66	84.292
234.87	80.943
235.09	67.685
235.30	50.613
235.51	69.395
235.73	71.058
235.94	60.087
236.15	70.717
236.36	66.355
236.58	55.850
236.79	56.047
237.00	58.944
237.22	63.605
237.43	58.493
237.64	56.850
237.86	64.850
238.07	72.852
238.28	66.452
238.50	59.459
238.71	61.871
238.92	53.594
239.13	64.576
239.35	60.653
239.56	53.357
239.77	82.575
239.99	51.622
240.20	73.546
240.41	63.989
240.63	42.588
240.84	53.731
241.05	43.047
241.26	43.658
241.48	45.833
241.69	36.819
241.90	32.140
242.12	34.253
242.33	44.188
242.54	38.098
242.75	31.986
242.97	42.302
243.18	28.714
243.39	28.788
243.61	36.100
243.82	40.476
244.03	39.480
244.24	35.787
244.46	36.197
244.67	41.453
244.88	37.043
245.09	40.699
245.31	41.831
245.52	37.071
245.73	36.155
245.95	56.855
246.16	34.777
246.37	30.580
246.58	30.744
246.80	29.885
247.01	38.610
247.22	29.826
247.43	35.843
247.65	35.816
247.86	32.291
248.07	28.709
248.28	35.894
248.50	35.985
248.71	34.201
248.92	39.141
249.13	37.389
249.35	40.111
249.56	38.018
249.77	39.551
249.98	34.912
250.20	40.273
250.41	39.570
250.62	41.179
250.83	32.526
251.05	37.004
251.26	28.483
251.47	30.839
251.68	34.500
251.90	33.130
252.11	31.813
252.32	31.622
252.53	35.959
252.75	28.439
252.96	32.871
253.17	31.297
253.38	28.882
253.59	32.024
253.81	30.452
254.02	28.422
254.23	34.695
254.44	29.849
254.66	27.432
254.87	29.282
255.08	34.714
255.29	35.930
255.50	25.414
255.72	33.929
255.93	40.135
256.14	44.607
256.35	29.122
256.57	38.860
256.78	34.736
256.99	30.556
257.20	45.052
257.41	34.519
257.63	32.440
257.84	33.480
258.05	32.281
258.26	29.565
258.47	31.403
258.69	30.589
258.90	21.877
259.11	31.014
259.32	26.554
259.53	25.938
259.75	25.917
259.96	24.621
260.17	25.172
260.38	28.322
260.59	28.649
260.81	30.488
261.02	30.677
261.23	31.436
261.44	33.308
261.65	31.955
261.87	31.051
262.08	32.635
262.29	33.783
262.50	31.984
262.71	26.372
262.92	33.497
263.14	26.627
263.35	28.794
263.56	29.360
263.77	29.153
263.98	28.571
264.20	33.444
264.41	22.733
264.62	27.145
264.83	20.559
265.04	34.491
265.25	24.146
265.47	30.296
265.68	26.613
265.89	27.115
266.10	19.509
266.31	33.140
266.52	26.079
266.74	24.830
266.95	21.423
267.16	26.454
267.37	25.355
267.58	24.635
267.79	25.627
268.01	25.760
268.22	27.303
268.43	28.178
268.64	28.519
268.85	25.467
269.06	22.711
269.27	33.449
269.49	24.902
269.70	26.772
269.91	27.329
270.12	23.816
270.33	28.586
270.54	23.142
270.75	18.566
270.97	28.720
271.18	20.019
271.39	23.933
271.60	25.912
271.81	25.383
272.02	23.422
272.23	29.274
272.45	24.247
272.66	22.034
272.87	23.862
273.08	24.212
273.29	30.139
273.50	27.766
273.71	26.923
273.92	24.940
274.14	24.275
274.35	27.184
274.56	27.037
274.77	27.859
274.98	28.579
275.19	27.939
275.40	22.959
275.61	25.115
275.83	27.254
276.04	29.713
276.25	28.296
276.46	27.796
276.67	28.962
276.88	30.679
277.09	24.691
277.30	28.394
277.51	24.504
277.73	24.412
277.94	22.751
278.15	28.559
278.36	27.192
278.57	24.761
278.78	22.212
278.99	27.620
279.20	25.048
279.41	29.107
279.62	23.467
279.84	24.556
280.05	22.000
280.26	20.551
280.47	24.509
280.68	25.601
280.89	20.285
281.10	26.935
281.31	22.309
281.52	29.619
281.73	18.936
281.94	20.811
282.16	24.580
282.37	22.762
282.58	19.891
282.79	29.801
283.00	28.111
283.21	23.897
283.42	22.512
283.63	25.690
283.84	21.173
284.05	25.204
284.26	22.426
284.47	25.862
284.68	23.351
284.89	23.794
285.11	23.803
285.32	19.594
285.53	24.674
285.74	26.810
285.95	23.774
286.16	24.233
286.37	22.213
286.58	23.305
286.79	22.392
287.00	23.873
287.21	21.605
287.42	23.868
287.63	23.677
287.84	23.819
288.05	24.262
288.26	21.891
288.48	25.305
288.69	20.681
288.90	22.855
289.11	26.545
289.32	23.016
289.53	24.382
289.74	18.522
289.95	20.903
290.16	25.158
290.37	20.529
290.58	18.322
290.79	20.520
291.00	20.000
291.21	19.356
291.42	18.584
291.63	20.250
291.84	23.846
292.05	17.999
292.26	20.895
292.47	20.067
292.68	17.138
292.89	21.972
293.10	22.029
293.31	20.872
293.52	14.750
293.73	17.919
293.94	18.981
294.15	15.513
294.36	19.740
294.57	19.972
294.79	17.683
295.00	15.809
295.21	20.850
295.42	20.542
295.63	20.509
295.84	17.904
296.05	16.713
296.26	17.294
296.47	18.496
296.68	19.657
296.89	22.973
297.10	20.927
297.31	18.841
297.52	18.180
297.73	20.436
297.94	21.780
298.15	19.085
298.36	20.695
298.57	18.206
298.78	21.981
298.99	18.711
299.20	21.842
299.41	20.671
299.62	20.535
299.83	17.384
300.04	20.646
300.25	21.042
300.46	21.507
300.67	19.752
300.88	20.061
301.09	15.431
301.30	19.762
301.50	15.467
301.71	21.972
301.92	19.893
302.13	17.546
302.34	17.875
302.55	15.714
302.76	16.206
302.97	18.127
303.18	16.667
303.39	16.232
303.60	16.746
303.81	18.970
304.02	14.924
304.23	18.000
304.44	13.319
304.65	15.588
304.86	17.323
305.07	16.540
305.28	15.468
305.49	19.711
305.70	19.064
305.91	16.996
306.12	16.108
306.33	16.266
306.54	16.474
306.75	16.389
306.96	22.444
307.17	17.906
307.38	14.339
307.58	17.123
307.79	16.888
308.00	15.349
308.21	14.536
308.42	16.802
308.63	14.678
308.84	15.193
309.05	14.113
309.26	13.261
309.47	16.804
309.68	18.020
309.89	17.200
310.10	15.957
310.31	16.349
310.52	14.947
310.73	21.136
310.94	12.479
311.14	14.673
311.35	15.948
311.56	15.612
311.77	14.558
311.98	14.685
312.19	15.782
312.40	13.506
312.61	15.602
312.82	15.873
313.03	16.048
313.24	16.742
313.45	17.540
313.66	14.483
313.86	19.982
314.07	14.251
314.28	17.037
314.49	13.156
314.70	17.197
314.91	17.866
315.12	15.350
315.33	16.579
315.54	13.036
315.75	12.945
315.96	11.609
316.16	13.730
316.37	16.152
316.58	13.637
316.79	15.100
317.00	16.989
317.21	15.537
317.42	16.681
317.63	15.280
317.84	14.835
318.05	15.541
318.25	16.043
318.46	14.208
318.67	13.186
318.88	16.870
319.09	17.319
319.30	13.363
319.51	15.248
319.72	15.754
319.93	13.283
320.13	14.747
320.34	16.292
320.55	15.182
320.76	16.498
320.97	16.117
321.18	16.473
321.39	13.133
321.60	14.330
321.80	19.575
322.01	14.312
322.22	13.503
322.43	12.665
322.64	13.712
322.85	16.589
323.06	16.366
323.27	14.311
323.47	15.962
323.68	14.727
323.89	15.202
324.10	15.408
324.31	12.091
324.52	14.946
324.73	19.031
324.93	14.353
325.14	16.816
325.35	15.864
325.56	12.037
325.77	16.450
325.98	16.395
326.19	14.016
326.39	12.473
326.60	13.910
326.81	13.965
327.02	11.948
327.23	13.789
327.44	16.797
327.64	11.569
327.85	10.555
328.06	15.896
328.27	18.572
328.48	15.591
328.69	11.878
328.90	13.254
329.10	13.449
329.31	13.608
329.52	13.165
329.73	16.204
329.94	13.439
330.15	17.085
330.35	17.007
330.56	14.902
330.77	14.312
330.98	11.931
331.19	12.870
331.39	13.235
331.60	14.191
331.81	11.823
332.02	14.644
332.23	13.584
332.44	13.522
332.64	13.985
332.85	12.784
333.06	15.677
333.27	11.901
333.48	14.454
333.68	13.580
333.89	14.345
334.10	12.087
334.31	15.592
334.52	13.665
334.72	14.135
334.93	13.417
335.14	12.317
335.35	12.599
335.56	15.455
335.76	10.890
335.97	15.226
336.18	10.438
336.39	14.778
336.60	13.197
336.80	12.382
337.01	12.372
337.22	13.168
337.43	13.122
337.64	15.917
337.84	13.792
338.05	13.409
338.26	17.473
338.47	15.826
338.68	10.281
338.88	12.871
339.09	12.154
339.30	13.775
339.51	14.894
339.71	15.499
339.92	12.404
340.13	12.570
340.34	13.308
340.55	12.976
340.75	13.715
340.96	11.638
341.17	14.265
341.38	13.145
341.58	13.678
341.79	12.883
342.00	10.952
342.21	12.579
342.41	10.636
342.62	11.451
342.83	14.575
343.04	10.305
343.24	13.534
343.45	14.382
343.66	11.841
343.87	12.212
344.07	10.798
344.28	13.958
344.49	12.832
344.70	14.760
344.90	10.413
345.11	10.416
345.32	12.086
345.53	12.458
345.73	13.201
345.94	14.948
346.15	14.117
346.36	12.016
346.56	13.749
346.77	14.243
346.98	11.764
347.19	13.898
347.39	11.790
347.60	12.729
347.81	13.088
348.02	14.511
348.22	11.357
348.43	13.060
348.64	10.828
348.84	12.335
349.05	12.920
349.26	15.520
349.47	9.855
349.67	11.737
349.88	14.702
350.09	13.684
350.30	15.271
350.50	13.318
350.71	14.461
350.92	13.811
351.12	13.661
351.33	13.288
351.54	12.987
351.74	13.304
351.95	12.073
352.16	14.994
352.37	14.005
352.57	12.836
352.78	13.533
352.99	13.705
353.19	12.575
353.40	14.060
353.61	16.509
353.82	15.677
354.02	16.302
354.23	14.979
354.44	18.761
354.64	16.100
354.85	15.484
355.06	15.466
355.26	14.762
355.47	16.158
355.68	16.296
355.88	18.579
356.09	17.407
356.30	16.711
356.51	18.405
356.71	18.332
356.92	15.592
357.13	20.091
357.33	20.520
357.54	19.522
357.75	16.353
357.95	20.973
358.16	18.727
358.37	22.035
358.57	19.082
358.78	22.834
358.99	20.745
359.19	21.385
359.40	22.696
359.61	22.069
359.81	23.000
360.02	25.109
360.23	21.769
360.43	22.261
360.64	22.706
360.85	23.298
361.05	23.777
361.26	25.231
361.47	24.374
361.67	27.067
361.88	24.097
362.09	26.950
362.29	25.581
362.50	26.769
362.70	25.381
362.91	28.484
363.12	26.613
363.32	27.712
363.53	28.174
363.74	28.799
363.94	28.806
364.15	29.832
364.36	30.123
364.56	28.833
364.77	28.879
364.98	29.442
365.18	28.934
365.39	30.682
365.59	28.418
365.80	29.480
366.01	30.879
366.21	29.799
366.42	28.325
366.63	31.950
366.83	29.400
367.04	28.194
367.24	31.980
367.45	30.695
367.66	29.640
367.86	31.991
368.07	30.589
368.28	30.508
368.48	30.622
368.69	30.287
368.89	30.840
369.10	31.350
369.31	29.783
369.51	32.760
369.72	32.548
369.92	32.516
370.13	30.767
370.34	30.799
370.54	27.012
370.75	32.035
370.95	29.623
371.16	31.518
371.37	30.973
371.57	30.612
371.78	30.803
371.98	31.707
372.19	31.866
372.40	32.419
372.60	32.312
372.81	32.697
373.01	30.411
373.22	31.902
373.43	33.045
373.63	32.443
373.84	32.427
374.04	32.279
374.25	32.027
374.46	31.922
374.66	30.726
374.87	32.979
375.07	29.522
375.28	31.543
375.48	31.046
375.69	32.318
375.90	29.121
376.10	30.546
376.31	30.791
376.51	30.966
376.72	31.261
376.92	30.153
377.13	30.950
377.34	31.463
377.54	30.808
377.75	32.632
377.95	30.056
378.16	31.838
378.36	31.981
378.57	31.976
378.77	30.730
378.98	31.848
379.19	30.227
379.39	30.983
379.60	29.976
379.80	32.169
380.01	31.964
380.21	31.213
380.42	31.488
380.62	30.654
380.83	30.312
381.04	31.153
381.24	30.519
381.45	30.806
381.65	29.162
381.86	30.485
382.06	31.041
382.27	31.055
382.47	30.182
382.68	32.129
382.88	29.977
383.09	30.260
383.29	30.546
383.50	31.508
383.71	29.704
383.91	30.751
384.12	29.676
384.32	30.127
384.53	30.163
384.73	30.048
384.94	30.223
385.14	30.137
385.35	29.317
385.55	30.558
385.76	29.109
385.96	29.116
386.17	29.714
386.37	30.928
386.58	29.787
386.78	32.050
386.99	28.832
387.19	30.969
387.40	29.785
387.60	31.082
387.81	29.416
388.01	29.796
388.22	29.653
388.42	31.354
388.63	30.207
388.83	31.423
389.04	28.800
389.24	30.745
389.45	30.000
389.65	29.477
389.86	29.551
390.06	29.786
390.27	29.613
390.47	29.039
390.68	28.533
390.88	30.021
391.09	29.554
391.29	30.898
391.50	29.501
391.70	29.865
391.91	29.655
392.11	29.542
392.32	29.171
392.52	29.790
392.73	28.766
392.93	30.487
393.14	29.193
393.34	29.142
393.55	29.624
393.75	30.302
393.95	29.271
394.16	30.675
394.36	29.467
394.57	30.451
394.77	28.448
394.98	29.500
395.18	28.824
395.39	29.283
395.59	29.441
395.80	30.381
396.00	30.118
396.21	30.462
396.41	29.063
396.61	29.959
396.82	28.807
397.02	31.143
397.23	29.377
397.43	29.692
397.64	28.196
397.84	30.266
398.05	28.336
398.25	30.076
398.45	29.416
398.66	28.093
398.86	29.640
399.07	29.821
399.27	28.702
399.48	29.407
399.68	27.998
399.89	28.286
400.09	28.787
400.29	27.763
400.50	28.745
400.70	29.169
400.91	28.002
401.11	28.590
401.32	29.125
401.52	27.959
401.72	27.617
401.93	29.983
402.13	27.586
402.34	28.448
402.54	27.374
402.75	28.944
402.95	27.489
403.15	28.731
403.36	27.689
403.56	29.051
403.77	27.291
403.97	27.143
404.17	26.776
404.38	28.099
404.58	27.243
404.79	28.364
404.99	27.196
405.19	28.845
405.40	27.747
405.60	27.451
405.81	27.662
406.01	27.540
406.21	27.559
406.42	29.201
406.62	27.036
406.83	27.756
407.03	28.067
407.23	27.698
407.44	27.070
407.64	27.997
407.85	26.953
408.05	27.304
408.25	27.116
408.46	28.039
408.66	27.323
408.87	27.537
409.07	26.745
409.27	26.576
409.48	26.819
409.68	27.866
409.88	25.234
410.09	26.214
410.29	26.165
410.50	27.169
410.70	26.417
410.90	26.171
411.11	26.169
411.31	26.953
411.51	26.720
411.72	27.412
411.92	26.887
412.12	26.901
412.33	26.220
412.53	26.240
412.74	25.481
412.94	26.980
413.14	26.524
413.35	26.336
413.55	26.709
413.75	27.059
413.96	25.951
414.16	25.863
414.36	25.509
414.57	27.500
414.77	25.587
414.97	26.086
415.18	25.685
415.38	26.192
415.58	24.887
415.79	25.870
415.99	24.929
416.19	25.922
416.40	25.068
416.60	25.412
416.80	24.875
417.01	25.118
417.21	24.585
417.41	25.810
417.62	25.028
417.82	25.496
418.02	24.605
418.23	25.382
418.43	25.149
418.63	24.750
418.84	24.933
419.04	24.773
419.24	25.148
419.45	24.796
419.65	24.514
419.85	25.156
420.06	24.721
420.26	24.705
420.46	24.542
420.67	24.711
420.87	24.690
421.07	24.036
421.28	24.743
421.48	24.692
421.68	24.525
421.88	24.329
422.09	24.673
422.29	24.588
422.49	24.337
422.70	24.029
422.90	24.592
423.10	25.046
423.31	24.416
423.51	24.232
423.71	24.561
423.91	24.997
424.12	24.458
424.32	24.367
424.52	24.326
424.73	24.129
424.93	24.830
425.13	24.234
425.33	24.018
425.54	24.030
425.74	24.659
425.94	24.390
426.15	24.949
426.35	24.764
426.55	24.955
426.75	25.070
426.96	24.987
427.16	24.697
427.36	25.259
427.57	25.270
427.77	25.406
427.97	24.920
428.17	25.195
428.38	25.088
428.58	25.067
428.78	25.695
428.98	24.805
429.19	24.859
429.39	24.923
429.59	25.238
429.79	24.385
430.00	24.682
430.20	24.692
430.40	25.549
430.60	25.162
430.81	24.468
431.01	24.810
431.21	24.953
431.41	24.952
431.62	25.128
431.82	24.996
432.02	25.385
432.22	24.581
432.43	25.649
432.63	25.400
432.83	24.904
433.03	24.676
433.24	24.487
433.44	24.502
433.64	24.760
433.84	25.037
434.05	25.001
434.25	25.184
434.45	25.750
434.65	25.222
434.85	25.836
435.06	25.648
435.26	25.373
435.46	26.006
435.66	26.096
435.87	25.922
436.07	25.756
436.27	25.966
436.47	25.492
436.67	25.854
436.88	25.900
437.08	25.216
437.28	25.606
437.48	26.088
437.69	26.101
437.89	25.548
438.09	25.432
438.29	25.590
438.49	25.841
438.70	26.029
438.90	25.680
439.10	25.314
439.30	25.117
439.50	25.262
439.71	26.131
439.91	25.797
440.11	26.258
440.31	25.756
440.51	25.509
440.72	25.359
440.92	25.241
441.12	26.053
441.32	26.216
441.52	26.306
441.72	25.924
441.93	26.076
442.13	26.285
442.33	26.285
442.53	26.289
442.73	25.730
442.94	26.021
443.14	26.857
443.34	26.561
443.54	26.676
443.74	26.500
443.94	26.565
444.15	25.949
444.35	26.917
444.55	26.183
444.75	25.882
444.95	26.366
445.15	25.808
445.36	25.650
445.56	25.908
445.76	26.048
445.96	25.606
446.16	25.758
446.36	25.800
446.57	26.122
446.77	25.755
446.97	25.577
447.17	26.561
447.37	26.700
447.57	26.489
447.77	26.590
447.98	26.464
448.18	26.644
448.38	26.825
448.58	27.123
448.78	26.878
448.98	26.558
449.18	26.678
449.39	27.134
449.59	26.591
449.79	27.207
449.99	27.340
450.19	27.449
450.39	27.563
450.59	27.009
450.79	27.249
451.00	26.966
451.20	28.673
451.40	27.290
451.60	26.935
451.80	27.207
452.00	26.650
452.20	26.877
452.40	26.514
452.61	26.967
452.81	27.018
453.01	26.578
453.21	26.876
453.41	26.360
453.61	27.106
453.81	27.521
454.01	26.591
454.21	27.354
454.42	27.109
454.62	27.101
454.82	26.570
455.02	26.896
455.22	26.901
455.42	26.551
455.62	26.840
455.82	27.041
456.02	27.021
456.23	26.835
456.43	26.697
456.63	26.387
456.83	26.534
457.03	26.919
457.23	26.967
457.43	27.125
457.63	26.024
457.83	26.737
458.03	26.555
458.23	26.476
458.43	26.531
458.64	26.230
458.84	27.023
459.04	26.591
459.24	26.129
459.44	26.229
459.64	25.762
459.84	25.470
460.04	26.203
460.24	25.753
460.44	26.154
460.64	26.370
460.84	26.493
461.04	26.039
461.24	26.923
461.45	26.484
461.65	26.822
461.85	27.464
462.05	26.802
462.25	26.756
462.45	27.234
462.65	26.861
462.85	27.242
463.05	26.916
463.25	26.573
463.45	27.292
463.65	26.922
463.85	26.795
464.05	26.761
464.25	27.287
464.45	26.764
464.65	26.819
464.85	27.112
465.05	26.858
465.26	26.923
465.46	26.987
465.66	26.889
465.86	27.463
466.06	26.915
466.26	26.608
466.46	26.780
466.66	26.904
466.86	27.052
467.06	26.485
467.26	27.127
467.46	26.864
467.66	26.941
467.86	26.967
468.06	27.015
468.26	27.169
468.46	26.435
468.66	27.076
468.86	27.783
469.06	27.660
469.26	27.194
469.46	27.656
469.66	27.496
469.86	27.321
470.06	27.442
470.26	27.286
470.46	27.400
470.66	27.714
470.86	27.327
471.06	27.342
471.26	27.511
471.46	26.970
471.66	28.016
471.86	28.013
472.06	27.746
472.26	28.063
472.46	28.119
472.66	28.312
472.86	27.979
473.06	27.897
473.26	27.625
473.46	27.866
473.66	27.558
473.86	28.295
474.06	27.975
474.26	28.218
474.46	28.292
474.66	28.480
474.86	28.372
475.06	28.844
475.26	28.531
475.46	28.980
475.66	28.207
475.86	28.690
476.06	28.605
476.26	28.751
476.46	29.052
476.66	28.291
476.86	28.860
477.06	29.276
477.26	29.267
477.46	28.644
477.65	28.654
477.85	29.119
478.05	28.764
478.25	29.650
478.45	29.552
478.65	28.992
478.85	28.928
479.05	29.115
479.25	29.918
479.45	29.474
479.65	29.922
479.85	29.147
480.05	30.091
480.25	29.470
480.45	29.955
480.65	30.452
480.85	29.850
481.05	29.477
481.25	29.855
481.44	30.038
481.64	29.502
481.84	29.674
482.04	29.365
482.24	29.146
482.44	29.359
482.64	28.778
482.84	29.126
483.04	28.824
483.24	28.488
483.44	27.903
483.64	27.690
483.84	27.623
484.04	28.016
484.23	28.308
484.43	29.023
484.63	29.507
484.83	30.143
485.03	31.513
485.23	31.242
485.43	30.880
485.63	30.715
485.83	30.510
486.03	30.775
486.23	30.877
486.42	30.574
486.62	29.863
486.82	29.760
487.02	29.626
487.22	29.473
487.42	29.256
487.62	29.448
487.82	28.821
488.02	29.147
488.22	29.436
488.41	29.709
488.61	29.759
488.81	29.975
489.01	30.166
489.21	30.562
489.41	30.372
489.61	30.487
489.81	30.695
490.01	30.390
490.20	30.689
490.40	30.270
490.60	30.845
490.80	30.651
491.00	30.295
491.20	29.674
491.40	29.418
491.60	29.182
491.79	29.543
491.99	29.377
492.19	29.637
492.39	29.667
492.59	29.759
492.79	30.078
492.99	29.925
493.19	30.265
493.38	30.556
493.58	30.893
493.78	31.212
493.98	31.049
494.18	31.432
494.38	31.251
494.58	31.600
494.77	31.170
494.97	31.506
495.17	30.956
495.37	30.776
495.57	31.577
495.77	31.431
495.96	31.036
496.16	31.316
496.36	31.059
496.56	30.551
496.76	30.687
496.96	30.620
497.15	31.120
497.35	30.340
497.55	30.977
497.75	30.596
497.95	30.509
498.15	30.969
498.34	30.782
498.54	30.785
498.74	31.401
498.94	30.988
499.14	31.130
499.34	31.110
499.53	30.949
499.73	30.991
499.93	31.057
500.13	31.186
500.33	31.101
500.52	31.265
500.72	31.312
500.92	31.382
501.12	31.462
501.32	30.838
501.52	32.229
501.71	31.676
501.91	31.074
502.11	31.168
502.31	31.238
502.51	31.175
502.70	31.229
502.90	31.600
503.10	31.371
503.30	31.704
503.50	31.521
503.69	31.070
503.89	31.827
504.09	31.256
504.29	32.245
504.48	31.651
504.68	31.389
504.88	31.575
505.08	31.693
505.28	31.571
505.47	31.559
505.67	31.577
505.87	31.520
506.07	32.122
506.27	31.624
506.46	31.756
506.66	31.499
506.86	32.009
507.06	32.225
507.25	31.566
507.45	31.923
507.65	31.629
507.85	31.923
508.04	31.806
508.24	32.156
508.44	31.814
508.64	31.404
508.83	31.509
509.03	31.595
509.23	31.001
509.43	31.241
509.63	31.218
509.82	31.292
510.02	32.033
510.22	31.455
510.42	31.873
510.61	31.773
510.81	31.435
511.01	31.949
511.21	32.162
511.40	31.585
511.60	31.616
511.80	31.711
511.99	31.819
512.19	31.839
512.39	31.676
512.59	31.923
512.78	31.771
512.98	31.669
513.18	32.238
513.38	31.642
513.57	31.905
513.77	32.106
513.97	32.167
514.17	31.934
514.36	32.105
514.56	32.282
514.76	32.375
514.95	32.170
515.15	32.076
515.35	32.570
515.55	32.330
515.74	32.882
515.94	32.689
516.14	32.167
516.33	32.290
516.53	32.536
516.73	32.081
516.93	32.186
517.12	31.991
517.32	31.916
517.52	31.922
517.71	31.750
517.91	31.711
518.11	31.733
518.30	31.381
518.50	31.519
518.70	31.406
518.90	31.200
519.09	31.403
519.29	31.676
519.49	31.571
519.68	31.468
519.88	32.170
520.08	31.733
520.27	32.118
520.47	32.061
520.67	32.038
520.86	32.657
521.06	32.567
521.26	32.194
521.45	32.195
521.65	32.685
521.85	32.109
522.04	32.222
522.24	31.983
522.44	32.549
522.63	31.880
522.83	32.393
523.03	32.715
523.22	32.518
523.42	32.529
523.62	32.108
523.81	32.338
524.01	32.077
524.21	32.226
524.40	32.412
524.60	31.977
524.80	31.351
524.99	31.620
525.19	31.560
525.39	31.431
525.58	31.596
525.78	31.491
525.98	31.340
526.17	31.282
526.37	31.650
526.57	31.091
526.76	31.776
526.96	31.282
527.15	31.695
527.35	31.601
527.55	31.418
527.74	31.486
527.94	30.981
528.14	30.725
528.33	30.299
528.53	30.327
528.72	30.610
528.92	31.038
529.12	31.365
529.31	31.404
529.51	31.494
529.71	31.825
529.90	31.951
530.10	32.044
530.29	32.383
530.49	32.625
530.69	32.921
530.88	32.605
531.08	32.648
531.28	32.380
531.47	32.012
531.67	32.579
531.86	32.105
532.06	31.926
532.26	31.701
532.45	31.781
532.65	31.393
532.84	31.350
533.04	31.049
533.24	30.736
533.43	31.020
533.63	31.342
533.82	31.738
534.02	31.409
534.22	32.007
534.41	31.608
534.61	32.066
534.80	31.940
535.00	32.232
535.19	32.283
535.39	32.826
535.59	32.587
535.78	31.979
535.98	32.181
536.17	31.881
536.37	31.370
536.57	31.769
536.76	32.031
536.96	31.945
537.15	32.009
537.35	31.840
537.54	31.866
537.74	32.161
537.93	31.942
538.13	32.255
538.33	31.968
538.52	32.365
538.72	32.531
538.91	32.837
539.11	32.461
539.30	32.825
539.50	32.412
539.70	32.696
539.89	32.446
540.09	32.023
540.28	31.530
540.48	31.424
540.67	31.223
540.87	31.013
541.06	30.866
541.26	31.154
541.45	31.363
541.65	31.445
541.85	31.739
542.04	31.380
542.24	31.910
542.43	32.103
542.63	32.534
542.82	32.383
543.02	32.303
543.21	32.911
543.41	32.922
543.60	33.108
543.80	32.822
543.99	32.836
544.19	32.725
544.38	32.619
544.58	32.795
544.77	32.930
544.97	32.883
545.16	32.738
545.36	32.875
545.56	33.109
545.75	32.340
545.95	33.039
546.14	32.497
546.34	32.794
546.53	32.700
546.73	32.410
546.92	32.815
547.12	32.881
547.31	32.448
547.51	32.963
547.70	32.501
547.90	33.092
548.09	32.528
548.29	33.116
548.48	33.401
548.68	33.336
548.87	33.370
549.07	33.538
549.26	33.637
549.46	33.584
549.65	33.957
549.84	33.783
550.04	33.654
550.23	33.536
550.43	33.404
550.62	33.610
550.82	34.219
551.01	34.226
551.21	33.891
551.40	33.605
551.60	33.843
551.79	33.637
551.99	33.549
552.18	34.102
552.38	33.559
552.57	33.634
552.77	33.001
552.96	33.814
553.16	33.818
553.35	33.717
553.54	34.149
553.74	33.343
553.93	33.911
554.13	34.631
554.32	34.099
554.52	34.720
554.71	34.154
554.91	34.694
555.10	34.501
555.29	33.693
555.49	34.934
555.68	35.038
555.88	34.131
556.07	34.935
556.27	34.548
556.46	34.541
556.66	34.583
556.85	35.079
557.04	34.601
557.24	35.395
557.43	35.061
557.63	34.776
557.82	35.104
558.02	35.159
558.21	35.072
558.40	34.974
558.60	35.389
558.79	35.644
558.99	34.812
559.18	34.752
559.38	35.354
559.57	36.157
559.76	35.486
559.96	36.202
560.15	35.495
560.35	35.989
560.54	35.246
560.73	35.222
560.93	34.988
561.12	35.348
561.32	35.154
561.51	35.843
561.70	35.917
561.90	35.531
562.09	35.834
562.29	35.666
562.48	35.825
562.67	36.216
562.87	36.118
563.06	36.335
563.26	35.969
563.45	36.234
563.64	35.896
563.84	36.273
564.03	35.885
564.23	36.155
564.42	37.149
564.61	35.872
564.81	35.900
565.00	36.061
565.20	35.833
565.39	36.422
565.58	35.770
565.78	35.895
565.97	35.841
566.16	36.678
566.36	36.055
566.55	36.705
566.74	36.378
566.94	36.792
567.13	36.837
567.33	36.302
567.52	36.496
567.71	37.327
567.91	36.914
568.10	37.318
568.29	36.874
568.49	37.628
568.68	37.020
568.87	37.311
569.07	37.258
569.26	37.536
569.45	36.711
569.65	36.918
569.84	36.490
570.04	37.509
570.23	36.809
570.42	37.538
570.62	37.575
570.81	36.677
571.00	37.021
571.20	37.188
571.39	37.376
571.58	37.319
571.78	36.855
571.97	36.629
572.16	37.059
572.36	37.445
572.55	36.541
572.74	37.808
572.94	36.825
573.13	37.791
573.32	37.546
573.51	37.880
573.71	37.335
573.90	36.971
574.09	37.908
574.29	37.449
574.48	37.518
574.67	37.667
574.87	37.508
575.06	37.534
575.25	37.466
575.45	37.467
575.64	37.694
575.83	37.805
576.03	38.433
576.22	38.323
576.41	38.210
576.60	37.717
576.80	37.757
576.99	38.552
577.18	38.335
577.38	37.964
577.57	38.140
577.76	38.425
577.95	38.136
578.15	38.083
578.34	38.742
578.53	38.399
578.73	38.082
578.92	38.011
579.11	37.650
579.30	38.296
579.50	38.657
579.69	38.169
579.88	38.205
580.08	38.513
580.27	38.485
580.46	38.008
580.65	37.851
580.85	38.965
581.04	38.481
581.23	38.374
581.42	37.741
581.62	38.850
581.81	38.230
582.00	39.144
582.19	38.075
582.39	38.219
582.58	38.334
582.77	38.848
582.96	38.377
583.16	37.683
583.35	38.929
583.54	38.645
583.73	39.500
583.93	37.941
584.12	38.389
584.31	38.364
584.50	38.137
584.70	39.120
584.89	37.851
585.08	38.494
585.27	38.818
585.47	38.628
585.66	38.433
585.85	38.703
586.04	38.710
586.24	38.883
586.43	38.570
586.62	39.252
586.81	38.926
587.00	38.220
587.20	38.684
587.39	38.784
587.58	39.311
587.77	38.560
587.97	38.444
588.16	38.562
588.35	38.277
588.54	38.424
588.73	38.379
588.93	38.087
589.12	37.804
589.31	38.581
589.50	37.532
589.69	38.622
589.89	38.488
590.08	38.050
590.27	38.326
590.46	38.658
590.65	38.566
590.85	38.285
591.04	38.131
591.23	38.804
591.42	38.607
591.61	38.596
591.81	38.486
592.00	38.087
592.19	39.217
592.38	39.106
592.57	38.782
592.77	38.839
592.96	38.584
593.15	39.374
593.34	38.303
593.53	39.317
593.72	39.739
593.92	38.629
594.11	38.904
594.30	39.040
594.49	39.212
594.68	38.206
594.87	38.657
595.07	38.412
595.26	38.888
595.45	38.244
595.64	38.607
595.83	38.868
596.02	38.564
596.22	39.485
596.41	37.638
596.60	38.197
596.79	38.904
596.98	38.390
597.17	38.517
597.37	38.634
597.56	38.870
597.75	38.831
597.94	39.292
598.13	39.195
598.32	38.834
598.51	39.132
598.71	39.501
598.90	39.078
599.09	40.061
599.28	39.748
599.47	39.922
599.66	39.381
599.85	39.977
600.05	39.473
600.24	39.363
600.43	39.621
600.62	40.101
600.81	39.701
601.00	39.809
601.19	39.615
601.38	40.920
601.58	40.484
601.77	39.783
601.96	39.142
602.15	39.467
602.34	40.117
602.53	40.338
602.72	40.595
602.91	39.188
603.10	40.058
603.30	39.866
603.49	40.104
603.68	40.036
603.87	39.199
604.06	39.454
604.25	40.058
604.44	39.344
604.63	40.177
604.82	39.721
605.01	40.566
605.21	39.407
605.40	39.791
605.59	39.857
605.78	40.271
605.97	39.751
606.16	40.475
606.35	40.304
606.54	40.750
606.73	40.076
606.92	39.987
607.11	40.029
607.30	40.692
607.50	40.345
607.69	40.661
607.88	39.919
608.07	40.284
608.26	39.718
608.45	40.438
608.64	40.858
608.83	40.514
609.02	39.929
609.21	39.271
609.40	39.207
609.59	40.680
609.78	39.994
609.97	39.949
610.16	39.869
610.35	39.422
610.55	39.465
610.74	40.113
610.93	40.423
611.12	39.875
611.31	39.851
611.50	40.305
611.69	39.821
611.88	40.892
612.07	39.450
612.26	39.534
612.45	39.722
612.64	40.550
612.83	40.420
613.02	39.820
613.21	39.616
613.40	39.939
613.59	40.146
613.78	39.147
613.97	39.823
614.16	39.546
614.35	40.218
614.54	39.105
614.73	39.831
614.92	39.413
615.11	40.540
615.30	40.295
615.49	38.607
615.68	40.113
615.87	39.804
616.07	38.524
616.26	40.516
616.45	40.996
616.64	39.097
616.83	39.039
617.02	39.698
617.21	39.200
617.40	38.194
617.59	40.016
617.78	39.249
617.97	39.262
618.16	39.372
618.35	39.155
618.54	39.618
618.73	38.266
618.92	39.598
619.11	38.877
619.30	39.383
619.49	38.787
619.68	38.784
619.86	39.920
620.05	39.863
620.24	38.390
620.43	39.317
620.62	38.565
620.81	39.087
621.00	38.544
621.19	39.461
621.38	39.117
621.57	39.221
621.76	38.911
621.95	38.974
622.14	38.821
622.33	38.747
622.52	38.989
622.71	39.972
622.90	38.876
623.09	39.024
623.28	38.615
623.47	38.186
623.66	37.971
623.85	39.581
624.04	38.597
624.23	38.055
624.42	39.169
624.61	38.572
624.80	39.447
624.99	38.399
625.18	38.386
625.36	39.460
625.55	39.288
625.74	38.142
625.93	37.969
626.12	38.228
626.31	38.422
626.50	38.699
626.69	37.443
626.88	38.460
627.07	38.481
627.26	37.586
627.45	37.105
627.64	38.285
627.83	37.668
628.02	38.022
628.20	38.558
628.39	38.097
628.58	37.949
628.77	38.409
628.96	38.668
629.15	38.299
629.34	37.629
629.53	37.832
629.72	38.159
629.91	38.162
630.10	37.892
630.29	37.012
630.47	38.704
630.66	38.184
630.85	38.175
631.04	37.793
631.23	38.437
631.42	37.826
631.61	38.063
631.80	37.630
631.99	37.318
632.18	38.180
632.36	37.745
632.55	37.419
632.74	37.350
632.93	37.635
633.12	38.067
633.31	37.648
633.50	37.449
633.69	37.355
633.88	38.240
634.06	36.836
634.25	38.552
634.44	37.456
634.63	37.651
634.82	38.311
635.01	38.457
635.20	37.180
635.39	38.299
635.57	38.720
635.76	37.398
635.95	37.640
636.14	36.505
636.33	37.076
636.52	37.808
636.71	37.621
636.89	37.633
637.08	37.193
637.27	37.122
637.46	37.364
637.65	36.980
637.84	37.299
638.03	37.408
638.21	37.686
638.40	37.680
638.59	37.766
638.78	37.056
638.97	38.370
639.16	37.864
639.34	38.162
639.53	37.446
639.72	37.447
639.91	37.548
640.10	38.352
640.29	38.245
640.47	38.197
640.66	38.419
640.85	37.972
641.04	37.385
641.23	37.185
641.42	38.111
641.60	37.807
641.79	37.380
641.98	38.025
642.17	37.766
642.36	37.253
642.54	37.566
642.73	38.574
642.92	36.230
643.11	37.248
643.30	38.382
643.49	37.512
643.67	36.670
643.86	38.385
644.05	37.495
644.24	37.731
644.43	38.229
644.61	38.252
644.80	39.320
644.99	38.858
645.18	38.075
645.37	37.750
645.55	36.949
645.74	38.223
645.93	38.012
646.12	37.605
646.31	38.071
646.49	38.080
646.68	37.467
646.87	39.269
647.06	37.365
647.24	36.745
647.43	36.660
647.62	38.366
647.81	37.143
648.00	37.596
648.18	38.042
648.37	36.880
648.56	37.950
648.75	37.740
648.93	37.804
649.12	38.097
649.31	38.206
649.50	37.064
649.68	37.271
649.87	37.333
650.06	35.396
650.25	37.033
650.43	38.177
650.62	37.022
650.81	37.618
651.00	37.827
651.18	36.053
651.37	38.108
651.56	37.196
651.75	37.769
651.93	37.106
652.12	36.814
652.31	37.263
652.50	38.091
652.68	37.399
652.87	37.546
653.06	37.658
653.25	36.741
653.43	36.769
653.62	37.748
653.81	36.839
654.00	36.898
654.18	37.001
654.37	38.201
654.56	38.122
654.74	35.737
654.93	38.199
655.12	37.306
655.31	37.304
655.49	37.992
655.68	35.805
655.87	37.622
656.05	36.628
656.24	37.521
656.43	36.860
656.62	37.305
656.80	36.576
656.99	36.373
657.18	37.356
657.36	36.565
657.55	36.011
657.74	36.239
657.93	36.399
658.11	37.168
658.30	35.314
658.49	35.266
658.67	35.350
658.86	35.453
659.05	35.204
659.23	34.872
659.42	34.879
659.61	33.767
659.79	35.224
659.98	34.435
660.17	34.495
660.35	34.189
660.54	34.748
660.73	34.492
660.91	33.663
661.10	34.713
661.29	34.731
661.47	34.051
661.66	33.973
661.85	35.629
662.03	34.293
662.22	34.500
662.41	33.086
662.59	34.546
662.78	33.508
662.97	33.135
663.15	33.153
663.34	33.617
663.53	32.198
663.71	33.222
663.90	31.971
664.09	33.502
664.27	32.390
664.46	33.380
664.65	33.568
664.83	33.139
665.02	31.152
665.21	31.215
665.39	30.656
665.58	32.084
665.77	31.513
665.95	31.370
666.14	31.830
666.32	32.571
666.51	30.920
666.70	30.521
666.88	30.774
667.07	31.422
667.26	30.966
667.44	30.429
667.63	30.377
667.81	31.100
668.00	30.470
668.19	32.190
668.37	30.678
668.56	31.502
668.75	30.615
668.93	31.432
669.12	30.502
669.30	29.875
669.49	30.535
669.68	31.054
669.86	30.978
670.05	30.767
670.23	30.860
670.42	30.597
670.61	30.834
670.79	30.113
670.98	30.372
671.16	31.655
671.35	29.991
671.54	30.947
671.72	30.082
671.91	30.366
672.09	29.262
672.28	30.841
672.46	30.603
672.65	30.617
672.84	30.136
673.02	31.690
673.21	28.615
673.39	31.323
673.58	30.629
673.77	31.275
673.95	30.128
674.14	31.432
674.32	30.632
674.51	31.829
674.69	29.767
674.88	31.346
675.07	30.017
675.25	33.354
675.44	31.106
675.62	31.411
675.81	30.241
675.99	32.111
676.18	32.040
676.36	31.188
676.55	30.236
676.74	32.144
676.92	31.930
677.11	31.971
677.29	31.803
677.48	32.334
677.66	33.471
677.85	32.509
678.03	32.599
678.22	32.235
678.40	30.927
678.59	32.443
678.78	31.468
678.96	32.478
679.15	31.955
679.33	34.720
679.52	31.565
679.70	32.189
679.89	33.053
680.07	32.957
680.26	32.692
680.44	33.309
680.63	32.308
680.81	33.486
681.00	31.375
681.18	32.707
681.37	32.474
681.55	35.301
681.74	33.437
681.92	33.151
682.11	32.317
682.29	32.884
682.48	33.987
682.66	34.119
682.85	33.916
683.03	34.595
683.22	33.937
683.40	35.182
683.59	33.675
683.77	35.133
683.96	34.074
684.14	34.753
684.33	33.302
684.51	36.922
684.70	35.096
684.88	35.894
685.07	35.376
685.25	36.622
685.44	35.749
685.62	35.879
685.81	36.473
685.99	39.098
686.18	36.392
686.36	36.954
686.55	35.812
686.73	36.375
686.92	37.445
687.10	37.761
687.29	38.671
687.47	39.351
687.65	38.627
687.84	37.255
688.02	40.069
688.21	39.796
688.39	39.112
688.58	39.594
688.76	38.677
688.95	40.581
689.13	38.808
689.32	40.846
689.50	40.629
689.68	40.355
689.87	40.802
690.05	41.398
690.24	40.267
690.42	41.626
690.61	42.778
690.79	43.872
690.98	41.858
691.16	42.092
691.34	41.008
691.53	43.333
691.71	43.059
691.90	43.174
692.08	42.760
692.27	45.948
692.45	45.144
692.63	44.986
692.82	45.109
693.00	45.519
693.19	43.857
693.37	45.486
693.56	44.723
693.74	44.511
693.92	45.103
694.11	48.303
694.29	47.106
694.48	48.021
694.66	47.474
694.84	47.443
695.03	48.677
695.21	48.828
695.40	48.998
695.58	49.383
695.76	49.300
695.95	51.224
696.13	49.376
696.32	50.709
696.50	51.863
696.68	50.617
696.87	49.861
697.05	51.625
697.24	52.364
697.42	52.030
697.60	50.283
697.79	52.695
697.97	52.436
698.16	51.754
698.34	50.353
698.52	53.087
698.71	50.912
698.89	52.746
699.07	50.147
699.26	52.201
699.44	51.173
699.63	52.031
699.81	51.529
699.99	50.367
700.18	52.193
700.36	52.130
700.54	52.672
700.73	51.935
700.91	52.726
701.09	53.629
701.28	54.756
701.46	52.909
701.64	55.211
701.83	53.482
702.01	54.950
702.20	55.025
702.38	53.247
702.56	55.231
702.75	55.560
702.93	56.677
703.11	57.197
703.30	58.186
703.48	56.547
703.66	57.436
703.85	57.924
704.03	59.454
704.21	56.335
704.40	60.074
704.58	57.977
704.76	57.622
704.95	59.472
705.13	57.191
705.31	56.068
705.50	57.899
705.68	59.137
705.86	59.768
706.04	60.530
706.23	62.655
706.41	57.804
706.59	58.110
706.78	58.542
706.96	60.356
707.14	60.251
707.33	61.298
707.51	61.190
707.69	60.558
707.88	59.003
708.06	61.051
708.24	61.223
708.42	61.838
708.61	60.232
708.79	60.630
708.97	59.771
709.16	60.688
709.34	62.083
709.52	61.150
709.71	60.756
709.89	63.092
710.07	58.878
710.25	62.391
710.44	62.024
710.62	60.979
710.80	61.690
710.98	60.490
711.17	60.881
711.35	59.401
711.53	60.847
711.72	62.754
711.90	62.083
712.08	61.855
712.26	61.123
712.45	60.254
712.63	59.916
712.81	63.631
712.99	60.032
713.18	61.004
713.36	60.690
713.54	62.329
713.72	60.051
713.91	62.958
714.09	59.806
714.27	62.007
714.45	61.880
714.64	60.294
714.82	63.111
715.00	61.124
715.18	62.472
715.37	62.135
715.55	61.197
715.73	62.064
715.91	60.944
716.10	60.642
716.28	60.226
716.46	62.773
716.64	61.614
716.83	62.637
717.01	62.464
717.19	62.555
717.37	62.480
717.55	61.457
717.74	62.723
717.92	61.087
718.10	60.170
718.28	61.684
718.47	62.556
718.65	62.463
718.83	61.025
719.01	63.263
719.19	61.004
719.38	62.013
719.56	62.626
719.74	62.736
719.92	60.169
720.10	61.640
720.29	62.019
720.47	62.852
720.65	61.876
720.83	62.674
721.01	62.261
721.20	64.915
721.38	62.049
721.56	63.594
721.74	61.731
721.92	64.046
722.11	64.478
722.29	63.444
722.47	63.843
722.65	66.273
722.83	64.219
723.01	62.017
723.20	64.788
723.38	64.057
723.56	62.750
723.74	66.061
723.92	65.282
724.10	65.631
724.29	65.434
724.47	65.709
724.65	64.523
724.83	65.633
725.01	62.534
725.19	65.595
725.38	63.347
725.56	63.484
725.74	65.223
725.92	64.922
726.10	66.819
726.28	63.950
726.46	64.840
726.65	66.556
726.83	64.424
727.01	65.583
727.19	63.674
727.37	64.893
727.55	66.579
727.73	67.328
727.92	65.623
728.10	64.429
728.28	62.633
728.46	64.498
728.64	65.144
728.82	63.883
729.00	63.653
729.19	65.418
729.37	65.666
729.55	64.083
729.73	62.103
729.91	65.490
730.09	64.961
730.27	66.653
730.45	64.396
730.63	64.996
730.82	64.472
731.00	64.154
731.18	65.373
731.36	65.743
731.54	61.769
731.72	65.826
731.90	65.812
732.08	66.153
732.26	64.273
732.45	67.806
732.63	65.172
732.81	64.505
732.99	65.807
733.17	65.399
733.35	67.569
733.53	67.688
733.71	66.034
733.89	65.923
734.07	66.272
734.25	64.632
734.44	66.165
734.62	65.843
734.80	66.310
734.98	65.858
735.16	66.660
735.34	69.943
735.52	66.311
735.70	66.462
735.88	69.167
736.06	68.298
736.24	68.863
736.42	68.278
736.60	69.849
736.78	70.193
736.97	68.590
737.15	67.825
737.33	65.609
737.51	69.545
737.69	68.693
737.87	68.920
738.05	70.612
738.23	73.090
738.41	68.422
738.59	69.099
738.77	68.966
738.95	72.405
739.13	71.365
739.31	69.457
739.49	72.026
739.67	70.939
739.85	66.715
740.03	68.324
740.21	70.937
740.39	69.373
740.57	67.833
740.75	69.701
740.93	69.654
741.11	69.500
741.30	71.559
741.48	72.948
741.66	75.040
741.84	69.608
742.02	71.919
742.20	70.245
742.38	71.613
742.56	73.039
742.74	69.893
742.92	68.542
743.10	70.935
743.28	77.368
743.46	71.477
743.64	69.696
743.82	71.007
744.00	72.649
744.18	72.273
744.36	76.644
744.54	73.410
744.72	76.481
744.90	78.962
745.08	74.559
745.26	74.749
745.44	72.858
745.62	72.691
745.80	73.080
745.98	73.218
746.16	76.198
746.34	76.039
746.52	75.917
746.70	72.583
746.87	74.564
747.05	72.855
747.23	75.884
747.41	74.084
747.59	72.467
747.77	74.877
747.95	73.604
748.13	71.980
748.31	75.775
748.49	72.999
748.67	74.142
748.85	70.286
749.03	74.931
749.21	73.004
749.39	76.492
749.57	71.509
749.75	75.676
749.93	74.073
750.11	74.180
750.29	70.282
750.47	72.843
750.65	72.048
750.83	69.385
751.01	74.118
751.18	72.750
751.36	72.882
751.54	75.925
751.72	78.106
751.90	74.100
752.08	71.955
752.26	75.200
752.44	72.699
752.62	74.495
752.80	73.971
752.98	73.226
753.16	73.720
753.34	72.541
753.52	77.297
753.69	72.350
753.87	76.295
754.05	75.793
754.23	73.555
754.41	74.834
754.59	73.700
754.77	74.038
754.95	71.687
755.13	73.843
755.31	72.652
755.49	74.450
755.66	75.969
755.84	72.911
756.02	70.190
756.20	74.155
756.38	71.241
756.56	75.144
756.74	76.299
756.92	73.470
757.10	72.821
757.28	75.190
757.45	76.273
757.63	74.487
757.81	71.185
757.99	78.851
758.17	76.774
758.35	74.224
758.53	73.482
758.71	76.424
758.88	74.413
759.06	74.074
759.24	67.578
759.42	70.656
759.60	71.971
759.78	71.103
759.96	70.695
760.13	72.057
760.31	63.790
760.49	66.686
760.67	64.788
760.85	66.908
761.03	64.418
761.21	64.092
761.38	63.661
761.56	67.933
761.74	61.805
761.92	67.573
762.10	62.467
762.28	68.195
762.46	59.811
762.63	66.592
762.81	63.566
762.99	67.611
763.17	63.731
763.35	64.935
763.53	64.109
763.70	66.016
763.88	64.766
764.06	65.945
764.24	64.350
764.42	65.075
764.60	63.789
764.77	63.746
764.95	62.016
765.13	63.572
765.31	65.407
765.49	63.864
765.66	63.365
765.84	66.908
766.02	65.498
766.20	67.548
766.38	66.542
766.56	67.398
766.73	67.822
766.91	67.180
767.09	71.953
767.27	71.607
767.45	72.438
767.62	69.790
767.80	72.084
767.98	70.068
768.16	71.437
768.33	75.179
768.51	73.732
768.69	71.726
768.87	71.293
769.05	74.644
769.22	69.312
769.40	77.854
769.58	74.638
769.76	76.715
769.94	71.386
770.11	71.957
770.29	72.987
770.47	78.342
770.65	76.772
770.82	76.152
771.00	76.923
771.18	76.601
771.36	78.308
771.53	74.641
771.71	77.691
771.89	77.194
772.07	79.137
772.25	77.297
772.42	75.074
772.60	80.640
772.78	73.783
772.96	76.751
773.13	78.442
773.31	81.014
773.49	75.101
773.67	82.520
773.84	75.403
774.02	77.911
774.20	78.549
774.37	77.688
774.55	79.289
774.73	78.272
774.91	77.538
775.08	80.197
775.26	81.962
775.44	84.769
775.62	76.338
775.79	76.905
775.97	77.457
776.15	79.734
776.32	68.255
776.50	85.270
776.68	83.609
776.86	79.826
777.03	72.701
777.21	74.843
777.39	73.924
777.56	81.265
777.74	76.758
777.92	80.097
778.10	81.800
778.27	81.379
778.45	82.293
778.63	80.854
778.80	75.865
778.98	80.253
779.16	82.664
779.34	77.680
779.51	79.682
779.69	79.369
779.87	76.639
780.04	80.309
780.22	76.798
780.40	75.783
780.57	79.230
780.75	80.799
780.93	76.533
781.10	77.805
781.28	87.751
781.46	75.974
781.63	76.390
781.81	80.707
781.99	71.705
782.16	80.138
782.34	77.789
782.52	81.080
782.69	78.909
782.87	80.844
783.05	75.090
783.22	77.849
783.40	80.437
783.58	80.686
783.75	75.258
783.93	80.175
784.11	76.995
784.28	84.233
784.46	77.346
784.64	82.466
784.81	80.231
784.99	85.103
785.17	76.416
785.34	78.155
785.52	73.605
785.69	76.621
785.87	78.116
786.05	81.159
786.22	77.729
786.40	85.626
786.58	74.638
786.75	82.799
786.93	76.215
787.11	78.496
787.28	80.418
787.46	83.972
787.63	76.497
787.81	84.493
787.99	80.702
788.16	72.875
788.34	79.125
788.51	76.883
788.69	74.732
788.87	76.886
789.04	71.937
789.22	76.945
789.39	73.822
789.57	72.361
789.75	74.009
789.92	76.849
790.10	68.803
790.27	73.182
790.45	73.922
790.63	73.032
790.80	71.281
790.98	76.682
791.15	76.815
791.33	82.483
791.51	72.186
791.68	73.615
791.86	74.044
792.03	75.450
792.21	74.040
792.39	72.446
792.56	75.270
792.74	77.449
792.91	72.082
793.09	77.180
793.26	70.149
793.44	77.626
793.62	75.896
793.79	75.152
793.97	72.041
794.14	79.766
794.32	75.233
794.49	73.515
794.67	69.766
794.84	77.499
795.02	76.371
795.20	80.084
795.37	74.078
795.55	74.735
795.72	77.392
795.90	75.156
796.07	74.633
796.25	74.610
796.42	71.772
796.60	74.916
796.77	75.548
796.95	74.164
797.13	71.880
797.30	77.560
797.48	68.266
797.65	74.675
797.83	74.136
798.00	72.935
798.18	73.653
798.35	76.832
798.53	73.814
798.70	73.265
798.88	71.640
799.05	81.246
799.23	74.562
799.40	71.216
799.58	74.341
799.75	73.103
799.93	73.625
800.10	76.962
800.28	75.738
800.45	72.309
800.63	66.468
800.80	80.605
800.98	77.910
801.15	78.777
801.33	73.772
801.50	74.074
801.68	65.448
801.85	79.229
802.03	72.733
802.20	75.676
802.38	75.413
802.55	73.889
802.73	72.469
802.90	72.511
803.08	65.789
803.25	82.620
803.43	78.313
803.60	75.048
803.78	78.971
803.95	75.421
804.13	73.543
804.30	76.818
804.48	70.345
804.65	71.384
804.83	76.699
805.00	74.936
805.17	70.110
805.35	78.739
805.52	81.159
805.70	78.378
805.87	75.513
806.05	78.617
806.22	73.901
806.40	71.668
806.57	72.086
806.75	80.173
806.92	75.710
807.09	73.282
807.27	70.881
807.44	73.876
807.62	72.581
807.79	75.862
807.97	70.167
808.14	73.893
808.31	74.054
808.49	80.632
808.66	72.082
808.84	75.116
809.01	79.586
809.19	73.641
809.36	74.591
809.53	72.787
809.71	74.619
809.88	79.022
810.06	76.603
810.23	79.024
810.41	82.698
810.58	79.485
810.75	68.948
810.93	78.592
811.10	69.617
811.28	73.716
811.45	73.642
811.62	74.277
811.80	65.534
811.97	75.518
812.15	79.011
812.32	73.228
812.49	73.278
812.67	74.751
812.84	63.110
813.02	70.348
813.19	67.090
813.36	72.706
813.54	67.370
813.71	79.188
813.89	70.814
814.06	75.507
814.23	77.592
814.41	73.570
814.58	72.403
814.75	70.928
814.93	74.573
815.10	76.223
815.28	61.412
815.45	63.747
815.62	77.502
815.80	69.518
815.97	64.472
816.14	68.336
816.32	68.716
816.49	69.811
816.66	66.614
816.84	70.912
817.01	67.123
817.18	71.882
817.36	73.115
817.53	69.514
817.71	56.280
817.88	72.087
818.05	64.457
818.23	59.736
818.40	61.484
818.57	63.296
818.75	64.665
818.92	61.309
819.09	64.079
819.27	73.217
819.44	66.794
819.61	64.798
819.79	63.501
819.96	75.334
820.13	66.275
820.31	69.082
820.48	67.568
820.65	62.307
820.82	62.269
821.00	67.818
821.17	61.315
821.34	63.872
821.52	64.700
821.69	65.247
821.86	62.561
822.04	64.926
822.21	62.412
822.38	63.400
822.56	62.124
822.73	62.468
822.90	61.285
823.07	60.897
823.25	62.196
823.42	59.661
823.59	59.482
823.77	59.984
823.94	59.184
824.11	58.224
824.29	58.003
824.46	57.808
824.63	57.997
824.80	57.889
824.98	59.149
825.15	58.060
825.32	56.943
825.49	60.706
825.67	58.733
825.84	58.535
826.01	58.402
826.19	62.302
826.36	58.707
826.53	59.950
826.70	62.016
826.88	63.415
827.05	58.106
827.22	59.477
827.39	61.642
827.57	61.058
827.74	57.896
827.91	62.967
828.08	57.754
828.26	59.952
828.43	58.924
828.60	60.678
828.77	59.373
828.95	60.341
829.12	57.310
829.29	56.807
829.46	56.303
829.64	58.827
829.81	52.760
829.98	59.063
830.15	56.219
830.32	59.508
830.50	58.865
830.67	57.462
830.84	60.377
831.01	55.087
831.19	56.840
831.36	58.184
831.53	63.553
831.70	64.542
831.87	60.473
832.05	64.975
832.22	69.419
832.39	61.490
832.56	62.221
832.74	55.066
832.91	56.421
833.08	70.097
833.25	59.497
833.42	61.772
833.60	57.959
833.77	61.205
833.94	55.385
834.11	60.289
834.28	59.388
834.45	63.452
834.63	55.904
834.80	60.511
834.97	58.246
835.14	64.080
835.31	60.671
835.49	59.979
835.66	58.511
835.83	57.951
836.00	56.681
836.17	62.031
836.34	56.401
836.52	55.833
836.69	58.841
836.86	60.867
837.03	58.305
837.20	59.535
837.37	57.692
837.55	49.730
837.72	58.097
837.89	65.066
838.06	65.359
838.23	72.157
838.40	74.896
838.58	64.783
838.75	65.996
838.92	65.723
839.09	81.723
839.26	69.412
839.43	77.471
839.60	78.533
839.78	78.283
839.95	86.924
840.12	63.532
840.29	73.704
840.46	81.869
840.63	70.612
840.80	78.903
840.98	74.203
841.15	71.088
841.32	64.894
841.49	63.191
841.66	78.318
841.83	63.036
842.00	64.328
842.17	81.214
842.34	64.844
842.52	68.680
842.69	74.419
842.86	76.285
843.03	95.550
843.20	71.321
843.37	78.302
843.54	79.310
843.71	83.245
843.88	78.303
844.06	100.139
844.23	80.348
844.40	79.066
844.57	90.528
844.74	92.542
844.91	89.110
845.08	89.498
845.25	81.345
845.42	90.744
845.59	107.336
845.76	86.004
845.94	105.496
846.11	92.617
846.28	90.643
846.45	102.486
846.62	119.172
846.79	91.071
846.96	97.688
847.13	107.021
847.30	80.249
847.47	79.430
847.64	87.033
847.81	82.686
847.98	99.793
848.15	102.947
848.32	109.506
848.50	103.755
848.67	84.461
848.84	92.510
849.01	104.065
849.18	101.431
849.35	103.755
849.52	106.535
849.69	103.944
849.86	120.588
850.03	109.836
850.20	93.433
850.37	90.092
850.54	105.825
850.71	106.430
850.88	96.266
851.05	84.167
851.22	100.000
851.39	102.846
851.56	96.746
851.73	111.294
851.90	108.486
852.07	99.760
852.24	95.890
852.41	106.210
852.58	102.619
852.75	90.930
852.92	93.360
853.09	137.360
853.26	119.579
853.43	106.889
853.60	90.852
853.77	99.301
853.94	95.688
854.11	114.153
854.28	117.073
854.45	93.556
854.62	117.922
854.79	105.088
854.96	127.806
855.13	106.729
855.30	111.000
855.47	131.122
855.64	96.214
855.81	97.129
855.98	108.672
856.15	93.902
856.32	88.100
856.49	118.440
856.66	108.216
856.83	114.009
857.00	97.699
857.17	102.287
857.34	98.465
857.51	100.659
857.68	105.489
857.85	164.746
858.02	106.601
858.19	99.798
858.36	122.222
858.53	100.857
858.70	117.982
858.87	122.222
859.04	97.511
859.21	114.224
859.38	102.708
859.55	125.061
859.72	119.075
859.89	129.155
860.05	107.108
860.22	134.474
860.39	118.821
860.56	108.586
860.73	103.580
860.90	105.479
861.07	121.005
861.24	93.593
861.41	123.810
861.58	104.235
861.75	120.048
861.92	89.934
862.09	126.076
862.26	113.948
862.43	120.386
862.59	98.611
862.76	92.144
862.93	133.514
863.10	102.387
863.27	107.670
863.44	123.529
863.61	108.864
863.78	116.716
863.95	120.428
864.12	137.383
864.29	127.356
864.45	109.572
864.62	114.921
864.79	128.218
864.96	110.422
865.13	105.100
865.30	129.286
865.47	128.412
865.64	114.387
865.81	128.926
865.97	102.398
866.14	118.263
866.31	88.732
866.48	106.710
866.65	102.865
866.82	132.134
866.99	143.536
867.16	118.063
867.33	107.059
867.49	101.711
867.66	109.398
867.83	105.727
868.00	94.299
868.17	116.379
868.34	106.920
868.51	92.995
868.67	111.611
868.84	96.322
869.01	114.286
869.18	111.463
869.35	95.143
869.52	90.250
869.69	119.207
869.85	105.432
870.02	93.932
870.19	121.053
870.36	134.127
870.53	103.963
870.70	112.340
870.86	98.705
871.03	96.056
871.20	103.218
871.37	141.114
871.54	112.772
871.71	106.068
871.87	105.435
872.04	119.802
872.21	109.492
872.38	114.425
872.55	134.684
872.72	96.396
872.88	127.606
873.05	92.329
873.22	99.594
873.39	98.582
873.56	107.062
873.72	116.346
873.89	118.314
874.06	102.320
874.23	108.639
874.40	89.403
874.56	100.208
874.73	109.223
874.90	98.930
875.07	94.978
875.24	98.091
875.40	93.258
875.57	82.500
875.74	111.707
875.91	127.642
876.08	95.374
876.24	100.620
876.41	116.497
876.58	91.885
876.75	128.926
876.92	106.250
877.08	82.617
877.25	82.216
877.42	88.211
877.59	126.911
877.75	107.332
877.92	68.061
878.09	109.281
878.26	105.622
878.42	115.426
878.59	106.637
878.76	87.352
878.93	109.050
879.09	98.472
879.26	111.836
879.43	91.910
879.60	82.798
879.76	85.587
879.93	65.842
880.10	83.023
880.27	71.154
880.43	76.527
880.60	73.668
880.77	64.615
880.94	66.292
881.10	57.058
881.27	66.464
881.44	50.604
881.61	55.418
881.77	55.548
881.94	52.749
882.11	46.994
882.28	49.002
882.44	52.569
882.61	51.983
882.78	51.073
882.94	59.517
883.11	51.931
883.28	54.479
883.45	51.750
883.61	49.911
883.78	50.932
883.95	54.760
884.11	47.496
884.28	54.325
>>>>>End Processed Spectral Data<<<<<
