SpectraSuite Data File
++++++++++++++++++++++++++++++++++++
Date: Tue Sep 24 03:01:59 EST 2019
User: sgrac
Dark Spectrum Present: Yes
Reference Spectrum Present: Yes
Number of Sampled Component Spectra: 1
Spectrometers: USB4E01596
Integration Time (usec): 100000 (USB4E01596)
Spectra Averaged: 3 (USB4E01596)
Boxcar Smoothing: 0 (USB4E01596)
Correct for Electrical Dark: No (USB4E01596)
Strobe/Lamp Enabled: Yes (USB4E01596)
Correct for Detector Non-linearity: No (USB4E01596)
Correct for Stray Light: No (USB4E01596)
Number of Pixels in Processed Spectrum: 3648
>>>>>Begin Processed Spectral Data<<<<<
178.44	677.273
178.66	677.273
178.87	677.273
179.09	426.415
179.30	388.889
179.52	-423.333
179.74	392.453
179.95	417.910
180.17	-8800.000
180.38	-7200.000
180.60	305.618
180.82	-1807.143
181.03	610.811
181.25	-1156.522
181.46	348.611
181.68	2644.444
181.89	-816.667
182.11	339.394
182.33	571.429
182.54	384.211
182.76	-427.500
182.97	147.205
183.19	413.333
183.40	2244.444
183.62	317.073
183.84	221.333
184.05	456.522
184.27	259.259
184.48	-1188.889
184.70	235.484
184.91	327.632
185.13	367.105
185.34	313.978
185.56	396.875
185.78	591.667
185.99	1400.000
186.21	385.000
186.42	228.571
186.64	288.172
186.85	518.750
187.07	-2350.000
187.28	-729.412
187.50	-16400.000
187.72	18000.000
187.93	-754.167
188.15	509.302
188.36	300.000
188.58	318.919
188.79	-2900.000
189.01	-1584.615
189.22	964.000
189.44	352.326
189.65	336.364
189.87	-2328.571
190.09	638.235
190.30	610.526
190.52	1242.857
190.73	2983.333
190.95	676.316
191.16	216.456
191.38	1818.182
191.59	1942.857
191.81	600.000
192.02	536.170
192.24	373.469
192.45	1370.588
192.67	244.156
192.88	246.939
193.10	456.061
193.31	219.192
193.53	502.632
193.74	-21800.000
193.96	346.479
194.18	197.170
194.39	313.043
194.61	287.963
194.82	217.797
195.04	284.112
195.25	0.000
195.47	-17700.000
195.68	227.000
195.90	337.647
196.11	312.048
196.33	418.605
196.54	211.927
196.76	569.697
196.97	-1466.667
197.19	218.605
197.40	377.193
197.62	420.755
197.83	264.423
198.05	393.151
198.26	0.000
198.48	-348.889
198.69	580.000
198.91	2428.571
199.12	-5725.000
199.34	287.778
199.55	-18800.000
199.77	1300.000
199.98	338.028
200.20	227.273
200.41	359.211
200.63	741.176
200.84	-1392.308
201.06	267.089
201.27	564.000
201.49	578.723
201.70	239.080
201.91	429.577
202.13	340.299
202.34	-820.000
202.56	181.690
202.77	2412.500
202.99	3150.000
203.20	326.087
203.42	570.270
203.63	1675.000
203.85	252.941
204.06	357.692
204.28	218.644
204.49	766.667
204.71	-356.250
204.92	252.899
205.14	732.258
205.35	561.905
205.56	251.429
205.78	-496.000
205.99	528.205
206.21	412.281
206.42	257.576
206.64	865.217
206.85	307.229
207.07	-222.581
207.28	492.000
207.50	296.739
207.71	383.333
207.93	5766.667
208.14	584.211
208.35	-1525.000
208.57	-548.276
208.78	177.622
209.00	620.000
209.21	263.366
209.43	-3600.000
209.64	184.659
209.86	401.754
210.07	430.952
210.28	568.966
210.50	2633.333
210.71	532.258
210.93	-1160.000
211.14	356.364
211.36	219.792
211.57	959.259
211.78	2733.333
212.00	-1211.111
212.21	436.585
212.43	471.429
212.64	348.780
212.86	878.261
213.07	352.941
213.29	1650.000
213.50	153.175
213.71	295.181
213.93	192.308
214.14	157.265
214.36	175.294
214.57	-1670.000
214.78	417.949
215.00	225.620
215.21	535.000
215.43	680.000
215.64	206.481
215.86	280.189
216.07	5625.000
216.28	379.104
216.50	273.529
216.71	634.483
216.93	-511.628
217.14	246.465
217.35	375.000
217.57	210.256
217.78	285.484
218.00	236.364
218.21	291.549
218.42	959.259
218.64	1386.667
218.85	476.786
219.07	189.076
219.28	406.154
219.49	233.945
219.71	425.714
219.92	592.000
220.14	469.565
220.35	1554.545
220.56	409.756
220.78	590.909
220.99	278.462
221.21	295.946
221.42	262.162
221.63	2550.000
221.85	764.286
222.06	375.000
222.28	348.101
222.49	183.871
222.70	244.000
222.92	292.982
223.13	738.889
223.34	503.125
223.56	174.016
223.77	170.833
223.99	240.000
224.20	147.945
224.41	281.333
224.63	216.327
224.84	202.857
225.05	139.200
225.27	400.000
225.48	189.899
225.69	206.250
225.91	242.169
226.12	145.408
226.34	132.402
226.55	105.532
226.76	98.947
226.98	151.875
227.19	84.314
227.40	108.225
227.62	89.320
227.83	77.624
228.04	68.675
228.26	60.360
228.47	50.323
228.69	45.510
228.90	31.927
229.11	39.791
229.33	26.220
229.54	24.224
229.75	19.372
229.97	23.361
230.18	26.510
230.39	19.819
230.61	15.921
230.82	22.166
231.03	20.900
231.25	29.812
231.46	18.983
231.67	14.631
231.89	31.863
232.10	22.113
232.31	36.817
232.53	41.561
232.74	38.110
232.95	42.587
233.17	35.664
233.38	26.131
233.59	47.152
233.81	39.041
234.02	48.282
234.23	47.561
234.45	39.234
234.66	38.545
234.87	38.140
235.09	30.108
235.30	39.390
235.51	44.597
235.73	34.508
235.94	32.132
236.15	40.794
236.36	28.680
236.58	27.205
236.79	26.341
237.00	29.722
237.22	35.873
237.43	36.167
237.64	37.000
237.86	33.795
238.07	42.146
238.28	31.259
238.50	32.275
238.71	38.947
238.92	27.630
239.13	32.717
239.35	26.324
239.56	28.027
239.77	38.472
239.99	23.733
240.20	29.504
240.41	35.636
240.63	20.950
240.84	24.028
241.05	21.772
241.26	23.733
241.48	23.110
241.69	18.809
241.90	13.643
242.12	13.636
242.33	12.089
242.54	13.686
242.75	8.465
242.97	11.032
243.18	9.573
243.39	8.316
243.61	9.488
243.82	9.564
244.03	7.443
244.24	11.409
244.46	9.680
244.67	11.667
244.88	8.900
245.09	10.343
245.31	7.103
245.52	11.655
245.73	13.385
245.95	11.375
246.16	11.895
246.37	7.572
246.58	12.685
246.80	11.068
247.01	7.143
247.22	7.713
247.43	6.871
247.65	6.906
247.86	5.388
248.07	6.590
248.28	3.810
248.50	4.984
248.71	6.169
248.92	3.839
249.13	5.815
249.35	3.711
249.56	6.457
249.77	6.001
249.98	5.233
250.20	9.599
250.41	6.328
250.62	11.236
250.83	8.315
251.05	12.559
251.26	13.505
251.47	11.844
251.68	9.939
251.90	6.503
252.11	8.799
252.32	12.232
252.53	11.819
252.75	11.594
252.96	11.720
253.17	10.795
253.38	8.344
253.59	11.361
253.81	10.509
254.02	7.825
254.23	10.433
254.44	10.181
254.66	10.479
254.87	14.208
255.08	13.072
255.29	12.965
255.50	14.521
255.72	10.338
255.93	15.209
256.14	19.633
256.35	18.011
256.57	14.942
256.78	12.804
256.99	12.691
257.20	14.209
257.41	15.259
257.63	18.537
257.84	11.536
258.05	13.278
258.26	12.060
258.47	10.851
258.69	8.306
258.90	11.912
259.11	6.503
259.32	7.905
259.53	5.956
259.75	6.862
259.96	3.209
260.17	6.635
260.38	5.940
260.59	4.753
260.81	4.031
261.02	4.615
261.23	4.258
261.44	3.371
261.65	4.072
261.87	3.813
262.08	3.244
262.29	5.435
262.50	7.098
262.71	5.775
262.92	6.608
263.14	5.242
263.35	7.461
263.56	11.706
263.77	10.613
263.98	7.547
264.20	8.633
264.41	9.663
264.62	8.288
264.83	8.044
265.04	9.902
265.25	8.094
265.47	11.765
265.68	8.249
265.89	12.495
266.10	7.832
266.31	8.440
266.52	9.610
266.74	8.033
266.95	5.440
267.16	9.028
267.37	7.729
267.58	11.226
267.79	5.942
268.01	3.898
268.22	4.404
268.43	6.758
268.64	6.239
268.85	6.720
269.06	7.337
269.27	7.162
269.49	6.384
269.70	6.128
269.91	7.312
270.12	7.822
270.33	8.325
270.54	4.959
270.75	8.487
270.97	6.564
271.18	7.295
271.39	6.682
271.60	7.226
271.81	4.118
272.02	6.281
272.23	5.832
272.45	5.110
272.66	5.741
272.87	5.578
273.08	4.730
273.29	4.420
273.50	6.900
273.71	5.800
273.92	2.989
274.14	3.965
274.35	5.955
274.56	5.014
274.77	5.049
274.98	5.536
275.19	7.139
275.40	4.673
275.61	6.568
275.83	6.856
276.04	6.261
276.25	8.715
276.46	7.644
276.67	8.230
276.88	6.316
277.09	6.230
277.30	5.919
277.51	7.060
277.73	5.293
277.94	8.290
278.15	6.103
278.36	5.913
278.57	5.542
278.78	7.346
278.99	5.576
279.20	7.402
279.41	9.462
279.62	5.141
279.84	3.917
280.05	6.756
280.26	6.690
280.47	5.490
280.68	7.575
280.89	3.619
281.10	5.088
281.31	8.029
281.52	6.169
281.73	6.581
281.94	6.198
282.16	5.373
282.37	5.436
282.58	5.605
282.79	5.525
283.00	4.867
283.21	4.081
283.42	4.760
283.63	5.806
283.84	6.983
284.05	5.309
284.26	6.381
284.47	4.072
284.68	4.544
284.89	3.470
285.11	3.469
285.32	6.234
285.53	4.788
285.74	5.848
285.95	4.428
286.16	3.140
286.37	1.782
286.58	3.575
286.79	4.226
287.00	3.847
287.21	4.009
287.42	4.599
287.63	2.410
287.84	4.323
288.05	5.006
288.26	3.762
288.48	2.572
288.69	3.711
288.90	4.356
289.11	5.172
289.32	2.936
289.53	4.939
289.74	3.697
289.95	5.979
290.16	5.893
290.37	3.267
290.58	3.832
290.79	4.071
291.00	3.572
291.21	3.770
291.42	5.262
291.63	3.898
291.84	3.956
292.05	5.139
292.26	3.832
292.47	4.985
292.68	2.501
292.89	3.122
293.10	4.436
293.31	3.035
293.52	3.434
293.73	5.062
293.94	6.051
294.15	4.384
294.36	5.687
294.57	5.325
294.79	5.895
295.00	4.280
295.21	4.125
295.42	4.890
295.63	5.868
295.84	4.283
296.05	4.555
296.26	4.621
296.47	3.665
296.68	3.237
296.89	4.067
297.10	4.171
297.31	3.903
297.52	3.851
297.73	3.608
297.94	3.646
298.15	3.969
298.36	3.777
298.57	3.711
298.78	3.274
298.99	4.011
299.20	3.716
299.41	3.922
299.62	2.795
299.83	3.862
300.04	3.437
300.25	5.431
300.46	4.048
300.67	4.140
300.88	4.464
301.09	3.371
301.30	5.795
301.50	4.718
301.71	4.813
301.92	5.409
302.13	4.040
302.34	2.555
302.55	4.978
302.76	4.270
302.97	4.554
303.18	3.992
303.39	5.419
303.60	5.486
303.81	5.532
304.02	3.907
304.23	4.431
304.44	3.591
304.65	4.879
304.86	4.154
305.07	5.216
305.28	4.966
305.49	3.104
305.70	4.995
305.91	3.712
306.12	2.862
306.33	6.316
306.54	3.708
306.75	3.833
306.96	4.455
307.17	3.342
307.38	5.483
307.58	5.625
307.79	3.694
308.00	6.482
308.21	5.638
308.42	4.925
308.63	4.820
308.84	5.458
309.05	5.859
309.26	3.266
309.47	3.379
309.68	4.212
309.89	5.119
310.10	3.341
310.31	3.584
310.52	3.815
310.73	3.484
310.94	4.148
311.14	4.185
311.35	3.567
311.56	4.038
311.77	2.851
311.98	3.479
312.19	2.986
312.40	3.044
312.61	2.562
312.82	3.234
313.03	3.616
313.24	3.278
313.45	4.293
313.66	4.185
313.86	4.798
314.07	4.488
314.28	4.076
314.49	5.835
314.70	4.008
314.91	4.888
315.12	4.819
315.33	4.274
315.54	3.831
315.75	2.786
315.96	3.333
316.16	4.389
316.37	5.601
316.58	3.276
316.79	5.361
317.00	5.217
317.21	6.607
317.42	6.062
317.63	5.772
317.84	5.534
318.05	5.073
318.25	4.149
318.46	4.946
318.67	3.296
318.88	5.586
319.09	4.226
319.30	4.462
319.51	4.664
319.72	3.911
319.93	3.538
320.13	4.103
320.34	6.001
320.55	4.933
320.76	4.633
320.97	4.239
321.18	5.171
321.39	3.514
321.60	5.260
321.80	4.365
322.01	4.593
322.22	6.156
322.43	3.741
322.64	4.713
322.85	4.000
323.06	5.214
323.27	5.299
323.47	5.153
323.68	4.732
323.89	3.968
324.10	4.917
324.31	4.561
324.52	3.429
324.73	4.725
324.93	4.626
325.14	3.894
325.35	3.861
325.56	5.304
325.77	3.766
325.98	3.953
326.19	4.006
326.39	2.689
326.60	4.593
326.81	3.537
327.02	5.183
327.23	4.073
327.44	4.236
327.64	2.736
327.85	3.651
328.06	2.948
328.27	4.422
328.48	4.014
328.69	3.820
328.90	3.413
329.10	3.977
329.31	5.283
329.52	4.338
329.73	4.650
329.94	4.125
330.15	4.307
330.35	4.760
330.56	4.315
330.77	4.114
330.98	5.608
331.19	4.160
331.39	4.060
331.60	3.749
331.81	3.674
332.02	4.385
332.23	5.491
332.44	3.914
332.64	5.084
332.85	4.226
333.06	2.602
333.27	4.267
333.48	3.775
333.68	3.306
333.89	4.968
334.10	3.933
334.31	3.878
334.52	4.336
334.72	3.772
334.93	4.424
335.14	3.399
335.35	4.482
335.56	4.774
335.76	4.124
335.97	4.274
336.18	3.654
336.39	2.833
336.60	3.250
336.80	2.144
337.01	4.710
337.22	3.424
337.43	4.404
337.64	3.597
337.84	4.317
338.05	3.621
338.26	4.643
338.47	3.462
338.68	2.973
338.88	4.146
339.09	3.345
339.30	3.572
339.51	2.981
339.71	3.449
339.92	4.186
340.13	4.390
340.34	4.370
340.55	3.698
340.75	2.877
340.96	3.096
341.17	4.222
341.38	4.045
341.58	3.582
341.79	3.982
342.00	3.720
342.21	3.785
342.41	3.046
342.62	3.488
342.83	4.426
343.04	3.639
343.24	3.200
343.45	3.122
343.66	3.830
343.87	3.719
344.07	2.988
344.28	3.358
344.49	3.775
344.70	3.701
344.90	2.816
345.11	3.850
345.32	2.962
345.53	3.226
345.73	3.525
345.94	3.896
346.15	2.949
346.36	2.640
346.56	2.489
346.77	2.668
346.98	3.074
347.19	2.352
347.39	2.715
347.60	2.988
347.81	2.985
348.02	5.135
348.22	3.958
348.43	2.528
348.64	3.633
348.84	2.377
349.05	3.655
349.26	4.152
349.47	2.070
349.67	3.826
349.88	3.970
350.09	3.745
350.30	5.008
350.50	3.026
350.71	3.278
350.92	2.633
351.12	2.586
351.33	2.698
351.54	2.686
351.74	3.116
351.95	3.399
352.16	3.512
352.37	4.138
352.57	2.472
352.78	3.154
352.99	3.844
353.19	3.019
353.40	3.084
353.61	3.680
353.82	2.892
354.02	3.257
354.23	3.633
354.44	3.311
354.64	3.321
354.85	2.916
355.06	3.409
355.26	3.701
355.47	3.394
355.68	3.906
355.88	3.287
356.09	2.272
356.30	2.372
356.51	2.942
356.71	3.353
356.92	2.210
357.13	4.014
357.33	3.256
357.54	2.603
357.75	2.417
357.95	4.160
358.16	3.110
358.37	4.033
358.57	2.592
358.78	2.466
358.99	2.453
359.19	2.130
359.40	2.164
359.61	2.462
359.81	3.790
360.02	3.338
360.23	2.905
360.43	3.386
360.64	2.227
360.85	2.687
361.05	2.362
361.26	3.014
361.47	2.684
361.67	2.362
361.88	2.186
362.09	2.840
362.29	2.605
362.50	2.570
362.70	2.136
362.91	2.811
363.12	1.831
363.32	2.021
363.53	2.160
363.74	2.146
363.94	2.032
364.15	2.302
364.36	2.893
364.56	1.616
364.77	3.101
364.98	4.072
365.18	2.607
365.39	3.467
365.59	2.269
365.80	1.617
366.01	3.596
366.21	3.095
366.42	2.661
366.63	3.081
366.83	2.866
367.04	2.432
367.24	2.674
367.45	2.176
367.66	1.941
367.86	3.810
368.07	2.446
368.28	2.436
368.48	2.567
368.69	2.306
368.89	3.350
369.10	2.992
369.31	3.292
369.51	3.242
369.72	3.215
369.92	3.433
370.13	3.522
370.34	2.634
370.54	2.343
370.75	3.142
370.95	3.333
371.16	2.442
371.37	2.960
371.57	2.748
371.78	2.682
371.98	3.030
372.19	2.213
372.40	2.845
372.60	3.516
372.81	2.611
373.01	2.081
373.22	2.339
373.43	3.120
373.63	2.832
373.84	2.873
374.04	2.093
374.25	2.790
374.46	2.492
374.66	3.396
374.87	3.002
375.07	2.835
375.28	1.757
375.48	2.857
375.69	3.007
375.90	2.279
376.10	2.630
376.31	2.460
376.51	2.778
376.72	2.394
376.92	1.919
377.13	2.203
377.34	3.332
377.54	3.161
377.75	3.127
377.95	2.960
378.16	2.597
378.36	3.375
378.57	2.357
378.77	2.726
378.98	2.464
379.19	2.392
379.39	2.273
379.60	3.117
379.80	2.199
380.01	2.648
380.21	1.573
380.42	3.641
380.62	2.793
380.83	2.777
381.04	2.344
381.24	2.994
381.45	2.789
381.65	2.720
381.86	2.970
382.06	3.727
382.27	2.237
382.47	3.074
382.68	2.994
382.88	3.156
383.09	3.554
383.29	2.550
383.50	3.671
383.71	2.718
383.91	3.130
384.12	2.595
384.32	2.724
384.53	2.660
384.73	2.441
384.94	2.529
385.14	2.716
385.35	2.850
385.55	2.840
385.76	3.609
385.96	2.955
386.17	2.934
386.37	3.282
386.58	2.886
386.78	4.158
386.99	2.669
387.19	3.285
387.40	2.699
387.60	3.995
387.81	3.034
388.01	3.133
388.22	3.556
388.42	4.173
388.63	5.098
388.83	4.382
389.04	2.439
389.24	2.466
389.45	3.048
389.65	3.058
389.86	3.251
390.06	3.065
390.27	3.326
390.47	2.962
390.68	2.784
390.88	4.953
391.09	4.109
391.29	4.271
391.50	3.541
391.70	3.587
391.91	3.127
392.11	3.636
392.32	4.219
392.52	4.003
392.73	3.788
392.93	4.201
393.14	4.022
393.34	3.455
393.55	4.518
393.75	3.983
393.95	3.798
394.16	4.355
394.36	4.754
394.57	4.593
394.77	4.032
394.98	4.118
395.18	4.776
395.39	4.246
395.59	4.408
395.80	4.063
396.00	4.279
396.21	5.015
396.41	3.749
396.61	5.110
396.82	4.617
397.02	5.801
397.23	5.049
397.43	4.261
397.64	3.561
397.84	5.137
398.05	3.755
398.25	4.858
398.45	3.963
398.66	5.056
398.86	4.290
399.07	5.586
399.27	4.657
399.48	5.436
399.68	4.521
399.89	4.552
400.09	5.205
400.29	4.760
400.50	5.021
400.70	5.225
400.91	4.505
401.11	4.584
401.32	4.657
401.52	3.055
401.72	4.452
401.93	6.268
402.13	4.685
402.34	5.229
402.54	3.354
402.75	6.117
402.95	3.283
403.15	5.323
403.36	3.827
403.56	5.572
403.77	4.193
403.97	5.061
404.17	4.944
404.38	5.585
404.58	4.117
404.79	4.968
404.99	5.436
405.19	4.222
405.40	5.044
405.60	5.306
405.81	4.170
406.01	4.835
406.21	4.447
406.42	5.359
406.62	4.789
406.83	5.642
407.03	5.557
407.23	4.452
407.44	4.622
407.64	5.586
407.85	4.561
408.05	5.285
408.25	5.145
408.46	5.949
408.66	5.201
408.87	4.854
409.07	4.973
409.27	4.899
409.48	5.201
409.68	5.714
409.88	3.858
410.09	4.963
410.29	4.838
410.50	6.447
410.70	3.802
410.90	4.682
411.11	4.072
411.31	4.827
411.51	5.629
411.72	5.561
411.92	4.460
412.12	4.295
412.33	4.572
412.53	4.168
412.74	3.427
412.94	5.068
413.14	4.968
413.35	4.388
413.55	4.753
413.75	5.577
413.96	4.596
414.16	4.970
414.36	4.796
414.57	4.388
414.77	4.154
414.97	5.422
415.18	3.894
415.38	4.787
415.58	4.878
415.79	4.662
415.99	4.201
416.19	5.201
416.40	4.353
416.60	5.009
416.80	3.973
417.01	4.262
417.21	3.836
417.41	5.576
417.62	4.371
417.82	4.959
418.02	3.816
418.23	5.135
418.43	4.536
418.63	5.168
418.84	5.598
419.04	4.721
419.24	5.477
419.45	5.605
419.65	5.585
419.85	5.308
420.06	5.329
420.26	5.452
420.46	5.314
420.67	5.829
420.87	5.717
421.07	6.065
421.28	5.328
421.48	6.010
421.68	5.827
421.88	5.648
422.09	5.780
422.29	5.457
422.49	4.895
422.70	5.884
422.90	5.571
423.10	5.777
423.31	5.556
423.51	6.373
423.71	5.333
423.91	5.708
424.12	5.565
424.32	5.876
424.52	5.465
424.73	5.319
424.93	5.592
425.13	5.369
425.33	5.420
425.54	6.070
425.74	5.571
425.94	6.301
426.15	5.406
426.35	5.392
426.55	5.881
426.75	5.568
426.96	5.244
427.16	5.280
427.36	5.323
427.57	5.669
427.77	4.821
427.97	5.144
428.17	5.358
428.38	4.929
428.58	3.624
428.78	5.816
428.98	4.301
429.19	4.610
429.39	4.122
429.59	4.950
429.79	3.595
430.00	3.779
430.20	3.843
430.40	4.475
430.60	4.431
430.81	4.179
431.01	4.304
431.21	5.069
431.41	4.362
431.62	4.494
431.82	4.355
432.02	5.495
432.22	4.440
432.43	3.825
432.63	3.908
432.83	4.685
433.03	4.189
433.24	3.971
433.44	4.475
433.64	5.276
433.84	4.609
434.05	5.069
434.25	4.683
434.45	5.444
434.65	5.724
434.85	6.001
435.06	5.200
435.26	5.037
435.46	4.756
435.66	5.326
435.87	4.413
436.07	5.465
436.27	5.093
436.47	4.747
436.67	4.422
436.88	5.253
437.08	4.694
437.28	5.356
437.48	4.956
437.69	5.225
437.89	4.562
438.09	5.705
438.29	4.425
438.49	5.307
438.70	5.463
438.90	4.662
439.10	4.465
439.30	5.382
439.50	4.284
439.71	5.635
439.91	4.887
440.11	5.950
440.31	5.219
440.51	5.421
440.72	5.102
440.92	5.678
441.12	5.620
441.32	6.315
441.52	5.642
441.72	5.707
441.93	5.642
442.13	5.811
442.33	5.665
442.53	6.221
442.73	5.080
442.94	5.552
443.14	5.169
443.34	6.269
443.54	5.733
443.74	6.104
443.94	5.400
444.15	5.400
444.35	4.698
444.55	5.713
444.75	5.156
444.95	5.727
445.15	5.550
445.36	5.933
445.56	4.937
445.76	5.816
445.96	5.435
446.16	5.022
446.36	5.134
446.57	6.055
446.77	5.267
446.97	5.885
447.17	6.238
447.37	6.125
447.57	5.886
447.77	6.234
447.98	5.716
448.18	6.438
448.38	5.569
448.58	6.348
448.78	5.907
448.98	5.893
449.18	5.320
449.39	5.678
449.59	5.484
449.79	5.679
449.99	5.227
450.19	6.000
450.39	5.313
450.59	5.507
450.79	5.280
451.00	6.268
451.20	6.045
451.40	5.088
451.60	4.980
451.80	5.950
452.00	5.134
452.20	5.379
452.40	5.541
452.61	5.493
452.81	5.581
453.01	5.896
453.21	5.343
453.41	5.696
453.61	4.939
453.81	5.647
454.01	5.404
454.21	5.669
454.42	5.557
454.62	5.631
454.82	5.050
455.02	5.340
455.22	4.738
455.42	5.106
455.62	4.590
455.82	5.725
456.02	4.884
456.23	4.994
456.43	5.243
456.63	4.800
456.83	3.944
457.03	5.453
457.23	4.914
457.43	5.347
457.63	4.920
457.83	5.826
458.03	4.742
458.23	5.549
458.43	5.240
458.64	5.546
458.84	5.147
459.04	5.505
459.24	5.488
459.44	5.952
459.64	5.929
459.84	5.969
460.04	5.623
460.24	6.071
460.44	6.092
460.64	6.103
460.84	5.860
461.04	6.539
461.24	6.204
461.45	6.399
461.65	6.213
461.85	6.499
462.05	5.810
462.25	6.183
462.45	6.169
462.65	6.091
462.85	5.056
463.05	5.880
463.25	4.719
463.45	5.713
463.65	5.103
463.85	5.709
464.05	4.824
464.25	5.413
464.45	5.620
464.65	5.383
464.85	4.512
465.05	5.164
465.26	5.293
465.46	5.859
465.66	5.408
465.86	5.744
466.06	5.137
466.26	5.444
466.46	4.619
466.66	5.225
466.86	5.055
467.06	5.831
467.26	5.026
467.46	5.557
467.66	5.065
467.86	5.164
468.06	5.372
468.26	5.126
468.46	5.378
468.66	5.816
468.86	4.897
469.06	5.656
469.26	4.366
469.46	5.572
469.66	4.734
469.86	5.791
470.06	5.527
470.26	5.908
470.46	5.070
470.66	5.840
470.86	4.384
471.06	5.220
471.26	4.253
471.46	4.970
471.66	4.842
471.86	5.477
472.06	4.973
472.26	5.741
472.46	5.801
472.66	5.694
472.86	4.712
473.06	5.688
473.26	5.200
473.46	5.666
473.66	4.834
473.86	6.044
474.06	4.784
474.26	6.063
474.46	4.352
474.66	5.847
474.86	5.194
475.06	5.632
475.26	4.805
475.46	5.157
475.66	4.329
475.86	5.232
476.06	5.907
476.26	5.709
476.46	5.133
476.66	5.677
476.86	5.065
477.06	5.337
477.26	5.379
477.46	5.185
477.65	5.631
477.85	5.870
478.05	5.022
478.25	6.152
478.45	5.316
478.65	5.770
478.85	5.394
479.05	6.057
479.25	5.843
479.45	6.422
479.65	4.830
479.85	5.919
480.05	5.415
480.25	5.880
480.45	5.413
480.65	6.396
480.85	5.596
481.05	6.391
481.25	6.120
481.44	6.217
481.64	5.492
481.84	6.310
482.04	6.188
482.24	6.515
482.44	5.329
482.64	6.453
482.84	6.141
483.04	6.427
483.24	6.507
483.44	6.524
483.64	6.383
483.84	6.735
484.04	6.750
484.23	6.928
484.43	7.024
484.63	7.239
484.83	7.600
485.03	7.845
485.23	7.677
485.43	7.513
485.63	7.522
485.83	7.272
486.03	7.204
486.23	7.408
486.42	7.234
486.62	7.214
486.82	6.953
487.02	6.983
487.22	6.744
487.42	7.037
487.62	6.864
487.82	6.878
488.02	6.983
488.22	6.993
488.41	7.039
488.61	7.047
488.81	7.093
489.01	7.192
489.21	7.129
489.41	7.216
489.61	7.253
489.81	7.234
490.01	7.076
490.20	7.359
490.40	6.859
490.60	7.338
490.80	6.784
491.00	7.151
491.20	6.858
491.40	6.781
491.60	6.675
491.79	6.817
491.99	6.956
492.19	7.022
492.39	7.053
492.59	7.153
492.79	7.131
492.99	7.319
493.19	7.361
493.38	7.426
493.58	7.377
493.78	7.416
493.98	7.454
494.18	7.390
494.38	6.853
494.58	7.021
494.77	6.150
494.97	6.798
495.17	6.617
495.37	6.744
495.57	6.552
495.77	6.817
495.96	6.554
496.16	6.434
496.36	6.559
496.56	7.178
496.76	6.196
496.96	6.656
497.15	6.500
497.35	6.778
497.55	6.738
497.75	6.891
497.95	6.412
498.15	7.432
498.34	6.844
498.54	6.992
498.74	7.370
498.94	7.667
499.14	6.717
499.34	7.371
499.53	6.781
499.73	7.256
499.93	6.869
500.13	7.076
500.33	6.585
500.52	6.963
500.72	6.310
500.92	6.813
501.12	6.042
501.32	6.916
501.52	6.813
501.71	6.821
501.91	6.544
502.11	7.204
502.31	6.586
502.51	6.814
502.70	6.594
502.90	6.962
503.10	6.180
503.30	7.364
503.50	6.737
503.69	7.027
503.89	6.833
504.09	7.572
504.29	7.005
504.48	7.298
504.68	7.404
504.88	7.360
505.08	6.846
505.28	7.556
505.47	7.102
505.67	8.324
505.87	6.856
506.07	7.471
506.27	7.245
506.46	7.746
506.66	7.036
506.86	7.632
507.06	8.159
507.25	7.743
507.45	7.227
507.65	7.834
507.85	7.310
508.04	8.035
508.24	7.335
508.44	7.687
508.64	7.642
508.83	7.722
509.03	7.672
509.23	7.827
509.43	7.469
509.63	8.104
509.82	7.472
510.02	7.739
510.22	7.610
510.42	8.195
510.61	7.994
510.81	8.072
511.01	7.747
511.21	8.432
511.40	7.659
511.60	8.070
511.80	7.797
511.99	8.109
512.19	8.060
512.39	8.327
512.59	7.523
512.78	8.778
512.98	8.161
513.18	8.337
513.38	8.118
513.57	8.852
513.77	8.302
513.97	8.557
514.17	8.051
514.36	8.376
514.56	8.327
514.76	8.829
514.95	7.689
515.15	8.400
515.35	7.849
515.55	8.519
515.74	8.360
515.94	8.475
516.14	7.977
516.33	8.807
516.53	7.857
516.73	8.296
516.93	8.411
517.12	8.901
517.32	7.721
517.52	8.972
517.71	8.444
517.91	8.850
518.11	8.626
518.30	8.721
518.50	8.087
518.70	8.994
518.90	8.624
519.09	8.958
519.29	9.107
519.49	9.404
519.68	8.857
519.88	9.294
520.08	9.290
520.27	9.188
520.47	9.018
520.67	9.150
520.86	9.610
521.06	9.520
521.26	8.753
521.45	9.248
521.65	8.942
521.85	9.123
522.04	8.874
522.24	9.286
522.44	8.858
522.63	8.927
522.83	8.690
523.03	9.276
523.22	9.222
523.42	9.465
523.62	9.179
523.81	9.352
524.01	9.340
524.21	8.989
524.40	8.538
524.60	9.504
524.80	9.062
524.99	9.197
525.19	9.245
525.39	9.587
525.58	9.088
525.78	9.289
525.98	9.542
526.17	9.715
526.37	9.288
526.57	9.916
526.76	9.627
526.96	9.745
527.15	9.751
527.35	9.744
527.55	9.606
527.74	9.717
527.94	9.460
528.14	9.780
528.33	9.430
528.53	9.755
528.72	9.681
528.92	9.828
529.12	9.917
529.31	9.868
529.51	10.076
529.71	10.019
529.90	10.236
530.10	10.164
530.29	10.182
530.49	10.338
530.69	10.242
530.88	10.366
531.08	10.232
531.28	10.117
531.47	10.126
531.67	10.205
531.86	10.018
532.06	10.104
532.26	9.951
532.45	9.932
532.65	9.899
532.84	10.107
533.04	9.684
533.24	9.799
533.43	9.754
533.63	10.008
533.82	10.050
534.02	10.192
534.22	10.291
534.41	10.198
534.61	10.364
534.80	10.338
535.00	10.399
535.19	10.432
535.39	10.323
535.59	10.442
535.78	10.136
535.98	10.246
536.17	10.060
536.37	10.386
536.57	10.065
536.76	10.340
536.96	10.182
537.15	10.422
537.35	10.265
537.54	10.193
537.74	10.464
537.93	10.435
538.13	10.340
538.33	10.554
538.52	10.488
538.72	10.464
538.91	10.485
539.11	10.457
539.30	10.243
539.50	10.707
539.70	10.436
539.89	10.568
540.09	10.152
540.28	10.413
540.48	10.543
540.67	10.473
540.87	10.087
541.06	10.326
541.26	10.260
541.45	10.283
541.65	10.303
541.85	10.608
542.04	10.501
542.24	10.720
542.43	10.711
542.63	10.979
542.82	10.841
543.02	10.716
543.21	10.813
543.41	11.089
543.60	11.140
543.80	11.081
543.99	10.856
544.19	11.036
544.38	11.046
544.58	10.782
544.77	10.841
544.97	11.064
545.16	11.153
545.36	10.790
545.56	10.918
545.75	10.987
545.95	10.616
546.14	10.933
546.34	10.541
546.53	11.011
546.73	10.632
546.92	10.787
547.12	10.780
547.31	11.238
547.51	11.068
547.70	11.034
547.90	11.074
548.09	11.214
548.29	10.837
548.48	11.265
548.68	11.114
548.87	11.508
549.07	10.945
549.26	10.919
549.46	11.484
549.65	11.544
549.84	10.798
550.04	11.005
550.23	10.444
550.43	11.123
550.62	10.342
550.82	11.011
551.01	10.411
551.21	10.967
551.40	10.734
551.60	11.089
551.79	10.552
551.99	10.968
552.18	10.692
552.38	11.191
552.57	11.216
552.77	11.290
552.96	11.405
553.16	11.533
553.35	11.213
553.54	11.872
553.74	11.697
553.93	11.625
554.13	11.418
554.32	11.773
554.52	11.078
554.71	11.647
554.91	11.399
555.10	11.833
555.29	11.488
555.49	11.713
555.68	10.899
555.88	11.580
556.07	10.907
556.27	11.758
556.46	11.257
556.66	11.579
556.85	11.803
557.04	11.821
557.24	11.031
557.43	11.850
557.63	11.375
557.82	11.478
558.02	10.996
558.21	12.163
558.40	10.840
558.60	11.203
558.79	11.258
558.99	12.199
559.18	11.153
559.38	11.823
559.57	11.969
559.76	12.070
559.96	11.666
560.15	11.918
560.35	11.322
560.54	11.798
560.73	11.377
560.93	12.105
561.12	11.288
561.32	12.271
561.51	11.996
561.70	12.113
561.90	11.967
562.09	12.627
562.29	11.695
562.48	12.510
562.67	12.060
562.87	12.689
563.06	11.916
563.26	12.022
563.45	11.915
563.64	12.627
563.84	12.416
564.03	12.671
564.23	11.723
564.42	12.975
564.61	12.255
564.81	12.949
565.00	12.773
565.20	13.253
565.39	12.718
565.58	13.064
565.78	12.348
565.97	13.079
566.16	13.299
566.36	13.287
566.55	12.852
566.74	13.077
566.94	13.157
567.13	13.446
567.33	12.876
567.52	13.541
567.71	13.205
567.91	13.605
568.10	13.405
568.29	13.585
568.49	13.215
568.68	13.590
568.87	12.458
569.07	13.329
569.26	13.324
569.45	13.430
569.65	12.961
569.84	13.147
570.04	12.931
570.23	13.210
570.42	12.378
570.62	13.452
570.81	13.340
571.00	13.573
571.20	13.639
571.39	13.778
571.58	13.635
571.78	13.548
571.97	13.148
572.16	13.640
572.36	13.683
572.55	13.904
572.74	13.924
572.94	13.506
573.13	13.836
573.32	13.628
573.51	13.347
573.71	13.840
573.90	13.272
574.09	13.763
574.29	13.203
574.48	13.888
574.67	12.957
574.87	13.591
575.06	12.905
575.25	13.932
575.45	13.460
575.64	13.742
575.83	13.477
576.03	14.132
576.22	13.176
576.41	13.770
576.60	13.195
576.80	13.654
576.99	13.603
577.18	13.967
577.38	13.380
577.57	13.599
577.76	14.237
577.95	13.759
578.15	13.078
578.34	13.532
578.53	12.737
578.73	13.253
578.92	12.812
579.11	13.245
579.30	13.528
579.50	13.172
579.69	13.256
579.88	13.185
580.08	12.036
580.27	13.564
580.46	12.854
580.65	13.262
580.85	13.513
581.04	13.506
581.23	12.456
581.42	13.592
581.62	12.719
581.81	12.716
582.00	12.515
582.19	13.338
582.39	13.123
582.58	12.862
582.77	12.708
582.96	12.970
583.16	11.850
583.35	13.548
583.54	12.255
583.73	13.082
583.93	12.832
584.12	13.116
584.31	11.932
584.50	12.809
584.70	12.351
584.89	13.320
585.08	11.933
585.27	13.769
585.47	11.632
585.66	12.918
585.85	11.933
586.04	12.929
586.24	12.688
586.43	12.506
586.62	11.862
586.81	12.761
587.00	11.930
587.20	12.825
587.39	11.652
587.58	13.118
587.77	12.593
587.97	12.210
588.16	12.212
588.35	13.009
588.54	12.208
588.73	12.432
588.93	12.307
589.12	12.523
589.31	12.463
589.50	12.840
589.69	12.734
589.89	12.924
590.08	12.192
590.27	12.366
590.46	13.042
590.65	12.431
590.85	11.687
591.04	12.802
591.23	11.870
591.42	12.891
591.61	12.235
591.81	12.688
592.00	11.992
592.19	12.929
592.38	11.852
592.57	12.892
592.77	12.536
592.96	12.519
593.15	12.770
593.34	12.720
593.53	11.974
593.72	12.722
593.92	11.578
594.11	13.018
594.30	12.261
594.49	12.831
594.68	12.499
594.87	12.533
595.07	12.069
595.26	13.092
595.45	11.877
595.64	13.010
595.83	11.497
596.02	13.036
596.22	12.422
596.41	12.549
596.60	12.276
596.79	13.714
596.98	12.300
597.17	13.203
597.37	12.803
597.56	13.379
597.75	12.586
597.94	13.086
598.13	13.239
598.32	13.281
598.51	12.732
598.71	13.257
598.90	12.483
599.09	13.140
599.28	12.306
599.47	13.141
599.66	12.762
599.85	13.082
600.05	12.073
600.24	12.600
600.43	11.675
600.62	12.488
600.81	11.948
601.00	13.037
601.19	10.925
601.38	12.203
601.58	11.409
601.77	12.049
601.96	11.685
602.15	12.361
602.34	12.112
602.53	13.758
602.72	12.034
602.91	12.653
603.10	11.867
603.30	13.156
603.49	12.376
603.68	13.085
603.87	11.890
604.06	12.397
604.25	12.867
604.44	13.616
604.63	12.666
604.82	13.206
605.01	12.992
605.21	13.839
605.40	13.007
605.59	13.382
605.78	13.106
605.97	13.184
606.16	13.298
606.35	13.212
606.54	12.775
606.73	13.487
606.92	12.581
607.11	13.410
607.30	12.223
607.50	12.750
607.69	12.340
607.88	12.950
608.07	12.011
608.26	13.081
608.45	12.683
608.64	13.442
608.83	11.822
609.02	12.764
609.21	12.093
609.40	13.489
609.59	12.310
609.78	13.114
609.97	12.603
610.16	12.866
610.35	13.026
610.55	12.978
610.74	12.912
610.93	13.416
611.12	12.693
611.31	12.745
611.50	12.199
611.69	12.342
611.88	12.074
612.07	13.517
612.26	11.641
612.45	12.320
612.64	11.916
612.83	12.555
613.02	11.342
613.21	11.548
613.40	11.670
613.59	13.058
613.78	10.397
613.97	12.670
614.16	10.820
614.35	12.349
614.54	10.099
614.73	11.453
614.92	10.964
615.11	11.590
615.30	10.608
615.49	11.243
615.68	10.651
615.87	10.947
616.07	10.610
616.26	10.767
616.45	11.180
616.64	10.735
616.83	10.361
617.02	12.056
617.21	9.627
617.40	10.757
617.59	10.730
617.78	10.801
617.97	10.015
618.16	11.385
618.35	8.999
618.54	10.592
618.73	10.502
618.92	10.702
619.11	9.551
619.30	11.301
619.49	9.442
619.68	11.220
619.86	10.327
620.05	10.360
620.24	10.167
620.43	10.872
620.62	8.656
620.81	10.782
621.00	10.384
621.19	11.856
621.38	10.899
621.57	10.419
621.76	10.357
621.95	11.643
622.14	9.412
622.33	11.786
622.52	9.235
622.71	10.057
622.90	9.981
623.09	10.627
623.28	10.887
623.47	10.828
623.66	10.067
623.85	10.215
624.04	9.550
624.23	10.747
624.42	9.762
624.61	9.976
624.80	8.205
624.99	10.652
625.18	8.477
625.36	10.581
625.55	10.514
625.74	9.302
625.93	9.426
626.12	10.120
626.31	10.861
626.50	10.531
626.69	10.020
626.88	11.274
627.07	11.271
627.26	10.929
627.45	10.690
627.64	10.599
627.83	10.361
628.02	11.531
628.20	10.816
628.39	10.881
628.58	10.624
628.77	11.348
628.96	10.419
629.15	10.916
629.34	10.771
629.53	10.191
629.72	9.897
629.91	11.597
630.10	9.853
630.29	11.806
630.47	10.082
630.66	10.846
630.85	10.271
631.04	10.841
631.23	10.046
631.42	10.820
631.61	9.493
631.80	10.792
631.99	9.299
632.18	10.342
632.36	8.769
632.55	10.985
632.74	9.361
632.93	9.439
633.12	9.290
633.31	10.465
633.50	9.514
633.69	10.513
633.88	9.035
634.06	10.798
634.25	9.797
634.44	10.615
634.63	10.133
634.82	11.687
635.01	9.892
635.20	10.137
635.39	9.219
635.57	10.451
635.76	9.611
635.95	9.090
636.14	9.100
636.33	9.926
636.52	9.602
636.71	9.611
636.89	9.070
637.08	9.936
637.27	8.565
637.46	9.139
637.65	9.619
637.84	8.750
638.03	7.614
638.21	10.207
638.40	9.282
638.59	8.348
638.78	8.521
638.97	10.043
639.16	10.135
639.34	10.047
639.53	7.730
639.72	10.278
639.91	8.033
640.10	7.695
640.29	9.699
640.47	9.913
640.66	8.288
640.85	10.208
641.04	6.493
641.23	8.717
641.42	8.133
641.60	8.035
641.79	8.568
641.98	7.786
642.17	7.546
642.36	9.311
642.54	8.212
642.73	8.783
642.92	8.103
643.11	7.870
643.30	7.226
643.49	7.523
643.67	6.621
643.86	7.548
644.05	6.582
644.24	7.107
644.43	8.596
644.61	8.147
644.80	7.849
644.99	7.718
645.18	8.214
645.37	8.280
645.55	6.978
645.74	8.327
645.93	8.092
646.12	7.761
646.31	8.137
646.49	7.439
646.68	8.510
646.87	6.915
647.06	6.831
647.24	8.030
647.43	6.981
647.62	8.704
647.81	6.904
648.00	8.074
648.18	6.743
648.37	6.939
648.56	8.007
648.75	6.332
648.93	6.828
649.12	8.283
649.31	7.581
649.50	7.663
649.68	7.629
649.87	7.771
650.06	6.297
650.25	8.326
650.43	6.672
650.62	6.225
650.81	6.616
651.00	7.895
651.18	6.743
651.37	7.930
651.56	7.254
651.75	8.633
651.93	6.919
652.12	8.272
652.31	6.378
652.50	7.619
652.68	7.839
652.87	9.153
653.06	8.066
653.25	7.965
653.43	7.119
653.62	7.369
653.81	7.861
654.00	7.702
654.18	7.233
654.37	8.579
654.56	6.070
654.74	6.399
654.93	6.747
655.12	7.273
655.31	8.277
655.49	8.021
655.68	5.706
655.87	6.406
656.05	6.037
656.24	7.056
656.43	6.295
656.62	7.355
656.80	6.943
656.99	6.422
657.18	5.512
657.36	6.860
657.55	7.150
657.74	7.502
657.93	7.609
658.11	8.402
658.30	8.148
658.49	7.009
658.67	7.236
658.86	6.872
659.05	6.338
659.23	7.459
659.42	6.567
659.61	7.111
659.79	6.348
659.98	7.884
660.17	8.437
660.35	7.406
660.54	8.320
660.73	8.968
660.91	7.758
661.10	8.109
661.29	5.993
661.47	6.670
661.66	7.180
661.85	7.370
662.03	7.470
662.22	4.910
662.41	4.836
662.59	7.219
662.78	5.710
662.97	6.718
663.15	5.804
663.34	5.564
663.53	5.014
663.71	6.181
663.90	5.520
664.09	6.228
664.27	5.868
664.46	5.854
664.65	4.323
664.83	5.649
665.02	5.515
665.21	4.405
665.39	4.767
665.58	5.595
665.77	5.824
665.95	5.813
666.14	4.906
666.32	6.241
666.51	5.018
666.70	4.085
666.88	4.609
667.07	4.964
667.26	4.192
667.44	5.475
667.63	4.788
667.81	4.588
668.00	4.352
668.19	7.097
668.37	5.251
668.56	6.363
668.75	3.772
668.93	6.582
669.12	3.784
669.30	4.515
669.49	3.775
669.68	5.718
669.86	5.662
670.05	4.364
670.23	3.777
670.42	3.896
670.61	6.053
670.79	5.663
670.98	4.700
671.16	5.540
671.35	4.351
671.54	4.293
671.72	5.513
671.91	4.583
672.09	4.895
672.28	5.816
672.46	6.512
672.65	6.104
672.84	5.476
673.02	5.159
673.21	4.082
673.39	4.150
673.58	6.007
673.77	5.483
673.95	4.857
674.14	5.769
674.32	4.118
674.51	5.885
674.69	4.667
674.88	6.105
675.07	4.492
675.25	7.118
675.44	5.521
675.62	4.965
675.81	4.480
675.99	8.055
676.18	6.223
676.36	4.847
676.55	5.562
676.74	6.003
676.92	6.142
677.11	6.391
677.29	5.530
677.48	6.052
677.66	5.773
677.85	5.305
678.03	6.660
678.22	6.339
678.40	6.111
678.59	5.302
678.78	4.973
678.96	4.302
679.15	4.991
679.33	6.479
679.52	6.299
679.70	6.496
679.89	5.180
680.07	5.690
680.26	4.813
680.44	5.433
680.63	5.596
680.81	5.891
681.00	4.784
681.18	5.322
681.37	5.117
681.55	6.832
681.74	6.790
681.92	6.257
682.11	6.265
682.29	5.289
682.48	5.458
682.66	6.693
682.85	5.576
683.03	6.808
683.22	7.782
683.40	7.749
683.59	6.871
683.77	7.184
683.96	5.496
684.14	8.053
684.33	5.746
684.51	8.976
684.70	6.819
684.88	7.899
685.07	7.283
685.25	7.842
685.44	5.885
685.62	6.626
685.81	6.653
685.99	8.401
686.18	6.645
686.36	7.963
686.55	5.634
686.73	6.224
686.92	9.695
687.10	7.528
687.29	8.497
687.47	8.724
687.65	8.750
687.84	7.229
688.02	10.614
688.21	9.920
688.39	7.805
688.58	9.447
688.76	8.424
688.95	8.223
689.13	7.485
689.32	10.170
689.50	10.046
689.68	9.636
689.87	8.703
690.05	10.324
690.24	10.979
690.42	10.186
690.61	10.243
690.79	10.780
690.98	9.578
691.16	10.673
691.34	7.698
691.53	9.761
691.71	9.028
691.90	10.515
692.08	8.469
692.27	10.526
692.45	12.310
692.63	9.351
692.82	12.130
693.00	10.921
693.19	9.536
693.37	13.080
693.56	9.841
693.74	12.344
693.92	9.884
694.11	10.863
694.29	11.949
694.48	11.916
694.66	11.045
694.84	13.272
695.03	10.725
695.21	13.751
695.40	12.896
695.58	14.689
695.76	11.727
695.95	12.925
696.13	11.709
696.32	15.223
696.50	18.286
696.68	14.280
696.87	12.866
697.05	14.695
697.24	14.605
697.42	15.430
697.60	15.169
697.79	14.172
697.97	15.507
698.16	17.417
698.34	14.664
698.52	17.187
698.71	14.617
698.89	16.713
699.07	16.533
699.26	17.746
699.44	17.012
699.63	19.026
699.81	16.146
699.99	19.900
700.18	18.830
700.36	18.435
700.54	17.839
700.73	18.049
700.91	16.767
701.09	19.380
701.28	18.356
701.46	18.991
701.64	17.598
701.83	19.594
702.01	16.081
702.20	20.539
702.38	19.290
702.56	18.315
702.75	18.063
702.93	16.566
703.11	17.349
703.30	17.909
703.48	18.599
703.66	17.732
703.85	17.937
704.03	19.401
704.21	16.479
704.40	21.676
704.58	16.386
704.76	20.587
704.95	15.742
705.13	20.128
705.31	18.595
705.50	20.600
705.68	16.397
705.86	20.667
706.04	18.585
706.23	20.318
706.41	20.363
706.59	21.230
706.78	17.555
706.96	19.918
707.14	20.101
707.33	19.226
707.51	18.160
707.69	19.155
707.88	17.374
708.06	21.774
708.24	19.390
708.42	21.909
708.61	18.583
708.79	22.343
708.97	20.341
709.16	22.130
709.34	22.198
709.52	21.670
709.71	20.297
709.89	21.683
710.07	19.308
710.25	22.817
710.44	19.522
710.62	21.945
710.80	21.826
710.98	22.938
711.17	21.973
711.35	23.001
711.53	19.663
711.72	21.823
711.90	24.016
712.08	22.017
712.26	18.793
712.45	21.851
712.63	22.148
712.81	24.391
712.99	21.778
713.18	24.113
713.36	21.885
713.54	23.350
713.72	21.209
713.91	21.140
714.09	21.067
714.27	23.097
714.45	22.378
714.64	26.017
714.82	22.096
715.00	24.061
715.18	21.246
715.37	26.477
715.55	22.701
715.73	24.042
715.91	24.229
716.10	22.894
716.28	19.755
716.46	25.088
716.64	22.300
716.83	23.218
717.01	22.342
717.19	24.787
717.37	23.309
717.55	24.572
717.74	21.717
717.92	25.306
718.10	20.147
718.28	22.749
718.47	20.340
718.65	23.937
718.83	22.925
719.01	24.080
719.19	20.938
719.38	20.562
719.56	20.854
719.74	21.984
719.92	17.836
720.10	20.371
720.29	21.964
720.47	23.959
720.65	22.923
720.83	25.263
721.01	19.401
721.20	20.198
721.38	20.947
721.56	22.457
721.74	23.803
721.92	22.704
722.11	19.341
722.29	22.355
722.47	19.916
722.65	22.946
722.83	21.962
723.01	21.605
723.20	21.448
723.38	21.510
723.56	21.656
723.74	26.487
723.92	21.666
724.10	23.947
724.29	19.929
724.47	25.302
724.65	20.574
724.83	23.328
725.01	22.217
725.19	25.554
725.38	20.290
725.56	23.437
725.74	22.865
725.92	23.444
726.10	22.578
726.28	23.569
726.46	21.131
726.65	24.286
726.83	21.561
727.01	24.504
727.19	20.259
727.37	24.718
727.55	22.128
727.73	23.050
727.92	22.860
728.10	24.926
728.28	19.703
728.46	24.772
728.64	22.251
728.82	24.312
729.00	24.377
729.19	25.386
729.37	24.716
729.55	25.026
729.73	19.996
729.91	25.938
730.09	23.842
730.27	23.726
730.45	21.380
730.63	24.808
730.82	20.190
731.00	25.064
731.18	22.051
731.36	25.513
731.54	19.026
731.72	25.546
731.90	20.876
732.08	26.305
732.26	21.357
732.45	25.388
732.63	23.186
732.81	24.150
732.99	21.897
733.17	25.580
733.35	23.221
733.53	26.909
733.71	24.056
733.89	24.956
734.07	23.919
734.25	28.657
734.44	24.699
734.62	25.373
734.80	21.210
734.98	26.318
735.16	23.562
735.34	25.466
735.52	24.898
735.70	24.561
735.88	24.427
736.06	23.505
736.24	29.217
736.42	26.552
736.60	23.475
736.78	27.464
736.97	22.696
737.15	27.360
737.33	19.506
737.51	23.742
737.69	23.112
737.87	26.073
738.05	25.691
738.23	23.503
738.41	23.279
738.59	26.294
738.77	23.696
738.95	26.988
739.13	23.551
739.31	26.966
739.49	24.480
739.67	28.644
739.85	25.770
740.03	28.268
740.21	25.404
740.39	29.832
740.57	26.337
740.75	27.241
740.93	24.763
741.11	28.708
741.30	25.148
741.48	27.501
741.66	26.405
741.84	23.338
742.02	25.498
742.20	27.292
742.38	22.949
742.56	29.516
742.74	21.713
742.92	25.409
743.10	24.482
743.28	25.536
743.46	24.047
743.64	25.450
743.82	20.447
744.00	26.987
744.18	25.480
744.36	25.336
744.54	22.626
744.72	28.908
744.90	26.695
745.08	27.902
745.26	25.391
745.44	27.447
745.62	23.616
745.80	24.791
745.98	25.711
746.16	28.764
746.34	23.942
746.52	29.300
746.70	20.717
746.87	24.968
747.05	23.528
747.23	27.569
747.41	24.757
747.59	28.020
747.77	22.737
747.95	23.981
748.13	25.654
748.31	24.960
748.49	23.622
748.67	23.905
748.85	24.691
749.03	27.484
749.21	23.737
749.39	28.483
749.57	22.121
749.75	24.232
749.93	25.138
750.11	25.521
750.29	27.646
750.47	28.089
750.65	23.199
750.83	26.306
751.01	21.311
751.18	25.069
751.36	22.555
751.54	23.432
751.72	25.826
751.90	27.747
752.08	22.127
752.26	21.622
752.44	26.183
752.62	25.914
752.80	25.794
752.98	26.445
753.16	23.215
753.34	26.136
753.52	27.798
753.69	25.352
753.87	25.215
754.05	26.630
754.23	23.204
754.41	27.892
754.59	21.367
754.77	25.168
754.95	24.096
755.13	25.880
755.31	23.437
755.49	25.244
755.66	25.543
755.84	27.891
756.02	22.866
756.20	27.754
756.38	19.674
756.56	26.059
756.74	22.464
756.92	25.257
757.10	23.421
757.28	25.666
757.45	29.478
757.63	27.732
757.81	22.740
757.99	29.975
758.17	22.919
758.35	28.848
758.53	27.019
758.71	25.516
758.88	25.905
759.06	28.598
759.24	20.248
759.42	22.323
759.60	22.329
759.78	21.492
759.96	20.358
760.13	22.633
760.31	19.527
760.49	20.097
760.67	18.694
760.85	21.381
761.03	21.251
761.21	20.958
761.38	18.218
761.56	20.405
761.74	18.995
761.92	23.537
762.10	17.262
762.28	22.409
762.46	16.983
762.63	18.745
762.81	19.081
762.99	18.819
763.17	22.638
763.35	22.327
763.53	18.559
763.70	24.533
763.88	24.024
764.06	25.050
764.24	22.754
764.42	25.734
764.60	22.048
764.77	23.520
764.95	22.210
765.13	23.831
765.31	24.451
765.49	25.835
765.66	22.748
765.84	25.747
766.02	23.628
766.20	23.073
766.38	20.516
766.56	23.567
766.73	20.090
766.91	23.506
767.09	22.029
767.27	24.383
767.45	22.777
767.62	23.942
767.80	19.904
767.98	25.367
768.16	20.608
768.33	25.654
768.51	22.341
768.69	25.212
768.87	25.213
769.05	22.397
769.22	21.708
769.40	25.035
769.58	23.882
769.76	26.558
769.94	23.847
770.11	21.117
770.29	23.239
770.47	22.686
770.65	25.114
770.82	24.724
771.00	23.480
771.18	26.932
771.36	20.860
771.53	24.836
771.71	23.649
771.89	27.385
772.07	24.461
772.25	25.155
772.42	25.011
772.60	24.562
772.78	26.763
772.96	27.798
773.13	25.758
773.31	22.953
773.49	24.989
773.67	24.646
773.84	24.613
774.02	25.380
774.20	21.782
774.37	24.464
774.55	22.480
774.73	27.628
774.91	24.425
775.08	26.464
775.26	24.091
775.44	27.244
775.62	22.271
775.79	25.509
775.97	20.632
776.15	22.190
776.32	19.781
776.50	29.982
776.68	24.398
776.86	27.643
777.03	22.475
777.21	30.609
777.39	19.509
777.56	24.576
777.74	25.398
777.92	28.119
778.10	20.325
778.27	25.708
778.45	22.573
778.63	26.144
778.80	23.399
778.98	25.562
779.16	26.069
779.34	27.495
779.51	24.870
779.69	26.644
779.87	22.678
780.04	24.359
780.22	21.644
780.40	27.162
780.57	22.121
780.75	24.075
780.93	29.395
781.10	28.446
781.28	33.730
781.46	23.304
781.63	27.830
781.81	28.938
781.99	19.074
782.16	26.723
782.34	19.897
782.52	24.133
782.69	26.219
782.87	23.490
783.05	21.760
783.22	24.588
783.40	22.163
783.58	24.142
783.75	22.710
783.93	28.076
784.11	26.530
784.28	27.253
784.46	22.927
784.64	24.561
784.81	20.986
784.99	26.171
785.17	24.562
785.34	24.241
785.52	22.149
785.69	25.619
785.87	16.894
786.05	24.485
786.22	25.030
786.40	30.248
786.58	24.463
786.75	27.542
786.93	24.929
787.11	25.301
787.28	22.010
787.46	27.790
787.63	25.221
787.81	18.517
787.99	24.269
788.16	26.005
788.34	19.510
788.51	21.666
788.69	20.111
788.87	21.880
789.04	23.260
789.22	25.069
789.39	20.881
789.57	21.767
789.75	20.447
789.92	26.273
790.10	24.540
790.27	24.825
790.45	18.818
790.63	23.467
790.80	23.250
790.98	21.332
791.15	21.710
791.33	23.555
791.51	16.416
791.68	22.848
791.86	23.252
792.03	23.576
792.21	18.852
792.39	24.158
792.56	25.581
792.74	24.970
792.91	23.913
793.09	24.246
793.26	26.722
793.44	24.092
793.62	21.812
793.79	25.862
793.97	26.319
794.14	24.040
794.32	28.974
794.49	23.221
794.67	16.145
794.84	24.608
795.02	21.132
795.20	28.288
795.37	22.033
795.55	25.516
795.72	25.955
795.90	21.499
796.07	22.819
796.25	25.972
796.42	23.781
796.60	22.029
796.77	23.529
796.95	21.472
797.13	19.831
797.30	23.200
797.48	19.055
797.65	27.048
797.83	22.204
798.00	24.783
798.18	18.801
798.35	23.231
798.53	23.778
798.70	22.494
798.88	24.847
799.05	25.884
799.23	22.383
799.40	22.664
799.58	25.082
799.75	26.882
799.93	21.053
800.10	19.838
800.28	22.287
800.45	22.268
800.63	21.223
800.80	21.747
800.98	24.571
801.15	19.273
801.33	23.485
801.50	27.527
801.68	21.464
801.85	19.883
802.03	24.000
802.20	18.602
802.38	20.748
802.55	20.186
802.73	25.671
802.90	28.467
803.08	23.077
803.25	24.065
803.43	23.495
803.60	25.132
803.78	26.385
803.95	23.237
804.13	26.282
804.30	20.506
804.48	26.330
804.65	28.629
804.83	19.947
805.00	22.259
805.17	27.000
805.35	16.435
805.52	18.110
805.70	25.953
805.87	20.883
806.05	26.485
806.22	25.096
806.40	22.272
806.57	31.078
806.75	28.571
806.92	31.650
807.09	25.129
807.27	23.383
807.44	25.117
807.62	18.373
807.79	22.617
807.97	20.381
808.14	23.803
808.31	25.271
808.49	26.837
808.66	26.076
808.84	18.261
809.01	24.085
809.19	26.450
809.36	27.261
809.53	23.284
809.71	24.488
809.88	27.605
810.06	26.406
810.23	22.191
810.41	27.349
810.58	27.962
810.75	24.925
810.93	20.312
811.10	25.873
811.28	19.002
811.45	22.307
811.62	27.315
811.80	25.310
811.97	28.244
812.15	27.981
812.32	24.031
812.49	27.576
812.67	23.565
812.84	26.561
813.02	24.554
813.19	24.732
813.36	24.020
813.54	19.624
813.71	28.729
813.89	23.071
814.06	32.228
814.23	26.181
814.41	20.521
814.58	28.660
814.75	24.764
814.93	24.589
815.10	22.315
815.28	23.890
815.45	21.242
815.62	25.501
815.80	20.418
815.97	23.339
816.14	22.625
816.32	24.551
816.49	19.378
816.66	21.836
816.84	17.714
817.01	26.252
817.18	27.698
817.36	19.713
817.53	21.606
817.71	24.659
817.88	26.223
818.05	27.108
818.23	27.132
818.40	26.630
818.57	20.753
818.75	18.608
818.92	15.177
819.09	26.455
819.27	29.765
819.44	24.613
819.61	19.136
819.79	21.085
819.96	27.324
820.13	21.279
820.31	21.025
820.48	20.570
820.65	27.048
820.82	19.321
821.00	21.880
821.17	18.173
821.34	21.365
821.52	20.465
821.69	19.231
821.86	17.857
822.04	19.281
822.21	22.587
822.38	22.033
822.56	19.268
822.73	26.496
822.90	25.638
823.07	27.634
823.25	25.963
823.42	25.750
823.59	25.082
823.77	26.298
823.94	25.846
824.11	27.126
824.29	24.561
824.46	27.868
824.63	26.254
824.80	24.201
824.98	24.091
825.15	25.605
825.32	19.490
825.49	21.904
825.67	20.351
825.84	23.314
826.01	20.960
826.19	22.121
826.36	18.566
826.53	23.958
826.70	19.881
826.88	23.266
827.05	17.838
827.22	20.980
827.39	18.126
827.57	19.260
827.74	18.720
827.91	23.112
828.08	19.035
828.26	22.268
828.43	19.588
828.60	25.466
828.77	22.741
828.95	22.672
829.12	17.584
829.29	18.320
829.46	17.947
829.64	21.134
829.81	19.440
829.98	21.966
830.15	19.770
830.32	19.259
830.50	20.898
830.67	18.888
830.84	17.764
831.01	16.171
831.19	17.819
831.36	20.662
831.53	20.301
831.70	26.001
831.87	26.855
832.05	23.190
832.22	30.815
832.39	17.306
832.56	21.948
832.74	21.183
832.91	21.125
833.08	25.361
833.25	20.323
833.42	21.922
833.60	21.967
833.77	17.821
833.94	17.248
834.11	16.674
834.28	17.443
834.45	22.514
834.63	17.123
834.80	20.398
834.97	17.267
835.14	17.412
835.31	20.029
835.49	16.942
835.66	17.715
835.83	16.156
836.00	18.002
836.17	17.159
836.34	15.754
836.52	18.613
836.69	21.475
836.86	19.708
837.03	24.787
837.20	23.275
837.37	19.713
837.55	23.268
837.72	22.072
837.89	22.632
838.06	19.271
838.23	27.622
838.40	27.013
838.58	19.428
838.75	28.504
838.92	27.630
839.09	29.183
839.26	27.706
839.43	34.028
839.60	27.541
839.78	34.755
839.95	32.958
840.12	29.167
840.29	16.184
840.46	28.840
840.63	33.235
840.80	26.040
840.98	26.335
841.15	27.768
841.32	30.614
841.49	17.098
841.66	29.091
841.83	28.468
842.00	27.544
842.17	35.244
842.34	29.480
842.52	27.439
842.69	34.595
842.86	35.040
843.03	31.927
843.20	36.353
843.37	34.935
843.54	33.155
843.71	26.017
843.88	44.745
844.06	41.270
844.23	36.391
844.40	24.633
844.57	39.972
844.74	19.667
844.91	42.058
845.08	49.839
845.25	50.096
845.42	38.636
845.59	42.070
845.76	44.665
845.94	53.542
846.11	38.330
846.28	40.506
846.45	53.042
846.62	34.642
846.79	40.894
846.96	34.291
847.13	49.120
847.30	38.761
847.47	42.011
847.64	41.966
847.81	45.472
847.98	70.196
848.15	44.343
848.32	41.082
848.50	63.894
848.67	46.727
848.84	45.336
849.01	42.377
849.18	63.557
849.35	52.070
849.52	52.156
849.69	56.047
849.86	56.805
850.03	52.481
850.20	48.992
850.37	31.837
850.54	48.329
850.71	65.323
850.88	44.266
851.05	52.208
851.22	55.868
851.39	50.107
851.56	39.258
851.73	61.303
851.90	49.020
852.07	44.754
852.24	61.298
852.41	55.069
852.58	68.135
852.75	58.985
852.92	55.990
853.09	62.611
853.26	45.000
853.43	52.311
853.60	47.535
853.77	58.120
853.94	53.595
854.11	73.434
854.28	59.681
854.45	59.193
854.62	49.558
854.79	70.071
854.96	52.830
855.13	55.172
855.30	42.716
855.47	65.054
855.64	30.808
855.81	58.043
855.98	61.745
856.15	56.787
856.32	49.610
856.49	41.600
856.66	54.938
856.83	49.359
857.00	56.649
857.17	52.887
857.34	52.887
857.51	45.035
857.68	63.212
857.85	50.215
858.02	62.555
858.19	50.520
858.36	51.826
858.53	59.574
858.70	62.387
858.87	57.419
859.04	51.584
859.21	59.158
859.38	53.669
859.55	61.995
859.72	76.309
859.89	42.559
860.05	52.043
860.22	47.033
860.39	51.346
860.56	57.880
860.73	60.046
860.90	56.077
861.07	67.229
861.24	53.241
861.41	59.916
861.58	48.998
861.75	63.613
861.92	46.861
862.09	52.009
862.26	42.286
862.43	70.139
862.59	46.301
862.76	72.938
862.93	63.404
863.10	56.955
863.27	60.870
863.44	49.880
863.61	67.411
863.78	59.436
863.95	86.478
864.12	60.504
864.29	78.409
864.45	66.915
864.62	59.420
864.79	55.741
864.96	59.466
865.13	63.035
865.30	42.237
865.47	63.567
865.64	60.000
865.81	35.190
865.97	41.775
866.14	42.412
866.31	53.247
866.48	67.475
866.65	48.578
866.82	57.079
866.99	71.955
867.16	45.098
867.33	70.743
867.49	70.423
867.66	73.775
867.83	76.873
868.00	44.531
868.17	45.909
868.34	59.346
868.51	50.868
868.67	62.155
868.84	52.163
869.01	58.869
869.18	49.471
869.35	66.279
869.52	55.319
869.69	60.396
869.85	68.386
870.02	58.477
870.19	65.394
870.36	59.398
870.53	59.910
870.70	63.183
870.86	45.932
871.03	48.471
871.20	45.995
871.37	51.802
871.54	66.476
871.71	58.445
871.87	70.370
872.04	69.547
872.21	63.514
872.38	67.413
872.55	78.756
872.72	45.351
872.88	34.426
873.05	49.002
873.22	45.499
873.39	50.485
873.56	59.949
873.72	47.894
873.89	42.484
874.06	44.699
874.23	52.174
874.40	43.014
874.56	42.680
874.73	60.988
874.90	39.130
875.07	60.723
875.24	38.902
875.40	45.736
875.57	48.596
875.74	57.250
875.91	47.661
876.08	58.124
876.24	63.964
876.41	43.305
876.58	48.348
876.75	38.734
876.92	64.392
877.08	64.692
877.25	70.105
877.42	48.919
877.59	44.306
877.75	51.620
877.92	44.444
878.09	58.242
878.26	58.848
878.42	72.696
878.59	48.292
878.76	47.045
878.93	52.825
879.09	54.646
879.26	54.286
879.43	57.664
879.60	50.294
879.76	47.913
879.93	41.682
880.10	38.241
880.27	34.858
880.43	45.638
880.60	31.434
880.77	25.678
880.94	39.547
881.10	27.470
881.27	32.362
881.44	25.788
881.61	27.901
881.77	27.304
881.94	16.175
882.11	13.521
882.28	18.763
882.44	18.386
882.61	16.623
882.78	20.536
882.94	20.916
883.11	20.059
883.28	18.869
883.45	20.497
883.61	17.897
883.78	18.378
883.95	19.232
884.11	15.606
884.28	15.132
>>>>>End Processed Spectral Data<<<<<
