SpectraSuite Data File
++++++++++++++++++++++++++++++++++++
Date: Tue Sep 24 03:09:57 EST 2019
User: sgrac
Dark Spectrum Present: Yes
Reference Spectrum Present: Yes
Number of Sampled Component Spectra: 1
Spectrometers: USB4E01596
Integration Time (usec): 100000 (USB4E01596)
Spectra Averaged: 3 (USB4E01596)
Boxcar Smoothing: 0 (USB4E01596)
Correct for Electrical Dark: No (USB4E01596)
Strobe/Lamp Enabled: Yes (USB4E01596)
Correct for Detector Non-linearity: No (USB4E01596)
Correct for Stray Light: No (USB4E01596)
Number of Pixels in Processed Spectrum: 3648
>>>>>Begin Processed Spectral Data<<<<<
178.44	1018.182
178.66	1018.182
178.87	1018.182
179.09	516.981
179.30	542.222
179.52	-836.667
179.74	511.321
179.95	501.493
180.17	-12700.000
180.38	-11900.000
180.60	352.809
180.82	-2514.286
181.03	756.757
181.25	-1160.870
181.46	488.889
181.68	2500.000
181.89	-1295.833
182.11	434.848
182.33	840.000
182.54	635.088
182.76	-525.000
182.97	193.168
183.19	580.000
183.40	3566.667
183.62	362.195
183.84	356.000
184.05	571.739
184.27	366.667
184.48	-1522.222
184.70	331.183
184.91	450.000
185.13	521.053
185.34	406.452
185.56	909.375
185.78	1016.667
185.99	1512.500
186.21	325.000
186.42	547.619
186.64	360.215
186.85	581.250
187.07	-3330.000
187.28	-1100.000
187.50	-31000.000
187.72	31900.000
187.93	-1512.500
188.15	797.674
188.36	414.865
188.58	463.514
188.79	-3942.857
189.01	-2269.231
189.22	1152.000
189.44	359.302
189.65	475.758
189.87	-4200.000
190.09	852.941
190.30	760.526
190.52	1447.619
190.73	4333.333
190.95	831.579
191.16	327.848
191.38	2872.727
191.59	2264.286
191.81	850.000
192.02	755.319
192.24	604.082
192.45	1500.000
192.67	392.208
192.88	325.510
193.10	481.818
193.31	298.990
193.53	763.158
193.74	-21800.000
193.96	521.127
194.18	311.321
194.39	391.304
194.61	346.296
194.82	288.136
195.04	355.140
195.25	0.000
195.47	-28700.000
195.68	283.000
195.90	312.941
196.11	448.193
196.33	565.116
196.54	346.789
196.76	915.152
196.97	-2091.667
197.19	302.326
197.40	587.719
197.62	598.113
197.83	323.077
198.05	530.137
198.26	0.000
198.48	-415.556
198.69	1023.333
198.91	4285.714
199.12	-5325.000
199.34	330.000
199.55	-35300.000
199.77	1622.222
199.98	476.056
200.20	196.694
200.41	530.263
200.63	870.588
200.84	-2169.231
201.06	298.734
201.27	1100.000
201.49	674.468
201.70	391.954
201.91	452.113
202.13	474.627
202.34	-1152.000
202.56	222.535
202.77	4000.000
202.99	4050.000
203.20	508.696
203.42	800.000
203.63	3137.500
203.85	292.437
204.06	573.077
204.28	270.339
204.49	972.727
204.71	-596.875
204.92	276.812
205.14	974.194
205.35	761.905
205.56	317.143
205.78	-596.000
205.99	653.846
206.21	687.719
206.42	412.121
206.64	1121.739
206.85	330.120
207.07	-391.935
207.28	1100.000
207.50	420.652
207.71	650.000
207.93	9666.667
208.14	776.316
208.35	-2008.333
208.57	-713.793
208.78	241.259
209.00	797.500
209.21	321.782
209.43	-4583.333
209.64	203.977
209.86	442.105
210.07	561.905
210.28	800.000
210.50	5116.667
210.71	1106.452
210.93	-1793.333
211.14	518.182
211.36	311.458
211.57	1240.741
211.78	3111.111
212.00	-1655.556
212.21	634.146
212.43	571.429
212.64	425.610
212.86	1365.217
213.07	513.235
213.29	2321.429
213.50	235.714
213.71	446.988
213.93	181.538
214.14	283.761
214.36	342.353
214.57	-2790.000
214.78	958.974
215.00	291.736
215.21	615.000
215.43	1212.000
215.64	328.704
215.86	346.226
216.07	7875.000
216.28	491.045
216.50	372.549
216.71	1151.724
216.93	-820.930
217.14	329.293
217.35	530.357
217.57	229.915
217.78	432.258
218.00	286.869
218.21	333.803
218.42	1092.593
218.64	2046.667
218.85	648.214
219.07	244.538
219.28	426.154
219.49	318.349
219.71	484.286
219.92	696.000
220.14	610.870
220.35	2109.091
220.56	687.805
220.78	909.091
220.99	456.923
221.21	466.216
221.42	322.973
221.63	4800.000
221.85	1092.857
222.06	929.167
222.28	483.544
222.49	290.323
222.70	258.000
222.92	501.754
223.13	1544.444
223.34	806.250
223.56	230.709
223.77	182.639
223.99	308.889
224.20	206.849
224.41	352.000
224.63	318.367
224.84	248.571
225.05	200.000
225.27	431.373
225.48	340.404
225.69	313.542
225.91	333.735
226.12	193.878
226.34	157.542
226.55	154.043
226.76	168.947
226.98	156.250
227.19	131.863
227.40	141.126
227.62	125.728
227.83	112.431
228.04	95.181
228.26	78.078
228.47	69.462
228.69	54.898
228.90	49.541
229.11	43.517
229.33	37.796
229.54	39.976
229.75	36.230
229.97	30.632
230.18	36.233
230.39	21.529
230.61	29.657
230.82	29.689
231.03	28.510
231.25	37.676
231.46	39.702
231.67	27.354
231.89	39.951
232.10	38.169
232.31	51.544
232.53	42.994
232.74	44.567
232.95	57.571
233.17	50.699
233.38	41.374
233.59	67.563
233.81	63.014
234.02	61.121
234.23	53.659
234.45	54.705
234.66	48.364
234.87	57.519
235.09	42.089
235.30	40.116
235.51	52.659
235.73	41.263
235.94	44.514
236.15	47.619
236.36	52.200
236.58	45.740
236.79	44.322
237.00	37.335
237.22	45.397
237.43	50.576
237.64	48.500
237.86	39.335
238.07	43.701
238.28	44.889
238.50	43.651
238.71	44.361
238.92	33.801
239.13	40.967
239.35	48.529
239.56	40.544
239.77	51.296
239.99	35.352
240.20	41.596
240.41	36.606
240.63	30.816
240.84	27.915
241.05	31.480
241.26	28.267
241.48	26.238
241.69	21.160
241.90	22.868
242.12	18.182
242.33	20.334
242.54	18.539
242.75	16.040
242.97	16.098
243.18	12.645
243.39	11.594
243.61	12.029
243.82	13.559
244.03	11.684
244.24	15.143
244.46	13.579
244.67	15.411
244.88	13.110
245.09	15.040
245.31	14.040
245.52	15.998
245.73	20.022
245.95	23.625
246.16	17.784
246.37	9.521
246.58	14.926
246.80	13.595
247.01	12.646
247.22	9.725
247.43	9.459
247.65	9.296
247.86	8.621
248.07	7.674
248.28	7.333
248.50	6.479
248.71	8.317
248.92	5.704
249.13	8.304
249.35	6.993
249.56	8.143
249.77	8.065
249.98	5.811
250.20	13.708
250.41	10.520
250.62	13.451
250.83	13.411
251.05	17.498
251.26	18.868
251.47	18.545
251.68	14.191
251.90	19.016
252.11	13.448
252.32	13.643
252.53	11.625
252.75	14.229
252.96	15.657
253.17	13.473
253.38	13.631
253.59	13.282
253.81	13.073
254.02	10.692
254.23	16.635
254.44	12.839
254.66	15.904
254.87	15.998
255.08	18.523
255.29	21.245
255.50	21.452
255.72	18.815
255.93	22.483
256.14	24.294
256.35	16.654
256.57	25.703
256.78	16.841
256.99	14.684
257.20	17.426
257.41	19.987
257.63	23.077
257.84	19.486
258.05	20.000
258.26	13.234
258.47	12.736
258.69	12.811
258.90	11.696
259.11	11.578
259.32	9.002
259.53	9.394
259.75	8.400
259.96	6.085
260.17	8.300
260.38	5.176
260.59	6.155
260.81	4.103
261.02	6.308
261.23	4.917
261.44	5.852
261.65	5.911
261.87	5.071
262.08	4.877
262.29	6.994
262.50	8.347
262.71	7.050
262.92	8.152
263.14	8.161
263.35	7.592
263.56	12.998
263.77	13.698
263.98	10.598
264.20	13.593
264.41	15.672
264.62	13.227
264.83	11.521
265.04	12.389
265.25	12.815
265.47	12.217
265.68	11.601
265.89	13.716
266.10	11.327
266.31	15.165
266.52	13.676
266.74	12.573
266.95	12.759
267.16	10.892
267.37	9.938
267.58	10.058
267.79	9.703
268.01	7.073
268.22	7.010
268.43	8.349
268.64	10.030
268.85	8.712
269.06	8.591
269.27	10.232
269.49	9.834
269.70	9.792
269.91	9.344
270.12	10.938
270.33	10.820
270.54	7.120
270.75	10.141
270.97	7.441
271.18	8.425
271.39	9.698
271.60	10.330
271.81	7.963
272.02	9.122
272.23	9.381
272.45	6.739
272.66	8.028
272.87	7.959
273.08	5.630
273.29	7.366
273.50	8.755
273.71	8.956
273.92	6.294
274.14	6.609
274.35	7.337
274.56	7.367
274.77	6.887
274.98	6.719
275.19	9.747
275.40	6.889
275.61	7.514
275.83	8.823
276.04	8.587
276.25	10.567
276.46	7.956
276.67	10.627
276.88	8.288
277.09	9.331
277.30	8.310
277.51	10.320
277.73	9.476
277.94	10.216
278.15	10.133
278.36	9.904
278.57	8.820
278.78	7.755
278.99	9.773
279.20	9.199
279.41	11.460
279.62	8.853
279.84	7.151
280.05	9.148
280.26	7.604
280.47	8.872
280.68	9.764
280.89	7.047
281.10	8.007
281.31	11.283
281.52	7.096
281.73	8.357
281.94	7.296
282.16	7.446
282.37	6.770
282.58	8.213
282.79	8.996
283.00	7.553
283.21	6.824
283.42	6.885
283.63	6.836
283.84	7.510
284.05	6.597
284.26	7.886
284.47	6.453
284.68	7.343
284.89	5.664
285.11	6.213
285.32	7.375
285.53	7.865
285.74	6.706
285.95	6.328
286.16	4.481
286.37	4.950
286.58	5.158
286.79	5.054
287.00	6.666
287.21	4.846
287.42	6.687
287.63	4.750
287.84	4.950
288.05	6.133
288.26	5.791
288.48	5.909
288.69	5.665
288.90	7.131
289.11	7.759
289.32	5.121
289.53	6.127
289.74	5.650
289.95	6.788
290.16	6.950
290.37	5.252
290.58	6.672
290.79	6.011
291.00	5.452
291.21	6.133
291.42	5.739
291.63	5.996
291.84	5.788
292.05	6.215
292.26	5.635
292.47	5.759
292.68	5.868
292.89	5.965
293.10	5.514
293.31	6.476
293.52	5.206
293.73	7.083
293.94	8.090
294.15	6.205
294.36	7.263
294.57	6.629
294.79	6.632
295.00	6.542
295.21	6.867
295.42	7.206
295.63	7.483
295.84	4.964
296.05	6.154
296.26	6.403
296.47	5.667
296.68	4.984
296.89	6.178
297.10	5.335
297.31	6.333
297.52	5.232
297.73	4.748
297.94	5.139
298.15	5.174
298.36	4.018
298.57	4.193
298.78	4.069
298.99	3.819
299.20	3.930
299.41	4.849
299.62	5.377
299.83	4.393
300.04	5.099
300.25	5.053
300.46	5.706
300.67	6.347
300.88	5.427
301.09	5.134
301.30	7.019
301.50	5.041
301.71	6.157
301.92	7.420
302.13	5.233
302.34	4.858
302.55	6.769
302.76	5.872
302.97	5.536
303.18	5.613
303.39	7.380
303.60	6.253
303.81	7.087
304.02	5.641
304.23	6.409
304.44	6.804
304.65	5.271
304.86	5.213
305.07	6.377
305.28	6.015
305.49	5.559
305.70	6.357
305.91	5.143
306.12	6.329
306.33	6.021
306.54	6.201
306.75	7.294
306.96	5.740
307.17	5.288
307.38	4.920
307.58	5.603
307.79	5.718
308.00	7.825
308.21	6.914
308.42	6.433
308.63	6.505
308.84	7.530
309.05	5.938
309.26	4.440
309.47	5.096
309.68	5.952
309.89	7.234
310.10	5.464
310.31	5.885
310.52	6.309
310.73	6.262
310.94	4.164
311.14	4.874
311.35	5.165
311.56	5.297
311.77	3.525
311.98	4.325
312.19	3.951
312.40	4.598
312.61	2.835
312.82	5.203
313.03	5.206
313.24	6.108
313.45	5.271
313.66	5.609
313.86	6.229
314.07	5.248
314.28	7.058
314.49	4.906
314.70	6.763
314.91	5.881
315.12	5.565
315.33	6.276
315.54	4.883
315.75	4.567
315.96	5.775
316.16	6.065
316.37	8.163
316.58	5.376
316.79	4.703
317.00	7.757
317.21	7.623
317.42	6.436
317.63	7.057
317.84	7.033
318.05	5.465
318.25	5.828
318.46	6.017
318.67	6.511
318.88	5.164
319.09	5.622
319.30	6.995
319.51	6.334
319.72	5.948
319.93	6.161
320.13	4.847
320.34	6.331
320.55	4.933
320.76	6.812
320.97	6.974
321.18	8.017
321.39	7.007
321.60	6.575
321.80	6.115
322.01	5.953
322.22	6.527
322.43	7.025
322.64	6.212
322.85	5.540
323.06	7.028
323.27	6.745
323.47	8.038
323.68	7.139
323.89	6.198
324.10	5.701
324.31	5.766
324.52	5.568
324.73	7.167
324.93	4.822
325.14	4.433
325.35	6.027
325.56	6.362
325.77	6.178
325.98	6.480
326.19	6.070
326.39	4.146
326.60	6.096
326.81	4.688
327.02	5.701
327.23	5.225
327.44	5.299
327.64	4.426
327.85	5.641
328.06	4.947
328.27	6.325
328.48	5.623
328.69	5.990
328.90	4.711
329.10	5.087
329.31	6.550
329.52	5.766
329.73	6.506
329.94	5.264
330.15	6.000
330.35	6.893
330.56	6.511
330.77	5.386
330.98	6.350
331.19	6.509
331.39	6.665
331.60	5.471
331.81	4.612
332.02	5.510
332.23	8.322
332.44	6.492
332.64	6.811
332.85	6.058
333.06	4.765
333.27	5.006
333.48	5.064
333.68	4.779
333.89	6.665
334.10	4.129
334.31	5.616
334.52	6.686
334.72	5.726
334.93	6.238
335.14	5.090
335.35	6.663
335.56	6.138
335.76	5.781
335.97	7.431
336.18	5.269
336.39	5.614
336.60	7.837
336.80	4.870
337.01	6.235
337.22	4.499
337.43	5.784
337.64	6.121
337.84	6.402
338.05	5.555
338.26	6.631
338.47	4.045
338.68	4.410
338.88	6.391
339.09	5.194
339.30	4.340
339.51	4.727
339.71	4.468
339.92	4.403
340.13	6.601
340.34	5.626
340.55	5.691
340.75	5.821
340.96	4.552
341.17	4.965
341.38	5.789
341.58	6.471
341.79	5.256
342.00	5.119
342.21	5.218
342.41	4.601
342.62	4.273
342.83	6.325
343.04	5.194
343.24	5.237
343.45	5.657
343.66	4.979
343.87	4.382
344.07	4.731
344.28	5.335
344.49	4.542
344.70	5.155
344.90	5.187
345.11	4.879
345.32	4.325
345.53	4.369
345.73	4.878
345.94	5.352
346.15	3.733
346.36	4.679
346.56	5.254
346.77	4.925
346.98	5.421
347.19	4.289
347.39	3.419
347.60	4.254
347.81	4.448
348.02	6.371
348.22	4.534
348.43	5.546
348.64	5.809
348.84	3.597
349.05	6.376
349.26	6.313
349.47	4.280
349.67	4.733
349.88	5.273
350.09	5.395
350.30	6.445
350.50	4.532
350.71	4.676
350.92	4.458
351.12	5.039
351.33	5.295
351.54	5.473
351.74	4.579
351.95	5.704
352.16	5.101
352.37	5.468
352.57	4.558
352.78	4.966
352.99	5.376
353.19	5.383
353.40	4.663
353.61	6.313
353.82	5.058
354.02	5.294
354.23	4.947
354.44	5.867
354.64	5.558
354.85	5.703
355.06	5.182
355.26	3.855
355.47	4.920
355.68	6.244
355.88	4.722
356.09	4.596
356.30	3.901
356.51	4.766
356.71	4.847
356.92	4.007
357.13	4.739
357.33	4.965
357.54	3.772
357.75	3.274
357.95	4.425
358.16	3.769
358.37	4.972
358.57	3.877
358.78	4.744
358.99	3.712
359.19	3.867
359.40	4.121
359.61	3.968
359.81	4.282
360.02	3.812
360.23	4.264
360.43	4.047
360.64	3.663
360.85	3.916
361.05	3.071
361.26	4.369
361.47	4.517
361.67	3.770
361.88	3.284
362.09	3.688
362.29	3.235
362.50	2.720
362.70	2.651
362.91	3.880
363.12	2.780
363.32	2.942
363.53	3.353
363.74	3.035
363.94	3.112
364.15	3.324
364.36	3.934
364.56	2.911
364.77	4.360
364.98	4.558
365.18	3.612
365.39	4.810
365.59	3.656
365.80	3.762
366.01	5.065
366.21	4.070
366.42	3.327
366.63	4.460
366.83	3.550
367.04	3.450
367.24	3.995
367.45	3.232
367.66	2.886
367.86	4.017
368.07	3.685
368.28	3.760
368.48	3.866
368.69	3.089
368.89	4.295
369.10	3.749
369.31	4.397
369.51	4.230
369.72	3.991
369.92	4.402
370.13	3.934
370.34	3.914
370.54	3.278
370.75	4.071
370.95	4.067
371.16	3.369
371.37	3.452
371.57	3.270
371.78	3.139
371.98	4.406
372.19	3.724
372.40	3.786
372.60	4.101
372.81	3.269
373.01	3.759
373.22	3.783
373.43	3.399
373.63	3.508
373.84	3.200
374.04	3.458
374.25	3.294
374.46	3.222
374.66	5.677
374.87	4.579
375.07	4.303
375.28	3.322
375.48	3.052
375.69	3.301
375.90	3.285
376.10	2.968
376.31	3.176
376.51	3.885
376.72	3.374
376.92	3.240
377.13	2.987
377.34	3.737
377.54	3.339
377.75	3.525
377.95	3.186
378.16	3.946
378.36	4.131
378.57	2.967
378.77	3.265
378.98	3.524
379.19	3.250
379.39	2.682
379.60	3.675
379.80	2.845
380.01	3.824
380.21	2.571
380.42	3.456
380.62	3.392
380.83	3.428
381.04	2.557
381.24	3.837
381.45	3.156
381.65	3.496
381.86	2.917
382.06	4.468
382.27	3.400
382.47	3.365
382.68	3.566
382.88	3.726
383.09	3.554
383.29	3.645
383.50	4.443
383.71	3.594
383.91	3.923
384.12	3.164
384.32	3.758
384.53	3.527
384.73	3.497
384.94	2.966
385.14	3.469
385.35	3.456
385.55	3.399
385.76	3.780
385.96	3.158
386.17	3.578
386.37	3.470
386.58	4.229
386.78	4.908
386.99	3.293
387.19	3.714
387.40	3.338
387.60	4.590
387.81	4.023
388.01	3.469
388.22	4.247
388.42	4.424
388.63	5.217
388.83	5.381
389.04	3.796
389.24	3.523
389.45	4.407
389.65	3.981
389.86	4.042
390.06	4.482
390.27	3.860
390.47	4.174
390.68	3.967
390.88	5.469
391.09	5.172
391.29	4.866
391.50	4.966
391.70	5.099
391.91	4.118
392.11	4.811
392.32	5.182
392.52	5.189
392.73	5.268
392.93	5.070
393.14	4.927
393.34	5.056
393.55	5.912
393.75	5.045
393.95	4.849
394.16	6.766
394.36	6.620
394.57	6.500
394.77	5.378
394.98	5.431
395.18	6.098
395.39	5.909
395.59	5.784
395.80	6.212
396.00	6.023
396.21	6.515
396.41	4.771
396.61	6.350
396.82	6.236
397.02	7.795
397.23	6.610
397.43	6.332
397.64	5.381
397.84	7.421
398.05	4.925
398.25	6.916
398.45	5.948
398.66	7.212
398.86	6.000
399.07	7.509
399.27	5.904
399.48	7.904
399.68	6.503
399.89	6.441
400.09	7.215
400.29	7.140
400.50	6.700
400.70	6.736
400.91	6.439
401.11	6.392
401.32	7.077
401.52	6.004
401.72	6.426
401.93	8.949
402.13	7.286
402.34	7.096
402.54	6.459
402.75	8.291
402.95	4.797
403.15	7.929
403.36	5.903
403.56	7.929
403.77	6.396
403.97	6.891
404.17	7.328
404.38	7.737
404.58	5.925
404.79	6.822
404.99	7.699
405.19	6.758
405.40	6.930
405.60	7.767
405.81	6.071
406.01	7.995
406.21	6.139
406.42	7.498
406.62	7.283
406.83	7.744
407.03	7.349
407.23	6.583
407.44	6.165
407.64	7.646
407.85	7.140
408.05	7.602
408.25	7.249
408.46	8.179
408.66	7.701
408.87	6.761
409.07	7.363
409.27	6.563
409.48	6.962
409.68	7.524
409.88	5.391
410.09	7.033
410.29	7.131
410.50	8.084
410.70	5.295
410.90	6.771
411.11	6.262
411.31	6.426
411.51	7.492
411.72	7.525
411.92	5.544
412.12	6.753
412.33	6.394
412.53	6.569
412.74	5.259
412.94	6.732
413.14	6.801
413.35	6.788
413.55	7.325
413.75	7.548
413.96	6.395
414.16	7.180
414.36	6.874
414.57	6.742
414.77	5.949
414.97	7.473
415.18	6.525
415.38	6.967
415.58	6.872
415.79	6.457
415.99	6.477
416.19	7.284
416.40	6.293
416.60	7.192
416.80	5.796
417.01	6.066
417.21	5.405
417.41	7.298
417.62	6.526
417.82	7.771
418.02	5.717
418.23	7.304
418.43	6.298
418.63	7.315
418.84	7.500
419.04	7.027
419.24	7.066
419.45	7.702
419.65	7.412
419.85	7.538
420.06	7.277
420.26	7.616
420.46	7.182
420.67	7.921
420.87	7.399
421.07	8.098
421.28	7.241
421.48	7.751
421.68	7.679
421.88	7.843
422.09	7.601
422.29	7.338
422.49	6.839
422.70	7.840
422.90	7.524
423.10	7.569
423.31	7.391
423.51	8.245
423.71	7.262
423.91	8.045
424.12	7.246
424.32	7.725
424.52	7.635
424.73	7.279
424.93	7.541
425.13	7.306
425.33	6.950
425.54	7.933
425.74	7.868
425.94	8.023
426.15	7.419
426.35	7.522
426.55	8.217
426.75	7.904
426.96	7.157
427.16	7.490
427.36	7.472
427.57	7.657
427.77	6.897
427.97	7.496
428.17	7.417
428.38	7.556
428.58	5.881
428.78	7.010
428.98	6.152
429.19	6.823
429.39	6.133
429.59	6.964
429.79	5.806
430.00	5.777
430.20	6.079
430.40	6.633
430.60	6.398
430.81	6.347
431.01	6.148
431.21	7.044
431.41	6.352
431.62	6.680
431.82	6.358
432.02	7.338
432.22	5.845
432.43	6.199
432.63	5.577
432.83	6.767
433.03	6.321
433.24	6.053
433.44	6.209
433.64	7.250
433.84	6.229
434.05	7.121
434.25	6.415
434.45	7.476
434.65	7.426
434.85	7.700
435.06	7.304
435.26	6.997
435.46	7.270
435.66	7.164
435.87	6.457
436.07	7.297
436.27	7.099
436.47	6.652
436.67	5.745
436.88	6.875
437.08	6.779
437.28	6.779
437.48	7.175
437.69	7.206
437.89	6.457
438.09	7.435
438.29	6.627
438.49	6.760
438.70	6.806
438.90	6.244
439.10	6.374
439.30	6.948
439.50	6.122
439.71	7.553
439.91	6.659
440.11	7.441
440.31	7.275
440.51	6.748
440.72	6.906
440.92	6.970
441.12	7.328
441.32	7.485
441.52	7.307
441.72	7.738
441.93	7.041
442.13	7.575
442.33	6.973
442.53	8.043
442.73	6.787
442.94	7.380
443.14	6.881
443.34	7.758
443.54	7.184
443.74	7.815
443.94	7.210
444.15	6.911
444.35	6.532
444.55	7.501
444.75	6.721
444.95	7.432
445.15	7.157
445.36	7.269
445.56	6.618
445.76	7.587
445.96	6.850
446.16	6.882
446.36	6.730
446.57	7.623
446.77	6.723
446.97	7.226
447.17	7.760
447.37	7.665
447.57	7.236
447.77	7.823
447.98	7.241
448.18	7.712
448.38	7.364
448.58	7.697
448.78	7.596
448.98	7.428
449.18	6.740
449.39	7.477
449.59	7.019
449.79	6.960
449.99	7.087
450.19	7.282
450.39	7.099
450.59	7.398
450.79	6.670
451.00	7.681
451.20	7.815
451.40	6.919
451.60	6.338
451.80	7.591
452.00	6.525
452.20	7.005
452.40	6.829
452.61	7.081
452.81	6.898
453.01	7.019
453.21	6.540
453.41	6.976
453.61	6.723
453.81	7.101
454.01	6.786
454.21	7.226
454.42	7.246
454.62	7.253
454.82	6.540
455.02	6.597
455.22	6.289
455.42	6.760
455.62	5.818
455.82	6.706
456.02	6.278
456.23	6.533
456.43	6.480
456.63	6.372
456.83	5.592
457.03	6.650
457.23	6.170
457.43	6.366
457.63	6.326
457.83	7.425
458.03	6.060
458.23	6.708
458.43	6.146
458.64	6.446
458.84	6.655
459.04	7.406
459.24	6.698
459.44	6.926
459.64	6.930
459.84	7.126
460.04	6.776
460.24	7.138
460.44	6.922
460.64	7.328
460.84	7.171
461.04	7.681
461.24	7.352
461.45	7.666
461.65	7.622
461.85	7.713
462.05	7.111
462.25	7.723
462.45	7.625
462.65	7.337
462.85	6.269
463.05	6.928
463.25	5.832
463.45	6.934
463.65	6.543
463.85	6.864
464.05	6.623
464.25	6.368
464.45	7.468
464.65	6.684
464.85	6.399
465.05	6.512
465.26	6.284
465.46	7.010
465.66	6.886
465.86	7.197
466.06	6.363
466.26	6.171
466.46	6.102
466.66	6.262
466.86	6.364
467.06	7.135
467.26	6.426
467.46	6.958
467.66	6.636
467.86	6.521
468.06	6.599
468.26	6.760
468.46	6.452
468.66	6.875
468.86	5.975
469.06	7.161
469.26	5.971
469.46	6.859
469.66	6.164
469.86	6.929
470.06	6.763
470.26	7.149
470.46	5.655
470.66	7.512
470.86	5.858
471.06	6.189
471.26	5.445
471.46	6.060
471.66	6.933
471.86	6.550
472.06	6.590
472.26	7.390
472.46	6.990
472.66	6.933
472.86	5.306
473.06	7.052
473.26	6.662
473.46	6.663
473.66	6.149
473.86	7.467
474.06	5.922
474.26	7.076
474.46	5.619
474.66	7.101
474.86	6.625
475.06	6.945
475.26	6.108
475.46	6.897
475.66	5.847
475.86	6.816
476.06	6.920
476.26	7.049
476.46	6.200
476.66	6.650
476.86	6.143
477.06	6.506
477.26	6.445
477.46	6.682
477.65	6.787
477.85	7.250
478.05	6.066
478.25	7.245
478.45	6.706
478.65	7.533
478.85	6.834
479.05	7.331
479.25	6.822
479.45	7.411
479.65	6.469
479.85	7.413
480.05	6.551
480.25	7.306
480.45	6.973
480.65	7.511
480.85	6.675
481.05	7.664
481.25	7.182
481.44	7.276
481.64	6.499
481.84	7.699
482.04	7.232
482.24	7.277
482.44	6.759
482.64	7.576
482.84	7.363
483.04	7.511
483.24	7.529
483.44	7.589
483.64	7.438
483.84	7.541
484.04	7.567
484.23	7.894
484.43	7.812
484.63	8.165
484.83	8.409
485.03	8.840
485.23	8.842
485.43	8.624
485.63	8.558
485.83	8.328
486.03	8.540
486.23	8.389
486.42	8.267
486.62	8.225
486.82	7.974
487.02	8.075
487.22	7.912
487.42	7.919
487.62	7.816
487.82	7.846
488.02	7.865
488.22	7.768
488.41	7.986
488.61	8.132
488.81	8.043
489.01	8.331
489.21	8.327
489.41	8.242
489.61	8.416
489.81	8.397
490.01	8.254
490.20	8.311
490.40	7.936
490.60	8.445
490.80	7.930
491.00	8.193
491.20	7.871
491.40	7.810
491.60	7.589
491.79	7.805
491.99	7.879
492.19	7.963
492.39	7.924
492.59	8.068
492.79	8.033
492.99	8.286
493.19	8.189
493.38	8.411
493.58	8.444
493.78	8.351
493.98	8.489
494.18	8.318
494.38	8.277
494.58	8.190
494.77	7.487
494.97	7.982
495.17	7.408
495.37	7.750
495.57	7.528
495.77	8.058
495.96	7.345
496.16	7.704
496.36	7.461
496.56	8.075
496.76	7.417
496.96	7.678
497.15	7.663
497.35	7.879
497.55	7.621
497.75	7.928
497.95	7.344
498.15	8.115
498.34	7.967
498.54	7.817
498.74	7.931
498.94	8.294
499.14	7.705
499.34	8.369
499.53	7.693
499.73	8.047
499.93	8.014
500.13	7.920
500.33	7.629
500.52	7.889
500.72	7.536
500.92	7.599
501.12	7.025
501.32	7.753
501.52	7.759
501.71	7.868
501.91	7.497
502.11	7.847
502.31	7.736
502.51	7.684
502.70	7.420
502.90	7.760
503.10	7.427
503.30	7.959
503.50	7.507
503.69	7.844
503.89	7.655
504.09	8.124
504.29	7.713
504.48	7.962
504.68	7.969
504.88	7.987
505.08	7.269
505.28	7.859
505.47	7.505
505.67	8.510
505.87	7.341
506.07	8.032
506.27	7.743
506.46	8.440
506.66	7.492
506.86	8.196
507.06	8.407
507.25	7.912
507.45	7.987
507.65	8.527
507.85	7.887
508.04	8.286
508.24	7.843
508.44	8.183
508.64	8.198
508.83	8.342
509.03	7.762
509.23	8.232
509.43	8.054
509.63	8.520
509.82	8.073
510.02	8.251
510.22	7.892
510.42	8.476
510.61	8.362
510.81	8.463
511.01	8.462
511.21	8.645
511.40	8.252
511.60	8.300
511.80	8.288
511.99	8.581
512.19	8.468
512.39	8.545
512.59	8.083
512.78	8.691
512.98	8.802
513.18	8.677
513.38	8.526
513.57	8.975
513.77	8.443
513.97	9.038
514.17	8.507
514.36	8.582
514.56	8.414
514.76	8.816
514.95	8.290
515.15	8.787
515.35	7.775
515.55	8.612
515.74	8.393
515.94	8.436
516.14	7.964
516.33	8.630
516.53	7.950
516.73	8.497
516.93	8.527
517.12	9.015
517.32	7.818
517.52	8.683
517.71	8.480
517.91	8.490
518.11	8.309
518.30	8.652
518.50	8.229
518.70	8.764
518.90	8.804
519.09	8.807
519.29	9.171
519.49	9.083
519.68	8.736
519.88	9.230
520.08	8.886
520.27	9.247
520.47	9.032
520.67	9.052
520.86	9.246
521.06	9.420
521.26	8.463
521.45	8.861
521.65	8.714
521.85	9.055
522.04	8.769
522.24	9.371
522.44	8.401
522.63	9.008
522.83	8.540
523.03	9.081
523.22	8.703
523.42	9.159
523.62	9.053
523.81	8.953
524.01	8.742
524.21	8.712
524.40	8.391
524.60	9.086
524.80	8.390
524.99	8.744
525.19	8.979
525.39	9.010
525.58	8.464
525.78	8.902
525.98	9.216
526.17	9.230
526.37	8.994
526.57	9.402
526.76	9.398
526.96	9.206
527.15	9.198
527.35	9.198
527.55	9.060
527.74	9.488
527.94	9.094
528.14	8.978
528.33	8.978
528.53	9.052
528.72	9.149
528.92	9.330
529.12	9.213
529.31	9.368
529.51	9.458
529.71	9.452
529.90	9.676
530.10	9.761
530.29	9.893
530.49	9.833
530.69	9.823
530.88	9.801
531.08	9.908
531.28	9.649
531.47	9.618
531.67	9.877
531.86	9.349
532.06	9.632
532.26	9.270
532.45	9.543
532.65	9.329
532.84	9.199
533.04	9.055
533.24	9.176
533.43	9.113
533.63	9.679
533.82	9.339
534.02	9.528
534.22	9.722
534.41	9.760
534.61	9.693
534.80	9.858
535.00	9.704
535.19	9.941
535.39	9.781
535.59	9.989
535.78	9.586
535.98	9.936
536.17	9.439
536.37	9.827
536.57	9.462
536.76	9.565
536.96	9.371
537.15	9.933
537.35	9.720
537.54	9.747
537.74	9.906
537.93	10.037
538.13	9.951
538.33	10.110
538.52	9.985
538.72	10.357
538.91	9.877
539.11	10.022
539.30	9.668
539.50	10.083
539.70	10.002
539.89	10.180
540.09	9.578
540.28	9.773
540.48	9.713
540.67	9.925
540.87	9.366
541.06	9.548
541.26	9.694
541.45	9.883
541.65	10.011
541.85	9.931
542.04	9.961
542.24	10.403
542.43	10.022
542.63	10.393
542.82	10.511
543.02	10.356
543.21	10.291
543.41	10.614
543.60	10.502
543.80	10.553
543.99	10.422
544.19	10.626
544.38	10.577
544.58	10.528
544.77	10.398
544.97	10.875
545.16	10.469
545.36	10.785
545.56	10.261
545.75	10.834
545.95	10.493
546.14	10.558
546.34	10.092
546.53	10.804
546.73	10.353
546.92	10.646
547.12	10.320
547.31	11.155
547.51	10.568
547.70	10.596
547.90	10.625
548.09	10.680
548.29	10.569
548.48	10.899
548.68	10.775
548.87	11.298
549.07	10.945
549.26	10.828
549.46	10.879
549.65	11.091
549.84	10.642
550.04	10.949
550.23	10.264
550.43	11.088
550.62	10.525
550.82	11.067
551.01	10.143
551.21	10.575
551.40	10.331
551.60	11.041
551.79	10.176
551.99	11.054
552.18	10.867
552.38	10.702
552.57	10.932
552.77	11.320
552.96	11.069
553.16	11.469
553.35	11.616
553.54	11.620
553.74	11.518
553.93	11.936
554.13	11.747
554.32	11.853
554.52	11.157
554.71	11.923
554.91	11.305
555.10	12.115
555.29	11.769
555.49	12.346
555.68	11.262
555.88	11.939
556.07	10.954
556.27	12.233
556.46	11.799
556.66	11.793
556.85	11.825
557.04	12.203
557.24	11.526
557.43	12.189
557.63	11.964
557.82	12.126
558.02	11.995
558.21	12.576
558.40	11.965
558.60	12.377
558.79	12.158
558.99	12.451
559.18	12.305
559.38	12.142
559.57	12.621
559.76	12.464
559.96	12.616
560.15	12.958
560.35	12.324
560.54	12.290
560.73	11.582
560.93	13.333
561.12	12.315
561.32	13.310
561.51	12.996
561.70	13.415
561.90	12.890
562.09	13.758
562.29	12.863
562.48	13.579
562.67	12.811
562.87	13.332
563.06	12.838
563.26	14.148
563.45	13.288
563.64	14.021
563.84	13.581
564.03	14.109
564.23	12.867
564.42	14.644
564.61	13.479
564.81	14.341
565.00	13.767
565.20	14.383
565.39	14.427
565.58	14.208
565.78	13.867
565.97	14.670
566.16	14.670
566.36	14.432
566.55	14.237
566.74	14.719
566.94	14.859
567.13	14.828
567.33	14.883
567.52	15.013
567.71	14.834
567.91	15.437
568.10	15.083
568.29	14.955
568.49	15.531
568.68	15.568
568.87	15.032
569.07	15.422
569.26	15.310
569.45	15.680
569.65	15.261
569.84	15.368
570.04	15.362
570.23	15.894
570.42	15.221
570.62	15.022
570.81	15.389
571.00	15.440
571.20	15.440
571.39	15.849
571.58	15.388
571.78	15.694
571.97	15.721
572.16	16.255
572.36	16.157
572.55	16.260
572.74	15.682
572.94	15.950
573.13	15.871
573.32	16.064
573.51	15.624
573.71	16.329
573.90	15.731
574.09	16.625
574.29	15.977
574.48	16.488
574.67	15.877
574.87	16.202
575.06	16.179
575.25	16.634
575.45	16.205
575.64	16.414
575.83	16.260
576.03	16.808
576.22	15.967
576.41	16.817
576.60	15.896
576.80	16.292
576.99	16.422
577.18	16.781
577.38	15.736
577.57	16.343
577.76	16.906
577.95	16.233
578.15	16.145
578.34	16.131
578.53	15.862
578.73	16.322
578.92	15.701
579.11	16.585
579.30	16.417
579.50	16.457
579.69	16.218
579.88	16.269
580.08	15.752
580.27	16.350
580.46	16.138
580.65	16.169
580.85	15.869
581.04	16.537
581.23	15.436
581.42	16.106
581.62	15.836
581.81	16.252
582.00	16.110
582.19	15.841
582.39	16.257
582.58	16.502
582.77	16.438
582.96	15.824
583.16	14.905
583.35	16.608
583.54	15.918
583.73	16.022
583.93	15.909
584.12	15.667
584.31	15.012
584.50	16.035
584.70	15.957
584.89	16.716
585.08	15.437
585.27	16.113
585.47	15.423
585.66	16.160
585.85	15.659
586.04	15.672
586.24	16.022
586.43	16.007
586.62	16.015
586.81	15.980
587.00	15.375
587.20	16.269
587.39	15.321
587.58	16.212
587.77	15.557
587.97	15.358
588.16	15.393
588.35	16.644
588.54	15.416
588.73	15.913
588.93	15.711
589.12	15.994
589.31	15.465
589.50	15.756
589.69	15.972
589.89	15.783
590.08	15.020
590.27	16.141
590.46	15.566
590.65	15.291
590.85	14.665
591.04	16.485
591.23	15.464
591.42	16.763
591.61	15.459
591.81	15.815
592.00	15.765
592.19	16.121
592.38	15.476
592.57	15.895
592.77	15.618
592.96	15.526
593.15	16.305
593.34	15.716
593.53	15.670
593.72	15.980
593.92	14.754
594.11	16.740
594.30	15.359
594.49	16.454
594.68	15.940
594.87	16.226
595.07	14.676
595.26	16.702
595.45	15.678
595.64	16.238
595.83	15.098
596.02	16.280
596.22	15.817
596.41	16.445
596.60	15.705
596.79	16.790
596.98	16.099
597.17	17.300
597.37	16.711
597.56	16.937
597.75	15.982
597.94	16.780
598.13	16.393
598.32	16.966
598.51	17.147
598.71	17.147
598.90	16.465
599.09	16.975
599.28	16.224
599.47	16.616
599.66	16.381
599.85	17.472
600.05	16.237
600.24	17.431
600.43	16.478
600.62	16.550
600.81	16.339
601.00	16.931
601.19	15.625
601.38	16.879
601.58	16.347
601.77	16.397
601.96	15.558
602.15	16.521
602.34	16.487
602.53	17.968
602.72	16.141
602.91	16.817
603.10	16.037
603.30	18.048
603.49	16.936
603.68	17.570
603.87	16.380
604.06	17.103
604.25	16.755
604.44	17.158
604.63	16.917
604.82	17.377
605.01	17.018
605.21	17.615
605.40	17.355
605.59	17.816
605.78	16.894
605.97	17.031
606.16	17.239
606.35	17.456
606.54	17.450
606.73	18.083
606.92	17.116
607.11	17.904
607.30	17.120
607.50	17.223
607.69	17.124
607.88	16.991
608.07	16.148
608.26	16.919
608.45	16.784
608.64	17.643
608.83	15.945
609.02	17.307
609.21	16.015
609.40	17.466
609.59	16.749
609.78	17.245
609.97	16.378
610.16	17.521
610.35	16.585
610.55	16.848
610.74	16.952
610.93	17.364
611.12	16.846
611.31	16.818
611.50	16.712
611.69	16.648
611.88	16.473
612.07	17.046
612.26	15.345
612.45	16.067
612.64	15.591
612.83	16.416
613.02	15.620
613.21	15.657
613.40	15.849
613.59	17.220
613.78	15.300
613.97	16.036
614.16	15.268
614.35	16.651
614.54	13.987
614.73	15.996
614.92	14.647
615.11	15.477
615.30	14.775
615.49	14.353
615.68	14.176
615.87	14.947
616.07	15.073
616.26	14.865
616.45	14.499
616.64	14.146
616.83	14.054
617.02	15.216
617.21	13.587
617.40	14.056
617.59	14.340
617.78	14.122
617.97	13.796
618.16	14.731
618.35	12.443
618.54	14.619
618.73	14.139
618.92	14.663
619.11	13.395
619.30	15.489
619.49	13.102
619.68	14.935
619.86	14.035
620.05	14.579
620.24	14.187
620.43	14.888
620.62	12.617
620.81	13.964
621.00	14.553
621.19	14.911
621.38	14.537
621.57	15.450
621.76	13.559
621.95	15.304
622.14	13.340
622.33	14.420
622.52	13.281
622.71	14.422
622.90	13.686
623.09	14.500
623.28	14.354
623.47	14.231
623.66	13.825
623.85	13.716
624.04	12.574
624.23	14.019
624.42	12.866
624.61	13.390
624.80	12.155
624.99	13.904
625.18	11.747
625.36	14.133
625.55	13.576
625.74	12.964
625.93	12.898
626.12	13.760
626.31	13.489
626.50	14.603
626.69	13.514
626.88	15.170
627.07	14.083
627.26	14.338
627.45	14.080
627.64	14.971
627.83	12.995
628.02	14.401
628.20	14.144
628.39	13.681
628.58	13.730
628.77	14.776
628.96	13.522
629.15	14.143
629.34	14.121
629.53	13.683
629.72	12.819
629.91	14.991
630.10	13.760
630.29	14.231
630.47	13.496
630.66	14.013
630.85	13.795
631.04	13.961
631.23	13.719
631.42	13.777
631.61	13.428
631.80	14.350
631.99	12.959
632.18	14.016
632.36	13.008
632.55	14.806
632.74	12.612
632.93	13.347
633.12	12.717
633.31	13.572
633.50	12.640
633.69	13.625
633.88	12.929
634.06	13.501
634.25	12.806
634.44	13.985
634.63	12.562
634.82	14.668
635.01	12.848
635.20	13.482
635.39	12.603
635.57	13.930
635.76	12.820
635.95	13.140
636.14	12.252
636.33	13.885
636.52	12.590
636.71	13.372
636.89	13.470
637.08	13.365
637.27	12.507
637.46	12.774
637.65	12.706
637.84	13.947
638.03	12.084
638.21	13.686
638.40	13.297
638.59	11.808
638.78	12.718
638.97	13.889
639.16	13.096
639.34	12.906
639.53	11.279
639.72	13.361
639.91	11.673
640.10	11.977
640.29	13.693
640.47	14.270
640.66	12.640
640.85	13.971
641.04	11.087
641.23	12.346
641.42	11.512
641.60	12.138
641.79	11.865
641.98	12.553
642.17	12.237
642.36	13.875
642.54	11.021
642.73	12.580
642.92	11.083
643.11	12.073
643.30	12.014
643.49	11.338
643.67	10.318
643.86	11.852
644.05	11.299
644.24	12.686
644.43	11.955
644.61	12.839
644.80	11.448
644.99	11.820
645.18	13.053
645.37	12.708
645.55	10.738
645.74	12.767
645.93	11.702
646.12	12.237
646.31	12.036
646.49	12.135
646.68	12.612
646.87	11.924
647.06	10.960
647.24	12.479
647.43	10.701
647.62	14.059
647.81	11.269
648.00	13.224
648.18	10.009
648.37	12.285
648.56	11.621
648.75	11.863
648.93	11.688
649.12	13.043
649.31	11.191
649.50	11.784
649.68	12.185
649.87	12.822
650.06	10.112
650.25	12.402
650.43	9.888
650.62	10.716
650.81	11.412
651.00	12.469
651.18	11.081
651.37	12.908
651.56	11.381
651.75	12.431
651.93	10.365
652.12	12.065
652.31	11.050
652.50	11.516
652.68	11.868
652.87	12.410
653.06	12.444
653.25	12.619
653.43	10.802
653.62	11.687
653.81	10.744
654.00	11.673
654.18	11.892
654.37	13.133
654.56	10.587
654.74	10.709
654.93	10.204
655.12	11.140
655.31	10.927
655.49	11.410
655.68	9.801
655.87	9.331
656.05	9.317
656.24	11.367
656.43	8.695
656.62	10.908
656.80	10.165
656.99	10.075
657.18	9.400
657.36	10.935
657.55	10.145
657.74	10.558
657.93	11.060
658.11	11.113
658.30	10.608
658.49	10.369
658.67	10.698
658.86	9.731
659.05	9.120
659.23	11.627
659.42	10.144
659.61	10.639
659.79	10.276
659.98	10.225
660.17	10.833
660.35	10.370
660.54	11.036
660.73	11.975
660.91	10.397
661.10	10.877
661.29	8.585
661.47	9.413
661.66	9.780
661.85	9.796
662.03	9.828
662.22	7.778
662.41	7.571
662.59	9.242
662.78	7.979
662.97	9.136
663.15	7.583
663.34	8.110
663.53	8.159
663.71	8.702
663.90	7.573
664.09	7.827
664.27	7.529
664.46	8.696
664.65	7.373
664.83	7.626
665.02	7.035
665.21	6.385
665.39	5.950
665.58	8.272
665.77	7.009
665.95	7.997
666.14	7.398
666.32	7.527
666.51	7.255
666.70	6.250
666.88	6.667
667.07	6.544
667.26	5.963
667.44	7.057
667.63	6.926
667.81	6.027
668.00	6.422
668.19	9.499
668.37	7.507
668.56	8.505
668.75	6.360
668.93	9.017
669.12	5.774
669.30	7.067
669.49	5.786
669.68	7.524
669.86	8.000
670.05	6.082
670.23	6.446
670.42	5.912
670.61	7.691
670.79	8.215
670.98	7.487
671.16	7.412
671.35	6.268
671.54	7.222
671.72	6.893
671.91	7.460
672.09	6.900
672.28	7.866
672.46	8.042
672.65	7.759
672.84	8.019
673.02	8.018
673.21	6.360
673.39	6.136
673.58	8.224
673.77	7.300
673.95	7.154
674.14	7.600
674.32	6.230
674.51	7.799
674.69	7.308
674.88	7.975
675.07	7.249
675.25	9.610
675.44	7.924
675.62	7.656
675.81	6.401
675.99	12.349
676.18	9.231
676.36	7.857
676.55	7.494
676.74	9.266
676.92	9.452
677.11	8.839
677.29	8.498
677.48	9.165
677.66	9.122
677.85	7.775
678.03	8.051
678.22	9.371
678.40	8.690
678.59	7.977
678.78	7.275
678.96	6.947
679.15	8.056
679.33	9.259
679.52	9.705
679.70	9.181
679.89	9.055
680.07	9.187
680.26	7.004
680.44	9.138
680.63	8.609
680.81	9.702
681.00	7.599
681.18	9.001
681.37	8.337
681.55	10.933
681.74	9.921
681.92	9.949
682.11	9.368
682.29	8.400
682.48	8.541
682.66	9.351
682.85	9.396
683.03	9.725
683.22	10.902
683.40	11.623
683.59	10.427
683.77	10.581
683.96	9.727
684.14	11.606
684.33	9.349
684.51	12.493
684.70	11.166
684.88	12.591
685.07	11.277
685.25	11.004
685.44	9.577
685.62	10.724
685.81	9.817
685.99	12.677
686.18	9.579
686.36	12.654
686.55	10.189
686.73	10.378
686.92	13.673
687.10	12.950
687.29	12.179
687.47	13.245
687.65	13.667
687.84	11.821
688.02	15.754
688.21	15.676
688.39	12.163
688.58	13.667
688.76	13.310
688.95	14.142
689.13	12.287
689.32	15.893
689.50	14.870
689.68	15.071
689.87	13.942
690.05	15.863
690.24	15.078
690.42	16.187
690.61	16.484
690.79	16.042
690.98	15.795
691.16	15.636
691.34	14.733
691.53	15.772
691.71	15.959
691.90	16.332
692.08	13.621
692.27	17.916
692.45	17.623
692.63	16.374
692.82	18.925
693.00	16.754
693.19	15.654
693.37	19.423
693.56	18.015
693.74	18.544
693.92	18.592
694.11	20.845
694.29	20.209
694.48	19.965
694.66	19.122
694.84	20.904
695.03	17.986
695.21	22.244
695.40	20.701
695.58	24.746
695.76	20.691
695.95	22.704
696.13	19.394
696.32	23.753
696.50	25.501
696.68	22.055
696.87	20.827
697.05	22.438
697.24	23.225
697.42	24.873
697.60	22.619
697.79	24.418
697.97	24.487
698.16	26.931
698.34	22.882
698.52	26.287
698.71	23.693
698.89	25.400
699.07	25.955
699.26	26.694
699.44	26.224
699.63	27.396
699.81	26.061
699.99	28.161
700.18	27.751
700.36	27.371
700.54	28.482
700.73	27.304
700.91	27.273
701.09	28.062
701.28	29.142
701.46	28.400
701.64	26.626
701.83	28.798
702.01	26.991
702.20	30.951
702.38	29.100
702.56	28.734
702.75	27.131
702.93	27.816
703.11	28.298
703.30	28.395
703.48	28.638
703.66	30.698
703.85	27.571
704.03	30.889
704.21	28.378
704.40	31.842
704.58	27.003
704.76	30.732
704.95	28.190
705.13	31.545
705.31	29.738
705.50	30.612
705.68	28.160
705.86	30.212
706.04	28.413
706.23	31.856
706.41	30.840
706.59	32.600
706.78	29.259
706.96	30.280
707.14	32.273
707.33	32.275
707.51	30.370
707.69	34.016
707.88	29.963
708.06	33.506
708.24	31.183
708.42	32.325
708.61	31.667
708.79	32.955
708.97	33.204
709.16	32.964
709.34	33.388
709.52	33.952
709.71	31.861
709.89	33.581
710.07	31.043
710.25	33.850
710.44	32.311
710.62	33.029
710.80	34.410
710.98	33.985
711.17	32.710
711.35	35.001
711.53	30.298
711.72	32.288
711.90	34.756
712.08	34.744
712.26	30.424
712.45	33.559
712.63	34.683
712.81	34.110
712.99	33.701
713.18	35.698
713.36	33.582
713.54	34.938
713.72	32.292
713.91	33.066
714.09	32.409
714.27	34.834
714.45	34.805
714.64	37.064
714.82	33.743
715.00	35.279
715.18	32.581
715.37	37.472
715.55	33.979
715.73	34.987
715.91	34.175
716.10	35.789
716.28	29.903
716.46	36.671
716.64	32.630
716.83	35.190
717.01	31.797
717.19	35.086
717.37	34.765
717.55	35.162
717.74	33.946
717.92	36.106
718.10	31.206
718.28	34.845
718.47	32.085
718.65	36.137
718.83	34.686
719.01	36.184
719.19	31.644
719.38	33.856
719.56	32.286
719.74	33.025
719.92	30.645
720.10	32.023
720.29	33.166
720.47	35.631
720.65	33.189
720.83	36.491
721.01	28.058
721.20	33.256
721.38	31.769
721.56	33.932
721.74	34.525
721.92	35.034
722.11	30.179
722.29	33.874
722.47	31.963
722.65	35.258
722.83	33.008
723.01	33.137
723.20	35.565
723.38	35.249
723.56	30.892
723.74	37.688
723.92	33.258
724.10	34.355
724.29	29.827
724.47	36.746
724.65	32.331
724.83	36.772
725.01	32.839
725.19	37.145
725.38	32.224
725.56	34.656
725.74	33.341
725.92	37.000
726.10	33.551
726.28	35.488
726.46	34.432
726.65	36.308
726.83	33.378
727.01	35.971
727.19	34.432
727.37	32.986
727.55	35.778
727.73	35.638
727.92	33.298
728.10	36.126
728.28	31.093
728.46	37.842
728.64	35.490
728.82	36.112
729.00	34.510
729.19	34.919
729.37	34.558
729.55	39.539
729.73	32.097
729.91	37.090
730.09	35.703
730.27	36.551
730.45	33.919
730.63	36.482
730.82	35.136
731.00	36.733
731.18	34.628
731.36	36.022
731.54	32.415
731.72	38.176
731.90	33.816
732.08	37.030
732.26	33.006
732.45	38.265
732.63	36.663
732.81	36.546
732.99	35.223
733.17	37.373
733.35	35.547
733.53	36.953
733.71	36.252
733.89	36.695
734.07	35.927
734.25	38.880
734.44	34.770
734.62	36.159
734.80	33.065
734.98	41.017
735.16	34.873
735.34	37.895
735.52	36.076
735.70	35.931
735.88	36.090
736.06	37.289
736.24	39.609
736.42	40.996
736.60	37.286
736.78	36.793
736.97	33.911
737.15	40.010
737.33	32.975
737.51	37.791
737.69	38.369
737.87	37.708
738.05	37.456
738.23	36.442
738.41	35.158
738.59	39.073
738.77	37.405
738.95	38.804
739.13	36.240
739.31	38.617
739.49	37.055
739.67	40.504
739.85	35.206
740.03	40.762
740.21	37.877
740.39	40.895
740.57	35.207
740.75	38.074
740.93	37.765
741.11	40.246
741.30	35.830
741.48	38.185
741.66	37.573
741.84	37.276
742.02	35.010
742.20	40.830
742.38	37.149
742.56	40.462
742.74	33.224
742.92	35.927
743.10	33.683
743.28	41.027
743.46	36.255
743.64	35.839
743.82	34.049
744.00	38.699
744.18	36.546
744.36	37.522
744.54	35.814
744.72	40.889
744.90	39.346
745.08	38.724
745.26	35.971
745.44	38.518
745.62	32.968
745.80	36.814
745.98	37.022
746.16	41.095
746.34	38.173
746.52	40.807
746.70	33.397
746.87	37.213
747.05	35.084
747.23	39.584
747.41	34.716
747.59	39.041
747.77	32.766
747.95	38.631
748.13	37.017
748.31	38.173
748.49	39.229
748.67	38.127
748.85	34.536
749.03	39.492
749.21	35.835
749.39	39.801
749.57	33.394
749.75	37.556
749.93	38.579
750.11	35.478
750.29	35.535
750.47	40.627
750.65	37.607
750.83	39.521
751.01	32.104
751.18	38.020
751.36	35.545
751.54	35.638
751.72	38.440
751.90	38.210
752.08	34.698
752.26	35.934
752.44	37.666
752.62	36.534
752.80	38.059
752.98	39.510
753.16	37.492
753.34	36.655
753.52	36.820
753.69	37.099
753.87	38.438
754.05	37.221
754.23	36.740
754.41	39.067
754.59	37.161
754.77	36.143
754.95	36.615
755.13	38.670
755.31	37.173
755.49	36.449
755.66	38.544
755.84	40.891
756.02	30.601
756.20	39.046
756.38	35.990
756.56	37.569
756.74	34.152
756.92	39.240
757.10	34.397
757.28	37.261
757.45	43.861
757.63	41.614
757.81	34.448
757.99	41.373
758.17	35.501
758.35	39.448
758.53	36.058
758.71	40.898
758.88	36.738
759.06	38.253
759.24	33.424
759.42	34.001
759.60	32.591
759.78	37.243
759.96	33.128
760.13	35.287
760.31	31.625
760.49	33.627
760.67	28.175
760.85	34.470
761.03	29.044
761.21	31.451
761.38	28.399
761.56	29.967
761.74	27.335
761.92	33.585
762.10	25.950
762.28	32.627
762.46	28.186
762.63	30.457
762.81	28.275
762.99	29.921
763.17	31.456
763.35	33.094
763.53	29.887
763.70	35.463
763.88	34.470
764.06	34.942
764.24	31.121
764.42	33.371
764.60	33.816
764.77	34.127
764.95	33.800
765.13	33.555
765.31	33.563
765.49	36.276
765.66	31.859
765.84	34.357
766.02	34.627
766.20	35.033
766.38	31.123
766.56	35.083
766.73	30.928
766.91	33.864
767.09	34.364
767.27	36.925
767.45	32.014
767.62	35.069
767.80	31.372
767.98	36.474
768.16	32.651
768.33	37.141
768.51	34.955
768.69	36.055
768.87	33.311
769.05	32.382
769.22	36.351
769.40	37.447
769.58	35.842
769.76	35.797
769.94	34.089
770.11	33.147
770.29	34.205
770.47	33.893
770.65	35.303
770.82	39.511
771.00	33.280
771.18	40.909
771.36	33.807
771.53	34.786
771.71	34.854
771.89	36.963
772.07	36.235
772.25	36.825
772.42	33.291
772.60	37.323
772.78	37.188
772.96	37.851
773.13	41.385
773.31	37.055
773.49	33.124
773.67	35.054
773.84	36.211
774.02	33.870
774.20	35.728
774.37	36.878
774.55	34.032
774.73	40.877
774.91	36.402
775.08	36.300
775.26	36.531
775.44	40.390
775.62	35.447
775.79	35.602
775.97	30.732
776.15	36.807
776.32	31.316
776.50	40.218
776.68	36.763
776.86	42.192
777.03	35.428
777.21	35.734
777.39	29.287
777.56	39.069
777.74	37.723
777.92	40.595
778.10	31.545
778.27	37.900
778.45	34.598
778.63	37.607
778.80	35.499
778.98	37.003
779.16	38.903
779.34	38.748
779.51	36.738
779.69	40.759
779.87	36.462
780.04	36.588
780.22	34.373
780.40	37.430
780.57	34.848
780.75	36.019
780.93	38.330
781.10	36.727
781.28	44.395
781.46	30.236
781.63	39.298
781.81	40.863
781.99	34.163
782.16	34.705
782.34	30.513
782.52	36.300
782.69	38.647
782.87	34.115
783.05	38.347
783.22	37.175
783.40	32.978
783.58	38.880
783.75	34.440
783.93	40.116
784.11	35.463
784.28	38.370
784.46	30.956
784.64	35.243
784.81	35.068
784.99	42.700
785.17	37.223
785.34	31.890
785.52	34.861
785.69	39.189
785.87	31.008
786.05	36.957
786.22	40.493
786.40	41.761
786.58	36.384
786.75	39.806
786.93	31.501
787.11	40.641
787.28	33.296
787.46	39.834
787.63	34.382
787.81	35.966
787.99	37.944
788.16	35.822
788.34	32.022
788.51	31.579
788.69	33.502
788.87	29.398
789.04	33.236
789.22	33.027
789.39	34.659
789.57	34.205
789.75	33.999
789.92	33.909
790.10	32.950
790.27	36.935
790.45	29.047
790.63	34.712
790.80	32.850
790.98	31.647
791.15	29.585
791.33	31.315
791.51	29.024
791.68	34.585
791.86	32.304
792.03	35.420
792.21	29.466
792.39	37.179
792.56	32.780
792.74	36.228
792.91	36.327
793.09	35.245
793.26	34.382
793.44	44.552
793.62	29.619
793.79	36.453
793.97	38.131
794.14	38.892
794.32	34.956
794.49	35.163
794.67	28.536
794.84	36.158
795.02	32.210
795.20	38.399
795.37	33.373
795.55	35.357
795.72	34.384
795.90	32.597
796.07	35.355
796.25	33.963
796.42	32.055
796.60	31.470
796.77	30.744
796.95	34.047
797.13	25.000
797.30	32.107
797.48	31.076
797.65	35.557
797.83	32.215
798.00	34.328
798.18	26.850
798.35	33.225
798.53	35.420
798.70	38.554
798.88	36.439
799.05	37.226
799.23	29.670
799.40	32.185
799.58	36.418
799.75	34.069
799.93	32.476
800.10	32.447
800.28	34.714
800.45	32.900
800.63	32.854
800.80	38.119
800.98	36.530
801.15	31.650
801.33	35.353
801.50	32.422
801.68	31.141
801.85	33.873
802.03	31.138
802.20	28.754
802.38	31.963
802.55	30.712
802.73	34.205
802.90	32.183
803.08	26.036
803.25	35.032
803.43	34.686
803.60	37.137
803.78	35.526
803.95	36.902
804.13	35.782
804.30	34.718
804.48	32.660
804.65	36.761
804.83	28.600
805.00	36.096
805.17	34.667
805.35	32.406
805.52	30.007
805.70	35.987
805.87	33.531
806.05	37.624
806.22	34.211
806.40	34.014
806.57	34.691
806.75	40.025
806.92	37.192
807.09	37.339
807.27	33.644
807.44	37.208
807.62	33.941
807.79	34.648
807.97	26.693
808.14	36.731
808.31	31.636
808.49	40.000
808.66	29.661
808.84	28.161
809.01	35.493
809.19	35.049
809.36	38.697
809.53	34.678
809.71	34.106
809.88	44.030
810.06	39.715
810.23	35.437
810.41	37.658
810.58	36.922
810.75	33.955
810.93	34.449
811.10	36.208
811.28	30.814
811.45	32.086
811.62	38.426
811.80	28.483
811.97	35.420
812.15	38.659
812.32	33.721
812.49	39.260
812.67	34.124
812.84	36.945
813.02	36.548
813.19	33.538
813.36	37.908
813.54	30.090
813.71	36.938
813.89	30.626
814.06	35.256
814.23	37.470
814.41	38.436
814.58	37.227
814.75	31.448
814.93	35.855
815.10	31.224
815.28	34.686
815.45	32.843
815.62	34.884
815.80	37.490
815.97	37.138
816.14	31.892
816.32	34.421
816.49	38.676
816.66	35.116
816.84	30.734
817.01	36.834
817.18	38.571
817.36	31.764
817.53	33.012
817.71	25.382
817.88	35.703
818.05	35.843
818.23	34.485
818.40	36.335
818.57	33.359
818.75	29.398
818.92	26.502
819.09	33.182
819.27	36.902
819.44	32.841
819.61	27.915
819.79	31.250
819.96	36.897
820.13	31.266
820.31	30.703
820.48	33.276
820.65	31.611
820.82	31.801
821.00	30.078
821.17	25.982
821.34	28.004
821.52	28.436
821.69	29.879
821.86	28.107
822.04	28.842
822.21	30.745
822.38	34.395
822.56	31.478
822.73	36.604
822.90	35.416
823.07	36.265
823.25	35.702
823.42	33.846
823.59	34.059
823.77	34.885
823.94	33.703
824.11	34.486
824.29	32.400
824.46	35.213
824.63	35.055
824.80	33.833
824.98	33.025
825.15	35.323
825.32	29.669
825.49	32.392
825.67	28.509
825.84	33.144
826.01	29.634
826.19	33.220
826.36	28.938
826.53	33.867
826.70	28.119
826.88	32.543
827.05	27.147
827.22	30.756
827.39	28.938
827.57	31.338
827.74	26.932
827.91	32.837
828.08	29.908
828.26	31.846
828.43	27.605
828.60	33.396
828.77	30.166
828.95	30.961
829.12	26.262
829.29	27.681
829.46	28.782
829.64	29.791
829.81	25.254
829.98	29.423
830.15	27.709
830.32	32.375
830.50	29.835
830.67	29.851
830.84	27.341
831.01	27.491
831.19	29.440
831.36	28.653
831.53	31.015
831.70	38.900
831.87	33.216
832.05	30.991
832.22	38.594
832.39	28.593
832.56	31.011
832.74	32.710
832.91	31.579
833.08	39.636
833.25	24.824
833.42	31.171
833.60	30.506
833.77	25.443
833.94	27.310
834.11	27.685
834.28	25.527
834.45	29.252
834.63	24.159
834.80	29.564
834.97	28.398
835.14	29.067
835.31	26.718
835.49	25.758
835.66	26.386
835.83	26.263
836.00	24.911
836.17	26.314
836.34	25.138
836.52	26.152
836.69	31.420
836.86	31.048
837.03	28.412
837.20	27.426
837.37	27.137
837.55	28.783
837.72	28.571
837.89	26.247
838.06	33.360
838.23	38.922
838.40	34.199
838.58	29.662
838.75	37.253
838.92	31.839
839.09	41.633
839.26	34.312
839.43	45.255
839.60	44.919
839.78	50.572
839.95	48.004
840.12	36.218
840.29	41.958
840.46	36.571
840.63	41.298
840.80	39.802
840.98	43.529
841.15	33.656
841.32	34.464
841.49	31.606
841.66	39.307
841.83	36.537
842.00	34.737
842.17	39.733
842.34	32.274
842.52	36.890
842.69	41.115
842.86	46.075
843.03	58.267
843.20	47.154
843.37	44.675
843.54	54.412
843.71	40.074
843.88	59.076
844.06	48.413
844.23	52.219
844.40	51.466
844.57	63.842
844.74	49.773
844.91	51.805
845.08	52.733
845.25	62.715
845.42	54.870
845.59	56.093
845.76	54.430
845.94	67.216
846.11	67.238
846.28	62.025
846.45	76.616
846.62	71.160
846.79	51.821
846.96	53.257
847.13	72.711
847.30	59.646
847.47	65.350
847.64	56.522
847.81	62.642
847.98	78.039
848.15	68.248
848.32	73.747
848.50	73.535
848.67	67.091
848.84	61.822
849.01	67.265
849.18	75.922
849.35	77.124
849.52	65.914
849.69	56.279
849.86	70.611
850.03	58.588
850.20	52.016
850.37	37.959
850.54	83.033
850.71	68.347
850.88	69.215
851.05	61.299
851.22	59.339
851.39	67.804
851.56	74.805
851.73	81.609
851.90	71.895
852.07	69.165
852.24	88.702
852.41	76.267
852.58	93.782
852.75	71.459
852.92	76.528
853.09	84.956
853.26	84.130
853.43	63.990
853.60	68.836
853.77	87.607
853.94	60.131
854.11	82.073
854.28	77.246
854.45	72.870
854.62	63.053
854.79	93.112
854.96	77.358
855.13	75.216
855.30	72.840
855.47	101.075
855.64	65.404
855.81	76.739
855.98	70.022
856.15	79.638
856.32	83.636
856.49	84.000
856.66	73.457
856.83	82.051
857.00	80.053
857.17	73.210
857.34	81.524
857.51	65.820
857.68	74.611
857.85	78.541
858.02	73.348
858.19	68.607
858.36	63.242
858.53	86.761
858.70	78.604
858.87	68.172
859.04	62.443
859.21	83.911
859.38	83.229
859.55	97.150
859.72	98.347
859.89	87.728
860.05	89.462
860.22	84.835
860.39	71.222
860.56	83.152
860.73	81.279
860.90	71.429
861.07	89.157
861.24	69.213
861.41	69.620
861.58	71.938
861.75	77.487
861.92	69.058
862.09	76.339
862.26	79.143
862.43	92.361
862.59	86.027
862.76	92.784
862.93	88.298
863.10	81.365
863.27	74.130
863.44	79.518
863.61	79.018
863.78	74.620
863.95	123.899
864.12	78.361
864.29	83.523
864.45	84.080
864.62	80.676
864.79	50.556
864.96	84.951
865.13	75.292
865.30	75.114
865.47	73.435
865.64	83.659
865.81	83.291
865.97	75.974
866.14	71.518
866.31	88.312
866.48	66.061
866.65	64.114
866.82	82.697
866.99	88.952
867.16	76.471
867.33	74.341
867.49	96.009
867.66	72.794
867.83	92.508
868.00	82.031
868.17	72.727
868.34	92.991
868.51	85.112
868.67	92.265
868.84	63.221
869.01	86.375
869.18	56.349
869.35	90.407
869.52	107.447
869.69	88.861
869.85	83.184
870.02	77.641
870.19	73.791
870.36	83.459
870.53	70.946
870.70	81.473
870.86	67.717
871.03	82.588
871.20	87.855
871.37	74.775
871.54	82.235
871.71	75.871
871.87	76.720
872.04	75.309
872.21	68.243
872.38	85.075
872.55	89.896
872.72	71.429
872.88	75.137
873.05	67.849
873.22	81.995
873.39	70.146
873.56	76.786
873.72	73.392
873.89	58.824
874.06	71.920
874.23	75.515
874.40	84.110
874.56	78.969
874.73	72.099
874.90	62.700
875.07	90.843
875.24	76.850
875.40	67.183
875.57	61.517
875.74	79.000
875.91	71.047
876.08	63.158
876.24	102.102
876.41	61.925
876.58	96.096
876.75	76.962
876.92	76.972
877.08	71.801
877.25	71.368
877.42	65.815
877.59	67.288
877.75	70.833
877.92	77.984
878.09	92.088
878.26	67.901
878.42	77.474
878.59	85.649
878.76	66.591
878.93	86.158
879.09	83.407
879.26	66.607
879.43	106.083
879.60	65.166
879.76	58.765
879.93	62.706
880.10	42.190
880.27	55.120
880.43	56.879
880.60	50.086
880.77	47.920
880.94	52.141
881.10	42.892
881.27	43.797
881.44	28.850
881.61	35.453
881.77	34.427
881.94	25.995
882.11	25.527
882.28	25.553
882.44	26.934
882.61	24.436
882.78	28.907
882.94	30.478
883.11	27.512
883.28	27.584
883.45	27.702
883.61	25.391
883.78	25.413
883.95	31.377
884.11	27.957
884.28	23.864
>>>>>End Processed Spectral Data<<<<<
