SpectraSuite Data File
++++++++++++++++++++++++++++++++++++
Date: Tue Sep 24 03:17:05 EST 2019
User: sgrac
Dark Spectrum Present: Yes
Reference Spectrum Present: Yes
Number of Sampled Component Spectra: 1
Spectrometers: USB4E01596
Integration Time (usec): 100000 (USB4E01596)
Spectra Averaged: 3 (USB4E01596)
Boxcar Smoothing: 0 (USB4E01596)
Correct for Electrical Dark: No (USB4E01596)
Strobe/Lamp Enabled: Yes (USB4E01596)
Correct for Detector Non-linearity: No (USB4E01596)
Correct for Stray Light: No (USB4E01596)
Number of Pixels in Processed Spectrum: 3648
>>>>>Begin Processed Spectral Data<<<<<
178.44	1500.000
178.66	1500.000
178.87	1500.000
179.09	569.811
179.30	595.556
179.52	-1073.333
179.74	590.566
179.95	579.104
180.17	-15750.000
180.38	-9800.000
180.60	467.416
180.82	-2485.714
181.03	905.405
181.25	-1456.522
181.46	520.833
181.68	4122.222
181.89	-1295.833
182.11	460.606
182.33	1037.143
182.54	536.842
182.76	-630.000
182.97	252.174
183.19	748.889
183.40	4477.778
183.62	497.561
183.84	408.000
184.05	736.957
184.27	466.667
184.48	-1333.333
184.70	396.774
184.91	526.316
185.13	551.316
185.34	416.129
185.56	1196.875
185.78	1008.333
185.99	2275.000
186.21	388.750
186.42	690.476
186.64	353.763
186.85	708.333
187.07	-3270.000
187.28	-1747.059
187.50	-26300.000
187.72	34900.000
187.93	-1591.667
188.15	1009.302
188.36	448.649
188.58	551.351
188.79	-4785.714
189.01	-2807.692
189.22	1428.000
189.44	400.000
189.65	551.515
189.87	-4328.571
190.09	826.471
190.30	810.526
190.52	1885.714
190.73	4550.000
190.95	986.842
191.16	381.013
191.38	2972.727
191.59	2328.571
191.81	1150.000
192.02	727.660
192.24	628.571
192.45	2358.824
192.67	405.195
192.88	386.735
193.10	580.303
193.31	376.768
193.53	747.368
193.74	-26400.000
193.96	588.732
194.18	348.113
194.39	421.739
194.61	434.259
194.82	325.424
195.04	400.000
195.25	0.000
195.47	-35800.000
195.68	375.000
195.90	384.706
196.11	428.916
196.33	769.767
196.54	357.798
196.76	1112.121
196.97	-3008.333
197.19	424.419
197.40	700.000
197.62	679.245
197.83	392.308
198.05	542.466
198.26	0.000
198.48	-586.667
198.69	1233.333
198.91	4471.429
199.12	-7925.000
199.34	403.333
199.55	-32400.000
199.77	1922.222
199.98	629.577
200.20	310.744
200.41	528.947
200.63	1011.765
200.84	-2723.077
201.06	464.557
201.27	1372.000
201.49	740.426
201.70	418.391
201.91	549.296
202.13	511.940
202.34	-1324.000
202.56	223.944
202.77	4262.500
202.99	4950.000
203.20	591.304
203.42	927.027
203.63	3337.500
203.85	352.941
204.06	553.846
204.28	322.881
204.49	1015.152
204.71	-671.875
204.92	312.319
205.14	1151.613
205.35	811.905
205.56	442.857
205.78	-720.000
205.99	823.077
206.21	738.596
206.42	603.030
206.64	1673.913
206.85	477.108
207.07	-570.968
207.28	1236.000
207.50	446.739
207.71	652.083
207.93	8733.333
208.14	960.526
208.35	-2683.333
208.57	-844.828
208.78	316.084
209.00	1007.500
209.21	381.188
209.43	-6500.000
209.64	246.023
209.86	549.123
210.07	740.476
210.28	975.862
210.50	5650.000
210.71	1196.774
210.93	-1953.333
211.14	603.636
211.36	353.125
211.57	1407.407
211.78	4222.222
212.00	-1855.556
212.21	809.756
212.43	641.071
212.64	447.561
212.86	1295.652
213.07	566.176
213.29	2500.000
213.50	238.889
213.71	374.699
213.93	270.769
214.14	320.513
214.36	342.353
214.57	-3160.000
214.78	917.949
215.00	358.678
215.21	777.500
215.43	1260.000
215.64	341.667
215.86	350.943
216.07	9125.000
216.28	550.746
216.50	400.980
216.71	1227.586
216.93	-902.326
217.14	388.889
217.35	587.500
217.57	317.949
217.78	548.387
218.00	348.485
218.21	523.944
218.42	1318.519
218.64	2733.333
218.85	687.500
219.07	284.034
219.28	576.923
219.49	386.239
219.71	592.857
219.92	956.000
220.14	641.304
220.35	2800.000
220.56	768.293
220.78	1012.121
220.99	486.154
221.21	529.730
221.42	448.649
221.63	7050.000
221.85	1435.714
222.06	1045.833
222.28	430.380
222.49	395.699
222.70	417.000
222.92	570.175
223.13	1283.333
223.34	1075.000
223.56	229.921
223.77	215.278
223.99	358.889
224.20	247.260
224.41	393.333
224.63	409.184
224.84	235.714
225.05	266.400
225.27	600.000
225.48	358.586
225.69	411.458
225.91	381.928
226.12	196.939
226.34	211.732
226.55	152.340
226.76	206.316
226.98	196.875
227.19	142.157
227.40	149.784
227.62	123.301
227.83	117.956
228.04	94.277
228.26	95.796
228.47	69.677
228.69	60.816
228.90	57.431
229.11	47.988
229.33	50.070
229.54	41.527
229.75	35.812
229.97	39.452
230.18	35.312
230.39	30.785
230.61	31.946
230.82	39.519
231.03	31.726
231.25	39.789
231.46	44.417
231.67	39.567
231.89	43.750
232.10	44.085
232.31	55.226
232.53	49.204
232.74	54.961
232.95	58.991
233.17	51.049
233.38	54.774
233.59	69.778
233.81	63.185
234.02	72.333
234.23	67.596
234.45	56.619
234.66	66.364
234.87	55.349
235.09	63.594
235.30	61.628
235.51	67.238
235.73	53.598
235.94	51.254
236.15	51.905
236.36	60.698
236.58	53.812
236.79	47.319
237.00	55.930
237.22	48.730
237.43	57.349
237.64	48.667
237.86	48.892
238.07	62.986
238.28	48.593
238.50	42.857
238.71	63.308
238.92	49.509
239.13	50.213
239.35	48.971
239.56	49.660
239.77	45.430
239.99	40.049
240.20	41.838
240.41	39.152
240.63	39.586
240.84	38.634
241.05	36.569
241.26	34.489
241.48	31.277
241.69	26.411
241.90	25.194
242.12	25.694
242.33	24.234
242.54	19.138
242.75	17.525
242.97	19.555
243.18	16.296
243.39	14.256
243.61	16.730
243.82	15.295
244.03	15.426
244.24	14.933
244.46	15.024
244.67	16.152
244.88	15.837
245.09	16.939
245.31	18.257
245.52	18.692
245.73	22.253
245.95	30.438
246.16	22.682
246.37	11.804
246.58	19.218
246.80	17.124
247.01	13.484
247.22	11.066
247.43	10.767
247.65	9.987
247.86	10.727
248.07	9.089
248.28	6.757
248.50	8.711
248.71	10.466
248.92	6.569
249.13	9.758
249.35	7.826
249.56	10.944
249.77	9.469
249.98	8.549
250.20	15.352
250.41	11.407
250.62	15.948
250.83	15.869
251.05	19.473
251.26	21.251
251.47	18.338
251.68	19.602
251.90	15.519
252.11	19.369
252.32	20.125
252.53	14.689
252.75	16.118
252.96	16.718
253.17	13.061
253.38	15.903
253.59	14.467
253.81	15.343
254.02	13.831
254.23	14.856
254.44	14.794
254.66	17.287
254.87	21.041
255.08	21.630
255.29	20.154
255.50	21.980
255.72	22.950
255.93	23.586
256.14	27.119
256.35	25.396
256.57	22.687
256.78	20.807
256.99	21.993
257.20	22.721
257.41	25.347
257.63	22.320
257.84	21.757
258.05	22.755
258.26	14.995
258.47	16.556
258.69	15.439
258.90	17.436
259.11	16.971
259.32	9.909
259.53	11.811
259.75	9.494
259.96	7.548
260.17	9.402
260.38	7.658
260.59	7.071
260.81	4.971
261.02	6.775
261.23	5.914
261.44	6.639
261.65	7.165
261.87	6.071
262.08	7.604
262.29	7.796
262.50	9.318
262.71	8.871
262.92	9.096
263.14	9.950
263.35	10.668
263.56	14.794
263.77	14.506
263.98	14.171
264.20	15.638
264.41	16.159
264.62	14.441
264.83	14.034
265.04	15.497
265.25	14.029
265.47	16.652
265.68	12.836
265.89	17.501
266.10	12.522
266.31	17.231
266.52	14.292
266.74	13.620
266.95	12.407
267.16	12.537
267.37	12.457
267.58	13.822
267.79	14.159
268.01	10.028
268.22	11.880
268.43	11.743
268.64	10.090
268.85	13.559
269.06	8.927
269.27	10.503
269.49	11.225
269.70	8.431
269.91	9.906
270.12	11.592
270.33	14.545
270.54	10.744
270.75	12.990
270.97	10.436
271.18	10.470
271.39	8.338
271.60	9.145
271.81	9.681
272.02	8.574
272.23	9.559
272.45	8.467
272.66	8.838
272.87	10.195
273.08	9.575
273.29	8.500
273.50	8.712
273.71	8.222
273.92	5.799
274.14	6.441
274.35	9.723
274.56	7.462
274.77	7.108
274.98	10.091
275.19	10.304
275.40	8.705
275.61	8.405
275.83	10.958
276.04	10.138
276.25	13.244
276.46	10.900
276.67	13.197
276.88	9.860
277.09	10.612
277.30	8.480
277.51	10.547
277.73	9.448
277.94	11.033
278.15	8.345
278.36	12.263
278.57	8.522
278.78	8.750
278.99	9.543
279.20	11.818
279.41	13.606
279.62	8.640
279.84	8.160
280.05	10.314
280.26	9.177
280.47	11.068
280.68	11.722
280.89	9.158
281.10	8.618
281.31	11.729
281.52	6.434
281.73	9.898
281.94	8.541
282.16	8.916
282.37	10.264
282.58	8.831
282.79	9.280
283.00	7.668
283.21	5.645
283.42	7.163
283.63	8.611
283.84	9.069
284.05	8.685
284.26	9.166
284.47	7.365
284.68	6.716
284.89	7.208
285.11	6.981
285.32	6.932
285.53	8.191
285.74	7.641
285.95	7.393
286.16	6.318
286.37	5.040
286.58	6.937
286.79	5.693
287.00	6.564
287.21	6.066
287.42	6.195
287.63	5.672
287.84	5.526
288.05	6.891
288.26	6.197
288.48	6.910
288.69	6.692
288.90	6.767
289.11	7.498
289.32	6.921
289.53	7.582
289.74	7.940
289.95	8.287
290.16	6.441
290.37	5.632
290.58	7.824
290.79	6.357
291.00	6.035
291.21	7.179
291.42	7.756
291.63	6.243
291.84	6.242
292.05	6.679
292.26	5.046
292.47	7.270
292.68	6.735
292.89	8.367
293.10	6.903
293.31	7.437
293.52	6.430
293.73	6.972
293.94	8.621
294.15	8.026
294.36	8.179
294.57	7.629
294.79	7.768
295.00	7.887
295.21	7.383
295.42	7.167
295.63	7.385
295.84	5.704
296.05	6.674
296.26	6.830
296.47	6.775
296.68	7.176
296.89	6.264
297.10	5.803
297.31	7.039
297.52	5.879
297.73	5.274
297.94	5.589
298.15	5.530
298.36	4.647
298.57	4.206
298.78	5.398
298.99	5.476
299.20	4.330
299.41	5.587
299.62	6.349
299.83	5.826
300.04	6.552
300.25	6.583
300.46	6.205
300.67	8.225
300.88	6.316
301.09	5.192
301.30	7.841
301.50	5.497
301.71	8.203
301.92	6.600
302.13	5.387
302.34	5.574
302.55	8.599
302.76	5.733
302.97	7.028
303.18	7.727
303.39	7.788
303.60	8.209
303.81	8.520
304.02	7.036
304.23	6.469
304.44	6.407
304.65	8.211
304.86	5.952
305.07	6.022
305.28	5.916
305.49	7.248
305.70	8.549
305.91	6.342
306.12	5.120
306.33	6.336
306.54	5.974
306.75	8.496
306.96	8.081
307.17	5.690
307.38	7.901
307.58	6.300
307.79	7.888
308.00	8.337
308.21	8.457
308.42	8.571
308.63	6.185
308.84	8.625
309.05	6.435
309.26	4.918
309.47	4.963
309.68	7.766
309.89	8.567
310.10	6.751
310.31	6.588
310.52	6.309
310.73	6.817
310.94	5.868
311.14	5.580
311.35	5.908
311.56	5.497
311.77	5.436
311.98	5.344
312.19	5.023
312.40	6.089
312.61	3.699
312.82	6.734
313.03	5.860
313.24	4.733
313.45	6.184
313.66	7.118
313.86	6.561
314.07	6.008
314.28	5.743
314.49	7.322
314.70	6.532
314.91	6.446
315.12	7.344
315.33	7.713
315.54	6.233
315.75	6.115
315.96	6.008
316.16	7.702
316.37	8.106
316.58	5.626
316.79	7.277
317.00	7.112
317.21	7.760
317.42	8.483
317.63	8.025
317.84	8.871
318.05	8.639
318.25	6.203
318.46	7.773
318.67	7.114
318.88	6.811
319.09	6.613
319.30	6.794
319.51	6.660
319.72	6.129
319.93	7.788
320.13	6.798
320.34	7.342
320.55	7.400
320.76	7.827
320.97	8.311
321.18	8.162
321.39	8.658
321.60	8.752
321.80	8.492
322.01	9.275
322.22	7.880
322.43	6.198
322.64	6.777
322.85	8.385
323.06	8.162
323.27	9.191
323.47	8.553
323.68	9.064
323.89	7.146
324.10	6.179
324.31	6.062
324.52	6.637
324.73	7.221
324.93	4.466
325.14	6.259
325.35	6.447
325.56	7.147
325.77	6.005
325.98	5.785
326.19	7.731
326.39	5.759
326.60	6.735
326.81	4.481
327.02	7.039
327.23	5.426
327.44	5.700
327.64	4.147
327.85	6.489
328.06	6.658
328.27	6.994
328.48	5.694
328.69	7.030
328.90	6.204
329.10	6.900
329.31	7.038
329.52	6.396
329.73	7.682
329.94	6.973
330.15	6.000
330.35	7.292
330.56	7.472
330.77	5.723
330.98	8.479
331.19	7.225
331.39	7.855
331.60	6.872
331.81	5.687
332.02	5.777
332.23	8.949
332.44	5.834
332.64	8.011
332.85	6.376
333.06	5.241
333.27	5.744
333.48	5.753
333.68	5.462
333.89	7.143
334.10	5.464
334.31	6.521
334.52	6.982
334.72	6.372
334.93	5.789
335.14	5.125
335.35	6.869
335.56	7.639
335.76	6.239
335.97	6.855
336.18	6.288
336.39	5.973
336.60	6.500
336.80	5.003
337.01	5.845
337.22	5.987
337.43	6.415
337.64	6.435
337.84	6.043
338.05	6.472
338.26	6.859
338.47	5.875
338.68	5.896
338.88	7.686
339.09	4.354
339.30	5.692
339.51	5.962
339.71	5.026
339.92	6.054
340.13	4.905
340.34	5.403
340.55	5.893
340.75	5.353
340.96	6.406
341.17	6.080
341.38	6.265
341.58	6.273
341.79	5.610
342.00	5.994
342.21	5.138
342.41	4.978
342.62	5.766
342.83	6.309
343.04	5.863
343.24	5.938
343.45	5.514
343.66	4.780
343.87	5.678
344.07	4.622
344.28	4.174
344.49	4.834
344.70	6.039
344.90	4.912
345.11	5.143
345.32	5.317
345.53	4.977
345.73	5.075
345.94	4.538
346.15	5.058
346.36	3.659
346.56	4.632
346.77	4.596
346.98	5.229
347.19	4.566
347.39	3.993
347.60	4.538
347.81	4.565
348.02	6.502
348.22	4.852
348.43	4.566
348.64	5.719
348.84	4.957
349.05	4.323
349.26	5.433
349.47	4.763
349.67	4.963
349.88	5.457
350.09	5.380
350.30	6.460
350.50	4.561
350.71	5.262
350.92	3.994
351.12	5.841
351.33	4.497
351.54	5.023
351.74	5.355
351.95	4.462
352.16	4.711
352.37	5.527
352.57	5.402
352.78	5.363
352.99	4.477
353.19	5.874
353.40	4.250
353.61	6.417
353.82	5.567
354.02	3.986
354.23	4.792
354.44	5.504
354.64	5.391
354.85	5.319
355.06	4.481
355.26	4.359
355.47	4.755
355.68	5.933
355.88	5.313
356.09	3.795
356.30	4.389
356.51	4.432
356.71	4.276
356.92	3.594
357.13	4.827
357.33	5.938
357.54	4.531
357.75	3.952
357.95	4.218
358.16	3.919
358.37	4.480
358.57	4.059
358.78	4.066
358.99	3.668
359.19	3.948
359.40	3.085
359.61	4.395
359.81	5.084
360.02	4.227
360.23	4.776
360.43	4.451
360.64	3.931
360.85	4.428
361.05	3.715
361.26	3.783
361.47	3.566
361.67	3.693
361.88	3.650
362.09	2.926
362.29	3.286
362.50	2.845
362.70	2.998
362.91	3.379
363.12	3.049
363.32	2.782
363.53	3.439
363.74	3.219
363.94	3.502
364.15	3.370
364.36	4.058
364.56	3.047
364.77	4.743
364.98	4.801
365.18	3.989
365.39	4.482
365.59	3.814
365.80	3.865
366.01	4.190
366.21	3.890
366.42	3.961
366.63	3.833
366.83	3.919
367.04	3.201
367.24	4.323
367.45	2.880
367.66	3.246
367.86	4.493
368.07	3.813
368.28	3.357
368.48	3.576
368.69	3.518
368.89	4.263
369.10	3.327
369.31	3.697
369.51	4.608
369.72	3.791
369.92	4.558
370.13	4.146
370.34	4.258
370.54	3.883
370.75	4.473
370.95	4.604
371.16	3.476
371.37	3.740
371.57	3.845
371.78	3.484
371.98	4.456
372.19	2.994
372.40	3.855
372.60	4.354
372.81	3.544
373.01	2.944
373.22	4.004
373.43	4.077
373.63	3.361
373.84	3.729
374.04	3.346
374.25	3.592
374.46	3.211
374.66	3.922
374.87	4.040
375.07	4.454
375.28	2.895
375.48	3.217
375.69	3.331
375.90	3.653
376.10	3.481
376.31	3.380
376.51	4.229
376.72	3.789
376.92	3.127
377.13	3.155
377.34	3.288
377.54	3.392
377.75	3.620
377.95	3.456
378.16	3.449
378.36	3.332
378.57	2.882
378.77	3.504
378.98	3.336
379.19	3.113
379.39	2.333
379.60	3.401
379.80	3.052
380.01	3.860
380.21	2.958
380.42	3.385
380.62	3.301
380.83	3.564
381.04	2.797
381.24	3.679
381.45	3.173
381.65	3.130
381.86	2.776
382.06	4.576
382.27	3.561
382.47	3.765
382.68	3.539
382.88	4.261
383.09	3.907
383.29	3.783
383.50	3.752
383.71	3.711
383.91	3.278
384.12	3.273
384.32	3.211
384.53	3.162
384.73	3.107
384.94	3.338
385.14	3.624
385.35	2.990
385.55	3.771
385.76	3.902
385.96	2.846
386.17	2.975
386.37	3.119
386.58	3.837
386.78	3.740
386.99	2.677
387.19	3.137
387.40	2.899
387.60	3.747
387.81	3.860
388.01	3.301
388.22	4.041
388.42	4.000
388.63	4.883
388.83	3.928
389.04	3.053
389.24	3.468
389.45	3.603
389.65	3.204
389.86	4.548
390.06	4.204
390.27	3.876
390.47	3.829
390.68	3.604
390.88	4.850
391.09	4.377
391.29	4.614
391.50	4.003
391.70	4.130
391.91	4.126
392.11	4.396
392.32	4.463
392.52	4.593
392.73	4.884
392.93	4.364
393.14	4.859
393.34	4.359
393.55	5.666
393.75	4.514
393.95	4.896
394.16	5.940
394.36	6.411
394.57	6.056
394.77	5.657
394.98	5.756
395.18	6.285
395.39	5.850
395.59	6.781
395.80	6.239
396.00	6.819
396.21	7.911
396.41	5.668
396.61	7.661
396.82	7.440
397.02	7.915
397.23	7.943
397.43	6.848
397.64	6.728
397.84	8.833
398.05	6.696
398.25	9.281
398.45	7.387
398.66	9.516
398.86	8.125
399.07	9.455
399.27	8.165
399.48	10.017
399.68	8.441
399.89	8.677
400.09	9.840
400.29	9.436
400.50	9.173
400.70	9.979
400.91	9.295
401.11	9.658
401.32	9.628
401.52	9.029
401.72	9.350
401.93	11.169
402.13	9.910
402.34	9.692
402.54	8.737
402.75	12.129
402.95	8.461
403.15	10.750
403.36	9.327
403.56	11.430
403.77	9.593
403.97	10.456
404.17	10.766
404.38	11.900
404.58	9.596
404.79	11.362
404.99	11.879
405.19	10.821
405.40	10.874
405.60	12.226
405.81	10.076
406.01	11.737
406.21	11.214
406.42	12.093
406.62	11.048
406.83	12.376
407.03	11.108
407.23	11.528
407.44	10.987
407.64	11.865
407.85	12.045
408.05	12.024
408.25	11.883
408.46	12.687
408.66	12.136
408.87	11.465
409.07	11.617
409.27	11.151
409.48	11.493
409.68	12.386
409.88	10.407
410.09	11.543
410.29	11.837
410.50	13.148
410.70	10.868
410.90	11.739
411.11	10.677
411.31	11.461
411.51	12.329
411.72	12.553
411.92	10.993
412.12	11.690
412.33	10.685
412.53	11.459
412.74	9.665
412.94	11.514
413.14	11.545
413.35	11.920
413.55	11.969
413.75	12.919
413.96	10.743
414.16	11.600
414.36	10.995
414.57	11.151
414.77	10.889
414.97	12.591
415.18	10.872
415.38	11.388
415.58	10.964
415.79	11.217
415.99	10.419
416.19	12.091
416.40	11.672
416.60	11.469
416.80	11.105
417.01	11.253
417.21	10.355
417.41	12.379
417.62	11.754
417.82	12.055
418.02	10.610
418.23	12.158
418.43	11.060
418.63	11.974
418.84	11.661
419.04	11.861
419.24	11.840
419.45	12.673
419.65	12.121
419.85	12.006
420.06	11.888
420.26	12.220
420.46	11.662
420.67	12.322
420.87	12.038
421.07	12.608
421.28	11.966
421.48	12.742
421.68	12.063
421.88	12.194
422.09	12.084
422.29	12.164
422.49	11.775
422.70	12.779
422.90	11.863
423.10	12.269
423.31	11.987
423.51	12.516
423.71	11.492
423.91	12.057
424.12	11.826
424.32	12.119
424.52	11.939
424.73	11.538
424.93	11.632
425.13	11.890
425.33	11.483
425.54	12.156
425.74	12.197
425.94	12.705
426.15	11.823
426.35	11.987
426.55	12.804
426.75	12.140
426.96	11.713
427.16	12.362
427.36	12.069
427.57	12.275
427.77	11.584
427.97	12.159
428.17	11.616
428.38	11.978
428.58	10.396
428.78	12.289
428.98	10.894
429.19	11.563
429.39	10.985
429.59	11.939
429.79	10.223
430.00	10.309
430.20	10.554
430.40	11.245
430.60	10.559
430.81	11.169
431.01	10.574
431.21	11.493
431.41	10.757
431.62	11.319
431.82	11.023
432.02	12.360
432.22	10.500
432.43	11.055
432.63	10.447
432.83	11.184
433.03	11.007
433.24	11.147
433.44	10.956
433.64	11.390
433.84	10.709
434.05	11.719
434.25	10.776
434.45	12.164
434.65	12.264
434.85	12.440
435.06	11.776
435.26	12.128
435.46	11.731
435.66	12.013
435.87	11.702
436.07	12.357
436.27	11.695
436.47	11.715
436.67	11.667
436.88	12.491
437.08	11.571
437.28	11.943
437.48	11.421
437.69	12.444
437.89	11.269
438.09	12.015
438.29	11.411
438.49	11.782
438.70	11.898
438.90	11.524
439.10	11.346
439.30	12.223
439.50	11.248
439.71	12.117
439.91	11.589
440.11	12.542
440.31	11.779
440.51	12.050
440.72	11.657
440.92	12.178
441.12	11.966
441.32	12.721
441.52	12.478
441.72	12.669
441.93	12.319
442.13	12.386
442.33	12.209
442.53	13.040
442.73	12.111
442.94	12.820
443.14	12.228
443.34	13.044
443.54	12.369
443.74	12.595
443.94	12.432
444.15	12.395
444.35	11.586
444.55	12.613
444.75	11.978
444.95	12.457
445.15	11.832
445.36	12.263
445.56	11.423
445.76	12.735
445.96	11.910
446.16	11.928
446.36	11.796
446.57	12.501
446.77	11.634
446.97	12.365
447.17	12.342
447.37	12.639
447.57	12.190
447.77	12.617
447.98	12.169
448.18	12.929
448.38	12.619
448.58	12.897
448.78	12.883
448.98	12.667
449.18	12.212
449.39	12.789
449.59	12.083
449.79	12.880
449.99	12.117
450.19	12.501
450.39	11.776
450.59	12.198
450.79	11.722
451.00	12.532
451.20	12.975
451.40	12.094
451.60	11.478
451.80	12.088
452.00	11.741
452.20	12.392
452.40	11.797
452.61	12.268
452.81	12.085
453.01	12.118
453.21	11.462
453.41	12.586
453.61	11.786
453.81	12.128
454.01	11.936
454.21	12.210
454.42	12.461
454.62	12.369
454.82	11.423
455.02	12.348
455.22	11.271
455.42	12.009
455.62	10.994
455.82	11.835
456.02	11.084
456.23	11.766
456.43	11.964
456.63	11.683
456.83	11.171
457.03	11.704
457.23	10.984
457.43	11.669
457.63	11.233
457.83	12.111
458.03	11.087
458.23	11.227
458.43	11.005
458.64	11.476
458.84	11.609
459.04	11.778
459.24	11.025
459.44	11.736
459.64	11.798
459.84	12.143
460.04	11.206
460.24	11.635
460.44	11.593
460.64	11.795
460.84	11.536
461.04	12.071
461.24	12.046
461.45	12.095
461.65	12.299
461.85	12.614
462.05	12.252
462.25	12.550
462.45	12.440
462.65	12.212
462.85	11.318
463.05	11.826
463.25	11.071
463.45	12.040
463.65	11.837
463.85	12.152
464.05	11.190
464.25	11.658
464.45	11.961
464.65	11.280
464.85	11.120
465.05	11.454
465.26	11.200
465.46	12.093
465.66	11.560
465.86	12.070
466.06	11.286
466.26	11.697
466.46	10.700
466.66	11.435
466.86	11.340
467.06	11.746
467.26	11.076
467.46	11.896
467.66	11.331
467.86	11.744
468.06	11.312
468.26	11.253
468.46	11.416
468.66	11.636
468.86	11.329
469.06	11.991
469.26	10.732
469.46	11.867
469.66	11.313
469.86	11.792
470.06	11.663
470.26	12.017
470.46	10.977
470.66	12.058
470.86	10.614
471.06	11.625
471.26	10.545
471.46	11.190
471.66	11.139
471.86	11.518
472.06	11.395
472.26	12.134
472.46	11.878
472.66	11.773
472.86	10.552
473.06	11.902
473.26	11.665
473.46	11.547
473.66	11.235
473.86	11.885
474.06	11.086
474.26	11.935
474.46	10.979
474.66	11.811
474.86	11.672
475.06	12.270
475.26	11.063
475.46	11.755
475.66	10.931
475.86	11.506
476.06	12.037
476.26	12.058
476.46	11.002
476.66	11.284
476.86	10.690
477.06	11.760
477.26	11.152
477.46	11.375
477.65	11.771
477.85	11.789
478.05	10.884
478.25	12.007
478.45	11.463
478.65	11.731
478.85	11.326
479.05	11.937
479.25	11.646
479.45	11.992
479.65	11.293
479.85	11.889
480.05	11.530
480.25	11.945
480.45	11.679
480.65	11.993
480.85	11.674
481.05	11.910
481.25	11.856
481.44	11.969
481.64	10.897
481.84	12.073
482.04	11.539
482.24	11.624
482.44	11.024
482.64	11.476
482.84	11.549
483.04	11.726
483.24	11.156
483.44	11.291
483.64	10.797
483.84	11.172
484.04	11.007
484.23	11.733
484.43	11.572
484.63	12.294
484.83	12.482
485.03	13.217
485.23	12.855
485.43	13.234
485.63	12.527
485.83	12.884
486.03	12.352
486.23	12.849
486.42	12.323
486.62	12.451
486.82	11.997
487.02	12.236
487.22	11.641
487.42	12.200
487.62	11.708
487.82	11.780
488.02	11.533
488.22	12.061
488.41	11.942
488.61	12.199
488.81	11.985
489.01	12.415
489.21	12.261
489.41	12.662
489.61	12.504
489.81	12.991
490.01	12.895
490.20	12.935
490.40	12.736
490.60	13.143
490.80	12.789
491.00	13.155
491.20	12.575
491.40	12.794
491.60	12.423
491.79	12.748
491.99	12.592
492.19	12.668
492.39	12.676
492.59	12.880
492.79	12.710
492.99	13.513
493.19	13.372
493.38	13.933
493.58	13.951
493.78	14.538
493.98	14.449
494.18	15.056
494.38	15.097
494.58	15.553
494.77	15.425
494.97	15.664
495.17	15.644
495.37	16.179
495.57	16.623
495.77	16.911
495.96	16.585
496.16	17.421
496.36	17.092
496.56	17.426
496.76	16.814
496.96	17.021
497.15	17.349
497.35	17.214
497.55	17.122
497.75	17.668
497.95	17.469
498.15	17.799
498.34	18.026
498.54	17.987
498.74	18.358
498.94	18.727
499.14	18.874
499.34	19.327
499.53	19.035
499.73	19.525
499.93	19.155
500.13	20.222
500.33	20.005
500.52	20.499
500.72	20.220
500.92	20.612
501.12	20.831
501.32	21.205
501.52	21.677
501.71	21.657
501.91	21.936
502.11	22.262
502.31	21.829
502.51	22.019
502.70	22.312
502.90	22.272
503.10	22.256
503.30	22.606
503.50	22.616
503.69	22.639
503.89	22.783
504.09	22.782
504.29	22.042
504.48	22.507
504.68	22.549
504.88	22.540
505.08	22.080
505.28	22.338
505.47	22.284
505.67	22.391
505.87	22.112
506.07	22.514
506.27	22.215
506.46	22.942
506.66	22.435
506.86	23.117
507.06	22.841
507.25	22.739
507.45	22.125
507.65	22.473
507.85	22.034
508.04	22.001
508.24	21.710
508.44	21.747
508.64	21.349
508.83	21.178
509.03	20.993
509.23	21.106
509.43	21.019
509.63	21.035
509.82	20.760
510.02	20.637
510.22	20.366
510.42	20.448
510.61	20.795
510.81	20.661
511.01	21.106
511.21	20.809
511.40	20.237
511.60	20.707
511.80	20.464
511.99	20.545
512.19	20.005
512.39	20.946
512.59	20.198
512.78	20.327
512.98	20.480
513.18	20.714
513.38	20.062
513.57	20.728
513.77	20.447
513.97	20.279
514.17	20.958
514.36	20.590
514.56	20.464
514.76	20.446
514.95	20.255
515.15	20.934
515.35	19.989
515.55	20.474
515.74	20.699
515.94	20.094
516.14	20.124
516.33	21.046
516.53	20.295
516.73	20.669
516.93	19.770
517.12	20.352
517.32	19.549
517.52	20.315
517.71	19.335
517.91	19.567
518.11	19.148
518.30	19.280
518.50	18.507
518.70	19.087
518.90	18.408
519.09	18.588
519.29	18.397
519.49	18.697
519.68	18.564
519.88	19.185
520.08	18.851
520.27	19.012
520.47	18.916
520.67	19.366
520.86	19.476
521.06	19.473
521.26	19.292
521.45	19.575
521.65	19.607
521.85	19.703
522.04	19.645
522.24	20.309
522.44	18.944
522.63	19.604
522.83	19.581
523.03	19.627
523.22	19.427
523.42	19.614
523.62	19.865
523.81	19.567
524.01	19.203
524.21	19.556
524.40	19.066
524.60	19.447
524.80	18.982
524.99	18.978
525.19	18.514
525.39	18.743
525.58	18.343
525.78	18.464
525.98	18.150
526.17	18.508
526.37	18.184
526.57	18.351
526.76	18.384
526.96	18.277
527.15	18.076
527.35	18.198
527.55	17.843
527.74	18.171
527.94	17.578
528.14	17.623
528.33	16.883
528.53	16.964
528.72	16.969
528.92	17.434
529.12	16.944
529.31	17.415
529.51	17.252
529.71	17.696
529.90	17.631
530.10	18.168
530.29	17.860
530.49	18.501
530.69	18.055
530.88	18.462
531.08	18.187
531.28	18.684
531.47	18.130
531.67	18.585
531.86	18.042
532.06	18.371
532.26	18.069
532.45	18.356
532.65	18.120
532.84	17.959
533.04	17.193
533.24	17.499
533.43	17.472
533.63	18.197
533.82	17.668
534.02	18.138
534.22	17.714
534.41	18.194
534.61	18.027
534.80	18.413
535.00	18.320
535.19	18.831
535.39	18.730
535.59	18.988
535.78	18.610
535.98	18.889
536.17	18.144
536.37	18.966
536.57	18.213
536.76	18.467
536.96	17.971
537.15	18.763
537.35	18.456
537.54	18.652
537.74	18.464
537.93	18.803
538.13	18.319
538.33	18.922
538.52	19.194
538.72	19.375
538.91	19.288
539.11	19.440
539.30	19.263
539.50	18.976
539.70	19.373
539.89	19.691
540.09	19.189
540.28	18.921
540.48	18.686
540.67	18.657
540.87	17.838
541.06	17.774
541.26	17.635
541.45	18.088
541.65	17.694
541.85	18.073
542.04	17.736
542.24	18.149
542.43	17.873
542.63	18.601
542.82	18.167
543.02	18.693
543.21	18.369
543.41	18.979
543.60	18.863
543.80	18.950
543.99	18.513
544.19	18.970
544.38	18.895
544.58	18.701
544.77	18.425
544.97	19.120
545.16	19.045
545.36	19.073
545.56	18.658
545.75	19.275
545.95	18.971
546.14	18.940
546.34	18.596
546.53	18.886
546.73	18.295
546.92	18.811
547.12	18.480
547.31	18.975
547.51	18.613
547.70	18.946
547.90	18.979
548.09	18.887
548.29	19.020
548.48	19.329
548.68	19.443
548.87	19.999
549.07	19.538
549.26	19.767
549.46	19.782
549.65	20.331
549.84	19.824
550.04	20.052
550.23	19.383
550.43	20.324
550.62	19.990
550.82	19.501
551.01	19.491
551.21	19.775
551.40	20.088
551.60	19.640
551.79	19.715
551.99	19.739
552.18	19.497
552.38	19.431
552.57	19.468
552.77	19.872
552.96	19.755
553.16	19.729
553.35	20.215
553.54	19.735
553.74	19.658
553.93	19.862
554.13	19.816
554.32	19.854
554.52	20.026
554.71	19.606
554.91	19.661
555.10	20.081
555.29	19.782
555.49	20.249
555.68	19.856
555.88	20.387
556.07	19.182
556.27	20.301
556.46	19.671
556.66	19.920
556.85	20.176
557.04	20.659
557.24	19.437
557.43	20.636
557.63	19.676
557.82	19.876
558.02	20.246
558.21	20.561
558.40	19.774
558.60	19.480
558.79	19.732
558.99	20.322
559.18	19.838
559.38	20.708
559.57	20.421
559.76	20.676
559.96	20.237
560.15	20.483
560.35	19.834
560.54	20.091
560.73	19.336
560.93	20.812
561.12	19.756
561.32	20.340
561.51	20.277
561.70	20.549
561.90	19.970
562.09	20.633
562.29	20.068
562.48	20.796
562.67	20.184
562.87	21.014
563.06	19.942
563.26	20.907
563.45	20.244
563.64	20.881
563.84	20.260
564.03	21.058
564.23	20.460
564.42	21.322
564.61	20.479
564.81	20.997
565.00	20.215
565.20	21.242
565.39	20.774
565.58	20.670
565.78	20.337
565.97	20.984
566.16	20.519
566.36	20.668
566.55	20.553
566.74	20.449
566.94	20.386
567.13	20.842
567.33	20.873
567.52	21.330
567.71	20.768
567.91	21.016
568.10	21.098
568.29	21.180
568.49	21.142
568.68	21.344
568.87	20.838
569.07	21.032
569.26	21.312
569.45	21.891
569.65	20.843
569.84	21.334
570.04	21.015
570.23	21.224
570.42	20.895
570.62	21.217
570.81	21.281
571.00	21.077
571.20	21.234
571.39	21.101
571.58	20.946
571.78	20.982
571.97	21.298
572.16	20.870
572.36	21.407
572.55	21.357
572.74	20.863
572.94	21.650
573.13	21.343
573.32	21.343
573.51	21.024
573.71	21.610
573.90	21.334
574.09	21.417
574.29	21.204
574.48	21.667
574.67	21.223
574.87	21.207
575.06	20.644
575.25	21.343
575.45	21.646
575.64	21.513
575.83	20.930
576.03	22.236
576.22	21.131
576.41	21.807
576.60	20.887
576.80	21.234
576.99	21.736
577.18	21.813
577.38	21.508
577.57	22.097
577.76	22.029
577.95	21.966
578.15	21.157
578.34	21.672
578.53	21.317
578.73	21.642
578.92	21.615
579.11	21.772
579.30	21.528
579.50	22.442
579.69	21.538
579.88	21.440
580.08	21.265
580.27	21.600
580.46	21.490
580.65	22.019
580.85	21.870
581.04	22.090
581.23	20.832
581.42	21.551
581.62	21.121
581.81	21.726
582.00	21.017
582.19	21.953
582.39	21.513
582.58	22.011
582.77	22.295
582.96	21.434
583.16	20.608
583.35	22.174
583.54	21.522
583.73	22.214
583.93	21.716
584.12	21.906
584.31	20.945
584.50	21.846
584.70	21.359
584.89	21.559
585.08	21.184
585.27	21.600
585.47	21.366
585.66	22.172
585.85	21.284
586.04	21.508
586.24	21.450
586.43	20.928
586.62	21.105
586.81	21.355
587.00	21.013
587.20	21.802
587.39	20.589
587.58	21.940
587.77	20.722
587.97	20.577
588.16	21.482
588.35	21.611
588.54	20.890
588.73	21.141
588.93	21.083
589.12	21.494
589.31	21.157
589.50	21.610
589.69	21.675
589.89	21.054
590.08	20.407
590.27	21.254
590.46	21.176
590.65	21.051
590.85	20.783
591.04	21.265
591.23	20.820
591.42	21.272
591.61	20.976
591.81	21.254
592.00	20.955
592.19	20.801
592.38	20.539
592.57	21.324
592.77	21.207
592.96	21.417
593.15	21.541
593.34	21.169
593.53	20.690
593.72	21.286
593.92	20.475
594.11	21.734
594.30	20.786
594.49	21.458
594.68	21.339
594.87	21.196
595.07	20.248
595.26	21.131
595.45	20.200
595.64	21.007
595.83	20.417
596.02	21.035
596.22	21.241
596.41	20.732
596.60	20.457
596.79	21.495
596.98	20.874
597.17	21.458
597.37	20.479
597.56	20.876
597.75	21.233
597.94	21.159
598.13	21.192
598.32	21.543
598.51	21.827
598.71	21.699
598.90	20.903
599.09	21.588
599.28	21.197
599.47	21.775
599.66	21.353
599.85	20.954
600.05	21.198
600.24	21.726
600.43	20.806
600.62	21.720
600.81	20.987
601.00	21.661
601.19	20.247
601.38	21.394
601.58	20.787
601.77	20.962
601.96	20.519
602.15	21.736
602.34	21.670
602.53	21.550
602.72	20.972
602.91	21.289
603.10	21.031
603.30	21.856
603.49	20.644
603.68	21.661
603.87	20.889
604.06	20.824
604.25	21.175
604.44	21.549
604.63	21.060
604.82	21.464
605.01	21.044
605.21	21.527
605.40	21.127
605.59	21.785
605.78	21.032
605.97	21.316
606.16	21.550
606.35	21.786
606.54	21.652
606.73	22.289
606.92	21.347
607.11	21.923
607.30	20.558
607.50	21.534
607.69	21.065
607.88	22.038
608.07	21.502
608.26	21.921
608.45	20.536
608.64	21.311
608.83	20.216
609.02	21.182
609.21	21.093
609.40	21.140
609.59	20.877
609.78	20.678
609.97	20.941
610.16	21.643
610.35	20.606
610.55	21.340
610.74	21.150
610.93	20.910
611.12	21.220
611.31	21.134
611.50	20.870
611.69	21.653
611.88	20.553
612.07	21.711
612.26	20.632
612.45	21.023
612.64	20.776
612.83	21.212
613.02	20.977
613.21	20.757
613.40	20.482
613.59	21.363
613.78	19.835
613.97	20.688
614.16	20.083
614.35	21.462
614.54	19.626
614.73	19.955
614.92	19.703
615.11	20.678
615.30	20.225
615.49	19.826
615.68	20.064
615.87	20.514
616.07	19.508
616.26	19.404
616.45	20.166
616.64	20.154
616.83	19.277
617.02	20.649
617.21	18.386
617.40	19.923
617.59	20.211
617.78	19.228
617.97	18.775
618.16	20.314
618.35	18.197
618.54	19.800
618.73	19.185
618.92	19.876
619.11	19.369
619.30	20.285
619.49	18.806
619.68	20.102
619.86	18.986
620.05	20.091
620.24	19.555
620.43	19.777
620.62	18.285
620.81	19.668
621.00	20.217
621.19	20.435
621.38	20.679
621.57	20.258
621.76	18.997
621.95	20.115
622.14	18.861
622.33	19.722
622.52	18.873
622.71	19.797
622.90	19.054
623.09	19.996
623.28	19.783
623.47	20.352
623.66	19.928
623.85	19.656
624.04	18.788
624.23	19.443
624.42	18.461
624.61	18.756
624.80	18.460
624.99	20.428
625.18	18.008
625.36	19.508
625.55	19.583
625.74	18.993
625.93	18.005
626.12	19.564
626.31	18.887
626.50	20.210
626.69	19.361
626.88	19.922
627.07	19.463
627.26	19.572
627.45	19.569
627.64	19.472
627.83	19.319
628.02	20.002
628.20	19.144
628.39	19.451
628.58	19.238
628.77	20.046
628.96	19.280
629.15	19.686
629.34	19.815
629.53	19.467
629.72	18.849
629.91	20.438
630.10	18.885
630.29	20.341
630.47	18.867
630.66	19.711
630.85	19.010
631.04	19.522
631.23	18.291
631.42	18.980
631.61	19.178
631.80	19.286
631.99	19.077
632.18	19.487
632.36	17.956
632.55	20.016
632.74	18.889
632.93	18.323
633.12	19.212
633.31	18.815
633.50	18.397
633.69	19.747
633.88	18.604
634.06	19.409
634.25	18.560
634.44	19.883
634.63	18.571
634.82	20.222
635.01	19.238
635.20	19.037
635.39	18.877
635.57	19.504
635.76	18.553
635.95	19.018
636.14	18.834
636.33	19.852
636.52	18.529
636.71	18.732
636.89	17.855
637.08	19.322
637.27	17.809
637.46	18.354
637.65	18.265
637.84	18.716
638.03	17.873
638.21	19.192
638.40	18.808
638.59	18.893
638.78	18.447
638.97	19.021
639.16	18.245
639.34	18.811
639.53	16.675
639.72	19.444
639.91	18.638
640.10	17.598
640.29	18.251
640.47	19.648
640.66	18.075
640.85	19.371
641.04	16.409
641.23	18.684
641.42	17.920
641.60	18.865
641.79	18.203
641.98	17.912
642.17	17.953
642.36	19.002
642.54	17.222
642.73	18.107
642.92	17.169
643.11	17.784
643.30	16.703
643.49	17.411
643.67	15.831
643.86	17.280
644.05	17.067
644.24	17.982
644.43	17.531
644.61	18.571
644.80	17.679
644.99	17.505
645.18	17.679
645.37	17.036
645.55	17.174
645.74	18.534
645.93	17.543
646.12	18.223
646.31	18.287
646.49	17.841
646.68	17.560
646.87	16.904
647.06	17.227
647.24	17.814
647.43	16.654
647.62	18.292
647.81	16.283
648.00	18.329
648.18	15.376
648.37	17.411
648.56	17.070
648.75	16.767
648.93	16.241
649.12	18.131
649.31	17.717
649.50	17.514
649.68	16.894
649.87	17.408
650.06	15.913
650.25	17.870
650.43	16.191
650.62	16.895
650.81	16.253
651.00	17.812
651.18	16.825
651.37	18.044
651.56	15.546
651.75	17.939
651.93	16.207
652.12	17.694
652.31	15.658
652.50	17.082
652.68	16.943
652.87	18.378
653.06	17.090
653.25	18.033
653.43	15.904
653.62	16.939
653.81	16.724
654.00	17.358
654.18	16.022
654.37	18.122
654.56	15.663
654.74	16.102
654.93	16.287
655.12	16.801
655.31	16.721
655.49	17.576
655.68	14.185
655.87	15.904
656.05	14.609
656.24	16.888
656.43	15.472
656.62	16.202
656.80	15.601
656.99	16.256
657.18	15.075
657.36	16.152
657.55	16.343
657.74	16.532
657.93	17.287
658.11	17.427
658.30	15.556
658.49	15.229
658.67	15.495
658.86	15.615
659.05	14.953
659.23	16.172
659.42	15.466
659.61	16.788
659.79	16.058
659.98	17.070
660.17	16.726
660.35	16.708
660.54	17.640
660.73	17.618
660.91	16.472
661.10	17.471
661.29	15.098
661.47	16.019
661.66	15.672
661.85	16.119
662.03	14.640
662.22	15.351
662.41	14.362
662.59	15.477
662.78	13.746
662.97	14.853
663.15	13.455
663.34	14.647
663.53	12.480
663.71	15.137
663.90	13.073
664.09	14.277
664.27	14.196
664.46	15.228
664.65	12.968
664.83	13.999
665.02	13.223
665.21	12.681
665.39	11.823
665.58	14.745
665.77	12.957
665.95	14.337
666.14	12.460
666.32	14.050
666.51	11.583
666.70	11.864
666.88	11.220
667.07	11.895
667.26	10.727
667.44	12.656
667.63	11.430
667.81	12.802
668.00	12.078
668.19	15.395
668.37	12.399
668.56	13.189
668.75	9.683
668.93	14.535
669.12	11.221
669.30	12.728
669.49	10.653
669.68	13.166
669.86	14.122
670.05	11.022
670.23	11.137
670.42	12.347
670.61	12.931
670.79	13.997
670.98	11.944
671.16	13.899
671.35	11.485
671.54	12.476
671.72	11.530
671.91	12.737
672.09	11.690
672.28	13.453
672.46	13.036
672.65	13.793
672.84	13.069
673.02	13.994
673.21	10.631
673.39	11.990
673.58	13.456
673.77	13.974
673.95	12.106
674.14	13.728
674.32	11.645
674.51	14.081
674.69	11.778
674.88	13.900
675.07	11.753
675.25	14.568
675.44	11.571
675.62	12.683
675.81	11.371
675.99	16.509
676.18	13.547
676.36	11.991
676.55	13.154
676.74	14.388
676.92	13.620
677.11	14.563
677.29	12.660
677.48	13.655
677.66	13.733
677.85	12.898
678.03	13.637
678.22	14.652
678.40	14.463
678.59	12.661
678.78	12.272
678.96	11.945
679.15	13.360
679.33	15.007
679.52	14.206
679.70	13.458
679.89	13.121
680.07	14.815
680.26	11.961
680.44	14.184
680.63	14.184
680.81	14.964
681.00	12.071
681.18	14.084
681.37	14.660
681.55	15.546
681.74	15.126
681.92	16.225
682.11	14.842
682.29	15.134
682.48	14.900
682.66	15.520
682.85	14.674
683.03	14.831
683.22	15.607
683.40	17.807
683.59	15.442
683.77	17.153
683.96	14.797
684.14	17.178
684.33	14.462
684.51	18.913
684.70	15.273
684.88	17.858
685.07	15.582
685.25	17.155
685.44	15.316
685.62	16.209
685.81	14.595
685.99	18.127
686.18	14.769
686.36	18.111
686.55	14.034
686.73	15.517
686.92	17.935
687.10	17.222
687.29	17.738
687.47	18.947
687.65	19.044
687.84	17.121
688.02	19.572
688.21	19.940
688.39	17.875
688.58	19.816
688.76	18.135
688.95	17.914
689.13	16.710
689.32	20.620
689.50	19.112
689.68	18.851
689.87	17.771
690.05	20.786
690.24	20.446
690.42	20.645
690.61	20.435
690.79	21.920
690.98	20.182
691.16	19.971
691.34	19.206
691.53	20.246
691.71	19.645
691.90	21.416
692.08	17.099
692.27	21.066
692.45	20.882
692.63	20.792
692.82	21.481
693.00	19.934
693.19	19.958
693.37	22.968
693.56	21.048
693.74	22.582
693.92	20.750
694.11	23.240
694.29	22.452
694.48	23.759
694.66	20.935
694.84	24.204
695.03	21.043
695.21	23.108
695.40	24.537
695.58	26.001
695.76	22.366
695.95	23.579
696.13	21.685
696.32	24.234
696.50	26.973
696.68	24.328
696.87	22.922
697.05	24.135
697.24	24.285
697.42	25.382
697.60	24.679
697.79	25.953
697.97	24.412
698.16	27.229
698.34	23.565
698.52	26.385
698.71	23.891
698.89	25.607
699.07	25.828
699.26	26.872
699.44	26.086
699.63	26.379
699.81	25.225
699.99	27.334
700.18	27.431
700.36	25.884
700.54	27.941
700.73	26.481
700.91	25.151
701.09	27.330
701.28	27.568
701.46	27.444
701.64	25.045
701.83	26.911
702.01	24.250
702.20	29.184
702.38	27.250
702.56	26.863
702.75	26.212
702.93	25.246
703.11	26.843
703.30	26.172
703.48	27.315
703.66	28.027
703.85	26.710
704.03	29.423
704.21	26.520
704.40	28.923
704.58	23.970
704.76	29.594
704.95	25.485
705.13	28.889
705.31	27.220
705.50	30.493
705.68	26.826
705.86	28.868
706.04	27.676
706.23	29.836
706.41	28.173
706.59	28.324
706.78	27.696
706.96	30.160
707.14	28.969
707.33	29.134
707.51	27.326
707.69	28.897
707.88	26.688
708.06	29.657
708.24	27.241
708.42	29.603
708.61	26.717
708.79	29.267
708.97	29.068
709.16	28.704
709.34	30.175
709.52	30.807
709.71	28.179
709.89	28.746
710.07	27.730
710.25	30.013
710.44	28.565
710.62	28.192
710.80	29.386
710.98	30.552
711.17	29.593
711.35	30.964
711.53	26.690
711.72	30.152
711.90	31.165
712.08	29.794
712.26	28.144
712.45	28.683
712.63	30.201
712.81	30.855
712.99	28.368
713.18	31.284
713.36	29.561
713.54	29.152
713.72	28.767
713.91	29.374
714.09	27.475
714.27	30.739
714.45	30.195
714.64	31.356
714.82	29.181
715.00	30.435
715.18	28.194
715.37	31.169
715.55	28.975
715.73	30.512
715.91	30.569
716.10	30.230
716.28	26.047
716.46	31.857
716.64	26.723
716.83	28.424
717.01	27.983
717.19	29.952
717.37	29.483
717.55	30.859
717.74	29.137
717.92	30.319
718.10	26.228
718.28	29.940
718.47	26.904
718.65	30.695
718.83	28.543
719.01	31.835
719.19	30.182
719.38	30.413
719.56	29.395
719.74	27.199
719.92	25.116
720.10	28.743
720.29	27.856
720.47	31.815
720.65	29.025
720.83	31.352
721.01	26.550
721.20	29.718
721.38	28.641
721.56	28.932
721.74	29.565
721.92	28.723
722.11	27.017
722.29	29.629
722.47	28.784
722.65	29.675
722.83	29.283
723.01	30.303
723.20	29.941
723.38	30.405
723.56	27.376
723.74	31.044
723.92	28.277
724.10	31.577
724.29	26.335
724.47	31.940
724.65	28.578
724.83	31.580
725.01	28.900
725.19	30.408
725.38	27.582
725.56	30.222
725.74	29.014
725.92	30.689
726.10	27.377
726.28	31.089
726.46	28.645
726.65	31.187
726.83	28.146
727.01	30.543
727.19	30.257
727.37	30.078
727.55	29.353
727.73	31.325
727.92	30.283
728.10	30.737
728.28	28.518
728.46	32.974
728.64	28.443
728.82	30.956
729.00	29.589
729.19	30.325
729.37	30.053
729.55	32.251
729.73	27.598
729.91	30.971
730.09	29.613
730.27	31.615
730.45	28.875
730.63	31.000
730.82	28.979
731.00	31.316
731.18	28.751
731.36	31.178
731.54	26.197
731.72	31.443
731.90	27.205
732.08	31.444
732.26	26.630
732.45	32.204
732.63	31.400
732.81	31.650
732.99	30.967
733.17	30.988
733.35	29.284
733.53	33.333
733.71	29.116
733.89	29.531
734.07	29.093
734.25	32.284
734.44	31.052
734.62	31.323
734.80	27.399
734.98	32.293
735.16	32.157
735.34	32.392
735.52	32.393
735.70	32.507
735.88	29.865
736.06	30.986
736.24	34.856
736.42	35.379
736.60	31.332
736.78	33.453
736.97	29.483
737.15	35.376
737.33	29.846
737.51	32.632
737.69	31.167
737.87	33.019
738.05	33.233
738.23	31.593
738.41	32.837
738.59	33.456
738.77	28.960
738.95	35.011
739.13	32.294
739.31	33.738
739.49	30.289
739.67	34.392
739.85	30.377
740.03	34.250
740.21	33.969
740.39	35.351
740.57	33.083
740.75	33.407
740.93	31.629
741.11	35.294
741.30	32.149
741.48	33.685
741.66	35.106
741.84	31.669
742.02	30.058
742.20	35.676
742.38	30.172
742.56	35.414
742.74	28.532
742.92	31.419
743.10	33.877
743.28	33.352
743.46	34.007
743.64	31.447
743.82	30.394
744.00	34.569
744.18	31.916
744.36	33.781
744.54	31.004
744.72	36.797
744.90	37.167
745.08	35.278
745.26	34.008
745.44	37.328
745.62	30.810
745.80	32.941
745.98	34.607
746.16	34.773
746.34	32.853
746.52	35.366
746.70	31.220
746.87	33.960
747.05	32.792
747.23	35.393
747.41	31.951
747.59	35.554
747.77	32.135
747.95	33.219
748.13	33.250
748.31	35.053
748.49	33.655
748.67	35.666
748.85	33.650
749.03	35.159
749.21	31.669
749.39	36.940
749.57	31.061
749.75	30.790
749.93	31.200
750.11	34.191
750.29	34.064
750.47	35.473
750.65	31.716
750.83	32.268
751.01	27.652
751.18	35.893
751.36	29.688
751.54	31.722
751.72	32.715
751.90	32.438
752.08	29.556
752.26	32.095
752.44	32.871
752.62	33.736
752.80	32.666
752.98	34.202
753.16	32.744
753.34	33.333
753.52	35.352
753.69	32.245
753.87	33.856
754.05	33.242
754.23	30.141
754.41	35.251
754.59	31.127
754.77	32.543
754.95	31.662
755.13	33.482
755.31	34.124
755.49	31.882
755.66	30.927
755.84	35.032
756.02	33.097
756.20	34.154
756.38	32.099
756.56	34.101
756.74	31.317
756.92	32.731
757.10	30.440
757.28	35.036
757.45	39.002
757.63	35.396
757.81	33.290
757.99	36.902
758.17	33.290
758.35	36.814
758.53	37.853
758.71	34.860
758.88	30.888
759.06	34.533
759.24	29.586
759.42	31.695
759.60	27.806
759.78	33.651
759.96	29.118
760.13	31.800
760.31	26.925
760.49	27.121
760.67	25.373
760.85	27.651
761.03	25.915
761.21	27.165
761.38	25.227
761.56	27.048
761.74	26.564
761.92	28.515
762.10	24.150
762.28	30.363
762.46	23.918
762.63	23.872
762.81	26.059
762.99	24.777
763.17	27.060
763.35	26.048
763.53	24.753
763.70	29.363
763.88	30.459
764.06	28.634
764.24	28.041
764.42	28.634
764.60	29.565
764.77	27.892
764.95	27.958
765.13	29.969
765.31	27.354
765.49	30.809
765.66	27.070
765.84	30.145
766.02	29.808
766.20	31.649
766.38	27.869
766.56	32.289
766.73	28.813
766.91	30.446
767.09	30.261
767.27	31.987
767.45	28.801
767.62	31.836
767.80	26.058
767.98	34.103
768.16	28.833
768.33	33.153
768.51	31.388
768.69	32.430
768.87	34.459
769.05	30.599
769.22	31.173
769.40	34.944
769.58	32.206
769.76	37.319
769.94	32.237
770.11	33.743
770.29	31.300
770.47	34.752
770.65	34.545
770.82	33.517
771.00	29.760
771.18	35.341
771.36	32.589
771.53	35.033
771.71	31.413
771.89	34.420
772.07	34.038
772.25	34.639
772.42	34.522
772.60	33.903
772.78	34.297
772.96	34.188
773.13	36.667
773.31	32.217
773.49	31.011
773.67	35.054
773.84	36.512
774.02	36.819
774.20	33.116
774.37	37.289
774.55	31.490
774.73	38.944
774.91	37.717
775.08	38.735
775.26	34.735
775.44	36.174
775.62	34.267
775.79	33.935
775.97	30.397
776.15	34.346
776.32	31.602
776.50	41.037
776.68	35.819
776.86	36.372
777.03	34.703
777.21	39.658
777.39	34.489
777.56	40.669
777.74	36.082
777.92	39.961
778.10	31.742
778.27	35.571
778.45	31.838
778.63	37.506
778.80	32.957
778.98	38.966
779.16	34.021
779.34	33.898
779.51	32.104
779.69	39.846
779.87	37.204
780.04	34.467
780.22	36.454
780.40	35.407
780.57	34.697
780.75	32.927
780.93	38.379
781.10	35.753
781.28	44.444
781.46	36.873
781.63	37.321
781.81	40.960
781.99	36.006
782.16	34.804
782.34	31.385
782.52	34.540
782.69	39.171
782.87	32.917
783.05	36.267
783.22	39.724
783.40	32.392
783.58	34.654
783.75	35.565
783.93	39.905
784.11	42.339
784.28	39.180
784.46	34.707
784.64	37.049
784.81	36.658
784.99	40.826
785.17	38.273
785.34	34.364
785.52	32.515
785.69	34.572
785.87	30.736
786.05	33.810
786.22	41.276
786.40	43.905
786.58	34.915
786.75	41.044
786.93	32.635
787.11	34.574
787.28	34.700
787.46	36.740
787.63	32.616
787.81	35.112
787.99	37.891
788.16	35.561
788.34	30.541
788.51	30.608
788.69	30.723
788.87	28.434
789.04	33.236
789.22	33.579
789.39	33.428
789.57	34.205
789.75	28.578
789.92	37.636
790.10	35.800
790.27	34.793
790.45	30.636
790.63	34.851
790.80	29.500
790.98	30.746
791.15	33.886
791.33	37.314
791.51	33.959
791.68	35.576
791.86	33.604
792.03	34.574
792.21	32.715
792.39	38.093
792.56	36.600
792.74	39.461
792.91	37.471
793.09	33.176
793.26	37.173
793.44	37.470
793.62	29.380
793.79	39.039
793.97	38.704
794.14	34.550
794.32	35.718
794.49	34.017
794.67	30.976
794.84	31.515
795.02	35.220
795.20	38.749
795.37	35.605
795.55	39.717
795.72	39.054
795.90	33.818
796.07	38.070
796.25	36.339
796.42	34.466
796.60	35.865
796.77	30.799
796.95	31.576
797.13	27.472
797.30	38.827
797.48	27.979
797.65	38.288
797.83	37.752
798.00	34.761
798.18	28.957
798.35	38.520
798.53	31.027
798.70	34.169
798.88	36.495
799.05	32.117
799.23	29.902
799.40	35.631
799.58	35.268
799.75	33.956
799.93	33.433
800.10	33.488
800.28	34.772
800.45	37.803
800.63	32.074
800.80	38.607
800.98	37.537
801.15	34.667
801.33	33.354
801.50	35.601
801.68	31.762
801.85	36.269
802.03	33.477
802.20	30.030
802.38	31.713
802.55	34.551
802.73	38.059
802.90	35.634
803.08	33.202
803.25	36.774
803.43	34.686
803.60	40.303
803.78	39.958
803.95	34.950
804.13	36.415
804.30	40.234
804.48	34.074
804.65	41.331
804.83	34.742
805.00	33.155
805.17	39.467
805.35	32.472
805.52	31.196
805.70	40.201
805.87	35.310
806.05	41.089
806.22	36.906
806.40	31.142
806.57	35.940
806.75	34.110
806.92	34.914
807.09	32.494
807.27	31.032
807.44	36.072
807.62	37.027
807.79	35.503
807.97	32.742
808.14	33.926
808.31	36.410
808.49	35.847
808.66	36.962
808.84	31.371
809.01	38.099
809.19	33.811
809.36	43.418
809.53	35.315
809.71	33.765
809.88	42.581
810.06	40.996
810.23	31.484
810.41	42.847
810.58	44.581
810.75	38.806
810.93	31.771
811.10	39.416
811.28	34.850
811.45	39.572
811.62	35.880
811.80	35.991
811.97	42.214
812.15	43.570
812.32	32.558
812.49	43.396
812.67	34.353
812.84	34.763
813.02	34.036
813.19	31.853
813.36	36.683
813.54	35.568
813.71	36.464
813.89	37.287
814.06	41.168
814.23	41.713
814.41	38.518
814.58	42.290
814.75	41.474
814.93	38.816
815.10	35.470
815.28	38.668
815.45	28.922
815.62	39.214
815.80	36.318
815.97	36.882
816.14	36.216
816.32	43.719
816.49	38.038
816.66	39.305
816.84	32.248
817.01	42.488
817.18	37.540
817.36	36.153
817.53	38.313
817.71	33.253
817.88	39.526
818.05	35.843
818.23	37.353
818.40	39.441
818.57	33.282
818.75	34.246
818.92	32.743
819.09	32.880
819.27	40.091
819.44	38.115
819.61	29.424
819.79	34.341
819.96	38.015
820.13	33.225
820.31	32.604
820.48	32.877
820.65	33.040
820.82	31.199
821.00	30.757
821.17	25.442
821.34	29.547
821.52	29.039
821.69	29.514
821.86	26.107
822.04	26.759
822.21	27.308
822.38	30.559
822.56	25.552
822.73	29.750
822.90	27.961
823.07	30.360
823.25	29.828
823.42	29.651
823.59	28.780
823.77	28.912
823.94	28.615
824.11	29.354
824.29	27.056
824.46	29.549
824.63	28.052
824.80	26.973
824.98	27.116
825.15	28.557
825.32	22.797
825.49	27.399
825.67	25.539
825.84	28.525
826.01	25.636
826.19	28.504
826.36	24.303
826.53	29.396
826.70	23.200
826.88	28.512
827.05	25.672
827.22	26.835
827.39	27.576
827.57	26.257
827.74	23.234
827.91	28.972
828.08	26.524
828.26	28.082
828.43	24.736
828.60	28.440
828.77	27.333
828.95	26.517
829.12	23.801
829.29	22.974
829.46	24.430
829.64	27.049
829.81	23.503
829.98	28.582
830.15	26.955
830.32	27.320
830.50	26.723
830.67	30.983
830.84	31.300
831.01	28.013
831.19	28.546
831.36	29.680
831.53	30.388
831.70	33.469
831.87	32.933
832.05	32.959
832.22	43.231
832.39	28.066
832.56	31.910
832.74	30.090
832.91	32.805
833.08	36.674
833.25	27.848
833.42	33.333
833.60	29.918
833.77	27.214
833.94	28.901
834.11	25.888
834.28	23.199
834.45	28.266
834.63	25.997
834.80	27.724
834.97	25.459
835.14	24.526
835.31	26.100
835.49	22.348
835.66	23.670
835.83	24.087
836.00	22.069
836.17	23.317
836.34	24.459
836.52	25.919
836.69	28.798
836.86	31.803
837.03	30.011
837.20	29.557
837.37	31.503
837.55	30.397
837.72	29.926
837.89	26.175
838.06	29.393
838.23	38.922
838.40	38.874
838.58	37.467
838.75	37.723
838.92	41.629
839.09	46.116
839.26	41.193
839.43	52.315
839.60	46.545
839.78	56.712
839.95	45.241
840.12	44.551
840.29	51.049
840.46	44.400
840.63	47.984
840.80	43.663
840.98	46.606
841.15	39.279
841.32	48.213
841.49	33.333
841.66	43.636
841.83	35.177
842.00	42.018
842.17	47.182
842.34	43.256
842.52	45.427
842.69	47.950
842.86	48.578
843.03	54.732
843.20	52.265
843.37	50.260
843.54	58.422
843.71	53.884
843.88	58.917
844.06	59.841
844.23	58.284
844.40	58.211
844.57	56.638
844.74	59.002
844.91	61.011
845.08	62.540
845.25	70.172
845.42	65.422
845.59	72.788
845.76	68.354
845.94	76.771
846.11	78.801
846.28	71.971
846.45	82.700
846.62	79.181
846.79	60.927
846.96	64.943
847.13	81.162
847.30	75.398
847.47	69.300
847.64	77.316
847.81	74.151
847.98	87.647
848.15	78.467
848.32	78.557
848.50	83.743
848.67	69.818
848.84	89.805
849.01	59.193
849.18	85.683
849.35	79.303
849.52	80.903
849.69	75.349
849.86	88.363
850.03	78.817
850.20	75.403
850.37	74.898
850.54	89.203
850.71	92.540
850.88	83.501
851.05	78.442
851.22	64.959
851.39	91.684
851.56	66.016
851.73	101.724
851.90	68.192
852.07	77.944
852.24	79.087
852.41	94.931
852.58	107.254
852.75	70.190
852.92	80.440
853.09	90.044
853.26	87.826
853.43	69.343
853.60	84.418
853.77	101.923
853.94	86.928
854.11	101.296
854.28	84.032
854.45	86.996
854.62	84.513
854.79	97.625
854.96	79.953
855.13	79.957
855.30	87.160
855.47	103.495
855.64	76.010
855.81	76.957
855.98	89.485
856.15	86.652
856.32	82.597
856.49	99.467
856.66	86.008
856.83	80.556
857.00	83.511
857.17	84.758
857.34	93.072
857.51	88.222
857.68	98.964
857.85	86.481
858.02	96.256
858.19	93.763
858.36	71.918
858.53	94.090
858.70	96.396
858.87	77.204
859.04	95.475
859.21	91.337
859.38	75.052
859.55	93.824
859.72	99.725
859.89	87.990
860.05	95.914
860.22	103.736
860.39	75.155
860.56	92.935
860.73	76.712
860.90	93.390
861.07	97.590
861.24	75.694
861.41	80.591
861.58	78.842
861.75	107.068
861.92	79.821
862.09	81.696
862.26	106.286
862.43	100.463
862.59	98.630
862.76	86.340
862.93	90.000
863.10	111.811
863.27	101.522
863.44	91.325
863.61	98.214
863.78	88.937
863.95	124.214
864.12	77.101
864.29	97.159
864.45	91.294
864.62	83.816
864.79	73.333
864.96	93.689
865.13	84.047
865.30	89.269
865.47	69.450
865.64	105.610
865.81	85.570
865.97	86.580
866.14	80.042
866.31	76.364
866.48	79.394
866.65	77.899
866.82	93.933
866.99	118.414
867.16	87.010
867.33	102.878
867.49	105.634
867.66	88.971
867.83	121.824
868.00	97.917
868.17	79.318
868.34	98.364
868.51	79.156
868.67	100.552
868.84	89.904
869.01	89.717
869.18	84.127
869.35	103.488
869.52	84.840
869.69	82.426
869.85	71.973
870.02	94.595
870.19	104.835
870.36	83.459
870.53	92.117
870.70	94.299
870.86	72.441
871.03	85.647
871.20	83.979
871.37	101.351
871.54	102.292
871.71	95.174
871.87	100.000
872.04	85.391
872.21	85.586
872.38	92.786
872.55	110.104
872.72	80.726
872.88	73.224
873.05	76.940
873.22	77.859
873.39	86.165
873.56	89.031
873.72	84.035
873.89	79.085
874.06	76.218
874.23	83.753
874.40	90.685
874.56	83.918
874.73	100.247
874.90	73.227
875.07	97.590
875.24	74.702
875.40	85.013
875.57	109.551
875.74	90.750
875.91	82.628
876.08	81.007
876.24	113.514
876.41	66.527
876.58	83.784
876.75	62.278
876.92	82.942
877.08	96.682
877.25	83.368
877.42	86.051
877.59	89.855
877.75	85.185
877.92	74.897
878.09	85.055
878.26	80.453
878.42	110.239
878.59	88.155
878.76	89.091
878.93	93.503
879.09	98.451
879.26	71.250
879.43	102.920
879.60	70.059
879.76	63.773
879.93	73.126
880.10	68.223
880.27	69.281
880.43	59.899
880.60	57.686
880.77	44.665
880.94	53.652
881.10	52.892
881.27	44.444
881.44	34.601
881.61	39.428
881.77	37.430
881.94	26.380
882.11	25.852
882.28	27.465
882.44	21.777
882.61	23.003
882.78	24.536
882.94	29.084
883.11	25.362
883.28	27.008
883.45	26.585
883.61	22.481
883.78	22.685
883.95	28.571
884.11	24.588
884.28	23.706
>>>>>End Processed Spectral Data<<<<<
