SpectraSuite Data File
++++++++++++++++++++++++++++++++++++
Date: Tue Sep 24 03:24:12 EST 2019
User: sgrac
Dark Spectrum Present: Yes
Reference Spectrum Present: Yes
Number of Sampled Component Spectra: 1
Spectrometers: USB4E01596
Integration Time (usec): 100000 (USB4E01596)
Spectra Averaged: 3 (USB4E01596)
Boxcar Smoothing: 0 (USB4E01596)
Correct for Electrical Dark: No (USB4E01596)
Strobe/Lamp Enabled: Yes (USB4E01596)
Correct for Detector Non-linearity: No (USB4E01596)
Correct for Stray Light: No (USB4E01596)
Number of Pixels in Processed Spectrum: 3648
>>>>>Begin Processed Spectral Data<<<<<
178.44	1577.273
178.66	1577.273
178.87	1577.273
179.09	705.660
179.30	475.556
179.52	-1116.667
179.74	616.981
179.95	676.119
180.17	-19550.000
180.38	-10766.667
180.60	493.258
180.82	-3128.571
181.03	935.135
181.25	-1534.783
181.46	573.611
181.68	4544.444
181.89	-1787.500
182.11	628.788
182.33	1222.857
182.54	663.158
182.76	-725.000
182.97	248.447
183.19	875.556
183.40	4411.111
183.62	535.366
183.84	589.333
184.05	741.304
184.27	461.728
184.48	-1911.111
184.70	432.258
184.91	534.211
185.13	678.947
185.34	423.656
185.56	1078.125
185.78	1212.500
185.99	2156.250
186.21	530.000
186.42	852.381
186.64	429.032
186.85	866.667
187.07	-3370.000
187.28	-1811.765
187.50	-37600.000
187.72	35900.000
187.93	-1716.667
188.15	1013.953
188.36	548.649
188.58	654.054
188.79	-5871.429
189.01	-2584.615
189.22	1524.000
189.44	496.512
189.65	583.333
189.87	-5542.857
190.09	1094.118
190.30	1000.000
190.52	1885.714
190.73	5450.000
190.95	918.421
191.16	394.937
191.38	3718.182
191.59	2864.286
191.81	1352.941
192.02	812.766
192.24	646.939
192.45	2188.235
192.67	502.597
192.88	413.265
193.10	621.212
193.31	364.646
193.53	944.737
193.74	-37200.000
193.96	669.014
194.18	369.811
194.39	501.087
194.61	421.296
194.82	376.271
195.04	420.561
195.25	0.000
195.47	-38600.000
195.68	348.000
195.90	484.706
196.11	565.060
196.33	702.326
196.54	356.881
196.76	1057.576
196.97	-3066.667
197.19	479.070
197.40	775.439
197.62	686.792
197.83	333.654
198.05	597.260
198.26	0.000
198.48	-795.556
198.69	1293.333
198.91	5014.286
199.12	-9975.000
199.34	405.556
199.55	-36200.000
199.77	1988.889
199.98	691.549
200.20	312.397
200.41	568.421
200.63	1088.235
200.84	-3176.923
201.06	464.557
201.27	1448.000
201.49	817.021
201.70	409.195
201.91	608.451
202.13	601.493
202.34	-1596.000
202.56	316.901
202.77	5050.000
202.99	5612.500
203.20	589.855
203.42	1051.351
203.63	4387.500
203.85	434.454
204.06	701.923
204.28	382.203
204.49	1021.212
204.71	-796.875
204.92	352.899
205.14	1374.194
205.35	780.952
205.56	441.905
205.78	-832.000
205.99	956.410
206.21	838.596
206.42	501.515
206.64	1300.000
206.85	418.072
207.07	-530.645
207.28	1304.000
207.50	458.696
207.71	812.500
207.93	10900.000
208.14	1036.842
208.35	-2925.000
208.57	-1196.552
208.78	293.007
209.00	1025.000
209.21	427.723
209.43	-5816.667
209.64	231.818
209.86	696.491
210.07	795.238
210.28	1120.690
210.50	6700.000
210.71	974.194
210.93	-2286.667
211.14	563.636
211.36	480.208
211.57	1640.741
211.78	4488.889
212.00	-2205.556
212.21	941.463
212.43	796.429
212.64	468.293
212.86	1595.652
213.07	577.941
213.29	2621.429
213.50	308.730
213.71	508.434
213.93	316.154
214.14	350.427
214.36	470.588
214.57	-3730.000
214.78	1110.256
215.00	372.727
215.21	852.500
215.43	1520.000
215.64	391.667
215.86	371.698
216.07	10550.000
216.28	495.522
216.50	403.922
216.71	1327.586
216.93	-1023.256
217.14	413.131
217.35	589.286
217.57	292.308
217.78	479.032
218.00	389.899
218.21	512.676
218.42	1251.852
218.64	2606.667
218.85	780.357
219.07	300.000
219.28	500.000
219.49	401.835
219.71	567.143
219.92	1084.000
220.14	763.043
220.35	3336.364
220.56	670.732
220.78	954.545
220.99	578.462
221.21	545.946
221.42	414.865
221.63	6650.000
221.85	1371.429
222.06	1337.500
222.28	510.127
222.49	423.656
222.70	376.000
222.92	678.947
223.13	1494.444
223.34	937.500
223.56	303.937
223.77	259.028
223.99	331.111
224.20	215.068
224.41	540.000
224.63	388.776
224.84	261.429
225.05	331.200
225.27	533.333
225.48	353.535
225.69	403.125
225.91	469.880
226.12	252.041
226.34	188.827
226.55	171.915
226.76	211.579
226.98	233.750
227.19	148.529
227.40	163.636
227.62	161.650
227.83	128.729
228.04	122.289
228.26	115.015
228.47	77.849
228.69	75.102
228.90	69.174
229.11	51.565
229.33	43.654
229.54	42.363
229.75	43.560
229.97	44.100
230.18	36.847
230.39	28.873
230.61	29.865
230.82	41.725
231.03	37.085
231.25	44.836
231.46	48.511
231.67	43.257
231.89	53.554
232.10	47.183
232.31	60.095
232.53	60.350
232.74	56.693
232.95	67.350
233.17	57.517
233.38	66.667
233.59	69.462
233.81	67.637
234.02	69.078
234.23	58.537
234.45	72.887
234.66	71.818
234.87	67.597
235.09	58.679
235.30	53.634
235.51	57.118
235.73	51.836
235.94	57.680
236.15	62.063
236.36	56.297
236.58	52.616
236.79	52.997
237.00	52.269
237.22	51.270
237.43	63.545
237.64	62.333
237.86	49.584
238.07	67.963
238.28	60.741
238.50	50.926
238.71	59.098
238.92	49.790
239.13	59.602
239.35	60.735
239.56	52.245
239.77	67.121
239.99	43.758
240.20	47.884
240.41	50.909
240.63	40.926
240.84	42.638
241.05	38.643
241.26	38.311
241.48	33.275
241.69	32.915
241.90	29.457
242.12	21.275
242.33	21.281
242.54	21.538
242.75	17.277
242.97	20.739
243.18	16.696
243.39	17.534
243.61	19.102
243.82	17.111
244.03	16.715
244.24	16.988
244.46	18.222
244.67	20.766
244.88	18.947
245.09	17.836
245.31	20.033
245.52	16.712
245.73	22.532
245.95	31.875
246.16	21.166
246.37	16.648
246.58	18.455
246.80	15.556
247.01	15.051
247.22	12.676
247.43	10.559
247.65	10.279
247.86	8.915
248.07	8.801
248.28	8.175
248.50	7.952
248.71	9.019
248.92	8.433
249.13	8.921
249.35	7.850
249.56	11.515
249.77	10.322
249.98	8.671
250.20	16.305
250.41	13.583
250.62	17.962
250.83	19.356
251.05	18.391
251.26	23.138
251.47	16.104
251.68	20.210
251.90	20.328
252.11	22.468
252.32	21.537
252.53	16.099
252.75	19.719
252.96	16.232
253.17	18.459
253.38	14.829
253.59	17.368
253.81	17.150
254.02	14.604
254.23	18.654
254.44	16.199
254.66	14.521
254.87	18.167
255.08	21.630
255.29	23.556
255.50	23.234
255.72	21.571
255.93	28.508
256.14	28.884
256.35	23.964
256.57	29.609
256.78	22.269
256.99	21.794
257.20	26.273
257.41	27.364
257.63	24.086
257.84	24.925
258.05	22.259
258.26	15.315
258.47	19.460
258.69	14.172
258.90	19.076
259.11	15.345
259.32	12.859
259.53	11.607
259.75	13.428
259.96	7.625
260.17	8.464
260.38	7.467
260.59	7.577
260.81	6.526
261.02	6.671
261.23	5.931
261.44	7.409
261.65	6.598
261.87	6.626
262.08	8.061
262.29	8.207
262.50	9.734
262.71	10.770
262.92	10.355
263.14	10.703
263.35	10.144
263.56	17.666
263.77	13.404
263.98	15.094
264.20	16.850
264.41	15.428
264.62	15.655
264.83	15.165
265.04	19.183
265.25	16.502
265.47	17.466
265.68	15.792
265.89	17.949
266.10	13.628
266.31	16.352
266.52	13.552
266.74	15.716
266.95	11.155
267.16	14.583
267.37	15.390
267.58	13.757
267.79	12.042
268.01	10.688
268.22	11.259
268.43	10.245
268.64	11.134
268.85	11.359
269.06	9.691
269.27	12.037
269.49	13.767
269.70	12.160
269.91	10.750
270.12	11.437
270.33	13.314
270.54	12.873
270.75	10.386
270.97	11.978
271.18	11.538
271.39	10.083
271.60	11.008
271.81	9.790
272.02	9.669
272.23	9.660
272.45	8.739
272.66	9.457
272.87	9.113
273.08	7.914
273.29	9.338
273.50	8.865
273.71	9.622
273.92	7.125
274.14	8.003
274.35	8.965
274.56	9.244
274.77	9.559
274.98	10.242
275.19	12.051
275.40	7.931
275.61	9.189
275.83	12.925
276.04	12.177
276.25	13.871
276.46	12.542
276.67	14.727
276.88	11.975
277.09	8.364
277.30	9.789
277.51	12.986
277.73	10.558
277.94	14.273
278.15	12.120
278.36	11.215
278.57	11.740
278.78	11.940
278.99	11.354
279.20	13.220
279.41	14.428
279.62	10.648
279.84	9.466
280.05	10.523
280.26	10.749
280.47	11.543
280.68	10.945
280.89	9.981
281.10	11.232
281.31	11.834
281.52	9.346
281.73	9.898
281.94	9.224
282.16	9.735
282.37	10.604
282.58	9.540
282.79	10.437
283.00	9.045
283.21	6.824
283.42	8.202
283.63	8.830
283.84	9.201
284.05	8.263
284.26	9.796
284.47	7.766
284.68	8.081
284.89	8.261
285.11	8.518
285.32	8.009
285.53	9.556
285.74	8.148
285.95	7.165
286.16	7.860
286.37	5.814
286.58	6.599
286.79	6.193
287.00	7.459
287.21	6.048
287.42	7.790
287.63	5.831
287.84	6.101
288.05	7.815
288.26	7.045
288.48	7.597
288.69	5.764
288.90	7.354
289.11	7.057
289.32	6.750
289.53	7.049
289.74	7.855
289.95	9.195
290.16	7.792
290.37	5.552
290.58	7.248
290.79	7.048
291.00	6.580
291.21	7.323
291.42	8.141
291.63	6.790
291.84	7.875
292.05	7.328
292.26	7.190
292.47	8.780
292.68	7.267
292.89	8.367
293.10	9.142
293.31	7.630
293.52	7.437
293.73	9.059
293.94	9.131
294.15	8.723
294.36	9.393
294.57	8.911
294.79	8.337
295.00	7.866
295.21	8.187
295.42	8.018
295.63	9.453
295.84	6.755
296.05	6.563
296.26	8.203
296.47	6.614
296.68	6.183
296.89	8.478
297.10	7.064
297.31	7.525
297.52	6.849
297.73	4.368
297.94	6.518
298.15	6.036
298.36	5.665
298.57	4.930
298.78	5.864
298.99	6.680
299.20	4.831
299.41	4.849
299.62	6.136
299.83	6.292
300.04	5.890
300.25	7.649
300.46	8.060
300.67	8.171
300.88	6.557
301.09	6.567
301.30	9.505
301.50	6.487
301.71	8.223
301.92	8.006
302.13	6.503
302.34	3.890
302.55	7.733
302.76	7.552
302.97	8.127
303.18	7.332
303.39	8.876
303.60	8.350
303.81	8.581
304.02	6.956
304.23	7.043
304.44	7.260
304.65	8.505
304.86	6.311
305.07	6.377
305.28	7.855
305.49	6.895
305.70	8.430
305.91	8.005
306.12	7.619
306.33	7.654
306.54	6.963
306.75	7.978
306.96	8.620
307.17	6.916
307.38	8.797
307.58	6.540
307.79	7.199
308.00	8.422
308.21	8.477
308.42	7.879
308.63	7.891
308.84	8.127
309.05	7.488
309.26	7.368
309.47	6.662
309.68	6.612
309.89	8.247
310.10	7.778
310.31	6.676
310.52	7.179
310.73	7.608
310.94	5.434
311.14	5.708
311.35	6.312
311.56	6.740
311.77	6.000
311.98	5.987
312.19	5.100
312.40	6.632
312.61	4.791
312.82	6.734
313.03	6.811
313.24	6.748
313.45	6.456
313.66	7.015
313.86	7.224
314.07	6.569
314.28	8.225
314.49	7.935
314.70	6.705
314.91	8.705
315.12	6.846
315.33	7.228
315.54	6.114
315.75	7.372
315.96	6.609
316.16	8.240
316.37	8.431
316.58	7.418
316.79	7.122
317.00	7.816
317.21	9.246
317.42	9.506
317.63	7.867
317.84	7.772
318.05	7.973
318.25	8.258
318.46	7.854
318.67	8.159
318.88	8.298
319.09	7.341
319.30	8.583
319.51	8.798
319.72	7.399
319.93	8.337
320.13	7.100
320.34	8.785
320.55	8.027
320.76	9.097
320.97	7.517
321.18	8.868
321.39	9.229
321.60	8.084
321.80	9.334
322.01	8.874
322.22	7.509
322.43	6.220
322.64	7.711
322.85	7.422
323.06	7.749
323.27	7.642
323.47	7.811
323.68	8.442
323.89	8.429
324.10	8.073
324.31	7.508
324.52	8.001
324.73	7.149
324.93	5.391
325.14	6.207
325.35	7.268
325.56	7.010
325.77	7.688
325.98	7.328
326.19	6.927
326.39	4.319
326.60	6.666
326.81	6.095
327.02	6.872
327.23	7.095
327.44	7.147
327.64	5.924
327.85	6.818
328.06	5.895
328.27	7.999
328.48	6.861
328.69	6.887
328.90	6.613
329.10	7.455
329.31	7.726
329.52	6.878
329.73	7.241
329.94	7.837
330.15	6.696
330.35	8.035
330.56	8.551
330.77	5.743
330.98	8.023
331.19	6.568
331.39	8.629
331.60	8.046
331.81	7.387
332.02	6.559
332.23	8.151
332.44	7.919
332.64	8.143
332.85	7.031
333.06	6.432
333.27	6.391
333.48	6.189
333.68	6.953
333.89	7.691
334.10	5.357
334.31	7.547
334.52	7.992
334.72	6.661
334.93	7.741
335.14	5.438
335.35	7.848
335.56	7.451
335.76	7.155
335.97	8.460
336.18	6.016
336.39	7.218
336.60	7.668
336.80	5.834
337.01	6.066
337.22	6.699
337.43	7.795
337.64	7.441
337.84	6.711
338.05	7.046
338.26	7.967
338.47	6.558
338.68	5.549
338.88	7.915
339.09	5.480
339.30	5.775
339.51	5.369
339.71	6.225
339.92	6.221
340.13	7.233
340.34	7.089
340.55	5.741
340.75	5.504
340.96	6.009
341.17	7.465
341.38	6.183
341.58	7.214
341.79	6.368
342.00	6.153
342.21	6.958
342.41	6.517
342.62	6.080
342.83	7.078
343.04	6.112
343.24	5.778
343.45	6.528
343.66	6.374
343.87	5.431
344.07	5.462
344.28	5.492
344.49	5.723
344.70	6.684
344.90	5.662
345.11	6.113
345.32	4.650
345.53	4.355
345.73	5.456
345.94	5.352
346.15	5.685
346.36	4.483
346.56	4.908
346.77	5.540
346.98	5.476
347.19	5.521
347.39	4.237
347.60	4.396
347.81	4.843
348.02	6.967
348.22	5.959
348.43	7.415
348.64	6.470
348.84	5.129
349.05	6.081
349.26	6.560
349.47	4.498
349.67	6.515
349.88	6.790
350.09	6.078
350.30	6.808
350.50	5.599
350.71	5.007
350.92	5.191
351.12	5.470
351.33	5.774
351.54	5.560
351.74	5.428
351.95	5.794
352.16	5.159
352.37	5.961
352.57	5.624
352.78	5.241
352.99	5.582
353.19	5.636
353.40	5.784
353.61	5.101
353.82	5.174
354.02	5.294
354.23	5.597
354.44	5.518
354.64	6.003
354.85	6.073
355.06	4.660
355.26	5.004
355.47	5.909
355.68	6.163
355.88	6.265
356.09	4.898
356.30	4.719
356.51	4.638
356.71	4.821
356.92	2.908
357.13	6.315
357.33	5.576
357.54	3.965
357.75	4.488
357.95	4.770
358.16	4.231
358.37	4.994
358.57	4.854
358.78	4.544
358.99	4.370
359.19	4.110
359.40	4.512
359.61	4.350
359.81	4.912
360.02	4.678
360.23	4.508
360.43	4.697
360.64	4.521
360.85	4.798
361.05	4.273
361.26	3.985
361.47	4.164
361.67	4.368
361.88	3.697
362.09	3.740
362.29	3.476
362.50	3.311
362.70	3.614
362.91	3.905
363.12	3.268
363.32	3.416
363.53	3.370
363.74	3.210
363.94	3.012
364.15	3.862
364.36	4.393
364.56	4.060
364.77	4.572
364.98	5.055
365.18	4.617
365.39	4.297
365.59	4.192
365.80	3.689
366.01	5.284
366.21	4.547
366.42	4.190
366.63	4.512
366.83	4.017
367.04	4.043
367.24	4.809
367.45	3.542
367.66	3.830
367.86	5.166
368.07	4.411
368.28	4.660
368.48	3.942
368.69	3.679
368.89	4.703
369.10	3.738
369.31	4.298
369.51	4.963
369.72	4.822
369.92	4.892
370.13	4.658
370.34	4.344
370.54	4.366
370.75	4.306
370.95	4.878
371.16	4.265
371.37	3.697
371.57	3.510
371.78	3.880
371.98	4.288
372.19	3.604
372.40	3.796
372.60	4.743
372.81	3.750
373.01	3.586
373.22	3.359
373.43	4.595
373.63	3.880
373.84	4.137
374.04	4.054
374.25	4.900
374.46	4.022
374.66	5.078
374.87	4.559
375.07	4.011
375.28	3.586
375.48	3.926
375.69	3.675
375.90	3.414
376.10	3.307
376.31	3.351
376.51	4.639
376.72	3.873
376.92	2.893
377.13	2.894
377.34	3.958
377.54	3.765
377.75	3.939
377.95	3.839
378.16	3.963
378.36	3.959
378.57	2.959
378.77	3.572
378.98	2.891
379.19	3.524
379.39	2.577
379.60	3.340
379.80	3.216
380.01	4.013
380.21	3.516
380.42	4.180
380.62	3.210
380.83	3.998
381.04	3.365
381.24	3.793
381.45	3.556
381.65	3.478
381.86	3.439
382.06	4.585
382.27	3.427
382.47	3.783
382.68	4.564
382.88	4.439
383.09	4.074
383.29	3.728
383.50	3.498
383.71	3.854
383.91	3.400
384.12	3.809
384.32	3.544
384.53	4.292
384.73	3.843
384.94	3.572
385.14	3.305
385.35	3.252
385.55	3.569
385.76	3.649
385.96	2.799
386.17	3.480
386.37	3.070
386.58	4.021
386.78	4.277
386.99	3.221
387.19	3.387
387.40	3.770
387.60	3.860
387.81	3.852
388.01	2.889
388.22	3.731
388.42	4.126
388.63	4.875
388.83	3.920
389.04	3.489
389.24	3.758
389.45	4.086
389.65	3.592
389.86	4.362
390.06	3.909
390.27	4.071
390.47	3.436
390.68	3.604
390.88	4.611
391.09	4.353
391.29	4.530
391.50	4.254
391.70	3.768
391.91	3.230
392.11	4.164
392.32	4.063
392.52	3.721
392.73	4.102
392.93	3.815
393.14	4.076
393.34	3.014
393.55	4.686
393.75	4.068
393.95	4.184
394.16	4.885
394.36	5.214
394.57	4.661
394.77	4.736
394.98	4.267
395.18	5.385
395.39	4.364
395.59	4.651
395.80	4.865
396.00	4.549
396.21	5.091
396.41	4.333
396.61	5.632
396.82	6.015
397.02	7.038
397.23	5.757
397.43	5.218
397.64	4.762
397.84	6.245
398.05	4.568
398.25	6.060
398.45	4.660
398.66	5.966
398.86	5.799
399.07	6.407
399.27	5.063
399.48	6.753
399.68	5.379
399.89	6.131
400.09	6.591
400.29	6.258
400.50	5.914
400.70	6.391
400.91	6.529
401.11	5.744
401.32	6.862
401.52	5.205
401.72	5.818
401.93	7.589
402.13	5.910
402.34	6.505
402.54	5.760
402.75	7.616
402.95	4.316
403.15	7.684
403.36	5.221
403.56	7.462
403.77	5.873
403.97	6.124
404.17	6.869
404.38	7.690
404.58	5.357
404.79	6.166
404.99	5.867
405.19	6.295
405.40	6.553
405.60	7.310
405.81	5.875
406.01	6.803
406.21	6.351
406.42	6.593
406.62	6.755
406.83	7.712
407.03	7.292
407.23	6.064
407.44	6.198
407.64	7.286
407.85	6.592
408.05	7.257
408.25	6.452
408.46	8.248
408.66	6.841
408.87	6.659
409.07	6.398
409.27	6.252
409.48	6.707
409.68	7.140
409.88	5.751
410.09	6.945
410.29	6.797
410.50	8.029
410.70	5.886
410.90	6.306
411.11	5.691
411.31	5.900
411.51	7.301
411.72	7.415
411.92	6.070
412.12	6.370
412.33	6.367
412.53	6.198
412.74	5.198
412.94	6.493
413.14	6.724
413.35	6.794
413.55	6.874
413.75	7.376
413.96	6.105
414.16	6.622
414.36	6.628
414.57	6.688
414.77	6.191
414.97	6.948
415.18	6.099
415.38	6.695
415.58	6.346
415.79	6.421
415.99	5.891
416.19	7.123
416.40	6.530
416.60	7.026
416.80	5.245
417.01	6.257
417.21	5.315
417.41	7.045
417.62	6.200
417.82	6.774
418.02	5.616
418.23	6.539
418.43	5.916
418.63	6.194
418.84	6.795
419.04	6.048
419.24	6.920
419.45	7.067
419.65	6.829
419.85	6.728
420.06	6.795
420.26	6.850
420.46	6.492
420.67	7.037
420.87	7.071
421.07	7.458
421.28	6.735
421.48	7.265
421.68	6.937
421.88	6.887
422.09	7.091
422.29	6.966
422.49	6.450
422.70	7.212
422.90	6.889
423.10	6.958
423.31	6.995
423.51	7.351
423.71	6.379
423.91	7.076
424.12	6.608
424.32	6.970
424.52	6.930
424.73	6.716
424.93	7.013
425.13	6.501
425.33	6.447
425.54	7.108
425.74	6.663
425.94	7.405
426.15	6.706
426.35	6.627
426.55	7.166
426.75	6.675
426.96	6.479
427.16	6.937
427.36	6.905
427.57	7.261
427.77	6.307
427.97	6.977
428.17	7.067
428.38	7.032
428.58	5.395
428.78	6.850
428.98	5.764
429.19	6.586
429.39	5.825
429.59	6.583
429.79	5.178
430.00	5.194
430.20	5.506
430.40	5.998
430.60	6.083
430.81	5.429
431.01	5.721
431.21	6.530
431.41	5.531
431.62	5.796
431.82	6.315
432.02	7.008
432.22	5.801
432.43	5.965
432.63	5.477
432.83	6.065
433.03	5.555
433.24	5.561
433.44	5.804
433.64	6.495
433.84	5.545
434.05	6.232
434.25	5.878
434.45	6.948
434.65	6.928
434.85	7.314
435.06	6.794
435.26	6.503
435.46	6.469
435.66	7.192
435.87	6.025
436.07	6.695
436.27	6.292
436.47	5.899
436.67	5.754
436.88	6.503
437.08	6.327
437.28	6.090
437.48	6.257
437.69	6.797
437.89	6.130
438.09	6.902
438.29	6.021
438.49	6.447
438.70	6.579
438.90	5.789
439.10	5.964
439.30	6.398
439.50	5.351
439.71	6.601
439.91	6.240
440.11	7.126
440.31	6.584
440.51	6.344
440.72	6.389
440.92	6.494
441.12	6.474
441.32	7.003
441.52	6.773
441.72	6.986
441.93	6.795
442.13	6.941
442.33	6.563
442.53	7.613
442.73	6.331
442.94	6.735
443.14	6.571
443.34	7.290
443.54	6.753
443.74	7.229
443.94	6.476
444.15	6.306
444.35	6.049
444.55	6.719
444.75	6.507
444.95	6.874
445.15	6.382
445.36	7.120
445.56	5.888
445.76	6.915
445.96	6.331
446.16	6.104
446.36	6.223
446.57	7.058
446.77	5.616
446.97	6.816
447.17	7.087
447.37	6.988
447.57	6.931
447.77	7.000
447.98	6.904
448.18	7.142
448.38	6.756
448.58	6.895
448.78	7.222
448.98	6.954
449.18	6.665
449.39	7.172
449.59	6.585
449.79	6.927
449.99	6.533
450.19	6.745
450.39	6.525
450.59	6.735
450.79	6.596
451.00	7.239
451.20	7.583
451.40	6.428
451.60	6.139
451.80	7.003
452.00	6.504
452.20	6.580
452.40	6.510
452.61	6.775
452.81	6.472
453.01	6.703
453.21	6.177
453.41	6.516
453.61	6.052
453.81	6.574
454.01	6.613
454.21	6.666
454.42	6.986
454.62	6.808
454.82	6.620
455.02	6.749
455.22	5.921
455.42	6.685
455.62	5.681
455.82	6.534
456.02	6.199
456.23	6.504
456.43	6.531
456.63	6.008
456.83	5.108
457.03	6.464
457.23	5.983
457.43	6.524
457.63	5.862
457.83	7.018
458.03	5.959
458.23	6.370
458.43	5.697
458.64	6.394
458.84	5.999
459.04	6.340
459.24	6.209
459.44	6.533
459.64	6.600
459.84	6.647
460.04	6.267
460.24	6.577
460.44	6.578
460.64	7.016
460.84	6.412
461.04	6.909
461.24	6.771
461.45	6.885
461.65	7.034
461.85	7.053
462.05	6.947
462.25	7.147
462.45	7.396
462.65	7.096
462.85	5.779
463.05	6.724
463.25	5.880
463.45	7.011
463.65	6.438
463.85	6.771
464.05	6.079
464.25	6.220
464.45	6.792
464.65	6.439
464.85	5.767
465.05	6.075
465.26	5.986
465.46	6.890
465.66	6.464
465.86	6.750
466.06	6.420
466.26	6.347
466.46	6.094
466.66	6.290
466.86	6.174
467.06	6.420
467.26	6.243
467.46	6.883
467.66	6.247
467.86	6.287
468.06	5.678
468.26	6.200
468.46	6.515
468.66	6.238
468.86	5.727
469.06	6.812
469.26	5.660
469.46	6.365
469.66	6.203
469.86	6.901
470.06	6.402
470.26	6.862
470.46	6.091
470.66	7.376
470.86	5.495
471.06	6.393
471.26	5.177
471.46	6.243
471.66	6.384
471.86	5.941
472.06	6.078
472.26	7.080
472.46	7.069
472.66	6.613
472.86	5.561
473.06	6.552
473.26	6.446
473.46	6.713
473.66	6.030
473.86	6.824
474.06	6.066
474.26	6.636
474.46	5.344
474.66	6.927
474.86	6.640
475.06	6.716
475.26	5.869
475.46	6.812
475.66	5.638
475.86	6.458
476.06	7.179
476.26	6.581
476.46	5.751
476.66	6.599
476.86	6.136
477.06	6.533
477.26	6.118
477.46	6.498
477.65	6.202
477.85	6.808
478.05	6.031
478.25	6.999
478.45	6.605
478.65	6.686
478.85	6.484
479.05	6.716
479.25	6.600
479.45	7.201
479.65	6.295
479.85	7.008
480.05	6.363
480.25	7.001
480.45	6.785
480.65	7.245
480.85	6.232
481.05	7.189
481.25	7.132
481.44	6.790
481.64	6.326
481.84	7.408
482.04	6.776
482.24	7.118
482.44	6.325
482.64	6.760
482.84	6.758
483.04	7.140
483.24	6.739
483.44	6.997
483.64	6.687
483.84	6.969
484.04	7.026
484.23	7.258
484.43	7.286
484.63	7.802
484.83	7.955
485.03	8.385
485.23	8.221
485.43	8.190
485.63	7.990
485.83	7.999
486.03	8.053
486.23	8.007
486.42	7.839
486.62	7.828
486.82	7.523
487.02	7.654
487.22	7.201
487.42	7.428
487.62	7.337
487.82	7.349
488.02	7.268
488.22	7.374
488.41	7.493
488.61	7.472
488.81	7.578
489.01	7.782
489.21	7.852
489.41	8.004
489.61	7.900
489.81	7.964
490.01	7.815
490.20	7.921
490.40	7.711
490.60	8.067
490.80	7.451
491.00	7.630
491.20	7.329
491.40	7.307
491.60	7.186
491.79	7.430
491.99	7.472
492.19	7.368
492.39	7.479
492.59	7.495
492.79	7.628
492.99	7.928
493.19	7.769
493.38	8.055
493.58	8.061
493.78	8.148
493.98	8.418
494.18	8.125
494.38	7.844
494.58	8.006
494.77	7.195
494.97	7.696
495.17	7.402
495.37	7.679
495.57	7.656
495.77	7.489
495.96	7.428
496.16	7.816
496.36	7.314
496.56	7.937
496.76	7.219
496.96	7.352
497.15	7.391
497.35	7.647
497.55	7.642
497.75	7.936
497.95	7.246
498.15	8.170
498.34	7.608
498.54	7.580
498.74	7.947
498.94	8.187
499.14	7.622
499.34	8.475
499.53	7.899
499.73	8.241
499.93	7.875
500.13	8.044
500.33	7.583
500.52	7.849
500.72	7.628
500.92	7.830
501.12	7.064
501.32	7.756
501.52	7.917
501.71	7.699
501.91	7.679
502.11	8.024
502.31	7.566
502.51	8.215
502.70	7.252
502.90	8.059
503.10	7.185
503.30	8.184
503.50	7.671
503.69	7.602
503.89	7.844
504.09	8.345
504.29	7.900
504.48	8.262
504.68	7.908
504.88	8.285
505.08	7.593
505.28	7.793
505.47	8.094
505.67	8.575
505.87	7.688
506.07	8.112
506.27	7.817
506.46	8.196
506.66	7.522
506.86	8.332
507.06	8.682
507.25	8.402
507.45	7.839
507.65	8.326
507.85	7.592
508.04	8.400
508.24	7.881
508.44	8.520
508.64	7.851
508.83	8.230
509.03	7.943
509.23	8.132
509.43	7.917
509.63	8.242
509.82	8.021
510.02	7.937
510.22	8.184
510.42	8.714
510.61	8.572
510.81	8.349
511.01	8.371
511.21	8.610
511.40	7.953
511.60	8.457
511.80	8.297
511.99	8.537
512.19	8.169
512.39	8.324
512.59	7.835
512.78	8.755
512.98	8.735
513.18	8.738
513.38	8.410
513.57	8.695
513.77	8.417
513.97	8.743
514.17	8.428
514.36	8.672
514.56	8.377
514.76	8.785
514.95	8.185
515.15	8.251
515.35	8.228
515.55	8.651
515.74	8.245
515.94	8.122
516.14	8.255
516.33	8.732
516.53	8.133
516.73	8.349
516.93	8.040
517.12	8.932
517.32	7.812
517.52	8.803
517.71	8.146
517.91	8.374
518.11	8.243
518.30	8.473
518.50	7.663
518.70	8.371
518.90	8.347
519.09	8.529
519.29	8.773
519.49	8.831
519.68	8.491
519.88	8.777
520.08	8.934
520.27	9.061
520.47	8.795
520.67	8.869
520.86	9.420
521.06	8.997
521.26	8.547
521.45	9.025
521.65	8.697
521.85	8.857
522.04	8.573
522.24	9.193
522.44	8.042
522.63	8.693
522.83	8.525
523.03	8.771
523.22	8.377
523.42	9.057
523.62	8.887
523.81	8.809
524.01	8.696
524.21	8.877
524.40	8.195
524.60	8.775
524.80	8.640
524.99	8.600
525.19	8.655
525.39	8.748
525.58	8.516
525.78	8.695
525.98	8.732
526.17	8.943
526.37	8.581
526.57	8.930
526.76	9.205
526.96	8.854
527.15	8.803
527.35	8.911
527.55	8.725
527.74	9.005
527.94	8.870
528.14	8.623
528.33	8.484
528.53	8.494
528.72	8.658
528.92	8.697
529.12	8.573
529.31	8.815
529.51	8.964
529.71	9.052
529.90	9.171
530.10	9.285
530.29	9.378
530.49	9.374
530.69	9.463
530.88	9.657
531.08	9.400
531.28	9.417
531.47	9.189
531.67	9.232
531.86	9.063
532.06	9.241
532.26	8.972
532.45	9.115
532.65	9.017
532.84	8.851
533.04	8.491
533.24	8.885
533.43	8.827
533.63	8.991
533.82	8.983
534.02	9.007
534.22	9.097
534.41	9.211
534.61	9.217
534.80	9.449
535.00	9.477
535.19	9.543
535.39	9.664
535.59	9.742
535.78	9.573
535.98	9.805
536.17	9.280
536.37	9.264
536.57	9.195
536.76	9.290
536.96	9.076
537.15	9.377
537.35	9.015
537.54	9.382
537.74	9.371
537.93	9.541
538.13	9.331
538.33	9.439
538.52	9.661
538.72	9.766
538.91	9.814
539.11	9.397
539.30	9.473
539.50	9.908
539.70	9.464
539.89	9.832
540.09	9.295
540.28	9.621
540.48	9.222
540.67	9.434
540.87	9.136
541.06	9.163
541.26	8.900
541.45	9.288
541.65	9.415
541.85	9.477
542.04	9.390
542.24	9.581
542.43	9.556
542.63	9.731
542.82	9.737
543.02	9.854
543.21	9.734
543.41	10.121
543.60	10.137
543.80	9.950
543.99	10.134
544.19	10.020
544.38	10.166
544.58	10.133
544.77	9.870
544.97	10.207
545.16	10.051
545.36	9.994
545.56	9.792
545.75	10.245
545.95	9.819
546.14	10.138
546.34	9.695
546.53	10.045
546.73	9.506
546.92	10.327
547.12	9.607
547.31	10.423
547.51	10.131
547.70	10.192
547.90	10.092
548.09	9.802
548.29	10.269
548.48	10.291
548.68	10.242
548.87	10.865
549.07	10.191
549.26	10.394
549.46	10.633
549.65	10.436
549.84	10.154
550.04	10.559
550.23	9.600
550.43	10.428
550.62	10.075
550.82	10.243
551.01	9.859
551.21	10.716
551.40	10.489
551.60	10.626
551.79	10.254
551.99	10.158
552.18	10.029
552.38	10.497
552.57	10.345
552.77	11.029
552.96	10.583
553.16	10.496
553.35	10.828
553.54	11.310
553.74	11.068
553.93	10.992
554.13	10.855
554.32	11.286
554.52	11.183
554.71	11.435
554.91	10.488
555.10	11.457
555.29	10.820
555.49	11.409
555.68	10.746
555.88	11.373
556.07	10.588
556.27	11.079
556.46	10.934
556.66	11.391
556.85	11.439
557.04	11.754
557.24	10.816
557.43	11.287
557.63	10.997
557.82	11.052
558.02	11.168
558.21	12.127
558.40	10.976
558.60	11.418
558.79	11.267
558.99	12.102
559.18	11.293
559.38	11.680
559.57	11.743
559.76	11.841
559.96	12.014
560.15	12.130
560.35	11.478
560.54	11.605
560.73	10.652
560.93	11.938
561.12	11.587
561.32	12.087
561.51	11.835
561.70	12.091
561.90	11.901
562.09	12.469
562.29	12.250
562.48	12.202
562.67	11.993
562.87	13.008
563.06	12.448
563.26	12.613
563.45	12.424
563.64	12.947
563.84	12.513
564.03	13.279
564.23	12.238
564.42	13.091
564.61	12.461
564.81	13.263
565.00	12.609
565.20	13.501
565.39	13.356
565.58	13.435
565.78	12.728
565.97	13.389
566.16	13.031
566.36	13.614
566.55	13.491
566.74	13.612
566.94	13.529
567.13	13.852
567.33	13.580
567.52	13.720
567.71	13.303
567.91	14.162
568.10	13.618
568.29	13.790
568.49	13.936
568.68	14.186
568.87	14.031
569.07	13.898
569.26	13.965
569.45	14.044
569.65	13.586
569.84	14.024
570.04	13.737
570.23	14.144
570.42	13.578
570.62	14.132
570.81	14.159
571.00	14.196
571.20	14.120
571.39	14.476
571.58	14.009
571.78	14.184
571.97	13.733
572.16	14.291
572.36	14.102
572.55	14.742
572.74	14.271
572.94	14.404
573.13	14.655
573.32	14.672
573.51	14.588
573.71	14.660
573.90	14.290
574.09	14.685
574.29	14.088
574.48	14.457
574.67	14.107
574.87	15.031
575.06	14.303
575.25	14.728
575.45	14.315
575.64	14.433
575.83	14.544
576.03	15.419
576.22	14.727
576.41	14.999
576.60	14.032
576.80	14.931
576.99	15.177
577.18	15.452
577.38	14.456
577.57	14.842
577.76	14.765
577.95	14.865
578.15	14.454
578.34	14.896
578.53	14.698
578.73	14.966
578.92	13.914
579.11	14.813
579.30	14.302
579.50	15.127
579.69	14.589
579.88	15.085
580.08	14.206
580.27	15.193
580.46	14.408
580.65	14.602
580.85	14.938
581.04	15.329
581.23	14.194
581.42	14.957
581.62	14.358
581.81	14.903
582.00	13.999
582.19	14.441
582.39	15.437
582.58	14.796
582.77	14.693
582.96	14.566
583.16	13.973
583.35	15.195
583.54	14.542
583.73	15.028
583.93	14.395
584.12	13.950
584.31	13.788
584.50	14.605
584.70	14.087
584.89	14.929
585.08	13.882
585.27	15.462
585.47	13.722
585.66	14.415
585.85	13.725
586.04	14.515
586.24	15.368
586.43	14.195
586.62	13.967
586.81	14.766
587.00	14.221
587.20	14.483
587.39	13.614
587.58	14.898
587.77	14.149
587.97	14.333
588.16	14.312
588.35	15.041
588.54	13.910
588.73	14.310
588.93	14.301
589.12	14.748
589.31	13.934
589.50	14.355
589.69	14.881
589.89	14.790
590.08	13.658
590.27	13.945
590.46	14.536
590.65	14.523
590.85	13.339
591.04	14.539
591.23	14.485
591.42	14.772
591.61	13.594
591.81	14.707
592.00	13.701
592.19	14.893
592.38	14.281
592.57	14.903
592.77	14.239
592.96	14.142
593.15	14.676
593.34	14.260
593.53	14.204
593.72	15.006
593.92	13.699
594.11	15.264
594.30	14.622
594.49	14.827
594.68	14.553
594.87	14.809
595.07	13.676
595.26	14.584
595.45	14.201
595.64	15.169
595.83	13.641
596.02	15.032
596.22	14.807
596.41	14.952
596.60	14.367
596.79	15.287
596.98	14.630
597.17	15.088
597.37	14.768
597.56	15.160
597.75	14.725
597.94	15.192
598.13	15.036
598.32	15.092
598.51	14.821
598.71	15.677
598.90	14.977
599.09	15.435
599.28	15.401
599.47	15.028
599.66	14.704
599.85	15.355
600.05	14.829
600.24	15.448
600.43	14.650
600.62	14.646
600.81	14.770
601.00	16.220
601.19	14.143
601.38	15.310
601.58	14.927
601.77	14.950
601.96	14.667
602.15	15.906
602.34	15.068
602.53	15.750
602.72	14.447
602.91	15.289
603.10	14.922
603.30	15.279
603.49	15.286
603.68	15.392
603.87	14.673
604.06	15.696
604.25	15.345
604.44	15.293
604.63	15.381
604.82	15.960
605.01	15.217
605.21	15.717
605.40	14.828
605.59	15.849
605.78	15.897
605.97	15.308
606.16	15.226
606.35	15.659
606.54	15.427
606.73	16.540
606.92	15.350
607.11	15.834
607.30	15.195
607.50	15.681
607.69	15.203
607.88	15.532
608.07	15.363
608.26	16.032
608.45	15.443
608.64	16.072
608.83	14.903
609.02	15.183
609.21	15.081
609.40	15.386
609.59	14.905
609.78	15.266
609.97	14.821
610.16	15.915
610.35	15.278
610.55	15.243
610.74	15.385
610.93	16.040
611.12	15.333
611.31	15.326
611.50	15.117
611.69	14.991
611.88	14.618
612.07	16.220
612.26	14.479
612.45	15.517
612.64	14.841
612.83	15.395
613.02	14.127
613.21	14.734
613.40	14.203
613.59	15.888
613.78	14.101
613.97	14.684
614.16	13.928
614.35	15.680
614.54	13.086
614.73	14.020
614.92	14.062
615.11	14.254
615.30	13.927
615.49	13.634
615.68	13.742
615.87	14.319
616.07	14.030
616.26	13.732
616.45	14.129
616.64	13.520
616.83	13.241
617.02	14.321
617.21	12.747
617.40	14.236
617.59	14.167
617.78	13.225
617.97	12.901
618.16	13.621
618.35	11.402
618.54	13.396
618.73	13.272
618.92	13.481
619.11	12.482
619.30	13.639
619.49	12.452
619.68	13.634
619.86	13.353
620.05	13.788
620.24	12.925
620.43	14.141
620.62	12.113
620.81	13.403
621.00	13.481
621.19	13.919
621.38	13.960
621.57	13.350
621.76	12.340
621.95	14.132
622.14	12.360
622.33	13.783
622.52	12.511
622.71	12.553
622.90	13.318
623.09	13.843
623.28	13.514
623.47	13.272
623.66	13.137
623.85	12.869
624.04	12.181
624.23	13.364
624.42	11.941
624.61	12.891
624.80	11.195
624.99	13.192
625.18	12.017
625.36	13.681
625.55	13.410
625.74	12.421
625.93	11.874
626.12	12.602
626.31	13.113
626.50	13.460
626.69	12.550
626.88	14.088
627.07	13.239
627.26	13.549
627.45	13.132
627.64	13.127
627.83	12.011
628.02	13.693
628.20	12.831
628.39	13.016
628.58	12.425
628.77	13.550
628.96	12.378
629.15	13.104
629.34	12.996
629.53	12.564
629.72	12.589
629.91	14.333
630.10	12.959
630.29	13.818
630.47	12.325
630.66	13.436
630.85	12.925
631.04	13.471
631.23	13.282
631.42	13.390
631.61	13.080
631.80	13.302
631.99	12.279
632.18	13.249
632.36	12.178
632.55	13.597
632.74	12.320
632.93	12.325
633.12	12.908
633.31	12.665
633.50	12.432
633.69	12.985
633.88	12.217
634.06	12.813
634.25	13.044
634.44	13.508
634.63	12.617
634.82	12.912
635.01	12.165
635.20	13.161
635.39	12.000
635.57	13.395
635.76	12.548
635.95	12.683
636.14	11.757
636.33	12.601
636.52	12.670
636.71	12.399
636.89	12.312
637.08	13.167
637.27	11.783
637.46	12.541
637.65	12.417
637.84	12.014
638.03	11.587
638.21	13.386
638.40	12.219
638.59	12.003
638.78	11.711
638.97	13.368
639.16	13.055
639.34	13.109
639.53	11.084
639.72	12.706
639.91	11.640
640.10	10.773
640.29	13.045
640.47	13.623
640.66	11.615
640.85	13.026
641.04	10.198
641.23	11.999
641.42	11.477
641.60	12.231
641.79	12.015
641.98	12.075
642.17	11.581
642.36	12.351
642.54	11.738
642.73	12.367
642.92	11.110
643.11	12.055
643.30	11.330
643.49	11.830
643.67	10.609
643.86	11.662
644.05	10.711
644.24	11.653
644.43	12.137
644.61	12.110
644.80	11.597
644.99	11.912
645.18	12.969
645.37	12.077
645.55	10.416
645.74	12.288
645.93	12.114
646.12	12.209
646.31	12.328
646.49	12.044
646.68	11.830
646.87	11.674
647.06	11.404
647.24	11.837
647.43	10.729
647.62	13.201
647.81	10.603
648.00	12.138
648.18	9.541
648.37	11.287
648.56	11.459
648.75	10.784
648.93	12.136
649.12	12.788
649.31	10.886
649.50	11.581
649.68	11.498
649.87	12.249
650.06	9.763
650.25	12.337
650.43	10.138
650.62	10.770
650.81	11.403
651.00	11.646
651.18	11.017
651.37	12.466
651.56	10.634
651.75	12.166
651.93	10.312
652.12	12.074
652.31	10.868
652.50	12.171
652.68	11.031
652.87	12.097
653.06	11.558
653.25	11.616
653.43	11.281
653.62	12.154
653.81	11.399
654.00	11.443
654.18	11.137
654.37	12.245
654.56	10.703
654.74	10.197
654.93	10.214
655.12	11.102
655.31	11.321
655.49	11.371
655.68	9.592
655.87	9.888
656.05	9.417
656.24	10.590
656.43	9.531
656.62	11.873
656.80	10.284
656.99	10.468
657.18	9.380
657.36	11.132
657.55	10.204
657.74	10.188
657.93	11.011
658.11	12.167
658.30	10.674
658.49	9.981
658.67	10.885
658.86	9.679
659.05	9.011
659.23	10.703
659.42	9.534
659.61	10.074
659.79	9.610
659.98	10.524
660.17	10.379
660.35	9.829
660.54	10.596
660.73	11.147
660.91	10.253
661.10	10.428
661.29	9.177
661.47	9.969
661.66	9.639
661.85	9.974
662.03	9.897
662.22	8.337
662.41	7.938
662.59	8.911
662.78	8.064
662.97	8.626
663.15	8.218
663.34	8.208
663.53	8.069
663.71	8.641
663.90	7.976
664.09	8.375
664.27	8.749
664.46	8.473
664.65	8.235
664.83	8.079
665.02	7.784
665.21	7.764
665.39	7.399
665.58	9.731
665.77	8.804
665.95	8.793
666.14	7.810
666.32	8.317
666.51	7.044
666.70	7.924
666.88	8.184
667.07	6.931
667.26	6.820
667.44	8.213
667.63	7.097
667.81	7.149
668.00	7.254
668.19	9.577
668.37	8.214
668.56	9.102
668.75	6.624
668.93	8.929
669.12	7.024
669.30	7.351
669.49	6.327
669.68	7.524
669.86	7.905
670.05	7.320
670.23	7.231
670.42	6.988
670.61	8.190
670.79	9.227
670.98	8.427
671.16	9.044
671.35	7.573
671.54	7.915
671.72	7.432
671.91	7.517
672.09	7.249
672.28	8.106
672.46	8.830
672.65	8.970
672.84	8.663
673.02	9.430
673.21	6.751
673.39	7.488
673.58	8.868
673.77	8.420
673.95	7.892
674.14	9.228
674.32	6.819
674.51	8.942
674.69	7.738
674.88	8.989
675.07	7.759
675.25	10.162
675.44	8.133
675.62	8.234
675.81	7.515
675.99	11.974
676.18	8.938
676.36	7.929
676.55	9.438
676.74	10.233
676.92	9.550
677.11	8.839
677.29	8.966
677.48	9.116
677.66	9.703
677.85	8.429
678.03	9.088
678.22	10.069
678.40	9.389
678.59	8.725
678.78	8.582
678.96	8.385
679.15	8.241
679.33	11.064
679.52	10.398
679.70	9.604
679.89	8.631
680.07	9.725
680.26	7.909
680.44	8.611
680.63	8.909
680.81	9.170
681.00	7.161
681.18	8.829
681.37	9.095
681.55	10.373
681.74	9.931
681.92	10.441
682.11	9.674
682.29	9.334
682.48	9.493
682.66	9.731
682.85	10.228
683.03	10.687
683.22	11.541
683.40	10.988
683.59	10.129
683.77	11.940
683.96	9.928
684.14	11.493
684.33	9.396
684.51	13.175
684.70	10.951
684.88	12.579
685.07	11.277
685.25	12.854
685.44	11.563
685.62	11.166
685.81	11.331
685.99	13.852
686.18	11.033
686.36	13.852
686.55	11.407
686.73	9.742
686.92	13.932
687.10	12.468
687.29	14.233
687.47	14.415
687.65	13.779
687.84	12.749
688.02	15.680
688.21	14.744
688.39	13.271
688.58	15.971
688.76	13.793
688.95	13.766
689.13	12.569
689.32	15.553
689.50	15.429
689.68	14.787
689.87	14.093
690.05	15.436
690.24	15.040
690.42	15.166
690.61	16.132
690.79	18.121
690.98	15.834
691.16	15.532
691.34	14.202
691.53	16.109
691.71	15.304
691.90	17.170
692.08	14.704
692.27	17.364
692.45	17.554
692.63	16.332
692.82	17.160
693.00	17.528
693.19	15.260
693.37	19.817
693.56	16.064
693.74	18.914
693.92	16.940
694.11	18.883
694.29	18.646
694.48	19.908
694.66	19.122
694.84	20.105
695.03	18.377
695.21	20.471
695.40	19.358
695.58	22.460
695.76	19.339
695.95	20.463
696.13	19.078
696.32	20.749
696.50	25.162
696.68	21.627
696.87	19.619
697.05	21.563
697.24	21.607
697.42	22.230
697.60	20.827
697.79	21.681
697.97	21.456
698.16	23.923
698.34	21.505
698.52	24.175
698.71	22.097
698.89	23.001
699.07	22.458
699.26	23.193
699.44	22.722
699.63	25.013
699.81	22.234
699.99	24.551
700.18	24.113
700.36	24.480
700.54	24.725
700.73	24.317
700.91	23.388
701.09	25.069
701.28	24.174
701.46	25.314
701.64	23.742
701.83	25.073
702.01	23.746
702.20	27.674
702.38	25.606
702.56	25.672
702.75	25.251
702.93	25.011
703.11	24.628
703.30	25.511
703.48	25.728
703.66	26.433
703.85	25.102
704.03	28.730
704.21	24.466
704.40	28.486
704.58	23.722
704.76	27.268
704.95	25.416
705.13	28.435
705.31	27.254
705.50	27.833
705.68	25.035
705.86	27.523
706.04	26.834
706.23	27.405
706.41	27.545
706.59	26.709
706.78	26.220
706.96	28.684
707.14	26.656
707.33	29.360
707.51	25.579
707.69	29.673
707.88	26.213
708.06	29.289
708.24	27.274
708.42	28.427
708.61	27.350
708.79	28.316
708.97	28.089
709.16	29.298
709.34	31.378
709.52	30.137
709.71	27.929
709.89	29.208
710.07	27.436
710.25	29.357
710.44	27.499
710.62	28.608
710.80	28.514
710.98	29.312
711.17	28.534
711.35	29.872
711.53	26.186
711.72	29.584
711.90	29.780
712.08	31.062
712.26	26.441
712.45	29.842
712.63	29.521
712.81	31.395
712.99	29.027
713.18	30.912
713.36	30.594
713.54	29.391
713.72	28.161
713.91	29.406
714.09	26.786
714.27	27.820
714.45	29.739
714.64	32.465
714.82	29.149
715.00	31.508
715.18	28.546
715.37	31.517
715.55	29.595
715.73	30.528
715.91	29.044
716.10	30.919
716.28	27.816
716.46	32.103
716.64	28.723
716.83	28.788
717.01	27.999
717.19	29.657
717.37	30.135
717.55	30.779
717.74	27.692
717.92	29.739
718.10	27.297
718.28	30.158
718.47	26.834
718.65	30.695
718.83	29.014
719.01	31.056
719.19	29.442
719.38	28.730
719.56	28.361
719.74	30.191
719.92	26.000
720.10	28.845
720.29	28.056
720.47	32.328
720.65	30.818
720.83	32.859
721.01	28.161
721.20	28.960
721.38	29.148
721.56	30.171
721.74	29.846
721.92	29.785
722.11	27.388
722.29	29.352
722.47	28.606
722.65	30.142
722.83	30.171
723.01	28.624
723.20	30.055
723.38	29.613
723.56	28.021
723.74	34.837
723.92	29.251
724.10	32.106
724.29	27.202
724.47	32.275
724.65	28.239
724.83	32.736
725.01	27.904
725.19	31.383
725.38	29.710
725.56	30.865
725.74	28.399
725.92	31.533
726.10	31.208
726.28	30.864
726.46	30.126
726.65	31.341
726.83	30.063
727.01	32.483
727.19	30.125
727.37	29.796
727.55	30.067
727.73	32.295
727.92	30.388
728.10	29.853
728.28	27.701
728.46	31.587
728.64	30.387
728.82	31.017
729.00	31.250
729.19	32.744
729.37	29.241
729.55	32.966
729.73	25.953
729.91	30.122
730.09	30.811
730.27	32.785
730.45	31.182
730.63	32.262
730.82	28.898
731.00	31.653
731.18	30.189
731.36	32.512
731.54	27.710
731.72	32.483
731.90	28.089
732.08	33.354
732.26	28.428
732.45	32.755
732.63	30.921
732.81	33.126
732.99	30.529
733.17	32.560
733.35	29.940
733.53	33.174
733.71	31.884
733.89	32.315
734.07	32.392
734.25	35.393
734.44	30.848
734.62	33.632
734.80	30.323
734.98	33.513
735.16	31.623
735.34	35.070
735.52	32.974
735.70	32.682
735.88	30.944
736.06	33.110
736.24	33.481
736.42	35.332
736.60	33.577
736.78	32.952
736.97	30.830
737.15	35.744
737.33	30.384
737.51	34.786
737.69	34.529
737.87	34.458
738.05	36.149
738.23	35.329
738.41	31.904
738.59	34.805
738.77	33.244
738.95	34.160
739.13	35.314
739.31	35.243
739.49	33.564
739.67	35.872
739.85	31.781
740.03	37.024
740.21	36.212
740.39	37.929
740.57	36.057
740.75	35.225
740.93	35.427
741.11	33.610
741.30	34.106
741.48	33.007
741.66	37.497
741.84	35.140
742.02	33.307
742.20	37.086
742.38	33.224
742.56	37.380
742.74	34.070
742.92	34.424
743.10	32.965
743.28	37.951
743.46	35.401
743.64	33.277
743.82	31.468
744.00	37.709
744.18	35.877
744.36	38.340
744.54	33.424
744.72	38.652
744.90	37.682
745.08	36.669
745.26	36.124
745.44	38.579
745.62	36.065
745.80	35.203
745.98	36.227
746.16	36.307
746.34	36.891
746.52	39.900
746.70	32.405
746.87	34.375
747.05	35.339
747.23	39.118
747.41	33.585
747.59	38.232
747.77	33.239
747.95	35.739
748.13	35.367
748.31	36.899
748.49	37.602
748.67	35.730
748.85	34.948
749.03	37.388
749.21	32.711
749.39	36.754
749.57	33.364
749.75	31.982
749.93	36.069
750.11	36.428
750.29	35.723
750.47	35.292
750.65	34.066
750.83	34.942
751.01	31.433
751.18	36.571
751.36	33.302
751.54	33.833
751.72	36.835
751.90	35.370
752.08	32.286
752.26	34.122
752.44	36.719
752.62	37.997
752.80	34.422
752.98	37.217
753.16	35.351
753.34	35.169
753.52	38.165
753.69	37.219
753.87	35.394
754.05	34.711
754.23	33.211
754.41	36.766
754.59	37.839
754.77	36.640
754.95	33.455
755.13	37.150
755.31	34.031
755.49	35.627
755.66	35.791
755.84	35.978
756.02	32.049
756.20	36.677
756.38	34.233
756.56	37.416
756.74	33.617
756.92	35.596
757.10	32.897
757.28	34.535
757.45	39.067
757.63	38.568
757.81	35.027
757.99	41.593
758.17	37.809
758.35	41.447
758.53	37.019
758.71	38.107
758.88	33.117
759.06	35.209
759.24	33.001
759.42	34.092
759.60	30.996
759.78	33.374
759.96	27.884
760.13	31.470
760.31	30.049
760.49	28.367
760.67	27.132
760.85	29.067
761.03	29.280
761.21	28.584
761.38	25.257
761.56	31.069
761.74	26.792
761.92	30.416
762.10	25.179
762.28	29.840
762.46	27.238
762.63	27.571
762.81	28.441
762.99	27.159
763.17	27.718
763.35	28.380
763.53	24.536
763.70	29.987
763.88	29.901
764.06	30.937
764.24	28.955
764.42	29.562
764.60	29.121
764.77	29.072
764.95	28.705
765.13	30.043
765.31	28.386
765.49	31.416
765.66	29.200
765.84	30.871
766.02	29.875
766.20	30.240
766.38	27.146
766.56	30.952
766.73	29.130
766.91	29.846
767.09	30.598
767.27	33.586
767.45	30.579
767.62	33.410
767.80	28.340
767.98	34.727
768.16	30.975
768.33	34.620
768.51	35.895
768.69	33.736
768.87	33.279
769.05	33.167
769.22	32.579
769.40	38.646
769.58	32.715
769.76	39.565
769.94	35.261
770.11	33.408
770.29	35.839
770.47	34.674
770.65	36.212
770.82	35.371
771.00	35.080
771.18	37.121
771.36	34.456
771.53	36.143
771.71	36.495
771.89	38.355
772.07	36.028
772.25	37.361
772.42	34.352
772.60	37.448
772.78	37.670
772.96	37.729
773.13	40.173
773.31	39.330
773.49	32.629
773.67	35.387
773.84	35.868
774.02	37.310
774.20	38.619
774.37	40.119
774.55	37.199
774.73	42.480
774.91	40.676
775.08	35.129
775.26	38.239
775.44	39.619
775.62	34.808
775.79	39.722
775.97	37.674
776.15	37.337
776.32	34.747
776.50	41.174
776.68	40.396
776.86	40.689
777.03	37.603
777.21	39.012
777.39	34.827
777.56	39.409
777.74	38.004
777.92	37.865
778.10	34.596
778.27	36.758
778.45	38.147
778.63	37.506
778.80	38.277
778.98	40.977
779.16	41.419
779.34	38.606
779.51	36.643
779.69	43.543
779.87	38.636
780.04	37.574
780.22	37.692
780.40	37.785
780.57	36.414
780.75	36.909
780.93	37.891
781.10	38.870
781.28	46.329
781.46	37.021
781.63	41.819
781.81	42.075
781.99	34.412
782.16	38.770
782.34	36.462
782.52	36.903
782.69	38.542
782.87	35.260
783.05	38.240
783.22	39.352
783.40	35.109
783.58	38.986
783.75	37.761
783.93	43.691
784.11	39.090
784.28	40.529
784.46	36.344
784.64	40.557
784.81	38.795
784.99	45.730
785.17	39.090
785.34	33.915
785.52	41.462
785.69	42.286
785.87	36.185
786.05	39.359
786.22	38.448
786.40	45.372
786.58	38.023
786.75	40.398
786.93	38.470
787.11	39.210
787.28	38.911
787.46	40.221
787.63	38.576
787.81	40.288
787.99	40.397
788.16	39.060
788.34	32.942
788.51	34.696
788.69	34.159
788.87	34.265
789.04	34.550
789.22	33.625
789.39	35.748
789.57	36.187
789.75	33.333
789.92	37.545
790.10	33.686
790.27	36.376
790.45	32.423
790.63	34.851
790.80	34.000
790.98	35.353
791.15	35.440
791.33	37.920
791.51	34.979
791.68	38.237
791.86	40.813
792.03	38.635
792.21	33.875
792.39	39.063
792.56	36.600
792.74	41.018
792.91	39.989
793.09	36.428
793.26	39.371
793.44	42.252
793.62	37.128
793.79	41.626
793.97	43.349
794.14	39.899
794.32	39.062
794.49	45.054
794.67	35.795
794.84	34.301
795.02	37.748
795.20	39.860
795.37	37.779
795.55	39.481
795.72	41.055
795.90	38.524
796.07	39.746
796.25	39.093
796.42	36.384
796.60	36.082
796.77	31.909
796.95	34.047
797.13	31.292
797.30	38.027
797.48	32.283
797.65	37.815
797.83	34.676
798.00	37.310
798.18	32.739
798.35	38.412
798.53	38.550
798.70	36.276
798.88	38.658
799.05	36.665
799.23	35.338
799.40	38.493
799.58	38.664
799.75	37.634
799.93	35.287
800.10	35.975
800.28	37.106
800.45	37.803
800.63	36.391
800.80	41.417
800.98	38.544
801.15	37.069
801.33	33.729
801.50	36.999
801.68	36.290
801.85	37.241
802.03	38.831
802.20	37.568
802.38	38.505
802.55	30.898
802.73	39.642
802.90	41.539
803.08	34.845
803.25	43.355
803.43	40.969
803.60	40.765
803.78	42.036
803.95	41.499
804.13	41.862
804.30	40.428
804.48	37.037
804.65	41.599
804.83	38.111
805.00	42.447
805.17	41.867
805.35	30.351
805.52	32.981
805.70	42.140
805.87	41.897
806.05	40.037
806.22	37.099
806.40	37.269
806.57	41.787
806.75	44.682
806.92	41.995
807.09	34.819
807.27	35.945
807.44	39.078
807.62	37.518
807.79	38.462
807.97	30.901
808.14	40.834
808.31	42.011
808.49	40.064
808.66	38.787
808.84	39.465
809.01	39.718
809.19	40.782
809.36	42.221
809.53	42.321
809.71	37.040
809.88	48.309
810.06	43.488
810.23	40.915
810.41	41.655
810.58	39.884
810.75	36.866
810.93	42.039
811.10	38.845
811.28	36.684
811.45	40.183
811.62	37.037
811.80	35.217
811.97	38.855
812.15	52.923
812.32	43.876
812.49	43.324
812.67	39.097
812.84	39.579
813.02	38.898
813.19	36.371
813.36	45.507
813.54	33.197
813.71	45.304
813.89	41.024
814.06	47.008
814.23	41.873
814.41	41.694
814.58	43.069
814.75	43.273
814.93	47.204
815.10	41.049
815.28	39.357
815.45	34.232
815.62	42.903
815.80	37.573
815.97	40.290
816.14	38.533
816.32	42.659
816.49	37.879
816.66	44.029
816.84	34.671
817.01	44.023
817.18	38.651
817.36	41.022
817.53	40.723
817.71	35.261
817.88	41.590
818.05	38.178
818.23	37.279
818.40	37.034
818.57	36.357
818.75	39.406
818.92	32.049
819.09	40.060
819.27	44.343
819.44	36.498
819.61	34.499
819.79	32.967
819.96	40.950
820.13	33.943
820.31	33.756
820.48	35.613
820.65	31.611
820.82	30.323
821.00	34.413
821.17	28.340
821.34	30.435
821.52	33.305
821.69	28.583
821.86	26.321
822.04	26.286
822.21	26.076
822.38	30.581
822.56	26.288
822.73	28.567
822.90	26.664
823.07	30.867
823.25	28.142
823.42	27.793
823.59	26.966
823.77	27.674
823.94	28.357
824.11	28.267
824.29	25.615
824.46	28.429
824.63	27.619
824.80	27.610
824.98	26.301
825.15	29.436
825.32	23.591
825.49	27.032
825.67	24.911
825.84	28.065
826.01	26.557
826.19	28.973
826.36	24.662
826.53	30.334
826.70	27.200
826.88	29.312
827.05	23.591
827.22	27.619
827.39	27.923
827.57	24.900
827.74	24.841
827.91	29.629
828.08	25.205
828.26	26.779
828.43	24.687
828.60	29.809
828.77	25.989
828.95	26.816
829.12	22.608
829.29	24.819
829.46	25.690
829.64	25.139
829.81	24.694
829.98	26.096
830.15	26.677
830.32	27.800
830.50	28.902
830.67	30.726
830.84	29.428
831.01	26.291
831.19	31.824
831.36	34.189
831.53	35.025
831.70	44.739
831.87	32.509
832.05	35.910
832.22	45.699
832.39	36.042
832.56	37.079
832.74	32.710
832.91	34.751
833.08	37.585
833.25	30.028
833.42	37.658
833.60	35.100
833.77	29.147
833.94	26.078
834.11	27.056
834.28	25.703
834.45	30.978
834.63	26.544
834.80	28.062
834.97	28.251
835.14	26.493
835.31	25.264
835.49	26.343
835.66	25.568
835.83	26.226
836.00	21.200
836.17	27.053
836.34	27.219
836.52	28.758
836.69	29.095
836.86	29.428
837.03	32.836
837.20	31.296
837.37	31.192
837.55	34.902
837.72	33.243
837.89	34.490
838.06	34.170
838.23	40.030
838.40	40.606
838.58	37.467
838.75	43.650
838.92	43.001
839.09	52.988
839.26	45.963
839.43	53.125
839.60	51.626
839.78	55.671
839.95	49.539
840.12	52.885
840.29	51.948
840.46	48.761
840.63	42.970
840.80	44.752
840.98	48.688
841.15	47.979
841.32	44.271
841.49	36.960
841.66	45.368
841.83	43.155
842.00	39.561
842.17	48.615
842.34	41.522
842.52	51.321
842.69	55.941
842.86	53.925
843.03	61.345
843.20	58.769
843.37	60.390
843.54	59.626
843.71	58.570
843.88	74.682
844.06	70.000
844.23	66.568
844.40	47.507
844.57	57.768
844.74	65.204
844.91	74.729
845.08	72.669
845.25	81.262
845.42	75.974
845.59	70.952
845.76	61.664
845.94	82.867
846.11	76.874
846.28	76.854
846.45	78.707
846.62	88.567
846.79	75.993
846.96	74.904
847.13	81.514
847.30	81.770
847.47	68.402
847.64	70.510
847.81	93.585
847.98	94.118
848.15	72.263
848.32	86.172
848.50	89.414
848.67	76.727
848.84	87.636
849.01	89.462
849.18	94.143
849.35	111.329
849.52	86.858
849.69	75.581
849.86	112.426
850.03	73.092
850.20	90.323
850.37	83.061
850.54	108.997
850.71	107.661
850.88	79.678
851.05	98.442
851.22	89.256
851.39	93.603
851.56	72.852
851.73	96.743
851.90	79.303
852.07	77.302
852.24	100.000
852.41	93.548
852.58	116.321
852.75	97.463
852.92	97.555
853.09	105.310
853.26	80.435
853.43	97.810
853.60	74.753
853.77	101.282
853.94	90.196
854.11	103.672
854.28	92.415
854.45	105.157
854.62	89.823
854.79	111.876
854.96	99.292
855.13	102.802
855.30	90.864
855.47	120.430
855.64	80.808
855.81	94.783
855.98	99.553
856.15	106.787
856.32	96.623
856.49	99.200
856.66	91.770
856.83	82.906
857.00	100.266
857.17	91.455
857.34	96.536
857.51	77.367
857.68	113.472
857.85	85.193
858.02	92.952
858.19	79.210
858.36	78.082
858.53	117.258
858.70	94.820
858.87	98.495
859.04	78.507
859.21	109.406
859.38	104.193
859.55	104.513
859.72	103.857
859.89	101.828
860.05	100.645
860.22	89.670
860.39	81.366
860.56	111.141
860.73	102.968
860.90	94.670
861.07	101.205
861.24	79.630
861.41	98.945
861.58	77.728
861.75	114.921
861.92	100.448
862.09	85.714
862.26	116.000
862.43	109.028
862.59	120.274
862.76	125.258
862.93	97.660
863.10	102.100
863.27	82.174
863.44	89.880
863.61	85.491
863.78	103.254
863.95	127.987
864.12	104.832
864.29	106.250
864.45	107.463
864.62	95.894
864.79	75.185
864.96	105.583
865.13	82.685
865.30	88.584
865.47	84.440
865.64	120.244
865.81	90.127
865.97	94.372
866.14	75.052
866.31	100.779
866.48	94.141
866.65	84.464
866.82	99.101
866.99	137.394
867.16	93.873
867.33	99.760
867.49	98.592
867.66	105.392
867.83	139.088
868.00	111.719
868.17	75.227
868.34	116.121
868.51	98.759
868.67	116.298
868.84	94.471
869.01	107.455
869.18	74.339
869.35	107.558
869.52	114.894
869.69	98.762
869.85	95.516
870.02	103.194
870.19	100.509
870.36	87.970
870.53	88.739
870.70	109.501
870.86	83.727
871.03	86.824
871.20	113.437
871.37	97.748
871.54	101.719
871.71	85.791
871.87	101.323
872.04	81.070
872.21	97.297
872.38	112.189
872.55	100.518
872.72	89.342
872.88	88.525
873.05	87.583
873.22	91.971
873.39	96.845
873.56	93.367
873.72	91.574
873.89	96.296
874.06	101.146
874.23	89.931
874.40	98.630
874.56	92.784
874.73	79.753
874.90	74.828
875.07	86.747
875.24	89.021
875.40	92.506
875.57	103.933
875.74	108.750
875.91	88.196
876.08	80.092
876.24	117.417
876.41	79.916
876.58	113.814
876.75	88.861
876.92	87.420
877.08	98.578
877.25	84.842
877.42	80.747
877.59	85.714
877.75	97.685
877.92	84.979
878.09	90.989
878.26	78.807
878.42	122.867
878.59	108.428
878.76	86.364
878.93	125.141
879.09	93.805
879.26	77.679
879.43	120.925
879.60	93.738
879.76	71.452
879.93	73.126
880.10	70.018
880.27	68.627
880.43	69.463
880.60	72.366
880.77	51.537
880.94	57.053
881.10	52.771
881.27	47.249
881.44	38.590
881.61	38.951
881.77	40.433
881.94	28.562
882.11	29.475
882.28	26.308
882.44	25.549
882.61	24.523
882.78	29.691
882.94	27.769
883.11	28.699
883.28	25.423
883.45	27.486
883.61	22.663
883.78	23.869
883.95	25.471
884.11	22.942
884.28	20.901
>>>>>End Processed Spectral Data<<<<<
