SpectraSuite Data File
++++++++++++++++++++++++++++++++++++
Date: Tue Sep 24 03:32:35 EST 2019
User: sgrac
Dark Spectrum Present: Yes
Reference Spectrum Present: Yes
Number of Sampled Component Spectra: 1
Spectrometers: USB4E01596
Integration Time (usec): 100000 (USB4E01596)
Spectra Averaged: 3 (USB4E01596)
Boxcar Smoothing: 0 (USB4E01596)
Correct for Electrical Dark: No (USB4E01596)
Strobe/Lamp Enabled: Yes (USB4E01596)
Correct for Detector Non-linearity: No (USB4E01596)
Correct for Stray Light: No (USB4E01596)
Number of Pixels in Processed Spectrum: 3648
>>>>>Begin Processed Spectral Data<<<<<
178.44	1450.000
178.66	1450.000
178.87	1450.000
179.09	698.113
179.30	702.222
179.52	-1423.333
179.74	790.566
179.95	646.269
180.17	-18100.000
180.38	-13733.333
180.60	478.652
180.82	-3300.000
181.03	1113.514
181.25	-1786.957
181.46	608.333
181.68	4022.222
181.89	-1704.167
182.11	683.333
182.33	1342.857
182.54	794.737
182.76	-780.000
182.97	290.683
183.19	1022.222
183.40	4911.111
183.62	463.415
183.84	664.000
184.05	858.696
184.27	502.469
184.48	-1872.222
184.70	494.624
184.91	553.947
185.13	576.316
185.34	489.247
185.56	1275.000
185.78	1562.500
185.99	2150.000
186.21	422.500
186.42	916.667
186.64	423.656
186.85	804.167
187.07	-4040.000
187.28	-1476.471
187.50	-40100.000
187.72	38800.000
187.93	-1837.500
188.15	941.860
188.36	632.432
188.58	618.919
188.79	-5914.286
189.01	-3500.000
189.22	1648.000
189.44	496.512
189.65	663.636
189.87	-5328.571
190.09	988.235
190.30	1152.632
190.52	2276.190
190.73	6283.333
190.95	1084.211
191.16	454.430
191.38	3654.545
191.59	2642.857
191.81	1208.824
192.02	1004.255
192.24	834.694
192.45	2170.588
192.67	454.545
192.88	468.367
193.10	637.879
193.31	479.798
193.53	1068.421
193.74	-33700.000
193.96	712.676
194.18	411.321
194.39	495.652
194.61	469.444
194.82	388.136
195.04	455.140
195.25	0.000
195.47	-38200.000
195.68	415.000
195.90	467.059
196.11	542.169
196.33	946.512
196.54	400.000
196.76	1066.667
196.97	-3550.000
197.19	536.047
197.40	870.175
197.62	683.019
197.83	428.846
198.05	630.137
198.26	0.000
198.48	-684.444
198.69	1410.000
198.91	5114.286
199.12	-9100.000
199.34	461.111
199.55	-35300.000
199.77	2700.000
199.98	612.676
200.20	359.504
200.41	582.895
200.63	1270.588
200.84	-3023.077
201.06	512.658
201.27	1544.000
201.49	857.447
201.70	550.575
201.91	632.394
202.13	714.925
202.34	-1660.000
202.56	319.014
202.77	4737.500
202.99	6362.500
203.20	705.797
203.42	1070.270
203.63	3925.000
203.85	431.933
204.06	730.769
204.28	372.881
204.49	1363.636
204.71	-1112.500
204.92	341.304
205.14	1335.484
205.35	904.762
205.56	476.190
205.78	-858.000
205.99	1071.795
206.21	821.053
206.42	515.152
206.64	1817.391
206.85	518.072
207.07	-620.968
207.28	1636.000
207.50	540.217
207.71	718.750
207.93	10600.000
208.14	1202.632
208.35	-3075.000
208.57	-1175.862
208.78	316.084
209.00	927.500
209.21	420.792
209.43	-5850.000
209.64	268.750
209.86	678.947
210.07	983.333
210.28	1262.069
210.50	6100.000
210.71	1196.774
210.93	-2253.333
211.14	661.818
211.36	437.500
211.57	1459.259
211.78	4111.111
212.00	-2177.778
212.21	1002.439
212.43	851.786
212.64	545.122
212.86	1765.217
213.07	564.706
213.29	2571.429
213.50	346.825
213.71	589.157
213.93	326.154
214.14	382.906
214.36	436.471
214.57	-3920.000
214.78	1064.103
215.00	392.562
215.21	810.000
215.43	1444.000
215.64	429.630
215.86	400.000
216.07	10400.000
216.28	646.269
216.50	504.902
216.71	1462.069
216.93	-806.977
217.14	486.869
217.35	657.143
217.57	365.812
217.78	567.742
218.00	417.172
218.21	491.549
218.42	1466.667
218.64	2713.333
218.85	862.500
219.07	341.176
219.28	644.615
219.49	391.743
219.71	651.429
219.92	1136.000
220.14	969.565
220.35	3436.364
220.56	790.244
220.78	1154.545
220.99	549.231
221.21	587.838
221.42	562.162
221.63	9125.000
221.85	1450.000
222.06	1108.333
222.28	578.481
222.49	389.247
222.70	400.000
222.92	833.333
223.13	2011.111
223.34	1121.875
223.56	310.236
223.77	267.361
223.99	408.889
224.20	267.123
224.41	528.000
224.63	404.082
224.84	285.000
225.05	354.400
225.27	703.922
225.48	402.020
225.69	366.667
225.91	408.434
226.12	258.673
226.34	249.162
226.55	185.957
226.76	232.632
226.98	209.375
227.19	195.098
227.40	196.970
227.62	166.505
227.83	133.978
228.04	120.181
228.26	113.814
228.47	96.129
228.69	81.837
228.90	70.642
229.11	63.040
229.33	57.462
229.54	50.119
229.75	40.942
229.97	52.443
230.18	44.933
230.39	35.915
230.61	43.184
230.82	45.035
231.03	36.656
231.25	47.770
231.46	56.203
231.67	51.145
231.89	54.657
232.10	49.155
232.31	60.451
232.53	69.268
232.74	68.819
232.95	81.546
233.17	64.161
233.38	63.652
233.59	71.361
233.81	72.945
234.02	78.300
234.23	73.519
234.45	71.292
234.66	61.818
234.87	65.581
235.09	72.657
235.30	65.262
235.51	65.352
235.73	54.038
235.94	54.075
236.15	63.016
236.36	61.457
236.58	57.100
236.79	68.612
237.00	63.543
237.22	65.714
237.43	63.545
237.64	61.500
237.86	50.277
238.07	76.983
238.28	60.593
238.50	55.556
238.71	63.609
238.92	56.101
239.13	65.007
239.35	62.941
239.56	52.789
239.77	61.255
239.99	47.713
240.20	57.799
240.41	50.667
240.63	40.926
240.84	50.766
241.05	39.585
241.26	38.222
241.48	39.791
241.69	30.956
241.90	29.070
242.12	23.106
242.33	23.064
242.54	21.047
242.75	20.347
242.97	20.407
243.18	18.166
243.39	15.731
243.61	17.238
243.82	19.411
244.03	16.840
244.24	17.114
244.46	20.368
244.67	17.893
244.88	19.569
245.09	22.005
245.31	21.532
245.52	23.529
245.73	23.871
245.95	30.437
246.16	19.534
246.37	17.817
246.58	19.075
246.80	17.603
247.01	18.440
247.22	12.173
247.43	13.831
247.65	11.846
247.86	11.438
248.07	10.526
248.28	8.463
248.50	8.516
248.71	11.189
248.92	7.834
249.13	10.485
249.35	9.967
249.56	11.878
249.77	10.818
249.98	11.895
250.20	18.212
250.41	13.462
250.62	18.969
250.83	16.898
251.05	22.295
251.26	22.095
251.47	22.234
251.68	22.198
251.90	19.016
252.11	18.428
252.32	23.314
252.53	20.233
252.75	19.060
252.96	18.222
253.17	16.564
253.38	17.059
253.59	19.943
253.81	20.681
254.02	18.972
254.23	16.250
254.44	20.612
254.66	21.489
254.87	22.180
255.08	27.433
255.29	25.289
255.50	27.723
255.72	25.637
255.93	27.994
256.14	31.638
256.35	26.375
256.57	32.762
256.78	23.452
256.99	25.515
257.20	27.413
257.41	24.905
257.63	26.166
257.84	25.523
258.05	26.116
258.26	15.902
258.47	23.179
258.69	16.237
258.90	15.235
259.11	16.693
259.32	15.620
259.53	10.756
259.75	12.689
259.96	8.421
260.17	10.832
260.38	8.294
260.59	7.635
260.81	7.809
261.02	7.691
261.23	6.556
261.44	7.837
261.65	7.388
261.87	7.348
262.08	7.066
262.29	9.333
262.50	11.630
262.71	10.406
262.92	11.499
263.14	10.358
263.35	12.631
263.56	18.420
263.77	18.289
263.98	18.226
264.20	18.137
264.41	20.422
264.62	16.534
264.83	16.716
265.04	19.361
265.25	15.468
265.47	20.679
265.68	18.130
265.89	20.228
266.10	14.867
266.31	17.055
266.52	15.688
266.74	18.976
266.95	15.616
267.16	16.338
267.37	15.252
267.58	13.692
267.79	13.021
268.01	11.317
268.22	9.553
268.43	12.997
268.64	14.119
268.85	12.370
269.06	11.709
269.27	14.625
269.49	14.221
269.70	12.970
269.91	12.687
270.12	13.026
270.33	15.679
270.54	11.952
270.75	12.745
270.97	12.765
271.18	12.912
271.39	13.424
271.60	13.294
271.81	10.226
272.02	11.024
272.23	11.105
272.45	8.837
272.66	8.480
272.87	10.026
273.08	8.445
273.29	10.675
273.50	7.817
273.71	11.356
273.92	7.934
274.14	10.262
274.35	10.972
274.56	10.029
274.77	9.412
274.98	9.663
275.19	11.949
275.40	11.001
275.61	9.081
275.83	13.037
276.04	11.689
276.25	15.494
276.46	13.307
276.67	14.698
276.88	12.318
277.09	12.518
277.30	13.204
277.51	13.071
277.73	10.501
277.94	13.252
278.15	11.695
278.36	13.487
278.57	10.697
278.78	11.970
278.99	9.313
279.20	13.555
279.41	14.135
279.62	11.895
279.84	10.089
280.05	11.360
280.26	11.835
280.47	13.175
280.68	12.270
280.89	9.570
281.10	13.039
281.31	13.487
281.52	11.411
281.73	10.629
281.94	10.737
282.16	12.145
282.37	10.895
282.58	11.096
282.79	12.444
283.00	9.757
283.21	8.479
283.42	8.572
283.63	10.320
283.84	10.255
284.05	8.574
284.26	10.312
284.47	10.280
284.68	8.216
284.89	6.694
285.11	9.550
285.32	8.580
285.53	10.350
285.74	8.967
285.95	8.153
286.16	7.916
286.37	5.796
286.58	8.538
286.79	6.452
287.00	7.476
287.21	8.070
287.42	8.639
287.63	6.434
287.84	7.356
288.05	8.812
288.26	7.580
288.48	7.951
288.69	7.304
288.90	10.292
289.11	9.022
289.32	7.028
289.53	7.889
289.74	8.444
289.95	9.116
290.16	8.575
290.37	6.574
290.58	8.340
290.79	6.146
291.00	6.392
291.21	7.107
291.42	7.481
291.63	7.601
291.84	7.603
292.05	8.460
292.26	7.095
292.47	7.968
292.68	7.621
292.89	7.526
293.10	7.732
293.31	8.164
293.52	7.830
293.73	8.526
293.94	9.885
294.15	9.667
294.36	9.691
294.57	8.433
294.79	8.989
295.00	7.622
295.21	9.404
295.42	7.088
295.63	9.137
295.84	7.475
296.05	7.901
296.26	7.127
296.47	7.186
296.68	6.337
296.89	8.186
297.10	6.628
297.31	7.964
297.52	6.599
297.73	6.180
297.94	6.012
298.15	6.173
298.36	5.357
298.57	5.586
298.78	6.508
298.99	6.612
299.20	5.660
299.41	6.832
299.62	6.926
299.83	7.081
300.04	7.084
300.25	6.944
300.46	8.827
300.67	7.970
300.88	6.872
301.09	6.238
301.30	9.160
301.50	5.840
301.71	8.281
301.92	9.490
302.13	8.773
302.34	7.412
302.55	8.933
302.76	7.572
302.97	7.852
303.18	9.486
303.39	9.342
303.60	9.802
303.81	9.812
304.02	8.372
304.23	8.210
304.44	8.352
304.65	8.838
304.86	6.671
305.07	6.731
305.28	8.073
305.49	7.032
305.70	9.161
305.91	8.198
306.12	7.660
306.33	7.458
306.54	8.158
306.75	8.848
306.96	10.153
307.17	6.684
307.38	9.506
307.58	8.677
307.79	9.349
308.00	9.104
308.21	10.823
308.42	7.984
308.63	7.038
308.84	8.446
309.05	8.004
309.26	5.994
309.47	6.490
309.68	8.260
309.89	9.047
310.10	7.935
310.31	6.957
310.52	7.731
310.73	8.046
310.94	5.836
311.14	6.942
311.35	5.246
311.56	6.955
311.77	5.718
311.98	5.062
312.19	5.804
312.40	6.275
312.61	4.867
312.82	6.984
313.03	6.390
313.24	8.011
313.45	7.337
313.66	7.736
313.86	7.939
314.07	7.745
314.28	8.096
314.49	7.489
314.70	6.782
314.91	8.218
315.12	8.242
315.33	7.208
315.54	7.563
315.75	7.682
315.96	7.694
316.16	7.682
316.37	9.769
316.58	8.208
316.79	9.290
317.00	8.128
317.21	9.421
317.42	9.270
317.63	10.121
317.84	9.570
318.05	8.932
318.25	7.369
318.46	6.986
318.67	8.260
318.88	8.338
319.09	6.876
319.30	9.990
319.51	8.839
319.72	7.540
319.93	8.438
320.13	7.502
320.34	8.641
320.55	7.117
320.76	9.837
320.97	7.580
321.18	10.509
321.39	8.912
321.60	8.881
321.80	8.729
322.01	9.877
322.22	7.946
322.43	8.569
322.64	7.016
322.85	7.765
323.06	9.336
323.27	7.255
323.47	9.542
323.68	8.442
323.89	7.698
324.10	8.571
324.31	7.582
324.52	7.467
324.73	7.898
324.93	7.313
325.14	6.224
325.35	8.141
325.56	7.999
325.77	8.452
325.98	8.702
326.19	7.661
326.39	6.366
326.60	6.286
326.81	7.950
327.02	7.892
327.23	7.846
327.44	7.914
327.64	5.768
327.85	7.579
328.06	6.658
328.27	8.615
328.48	8.240
328.69	7.927
328.90	7.253
329.10	8.972
329.31	8.250
329.52	8.547
329.73	8.252
329.94	7.739
330.15	7.166
330.35	8.530
330.56	8.688
330.77	8.188
330.98	7.319
331.19	7.982
331.39	8.459
331.60	9.542
331.81	7.094
332.02	7.798
332.23	8.987
332.44	7.827
332.64	7.824
332.85	8.022
333.06	7.550
333.27	8.275
333.48	6.425
333.68	5.498
333.89	7.903
334.10	6.086
334.31	7.373
334.52	8.637
334.72	7.850
334.93	6.791
335.14	6.101
335.35	7.659
335.56	7.502
335.76	7.420
335.97	9.489
336.18	6.696
336.39	7.457
336.60	7.227
336.80	6.898
337.01	7.997
337.22	6.401
337.43	8.343
337.64	7.144
337.84	7.868
338.05	6.931
338.26	8.260
338.47	6.874
338.68	6.507
338.88	7.244
339.09	7.026
339.30	7.111
339.51	6.225
339.71	6.932
339.92	6.788
340.13	7.034
340.34	6.607
340.55	7.160
340.75	6.658
340.96	7.366
341.17	8.141
341.38	6.167
341.58	7.610
341.79	7.271
342.00	6.359
342.21	7.264
342.41	7.303
342.62	6.976
342.83	8.333
343.04	7.418
343.24	5.651
343.45	6.528
343.66	6.174
343.87	5.339
344.07	5.618
344.28	6.496
344.49	6.644
344.70	6.009
344.90	6.687
345.11	5.599
345.32	5.569
345.53	6.916
345.73	5.583
345.94	6.408
346.15	6.126
346.36	4.874
346.56	6.443
346.77	5.472
346.98	6.808
347.19	5.493
347.39	4.884
347.60	5.179
347.81	5.809
348.02	7.811
348.22	5.944
348.43	6.772
348.64	6.950
348.84	5.082
349.05	5.552
349.26	7.409
349.47	5.074
349.67	7.114
349.88	6.545
350.09	6.851
350.30	7.927
350.50	5.965
350.71	5.864
350.92	5.505
351.12	6.228
351.33	5.832
351.54	6.490
351.74	5.764
351.95	5.195
352.16	6.214
352.37	6.439
352.57	6.083
352.78	6.551
352.99	5.920
353.19	7.717
353.40	5.770
353.61	6.492
353.82	6.047
354.02	6.945
354.23	6.700
354.44	5.969
354.64	7.461
354.85	5.817
355.06	5.347
355.26	4.864
355.47	6.404
355.68	7.096
355.88	5.983
356.09	5.305
356.30	5.022
356.51	5.807
356.71	5.367
356.92	4.796
357.13	6.590
357.33	6.849
357.54	4.905
357.75	5.345
357.95	4.747
358.16	5.468
358.37	6.625
358.57	5.059
358.78	4.899
358.99	5.318
359.19	4.620
359.40	6.642
359.61	4.856
359.81	6.297
360.02	5.429
360.23	4.915
360.43	5.291
360.64	5.645
360.85	5.265
361.05	4.703
361.26	5.098
361.47	5.486
361.67	4.560
361.88	4.063
362.09	4.666
362.29	4.158
362.50	3.835
362.70	3.411
362.91	5.072
363.12	3.956
363.32	3.441
363.53	4.165
363.74	4.301
363.94	3.638
364.15	4.159
364.36	5.921
364.56	4.137
364.77	5.669
364.98	6.321
365.18	5.214
365.39	5.754
365.59	5.337
365.80	4.746
366.01	5.961
366.21	5.437
366.42	5.323
366.63	5.995
366.83	5.168
367.04	4.219
367.24	5.242
367.45	4.374
367.66	4.424
367.86	5.901
368.07	4.774
368.28	4.978
368.48	5.048
368.69	5.019
368.89	6.153
369.10	5.531
369.31	5.589
369.51	5.773
369.72	6.141
369.92	7.099
370.13	5.962
370.34	5.010
370.54	4.421
370.75	5.379
370.95	5.119
371.16	4.574
371.37	4.841
371.57	5.328
371.78	5.394
371.98	6.119
372.19	4.686
372.40	4.767
372.60	5.971
372.81	4.869
373.01	4.775
373.22	4.755
373.43	5.950
373.63	4.733
373.84	4.972
374.04	4.459
374.25	5.229
374.46	4.954
374.66	6.203
374.87	5.566
375.07	4.604
375.28	4.480
375.48	5.714
375.69	5.700
375.90	4.569
376.10	4.303
376.31	5.094
376.51	5.260
376.72	4.769
376.92	3.764
377.13	4.807
377.34	5.174
377.54	4.946
377.75	5.166
377.95	4.927
378.16	4.849
378.36	5.634
378.57	5.459
378.77	4.615
378.98	4.919
379.19	5.248
379.39	4.092
379.60	5.006
379.80	4.371
380.01	5.386
380.21	4.972
380.42	5.904
380.62	4.407
380.83	4.920
381.04	4.821
381.24	5.453
381.45	5.248
381.65	4.762
381.86	4.941
382.06	6.543
382.27	4.939
382.47	5.202
382.68	6.116
382.88	5.464
383.09	5.750
383.29	5.717
383.50	6.805
383.71	5.052
383.91	5.109
384.12	5.307
384.32	5.543
384.53	5.490
384.73	5.124
384.94	4.720
385.14	5.457
385.35	5.021
385.55	5.697
385.76	5.556
385.96	5.426
386.17	5.771
386.37	5.911
386.58	5.388
386.78	7.015
386.99	4.859
387.19	6.127
387.40	4.942
387.60	7.374
387.81	6.820
388.01	5.899
388.22	6.390
388.42	7.640
388.63	8.475
388.83	7.779
389.04	6.179
389.24	6.717
389.45	7.230
389.65	6.513
389.86	7.883
390.06	6.572
390.27	6.272
390.47	6.759
390.68	6.678
390.88	8.945
391.09	8.400
391.29	8.740
391.50	8.219
391.70	8.737
391.91	6.967
392.11	8.285
392.32	8.784
392.52	9.561
392.73	8.923
392.93	9.251
393.14	9.084
393.34	9.235
393.55	9.694
393.75	9.499
393.95	8.755
394.16	10.880
394.36	10.546
394.57	11.346
394.77	10.428
394.98	10.402
395.18	11.026
395.39	9.892
395.59	10.758
395.80	10.544
396.00	10.579
396.21	11.860
396.41	10.134
396.61	12.250
396.82	11.282
397.02	12.974
397.23	12.139
397.43	10.975
397.64	9.972
397.84	12.589
398.05	9.858
398.25	12.405
398.45	11.297
398.66	12.857
398.86	11.999
399.07	12.577
399.27	11.928
399.48	13.999
399.68	11.739
399.89	12.816
400.09	13.385
400.29	12.614
400.50	12.759
400.70	13.025
400.91	12.465
401.11	12.717
401.32	13.186
401.52	11.896
401.72	12.021
401.93	15.073
402.13	12.892
402.34	12.289
402.54	11.775
402.75	14.588
402.95	9.990
403.15	13.898
403.36	11.232
403.56	13.832
403.77	11.641
403.97	12.748
404.17	12.280
404.38	13.791
404.58	11.587
404.79	13.417
404.99	12.533
405.19	12.811
405.40	12.829
405.60	13.721
405.81	12.262
406.01	13.438
406.21	13.066
406.42	13.834
406.62	13.241
406.83	14.602
407.03	13.658
407.23	13.293
407.44	12.670
407.64	13.818
407.85	13.149
408.05	13.830
408.25	13.666
408.46	13.892
408.66	13.675
408.87	12.648
409.07	12.840
409.27	12.512
409.48	13.152
409.68	13.904
409.88	11.347
410.09	12.740
410.29	12.980
410.50	14.661
410.70	11.798
410.90	13.293
411.11	12.027
411.31	12.494
411.51	13.657
411.72	13.639
411.92	11.956
412.12	12.644
412.33	12.267
412.53	12.255
412.74	10.801
412.94	13.573
413.14	12.643
413.35	13.456
413.55	13.019
413.75	13.867
413.96	12.197
414.16	12.873
414.36	12.290
414.57	12.657
414.77	12.092
414.97	12.853
415.18	12.040
415.38	12.804
415.58	12.399
415.79	12.014
415.99	11.838
416.19	13.306
416.40	11.820
416.60	13.159
416.80	11.674
417.01	12.710
417.21	11.052
417.41	12.815
417.62	12.054
417.82	12.630
418.02	11.577
418.23	12.918
418.43	12.233
418.63	12.833
418.84	12.518
419.04	12.020
419.24	12.796
419.45	12.775
419.65	12.647
419.85	12.524
420.06	12.800
420.26	12.564
420.46	12.500
420.67	12.939
420.87	12.595
421.07	12.413
421.28	12.544
421.48	12.665
421.68	12.554
421.88	12.637
422.09	12.490
422.29	12.530
422.49	12.479
422.70	12.930
422.90	12.648
423.10	12.622
423.31	12.619
423.51	12.785
423.71	12.608
423.91	12.602
424.12	12.659
424.32	12.693
424.52	12.532
424.73	12.196
424.93	12.564
425.13	12.171
425.33	12.184
425.54	12.451
425.74	12.620
425.94	12.789
426.15	12.508
426.35	12.418
426.55	13.293
426.75	12.723
426.96	12.327
427.16	12.829
427.36	12.562
427.57	13.397
427.77	12.582
427.97	12.657
428.17	12.360
428.38	12.750
428.58	11.440
428.78	13.237
428.98	12.231
429.19	12.606
429.39	11.516
429.59	12.305
429.79	11.142
430.00	11.272
430.20	10.942
430.40	12.064
430.60	11.597
430.81	11.394
431.01	11.588
431.21	12.380
431.41	11.738
431.62	11.800
431.82	11.582
432.02	12.216
432.22	11.586
432.43	10.816
432.63	10.578
432.83	11.582
433.03	10.874
433.24	11.186
433.44	11.561
433.64	11.732
433.84	11.781
434.05	12.062
434.25	11.353
434.45	12.266
434.65	12.597
434.85	12.382
435.06	12.223
435.26	12.261
435.46	11.934
435.66	12.383
435.87	11.762
436.07	12.734
436.27	12.087
436.47	12.556
436.67	12.184
436.88	12.939
437.08	12.316
437.28	12.101
437.48	12.057
437.69	12.187
437.89	11.877
438.09	12.195
438.29	11.572
438.49	12.380
438.70	11.992
438.90	11.922
439.10	11.663
439.30	11.850
439.50	11.150
439.71	12.296
439.91	11.868
440.11	12.836
440.31	11.638
440.51	11.858
440.72	11.673
440.92	12.035
441.12	12.354
441.32	12.472
441.52	12.141
441.72	12.290
441.93	12.537
442.13	12.408
442.33	12.567
442.53	13.235
442.73	12.037
442.94	12.526
443.14	12.747
443.34	12.548
443.54	12.844
443.74	12.794
443.94	12.588
444.15	12.341
444.35	12.194
444.55	12.480
444.75	12.098
444.95	12.345
445.15	12.359
445.36	12.235
445.56	11.894
445.76	12.428
445.96	11.926
446.16	11.772
446.36	11.893
446.57	12.439
446.77	11.840
446.97	12.225
447.17	12.982
447.37	12.339
447.57	12.462
447.77	12.380
447.98	12.578
448.18	12.669
448.38	12.449
448.58	12.642
448.78	13.021
448.98	12.583
449.18	12.546
449.39	12.937
449.59	12.568
449.79	12.821
449.99	12.594
450.19	13.032
450.39	12.280
450.59	12.725
450.79	12.570
451.00	13.234
451.20	13.828
451.40	12.413
451.60	11.914
451.80	13.177
452.00	12.304
452.20	13.085
452.40	12.222
452.61	12.485
452.81	11.993
453.01	12.989
453.21	11.984
453.41	12.461
453.61	11.952
453.81	12.651
454.01	12.600
454.21	12.557
454.42	12.962
454.62	12.654
454.82	12.074
455.02	12.566
455.22	12.075
455.42	12.967
455.62	11.525
455.82	12.146
456.02	12.130
456.23	11.881
456.43	12.283
456.63	12.363
456.83	11.565
457.03	12.303
457.23	12.339
457.43	12.806
457.63	11.917
457.83	12.715
458.03	11.553
458.23	11.940
458.43	11.762
458.64	12.008
458.84	11.870
459.04	12.248
459.24	11.730
459.44	11.740
459.64	12.064
459.84	12.040
460.04	11.883
460.24	11.869
460.44	12.336
460.64	12.502
460.84	12.235
461.04	12.327
461.24	12.679
461.45	12.568
461.65	12.597
461.85	12.396
462.05	12.850
462.25	12.743
462.45	13.388
462.65	12.603
462.85	12.353
463.05	12.801
463.25	12.012
463.45	12.897
463.65	12.251
463.85	12.426
464.05	12.341
464.25	12.650
464.45	12.852
464.65	12.145
464.85	11.928
465.05	11.822
465.26	12.145
465.46	12.713
465.66	12.590
465.86	12.625
466.06	12.451
466.26	12.222
466.46	11.690
466.66	11.933
466.86	12.214
467.06	12.201
467.26	11.842
467.46	12.440
467.66	11.882
467.86	12.192
468.06	11.944
468.26	11.870
468.46	12.169
468.66	12.525
468.86	11.814
469.06	12.863
469.26	11.933
469.46	12.517
469.66	12.254
469.86	12.827
470.06	12.158
470.26	12.806
470.46	11.685
470.66	12.573
470.86	11.623
471.06	12.492
471.26	11.636
471.46	12.660
471.66	12.273
471.86	12.248
472.06	11.747
472.26	12.531
472.46	12.749
472.66	12.651
472.86	11.711
473.06	12.875
473.26	12.386
473.46	12.360
473.66	12.272
473.86	12.837
474.06	12.290
474.26	12.948
474.46	11.521
474.66	12.781
474.86	12.418
475.06	12.689
475.26	12.039
475.46	12.513
475.66	12.117
475.86	12.603
476.06	12.750
476.26	12.691
476.46	12.333
476.66	12.343
476.86	12.202
477.06	12.762
477.26	11.914
477.46	12.460
477.65	12.476
477.85	12.827
478.05	12.048
478.25	12.937
478.45	12.560
478.65	12.833
478.85	12.899
479.05	13.024
479.25	12.919
479.45	12.995
479.65	12.897
479.85	12.890
480.05	12.482
480.25	13.307
480.45	13.075
480.65	13.164
480.85	12.664
481.05	13.303
481.25	12.997
481.44	13.137
481.64	12.457
481.84	12.989
482.04	12.489
482.24	12.673
482.44	12.544
482.64	12.781
482.84	12.764
483.04	12.558
483.24	12.493
483.44	11.982
483.64	11.768
483.84	11.943
484.04	12.264
484.23	12.401
484.43	12.929
484.63	13.345
484.83	13.845
485.03	14.369
485.23	14.375
485.43	14.040
485.63	14.188
485.83	13.668
486.03	13.973
486.23	13.746
486.42	13.768
486.62	13.765
486.82	13.264
487.02	13.139
487.22	13.115
487.42	12.870
487.62	12.790
487.82	12.653
488.02	12.850
488.22	12.991
488.41	13.002
488.61	13.065
488.81	13.181
489.01	13.497
489.21	13.691
489.41	13.674
489.61	13.861
489.81	13.808
490.01	13.832
490.20	13.771
490.40	13.570
490.60	13.859
490.80	13.418
491.00	13.496
491.20	12.974
491.40	12.884
491.60	13.017
491.79	12.933
491.99	13.065
492.19	12.906
492.39	13.122
492.59	13.063
492.79	13.261
492.99	13.527
493.19	13.722
493.38	14.005
493.58	14.119
493.78	14.183
493.98	14.250
494.18	14.221
494.38	14.190
494.58	13.990
494.77	13.783
494.97	14.230
495.17	13.620
495.37	13.643
495.57	13.807
495.77	13.561
495.96	13.686
496.16	14.072
496.36	13.321
496.56	13.495
496.76	13.494
496.96	13.334
497.15	13.607
497.35	13.516
497.55	13.574
497.75	13.466
497.95	13.311
498.15	13.684
498.34	14.051
498.54	13.805
498.74	14.228
498.94	14.401
499.14	13.857
499.34	14.164
499.53	14.123
499.73	14.093
499.93	13.968
500.13	14.050
500.33	13.773
500.52	14.130
500.72	13.954
500.92	14.058
501.12	14.079
501.32	14.088
501.52	14.474
501.71	14.278
501.91	14.165
502.11	14.429
502.31	14.117
502.51	13.880
502.70	14.168
502.90	14.610
503.10	14.036
503.30	14.291
503.50	14.415
503.69	14.148
503.89	14.282
504.09	14.695
504.29	14.041
504.48	14.452
504.68	14.590
504.88	14.645
505.08	13.975
505.28	14.218
505.47	14.673
505.67	15.191
505.87	14.507
506.07	14.732
506.27	14.419
506.46	15.046
506.66	14.349
506.86	14.788
507.06	15.002
507.25	14.902
507.45	14.329
507.65	14.800
507.85	14.508
508.04	14.791
508.24	14.487
508.44	15.227
508.64	14.772
508.83	14.909
509.03	14.685
509.23	14.703
509.43	14.965
509.63	14.905
509.82	15.261
510.02	14.756
510.22	14.843
510.42	15.157
510.61	15.273
510.81	15.141
511.01	14.964
511.21	15.134
511.40	14.769
511.60	15.037
511.80	15.608
511.99	14.782
512.19	15.099
512.39	15.472
512.59	15.221
512.78	15.263
512.98	15.550
513.18	15.313
513.38	15.317
513.57	15.407
513.77	15.506
513.97	15.448
514.17	15.353
514.36	15.545
514.56	15.289
514.76	15.898
514.95	15.639
515.15	15.930
515.35	15.392
515.55	15.614
515.74	16.053
515.94	15.418
516.14	15.429
516.33	15.467
516.53	15.541
516.73	15.618
516.93	15.087
517.12	15.619
517.32	15.392
517.52	15.883
517.71	15.257
517.91	15.215
518.11	15.087
518.30	15.496
518.50	14.934
518.70	14.948
518.90	15.416
519.09	15.043
519.29	15.692
519.49	15.708
519.68	15.484
519.88	15.258
520.08	15.805
520.27	15.897
520.47	15.973
520.67	15.898
520.86	16.466
521.06	15.910
521.26	15.814
521.45	15.843
521.65	16.103
521.85	16.342
522.04	15.666
522.24	16.319
522.44	15.914
522.63	16.132
522.83	16.111
523.03	16.165
523.22	16.125
523.42	16.010
523.62	16.298
523.81	15.883
524.01	16.311
524.21	16.113
524.40	15.930
524.60	15.757
524.80	15.882
524.99	15.702
525.19	15.589
525.39	15.392
525.58	15.689
525.78	15.533
525.98	15.874
526.17	15.726
526.37	15.644
526.57	15.845
526.76	16.036
526.96	15.777
527.15	15.913
527.35	16.097
527.55	16.018
527.74	15.758
527.94	15.639
528.14	15.300
528.33	15.263
528.53	15.107
528.72	15.295
528.92	15.479
529.12	15.731
529.31	15.766
529.51	16.088
529.71	16.230
529.90	16.423
530.10	16.398
530.29	16.818
530.49	16.899
530.69	17.117
530.88	16.970
531.08	16.726
531.28	16.458
531.47	16.548
531.67	16.499
531.86	16.341
532.06	16.211
532.26	16.207
532.45	16.294
532.65	16.493
532.84	15.726
533.04	15.705
533.24	15.600
533.43	15.732
533.63	16.101
533.82	16.356
534.02	16.292
534.22	16.281
534.41	16.328
534.61	16.805
534.80	16.624
535.00	16.677
535.19	16.874
535.39	17.379
535.59	17.341
535.78	16.902
535.98	16.592
536.17	16.638
536.37	16.598
536.57	16.219
536.76	16.403
536.96	16.523
537.15	16.824
537.35	16.919
537.54	16.415
537.74	16.848
537.93	16.809
538.13	16.926
538.33	17.129
538.52	17.770
538.72	17.525
538.91	17.331
539.11	17.300
539.30	17.161
539.50	17.494
539.70	17.141
539.89	17.139
540.09	17.177
540.28	16.855
540.48	16.869
540.67	16.624
540.87	16.307
541.06	16.234
541.26	16.447
541.45	16.452
541.65	16.701
541.85	16.896
542.04	16.883
542.24	17.278
542.43	17.015
542.63	17.377
542.82	17.456
543.02	17.440
543.21	17.459
543.41	18.028
543.60	18.166
543.80	17.904
543.99	17.796
544.19	17.731
544.38	17.934
544.58	17.778
544.77	17.619
544.97	17.981
545.16	18.234
545.36	17.851
545.56	18.111
545.75	17.872
545.95	18.260
546.14	17.802
546.34	17.927
546.53	17.975
546.73	17.943
546.92	17.859
547.12	18.117
547.31	18.094
547.51	18.341
547.70	17.983
547.90	18.297
548.09	18.337
548.29	18.586
548.48	18.680
548.68	19.034
548.87	18.902
549.07	19.022
549.26	18.889
549.46	19.358
549.65	19.426
549.84	19.151
550.04	18.901
550.23	18.754
550.43	19.345
550.62	18.767
550.82	19.109
551.01	19.033
551.21	19.072
551.40	19.344
551.60	19.156
551.79	18.916
551.99	19.092
552.18	18.980
552.38	19.475
552.57	19.196
552.77	19.483
552.96	19.827
553.16	19.692
553.35	20.032
553.54	19.425
553.74	19.877
553.93	19.937
554.13	19.988
554.32	19.977
554.52	20.266
554.71	19.894
554.91	19.836
555.10	20.257
555.29	20.340
555.49	20.249
555.68	20.674
555.88	20.104
556.07	19.986
556.27	20.625
556.46	20.483
556.66	20.798
556.85	20.510
557.04	20.876
557.24	20.321
557.43	20.565
557.63	20.540
557.82	20.324
558.02	20.828
558.21	21.450
558.40	20.420
558.60	21.115
558.79	21.177
558.99	21.124
559.18	21.341
559.38	21.170
559.57	21.757
559.76	21.695
559.96	22.141
560.15	21.688
560.35	21.158
560.54	21.752
560.73	21.247
560.93	21.917
561.12	21.130
561.32	22.069
561.51	22.103
561.70	22.063
561.90	21.724
562.09	22.173
562.29	22.073
562.48	22.248
562.67	22.270
562.87	22.961
563.06	21.953
563.26	22.921
563.45	21.912
563.64	22.773
563.84	22.342
564.03	23.257
564.23	22.530
564.42	23.074
564.61	21.990
564.81	23.199
565.00	22.972
565.20	23.191
565.39	22.964
565.58	22.916
565.78	23.101
565.97	23.211
566.16	23.440
566.36	22.849
566.55	23.088
566.74	23.346
566.94	23.429
567.13	23.284
567.33	23.621
567.52	24.363
567.71	23.815
567.91	23.683
568.10	24.545
568.29	23.878
568.49	24.294
568.68	24.014
568.87	23.748
569.07	23.969
569.26	24.216
569.45	24.174
569.65	23.630
569.84	23.980
570.04	24.226
570.23	24.640
570.42	23.491
570.62	24.262
570.81	24.539
571.00	23.900
571.20	24.638
571.39	24.017
571.58	24.705
571.78	24.215
571.97	24.916
572.16	24.442
572.36	24.181
572.55	25.025
572.74	24.967
572.94	24.743
573.13	24.534
573.32	24.636
573.51	24.685
573.71	24.790
573.90	24.870
574.09	25.038
574.29	24.782
574.48	25.107
574.67	25.006
574.87	25.474
575.06	24.688
575.25	24.931
575.45	25.170
575.64	25.152
575.83	24.815
576.03	25.795
576.22	25.036
576.41	25.480
576.60	24.948
576.80	25.378
576.99	25.390
577.18	25.668
577.38	25.228
577.57	25.573
577.76	25.806
577.95	25.232
578.15	24.954
578.34	25.334
578.53	24.958
578.73	25.341
578.92	25.260
579.11	25.822
579.30	25.981
579.50	25.250
579.69	26.019
579.88	25.921
580.08	25.022
580.27	25.231
580.46	25.718
580.65	25.518
580.85	26.099
581.04	26.108
581.23	25.440
581.42	25.730
581.62	25.615
581.81	25.607
582.00	25.603
582.19	25.304
582.39	25.231
582.58	25.762
582.77	25.971
582.96	25.314
583.16	25.049
583.35	26.058
583.54	25.777
583.73	25.338
583.93	25.808
584.12	25.377
584.31	25.211
584.50	26.177
584.70	25.788
584.89	25.513
585.08	24.976
585.27	25.983
585.47	25.162
585.66	25.999
585.85	25.275
586.04	25.469
586.24	25.873
586.43	25.347
586.62	25.766
586.81	25.298
587.00	24.497
587.20	25.398
587.39	25.652
587.58	25.387
587.77	24.809
587.97	24.872
588.16	25.135
588.35	25.632
588.54	25.458
588.73	25.237
588.93	25.953
589.12	25.264
589.31	24.507
589.50	25.423
589.69	25.363
589.89	25.643
590.08	24.880
590.27	25.449
590.46	25.209
590.65	25.260
590.85	24.648
591.04	25.624
591.23	25.213
591.42	25.424
591.61	25.038
591.81	25.254
592.00	25.596
592.19	25.843
592.38	25.275
592.57	25.208
592.77	25.680
592.96	25.462
593.15	25.608
593.34	25.536
593.53	25.533
593.72	25.199
593.92	24.887
594.11	25.893
594.30	25.159
594.49	26.043
594.68	25.864
594.87	25.404
595.07	25.090
595.26	25.034
595.45	24.989
595.64	25.791
595.83	24.966
596.02	25.597
596.22	25.499
596.41	25.716
596.60	25.325
596.79	25.215
596.98	25.493
597.17	25.388
597.37	25.615
597.56	25.558
597.75	25.472
597.94	25.752
598.13	26.171
598.32	26.027
598.51	26.126
598.71	26.640
598.90	25.768
599.09	26.488
599.28	26.568
599.47	26.725
599.66	26.177
599.85	26.313
600.05	26.170
600.24	26.791
600.43	26.136
600.62	26.211
600.81	26.010
601.00	26.368
601.19	25.532
601.38	26.202
601.58	26.546
601.77	26.131
601.96	25.378
602.15	26.500
602.34	26.957
602.53	27.059
602.72	26.247
602.91	26.385
603.10	26.466
603.30	27.168
603.49	26.277
603.68	26.468
603.87	26.070
604.06	26.326
604.25	26.044
604.44	26.582
604.63	25.816
604.82	26.260
605.01	26.164
605.21	26.326
605.40	26.106
605.59	26.644
605.78	26.187
605.97	26.377
606.16	26.571
606.35	26.442
606.54	26.030
606.73	27.293
606.92	27.002
607.11	27.194
607.30	26.988
607.50	26.685
607.69	26.530
607.88	26.939
608.07	26.458
608.26	26.647
608.45	26.456
608.64	26.628
608.83	25.167
609.02	26.278
609.21	25.232
609.40	26.722
609.59	26.245
609.78	26.075
609.97	26.151
610.16	25.972
610.35	25.566
610.55	25.828
610.74	26.432
610.93	26.607
611.12	26.131
611.31	26.440
611.50	26.535
611.69	26.612
611.88	26.086
612.07	26.443
612.26	25.544
612.45	26.283
612.64	25.793
612.83	25.265
613.02	25.550
613.21	25.545
613.40	26.022
613.59	26.418
613.78	25.770
613.97	26.129
614.16	24.857
614.35	25.654
614.54	24.867
614.73	24.784
614.92	25.090
615.11	25.250
615.30	25.027
615.49	25.011
615.68	25.326
615.87	25.359
616.07	25.367
616.26	24.157
616.45	25.018
616.64	24.011
616.83	23.514
617.02	25.624
617.21	23.822
617.40	24.627
617.59	24.565
617.78	24.679
617.97	24.713
618.16	24.942
618.35	22.789
618.54	24.932
618.73	24.098
618.92	24.622
619.11	23.740
619.30	25.378
619.49	23.597
619.68	24.882
619.86	23.851
620.05	24.596
620.24	23.702
620.43	24.646
620.62	23.498
620.81	24.249
621.00	24.558
621.19	24.975
621.38	23.761
621.57	25.116
621.76	22.986
621.95	24.933
622.14	23.496
622.33	24.646
622.52	23.989
622.71	23.938
622.90	23.897
623.09	23.905
623.28	24.148
623.47	24.137
623.66	24.092
623.85	23.637
624.04	22.821
624.23	24.213
624.42	23.335
624.61	24.214
624.80	22.266
624.99	23.516
625.18	22.468
625.36	24.142
625.55	23.806
625.74	23.275
625.93	22.786
626.12	23.807
626.31	23.502
626.50	24.118
626.69	23.711
626.88	23.915
627.07	24.302
627.26	23.683
627.45	23.856
627.64	23.020
627.83	23.287
628.02	23.335
628.20	24.001
628.39	23.621
628.58	23.170
628.77	23.992
628.96	23.398
629.15	24.539
629.34	23.830
629.53	23.107
629.72	22.831
629.91	24.549
630.10	22.955
630.29	23.573
630.47	23.359
630.66	23.805
630.85	22.762
631.04	23.279
631.23	23.301
631.42	23.609
631.61	23.141
631.80	23.223
631.99	22.215
632.18	23.376
632.36	22.275
632.55	23.931
632.74	23.076
632.93	22.794
633.12	22.632
633.31	23.468
633.50	22.340
633.69	23.649
633.88	22.442
634.06	22.937
634.25	22.680
634.44	23.218
634.63	22.511
634.82	23.897
635.01	22.747
635.20	22.163
635.39	21.890
635.57	22.668
635.76	22.731
635.95	22.951
636.14	22.576
636.33	22.769
636.52	22.453
636.71	22.731
636.89	22.059
637.08	23.066
637.27	22.140
637.46	21.966
637.65	22.128
637.84	22.965
638.03	22.072
638.21	23.447
638.40	22.878
638.59	22.837
638.78	22.945
638.97	24.280
639.16	23.036
639.34	22.726
639.53	20.969
639.72	23.393
639.91	22.096
640.10	22.508
640.29	23.707
640.47	23.536
640.66	22.350
640.85	23.783
641.04	20.883
641.23	22.738
641.42	21.422
641.60	22.288
641.79	22.029
641.98	21.653
642.17	22.120
642.36	22.553
642.54	21.430
642.73	22.268
642.92	20.908
643.11	22.584
643.30	22.066
643.49	22.007
643.67	20.790
643.86	21.539
644.05	20.951
644.24	22.729
644.43	22.020
644.61	22.745
644.80	21.613
644.99	22.344
645.18	23.426
645.37	22.608
645.55	21.228
645.74	22.789
645.93	21.697
646.12	22.735
646.31	22.524
646.49	22.299
646.68	22.042
646.87	22.255
647.06	21.670
647.24	21.693
647.43	21.551
647.62	23.939
647.81	20.932
648.00	22.954
648.18	21.349
648.37	21.906
648.56	21.914
648.75	21.550
648.93	21.744
649.12	23.373
649.31	22.123
649.50	22.105
649.68	20.121
649.87	22.304
650.06	19.930
650.25	22.669
650.43	19.693
650.62	21.979
650.81	21.524
651.00	23.365
651.18	21.145
651.37	22.032
651.56	20.904
651.75	22.446
651.93	20.623
652.12	22.278
652.31	20.439
652.50	22.543
652.68	22.126
652.87	22.366
653.06	21.835
653.25	22.141
653.43	20.214
653.62	21.531
653.81	21.273
654.00	21.384
654.18	20.662
654.37	22.014
654.56	20.401
654.74	20.080
654.93	20.838
655.12	21.224
655.31	21.588
655.49	21.567
655.68	19.215
655.87	19.141
656.05	19.026
656.24	21.012
656.43	18.708
656.62	21.139
656.80	20.180
656.99	19.859
657.18	19.399
657.36	20.581
657.55	19.933
657.74	21.456
657.93	20.161
658.11	22.025
658.30	20.817
658.49	19.483
658.67	20.390
658.86	19.090
659.05	18.811
659.23	19.648
659.42	18.964
659.61	18.315
659.79	18.738
659.98	19.549
660.17	19.025
660.35	19.475
660.54	19.909
660.73	19.982
660.91	19.316
661.10	19.844
661.29	18.115
661.47	18.666
661.66	18.924
661.85	18.367
662.03	17.933
662.22	16.789
662.41	16.215
662.59	17.399
662.78	16.137
662.97	17.319
663.15	15.986
663.34	17.212
663.53	16.077
663.71	17.231
663.90	15.343
664.09	16.970
664.27	16.688
664.46	15.461
664.65	14.811
664.83	15.133
665.02	16.111
665.21	14.171
665.39	13.493
665.58	16.687
665.77	14.752
665.95	16.095
666.14	13.205
666.32	16.014
666.51	14.443
666.70	14.007
666.88	14.379
667.07	14.172
667.26	12.931
667.44	14.709
667.63	14.580
667.81	14.365
668.00	13.945
668.19	17.442
668.37	13.959
668.56	16.116
668.75	12.600
668.93	15.676
669.12	13.668
669.30	14.473
669.49	12.427
669.68	15.176
669.86	15.014
670.05	12.868
670.23	13.763
670.42	13.131
670.61	14.342
670.79	16.075
670.98	14.665
671.16	15.444
671.35	12.767
671.54	15.316
671.72	13.787
671.91	15.228
672.09	12.692
672.28	14.575
672.46	15.968
672.65	16.205
672.84	14.922
673.02	17.157
673.21	12.304
673.39	13.283
673.58	14.934
673.77	15.731
673.95	14.808
674.14	15.883
674.32	13.037
674.51	16.247
674.69	13.707
674.88	15.347
675.07	13.660
675.25	18.324
675.44	14.036
675.62	14.625
675.81	13.231
675.99	18.312
676.18	16.677
676.36	14.711
676.55	15.538
676.74	17.341
676.92	17.310
677.11	16.825
677.29	15.924
677.48	17.284
677.66	16.972
677.85	16.362
678.03	15.919
678.22	17.695
678.40	16.355
678.59	15.347
678.78	15.232
678.96	16.166
679.15	15.972
679.33	18.994
679.52	17.735
679.70	17.464
679.89	16.380
680.07	17.805
680.26	15.191
680.44	16.498
680.63	16.917
680.81	17.566
681.00	15.394
681.18	16.778
681.37	17.724
681.55	18.489
681.74	17.973
681.92	18.606
682.11	18.113
682.29	18.005
682.48	18.443
682.66	19.195
682.85	17.724
683.03	18.996
683.22	19.536
683.40	21.134
683.59	18.403
683.77	20.249
683.96	18.379
684.14	21.464
684.33	18.584
684.51	22.730
684.70	20.337
684.88	21.855
685.07	19.804
685.25	21.443
685.44	20.154
685.62	21.693
685.81	19.622
685.99	23.053
686.18	20.023
686.36	22.444
686.55	20.099
686.73	21.317
686.92	22.998
687.10	23.425
687.29	23.739
687.47	24.479
687.65	24.658
687.84	23.593
688.02	26.183
688.21	25.385
688.39	23.058
688.58	26.376
688.76	24.852
688.95	24.609
689.13	23.386
689.32	26.075
689.50	25.636
689.68	26.387
689.87	25.264
690.05	27.405
690.24	26.352
690.42	27.693
690.61	27.545
690.79	29.543
690.98	27.969
691.16	29.309
691.34	26.732
691.53	28.184
691.71	27.284
691.90	30.121
692.08	26.800
692.27	30.610
692.45	31.028
692.63	31.076
692.82	31.485
693.00	30.301
693.19	28.045
693.37	32.560
693.56	28.525
693.74	32.651
693.92	30.679
694.11	33.107
694.29	32.040
694.48	31.997
694.66	31.905
694.84	34.133
695.03	31.101
695.21	34.714
695.40	33.701
695.58	35.998
695.76	31.330
695.95	35.703
696.13	32.505
696.32	36.118
696.50	38.133
696.68	35.063
696.87	34.304
697.05	35.576
697.24	35.221
697.42	36.793
697.60	35.433
697.79	36.314
697.97	36.587
698.16	38.212
698.34	33.611
698.52	37.607
698.71	36.140
698.89	36.545
699.07	36.797
699.26	37.768
699.44	36.627
699.63	37.507
699.81	36.591
699.99	37.836
700.18	37.157
700.36	38.722
700.54	38.739
700.73	38.801
700.91	38.536
701.09	39.206
701.28	39.158
701.46	39.790
701.64	37.707
701.83	39.804
702.01	37.009
702.20	42.266
702.38	40.279
702.56	38.972
702.75	38.494
702.93	38.948
703.11	39.263
703.30	41.016
703.48	39.938
703.66	40.603
703.85	42.128
704.03	43.700
704.21	39.902
704.40	42.494
704.58	39.680
704.76	42.758
704.95	39.511
705.13	42.559
705.31	40.677
705.50	42.961
705.68	38.624
705.86	42.679
706.04	41.997
706.23	43.872
706.41	42.939
706.59	42.528
706.78	39.851
706.96	42.855
707.14	42.497
707.33	42.565
707.51	40.401
707.69	43.428
707.88	40.753
708.06	44.100
708.24	41.577
708.42	43.532
708.61	40.433
708.79	44.552
708.97	44.581
709.16	43.336
709.34	46.226
709.52	44.896
709.71	43.026
709.89	42.393
710.07	42.223
710.25	43.316
710.44	42.209
710.62	43.793
710.80	41.874
710.98	45.843
711.17	42.590
711.35	44.863
711.53	41.705
711.72	44.414
711.90	45.732
712.08	44.477
712.26	40.170
712.45	43.552
712.63	42.736
712.81	45.418
712.99	41.977
713.18	46.090
713.36	45.121
713.54	44.884
713.72	42.928
713.91	42.809
714.09	41.221
714.27	45.065
714.45	43.909
714.64	45.184
714.82	42.041
715.00	45.866
715.18	44.492
715.37	46.256
715.55	45.210
715.73	45.163
715.91	45.678
716.10	44.502
716.28	41.899
716.46	44.209
716.64	43.319
716.83	44.892
717.01	43.477
717.19	46.145
717.37	44.185
717.55	46.393
717.74	44.911
717.92	45.729
718.10	42.382
718.28	43.935
718.47	42.062
718.65	47.395
718.83	43.820
719.01	48.469
719.19	44.248
719.38	44.090
719.56	44.600
719.74	43.082
719.92	41.645
720.10	42.697
720.29	42.525
720.47	46.954
720.65	45.743
720.83	47.843
721.01	41.322
721.20	41.933
721.38	42.887
721.56	45.470
721.74	44.878
721.92	44.907
722.11	42.761
722.29	43.345
722.47	42.476
722.65	44.937
722.83	44.033
723.01	45.542
723.20	44.422
723.38	44.804
723.56	42.555
723.74	50.236
723.92	46.502
724.10	46.417
724.29	40.836
724.47	49.017
724.65	43.070
724.83	46.951
725.01	43.461
725.19	48.715
725.38	43.342
725.56	46.608
725.74	46.254
725.92	48.200
726.10	43.871
726.28	48.013
726.46	47.533
726.65	45.780
726.83	46.324
727.01	45.869
727.19	44.803
727.37	45.920
727.55	44.906
727.73	46.554
727.92	43.800
728.10	45.895
728.28	41.855
728.46	48.695
728.64	46.295
728.82	47.768
729.00	45.785
729.19	48.557
729.37	44.927
729.55	48.990
729.73	43.449
729.91	48.144
730.09	47.204
730.27	46.561
730.45	46.089
730.63	46.164
730.82	43.094
731.00	46.934
731.18	44.081
731.36	48.276
731.54	42.114
731.72	48.072
731.90	43.822
732.08	47.613
732.26	43.389
732.45	47.204
732.63	46.770
732.81	47.367
732.99	46.082
733.17	48.974
733.35	46.123
733.53	49.185
733.71	44.871
733.89	47.615
734.07	45.921
734.25	50.957
734.44	47.538
734.62	47.005
734.80	42.379
734.98	47.695
735.16	46.333
735.34	47.918
735.52	47.319
735.70	48.376
735.88	44.831
736.06	48.141
736.24	48.532
736.42	49.658
736.60	47.999
736.78	49.439
736.97	43.081
737.15	50.821
737.33	44.097
737.51	50.513
737.69	47.127
737.87	49.144
738.05	49.321
738.23	47.773
738.41	47.264
738.59	48.246
738.77	46.340
738.95	50.742
739.13	47.491
739.31	46.845
739.49	47.358
739.67	51.855
739.85	47.943
740.03	50.627
740.21	47.238
740.39	51.738
740.57	49.250
740.75	47.802
740.93	48.113
741.11	48.844
741.30	47.568
741.48	49.346
741.66	50.038
741.84	46.996
742.02	44.235
742.20	50.163
742.38	47.452
742.56	52.125
742.74	45.472
742.92	47.625
743.10	43.272
743.28	50.085
743.46	47.695
743.64	46.143
743.82	43.213
744.00	49.448
744.18	47.758
744.36	48.539
744.54	44.646
744.72	53.429
744.90	48.245
745.08	47.793
745.26	49.157
745.44	52.028
745.62	43.854
745.80	49.489
745.98	44.788
746.16	51.424
746.34	48.205
746.52	50.625
746.70	43.132
746.87	47.290
747.05	47.405
747.23	51.257
747.41	46.968
747.59	52.273
747.77	45.254
747.95	45.350
748.13	46.887
748.31	50.048
748.49	48.689
748.67	49.856
748.85	45.774
749.03	49.304
749.21	45.972
749.39	51.368
749.57	42.152
749.75	45.782
749.93	47.091
750.11	48.100
750.29	51.221
750.47	50.121
750.65	43.956
750.83	48.648
751.01	41.524
751.18	48.104
751.36	42.056
751.54	46.283
751.72	47.027
751.90	46.790
752.08	43.111
752.26	45.547
752.44	47.287
752.62	46.105
752.80	48.413
752.98	50.503
753.16	45.996
753.34	47.145
753.52	48.991
753.69	48.666
753.87	46.956
754.05	47.475
754.23	45.703
754.41	45.760
754.59	46.182
754.77	48.464
754.95	44.910
755.13	49.851
755.31	45.981
755.49	44.549
755.66	45.610
755.84	48.947
756.02	43.821
756.20	50.523
756.38	45.466
756.56	48.220
756.74	41.430
756.92	43.444
757.10	43.650
757.28	49.326
757.45	52.932
757.63	51.508
757.81	41.396
757.99	53.401
758.17	47.334
758.35	51.063
758.53	48.077
758.71	50.091
758.88	46.332
759.06	47.970
759.24	41.946
759.42	46.254
759.60	45.411
759.78	48.235
759.96	42.258
760.13	47.190
760.31	40.024
760.49	43.782
760.67	40.966
760.85	43.889
761.03	39.906
761.21	40.733
761.38	41.088
761.56	41.734
761.74	40.046
761.92	49.608
762.10	35.639
762.28	45.980
762.46	38.293
762.63	41.832
762.81	40.266
762.99	41.998
763.17	41.432
763.35	42.669
763.53	39.696
763.70	44.546
763.88	46.782
764.06	46.215
764.24	41.832
764.42	45.746
764.60	44.676
764.77	44.733
764.95	44.420
765.13	45.055
765.31	43.190
765.49	47.267
765.66	41.883
765.84	44.170
766.02	42.682
766.20	45.959
766.38	40.815
766.56	45.044
766.73	42.506
766.91	44.769
767.09	44.254
767.27	47.334
767.45	40.878
767.62	45.423
767.80	40.468
767.98	46.677
768.16	41.434
768.33	47.894
768.51	40.305
768.69	46.571
768.87	46.197
769.05	41.762
769.22	41.838
769.40	48.096
769.58	45.765
769.76	46.594
769.94	44.520
770.11	43.091
770.29	45.497
770.47	46.193
770.65	44.811
770.82	46.964
771.00	43.520
771.18	48.333
771.36	45.211
771.53	45.025
771.71	44.658
771.89	48.052
772.07	45.522
772.25	48.619
772.42	43.015
772.60	48.791
772.78	42.313
772.96	48.962
773.13	48.312
773.31	46.402
773.49	43.416
773.67	43.963
773.84	45.103
774.02	47.632
774.20	41.465
774.37	49.977
774.55	41.302
774.73	51.485
774.91	45.326
775.08	47.307
775.26	45.598
775.44	46.555
775.62	46.804
775.79	42.917
775.97	40.641
776.15	46.020
776.32	40.515
776.50	49.864
776.68	45.163
776.86	51.503
777.03	45.674
777.21	44.691
777.39	40.703
777.56	47.358
777.74	47.516
777.92	49.756
778.10	41.142
778.27	47.306
778.45	49.187
778.63	45.802
778.80	47.269
778.98	47.343
779.16	51.485
779.34	47.928
779.51	46.856
779.69	48.872
779.87	43.972
780.04	46.992
780.22	42.595
780.40	47.344
780.57	45.606
780.75	43.607
780.93	46.045
781.10	47.930
781.28	53.720
781.46	42.576
781.63	50.964
781.81	53.999
781.99	38.596
782.16	45.364
782.34	38.564
782.52	43.741
782.69	48.558
782.87	47.083
783.05	41.280
783.22	48.433
783.40	41.396
783.58	47.174
783.75	44.938
783.93	51.157
784.11	44.180
784.28	51.160
784.46	41.310
784.64	48.297
784.81	46.740
784.99	54.215
785.17	44.924
785.34	46.850
785.52	39.771
785.69	50.113
785.87	43.597
786.05	46.053
786.22	53.670
786.40	52.427
786.58	42.938
786.75	49.274
786.93	45.212
787.11	44.934
787.28	43.066
787.46	47.845
787.63	50.607
787.81	42.049
787.99	49.635
788.16	44.230
788.34	41.573
788.51	42.923
788.69	41.637
788.87	40.241
789.04	44.331
789.22	43.836
789.39	42.566
789.57	41.415
789.75	39.658
789.92	46.227
790.10	40.165
790.27	46.204
790.45	40.070
790.63	44.563
790.80	38.750
790.98	45.368
791.15	43.627
791.33	40.231
791.51	41.953
791.68	46.844
791.86	45.637
792.03	45.065
792.21	41.067
792.39	47.801
792.56	45.017
792.74	51.916
792.91	47.197
793.09	43.820
793.26	43.230
793.44	50.242
793.62	42.014
793.79	48.153
793.97	49.369
794.14	45.374
794.32	47.683
794.49	48.432
794.67	35.544
794.84	40.743
795.02	39.976
795.20	47.282
795.37	40.834
795.55	44.903
795.72	51.486
795.90	43.754
796.07	45.869
796.25	46.652
796.42	42.575
796.60	44.004
796.77	43.618
796.95	45.140
797.13	38.090
797.30	47.040
797.48	39.108
797.65	46.586
797.83	45.526
798.00	49.132
798.18	40.032
798.35	46.786
798.53	46.842
798.70	47.950
798.88	47.255
799.05	44.750
799.23	41.643
799.40	44.743
799.58	44.469
799.75	46.237
799.93	43.600
800.10	45.807
800.28	43.816
800.45	48.317
800.63	37.410
800.80	48.381
800.98	46.122
801.15	47.537
801.33	44.472
801.50	48.633
801.68	41.501
801.85	47.798
802.03	36.923
802.20	39.818
802.38	43.676
802.55	36.904
802.73	49.621
802.90	43.464
803.08	40.631
803.25	49.613
803.43	48.757
803.60	49.670
803.78	46.191
803.95	46.599
804.13	46.105
804.30	48.215
804.48	45.051
804.65	47.782
804.83	47.754
805.00	44.385
805.17	50.467
805.35	41.617
805.52	35.492
805.70	53.445
805.87	45.850
806.05	48.020
806.22	43.325
806.40	43.523
806.57	43.693
806.75	49.150
806.92	51.047
807.09	48.579
807.27	46.704
807.44	45.625
807.62	45.512
807.79	43.458
807.97	43.655
808.14	46.717
808.31	41.057
808.49	47.923
808.66	44.850
808.84	38.462
809.01	47.324
809.19	39.283
809.36	54.920
809.53	45.081
809.71	44.884
809.88	57.488
810.06	49.110
810.23	43.481
810.41	52.945
810.58	47.905
810.75	43.433
810.93	45.610
811.10	43.407
811.28	45.855
811.45	48.434
811.62	41.821
811.80	47.755
811.97	46.031
812.15	54.949
812.32	41.473
812.49	59.216
812.67	44.453
812.84	42.062
813.02	47.326
813.19	44.181
813.36	54.003
813.54	43.581
813.71	48.777
813.89	49.878
814.06	53.425
814.23	50.280
814.41	45.358
814.58	57.710
814.75	49.871
814.93	54.276
815.10	49.625
815.28	42.879
815.45	43.709
815.62	53.970
815.80	44.100
815.97	49.659
816.14	46.873
816.32	46.248
816.49	44.099
816.66	51.248
816.84	42.392
817.01	52.827
817.18	47.143
817.36	46.289
817.53	46.265
817.71	35.020
817.88	50.382
818.05	44.503
818.23	45.294
818.40	46.351
818.57	44.427
818.75	41.986
818.92	37.134
819.09	45.503
819.27	46.545
819.44	43.390
819.61	39.781
819.79	40.728
819.96	46.331
820.13	41.775
820.31	43.836
820.48	40.912
820.65	42.441
820.82	38.752
821.00	43.446
821.17	34.430
821.34	40.439
821.52	39.336
821.69	44.130
821.86	38.286
822.04	40.928
822.21	42.838
822.38	45.457
822.56	42.970
822.73	46.384
822.90	44.424
823.07	47.185
823.25	43.924
823.42	44.181
823.59	42.720
823.77	45.053
823.94	43.600
824.11	43.454
824.29	42.184
824.46	44.190
824.63	43.856
824.80	43.635
824.98	43.260
825.15	45.854
825.32	40.255
825.49	42.009
825.67	42.460
825.84	44.352
826.01	39.326
826.19	44.007
826.36	39.641
826.53	44.908
826.70	38.696
826.88	44.695
827.05	38.826
827.22	39.916
827.39	42.739
827.57	41.101
827.74	40.525
827.91	44.885
828.08	39.861
828.26	43.739
828.43	40.010
828.60	43.734
828.77	41.036
828.95	42.172
829.12	36.361
829.29	38.165
829.46	38.475
829.64	40.234
829.81	36.778
829.98	41.192
830.15	37.753
830.32	41.176
830.50	38.684
830.67	41.328
830.84	39.326
831.01	37.507
831.19	40.346
831.36	41.667
831.53	39.474
831.70	51.799
831.87	45.159
832.05	43.359
832.22	54.001
832.39	40.181
832.56	44.869
832.74	39.970
832.91	35.256
833.08	47.001
833.25	34.177
833.42	41.201
833.60	41.166
833.77	34.836
833.94	36.910
834.11	36.449
834.28	35.062
834.45	38.003
834.63	33.776
834.80	38.843
834.97	39.383
835.14	41.759
835.31	38.422
835.49	36.880
835.66	37.477
835.83	36.776
836.00	34.781
836.17	37.315
836.34	34.735
836.52	35.551
836.69	41.366
836.86	42.981
837.03	40.352
837.20	42.400
837.37	39.925
837.55	39.879
837.72	39.946
837.89	40.709
838.06	49.150
838.23	44.092
838.40	45.022
838.58	38.508
838.75	53.622
838.92	56.633
839.09	56.275
839.26	51.101
839.43	55.324
839.60	60.569
839.78	68.054
839.95	64.176
840.12	53.205
840.29	60.939
840.46	52.924
840.63	50.344
840.80	48.614
840.98	56.018
841.15	49.209
841.32	49.129
841.49	39.378
841.66	58.788
841.83	45.422
842.00	48.860
842.17	56.829
842.34	48.170
842.52	58.638
842.69	63.722
842.86	53.356
843.03	65.678
843.20	61.905
843.37	57.403
843.54	76.471
843.71	58.816
843.88	78.503
844.06	72.381
844.23	72.337
844.40	59.091
844.57	75.847
844.74	66.263
844.91	70.397
845.08	75.241
845.25	88.528
845.42	82.630
845.59	86.644
845.76	82.821
845.94	92.092
846.11	81.585
846.28	84.448
846.45	105.513
846.62	82.594
846.79	66.887
846.96	75.862
847.13	91.725
847.30	81.593
847.47	71.095
847.64	85.255
847.81	86.981
847.98	108.824
848.15	78.102
848.32	84.770
848.50	97.353
848.67	80.364
848.84	95.011
849.01	100.000
849.18	95.011
849.35	105.447
849.52	96.304
849.69	85.349
849.86	106.706
850.03	95.229
850.20	101.613
850.37	74.082
850.54	111.311
850.71	108.871
850.88	78.873
851.05	97.143
851.22	84.628
851.39	96.162
851.56	88.672
851.73	108.429
851.90	92.810
852.07	73.876
852.24	117.548
852.41	100.000
852.58	109.845
852.75	95.349
852.92	96.088
853.09	120.354
853.26	86.739
853.43	101.946
853.60	96.450
853.77	110.897
853.94	113.072
854.11	116.415
854.28	105.190
854.45	91.704
854.62	99.558
854.79	127.078
854.96	105.425
855.13	91.810
855.30	106.667
855.47	122.581
855.64	96.717
855.81	85.870
855.98	108.277
856.15	102.036
856.32	114.026
856.49	119.467
856.66	107.613
856.83	98.932
857.00	120.479
857.17	111.316
857.34	99.769
857.51	85.912
857.68	116.321
857.85	104.292
858.02	112.775
858.19	95.426
858.36	94.521
858.53	111.584
858.70	94.595
858.87	87.097
859.04	84.163
859.21	111.139
859.38	97.904
859.55	126.366
859.72	117.355
859.89	110.183
860.05	115.914
860.22	114.945
860.39	85.300
860.56	114.402
860.73	120.091
860.90	94.456
861.07	124.578
861.24	87.500
861.41	97.679
861.58	96.437
861.75	124.346
861.92	98.879
862.09	100.670
862.26	129.429
862.43	108.102
862.59	119.726
862.76	117.784
862.93	110.213
863.10	102.362
863.27	103.478
863.44	107.711
863.61	106.473
863.78	98.915
863.95	148.742
864.12	93.908
864.29	122.727
864.45	113.682
864.62	113.285
864.79	92.593
864.96	111.408
865.13	96.498
865.30	108.904
865.47	88.994
865.64	116.829
865.81	105.316
865.97	92.641
866.14	99.376
866.31	99.481
866.48	104.444
866.65	95.624
866.82	105.843
866.99	145.892
867.16	75.245
867.33	101.679
867.49	118.779
867.66	107.843
867.83	125.081
868.00	110.937
868.17	85.455
868.34	129.907
868.51	102.730
868.67	106.354
868.84	91.346
869.01	120.308
869.18	111.640
869.35	121.802
869.52	113.032
869.69	108.168
869.85	105.830
870.02	111.548
870.19	126.972
870.36	109.273
870.53	96.847
870.70	114.964
870.86	91.339
871.03	93.647
871.20	102.584
871.37	96.396
871.54	126.934
871.71	107.775
871.87	122.222
872.04	83.745
872.21	115.991
872.38	117.662
872.55	120.984
872.72	95.918
872.88	107.650
873.05	90.466
873.22	99.757
873.39	105.340
873.56	102.041
873.72	99.335
873.89	86.057
874.06	111.175
874.23	106.636
874.40	103.562
874.56	81.649
874.73	107.160
874.90	73.227
875.07	102.169
875.24	91.408
875.40	101.034
875.57	114.045
875.74	113.500
875.91	88.419
876.08	94.737
876.24	129.730
876.41	99.791
876.58	110.811
876.75	101.519
876.92	98.934
877.08	103.555
877.25	95.368
877.42	88.409
877.59	93.582
877.75	90.509
877.92	70.576
878.09	96.484
878.26	77.778
878.42	117.406
878.59	100.911
878.76	85.227
878.93	125.989
879.09	114.381
879.26	83.750
879.43	123.844
879.60	85.714
879.76	86.144
879.93	98.172
880.10	82.765
880.27	72.767
880.43	62.584
880.60	68.048
880.77	69.982
880.94	63.728
881.10	53.735
881.27	57.929
881.44	40.631
881.61	46.502
881.77	47.556
881.94	39.345
882.11	31.963
882.28	35.161
882.44	38.204
882.61	36.155
882.78	40.619
882.94	45.817
883.11	40.823
883.28	41.556
883.45	41.679
883.61	36.995
883.78	37.617
883.95	40.901
884.11	37.799
884.28	36.349
>>>>>End Processed Spectral Data<<<<<
