SpectraSuite Data File
++++++++++++++++++++++++++++++++++++
Date: Tue Sep 24 03:39:26 EST 2019
User: sgrac
Dark Spectrum Present: Yes
Reference Spectrum Present: Yes
Number of Sampled Component Spectra: 1
Spectrometers: USB4E01596
Integration Time (usec): 100000 (USB4E01596)
Spectra Averaged: 3 (USB4E01596)
Boxcar Smoothing: 0 (USB4E01596)
Correct for Electrical Dark: No (USB4E01596)
Strobe/Lamp Enabled: Yes (USB4E01596)
Correct for Detector Non-linearity: No (USB4E01596)
Correct for Stray Light: No (USB4E01596)
Number of Pixels in Processed Spectrum: 3648
>>>>>Begin Processed Spectral Data<<<<<
178.44	1550.000
178.66	1550.000
178.87	1550.000
179.09	733.962
179.30	684.444
179.52	-1440.000
179.74	847.170
179.95	677.612
180.17	-16200.000
180.38	-13200.000
180.60	488.764
180.82	-3414.286
181.03	1005.405
181.25	-1739.130
181.46	529.167
181.68	4211.111
181.89	-1825.000
182.11	663.636
182.33	1297.143
182.54	775.439
182.76	-865.000
182.97	300.621
183.19	897.778
183.40	4344.444
183.62	541.463
183.84	626.667
184.05	906.522
184.27	475.309
184.48	-2277.778
184.70	465.591
184.91	548.684
185.13	611.842
185.34	529.032
185.56	1109.375
185.78	1537.500
185.99	2068.750
186.21	546.250
186.42	778.571
186.64	500.000
186.85	870.833
187.07	-3940.000
187.28	-1858.824
187.50	-39500.000
187.72	42200.000
187.93	-1866.667
188.15	1109.302
188.36	632.432
188.58	609.459
188.79	-5328.571
189.01	-3400.000
189.22	1880.000
189.44	509.302
189.65	586.364
189.87	-6071.429
190.09	870.588
190.30	1221.053
190.52	2176.190
190.73	5750.000
190.95	1005.263
191.16	535.443
191.38	3809.091
191.59	3092.857
191.81	1338.235
192.02	1114.894
192.24	832.653
192.45	2176.471
192.67	528.571
192.88	520.408
193.10	603.030
193.31	455.556
193.53	1028.947
193.74	-34800.000
193.96	669.014
194.18	421.698
194.39	455.435
194.61	478.704
194.82	355.932
195.04	459.813
195.25	0.000
195.47	-41200.000
195.68	498.000
195.90	512.941
196.11	577.108
196.33	837.209
196.54	441.284
196.76	1248.485
196.97	-3308.333
197.19	552.326
197.40	852.632
197.62	805.660
197.83	421.154
198.05	661.644
198.26	0.000
198.48	-722.222
198.69	1396.667
198.91	5528.571
199.12	-9925.000
199.34	496.667
199.55	-35800.000
199.77	2450.000
199.98	715.493
200.20	345.455
200.41	630.263
200.63	1308.824
200.84	-3430.769
201.06	489.873
201.27	1464.000
201.49	1025.532
201.70	555.172
201.91	701.408
202.13	661.194
202.34	-1676.000
202.56	326.761
202.77	4850.000
202.99	6112.500
203.20	611.594
203.42	1151.351
203.63	4787.500
203.85	433.613
204.06	776.923
204.28	366.949
204.49	1348.485
204.71	-1090.625
204.92	354.348
205.14	1393.548
205.35	902.381
205.56	449.524
205.78	-986.000
205.99	1035.897
206.21	745.614
206.42	683.333
206.64	1782.609
206.85	548.193
207.07	-653.226
207.28	1552.000
207.50	523.913
207.71	881.250
207.93	13000.000
208.14	1297.368
208.35	-2783.333
208.57	-1137.931
208.78	310.490
209.00	992.500
209.21	423.762
209.43	-6250.000
209.64	281.250
209.86	680.702
210.07	952.381
210.28	1296.552
210.50	7066.667
210.71	1280.645
210.93	-2693.333
211.14	714.545
211.36	438.542
211.57	1700.000
211.78	5077.778
212.00	-2455.556
212.21	1112.195
212.43	905.357
212.64	518.293
212.86	1952.174
213.07	660.294
213.29	2600.000
213.50	272.222
213.71	587.952
213.93	340.769
214.14	405.128
214.36	472.941
214.57	-4390.000
214.78	1215.385
215.00	452.066
215.21	927.500
215.43	1580.000
215.64	431.481
215.86	420.755
216.07	9650.000
216.28	683.582
216.50	430.392
216.71	1475.862
216.93	-958.140
217.14	448.485
217.35	753.571
217.57	419.658
217.78	662.903
218.00	476.768
218.21	498.592
218.42	1659.259
218.64	2680.000
218.85	816.071
219.07	360.504
219.28	601.538
219.49	456.881
219.71	700.000
219.92	1116.000
220.14	813.043
220.35	3572.727
220.56	1017.073
220.78	1000.000
220.99	564.615
221.21	691.892
221.42	574.324
221.63	9025.000
221.85	1635.714
222.06	1287.500
222.28	529.114
222.49	384.946
222.70	448.000
222.92	761.404
223.13	1833.333
223.34	1221.875
223.56	333.071
223.77	315.972
223.99	495.556
224.20	278.767
224.41	538.667
224.63	465.306
224.84	294.286
225.05	357.600
225.27	749.020
225.48	392.929
225.69	393.750
225.91	512.048
226.12	273.469
226.34	244.693
226.55	196.170
226.76	228.421
226.98	256.875
227.19	189.216
227.40	198.701
227.62	193.689
227.83	134.807
228.04	134.036
228.26	128.228
228.47	102.366
228.69	72.857
228.90	59.633
229.11	59.165
229.33	67.364
229.54	58.950
229.75	49.529
229.97	46.365
230.18	44.012
230.39	33.199
230.61	35.692
230.82	46.941
231.03	44.802
231.25	52.465
231.46	46.774
231.67	56.234
231.89	59.191
232.10	58.310
232.31	62.233
232.53	62.580
232.74	77.953
232.95	75.710
233.17	79.895
233.38	65.997
233.59	72.627
233.81	71.404
234.02	85.172
234.23	61.150
234.45	78.947
234.66	71.091
234.87	69.302
235.09	73.272
235.30	67.297
235.51	68.439
235.73	62.849
235.94	60.031
236.15	71.746
236.36	70.865
236.58	61.734
236.79	59.464
237.00	58.565
237.22	65.556
237.43	59.222
237.64	59.167
237.86	65.097
238.07	81.026
238.28	69.185
238.50	52.249
238.71	70.526
238.92	57.784
239.13	60.740
239.35	67.500
239.56	62.449
239.77	66.849
239.99	52.781
240.20	48.489
240.41	53.576
240.63	48.843
240.84	49.706
241.05	47.031
241.26	39.911
241.48	42.224
241.69	37.069
241.90	29.302
242.12	28.598
242.33	24.568
242.54	22.246
242.75	21.782
242.97	24.195
243.18	20.837
243.39	16.428
243.61	21.940
243.82	17.877
244.03	15.676
244.24	18.121
244.46	21.551
244.67	22.508
244.88	19.569
245.09	23.536
245.31	21.143
245.52	21.990
245.73	28.500
245.95	37.250
246.16	25.831
246.37	19.432
246.58	21.459
246.80	20.261
247.01	17.529
247.22	14.487
247.43	12.760
247.65	13.838
247.86	11.903
248.07	11.234
248.28	9.526
248.50	10.119
248.71	11.529
248.92	8.389
249.13	12.379
249.35	9.087
249.56	12.889
249.77	12.579
249.98	10.800
250.20	18.113
250.41	15.155
250.62	19.331
250.83	19.982
251.05	19.944
251.26	23.833
251.47	21.818
251.68	24.351
251.90	20.546
252.11	23.409
252.32	24.621
252.53	20.768
252.75	20.070
252.96	20.478
253.17	18.789
253.38	17.885
253.59	21.128
253.81	18.789
254.02	16.879
254.23	19.038
254.44	21.063
254.66	23.777
254.87	19.794
255.08	28.136
255.29	28.241
255.50	30.099
255.72	27.223
255.93	35.268
256.14	32.839
256.35	22.381
256.57	30.569
256.78	28.740
256.99	23.787
257.20	29.692
257.41	24.464
257.63	25.662
257.84	21.279
258.05	28.485
258.26	20.224
258.47	19.460
258.69	16.518
258.90	17.264
259.11	18.874
259.32	13.729
259.53	14.329
259.75	13.517
259.96	10.706
260.17	10.551
260.38	10.182
260.59	8.804
260.81	8.171
261.02	8.209
261.23	7.080
261.44	8.025
261.65	8.454
261.87	8.051
262.08	7.643
262.29	9.896
262.50	10.983
262.71	11.472
262.92	11.728
263.14	11.833
263.35	13.711
263.56	19.102
263.77	16.673
263.98	17.583
264.20	21.128
264.41	17.337
264.62	17.204
264.83	18.852
265.04	20.782
265.25	15.558
265.47	19.231
265.68	20.688
265.89	21.449
266.10	13.540
266.31	19.121
266.52	16.550
266.74	18.044
266.95	14.442
267.16	16.118
267.37	17.460
267.58	16.677
267.79	14.760
268.01	12.355
268.22	13.058
268.43	14.281
268.64	13.701
268.85	14.778
269.06	11.159
269.27	16.250
269.49	13.434
269.70	12.354
269.91	13.531
270.12	14.989
270.33	15.938
270.54	15.289
270.75	13.756
270.97	11.343
271.18	12.332
271.39	11.620
271.60	11.995
271.81	10.526
272.02	12.197
272.23	11.917
272.45	11.084
272.66	9.290
272.87	11.710
273.08	7.937
273.29	11.491
273.50	11.026
273.71	10.956
273.92	8.833
274.14	8.964
274.35	11.218
274.56	10.979
274.77	9.975
274.98	10.166
275.19	13.316
275.40	9.559
275.61	11.378
275.83	14.442
276.04	12.751
276.25	15.722
276.46	13.307
276.67	16.200
276.88	12.118
277.09	12.859
277.30	12.721
277.51	14.035
277.73	11.810
277.94	12.726
278.15	13.994
278.36	14.069
278.57	12.038
278.78	13.843
278.99	11.613
279.20	15.321
279.41	15.369
279.62	11.926
279.84	11.632
280.05	12.407
280.26	11.635
280.47	12.849
280.68	12.644
280.89	11.873
281.10	13.233
281.31	15.613
281.52	11.014
281.73	10.917
281.94	11.103
282.16	11.880
282.37	11.623
282.58	12.743
282.79	11.924
283.00	10.652
283.21	8.184
283.42	8.780
283.63	11.043
283.84	9.991
284.05	10.418
284.26	9.144
284.47	10.814
284.68	10.969
284.89	8.373
285.11	9.989
285.32	11.031
285.53	11.267
285.74	9.513
285.95	8.229
286.16	9.128
286.37	7.289
286.58	8.645
286.79	8.073
287.00	8.691
287.21	8.245
287.42	9.267
287.63	6.771
287.84	8.105
288.05	9.607
288.26	8.890
288.48	9.776
288.69	7.462
288.90	9.259
289.11	9.783
289.32	8.742
289.53	8.545
289.74	7.813
289.95	10.260
290.16	9.319
290.37	8.118
290.58	9.194
290.79	7.855
291.00	8.817
291.21	9.434
291.42	9.094
291.63	7.972
291.84	9.309
292.05	9.091
292.26	7.911
292.47	9.120
292.68	7.877
292.89	9.127
293.10	9.494
293.31	9.810
293.52	8.618
293.73	9.614
293.94	10.084
294.15	10.139
294.36	10.799
294.57	10.259
294.79	10.147
295.00	8.804
295.21	9.466
295.42	8.909
295.63	10.437
295.84	8.332
296.05	8.477
296.26	7.146
296.47	8.277
296.68	7.792
296.89	8.238
297.10	8.616
297.31	8.920
297.52	7.260
297.73	7.100
297.94	6.744
298.15	5.872
298.36	6.683
298.57	6.376
298.78	6.330
298.99	6.995
299.20	6.431
299.41	6.976
299.62	7.807
299.83	6.614
300.04	7.617
300.25	8.560
300.46	8.524
300.67	10.323
300.88	8.390
301.09	7.361
301.30	10.862
301.50	6.315
301.71	10.016
301.92	10.564
302.13	8.465
302.34	6.890
302.55	9.189
302.76	8.403
302.97	9.325
303.18	9.506
303.39	9.419
303.60	9.016
303.81	11.306
304.02	8.810
304.23	9.713
304.44	7.637
304.65	8.936
304.86	8.109
305.07	8.719
305.28	7.618
305.49	8.662
305.70	10.346
305.91	9.261
306.12	9.252
306.33	8.422
306.54	8.611
306.75	8.599
306.96	10.381
307.17	8.016
307.38	9.423
307.58	8.568
307.79	9.891
308.00	9.126
308.21	10.947
308.42	8.361
308.63	8.253
308.84	9.900
309.05	8.838
309.26	7.806
309.47	8.322
309.68	8.022
309.89	9.030
310.10	8.317
310.31	7.502
310.52	7.329
310.73	8.904
310.94	6.752
311.14	7.632
311.35	7.926
311.56	8.107
311.77	7.066
311.98	5.234
312.19	6.738
312.40	7.766
312.61	5.943
312.82	8.578
313.03	7.622
313.24	7.531
313.45	8.010
313.66	8.422
313.86	8.864
314.07	7.546
314.28	9.040
314.49	8.586
314.70	8.979
314.91	9.796
315.12	8.357
315.33	9.326
315.54	7.880
315.75	7.430
315.96	7.946
316.16	7.682
316.37	9.004
316.58	8.671
316.79	8.283
317.00	9.750
317.21	11.005
317.42	10.648
317.63	11.386
317.84	9.051
318.05	9.070
318.25	8.910
318.46	9.610
318.67	8.923
318.88	10.167
319.09	10.152
319.30	10.613
319.51	10.611
319.72	8.508
319.93	9.577
320.13	7.703
320.34	9.858
320.55	9.361
320.76	9.731
320.97	8.916
321.18	10.841
321.39	9.187
321.60	10.670
321.80	10.307
322.01	10.390
322.22	9.845
322.43	8.482
322.64	9.036
322.85	7.914
323.06	10.944
323.27	8.641
323.47	9.728
323.68	9.725
323.89	7.935
324.10	10.178
324.31	8.250
324.52	9.458
324.73	9.752
324.93	7.242
325.14	7.632
325.35	9.609
325.56	8.767
325.77	8.955
325.98	8.227
326.19	8.466
326.39	6.487
326.60	7.788
326.81	6.748
327.02	8.895
327.23	7.329
327.44	8.715
327.64	6.151
327.85	9.344
328.06	7.657
328.27	9.531
328.48	8.064
328.69	7.873
328.90	8.018
329.10	9.046
329.31	10.874
329.52	9.029
329.73	8.730
329.94	7.700
330.15	8.557
330.35	9.387
330.56	11.002
330.77	7.055
330.98	9.772
331.19	10.470
331.39	10.423
331.60	8.936
331.81	7.485
332.02	8.637
332.23	9.861
332.44	8.851
332.64	9.325
332.85	8.564
333.06	7.073
333.27	8.293
333.48	6.606
333.68	7.833
333.89	9.264
334.10	7.350
334.31	8.364
334.52	8.445
334.72	7.511
334.93	9.245
335.14	6.972
335.35	8.861
335.56	9.258
335.76	7.261
335.97	8.878
336.18	6.203
336.39	7.065
336.60	8.869
336.80	7.430
337.01	8.624
337.22	7.294
337.43	8.891
337.64	7.787
337.84	8.226
338.05	8.275
338.26	9.400
338.47	7.640
338.68	6.738
338.88	8.473
339.09	6.539
339.30	6.743
339.51	7.263
339.71	7.852
339.92	6.021
340.13	7.050
340.34	7.347
340.55	7.075
340.75	7.109
340.96	7.333
341.17	8.411
341.38	7.844
341.58	9.161
341.79	6.739
342.00	6.677
342.21	7.264
342.41	6.730
342.62	6.819
342.83	8.019
343.04	6.687
343.24	6.415
343.45	6.402
343.66	7.323
343.87	6.990
344.07	7.392
344.28	6.559
344.49	7.642
344.70	7.778
344.90	6.243
345.11	6.672
345.32	7.094
345.53	7.248
345.73	6.979
345.94	7.093
346.15	7.024
346.36	5.810
346.56	6.360
346.77	5.773
346.98	7.535
347.19	7.071
347.39	5.659
347.60	6.075
347.81	6.263
348.02	8.247
348.22	6.520
348.43	7.032
348.64	8.016
348.84	6.333
349.05	7.418
349.26	7.671
349.47	5.696
349.67	7.145
349.88	7.388
350.09	7.490
350.30	8.608
350.50	7.193
350.71	6.570
350.92	6.552
351.12	6.971
351.33	6.935
351.54	7.564
351.74	6.642
351.95	6.288
352.16	6.387
352.37	7.873
352.57	6.497
352.78	7.130
352.99	7.261
353.19	7.836
353.40	6.345
353.61	7.255
353.82	6.744
354.02	6.901
354.23	6.360
354.44	7.581
354.64	7.322
354.85	6.912
355.06	6.227
355.26	5.523
355.47	6.816
355.68	7.636
355.88	6.225
356.09	5.882
356.30	5.589
356.51	6.179
356.71	6.875
356.92	4.537
357.13	6.740
357.33	6.824
357.54	5.327
357.75	5.774
357.95	5.861
358.16	5.723
358.37	6.357
358.57	5.173
358.78	5.710
358.99	5.440
359.19	5.152
359.40	5.940
359.61	5.396
359.81	6.583
360.02	5.867
360.23	6.054
360.43	5.751
360.64	4.922
360.85	5.418
361.05	5.293
361.26	5.927
361.47	5.898
361.67	4.927
361.88	4.269
362.09	4.943
362.29	4.097
362.50	3.685
362.70	3.850
362.91	4.850
363.12	4.318
363.32	3.957
363.53	4.407
363.74	4.002
363.94	3.838
364.15	5.524
364.36	5.185
364.56	4.546
364.77	6.193
364.98	6.382
365.18	5.611
365.39	6.051
365.59	4.864
365.80	4.964
366.01	5.784
366.21	5.405
366.42	4.813
366.63	5.296
366.83	5.070
367.04	4.344
367.24	5.580
367.45	4.363
367.66	3.968
367.86	5.849
368.07	5.458
368.28	5.232
368.48	4.661
368.69	4.901
368.89	5.852
369.10	5.736
369.31	5.381
369.51	5.840
369.72	5.576
369.92	5.940
370.13	5.004
370.34	5.139
370.54	4.608
370.75	4.977
370.95	6.194
371.16	5.256
371.37	5.140
371.57	5.203
371.78	5.343
371.98	5.664
372.19	4.686
372.40	4.836
372.60	5.493
372.81	5.114
373.01	4.440
373.22	4.822
373.43	5.312
373.63	4.742
373.84	4.942
374.04	4.246
374.25	5.239
374.46	5.075
374.66	5.212
374.87	5.739
375.07	4.836
375.28	4.348
375.48	5.026
375.69	5.295
375.90	4.300
376.10	4.622
376.31	4.271
376.51	5.479
376.72	4.778
376.92	4.073
377.13	4.658
377.34	5.245
377.54	4.422
377.75	5.054
377.95	5.006
378.16	5.169
378.36	5.307
378.57	4.078
378.77	4.957
378.98	4.175
379.19	4.347
379.39	3.570
379.60	5.316
379.80	5.199
380.01	5.180
380.21	4.433
380.42	5.347
380.62	4.571
380.83	4.649
381.04	4.208
381.24	5.295
381.45	5.021
381.65	4.601
381.86	4.738
382.06	5.740
382.27	4.026
382.47	5.065
382.68	5.272
382.88	5.509
383.09	4.921
383.29	5.100
383.50	5.670
383.71	4.855
383.91	4.568
384.12	4.604
384.32	4.646
384.53	4.989
384.73	4.232
384.94	3.831
385.14	5.023
385.35	4.734
385.55	4.701
385.76	5.173
385.96	4.081
386.17	4.499
386.37	4.964
386.58	4.773
386.78	6.005
386.99	3.780
387.19	4.624
387.40	4.063
387.60	4.793
387.81	4.293
388.01	4.768
388.22	5.438
388.42	6.597
388.63	6.802
388.83	5.635
389.04	4.394
389.24	4.454
389.45	5.356
389.65	5.178
389.86	5.912
390.06	5.646
390.27	5.066
390.47	5.282
390.68	5.576
390.88	6.643
391.09	6.030
391.29	6.124
391.50	5.626
391.70	5.808
391.91	5.462
392.11	5.514
392.32	6.159
392.52	6.162
392.73	6.391
392.93	6.272
393.14	6.364
393.34	5.800
393.55	7.242
393.75	6.519
393.95	5.635
394.16	7.807
394.36	7.643
394.57	7.293
394.77	7.708
394.98	6.969
395.18	7.537
395.39	7.138
395.59	7.422
395.80	6.717
396.00	7.304
396.21	8.744
396.41	7.171
396.61	8.648
396.82	8.714
397.02	10.036
397.23	9.519
397.43	8.956
397.64	7.502
397.84	9.448
398.05	7.471
398.25	9.529
398.45	8.509
398.66	9.151
398.86	8.826
399.07	10.276
399.27	8.706
399.48	10.486
399.68	9.035
399.89	9.319
400.09	10.331
400.29	9.786
400.50	10.020
400.70	10.500
400.91	9.392
401.11	9.532
401.32	10.781
401.52	9.595
401.72	9.580
401.93	12.166
402.13	10.602
402.34	10.823
402.54	9.610
402.75	12.294
402.95	8.810
403.15	11.641
403.36	9.187
403.56	11.626
403.77	9.939
403.97	10.933
404.17	10.151
404.38	11.538
404.58	9.569
404.79	11.348
404.99	11.139
405.19	10.536
405.40	10.943
405.60	11.632
405.81	10.374
406.01	11.712
406.21	10.843
406.42	11.127
406.62	11.676
406.83	12.245
407.03	11.210
407.23	11.643
407.44	10.740
407.64	12.138
407.85	11.956
408.05	11.791
408.25	11.792
408.46	12.922
408.66	12.411
408.87	12.388
409.07	11.739
409.27	11.962
409.48	12.075
409.68	13.337
409.88	10.280
410.09	11.496
410.29	11.530
410.50	12.989
410.70	10.549
410.90	11.771
411.11	11.093
411.31	11.643
411.51	12.387
411.72	12.585
411.92	10.910
412.12	11.988
412.33	11.273
412.53	11.668
412.74	9.875
412.94	12.243
413.14	11.860
413.35	11.395
413.55	11.519
413.75	13.008
413.96	11.315
414.16	11.879
414.36	11.558
414.57	11.732
414.77	11.461
414.97	12.715
415.18	11.188
415.38	11.840
415.58	11.152
415.79	10.967
415.99	10.814
416.19	12.432
416.40	11.144
416.60	11.541
416.80	10.611
417.01	11.369
417.21	10.760
417.41	11.964
417.62	11.173
417.82	11.619
418.02	10.936
418.23	12.068
418.43	11.672
418.63	12.011
418.84	11.946
419.04	11.422
419.24	11.374
419.45	11.590
419.65	11.865
419.85	11.772
420.06	11.923
420.26	11.787
420.46	11.511
420.67	12.148
420.87	11.543
421.07	11.689
421.28	11.475
421.48	11.863
421.68	11.732
421.88	11.413
422.09	11.422
422.29	11.652
422.49	11.033
422.70	12.107
422.90	11.473
423.10	11.778
423.31	11.799
423.51	12.240
423.71	11.291
423.91	11.485
424.12	11.477
424.32	11.929
424.52	11.464
424.73	11.371
424.93	11.195
425.13	11.406
425.33	11.166
425.54	11.566
425.74	11.549
425.94	12.049
426.15	11.550
426.35	11.736
426.55	11.934
426.75	11.961
426.96	11.653
427.16	12.174
427.36	11.739
427.57	12.028
427.77	11.580
427.97	11.842
428.17	11.641
428.38	12.110
428.58	10.600
428.78	12.579
428.98	11.136
429.19	11.534
429.39	10.741
429.59	11.772
429.79	10.564
430.00	10.509
430.20	10.689
430.40	11.279
430.60	11.328
430.81	11.409
431.01	10.957
431.21	11.463
431.41	10.888
431.62	11.334
431.82	11.123
432.02	12.571
432.22	10.696
432.43	10.765
432.63	10.814
432.83	11.403
433.03	10.823
433.24	11.109
433.44	11.236
433.64	12.133
433.84	10.961
434.05	11.971
434.25	11.453
434.45	12.445
434.65	12.392
434.85	12.371
435.06	12.219
435.26	12.199
435.46	12.045
435.66	12.447
435.87	12.018
436.07	12.434
436.27	12.180
436.47	12.595
436.67	12.245
436.88	13.162
437.08	12.036
437.28	12.515
437.48	12.427
437.69	12.469
437.89	12.395
438.09	12.895
438.29	12.187
438.49	12.870
438.70	12.767
438.90	12.682
439.10	12.624
439.30	12.869
439.50	12.210
439.71	12.543
439.91	12.477
440.11	13.346
440.31	12.645
440.51	12.806
440.72	12.979
440.92	12.815
441.12	12.819
441.32	13.233
441.52	13.370
441.72	13.200
441.93	13.211
442.13	13.282
442.33	13.567
442.53	13.952
442.73	13.671
442.94	13.798
443.14	13.951
443.34	13.744
443.54	13.764
443.74	14.237
443.94	13.833
444.15	13.838
444.35	13.424
444.55	14.176
444.75	13.675
444.95	13.980
445.15	13.592
445.36	13.813
445.56	12.950
445.76	13.432
445.96	13.130
446.16	12.992
446.36	13.251
446.57	13.566
446.77	13.276
446.97	13.468
447.17	13.723
447.37	13.739
447.57	13.675
447.77	14.075
447.98	13.827
448.18	14.271
448.38	14.434
448.58	14.463
448.78	14.854
448.98	14.415
449.18	14.133
449.39	14.354
449.59	14.383
449.79	14.816
449.99	14.678
450.19	14.797
450.39	13.960
450.59	14.513
450.79	14.168
451.00	15.275
451.20	15.985
451.40	14.562
451.60	14.398
451.80	14.687
452.00	14.556
452.20	14.804
452.40	14.087
452.61	14.737
452.81	14.352
453.01	14.463
453.21	14.341
453.41	14.673
453.61	14.541
453.81	14.682
454.01	14.765
454.21	14.661
454.42	14.939
454.62	15.079
454.82	14.643
455.02	15.080
455.22	14.170
455.42	14.810
455.62	14.148
455.82	15.115
456.02	14.789
456.23	14.849
456.43	15.109
456.63	14.417
456.83	14.223
457.03	14.650
457.23	14.312
457.43	15.086
457.63	14.497
457.83	15.271
458.03	14.358
458.23	14.251
458.43	14.096
458.64	14.619
458.84	14.303
459.04	14.715
459.24	14.199
459.44	13.930
459.64	14.145
459.84	13.885
460.04	13.821
460.24	14.023
460.44	14.272
460.64	14.429
460.84	14.580
461.04	14.208
461.24	14.738
461.45	14.302
461.65	14.656
461.85	14.703
462.05	14.977
462.25	15.369
462.45	15.883
462.65	15.392
462.85	15.017
463.05	15.698
463.25	15.285
463.45	15.582
463.65	15.169
463.85	15.140
464.05	15.424
464.25	14.943
464.45	15.225
464.65	14.987
464.85	15.134
465.05	15.115
465.26	14.829
465.46	15.735
465.66	14.857
465.86	15.699
466.06	15.157
466.26	14.841
466.46	14.693
466.66	15.056
466.86	15.050
467.06	15.252
467.26	15.513
467.46	15.665
467.66	15.131
467.86	14.924
468.06	15.112
468.26	15.260
468.46	15.276
468.66	15.591
468.86	15.067
469.06	15.785
469.26	15.035
469.46	15.474
469.66	15.302
469.86	15.655
470.06	15.320
470.26	15.911
470.46	14.635
470.66	15.434
470.86	15.009
471.06	15.533
471.26	14.725
471.46	15.205
471.66	15.911
471.86	15.616
472.06	15.280
472.26	16.399
472.46	16.148
472.66	15.596
472.86	14.730
473.06	15.386
473.26	15.378
473.46	15.392
473.66	14.929
473.86	15.615
474.06	15.745
474.26	16.039
474.46	15.358
474.66	16.148
474.86	15.412
475.06	16.389
475.26	15.504
475.46	15.945
475.66	15.449
475.86	15.774
476.06	16.109
476.26	15.712
476.46	15.442
476.66	15.748
476.86	15.921
477.06	15.783
477.26	15.239
477.46	15.469
477.65	16.116
477.85	15.857
478.05	16.023
478.25	16.153
478.45	15.959
478.65	16.057
478.85	15.697
479.05	15.844
479.25	16.378
479.45	15.965
479.65	16.210
479.85	16.243
480.05	15.971
480.25	16.477
480.45	16.664
480.65	16.604
480.85	15.926
481.05	16.124
481.25	16.101
481.44	16.169
481.64	15.790
481.84	15.724
482.04	16.019
482.24	15.688
482.44	15.339
482.64	15.480
482.84	15.377
483.04	15.385
483.24	14.907
483.44	14.586
483.64	14.311
483.84	14.329
484.04	14.606
484.23	15.084
484.43	15.367
484.63	15.919
484.83	16.728
485.03	17.479
485.23	17.315
485.43	17.027
485.63	17.121
485.83	16.946
486.03	17.303
486.23	17.188
486.42	16.840
486.62	16.722
486.82	16.430
487.02	16.131
487.22	15.743
487.42	15.473
487.62	15.429
487.82	15.296
488.02	15.505
488.22	15.522
488.41	15.518
488.61	15.845
488.81	16.197
489.01	16.190
489.21	16.527
489.41	16.758
489.61	16.836
489.81	16.668
490.01	16.913
490.20	16.746
490.40	16.792
490.60	16.705
490.80	16.077
491.00	16.349
491.20	15.737
491.40	15.606
491.60	15.381
491.79	15.303
491.99	15.509
492.19	15.624
492.39	15.631
492.59	15.893
492.79	15.826
492.99	16.217
493.19	16.668
493.38	16.910
493.58	16.966
493.78	16.956
493.98	17.429
494.18	17.113
494.38	17.375
494.58	17.017
494.77	16.911
494.97	16.779
495.17	16.634
495.37	16.906
495.57	17.073
495.77	16.578
495.96	16.702
496.16	16.615
496.36	16.579
496.56	16.710
496.76	16.259
496.96	16.176
497.15	16.559
497.35	16.470
497.55	16.576
497.75	16.591
497.95	16.208
498.15	16.364
498.34	16.272
498.54	16.405
498.74	16.890
498.94	16.993
499.14	16.655
499.34	16.866
499.53	17.015
499.73	16.605
499.93	16.904
500.13	16.684
500.33	16.622
500.52	16.914
500.72	16.460
500.92	16.621
501.12	16.603
501.32	17.064
501.52	16.739
501.71	16.927
501.91	17.197
502.11	16.820
502.31	16.953
502.51	16.892
502.70	16.846
502.90	16.861
503.10	16.751
503.30	16.769
503.50	16.615
503.69	16.957
503.89	16.919
504.09	17.242
504.29	17.060
504.48	16.907
504.68	17.410
504.88	16.919
505.08	16.831
505.28	17.141
505.47	16.733
505.67	16.994
505.87	16.864
506.07	17.423
506.27	17.423
506.46	17.736
506.66	16.825
506.86	17.475
507.06	17.205
507.25	17.172
507.45	17.011
507.65	17.245
507.85	17.429
508.04	17.382
508.24	16.868
508.44	17.533
508.64	17.229
508.83	17.384
509.03	17.088
509.23	16.657
509.43	17.453
509.63	17.048
509.82	16.891
510.02	16.967
510.22	16.942
510.42	17.188
510.61	17.658
510.81	17.471
511.01	17.246
511.21	17.454
511.40	17.293
511.60	17.273
511.80	17.186
511.99	16.936
512.19	17.354
512.39	17.300
512.59	17.217
512.78	17.536
512.98	17.621
513.18	17.806
513.38	17.718
513.57	17.800
513.77	17.913
513.97	17.863
514.17	17.793
514.36	17.918
514.56	17.549
514.76	18.155
514.95	18.138
515.15	18.239
515.35	17.671
515.55	17.870
515.74	18.429
515.94	17.448
516.14	17.454
516.33	18.079
516.53	18.214
516.73	18.135
516.93	17.819
517.12	17.858
517.32	17.674
517.52	17.878
517.71	17.476
517.91	17.268
518.11	17.307
518.30	17.376
518.50	17.190
518.70	17.230
518.90	17.579
519.09	17.275
519.29	17.447
519.49	17.326
519.68	17.674
519.88	17.810
520.08	17.670
520.27	17.901
520.47	18.256
520.67	18.154
520.86	18.284
521.06	18.379
521.26	18.195
521.45	18.134
521.65	18.536
521.85	18.313
522.04	18.196
522.24	18.590
522.44	17.832
522.63	18.230
522.83	18.302
523.03	18.175
523.22	18.349
523.42	18.244
523.62	18.226
523.81	18.173
524.01	18.119
524.21	18.102
524.40	17.826
524.60	17.882
524.80	17.865
524.99	17.961
525.19	17.781
525.39	17.248
525.58	17.225
525.78	17.136
525.98	17.569
526.17	17.506
526.37	17.475
526.57	17.329
526.76	17.704
526.96	17.625
527.15	17.566
527.35	17.671
527.55	17.518
527.74	17.223
527.94	17.481
528.14	16.688
528.33	16.502
528.53	16.345
528.72	16.757
528.92	17.095
529.12	16.962
529.31	17.174
529.51	17.476
529.71	17.477
529.90	17.803
530.10	17.799
530.29	18.228
530.49	18.549
530.69	18.682
530.88	18.777
531.08	18.588
531.28	18.425
531.47	18.153
531.67	18.009
531.86	18.084
532.06	17.757
532.26	17.867
532.45	17.760
532.65	17.439
532.84	16.971
533.04	16.791
533.24	16.848
533.43	17.051
533.63	17.235
533.82	17.273
534.02	17.455
534.22	17.370
534.41	17.581
534.61	17.863
534.80	17.821
535.00	18.162
535.19	18.363
535.39	18.520
535.59	18.524
535.78	18.236
535.98	17.876
536.17	17.778
536.37	17.763
536.57	17.409
536.76	17.475
536.96	17.409
537.15	17.935
537.35	17.511
537.54	17.611
537.74	17.945
537.93	17.922
538.13	17.919
538.33	18.047
538.52	18.602
538.72	18.399
538.91	18.711
539.11	18.105
539.30	18.197
539.50	18.462
539.70	18.263
539.89	18.026
540.09	17.887
540.28	17.808
540.48	17.656
540.67	17.342
540.87	16.787
541.06	16.668
541.26	16.939
541.45	16.565
541.65	16.881
541.85	17.289
542.04	17.231
542.24	17.713
542.43	17.560
542.63	17.846
542.82	17.808
543.02	17.846
543.21	18.305
543.41	18.636
543.60	18.307
543.80	18.573
543.99	18.136
544.19	18.406
544.38	18.294
544.58	17.968
544.77	17.926
544.97	18.080
545.16	18.665
545.36	18.155
545.56	18.463
545.75	18.319
545.95	18.315
546.14	18.172
546.34	18.165
546.53	18.384
546.73	17.646
546.92	18.157
547.12	18.114
547.31	18.122
547.51	18.192
547.70	18.534
547.90	18.326
548.09	18.303
548.29	18.671
548.48	18.511
548.68	18.811
548.87	19.342
549.07	18.975
549.26	18.766
549.46	19.136
549.65	19.205
549.84	19.049
550.04	19.034
550.23	19.126
550.43	19.206
550.62	19.161
550.82	19.301
551.01	19.260
551.21	18.938
551.40	19.356
551.60	19.266
551.79	18.813
551.99	18.815
552.18	18.927
552.38	18.706
552.57	18.966
552.77	19.008
552.96	19.340
553.16	19.406
553.35	19.401
553.54	19.515
553.74	19.303
553.93	19.104
554.13	19.684
554.32	19.701
554.52	19.395
554.71	19.310
554.91	19.735
555.10	19.920
555.29	19.847
555.49	19.883
555.68	19.803
555.88	19.222
556.07	18.893
556.27	19.546
556.46	19.941
556.66	19.662
556.85	19.785
557.04	19.820
557.24	19.544
557.43	19.972
557.63	19.568
557.82	19.569
558.02	19.806
558.21	20.130
558.40	19.869
558.60	19.818
558.79	19.961
558.99	20.001
559.18	19.646
559.38	20.459
559.57	19.987
559.76	19.612
559.96	20.599
560.15	20.437
560.35	19.153
560.54	19.921
560.73	19.206
560.93	19.931
561.12	19.765
561.32	19.376
561.51	20.473
561.70	20.721
561.90	19.759
562.09	19.968
562.29	19.971
562.48	20.083
562.67	20.144
562.87	20.451
563.06	19.614
563.26	20.303
563.45	20.626
563.64	20.858
563.84	20.535
564.03	20.624
564.23	20.173
564.42	20.989
564.61	20.351
564.81	20.779
565.00	20.324
565.20	20.245
565.39	20.528
565.58	20.058
565.78	19.774
565.97	19.780
566.16	20.117
566.36	20.227
566.55	20.135
566.74	20.298
566.94	20.714
567.13	20.634
567.33	20.554
567.52	20.797
567.71	20.352
567.91	20.906
568.10	20.931
568.29	21.045
568.49	20.972
568.68	20.868
568.87	19.984
569.07	21.308
569.26	21.257
569.45	20.579
569.65	20.356
569.84	20.734
570.04	20.530
570.23	21.035
570.42	19.992
570.62	20.730
570.81	21.037
571.00	20.595
571.20	20.620
571.39	20.789
571.58	21.025
571.78	20.759
571.97	20.754
572.16	20.636
572.36	20.911
572.55	20.548
572.74	20.360
572.94	20.614
573.13	20.598
573.32	20.474
573.51	20.790
573.71	21.211
573.90	20.845
574.09	21.075
574.29	20.616
574.48	21.195
574.67	20.818
574.87	20.847
575.06	20.725
575.25	21.069
575.45	20.706
575.64	21.336
575.83	20.934
576.03	21.828
576.22	21.166
576.41	20.701
576.60	21.030
576.80	21.246
576.99	21.212
577.18	21.308
577.38	21.012
577.57	21.012
577.76	21.885
577.95	21.329
578.15	21.380
578.34	21.162
578.53	21.149
578.73	21.049
578.92	20.817
579.11	21.961
579.30	21.722
579.50	21.556
579.69	21.484
579.88	21.526
580.08	21.423
580.27	21.203
580.46	21.179
580.65	20.929
580.85	21.171
581.04	21.333
581.23	20.805
581.42	21.487
581.62	21.041
581.81	21.264
582.00	21.081
582.19	21.020
582.39	21.653
582.58	21.216
582.77	21.354
582.96	21.428
583.16	20.640
583.35	21.732
583.54	21.396
583.73	21.598
583.93	21.837
584.12	20.898
584.31	20.519
584.50	21.697
584.70	20.900
584.89	21.465
585.08	21.206
585.27	21.355
585.47	20.795
585.66	21.586
585.85	21.199
586.04	21.374
586.24	21.986
586.43	21.068
586.62	20.865
586.81	20.686
587.00	20.962
587.20	21.227
587.39	20.957
587.58	21.406
587.77	20.699
587.97	21.312
588.16	21.163
588.35	21.925
588.54	21.422
588.73	20.702
588.93	20.582
589.12	21.450
589.31	20.689
589.50	20.923
589.69	21.288
589.89	21.364
590.08	20.675
590.27	21.431
590.46	21.046
590.65	21.479
590.85	20.421
591.04	22.056
591.23	21.277
591.42	21.365
591.61	21.229
591.81	21.329
592.00	21.219
592.19	21.396
592.38	21.895
592.57	21.418
592.77	21.369
592.96	21.434
593.15	22.085
593.34	21.735
593.53	21.540
593.72	21.185
593.92	21.079
594.11	22.265
594.30	21.878
594.49	21.572
594.68	21.734
594.87	21.802
595.07	20.968
595.26	21.209
595.45	21.335
595.64	21.910
595.83	21.000
596.02	22.076
596.22	22.104
596.41	21.375
596.60	21.572
596.79	21.593
596.98	20.851
597.17	21.789
597.37	21.872
597.56	21.656
597.75	21.427
597.94	22.298
598.13	21.740
598.32	21.770
598.51	22.480
598.71	22.566
598.90	22.244
599.09	22.850
599.28	22.798
599.47	22.772
599.66	22.722
599.85	23.650
600.05	22.485
600.24	23.211
600.43	23.305
600.62	22.968
600.81	23.294
601.00	22.897
601.19	21.296
601.38	22.831
601.58	23.484
601.77	23.266
601.96	22.390
602.15	23.150
602.34	23.577
602.53	23.721
602.72	23.338
602.91	22.749
603.10	22.614
603.30	23.085
603.49	22.755
603.68	22.903
603.87	22.362
604.06	23.018
604.25	22.521
604.44	22.898
604.63	22.890
604.82	22.928
605.01	22.601
605.21	23.524
605.40	22.806
605.59	23.220
605.78	23.005
605.97	22.906
606.16	23.184
606.35	22.944
606.54	22.888
606.73	24.559
606.92	24.082
607.11	23.993
607.30	23.184
607.50	24.217
607.69	23.998
607.88	23.955
608.07	23.807
608.26	24.105
608.45	23.661
608.64	23.646
608.83	22.907
609.02	23.465
609.21	22.988
609.40	23.592
609.59	23.998
609.78	24.056
609.97	23.428
610.16	23.949
610.35	23.310
610.55	23.841
610.74	23.992
610.93	24.236
611.12	23.903
611.31	23.565
611.50	23.783
611.69	23.968
611.88	23.229
612.07	24.628
612.26	23.601
612.45	24.249
612.64	23.407
612.83	24.640
613.02	24.076
613.21	23.898
613.40	23.832
613.59	25.013
613.78	24.129
613.97	25.152
614.16	24.340
614.35	24.346
614.54	24.546
614.73	23.720
614.92	24.435
615.11	24.642
615.30	24.492
615.49	23.790
615.68	24.115
615.87	24.926
616.07	23.683
616.26	23.701
616.45	24.067
616.64	24.500
616.83	23.660
617.02	23.925
617.21	22.649
617.40	24.218
617.59	23.893
617.78	23.417
617.97	23.378
618.16	23.817
618.35	22.577
618.54	23.603
618.73	23.590
618.92	23.546
619.11	22.560
619.30	24.375
619.49	22.926
619.68	23.769
619.86	23.212
620.05	24.078
620.24	23.709
620.43	24.160
620.62	23.124
620.81	24.064
621.00	23.457
621.19	24.411
621.38	24.310
621.57	24.113
621.76	23.123
621.95	24.854
622.14	23.054
622.33	24.016
622.52	23.182
622.71	23.454
622.90	22.824
623.09	24.434
623.28	23.793
623.47	23.452
623.66	24.114
623.85	22.927
624.04	22.894
624.23	23.915
624.42	22.731
624.61	23.416
624.80	22.245
624.99	23.417
625.18	23.130
625.36	24.262
625.55	23.424
625.74	22.370
625.93	22.806
626.12	23.483
626.31	23.372
626.50	23.669
626.69	23.305
626.88	23.423
627.07	23.083
627.26	23.092
627.45	23.213
627.64	23.127
627.83	22.496
628.02	22.878
628.20	23.465
628.39	22.979
628.58	22.933
628.77	23.231
628.96	23.386
629.15	23.711
629.34	23.793
629.53	23.478
629.72	23.443
629.91	23.884
630.10	23.847
630.29	24.582
630.47	23.750
630.66	24.107
630.85	23.103
631.04	23.977
631.23	23.827
631.42	23.934
631.61	24.133
631.80	23.982
631.99	24.171
632.18	24.314
632.36	23.619
632.55	24.828
632.74	23.785
632.93	23.736
633.12	23.248
633.31	24.288
633.50	23.666
633.69	23.311
633.88	23.125
634.06	23.590
634.25	23.769
634.44	24.157
634.63	23.192
634.82	24.047
635.01	23.764
635.20	23.517
635.39	23.541
635.57	24.147
635.76	23.903
635.95	22.888
636.14	23.872
636.33	24.259
636.52	24.375
636.71	22.860
636.89	23.589
637.08	23.417
637.27	23.044
637.46	22.837
637.65	23.572
637.84	24.219
638.03	23.135
638.21	24.130
638.40	23.784
638.59	23.235
638.78	22.612
638.97	23.119
639.16	23.174
639.34	23.221
639.53	22.379
639.72	24.276
639.91	23.081
640.10	22.173
640.29	22.984
640.47	25.136
640.66	22.773
640.85	23.952
641.04	22.337
641.23	23.650
641.42	23.995
641.60	23.163
641.79	23.122
641.98	23.367
642.17	23.022
642.36	23.567
642.54	22.652
642.73	22.702
642.92	22.675
643.11	23.280
643.30	22.543
643.49	22.324
643.67	21.272
643.86	23.242
644.05	22.399
644.24	22.921
644.43	22.824
644.61	23.200
644.80	22.347
644.99	23.981
645.18	22.814
645.37	23.477
645.55	21.826
645.74	24.364
645.93	22.710
646.12	23.613
646.31	23.308
646.49	22.913
646.68	22.982
646.87	23.079
647.06	23.021
647.24	23.121
647.43	22.355
647.62	23.182
647.81	22.813
648.00	23.190
648.18	22.083
648.37	22.602
648.56	23.035
648.75	23.071
648.93	23.088
649.12	23.437
649.31	22.244
649.50	23.632
649.68	22.345
649.87	22.896
650.06	21.346
650.25	23.264
650.43	21.209
650.62	21.833
650.81	22.887
651.00	23.429
651.18	21.536
651.37	23.101
651.56	21.387
651.75	22.844
651.93	21.772
652.12	22.032
652.31	22.190
652.50	23.067
652.68	22.854
652.87	24.311
653.06	21.961
653.25	22.257
653.43	21.770
653.62	22.337
653.81	21.507
654.00	23.070
654.18	22.350
654.37	23.290
654.56	21.579
654.74	22.320
654.93	22.146
655.12	22.750
655.31	22.465
655.49	22.781
655.68	21.610
655.87	22.036
656.05	21.179
656.24	22.901
656.43	21.186
656.62	23.010
656.80	22.613
656.99	21.459
657.18	21.399
657.36	22.274
657.55	21.182
657.74	22.176
657.93	21.404
658.11	22.533
658.30	22.289
658.49	21.624
658.67	21.689
658.86	21.109
659.05	21.266
659.23	21.937
659.42	21.114
659.61	21.217
659.79	20.584
659.98	22.043
660.17	21.443
660.35	22.058
660.54	21.566
660.73	22.457
660.91	21.356
661.10	21.135
661.29	20.395
661.47	21.530
661.66	21.103
661.85	21.562
662.03	20.918
662.22	20.403
662.41	19.492
662.59	20.811
662.78	20.183
662.97	20.257
663.15	19.523
663.34	19.512
663.53	18.891
663.71	20.494
663.90	18.892
664.09	19.537
664.27	19.159
664.46	19.820
664.65	19.176
664.83	19.669
665.02	18.304
665.21	19.166
665.39	18.182
665.58	20.483
665.77	18.928
665.95	19.960
666.14	18.745
666.32	19.964
666.51	18.427
666.70	18.371
666.88	18.269
667.07	18.340
667.26	16.324
667.44	19.343
667.63	17.866
667.81	18.511
668.00	17.690
668.19	20.434
668.37	17.908
668.56	19.916
668.75	16.701
668.93	20.031
669.12	16.995
669.30	18.901
669.49	16.364
669.68	19.508
669.86	18.264
670.05	17.830
670.23	17.895
670.42	18.375
670.61	18.551
670.79	20.230
670.98	17.651
671.16	18.666
671.35	16.778
671.54	17.529
671.72	16.358
671.91	17.798
672.09	16.457
672.28	18.411
672.46	18.308
672.65	19.501
672.84	17.959
673.02	19.339
673.21	15.994
673.39	17.256
673.58	19.535
673.77	17.712
673.95	16.927
674.14	18.600
674.32	16.339
674.51	19.509
674.69	17.133
674.88	18.979
675.07	16.974
675.25	20.508
675.44	17.856
675.62	17.918
675.81	16.793
675.99	22.085
676.18	19.306
676.36	17.043
676.55	17.323
676.74	19.499
676.92	19.566
677.11	19.013
677.29	17.709
677.48	18.452
677.66	19.110
677.85	17.500
678.03	18.492
678.22	19.596
678.40	18.513
678.59	17.543
678.78	17.731
678.96	17.569
679.15	17.887
679.33	19.914
679.52	19.232
679.70	19.381
679.89	17.845
680.07	18.198
680.26	16.116
680.44	17.878
680.63	18.559
680.81	19.191
681.00	18.424
681.18	19.081
681.37	18.745
681.55	19.869
681.74	19.460
681.92	20.120
682.11	19.358
682.29	19.530
682.48	18.966
682.66	20.499
682.85	19.604
683.03	19.979
683.22	20.930
683.40	20.641
683.59	19.474
683.77	20.862
683.96	19.420
684.14	21.284
684.33	19.597
684.51	23.193
684.70	20.922
684.88	22.118
685.07	19.529
685.25	21.946
685.44	19.788
685.62	20.515
685.81	19.060
685.99	22.853
686.18	19.922
686.36	20.963
686.55	20.150
686.73	19.646
686.92	20.621
687.10	21.753
687.29	22.063
687.47	23.041
687.65	23.363
687.84	21.834
688.02	23.378
688.21	24.105
688.39	20.842
688.58	24.764
688.76	22.588
688.95	23.299
689.13	21.022
689.32	24.642
689.50	22.957
689.68	24.373
689.87	21.524
690.05	24.579
690.24	24.507
690.42	24.630
690.61	24.273
690.79	25.116
690.98	24.530
691.16	23.284
691.34	23.493
691.53	24.344
691.71	23.090
691.90	26.221
692.08	22.572
692.27	26.450
692.45	26.469
692.63	25.028
692.82	26.011
693.00	24.993
693.19	23.038
693.37	26.681
693.56	24.494
693.74	27.645
693.92	24.606
694.11	26.154
694.29	25.948
694.48	26.702
694.66	25.581
694.84	27.867
695.03	25.319
695.21	27.786
695.40	26.552
695.58	28.407
695.76	25.628
695.95	28.031
696.13	25.558
696.32	27.486
696.50	30.668
696.68	27.673
696.87	27.652
697.05	28.736
697.24	27.047
697.42	29.181
697.60	27.180
697.79	27.936
697.97	28.500
698.16	30.130
698.34	27.153
698.52	29.281
698.71	27.846
698.89	27.976
699.07	27.728
699.26	29.827
699.44	27.819
699.63	28.699
699.81	27.699
699.99	30.162
700.18	29.607
700.36	29.723
700.54	30.268
700.73	29.194
700.91	28.585
701.09	30.142
701.28	30.695
701.46	30.658
701.64	28.027
701.83	30.140
702.01	28.296
702.20	31.301
702.38	30.456
702.56	30.105
702.75	29.397
702.93	29.211
703.11	29.891
703.30	30.364
703.48	30.490
703.66	30.839
703.85	30.382
704.03	32.227
704.21	29.177
704.40	33.982
704.58	27.448
704.76	32.250
704.95	29.698
705.13	31.764
705.31	28.887
705.50	31.696
705.68	28.757
705.86	30.959
706.04	30.291
706.23	32.061
706.41	31.381
706.59	31.690
706.78	29.623
706.96	31.841
707.14	32.220
707.33	30.696
707.51	28.364
707.69	32.216
707.88	29.539
708.06	32.954
708.24	31.166
708.42	32.359
708.61	30.667
708.79	31.287
708.97	31.195
709.16	32.453
709.34	34.707
709.52	33.785
709.71	32.545
709.89	32.640
710.07	30.668
710.25	31.932
710.44	31.939
710.62	31.299
710.80	31.519
710.98	31.919
711.17	29.952
711.35	32.816
711.53	30.219
711.72	33.502
711.90	34.047
712.08	33.186
712.26	30.135
712.45	31.362
712.63	32.968
712.81	34.048
712.99	32.107
713.18	32.693
713.36	33.884
713.54	32.754
713.72	31.096
713.91	30.674
714.09	29.862
714.27	31.900
714.45	32.345
714.64	34.362
714.82	32.303
715.00	32.029
715.18	30.980
715.37	33.807
715.55	32.041
715.73	33.386
715.91	32.110
716.10	32.006
716.28	30.747
716.46	34.933
716.64	30.255
716.83	31.679
717.01	29.318
717.19	31.519
717.37	31.042
717.55	32.315
717.74	29.498
717.92	32.012
718.10	28.834
718.28	32.056
718.47	28.636
718.65	33.470
718.83	31.533
719.01	34.263
719.19	30.752
719.38	30.031
719.56	30.755
719.74	30.880
719.92	26.946
720.10	29.701
720.29	30.942
720.47	32.451
720.65	30.489
720.83	34.118
721.01	28.037
721.20	29.339
721.38	29.212
721.56	29.915
721.74	32.120
721.92	32.639
722.11	28.456
722.29	29.821
722.47	28.962
722.65	32.053
722.83	31.644
723.01	31.785
723.20	32.149
723.38	31.308
723.56	29.668
723.74	34.568
723.92	30.156
724.10	31.951
724.29	29.204
724.47	33.013
724.65	29.867
724.83	34.187
725.01	30.781
725.19	33.910
725.38	28.623
725.56	33.237
725.74	31.473
725.92	32.667
726.10	32.199
726.28	32.817
726.46	31.853
726.65	33.604
726.83	29.477
727.01	33.682
727.19	31.488
727.37	32.943
727.55	31.560
727.73	31.799
727.92	30.852
728.10	32.905
728.28	28.518
728.46	34.010
728.64	30.792
728.82	32.179
729.00	31.105
729.19	34.004
729.37	30.641
729.55	35.130
729.73	30.119
729.91	32.846
730.09	32.288
730.27	31.893
730.45	30.937
730.63	33.228
730.82	28.088
731.00	31.097
731.18	29.470
731.36	33.970
731.54	29.098
731.72	34.789
731.90	28.511
732.08	33.618
732.26	29.839
732.45	33.571
732.63	32.695
732.81	31.300
732.99	32.776
733.17	34.593
733.35	31.670
733.53	34.407
733.71	32.180
733.89	33.074
734.07	32.135
734.25	35.791
734.44	33.320
734.62	33.672
734.80	29.476
734.98	34.856
735.16	33.077
735.34	33.856
735.52	32.673
735.70	33.604
735.88	30.112
736.06	34.149
736.24	36.160
736.42	34.529
736.60	33.675
736.78	35.433
736.97	32.298
737.15	37.240
737.33	32.901
737.51	36.364
737.69	34.078
737.87	37.013
738.05	34.741
738.23	32.459
738.41	34.023
738.59	35.124
738.77	31.897
738.95	34.427
739.13	33.171
739.31	34.684
739.49	35.644
739.67	37.545
739.85	33.259
740.03	36.662
740.21	34.548
740.39	37.588
740.57	34.008
740.75	34.119
740.93	33.845
741.11	38.386
741.30	32.793
741.48	35.671
741.66	35.945
741.84	34.393
742.02	32.678
742.20	36.625
742.38	33.742
742.56	38.523
742.74	32.788
742.92	33.378
743.10	31.418
743.28	36.625
743.46	34.661
743.64	36.233
743.82	30.481
744.00	37.284
744.18	34.683
744.36	39.129
744.54	31.821
744.72	37.533
744.90	38.892
745.08	34.976
745.26	37.412
745.44	37.877
745.62	36.003
745.80	33.716
745.98	36.013
746.16	40.031
746.34	35.256
746.52	39.681
746.70	33.750
746.87	35.172
747.05	34.639
747.23	37.876
747.41	35.156
747.59	37.733
747.77	33.459
747.95	35.801
748.13	35.149
748.31	38.045
748.49	36.155
748.67	36.401
748.85	36.024
749.03	37.109
749.21	34.456
749.39	38.308
749.57	31.394
749.75	34.009
749.93	35.395
750.11	37.714
750.29	36.600
750.47	36.498
750.65	34.188
750.83	35.065
751.01	29.848
751.18	36.540
751.36	31.184
751.54	34.842
751.72	35.546
751.90	35.185
752.08	32.095
752.26	34.736
752.44	36.782
752.62	33.959
752.80	34.700
752.98	38.285
753.16	37.461
753.34	35.344
753.52	37.431
753.69	37.429
753.87	36.716
754.05	36.670
754.23	34.408
754.41	36.130
754.59	35.961
754.77	36.260
754.95	36.493
755.13	38.939
755.31	34.155
755.49	36.419
755.66	36.892
755.84	35.490
756.02	32.111
756.20	37.385
756.38	32.570
756.56	35.574
756.74	30.813
756.92	36.188
757.10	34.110
757.28	38.295
757.45	42.274
757.63	35.616
757.81	34.674
757.99	40.365
758.17	34.623
758.35	39.733
758.53	35.737
758.71	37.894
758.88	35.252
759.06	36.808
759.24	33.968
759.42	32.939
759.60	32.952
759.78	34.080
759.96	30.074
760.13	33.574
760.31	26.895
760.49	33.445
760.67	27.668
760.85	32.650
761.03	27.509
761.21	28.259
761.38	26.616
761.56	28.657
761.74	28.592
761.92	32.046
762.10	24.750
762.28	31.495
762.46	26.704
762.63	26.422
762.81	28.995
762.99	28.649
763.17	26.954
763.35	29.645
763.53	25.813
763.70	28.762
763.88	31.253
764.06	29.756
764.24	27.882
764.42	31.059
764.60	29.430
764.77	27.726
764.95	28.611
765.13	31.947
765.31	29.341
765.49	31.834
765.66	28.511
765.84	32.531
766.02	32.151
766.20	33.083
766.38	27.965
766.56	32.216
766.73	29.659
766.91	32.585
767.09	34.757
767.27	34.203
767.45	31.211
767.62	35.469
767.80	28.520
767.98	34.165
768.16	30.447
768.33	35.163
768.51	34.436
768.69	33.703
768.87	34.852
769.05	35.200
769.22	32.476
769.40	40.621
769.58	35.078
769.76	40.290
769.94	34.694
770.11	34.637
770.29	34.459
770.47	38.422
770.65	35.720
770.82	39.550
771.00	36.880
771.18	39.470
771.36	34.334
771.53	35.485
771.71	37.055
771.89	37.162
772.07	34.660
772.25	39.918
772.42	34.989
772.60	39.700
772.78	36.487
772.96	39.113
773.13	40.346
773.31	38.875
773.49	37.124
773.67	38.177
773.84	36.469
774.02	36.282
774.20	35.634
774.37	40.621
774.55	35.459
774.73	41.113
774.91	39.079
775.08	42.389
775.26	38.502
775.44	39.438
775.62	36.529
775.79	36.204
775.97	37.338
776.15	38.591
776.32	33.079
776.50	42.493
776.68	40.113
776.86	43.501
777.03	34.896
777.21	38.412
777.39	35.838
777.56	41.541
777.74	37.723
777.92	38.255
778.10	35.335
778.27	37.900
778.45	42.040
778.63	42.584
778.80	40.725
778.98	41.838
779.16	41.268
779.34	39.124
779.51	40.047
779.69	41.767
779.87	38.785
780.04	37.179
780.22	38.782
780.40	36.318
780.57	39.545
780.75	36.862
780.93	40.137
781.10	42.474
781.28	48.810
781.46	37.316
781.63	41.226
781.81	45.177
781.99	36.703
782.16	41.101
782.34	32.205
782.52	38.210
782.69	41.898
782.87	40.208
783.05	35.680
783.22	37.175
783.40	40.064
783.58	40.887
783.75	34.065
783.93	45.216
784.11	41.635
784.28	45.224
784.46	36.767
784.64	39.680
784.81	39.397
784.99	42.645
785.17	40.257
785.34	37.064
785.52	40.753
785.69	41.160
785.87	37.875
786.05	37.128
786.22	40.915
786.40	45.034
786.58	36.949
786.75	43.787
786.93	38.584
787.11	38.809
787.28	39.809
787.46	45.249
787.63	39.570
787.81	37.300
787.99	42.171
788.16	39.321
788.34	33.299
788.51	35.616
788.69	33.148
788.87	37.398
789.04	36.594
789.22	38.684
789.39	38.068
789.57	35.917
789.75	35.521
789.92	36.773
790.10	32.077
790.27	38.053
790.45	34.111
790.63	36.989
790.80	38.250
790.98	35.203
791.15	34.041
791.33	36.048
791.51	33.959
791.68	37.663
791.86	36.856
792.03	35.646
792.21	34.571
792.39	37.864
792.56	35.105
792.74	42.275
792.91	44.565
793.09	37.729
793.26	38.302
793.44	43.523
793.62	38.081
793.79	41.441
793.97	40.252
794.14	37.256
794.32	39.179
794.49	39.988
794.67	32.353
794.84	37.145
795.02	39.494
795.20	38.340
795.37	36.604
795.55	41.426
795.72	42.814
795.90	38.408
796.07	36.915
796.25	36.447
796.42	38.356
796.60	38.633
796.77	36.515
796.95	33.333
797.13	31.798
797.30	39.307
797.48	38.583
797.65	38.708
797.83	36.074
798.00	39.534
798.18	34.846
798.35	38.682
798.53	36.463
798.70	37.415
798.88	39.767
799.05	37.058
799.23	34.066
799.40	38.493
799.58	36.090
799.75	37.125
799.93	33.074
800.10	35.454
800.28	38.798
800.45	40.461
800.63	36.151
800.80	42.761
800.98	40.320
801.15	36.268
801.33	36.602
801.50	35.537
801.68	34.739
801.85	39.767
802.03	37.354
802.20	38.055
802.38	37.819
802.55	36.223
802.73	47.350
802.90	39.881
803.08	34.188
803.25	39.419
803.43	39.594
803.60	44.657
803.78	37.742
803.95	39.043
804.13	42.939
804.30	38.936
804.48	38.788
804.65	40.255
804.83	37.186
805.00	41.110
805.17	46.267
805.35	35.984
805.52	33.708
805.70	42.609
805.87	42.358
806.05	45.916
806.22	40.757
806.40	38.992
806.57	39.159
806.75	43.990
806.92	42.303
807.09	40.956
807.27	39.801
807.44	43.220
807.62	44.670
807.79	37.410
807.97	34.451
808.14	38.030
808.31	40.293
808.49	40.319
808.66	38.331
808.84	38.127
809.01	41.479
809.19	40.782
809.36	45.479
809.53	40.623
809.71	42.156
809.88	46.446
810.06	49.181
810.23	41.678
810.41	45.021
810.58	48.483
810.75	39.328
810.93	41.518
811.10	40.984
811.28	40.059
811.45	44.614
811.62	41.512
811.80	39.164
811.97	39.313
812.15	48.714
812.32	45.039
812.49	46.444
812.67	46.366
812.84	42.588
813.02	44.084
813.19	36.907
813.36	45.425
813.54	37.367
813.71	43.489
813.89	42.648
814.06	43.764
814.23	43.955
814.41	50.326
814.58	46.885
814.75	44.387
814.93	43.668
815.10	47.377
815.28	38.361
815.45	41.422
815.62	47.073
815.80	37.824
815.97	50.511
816.14	42.162
816.32	46.166
816.49	39.633
816.66	47.504
816.84	32.248
817.01	47.092
817.18	42.540
817.36	40.623
817.53	48.835
817.71	31.888
817.88	45.872
818.05	45.105
818.23	40.147
818.40	39.130
818.57	43.428
818.75	36.122
818.92	35.208
819.09	37.264
819.27	40.091
819.44	38.819
819.61	34.156
819.79	39.766
819.96	42.697
820.13	37.990
820.31	34.735
820.48	40.513
820.65	34.634
820.82	30.542
821.00	32.950
821.17	27.063
821.34	31.697
821.52	32.012
821.69	31.660
821.86	28.214
822.04	27.611
822.21	27.859
822.38	31.546
822.56	27.194
822.73	30.227
822.90	29.229
823.07	31.114
823.25	29.257
823.42	28.703
823.59	27.832
823.77	29.692
823.94	29.657
824.11	29.841
824.29	28.826
824.46	30.475
824.63	30.593
824.80	30.255
824.98	27.978
825.15	32.289
825.32	26.510
825.49	28.618
825.67	30.056
825.84	31.983
826.01	28.326
826.19	31.501
826.36	27.255
826.53	31.052
826.70	26.844
826.88	31.180
827.05	28.997
827.22	28.571
827.39	29.845
827.57	27.720
827.74	24.356
827.91	30.437
828.08	28.042
828.26	27.093
828.43	25.938
828.60	31.083
828.77	28.749
828.95	27.516
829.12	24.841
829.29	24.178
829.46	28.631
829.64	29.298
829.81	26.865
829.98	32.310
830.15	28.265
830.32	33.115
830.50	32.948
830.67	35.152
830.84	30.444
831.01	30.360
831.19	33.313
831.36	31.279
831.53	35.902
831.70	44.874
831.87	36.537
832.05	41.040
832.22	47.943
832.39	34.312
832.56	36.479
832.74	35.554
832.91	37.924
833.08	41.458
833.25	32.138
833.42	38.198
833.60	36.690
833.77	31.455
833.94	28.953
834.11	28.494
834.28	28.207
834.45	32.128
834.63	25.606
834.80	30.541
834.97	28.288
835.14	29.889
835.31	26.536
835.49	27.342
835.66	29.103
835.83	28.513
836.00	25.266
836.17	29.885
836.34	28.790
836.52	28.385
836.69	32.459
836.86	33.639
837.03	36.247
837.20	33.090
837.37	36.245
837.55	34.566
837.72	37.982
837.89	36.949
838.06	41.296
838.23	45.052
838.40	42.684
838.58	37.121
838.75	45.626
838.92	45.105
839.09	55.976
839.26	51.284
839.43	51.042
839.60	55.894
839.78	72.841
839.95	50.154
840.12	53.098
840.29	53.147
840.46	53.816
840.63	47.591
840.80	52.475
840.98	56.109
841.15	47.364
841.32	41.705
841.49	41.278
841.66	53.680
841.83	42.702
842.00	47.193
842.17	53.964
842.34	44.701
842.52	54.472
842.69	54.995
842.86	57.338
843.03	65.336
843.20	59.466
843.37	59.610
843.54	65.775
843.71	57.953
843.88	78.025
844.06	79.683
844.23	69.822
844.40	58.798
844.57	67.938
844.74	71.256
844.91	75.090
845.08	78.778
845.25	97.132
845.42	71.266
845.59	65.109
845.76	79.385
845.94	87.150
846.11	85.653
846.28	84.810
846.45	93.156
846.62	87.201
846.79	82.285
846.96	78.161
847.13	94.894
847.30	91.858
847.47	81.329
847.64	96.597
847.81	85.472
847.98	107.647
848.15	92.518
848.32	87.174
848.50	94.329
848.67	80.909
848.84	101.518
849.01	95.964
849.18	105.423
849.35	114.161
849.52	89.938
849.69	109.070
849.86	102.564
850.03	97.710
850.20	87.500
850.37	86.327
850.54	104.370
850.71	119.556
850.88	83.099
851.05	94.545
851.22	84.628
851.39	104.264
851.56	88.477
851.73	114.943
851.90	90.850
852.07	101.071
852.24	95.673
852.41	101.613
852.58	116.839
852.75	94.503
852.92	95.844
853.09	99.779
853.26	90.435
853.43	100.000
853.60	88.363
853.77	119.444
853.94	115.033
854.11	119.222
854.28	92.814
854.45	103.812
854.62	104.867
854.79	114.252
854.96	94.340
855.13	100.000
855.30	110.123
855.47	127.957
855.64	108.838
855.81	113.696
855.98	98.210
856.15	112.217
856.32	105.714
856.49	122.667
856.66	117.078
856.83	92.735
857.00	106.117
857.17	96.536
857.34	95.843
857.51	91.224
857.68	106.736
857.85	95.279
858.02	112.775
858.19	94.802
858.36	108.904
858.53	121.513
858.70	106.757
858.87	100.215
859.04	94.118
859.21	104.455
859.38	87.421
859.55	121.853
859.72	123.140
859.89	116.188
860.05	103.656
860.22	120.879
860.39	98.344
860.56	136.957
860.73	113.470
860.90	88.913
861.07	115.181
861.24	105.556
861.41	94.726
861.58	87.973
861.75	136.911
861.92	104.933
862.09	93.750
862.26	123.714
862.43	126.389
862.59	121.370
862.76	117.526
862.93	115.319
863.10	117.323
863.27	108.261
863.44	120.241
863.61	112.946
863.78	96.095
863.95	150.314
864.12	97.479
864.29	126.989
864.45	101.493
864.62	100.966
864.79	81.667
864.96	115.777
865.13	100.000
865.30	98.630
865.47	90.512
865.64	144.390
865.81	109.873
865.97	89.177
866.14	87.942
866.31	106.234
866.48	100.000
866.65	87.527
866.82	110.562
866.99	139.377
867.16	103.431
867.33	108.393
867.49	122.535
867.66	100.490
867.83	151.140
868.00	122.396
868.17	87.955
868.34	114.019
868.51	91.315
868.67	116.575
868.84	111.298
869.01	109.769
869.18	108.201
869.35	118.605
869.52	110.904
869.69	110.149
869.85	111.211
870.02	101.966
870.19	121.120
870.36	115.038
870.53	98.874
870.70	124.703
870.86	91.076
871.03	100.706
871.20	113.953
871.37	96.847
871.54	132.092
871.71	96.783
871.87	145.238
872.04	79.835
872.21	117.568
872.38	109.950
872.55	115.544
872.72	94.558
872.88	111.202
873.05	85.809
873.22	108.273
873.39	100.728
873.56	93.112
873.72	99.113
873.89	92.157
874.06	90.831
874.23	107.094
874.40	105.753
874.56	101.443
874.73	95.556
874.90	80.549
875.07	115.181
875.24	92.124
875.40	97.158
875.57	110.393
875.74	107.250
875.91	97.996
876.08	92.677
876.24	133.634
876.41	82.427
876.58	116.817
876.75	79.494
876.92	108.102
877.08	112.322
877.25	96.211
877.42	88.409
877.59	87.578
877.75	97.222
877.92	88.066
878.09	102.857
878.26	97.119
878.42	152.901
878.59	116.173
878.76	92.500
878.93	108.475
879.09	95.575
879.26	79.286
879.43	119.951
879.60	88.650
879.76	90.317
879.93	84.644
880.10	73.429
880.27	93.028
880.43	76.678
880.60	70.812
880.77	53.888
880.94	56.675
881.10	50.602
881.27	45.955
881.44	48.145
881.61	40.541
881.77	43.296
881.94	33.890
882.11	31.801
882.28	27.062
882.44	29.704
882.61	27.474
882.78	32.330
882.94	31.434
883.11	28.068
883.28	29.996
883.45	29.071
883.61	27.537
883.78	28.787
883.95	32.226
884.11	25.337
884.28	28.210
>>>>>End Processed Spectral Data<<<<<
