SpectraSuite Data File
++++++++++++++++++++++++++++++++++++
Date: Tue Sep 24 03:47:36 EST 2019
User: sgrac
Dark Spectrum Present: Yes
Reference Spectrum Present: Yes
Number of Sampled Component Spectra: 1
Spectrometers: USB4E01596
Integration Time (usec): 100000 (USB4E01596)
Spectra Averaged: 3 (USB4E01596)
Boxcar Smoothing: 0 (USB4E01596)
Correct for Electrical Dark: No (USB4E01596)
Strobe/Lamp Enabled: Yes (USB4E01596)
Correct for Detector Non-linearity: No (USB4E01596)
Correct for Stray Light: No (USB4E01596)
Number of Pixels in Processed Spectrum: 3648
>>>>>Begin Processed Spectral Data<<<<<
178.44	1731.818
178.66	1731.818
178.87	1731.818
179.09	690.566
179.30	717.778
179.52	-1243.333
179.74	733.962
179.95	583.582
180.17	-18650.000
180.38	-14800.000
180.60	612.360
180.82	-3557.143
181.03	1162.162
181.25	-1834.783
181.46	662.500
181.68	3633.333
181.89	-1870.833
182.11	557.576
182.33	1240.000
182.54	780.702
182.76	-765.000
182.97	286.957
183.19	884.444
183.40	5022.222
183.62	546.341
183.84	668.000
184.05	932.609
184.27	549.383
184.48	-2427.778
184.70	488.172
184.91	605.263
185.13	707.895
185.34	523.656
185.56	1246.875
185.78	1500.000
185.99	2812.500
186.21	556.250
186.42	814.286
186.64	522.581
186.85	972.917
187.07	-4490.000
187.28	-2311.765
187.50	-41900.000
187.72	44400.000
187.93	-2158.333
188.15	1055.814
188.36	640.541
188.58	643.243
188.79	-5485.714
189.01	-3838.462
189.22	1512.000
189.44	498.837
189.65	674.242
189.87	-6442.857
190.09	1105.882
190.30	1321.053
190.52	2157.143
190.73	7200.000
190.95	1278.947
191.16	424.051
191.38	4363.636
191.59	3121.429
191.81	1270.588
192.02	1019.149
192.24	812.245
192.45	2500.000
192.67	561.039
192.88	440.816
193.10	696.970
193.31	434.343
193.53	1152.632
193.74	-41700.000
193.96	742.254
194.18	326.415
194.39	529.348
194.61	513.889
194.82	419.492
195.04	386.916
195.25	0.000
195.47	-37300.000
195.68	410.000
195.90	560.000
196.11	598.795
196.33	727.907
196.54	395.413
196.76	1366.667
196.97	-3516.667
197.19	540.698
197.40	835.088
197.62	733.962
197.83	474.038
198.05	584.932
198.26	0.000
198.48	-788.889
198.69	1303.333
198.91	6142.857
199.12	-9050.000
199.34	508.889
199.55	-39600.000
199.77	2566.667
199.98	705.634
200.20	359.504
200.41	675.000
200.63	1414.706
200.84	-3453.846
201.06	481.013
201.27	1708.000
201.49	868.085
201.70	536.782
201.91	666.197
202.13	698.507
202.34	-1452.000
202.56	314.789
202.77	5087.500
202.99	5450.000
203.20	659.420
203.42	1256.757
203.63	4187.500
203.85	426.050
204.06	844.231
204.28	362.712
204.49	1221.212
204.71	-1028.125
204.92	321.014
205.14	1367.742
205.35	1026.190
205.56	441.905
205.78	-902.000
205.99	1115.385
206.21	821.053
206.42	607.576
206.64	2030.435
206.85	451.807
207.07	-619.355
207.28	1824.000
207.50	454.348
207.71	858.333
207.93	12466.667
208.14	1202.632
208.35	-3341.667
208.57	-1182.759
208.78	307.692
209.00	1052.500
209.21	439.604
209.43	-7066.667
209.64	281.250
209.86	736.842
210.07	907.143
210.28	1334.483
210.50	7916.667
210.71	1451.613
210.93	-2753.333
211.14	761.818
211.36	473.958
211.57	1622.222
211.78	4355.556
212.00	-2311.111
212.21	970.732
212.43	900.000
212.64	567.073
212.86	2017.391
213.07	647.059
213.29	3107.143
213.50	316.667
213.71	549.398
213.93	360.000
214.14	399.145
214.36	491.765
214.57	-3980.000
214.78	1138.462
215.00	459.504
215.21	997.500
215.43	1716.000
215.64	499.074
215.86	482.075
216.07	9925.000
216.28	667.164
216.50	517.647
216.71	1472.414
216.93	-1044.186
217.14	477.778
217.35	848.214
217.57	376.068
217.78	706.452
218.00	463.636
218.21	597.183
218.42	1585.185
218.64	2880.000
218.85	907.143
219.07	378.151
219.28	638.462
219.49	445.872
219.71	710.000
219.92	1160.000
220.14	963.043
220.35	4081.818
220.56	839.024
220.78	1133.333
220.99	592.308
221.21	578.378
221.42	593.243
221.63	6925.000
221.85	1460.714
222.06	1329.167
222.28	489.873
222.49	524.731
222.70	358.000
222.92	808.772
223.13	1922.222
223.34	1184.375
223.56	309.449
223.77	290.972
223.99	590.000
224.20	296.575
224.41	616.000
224.63	434.694
224.84	319.286
225.05	288.800
225.27	690.196
225.48	406.061
225.69	414.583
225.91	490.361
226.12	277.041
226.34	231.285
226.55	198.723
226.76	240.000
226.98	253.750
227.19	189.216
227.40	196.537
227.62	191.748
227.83	147.514
228.04	129.217
228.26	126.426
228.47	85.806
228.69	75.306
228.90	68.257
229.11	66.617
229.33	56.625
229.54	48.210
229.75	45.550
229.97	49.464
230.18	48.618
230.39	34.205
230.61	42.040
230.82	54.263
231.03	39.979
231.25	56.103
231.46	47.519
231.67	61.069
231.89	69.608
232.10	57.042
232.31	68.409
232.53	59.873
232.74	72.598
232.95	72.397
233.17	72.552
233.38	74.539
233.59	83.386
233.81	91.952
234.02	89.331
234.23	91.115
234.45	72.887
234.66	75.091
234.87	78.605
235.09	74.194
235.30	67.733
235.51	82.676
235.73	60.059
235.94	66.144
236.15	69.683
236.36	70.410
236.58	58.146
236.79	73.186
237.00	59.590
237.22	65.873
237.43	70.461
237.64	73.167
237.86	65.235
238.07	78.694
238.28	59.556
238.50	56.349
238.71	69.774
238.92	62.833
239.13	64.865
239.35	61.029
239.56	58.776
239.77	65.757
239.99	51.669
240.20	63.120
240.41	54.909
240.63	47.016
240.84	49.352
241.05	46.371
241.26	34.667
241.48	44.396
241.69	39.812
241.90	36.977
242.12	27.715
242.33	30.306
242.54	22.246
242.75	21.733
242.97	22.964
243.18	20.214
243.39	21.221
243.61	21.305
243.82	20.420
244.03	19.168
244.24	17.408
244.46	20.237
244.67	24.380
244.88	22.871
245.09	21.583
245.31	24.306
245.52	27.323
245.73	31.511
245.95	37.750
246.16	24.257
246.37	18.653
246.58	23.510
246.80	19.739
247.01	17.638
247.22	15.828
247.43	14.575
247.65	13.732
247.86	11.683
248.07	11.300
248.28	12.428
248.50	11.116
248.71	12.465
248.92	11.096
249.13	12.093
249.35	11.156
249.56	14.108
249.77	14.671
249.98	12.808
250.20	21.663
250.41	17.614
250.62	22.755
250.83	21.815
251.05	25.353
251.26	26.167
251.47	24.831
251.68	25.014
251.90	23.169
252.11	21.361
252.32	23.941
252.53	19.844
252.75	22.486
252.96	24.060
253.17	17.923
253.38	19.661
253.59	17.940
253.81	20.092
254.02	17.152
254.23	20.817
254.44	22.417
254.66	23.457
254.87	22.343
255.08	29.953
255.29	31.451
255.50	35.446
255.72	28.394
255.93	36.738
256.14	37.006
256.35	27.355
256.57	38.657
256.78	28.740
256.99	25.249
257.20	32.842
257.41	29.887
257.63	27.049
257.84	24.088
258.05	28.926
258.26	17.129
258.47	24.809
258.69	21.586
258.90	20.587
259.11	17.962
259.32	16.490
259.53	13.785
259.75	15.676
259.96	9.884
260.17	11.395
260.38	9.864
260.59	9.077
260.81	10.575
261.02	8.797
261.23	10.155
261.44	9.377
261.65	9.811
261.87	8.828
262.08	9.952
262.29	12.451
262.50	12.555
262.71	13.371
262.92	13.759
263.14	12.429
263.35	16.099
263.56	18.779
263.77	18.289
263.98	19.831
264.20	19.955
264.41	18.758
264.62	18.794
264.83	17.051
265.04	23.446
265.25	19.649
265.47	22.443
265.68	19.321
265.89	21.530
266.10	19.425
266.31	20.835
266.52	19.877
266.74	19.325
266.95	15.460
267.16	17.142
267.37	18.081
267.58	16.807
267.79	15.866
268.01	15.058
268.22	14.330
268.43	14.679
268.64	14.149
268.85	15.492
269.06	13.299
269.27	16.190
269.49	16.006
269.70	13.262
269.91	14.125
270.12	14.677
270.33	16.424
270.54	12.937
270.75	14.706
270.97	15.759
271.18	14.133
271.39	13.749
271.60	16.032
271.81	10.908
272.02	12.353
272.23	14.224
272.45	13.256
272.66	12.816
272.87	11.758
273.08	11.260
273.29	11.899
273.50	12.533
273.71	11.578
273.92	8.788
274.14	10.598
274.35	12.087
274.56	12.999
274.77	10.882
274.98	12.557
275.19	14.785
275.40	10.547
275.61	12.216
275.83	11.548
276.04	13.814
276.25	16.491
276.46	14.949
276.67	18.394
276.88	14.376
277.09	10.925
277.30	15.936
277.51	15.566
277.73	13.290
277.94	14.536
278.15	15.016
278.36	14.972
278.57	12.604
278.78	13.725
278.99	13.596
279.20	16.144
279.41	17.455
279.62	14.542
279.84	11.246
280.05	14.410
280.26	12.207
280.47	13.680
280.68	13.134
280.89	13.216
281.10	12.344
281.31	14.274
281.52	11.914
281.73	12.823
281.94	11.323
282.16	12.651
282.37	12.861
282.58	12.652
282.79	12.279
283.00	12.259
283.21	10.292
283.42	10.582
283.63	11.635
283.84	11.177
284.05	11.795
284.26	11.391
284.47	10.280
284.68	10.925
284.89	10.163
285.11	10.933
285.32	10.630
285.53	11.980
285.74	10.877
285.95	9.426
286.16	8.815
286.37	8.729
286.58	9.160
286.79	9.350
287.00	10.159
287.21	8.977
287.42	10.862
287.63	9.057
287.84	8.750
288.05	11.084
288.26	9.314
288.48	10.483
288.69	9.850
288.90	11.041
289.11	11.528
289.32	9.899
289.53	10.369
289.74	10.103
289.95	10.418
290.16	10.787
290.37	8.880
290.58	9.293
290.79	9.161
291.00	9.062
291.21	9.560
291.42	9.516
291.63	9.735
291.84	10.252
292.05	9.685
292.26	7.816
292.47	10.253
292.68	10.122
292.89	10.588
293.10	11.070
293.31	11.049
293.52	9.230
293.73	9.858
293.94	12.190
294.15	12.365
294.36	11.715
294.57	10.715
294.79	10.800
295.00	10.108
295.21	11.466
295.42	10.691
295.63	10.673
295.84	8.779
296.05	8.310
296.26	9.447
296.47	9.653
296.68	8.700
296.89	9.628
297.10	9.796
297.31	9.813
297.52	8.583
297.73	6.925
297.94	8.335
298.15	7.090
298.36	7.433
298.57	7.850
298.78	8.138
298.99	7.926
299.20	7.589
299.41	8.047
299.62	7.822
299.83	8.465
300.04	7.391
300.25	10.502
300.46	9.700
300.67	11.180
300.88	8.520
301.09	7.245
301.30	10.518
301.50	7.114
301.71	10.405
301.92	11.248
302.13	8.503
302.34	8.206
302.55	10.311
302.76	10.419
302.97	9.521
303.18	9.743
303.39	10.895
303.60	10.791
303.81	10.902
304.02	7.634
304.23	8.210
304.44	9.800
304.65	10.445
304.86	9.407
305.07	8.935
305.28	10.111
305.49	9.330
305.70	11.826
305.91	9.687
306.12	8.909
306.33	9.976
306.54	8.673
306.75	11.915
306.96	11.977
307.17	8.524
307.38	10.757
307.58	8.851
307.79	10.851
308.00	10.810
308.21	12.140
308.42	9.765
308.63	8.616
308.84	10.777
309.05	10.288
309.26	8.323
309.47	8.284
309.68	9.414
309.89	10.611
310.10	9.414
310.31	8.767
310.52	7.865
310.73	9.981
310.94	6.270
311.14	8.289
311.35	7.603
311.56	8.521
311.77	7.395
311.98	6.504
312.19	6.646
312.40	7.564
312.61	6.428
312.82	8.750
313.03	7.060
313.24	8.107
313.45	8.363
313.66	8.988
313.86	9.492
314.07	8.017
314.28	10.263
314.49	9.719
314.70	9.865
314.91	10.204
315.12	8.854
315.33	9.889
315.54	8.019
315.75	8.785
315.96	9.419
316.16	8.340
316.37	10.266
316.58	8.805
316.79	9.483
317.00	10.023
317.21	10.203
317.42	10.470
317.63	10.180
317.84	11.808
318.05	8.462
318.25	10.391
318.46	9.974
318.67	8.983
318.88	9.544
319.09	10.920
319.30	9.829
319.51	10.591
319.72	9.093
319.93	8.377
320.13	8.749
320.34	9.837
320.55	10.150
320.76	10.197
320.97	11.506
321.18	12.461
321.39	9.124
321.60	10.951
321.80	10.523
322.01	10.970
322.22	10.260
322.43	8.395
322.64	9.101
322.85	9.840
323.06	11.336
323.27	11.005
323.47	9.769
323.68	10.547
323.89	10.225
324.10	10.599
324.31	8.732
324.52	8.831
324.73	11.285
324.93	8.843
325.14	8.293
325.35	9.382
325.56	9.210
325.77	10.795
325.98	8.668
326.19	9.271
326.39	6.678
326.60	9.152
326.81	8.328
327.02	8.142
327.23	8.080
327.44	9.953
327.64	6.360
327.85	8.271
328.06	7.810
328.27	10.148
328.48	8.736
328.69	8.895
328.90	8.498
329.10	9.046
329.31	9.499
329.52	8.584
329.73	9.741
329.94	8.839
330.15	9.479
330.35	10.282
330.56	9.433
330.77	8.724
330.98	9.810
331.19	9.654
331.39	10.744
331.60	9.731
331.81	8.970
332.02	9.457
332.23	10.526
332.44	8.961
332.64	9.887
332.85	10.621
333.06	9.841
333.27	8.700
333.48	8.820
333.68	8.480
333.89	9.671
334.10	7.350
334.31	9.859
334.52	9.229
334.72	7.918
334.93	8.951
335.14	7.077
335.35	8.209
335.56	9.821
335.76	8.513
335.97	9.681
336.18	7.019
336.39	10.102
336.60	9.597
336.80	8.062
337.01	7.811
337.22	8.783
337.43	9.157
337.64	10.460
337.84	8.536
338.05	8.864
338.26	8.439
338.47	8.472
338.68	7.250
338.88	9.374
339.09	7.716
339.30	8.196
339.51	7.312
339.71	8.394
339.92	7.588
340.13	8.813
340.34	8.328
340.55	7.987
340.75	8.046
340.96	6.936
341.17	9.340
341.38	8.189
341.58	8.022
341.79	9.125
342.00	6.868
342.21	7.360
342.41	8.711
342.62	7.133
342.83	9.008
343.04	8.600
343.24	8.548
343.45	8.414
343.66	6.894
343.87	7.761
344.07	7.454
344.28	6.229
344.49	7.856
344.70	7.418
344.90	6.702
345.11	7.127
345.32	6.546
345.53	6.800
345.73	6.824
345.94	7.150
346.15	7.850
346.36	6.760
346.56	6.788
346.77	6.785
346.98	7.288
347.19	7.361
347.39	6.248
347.60	7.270
347.81	5.956
348.02	9.251
348.22	6.990
348.43	8.166
348.64	7.640
348.84	7.412
349.05	8.072
349.26	8.119
349.47	5.930
349.67	7.898
349.88	9.044
350.09	6.970
350.30	9.365
350.50	7.471
350.71	7.292
350.92	7.345
351.12	6.793
351.33	6.456
351.54	7.622
351.74	6.935
351.95	6.932
352.16	6.647
352.37	8.635
352.57	8.243
352.78	7.495
352.99	7.364
353.19	7.688
353.40	7.083
353.61	8.347
353.82	7.951
354.02	6.767
354.23	7.618
354.44	8.336
354.64	7.920
354.85	8.022
355.06	6.062
355.26	7.625
355.47	7.723
355.68	8.974
355.88	6.949
356.09	7.629
356.30	5.707
356.51	7.901
356.71	7.096
356.92	5.287
357.13	7.403
357.33	8.795
357.54	6.218
357.75	5.845
357.95	7.470
358.16	5.630
358.37	8.055
358.57	6.594
358.78	7.932
358.99	6.734
359.19	7.317
359.40	7.908
359.61	7.442
359.81	7.877
360.02	8.524
360.23	6.763
360.43	6.962
360.64	6.514
360.85	7.604
361.05	6.474
361.26	7.474
361.47	6.280
361.67	6.681
361.88	5.536
362.09	6.917
362.29	5.469
362.50	5.573
362.70	5.117
362.91	7.037
363.12	5.367
363.32	5.513
363.53	6.610
363.74	6.614
363.94	5.262
364.15	7.502
364.36	8.021
364.56	5.734
364.77	7.451
364.98	8.813
365.18	7.255
365.39	8.051
365.59	6.997
365.80	6.549
366.01	8.004
366.21	6.402
366.42	6.622
366.63	8.283
366.83	7.122
367.04	5.695
367.24	8.064
367.45	5.686
367.66	5.389
367.86	7.484
368.07	7.092
368.28	7.424
368.48	6.455
368.69	6.092
368.89	6.743
369.10	7.043
369.31	6.978
369.51	8.316
369.72	7.915
369.92	8.592
370.13	6.520
370.34	7.354
370.54	4.641
370.75	7.090
370.95	6.983
371.16	7.208
371.37	7.085
371.57	6.268
371.78	6.948
371.98	7.545
372.19	7.129
372.40	7.317
372.60	7.548
372.81	6.832
373.01	6.204
373.22	6.613
373.43	8.123
373.63	7.035
373.84	7.907
374.04	7.158
374.25	7.473
374.46	8.094
374.66	8.009
374.87	8.263
375.07	6.917
375.28	5.638
375.48	6.660
375.69	7.695
375.90	6.330
376.10	6.092
376.31	6.314
376.51	6.481
376.72	7.115
376.92	5.824
377.13	7.449
377.34	7.915
377.54	6.678
377.75	8.086
377.95	7.339
378.16	8.036
378.36	8.038
378.57	7.731
378.77	7.324
378.98	7.656
379.19	6.646
379.39	6.226
379.60	7.815
379.80	7.200
380.01	8.079
380.21	6.833
380.42	8.166
380.62	7.164
380.83	7.806
381.04	7.209
381.24	7.508
381.45	8.098
381.65	7.241
381.86	7.947
382.06	9.215
382.27	7.033
382.47	7.648
382.68	8.284
382.88	8.807
383.09	7.805
383.29	7.153
383.50	9.849
383.71	7.716
383.91	8.256
384.12	7.308
384.32	8.651
384.53	8.261
384.73	7.054
384.94	7.322
385.14	8.124
385.35	8.019
385.55	9.419
385.76	8.390
385.96	7.959
386.17	8.420
386.37	9.218
386.58	8.610
386.78	10.179
386.99	7.760
387.19	9.241
387.40	7.864
387.60	10.150
387.81	9.159
388.01	9.178
388.22	9.637
388.42	10.911
388.63	11.637
388.83	11.231
389.04	7.932
389.24	9.903
389.45	9.595
389.65	9.749
389.86	9.626
390.06	9.775
390.27	9.671
390.47	10.347
390.68	9.751
390.88	11.533
391.09	11.611
391.29	11.432
391.50	10.524
391.70	11.543
391.91	10.050
392.11	11.246
392.32	11.402
392.52	12.055
392.73	11.519
392.93	11.865
393.14	11.676
393.34	11.718
393.55	12.755
393.75	11.544
393.95	10.850
394.16	13.188
394.36	12.168
394.57	13.731
394.77	13.037
394.98	12.299
395.18	12.936
395.39	12.475
395.59	12.646
395.80	13.132
396.00	12.510
396.21	14.296
396.41	12.213
396.61	13.892
396.82	13.628
397.02	15.013
397.23	14.454
397.43	13.801
397.64	11.931
397.84	14.532
398.05	11.918
398.25	14.275
398.45	12.661
398.66	14.132
398.86	13.594
399.07	15.114
399.27	12.845
399.48	14.968
399.68	13.113
399.89	14.181
400.09	14.546
400.29	13.504
400.50	14.042
400.70	14.734
400.91	13.147
401.11	13.483
401.32	14.922
401.52	13.615
401.72	13.773
401.93	15.292
402.13	13.934
402.34	13.871
402.54	13.482
402.75	16.259
402.95	11.930
403.15	15.880
403.36	12.790
403.56	15.338
403.77	13.363
403.97	14.281
404.17	13.553
404.38	14.883
404.58	13.049
404.79	14.435
404.99	14.619
405.19	14.155
405.40	14.477
405.60	14.729
405.81	13.511
406.01	15.207
406.21	13.925
406.42	14.745
406.62	14.378
406.83	15.437
407.03	14.814
407.23	14.374
407.44	14.146
407.64	14.991
407.85	14.445
408.05	15.363
408.25	14.490
408.46	15.693
408.66	14.816
408.87	14.589
409.07	13.819
409.27	14.400
409.48	14.534
409.68	15.310
409.88	12.724
410.09	14.573
410.29	14.702
410.50	16.189
410.70	13.203
410.90	13.739
411.11	13.579
411.31	14.333
411.51	14.959
411.72	14.907
411.92	13.458
412.12	14.927
412.33	13.876
412.53	14.804
412.74	13.113
412.94	14.296
413.14	14.148
413.35	14.220
413.55	14.397
413.75	15.467
413.96	13.224
414.16	14.725
414.36	14.164
414.57	14.005
414.77	13.497
414.97	14.566
415.18	13.929
415.38	14.327
415.58	14.017
415.79	13.505
415.99	13.250
416.19	14.371
416.40	14.021
416.60	14.325
416.80	13.225
417.01	13.884
417.21	12.700
417.41	14.494
417.62	14.021
417.82	13.672
418.02	12.808
418.23	14.066
418.43	13.084
418.63	14.009
418.84	13.554
419.04	13.320
419.24	14.002
419.45	14.123
419.65	14.056
419.85	13.890
420.06	13.450
420.26	13.775
420.46	13.599
420.67	13.677
420.87	13.756
421.07	14.095
421.28	13.345
421.48	13.826
421.68	13.642
421.88	13.457
422.09	13.920
422.29	14.075
422.49	13.360
422.70	13.878
422.90	13.732
423.10	13.840
423.31	13.993
423.51	14.215
423.71	13.453
423.91	13.511
424.12	13.340
424.32	13.880
424.52	13.291
424.73	13.068
424.93	13.414
425.13	12.970
425.33	13.290
425.54	13.444
425.74	13.590
425.94	14.000
426.15	13.575
426.35	13.562
426.55	14.140
426.75	13.731
426.96	13.752
427.16	14.127
427.36	13.892
427.57	14.176
427.77	13.664
427.97	13.924
428.17	13.761
428.38	13.984
428.58	12.980
428.78	14.503
428.98	13.180
429.19	13.698
429.39	12.763
429.59	13.884
429.79	12.329
430.00	12.934
430.20	12.496
430.40	13.880
430.60	12.870
430.81	13.030
431.01	13.233
431.21	13.831
431.41	13.313
431.62	13.855
431.82	13.322
432.02	14.572
432.22	13.275
432.43	13.301
432.63	12.968
432.83	13.748
433.03	13.191
433.24	12.625
433.44	13.295
433.64	13.911
433.84	13.162
434.05	13.805
434.25	13.304
434.45	13.744
434.65	14.185
434.85	14.573
435.06	14.440
435.26	14.409
435.46	14.022
435.66	14.674
435.87	14.238
436.07	15.165
436.27	14.855
436.47	14.916
436.67	14.507
436.88	15.025
437.08	14.003
437.28	14.397
437.48	14.498
437.69	14.597
437.89	14.508
438.09	14.870
438.29	14.368
438.49	14.632
438.70	14.802
438.90	14.565
439.10	14.476
439.30	15.012
439.50	13.856
439.71	14.943
439.91	15.056
440.11	15.430
440.31	14.763
440.51	14.857
440.72	14.680
440.92	14.732
441.12	15.399
441.32	15.237
441.52	15.202
441.72	15.192
441.93	15.346
442.13	15.369
442.33	15.702
442.53	16.017
442.73	15.372
442.94	16.016
443.14	15.720
443.34	16.241
443.54	16.173
443.74	16.296
443.94	15.568
444.15	16.351
444.35	15.642
444.55	16.148
444.75	15.673
444.95	16.057
445.15	15.733
445.36	15.580
445.56	15.455
445.76	15.734
445.96	15.252
446.16	15.037
446.36	15.516
446.57	15.648
446.77	15.831
446.97	15.665
447.17	15.681
447.37	15.964
447.57	15.833
447.77	15.992
447.98	16.003
448.18	16.299
448.38	16.352
448.58	16.393
448.78	16.985
448.98	16.424
449.18	16.541
449.39	16.760
449.59	16.883
449.79	16.891
449.99	16.861
450.19	17.150
450.39	16.647
450.59	16.813
450.79	16.851
451.00	16.857
451.20	18.221
451.40	16.853
451.60	16.903
451.80	16.879
452.00	16.825
452.20	16.880
452.40	16.651
452.61	16.836
452.81	16.643
453.01	16.725
453.21	16.726
453.41	16.840
453.61	16.669
453.81	17.024
454.01	16.900
454.21	17.145
454.42	17.397
454.62	17.352
454.82	17.104
455.02	17.548
455.22	16.913
455.42	17.552
455.62	16.887
455.82	17.472
456.02	17.225
456.23	16.669
456.43	16.716
456.63	17.142
456.83	17.127
457.03	17.301
457.23	16.601
457.43	17.541
457.63	17.209
457.83	17.611
458.03	15.998
458.23	17.096
458.43	16.573
458.64	16.531
458.84	16.828
459.04	16.810
459.24	16.238
459.44	16.254
459.64	16.271
459.84	16.513
460.04	15.973
460.24	16.288
460.44	16.630
460.64	16.545
460.84	16.746
461.04	16.692
461.24	16.709
461.45	16.843
461.65	16.946
461.85	17.453
462.05	17.617
462.25	17.787
462.45	17.854
462.65	17.236
462.85	17.133
463.05	17.612
463.25	17.287
463.45	18.114
463.65	17.970
463.85	17.495
464.05	17.489
464.25	17.430
464.45	17.841
464.65	17.283
464.85	16.900
465.05	17.472
465.26	17.824
465.46	17.641
465.66	17.576
465.86	17.986
466.06	17.297
466.26	17.401
466.46	16.960
466.66	17.254
466.86	17.265
467.06	17.592
467.26	17.654
467.46	17.997
467.66	17.529
467.86	17.797
468.06	17.346
468.26	17.175
468.46	17.864
468.66	18.254
468.86	17.629
469.06	17.939
469.26	17.478
469.46	17.528
469.66	17.740
469.86	17.669
470.06	17.558
470.26	18.058
470.46	17.597
470.66	18.046
470.86	17.595
471.06	18.161
471.26	17.547
471.46	17.987
471.66	17.779
471.86	18.254
472.06	18.206
472.26	18.701
472.46	18.409
472.66	17.811
472.86	17.574
473.06	17.896
473.26	18.227
473.46	18.003
473.66	17.764
473.86	18.393
474.06	18.116
474.26	18.492
474.46	17.610
474.66	18.578
474.86	18.606
475.06	19.036
475.26	18.442
475.46	18.765
475.66	17.965
475.86	18.611
476.06	18.621
476.26	18.702
476.46	18.308
476.66	18.557
476.86	18.113
477.06	18.088
477.26	18.080
477.46	18.376
477.65	18.277
477.85	18.533
478.05	18.030
478.25	18.110
478.45	18.526
478.65	19.008
478.85	18.516
479.05	18.704
479.25	18.461
479.45	18.738
479.65	18.719
479.85	18.826
480.05	18.302
480.25	18.694
480.45	18.605
480.65	18.600
480.85	18.411
481.05	18.415
481.25	18.774
481.44	18.653
481.64	18.597
481.84	18.386
482.04	18.366
482.24	18.358
482.44	18.139
482.64	18.053
482.84	17.812
483.04	17.650
483.24	17.524
483.44	16.708
483.64	16.498
483.84	16.787
484.04	17.281
484.23	17.786
484.43	17.957
484.63	18.753
484.83	19.728
485.03	20.510
485.23	20.267
485.43	20.093
485.63	20.016
485.83	19.694
486.03	19.925
486.23	19.965
486.42	19.464
486.62	19.205
486.82	18.885
487.02	18.508
487.22	18.340
487.42	17.953
487.62	17.987
487.82	18.071
488.02	17.934
488.22	18.198
488.41	18.568
488.61	18.582
488.81	18.722
489.01	18.926
489.21	19.045
489.41	19.291
489.61	19.617
489.81	19.376
490.01	19.436
490.20	19.495
490.40	19.453
490.60	19.193
490.80	19.103
491.00	18.979
491.20	18.400
491.40	17.791
491.60	17.872
491.79	17.964
491.99	18.230
492.19	18.021
492.39	18.247
492.59	18.482
492.79	18.620
492.99	18.952
493.19	19.307
493.38	19.367
493.58	19.911
493.78	19.965
493.98	20.062
494.18	19.806
494.38	19.707
494.58	19.482
494.77	19.593
494.97	19.541
495.17	19.703
495.37	19.365
495.57	19.256
495.77	19.153
495.96	19.212
496.16	18.988
496.36	18.711
496.56	19.174
496.76	18.943
496.96	18.611
497.15	18.736
497.35	18.714
497.55	18.881
497.75	18.983
497.95	18.863
498.15	19.106
498.34	18.931
498.54	18.701
498.74	19.593
498.94	19.748
499.14	19.580
499.34	19.466
499.53	19.144
499.73	19.596
499.93	19.616
500.13	19.236
500.33	19.135
500.52	19.329
500.72	18.927
500.92	19.642
501.12	19.445
501.32	19.323
501.52	19.566
501.71	19.108
501.91	19.395
502.11	19.946
502.31	19.774
502.51	19.598
502.70	19.539
502.90	19.519
503.10	19.626
503.30	19.485
503.50	19.711
503.69	18.919
503.89	19.387
504.09	19.513
504.29	19.561
504.48	19.330
504.68	19.895
504.88	19.219
505.08	19.304
505.28	19.306
505.47	19.502
505.67	19.722
505.87	19.535
506.07	19.633
506.27	20.127
506.46	19.951
506.66	19.419
506.86	19.693
507.06	20.346
507.25	19.601
507.45	19.403
507.65	19.767
507.85	19.560
508.04	19.509
508.24	19.098
508.44	19.804
508.64	19.457
508.83	19.582
509.03	19.397
509.23	19.448
509.43	19.802
509.63	19.511
509.82	19.275
510.02	19.140
510.22	19.548
510.42	19.407
510.61	19.847
510.81	19.533
511.01	20.040
511.21	20.039
511.40	19.958
511.60	19.608
511.80	19.989
511.99	19.713
512.19	19.914
512.39	19.541
512.59	19.712
512.78	19.852
512.98	19.862
513.18	20.026
513.38	19.884
513.57	20.075
513.77	20.037
513.97	20.223
514.17	20.200
514.36	20.181
514.56	20.179
514.76	20.089
514.95	20.442
515.15	20.363
515.35	20.054
515.55	20.277
515.74	20.285
515.94	19.904
516.14	20.104
516.33	20.325
516.53	20.716
516.73	19.936
516.93	20.032
517.12	20.253
517.32	19.903
517.52	20.402
517.71	20.177
517.91	19.785
518.11	19.498
518.30	19.625
518.50	19.713
518.70	19.283
518.90	19.606
519.09	19.388
519.29	20.108
519.49	19.904
519.68	20.025
519.88	20.406
520.08	19.701
520.27	20.251
520.47	20.319
520.67	20.358
520.86	20.496
521.06	20.595
521.26	20.358
521.45	20.352
521.65	20.589
521.85	20.611
522.04	20.444
522.24	20.650
522.44	20.440
522.63	20.346
522.83	20.897
523.03	20.309
523.22	20.711
523.42	20.557
523.62	20.533
523.81	20.531
524.01	20.186
524.21	20.368
524.40	19.933
524.60	20.152
524.80	20.179
524.99	20.454
525.19	19.554
525.39	19.472
525.58	19.699
525.78	19.656
525.98	19.861
526.17	19.686
526.37	19.548
526.57	19.703
526.76	20.108
526.96	19.870
527.15	19.933
527.35	19.934
527.55	19.666
527.74	19.606
527.94	19.427
528.14	19.029
528.33	18.727
528.53	18.451
528.72	18.920
528.92	19.085
529.12	19.181
529.31	19.436
529.51	19.784
529.71	20.041
529.90	20.125
530.10	20.207
530.29	20.550
530.49	20.906
530.69	21.077
530.88	20.806
531.08	20.804
531.28	20.738
531.47	20.298
531.67	20.422
531.86	20.045
532.06	20.219
532.26	19.753
532.45	19.987
532.65	19.369
532.84	19.363
533.04	19.187
533.24	19.137
533.43	19.358
533.63	19.600
533.82	19.597
534.02	19.975
534.22	19.821
534.41	19.945
534.61	20.189
534.80	20.152
535.00	20.313
535.19	20.620
535.39	20.813
535.59	20.551
535.78	20.242
535.98	20.218
536.17	20.133
536.37	19.997
536.57	19.895
536.76	19.755
536.96	19.840
537.15	20.083
537.35	19.802
537.54	19.909
537.74	20.043
537.93	20.295
538.13	20.105
538.33	20.472
538.52	20.784
538.72	20.562
538.91	20.609
539.11	20.216
539.30	20.369
539.50	21.018
539.70	20.720
539.89	20.363
540.09	19.877
540.28	19.925
540.48	19.749
540.67	19.421
540.87	18.818
541.06	19.036
541.26	18.827
541.45	19.175
541.65	19.188
541.85	19.571
542.04	19.338
542.24	19.823
542.43	19.670
542.63	19.915
542.82	20.216
543.02	20.012
543.21	20.386
543.41	20.560
543.60	20.712
543.80	20.512
543.99	20.474
544.19	20.361
544.38	20.323
544.58	20.093
544.77	19.886
544.97	20.479
545.16	20.549
545.36	20.176
545.56	20.322
545.75	20.433
545.95	20.572
546.14	20.276
546.34	20.356
546.53	20.365
546.73	19.722
546.92	20.245
547.12	19.988
547.31	20.626
547.51	20.201
547.70	20.042
547.90	20.226
548.09	20.123
548.29	20.722
548.48	20.533
548.68	20.909
548.87	21.213
549.07	20.766
549.26	20.830
549.46	21.758
549.65	21.159
549.84	21.607
550.04	21.040
550.23	20.862
550.43	21.523
550.62	20.847
550.82	21.122
551.01	20.887
551.21	21.049
551.40	21.461
551.60	20.771
551.79	21.224
551.99	21.391
552.18	21.206
552.38	20.664
552.57	21.241
552.77	20.660
552.96	21.158
553.16	20.784
553.35	21.352
553.54	21.201
553.74	21.384
553.93	21.131
554.13	21.256
554.32	21.605
554.52	21.526
554.71	21.535
554.91	21.202
555.10	22.001
555.29	21.827
555.49	21.768
555.68	21.694
555.88	21.282
556.07	21.427
556.27	22.146
556.46	21.409
556.66	21.969
556.85	21.876
557.04	21.973
557.24	21.405
557.43	21.397
557.63	21.503
557.82	21.505
558.02	21.723
558.21	22.249
558.40	21.644
558.60	22.096
558.79	21.990
558.99	21.940
559.18	21.833
559.38	22.214
559.57	22.487
559.76	21.901
559.96	22.609
560.15	22.337
560.35	21.756
560.54	21.867
560.73	21.829
560.93	21.971
561.12	22.016
561.32	22.060
561.51	22.835
561.70	21.732
561.90	21.913
562.09	22.358
562.29	22.068
562.48	21.874
562.67	22.341
562.87	22.628
563.06	21.998
563.26	22.142
563.45	22.162
563.64	21.914
563.84	21.998
564.03	22.662
564.23	21.445
564.42	22.931
564.61	22.104
564.81	22.744
565.00	22.621
565.20	22.575
565.39	22.620
565.58	21.840
565.78	21.978
565.97	22.474
566.16	22.167
566.36	21.912
566.55	22.364
566.74	22.361
566.94	22.379
567.13	22.034
567.33	22.865
567.52	22.773
567.71	22.131
567.91	23.027
568.10	22.902
568.29	22.570
568.49	22.572
568.68	22.866
568.87	22.579
569.07	22.536
569.26	23.194
569.45	22.779
569.65	21.951
569.84	22.439
570.04	22.762
570.23	22.444
570.42	22.031
570.62	22.548
570.81	22.461
571.00	22.256
571.20	23.107
571.39	22.450
571.58	22.617
571.78	22.001
571.97	22.605
572.16	22.347
572.36	22.629
572.55	22.181
572.74	22.487
572.94	22.239
573.13	22.883
573.32	22.463
573.51	22.542
573.71	23.089
573.90	22.437
574.09	22.599
574.29	22.929
574.48	22.654
574.67	22.668
574.87	22.378
575.06	22.206
575.25	22.593
575.45	22.752
575.64	22.865
575.83	22.631
576.03	23.557
576.22	22.494
576.41	22.699
576.60	22.638
576.80	22.760
576.99	23.152
577.18	23.066
577.38	22.775
577.57	22.983
577.76	22.766
577.95	22.926
578.15	22.813
578.34	22.767
578.53	23.334
578.73	23.040
578.92	22.287
579.11	23.401
579.30	23.397
579.50	23.053
579.69	23.028
579.88	23.346
580.08	23.108
580.27	23.315
580.46	23.267
580.65	22.896
580.85	23.396
581.04	22.731
581.23	22.650
581.42	22.752
581.62	22.621
581.81	22.952
582.00	23.079
582.19	22.886
582.39	22.975
582.58	23.235
582.77	23.562
582.96	23.082
583.16	22.411
583.35	23.194
583.54	23.332
583.73	23.733
583.93	22.950
584.12	22.615
584.31	23.360
584.50	23.614
584.70	23.414
584.89	23.694
585.08	22.650
585.27	23.789
585.47	22.801
585.66	23.674
585.85	22.316
586.04	22.709
586.24	23.605
586.43	22.679
586.62	23.450
586.81	23.248
587.00	22.798
587.20	23.561
587.39	23.134
587.58	23.400
587.77	23.156
587.97	22.794
588.16	23.058
588.35	23.297
588.54	22.754
588.73	23.003
588.93	22.587
589.12	23.583
589.31	22.837
589.50	22.926
589.69	23.471
589.89	23.404
590.08	22.465
590.27	23.201
590.46	23.263
590.65	22.832
590.85	22.311
591.04	23.866
591.23	23.214
591.42	23.397
591.61	22.751
591.81	23.086
592.00	22.901
592.19	23.316
592.38	23.333
592.57	23.407
592.77	24.139
592.96	23.180
593.15	24.026
593.34	23.593
593.53	23.651
593.72	23.895
593.92	22.450
594.11	24.405
594.30	23.225
594.49	23.601
594.68	23.637
594.87	23.697
595.07	23.086
595.26	23.421
595.45	23.417
595.64	23.166
595.83	23.108
596.02	23.501
596.22	24.002
596.41	23.021
596.60	23.596
596.79	23.240
596.98	23.186
597.17	23.282
597.37	23.453
597.56	23.382
597.75	23.376
597.94	23.592
598.13	23.713
598.32	23.850
598.51	23.955
598.71	24.408
598.90	23.690
599.09	24.415
599.28	24.119
599.47	24.466
599.66	24.728
599.85	24.511
600.05	24.449
600.24	24.920
600.43	24.027
600.62	24.964
600.81	24.769
601.00	24.673
601.19	23.700
601.38	24.573
601.58	24.497
601.77	24.297
601.96	23.609
602.15	24.813
602.34	25.074
602.53	25.013
602.72	24.074
602.91	24.669
603.10	24.041
603.30	25.353
603.49	24.254
603.68	25.143
603.87	24.438
604.06	23.854
604.25	23.714
604.44	24.081
604.63	23.990
604.82	24.518
605.01	24.347
605.21	24.617
605.40	24.372
605.59	24.705
605.78	24.347
605.97	24.675
606.16	24.959
606.35	25.153
606.54	25.383
606.73	25.652
606.92	25.955
607.11	25.992
607.30	25.314
607.50	25.667
607.69	25.116
607.88	25.587
608.07	24.916
608.26	25.241
608.45	25.104
608.64	25.676
608.83	24.669
609.02	24.713
609.21	24.972
609.40	24.992
609.59	25.152
609.78	24.774
609.97	24.726
610.16	25.339
610.35	24.674
610.55	25.210
610.74	25.684
610.93	25.326
611.12	25.261
611.31	24.993
611.50	25.701
611.69	25.604
611.88	25.354
612.07	26.308
612.26	25.140
612.45	26.236
612.64	25.709
612.83	26.310
613.02	26.008
613.21	26.175
613.40	26.469
613.59	27.160
613.78	26.574
613.97	26.859
614.16	26.115
614.35	27.313
614.54	26.675
614.73	25.863
614.92	26.238
615.11	26.508
615.30	26.580
615.49	26.040
615.68	26.209
615.87	26.666
616.07	25.525
616.26	25.433
616.45	26.057
616.64	25.565
616.83	24.690
617.02	26.713
617.21	24.929
617.40	25.710
617.59	25.403
617.78	25.819
617.97	25.038
618.16	26.258
618.35	24.532
618.54	25.072
618.73	25.085
618.92	25.506
619.11	25.216
619.30	25.823
619.49	25.166
619.68	25.318
619.86	25.456
620.05	25.820
620.24	25.232
620.43	25.956
620.62	24.838
620.81	25.691
621.00	26.332
621.19	26.281
621.38	25.758
621.57	25.310
621.76	25.106
621.95	26.307
622.14	24.978
622.33	25.640
622.52	24.919
622.71	25.200
622.90	25.123
623.09	25.363
623.28	25.349
623.47	24.591
623.66	25.631
623.85	25.172
624.04	25.169
624.23	25.878
624.42	24.246
624.61	25.611
624.80	24.671
624.99	25.836
625.18	24.355
625.36	25.717
625.55	25.431
625.74	24.779
625.93	24.285
626.12	25.501
626.31	25.172
626.50	25.122
626.69	25.144
626.88	25.939
627.07	25.318
627.26	24.841
627.45	25.224
627.64	24.920
627.83	24.565
628.02	25.269
628.20	24.840
628.39	25.114
628.58	25.167
628.77	25.346
628.96	25.617
629.15	25.011
629.34	25.148
629.53	25.085
629.72	25.517
629.91	25.885
630.10	26.452
630.29	26.411
630.47	26.449
630.66	26.584
630.85	26.045
631.04	26.399
631.23	27.278
631.42	27.099
631.61	27.607
631.80	26.921
631.99	26.750
632.18	26.907
632.36	26.161
632.55	27.440
632.74	26.533
632.93	26.257
633.12	26.088
633.31	26.402
633.50	25.939
633.69	25.381
633.88	25.259
634.06	25.488
634.25	25.459
634.44	26.436
634.63	25.900
634.82	25.551
635.01	25.628
635.20	26.082
635.39	25.911
635.57	26.428
635.76	26.393
635.95	26.537
636.14	26.441
636.33	25.976
636.52	25.709
636.71	25.569
636.89	26.124
637.08	25.945
637.27	24.828
637.46	25.030
637.65	25.055
637.84	25.908
638.03	24.579
638.21	25.397
638.40	25.720
638.59	24.669
638.78	24.341
638.97	25.148
639.16	25.809
639.34	25.203
639.53	23.529
639.72	25.339
639.91	24.330
640.10	23.821
640.29	25.392
640.47	25.936
640.66	25.025
640.85	25.723
641.04	24.305
641.23	24.666
641.42	24.311
641.60	24.718
641.79	24.498
641.98	24.472
642.17	23.853
642.36	25.091
642.54	23.910
642.73	24.743
642.92	23.175
643.11	25.404
643.30	24.136
643.49	24.837
643.67	22.807
643.86	24.447
644.05	23.368
644.24	24.806
644.43	24.201
644.61	24.613
644.80	24.440
644.99	24.579
645.18	25.151
645.37	24.931
645.55	23.490
645.74	24.889
645.93	24.294
646.12	24.483
646.31	24.419
646.49	24.087
646.68	24.870
646.87	25.162
647.06	24.317
647.24	24.451
647.43	24.860
647.62	25.253
647.81	24.311
648.00	26.095
648.18	23.963
648.37	25.577
648.56	25.520
648.75	24.371
648.93	25.103
649.12	25.639
649.31	23.799
649.50	23.917
649.68	23.936
649.87	24.616
650.06	23.350
650.25	24.977
650.43	23.140
650.62	23.649
650.81	23.442
651.00	24.828
651.18	23.686
651.37	24.710
651.56	23.847
651.75	24.925
651.93	23.473
652.12	23.929
652.31	24.050
652.50	24.238
652.68	25.155
652.87	25.426
653.06	24.718
653.25	25.747
653.43	22.903
653.62	25.115
653.81	23.678
654.00	23.917
654.18	23.755
654.37	24.754
654.56	23.557
654.74	23.013
654.93	23.797
655.12	24.352
655.31	24.781
655.49	25.238
655.68	23.072
655.87	22.956
656.05	21.692
656.24	24.742
656.43	21.580
656.62	25.080
656.80	22.693
656.99	23.463
657.18	22.647
657.36	24.705
657.55	23.701
657.74	24.200
657.93	24.020
658.11	24.631
658.30	23.115
658.49	22.500
658.67	23.514
658.86	22.409
659.05	22.493
659.23	24.048
659.42	22.605
659.61	22.776
659.79	23.179
659.98	23.916
660.17	23.943
660.35	23.602
660.54	24.170
660.73	24.348
660.91	23.540
661.10	24.505
661.29	22.284
661.47	23.872
661.66	23.149
661.85	23.303
662.03	23.448
662.22	21.362
662.41	21.501
662.59	23.193
662.78	21.611
662.97	22.761
663.15	21.800
663.34	22.157
663.53	21.041
663.71	21.938
663.90	21.482
664.09	22.630
664.27	22.492
664.46	22.163
664.65	20.686
664.83	22.175
665.02	20.997
665.21	21.068
665.39	19.730
665.58	22.600
665.77	21.309
665.95	21.337
666.14	20.647
666.32	22.244
666.51	20.296
666.70	20.658
666.88	19.978
667.07	20.628
667.26	19.374
667.44	20.801
667.63	20.221
667.81	20.766
668.00	18.893
668.19	22.914
668.37	20.972
668.56	21.761
668.75	19.015
668.93	22.159
669.12	18.789
669.30	20.853
669.49	19.208
669.68	21.464
669.86	21.944
670.05	19.825
670.23	20.144
670.42	20.871
670.61	21.697
670.79	22.351
670.98	21.046
671.16	21.778
671.35	20.153
671.54	21.353
671.72	19.894
671.91	21.585
672.09	19.825
672.28	20.048
672.46	21.101
672.65	21.412
672.84	20.329
673.02	21.008
673.21	18.130
673.39	19.314
673.58	21.275
673.77	21.403
673.95	19.426
674.14	21.903
674.32	18.980
674.51	21.892
674.69	19.246
674.88	20.512
675.07	18.310
675.25	22.987
675.44	18.953
675.62	20.401
675.81	19.070
675.99	23.827
676.18	22.252
676.36	20.041
676.55	19.120
676.74	23.034
676.92	22.079
677.11	22.018
677.29	20.677
677.48	21.356
677.66	20.470
677.85	19.898
678.03	21.334
678.22	22.880
678.40	21.683
678.59	21.023
678.78	19.628
678.96	20.967
679.15	20.453
679.33	22.561
679.52	21.220
679.70	22.824
679.89	20.945
680.07	22.315
680.26	19.531
680.44	21.067
680.63	21.742
680.81	22.529
681.00	20.265
681.18	21.192
681.37	21.109
681.55	23.092
681.74	23.158
681.92	22.954
682.11	21.798
682.29	21.999
682.48	21.075
682.66	23.383
682.85	21.668
683.03	22.537
683.22	23.677
683.40	24.023
683.59	22.203
683.77	24.816
683.96	20.595
684.14	24.803
684.33	20.852
684.51	25.622
684.70	22.904
684.88	24.776
685.07	21.873
685.25	24.580
685.44	20.933
685.62	22.859
685.81	21.473
685.99	24.966
686.18	20.587
686.36	24.864
686.55	22.713
686.73	22.552
686.92	24.156
687.10	23.945
687.29	25.063
687.47	25.844
687.65	24.894
687.84	23.361
688.02	26.418
688.21	25.833
688.39	23.637
688.58	26.401
688.76	23.788
688.95	25.118
689.13	22.810
689.32	26.367
689.50	25.598
689.68	25.843
689.87	24.358
690.05	27.054
690.24	26.326
690.42	25.153
690.61	26.375
690.79	26.951
690.98	26.645
691.16	25.406
691.34	24.622
691.53	26.322
691.71	25.494
691.90	26.967
692.08	23.829
692.27	26.383
692.45	27.112
692.63	25.725
692.82	26.747
693.00	25.670
693.19	24.374
693.37	28.594
693.56	24.210
693.74	27.730
693.92	24.873
694.11	27.250
694.29	26.258
694.48	27.077
694.66	25.566
694.84	29.655
695.03	25.058
695.21	27.682
695.40	27.433
695.58	30.335
695.76	26.128
695.95	28.313
696.13	25.316
696.32	28.346
696.50	32.568
696.68	27.373
696.87	25.673
697.05	28.305
697.24	27.521
697.42	28.892
697.60	27.742
697.79	27.219
697.97	28.588
698.16	30.249
698.34	26.030
698.52	28.704
698.71	27.992
698.89	28.569
699.07	26.866
699.26	29.921
699.44	28.818
699.63	29.681
699.81	27.272
699.99	29.815
700.18	29.680
700.36	29.632
700.54	29.496
700.73	29.605
700.91	28.841
701.09	30.323
701.28	30.907
701.46	30.139
701.64	27.858
701.83	29.765
702.01	27.210
702.20	31.274
702.38	29.483
702.56	28.734
702.75	29.426
702.93	28.242
703.11	29.057
703.30	29.402
703.48	29.121
703.66	30.855
703.85	27.929
704.03	32.130
704.21	28.346
704.40	30.318
704.58	27.877
704.76	29.248
704.95	28.242
705.13	30.520
705.31	27.356
705.50	29.866
705.68	25.614
705.86	30.793
706.04	29.414
706.23	30.606
706.41	30.317
706.59	29.320
706.78	28.460
706.96	30.503
707.14	31.021
707.33	29.030
707.51	27.084
707.69	30.135
707.88	28.436
708.06	30.895
708.24	28.841
708.42	30.561
708.61	28.850
708.79	30.702
708.97	30.334
709.16	31.544
709.34	32.086
709.52	30.991
709.71	30.828
709.89	29.950
710.07	26.538
710.25	30.892
710.44	29.033
710.62	29.922
710.80	30.630
710.98	30.679
711.17	29.173
711.35	31.486
711.53	28.265
711.72	32.211
711.90	32.110
712.08	30.604
712.26	27.915
712.45	30.835
712.63	31.406
712.81	32.845
712.99	28.628
713.18	32.538
713.36	31.659
713.54	30.268
713.72	29.262
713.91	28.555
714.09	28.420
714.27	30.002
714.45	30.081
714.64	32.626
714.82	31.026
715.00	32.692
715.18	29.171
715.37	31.659
715.55	29.833
715.73	30.873
715.91	29.600
716.10	31.577
716.28	26.302
716.46	32.010
716.64	28.458
716.83	31.406
717.01	28.444
717.19	30.727
717.37	29.308
717.55	30.795
717.74	29.169
717.92	29.771
718.10	27.564
718.28	29.318
718.47	27.761
718.65	32.349
718.83	30.319
719.01	31.872
719.19	28.948
719.38	28.539
719.56	29.644
719.74	27.573
719.92	24.814
720.10	27.684
720.29	28.597
720.47	30.133
720.65	28.675
720.83	32.632
721.01	25.248
721.20	27.717
721.38	27.542
721.56	27.756
721.74	29.998
721.92	28.057
722.11	26.559
722.29	27.709
722.47	27.273
722.65	29.187
722.83	29.391
723.01	28.690
723.20	28.985
723.38	29.216
723.56	26.441
723.74	33.513
723.92	29.386
724.10	31.863
724.29	24.222
724.47	32.879
724.65	26.249
724.83	30.877
725.01	28.568
725.19	30.718
725.38	27.355
725.56	29.823
725.74	27.488
725.92	31.800
726.10	29.608
726.28	30.954
726.46	31.247
726.65	30.835
726.83	29.071
727.01	28.886
727.19	29.664
727.37	29.753
727.55	29.396
727.73	28.869
727.92	30.957
728.10	29.684
728.28	25.691
728.46	32.498
728.64	28.016
728.82	31.689
729.00	28.094
729.19	29.350
729.37	30.885
729.55	32.149
729.73	25.370
729.91	29.846
730.09	30.811
730.27	32.666
730.45	26.710
730.63	29.264
730.82	26.752
731.00	29.053
731.18	28.627
731.36	29.167
731.54	24.539
731.72	31.749
731.90	26.904
732.08	30.754
732.26	26.282
732.45	31.816
732.63	30.124
732.81	31.844
732.99	29.535
733.17	31.620
733.35	27.972
733.53	30.907
733.71	29.551
733.89	28.966
734.07	29.093
734.25	34.735
734.44	28.887
734.62	31.224
734.80	26.895
734.98	32.541
735.16	30.276
735.34	31.785
735.52	31.941
735.70	28.797
735.88	28.360
736.06	29.139
736.24	31.757
736.42	33.207
736.60	31.625
736.78	31.830
736.97	27.461
737.15	32.582
737.33	27.768
737.51	33.809
737.69	32.196
737.87	31.903
738.05	32.504
738.23	30.480
738.41	30.315
738.59	32.597
738.77	27.515
738.95	32.507
739.13	29.907
739.31	30.534
739.49	31.078
739.67	35.241
739.85	29.761
740.03	34.009
740.21	32.232
740.39	33.795
740.57	32.159
740.75	30.877
740.93	31.994
741.11	31.222
741.30	31.454
741.48	32.202
741.66	35.029
741.84	32.577
742.02	29.009
742.20	35.458
742.38	28.482
742.56	37.566
742.74	30.224
742.92	28.736
743.10	30.091
743.28	32.562
743.46	31.873
743.64	31.109
743.82	29.698
744.00	33.663
744.18	30.751
744.36	32.203
744.54	28.766
744.72	36.326
744.90	35.381
745.08	34.704
745.26	31.892
745.44	33.791
745.62	29.184
745.80	29.284
745.98	32.651
746.16	37.903
746.34	31.346
746.52	34.678
746.70	27.954
746.87	30.038
747.05	29.768
747.23	37.224
747.41	29.720
747.59	35.025
747.77	29.297
747.95	31.384
748.13	32.005
748.31	35.626
748.49	32.600
748.67	31.096
748.85	32.257
749.03	35.128
749.21	30.046
749.39	34.733
749.57	28.788
749.75	31.237
749.93	31.506
750.11	32.751
750.29	31.497
750.47	32.821
750.65	31.777
750.83	32.913
751.01	26.616
751.18	34.012
751.36	28.754
751.54	29.979
751.72	32.652
751.90	30.154
752.08	27.397
752.26	28.163
752.44	32.114
752.62	28.808
752.80	30.508
752.98	32.758
753.16	32.278
753.34	31.672
753.52	33.333
753.69	32.304
753.87	32.196
754.05	32.813
754.23	30.018
754.41	31.647
754.59	30.142
754.77	31.753
754.95	30.568
755.13	32.767
755.31	31.444
755.49	28.167
755.66	32.885
755.84	31.675
756.02	29.153
756.20	36.923
756.38	29.714
756.56	32.474
756.74	28.450
756.92	31.984
757.10	31.110
757.28	33.187
757.45	36.994
757.63	34.893
757.81	28.305
757.99	36.902
758.17	31.014
758.35	35.322
758.53	34.167
758.71	33.101
758.88	32.188
759.06	33.518
759.24	26.896
759.42	30.027
759.60	29.853
759.78	30.918
759.96	25.756
760.13	32.913
760.31	28.714
760.49	29.310
760.67	24.866
760.85	30.280
761.03	25.767
761.21	26.604
761.38	27.492
761.56	27.912
761.74	26.764
761.92	31.955
762.10	23.064
762.28	30.392
762.46	24.422
762.63	23.592
762.81	26.696
762.99	24.370
763.17	27.823
763.35	26.668
763.53	26.030
763.70	28.317
763.88	29.665
764.06	28.514
764.24	28.557
764.42	29.449
764.60	28.599
764.77	26.176
764.95	29.862
765.13	27.048
765.31	27.373
765.49	30.334
765.66	28.490
765.84	30.519
766.02	28.782
766.20	30.475
766.38	24.518
766.56	31.244
766.73	27.254
766.91	27.811
767.09	28.604
767.27	32.351
767.45	27.940
767.62	31.293
767.80	27.109
767.98	34.009
768.16	28.057
768.33	33.216
768.51	29.799
768.69	29.164
768.87	29.508
769.05	30.635
769.22	28.395
769.40	33.956
769.58	31.843
769.76	37.536
769.94	30.650
770.11	28.976
770.29	31.481
770.47	30.886
770.65	32.462
770.82	34.503
771.00	31.080
771.18	33.561
771.36	31.169
771.53	31.086
771.71	29.892
771.89	34.618
772.07	34.453
772.25	34.804
772.42	32.696
772.60	34.404
772.78	33.552
772.96	36.589
773.13	36.797
773.31	34.657
773.49	27.955
773.67	34.138
773.84	31.400
774.02	32.127
774.20	31.437
774.37	34.824
774.55	32.739
774.73	38.520
774.91	35.087
775.08	34.473
775.26	33.202
775.44	37.307
775.62	32.104
775.79	33.287
775.97	29.679
776.15	33.333
776.32	28.122
776.50	41.219
776.68	36.055
776.86	41.756
777.03	31.513
777.21	34.211
777.39	28.613
777.56	34.755
777.74	34.677
777.92	35.283
778.10	30.610
778.27	32.877
778.45	35.042
778.63	37.054
778.80	34.840
778.98	39.157
779.16	39.507
779.34	33.098
779.51	31.962
779.69	40.134
779.87	35.771
780.04	34.862
780.22	34.522
780.40	39.454
780.57	34.293
780.75	32.693
780.93	38.770
781.10	34.973
781.28	43.006
781.46	28.663
781.63	37.173
781.81	39.360
781.99	33.715
782.16	34.060
782.34	31.231
782.52	33.736
782.69	38.175
782.87	33.906
783.05	34.347
783.22	33.723
783.40	36.068
783.58	34.918
783.75	32.566
783.93	40.326
784.11	36.979
784.28	39.126
784.46	33.914
784.64	38.132
784.81	34.575
784.99	40.110
785.17	35.239
785.34	32.508
785.52	35.516
785.69	41.160
785.87	33.460
786.05	37.529
786.22	40.854
786.40	47.517
786.58	35.650
786.75	42.281
786.93	36.601
787.11	36.348
787.28	32.847
787.46	35.138
787.63	38.245
787.81	31.217
787.99	38.987
788.16	33.316
788.34	35.240
788.51	29.739
788.69	33.451
788.87	31.036
789.04	34.063
789.22	34.821
789.39	33.428
789.57	34.114
789.75	30.861
789.92	35.091
790.10	30.101
790.27	33.535
790.45	27.011
790.63	31.599
790.80	34.150
790.98	36.004
791.15	34.041
791.33	30.215
791.51	34.281
791.68	36.046
791.86	36.314
792.03	38.748
792.21	30.684
792.39	36.208
792.56	34.219
792.74	39.042
792.91	37.986
793.09	31.756
793.26	36.580
793.44	39.891
793.62	35.518
793.79	38.547
793.97	40.252
794.14	36.501
794.32	39.120
794.49	37.093
794.67	33.667
794.84	35.868
795.02	33.955
795.20	37.113
795.37	40.599
795.55	36.476
795.72	40.449
795.90	35.212
796.07	32.987
796.25	37.095
796.42	35.068
796.60	35.052
796.77	29.911
796.95	32.510
797.13	27.753
797.30	36.160
797.48	33.018
797.65	33.613
797.83	35.626
798.00	36.009
798.18	31.442
798.35	33.928
798.53	38.715
798.70	37.870
798.88	35.385
799.05	34.026
799.23	31.405
799.40	35.280
799.58	40.471
799.75	36.616
799.93	33.493
800.10	36.958
800.28	35.881
800.45	33.727
800.63	36.091
800.80	34.453
800.98	36.234
801.15	34.729
801.33	41.911
801.50	30.769
801.68	33.499
801.85	33.873
802.03	31.815
802.20	34.043
802.38	38.879
802.55	32.693
802.73	40.606
802.90	34.705
803.08	34.451
803.25	41.355
803.43	41.492
803.60	39.050
803.78	40.512
803.95	38.413
804.13	39.202
804.30	35.367
804.48	35.488
804.65	42.608
804.83	38.771
805.00	36.364
805.17	42.867
805.35	33.665
805.52	32.254
805.70	42.876
805.87	38.735
806.05	40.285
806.22	36.906
806.40	36.184
806.57	35.611
806.75	39.333
806.92	40.025
807.09	39.729
807.27	36.194
807.44	39.145
807.62	36.746
807.79	40.565
807.97	33.202
808.14	41.382
808.31	36.983
808.49	38.275
808.66	38.136
808.84	34.582
809.01	41.056
809.19	34.788
809.36	45.080
809.53	37.367
809.71	38.540
809.88	46.308
810.06	42.135
810.23	40.846
810.41	47.265
810.58	45.014
810.75	33.881
810.93	40.179
811.10	41.981
811.28	33.456
811.45	40.947
811.62	40.895
811.80	39.164
811.97	42.366
812.15	46.843
812.32	41.938
812.49	46.444
812.67	39.786
812.84	42.739
813.02	45.381
813.19	40.199
813.36	47.141
813.54	38.348
813.71	40.410
813.89	46.141
814.06	46.431
814.23	46.437
814.41	42.834
814.58	47.741
814.75	43.273
814.93	41.776
815.10	35.637
815.28	37.596
815.45	38.235
815.62	46.993
815.80	39.916
815.97	45.315
816.14	42.317
816.32	44.127
816.49	42.344
816.66	40.820
816.84	35.276
817.01	42.569
817.18	42.460
817.36	41.181
817.53	44.578
817.71	33.414
817.88	44.495
818.05	39.759
818.23	41.176
818.40	44.255
818.57	39.124
818.75	38.858
818.92	32.049
819.09	42.177
819.27	39.863
819.44	41.069
819.61	33.951
819.79	33.516
819.96	42.837
820.13	35.444
820.31	38.134
820.48	36.638
820.65	35.459
820.82	30.432
821.00	35.144
821.17	30.354
821.34	30.248
821.52	29.642
821.69	28.826
821.86	27.250
822.04	26.885
822.21	27.440
822.38	30.559
822.56	27.156
822.73	31.082
822.90	30.330
823.07	31.867
823.25	30.048
823.42	29.774
823.59	28.324
823.77	29.864
823.94	28.390
824.11	29.243
824.29	27.713
824.46	30.024
824.63	30.526
824.80	28.826
824.98	28.997
825.15	31.327
825.32	23.203
825.49	28.967
825.67	23.259
825.84	28.218
826.01	26.072
826.19	29.208
826.36	25.683
826.53	30.610
826.70	24.563
826.88	30.854
827.05	25.325
827.22	27.703
827.39	26.962
827.57	26.603
827.74	25.529
827.91	30.008
828.08	25.877
828.26	28.323
828.43	25.521
828.60	30.304
828.77	28.065
828.95	25.443
829.12	23.294
829.29	26.050
829.46	25.840
829.64	27.542
829.81	25.079
829.98	31.725
830.15	29.377
830.32	31.939
830.50	28.991
830.67	33.402
830.84	31.354
831.01	28.795
831.19	33.313
831.36	36.073
831.53	37.155
831.70	44.739
831.87	40.212
832.05	35.559
832.22	46.597
832.39	28.894
832.56	37.004
832.74	38.623
832.91	40.447
833.08	47.456
833.25	31.646
833.42	37.237
833.60	35.571
833.77	28.127
833.94	30.441
834.11	26.022
834.28	24.868
834.45	28.513
834.63	25.684
834.80	27.310
834.97	27.112
835.14	26.779
835.31	30.752
835.49	24.242
835.66	29.029
835.83	23.940
836.00	24.437
836.17	27.874
836.34	27.983
836.52	27.687
836.69	30.678
836.86	30.562
837.03	35.928
837.20	32.305
837.37	35.808
837.55	38.870
837.72	35.748
837.89	34.129
838.06	40.567
838.23	42.097
838.40	44.675
838.58	33.912
838.75	48.542
838.92	51.418
839.09	49.602
839.26	53.303
839.43	58.681
839.60	50.711
839.78	60.562
839.95	62.641
840.12	47.436
840.29	52.847
840.46	50.050
840.63	53.294
840.80	38.515
840.98	51.312
841.15	48.330
841.32	47.388
841.49	42.746
841.66	50.563
841.83	40.707
842.00	46.228
842.17	48.233
842.34	48.555
842.52	57.215
842.69	58.885
842.86	58.817
843.03	68.415
843.20	57.027
843.37	62.987
843.54	64.171
843.71	57.583
843.88	77.548
844.06	78.095
844.23	75.000
844.40	58.504
844.57	73.870
844.74	62.179
844.91	78.881
845.08	76.367
845.25	86.998
845.42	77.760
845.59	75.292
845.76	79.204
845.94	89.786
846.11	91.649
846.28	70.886
846.45	93.346
846.62	87.031
846.79	72.020
846.96	77.778
847.13	97.359
847.30	85.310
847.47	78.097
847.64	94.140
847.81	84.906
847.98	97.451
848.15	74.635
848.32	97.796
848.50	91.115
848.67	79.455
848.84	108.243
849.01	88.117
849.18	102.169
849.35	120.697
849.52	105.339
849.69	95.349
849.86	94.083
850.03	83.588
850.20	96.774
850.37	82.245
850.54	104.627
850.71	106.250
850.88	90.141
851.05	108.312
851.22	86.777
851.39	97.655
851.56	90.820
851.73	98.084
851.90	97.386
852.07	92.934
852.24	108.894
852.41	94.470
852.58	111.399
852.75	97.674
852.92	95.599
853.09	107.965
853.26	98.261
853.43	100.730
853.60	86.193
853.77	112.393
853.94	88.889
854.11	138.661
854.28	99.002
854.45	97.758
854.62	84.735
854.79	103.088
854.96	113.679
855.13	110.345
855.30	98.272
855.47	141.398
855.64	98.737
855.81	104.130
855.98	101.566
856.15	97.285
856.32	104.156
856.49	125.867
856.66	107.613
856.83	101.282
857.00	114.096
857.17	103.464
857.34	111.778
857.51	86.605
857.68	98.446
857.85	106.223
858.02	104.405
858.19	93.139
858.36	93.836
858.53	125.768
858.70	112.838
858.87	106.022
859.04	88.235
859.21	104.455
859.38	98.952
859.55	125.891
859.72	128.650
859.89	113.055
860.05	120.000
860.22	112.088
860.39	89.027
860.56	107.609
860.73	98.402
860.90	89.339
861.07	115.422
861.24	85.185
861.41	104.430
861.58	97.105
861.75	115.969
861.92	97.982
862.09	103.125
862.26	124.000
862.43	125.463
862.59	107.397
862.76	128.093
862.93	107.660
863.10	108.924
863.27	103.261
863.44	112.530
863.61	111.607
863.78	90.672
863.95	142.138
864.12	101.681
864.29	120.455
864.45	110.448
864.62	107.005
864.79	88.333
864.96	105.825
865.13	97.860
865.30	100.913
865.47	91.082
865.64	129.024
865.81	117.722
865.97	92.857
866.14	104.574
866.31	95.584
866.48	89.697
866.65	89.278
866.82	115.730
866.99	134.844
867.16	86.765
867.33	110.072
867.49	114.319
867.66	104.412
867.83	140.065
868.00	113.802
868.17	100.227
868.34	126.636
868.51	93.300
868.67	119.613
868.84	109.135
869.01	120.823
869.18	94.974
869.35	120.930
869.52	119.947
869.69	124.010
869.85	116.143
870.02	115.725
870.19	121.883
870.36	114.787
870.53	100.676
870.70	112.352
870.86	89.764
871.03	106.824
871.20	120.672
871.37	112.162
871.54	128.367
871.71	92.225
871.87	104.762
872.04	101.646
872.21	111.712
872.38	116.915
872.55	134.197
872.72	97.279
872.88	115.027
873.05	93.348
873.22	100.487
873.39	101.699
873.56	106.633
873.72	104.878
873.89	97.821
874.06	111.461
874.23	110.526
874.40	113.425
874.56	91.753
874.73	93.333
874.90	85.126
875.07	103.614
875.24	101.193
875.40	107.752
875.57	108.427
875.74	105.000
875.91	96.214
876.08	90.389
876.24	143.544
876.41	95.188
876.58	100.000
876.75	100.506
876.92	100.853
877.08	108.531
877.25	106.316
877.42	99.411
877.59	98.965
877.75	103.241
877.92	92.181
878.09	107.912
878.26	91.564
878.42	147.440
878.59	121.640
878.76	94.545
878.93	112.994
879.09	110.177
879.26	88.036
879.43	142.092
879.60	86.497
879.76	81.135
879.93	84.278
880.10	84.381
880.27	73.638
880.43	70.134
880.60	74.957
880.77	49.548
880.94	71.662
881.10	51.084
881.27	54.800
881.44	39.610
881.61	42.289
881.77	47.277
881.94	27.920
882.11	28.394
882.28	27.062
882.44	28.940
882.61	26.302
882.78	27.835
882.94	31.275
883.11	29.774
883.28	29.060
883.45	27.414
883.61	27.610
883.78	24.910
883.95	31.598
884.11	29.716
884.28	25.168
>>>>>End Processed Spectral Data<<<<<
