SpectraSuite Data File
++++++++++++++++++++++++++++++++++++
Date: Tue Sep 24 03:55:23 EST 2019
User: sgrac
Dark Spectrum Present: Yes
Reference Spectrum Present: Yes
Number of Sampled Component Spectra: 1
Spectrometers: USB4E01596
Integration Time (usec): 100000 (USB4E01596)
Spectra Averaged: 3 (USB4E01596)
Boxcar Smoothing: 0 (USB4E01596)
Correct for Electrical Dark: No (USB4E01596)
Strobe/Lamp Enabled: Yes (USB4E01596)
Correct for Detector Non-linearity: No (USB4E01596)
Correct for Stray Light: No (USB4E01596)
Number of Pixels in Processed Spectrum: 3648
>>>>>Begin Processed Spectral Data<<<<<
178.44	1368.182
178.66	1368.182
178.87	1368.182
179.09	733.962
179.30	760.000
179.52	-1080.000
179.74	815.094
179.95	685.075
180.17	-20000.000
180.38	-12933.333
180.60	568.539
180.82	-3642.857
181.03	1191.892
181.25	-1973.913
181.46	655.556
181.68	4333.333
181.89	-2154.167
182.11	627.273
182.33	1548.571
182.54	885.965
182.76	-880.000
182.97	331.677
183.19	1037.778
183.40	5133.333
183.62	550.000
183.84	580.000
184.05	919.565
184.27	548.148
184.48	-2122.222
184.70	513.978
184.91	669.737
185.13	751.316
185.34	553.763
185.56	1090.625
185.78	1687.500
185.99	2918.750
186.21	552.500
186.42	1002.381
186.64	507.527
186.85	945.833
187.07	-4240.000
187.28	-2117.647
187.50	-48200.000
187.72	40500.000
187.93	-2175.000
188.15	1116.279
188.36	693.243
188.58	629.730
188.79	-5814.286
189.01	-3369.231
189.22	1880.000
189.44	462.791
189.65	651.515
189.87	-5928.571
190.09	1182.353
190.30	1276.316
190.52	2076.190
190.73	6600.000
190.95	1118.421
191.16	541.772
191.38	4318.182
191.59	3128.571
191.81	1411.765
192.02	1057.447
192.24	818.367
192.45	2335.294
192.67	544.156
192.88	422.449
193.10	687.879
193.31	508.081
193.53	1118.421
193.74	-33400.000
193.96	874.648
194.18	418.868
194.39	460.870
194.61	512.037
194.82	431.356
195.04	404.673
195.25	0.000
195.47	-40400.000
195.68	458.000
195.90	544.706
196.11	625.301
196.33	1034.884
196.54	504.587
196.76	1269.697
196.97	-3333.333
197.19	545.349
197.40	973.684
197.62	856.604
197.83	474.038
198.05	756.164
198.26	0.000
198.48	-846.667
198.69	1443.333
198.91	6900.000
199.12	-9850.000
199.34	484.444
199.55	-39800.000
199.77	2666.667
199.98	709.859
200.20	360.331
200.41	615.789
200.63	1432.353
200.84	-3876.923
201.06	510.127
201.27	1460.000
201.49	1140.426
201.70	567.816
201.91	650.704
202.13	723.881
202.34	-1700.000
202.56	332.394
202.77	5200.000
202.99	7087.500
203.20	734.783
203.42	1172.973
203.63	4850.000
203.85	480.672
204.06	709.615
204.28	347.458
204.49	1233.333
204.71	-1096.875
204.92	368.841
205.14	1496.774
205.35	892.857
205.56	489.524
205.78	-900.000
205.99	1120.513
206.21	757.895
206.42	563.636
206.64	2091.304
206.85	550.602
207.07	-666.129
207.28	1600.000
207.50	507.609
207.71	833.333
207.93	12600.000
208.14	1265.789
208.35	-3458.333
208.57	-1013.793
208.78	325.175
209.00	985.000
209.21	465.347
209.43	-7000.000
209.64	300.568
209.86	698.246
210.07	947.619
210.28	1648.276
210.50	6583.333
210.71	1396.774
210.93	-3086.667
211.14	734.545
211.36	484.375
211.57	1674.074
211.78	4755.556
212.00	-2277.778
212.21	1119.512
212.43	926.786
212.64	580.488
212.86	1552.174
213.07	661.765
213.29	3007.143
213.50	337.302
213.71	555.422
213.93	369.231
214.14	345.299
214.36	538.824
214.57	-4150.000
214.78	1182.051
215.00	392.562
215.21	957.500
215.43	1828.000
215.64	412.963
215.86	484.906
216.07	10550.000
216.28	638.806
216.50	434.314
216.71	1448.276
216.93	-1072.093
217.14	487.879
217.35	737.500
217.57	372.650
217.78	758.065
218.00	436.364
218.21	571.831
218.42	1781.481
218.64	3386.667
218.85	866.071
219.07	378.151
219.28	675.385
219.49	448.624
219.71	697.143
219.92	1552.000
220.14	954.348
220.35	4027.273
220.56	948.780
220.78	1215.152
220.99	573.846
221.21	717.568
221.42	600.000
221.63	9950.000
221.85	1592.857
222.06	1429.167
222.28	567.089
222.49	526.882
222.70	462.000
222.92	754.386
223.13	1716.667
223.34	1390.625
223.56	382.677
223.77	274.306
223.99	420.000
224.20	341.096
224.41	525.333
224.63	514.286
224.84	300.000
225.05	356.800
225.27	635.294
225.48	437.374
225.69	452.083
225.91	501.205
226.12	264.796
226.34	267.039
226.55	214.468
226.76	260.000
226.98	265.000
227.19	199.020
227.40	225.108
227.62	214.563
227.83	142.818
228.04	134.337
228.26	116.817
228.47	97.419
228.69	79.592
228.90	61.101
229.11	65.723
229.33	61.925
229.54	50.239
229.75	48.586
229.97	51.132
230.18	47.390
230.39	38.028
230.61	41.727
230.82	53.962
231.03	36.334
231.25	53.756
231.46	48.139
231.67	52.799
231.89	61.152
232.10	63.380
232.31	65.202
232.53	72.293
232.74	82.520
232.95	91.325
233.17	65.909
233.38	68.844
233.59	92.247
233.81	83.219
234.02	83.002
234.23	69.338
234.45	77.990
234.66	72.909
234.87	72.558
235.09	71.889
235.30	68.459
235.51	80.446
235.73	66.079
235.94	60.658
236.15	72.063
236.36	71.927
236.58	67.862
236.79	68.139
237.00	56.955
237.22	62.381
237.43	64.986
237.64	72.833
237.86	59.280
238.07	73.095
238.28	57.037
238.50	62.434
238.71	75.188
238.92	58.485
239.13	61.024
239.35	60.735
239.56	59.456
239.77	71.760
239.99	55.130
240.20	69.528
240.41	50.424
240.63	55.055
240.84	48.881
241.05	43.167
241.26	41.156
241.48	40.660
241.69	35.893
241.90	36.202
242.12	28.472
242.33	24.011
242.54	22.465
242.75	21.683
242.97	26.705
243.18	20.837
243.39	19.009
243.61	21.220
243.82	22.115
244.03	19.168
244.24	20.889
244.46	18.703
244.67	24.902
244.88	19.378
245.09	20.686
245.31	25.028
245.52	22.045
245.73	28.221
245.95	40.000
246.16	25.248
246.37	21.771
246.58	22.747
246.80	21.830
247.01	17.711
247.22	14.487
247.43	12.522
247.65	14.847
247.86	13.740
248.07	12.185
248.28	8.817
248.50	10.379
248.71	11.827
248.92	9.987
249.13	13.084
249.35	9.610
249.56	13.849
249.77	13.487
249.98	11.834
250.20	18.672
250.41	15.719
250.62	18.486
250.83	21.323
251.05	24.882
251.26	25.323
251.47	23.481
251.68	24.903
251.90	19.945
252.11	22.302
252.32	24.987
252.53	23.735
252.75	20.685
252.96	21.230
253.17	17.223
253.38	17.844
253.59	19.248
253.81	20.050
254.02	19.336
254.23	22.644
254.44	21.515
254.66	22.979
254.87	22.614
255.08	29.132
255.29	27.985
255.50	33.795
255.72	28.670
255.93	27.774
256.14	34.534
256.35	29.013
256.57	29.678
256.78	28.810
256.99	27.907
257.20	31.836
257.41	28.878
257.63	30.076
257.84	29.827
258.05	27.493
258.26	18.570
258.47	24.656
258.69	21.398
258.90	19.292
259.11	19.508
259.32	17.776
259.53	13.751
259.75	14.463
259.96	11.528
260.17	11.419
260.38	9.631
260.59	9.116
260.81	8.586
261.02	9.765
261.23	8.229
261.44	9.736
261.65	8.797
261.87	8.236
262.08	9.773
262.29	11.390
262.50	12.301
262.71	11.004
262.92	13.530
263.14	12.053
263.35	13.940
263.56	21.364
263.77	18.693
263.98	16.861
264.20	21.015
264.41	19.488
264.62	18.250
264.83	16.464
265.04	22.735
265.25	18.031
265.47	22.579
265.68	20.379
265.89	18.315
266.10	16.327
266.31	23.121
266.52	18.932
266.74	16.570
266.95	15.186
267.16	15.607
267.37	16.391
267.58	16.970
267.79	14.823
268.01	13.738
268.22	14.237
268.43	14.771
268.64	13.403
268.85	15.433
269.06	13.880
269.27	15.137
269.49	14.917
269.70	14.721
269.91	15.563
270.12	14.553
270.33	17.881
270.54	16.815
270.75	14.369
270.97	14.640
271.18	15.324
271.39	13.335
271.60	14.987
271.81	11.508
272.02	12.849
272.23	12.044
272.45	10.541
272.66	10.314
272.87	11.253
273.08	9.575
273.29	11.287
273.50	11.507
273.71	11.822
273.92	9.620
274.14	10.767
274.35	10.393
274.56	11.359
274.77	11.618
274.98	12.154
275.19	12.835
275.40	11.402
275.61	11.027
275.83	14.836
276.04	13.469
276.25	15.665
276.46	13.420
276.67	17.499
276.88	13.175
277.09	12.802
277.30	12.977
277.51	13.751
277.73	13.489
277.94	14.040
278.15	13.653
278.36	13.778
278.57	14.035
278.78	11.882
278.99	12.791
279.20	17.301
279.41	16.133
279.62	12.869
279.84	11.306
280.05	14.499
280.26	13.493
280.47	12.878
280.68	14.603
280.89	12.476
281.10	15.179
281.31	16.452
281.52	13.106
281.73	11.282
281.94	10.615
282.16	13.084
282.37	12.715
282.58	12.308
282.79	13.884
283.00	12.397
283.21	9.431
283.42	9.866
283.63	11.372
283.84	11.462
284.05	10.595
284.26	11.054
284.47	10.814
284.68	9.716
284.89	9.335
285.11	10.757
285.32	10.228
285.53	11.308
285.74	10.975
285.95	9.369
286.16	8.926
286.37	8.387
286.58	8.734
286.79	7.814
287.00	8.623
287.21	8.663
287.42	8.842
287.63	6.700
287.84	7.879
288.05	9.588
288.26	8.779
288.48	10.267
288.69	8.606
288.90	10.818
289.11	11.367
289.32	9.256
289.53	10.225
289.74	9.809
289.95	10.083
290.16	11.296
290.37	9.501
290.58	9.412
290.79	10.121
291.00	9.814
291.21	10.011
291.42	8.581
291.63	9.295
291.84	9.163
292.05	7.866
292.26	8.101
292.47	9.762
292.68	8.232
292.89	9.988
293.10	10.883
293.31	10.280
293.52	9.361
293.73	10.013
293.94	10.350
294.15	10.094
294.36	11.651
294.57	12.193
294.79	12.021
295.00	9.497
295.21	10.992
295.42	9.186
295.63	10.989
295.84	8.040
296.05	9.593
296.26	9.577
296.47	8.581
296.68	7.758
296.89	9.816
297.10	8.519
297.31	9.798
297.52	8.642
297.73	7.553
297.94	7.433
298.15	8.267
298.36	7.192
298.57	6.564
298.78	7.754
298.99	7.529
299.20	7.003
299.41	8.076
299.62	7.473
299.83	7.403
300.04	8.456
300.25	10.038
300.46	10.325
300.67	11.891
300.88	8.853
301.09	9.008
301.30	10.078
301.50	8.142
301.71	11.828
301.92	11.248
302.13	8.927
302.34	8.380
302.55	11.118
302.76	10.320
302.97	9.658
303.18	9.901
303.39	10.954
303.60	10.649
303.81	12.053
304.02	10.086
304.23	9.496
304.44	9.006
304.65	9.720
304.86	9.886
305.07	9.585
305.28	9.121
305.49	9.094
305.70	11.984
305.91	8.527
306.12	8.809
306.33	9.563
306.54	9.333
306.75	10.609
306.96	11.811
307.17	9.814
307.38	11.007
307.58	9.505
307.79	10.267
308.00	9.787
308.21	11.440
308.42	10.687
308.63	9.512
308.84	10.618
309.05	9.732
309.26	8.781
309.47	7.769
309.68	8.974
309.89	10.967
310.10	9.483
310.31	8.767
310.52	7.446
310.73	9.695
310.94	7.363
311.14	8.658
311.35	8.555
311.56	8.552
311.77	7.144
311.98	7.319
312.19	6.845
312.40	7.425
312.61	6.898
312.82	8.875
313.03	7.419
313.24	9.114
313.45	8.859
313.66	8.611
313.86	10.103
314.07	9.247
314.28	8.707
314.49	8.827
314.70	10.694
314.91	11.646
315.12	9.639
315.33	9.812
315.54	8.356
315.75	8.804
315.96	8.702
316.16	9.258
316.37	11.164
316.58	8.863
316.79	10.819
317.00	10.903
317.21	10.536
317.42	11.533
317.63	11.900
317.84	11.628
318.05	9.050
318.25	9.878
318.46	9.752
318.67	9.244
318.88	10.328
319.09	10.617
319.30	9.508
319.51	11.283
319.72	8.952
319.93	10.899
320.13	9.714
320.34	11.219
320.55	8.997
320.76	10.514
320.97	10.608
321.18	12.482
321.39	10.119
321.60	10.972
321.80	11.582
322.01	12.129
322.22	10.522
322.43	9.917
322.64	7.363
322.85	9.647
323.06	10.223
323.27	10.597
323.47	10.099
323.68	11.370
323.89	10.087
324.10	10.312
324.31	9.566
324.52	9.532
324.73	10.572
324.93	8.185
325.14	9.127
325.35	10.447
325.56	9.210
325.77	9.007
325.98	8.533
326.19	10.075
326.39	6.123
326.60	9.221
326.81	8.019
327.02	9.079
327.23	7.496
327.44	9.761
327.64	6.517
327.85	8.254
328.06	8.538
328.27	11.011
328.48	8.895
328.69	10.384
328.90	8.836
329.10	9.878
329.31	10.060
329.52	8.973
329.73	9.171
329.94	8.898
330.15	10.062
330.35	9.939
330.56	10.414
330.77	10.076
330.98	9.924
331.19	9.873
331.39	11.764
331.60	9.750
331.81	7.485
332.02	10.486
332.23	11.286
332.44	8.522
332.64	10.169
332.85	10.415
333.06	8.998
333.27	8.404
333.48	8.094
333.68	8.660
333.89	9.760
334.10	7.492
334.31	9.094
334.52	9.037
334.72	8.309
334.93	7.966
335.14	8.262
335.35	8.381
335.56	9.991
335.76	8.407
335.97	10.483
336.18	7.682
336.39	9.369
336.60	10.071
336.80	7.181
337.01	9.421
337.22	8.683
337.43	10.022
337.64	9.784
337.84	9.513
338.05	8.979
338.26	11.095
338.47	8.455
338.68	6.920
338.88	10.111
339.09	7.884
339.30	8.813
339.51	8.498
339.71	8.311
339.92	8.356
340.13	9.162
340.34	8.534
340.55	8.477
340.75	7.578
340.96	8.277
341.17	10.302
341.38	8.502
341.58	10.119
341.79	7.803
342.00	8.108
342.21	8.906
342.41	7.942
342.62	9.002
342.83	9.134
343.04	8.040
343.24	9.344
343.45	9.412
343.66	7.906
343.87	8.085
344.07	8.232
344.28	8.159
344.49	8.685
344.70	9.441
344.90	6.917
345.11	7.568
345.32	8.220
345.53	7.943
345.73	7.529
345.94	8.748
346.15	8.463
346.36	7.682
346.56	7.286
346.77	6.676
346.98	7.906
347.19	8.012
347.39	7.211
347.60	8.536
347.81	8.663
348.02	9.091
348.22	8.082
348.43	8.365
348.64	8.946
348.84	6.818
349.05	8.849
349.26	9.832
349.47	7.984
349.67	7.837
349.88	9.258
350.09	8.188
350.30	10.499
350.50	7.909
350.71	8.826
350.92	7.225
351.12	8.784
351.33	8.139
351.54	8.479
351.74	8.193
351.95	8.205
352.16	9.465
352.37	8.754
352.57	8.258
352.78	8.318
352.99	8.542
353.19	8.491
353.40	8.986
353.61	9.274
353.82	8.459
354.02	8.031
354.23	9.258
354.44	9.468
354.64	7.864
354.85	9.131
355.06	7.244
355.26	7.457
355.47	8.135
355.68	10.028
355.88	7.982
356.09	8.246
356.30	6.023
356.51	8.068
356.71	6.784
356.92	6.502
357.13	8.141
357.33	8.995
357.54	7.291
357.75	5.798
357.95	8.240
358.16	6.902
358.37	8.502
358.57	6.628
358.78	7.944
358.99	6.901
359.19	6.657
359.40	7.114
359.61	6.014
359.81	7.683
360.02	9.436
360.23	7.088
360.43	6.917
360.64	6.124
360.85	6.397
361.05	5.970
361.26	7.404
361.47	6.985
361.67	6.816
361.88	5.564
362.09	6.199
362.29	5.469
362.50	5.107
362.70	5.193
362.91	6.313
363.12	5.216
363.32	5.158
363.53	5.971
363.74	6.113
363.94	5.834
364.15	6.740
364.36	7.076
364.56	5.851
364.77	7.341
364.98	8.479
365.18	6.784
365.39	7.795
365.59	6.209
365.80	6.187
366.01	7.754
366.21	6.603
366.42	6.487
366.63	7.823
366.83	6.416
367.04	5.747
367.24	7.409
367.45	5.185
367.66	6.090
367.86	7.909
368.07	6.504
368.28	6.069
368.48	6.530
368.69	6.446
368.89	7.184
369.10	7.162
369.31	7.022
369.51	7.983
369.72	7.638
369.92	8.370
370.13	5.595
370.34	6.634
370.54	5.983
370.75	7.325
370.95	6.786
371.16	6.579
371.37	6.444
371.57	5.903
371.78	6.206
371.98	6.981
372.19	6.588
372.40	6.680
372.60	7.432
372.81	5.782
373.01	5.955
373.22	5.621
373.43	7.386
373.63	6.388
373.84	7.296
374.04	6.501
374.25	6.722
374.46	7.243
374.66	7.132
374.87	7.184
375.07	6.746
375.28	5.851
375.48	6.732
375.69	6.935
375.90	5.823
376.10	5.473
376.31	5.840
376.51	7.016
376.72	5.607
376.92	5.787
377.13	6.254
377.34	7.201
377.54	6.145
377.75	7.205
377.95	6.599
378.16	6.830
378.36	7.575
378.57	6.358
378.77	6.589
378.98	6.972
379.19	6.097
379.39	5.477
379.60	7.110
379.80	6.087
380.01	7.370
380.21	6.591
380.42	7.212
380.62	6.702
380.83	7.209
381.04	6.277
381.24	6.990
381.45	6.729
381.65	6.429
381.86	6.797
382.06	8.394
382.27	6.926
382.47	7.048
382.68	8.484
382.88	7.301
383.09	7.179
383.29	7.051
383.50	8.677
383.71	7.180
383.91	7.463
384.12	6.647
384.32	7.695
384.53	7.190
384.73	6.933
384.94	6.093
385.14	7.052
385.35	7.339
385.55	8.140
385.76	7.201
385.96	7.599
386.17	7.939
386.37	7.985
386.58	7.810
386.78	9.390
386.99	7.688
387.19	9.116
387.40	7.348
387.60	9.707
387.81	8.447
388.01	8.582
388.22	9.772
388.42	11.020
388.63	11.103
388.83	10.723
389.04	8.658
389.24	9.809
389.45	9.844
389.65	9.951
389.86	9.879
390.06	9.989
390.27	9.663
390.47	10.852
390.68	10.025
390.88	12.049
391.09	11.635
391.29	12.370
391.50	9.849
391.70	11.920
391.91	11.503
392.11	12.062
392.32	12.074
392.52	12.719
392.73	13.179
392.93	13.480
393.14	12.621
393.34	12.746
393.55	13.791
393.75	13.358
393.95	13.190
394.16	14.504
394.36	15.091
394.57	14.654
394.77	15.276
394.98	14.466
395.18	15.102
395.39	15.321
395.59	15.059
395.80	15.773
396.00	15.875
396.21	17.226
396.41	15.670
396.61	16.732
396.82	16.134
397.02	18.183
397.23	17.523
397.43	16.851
397.64	15.941
397.84	17.795
398.05	15.710
398.25	18.300
398.45	16.086
398.66	18.189
398.86	17.144
399.07	18.680
399.27	17.862
399.48	18.966
399.68	17.669
399.89	19.302
400.09	19.423
400.29	19.259
400.50	18.246
400.70	19.651
400.91	19.436
401.11	19.243
401.32	19.786
401.52	19.054
401.72	19.115
401.93	20.699
402.13	20.132
402.34	19.691
402.54	19.641
402.75	21.477
402.95	18.032
403.15	21.062
403.36	18.406
403.56	21.256
403.77	19.328
403.97	20.716
404.17	19.042
404.38	20.488
404.58	19.340
404.79	20.822
404.99	20.421
405.19	20.615
405.40	20.565
405.60	21.109
405.81	20.006
406.01	21.538
406.21	20.154
406.42	21.143
406.62	20.600
406.83	21.710
407.03	20.378
407.23	21.315
407.44	21.133
407.64	22.170
407.85	21.627
408.05	22.527
408.25	21.215
408.46	22.680
408.66	21.231
408.87	21.071
409.07	21.261
409.27	21.080
409.48	21.066
409.68	22.131
409.88	20.044
410.09	21.051
410.29	20.871
410.50	22.387
410.70	20.698
410.90	21.121
411.11	20.802
411.31	21.240
411.51	21.551
411.72	21.802
411.92	21.219
412.12	21.589
412.33	20.984
412.53	20.948
412.74	19.946
412.94	21.677
413.14	21.523
413.35	21.287
413.55	21.237
413.75	22.404
413.96	20.176
414.16	21.798
414.36	20.820
414.57	21.261
414.77	20.454
414.97	21.355
415.18	20.419
415.38	20.569
415.58	20.129
415.79	20.985
415.99	19.814
416.19	21.644
416.40	20.645
416.60	20.952
416.80	20.113
417.01	21.037
417.21	19.759
417.41	20.388
417.62	19.905
417.82	20.589
418.02	19.520
418.23	20.577
418.43	19.498
418.63	20.411
418.84	19.652
419.04	19.686
419.24	20.448
419.45	19.991
419.65	20.089
419.85	20.139
420.06	20.028
420.26	19.844
420.46	19.322
420.67	20.097
420.87	19.441
421.07	19.468
421.28	19.401
421.48	20.007
421.68	19.395
421.88	19.310
422.09	19.515
422.29	19.709
422.49	19.633
422.70	20.055
422.90	19.824
423.10	19.727
423.31	20.022
423.51	19.945
423.71	19.797
423.91	19.438
424.12	19.270
424.32	19.697
424.52	19.588
424.73	19.097
424.93	19.249
425.13	19.196
425.33	19.327
425.54	19.605
425.74	19.638
425.94	19.847
426.15	19.777
426.35	20.110
426.55	20.054
426.75	19.736
426.96	19.790
427.16	19.722
427.36	19.789
427.57	20.587
427.77	20.350
427.97	20.247
428.17	19.760
428.38	19.587
428.58	19.629
428.78	20.609
428.98	19.787
429.19	19.632
429.39	19.462
429.59	20.095
429.79	19.407
430.00	19.498
430.20	19.311
430.40	19.771
430.60	19.282
430.81	19.773
431.01	19.188
431.21	19.943
431.41	19.587
431.62	19.340
431.82	20.186
432.02	20.498
432.22	19.467
432.43	19.114
432.63	19.615
432.83	19.286
433.03	19.054
433.24	19.077
433.44	19.525
433.64	19.769
433.84	19.190
434.05	19.669
434.25	19.405
434.45	20.350
434.65	20.466
434.85	20.101
435.06	20.435
435.26	20.756
435.46	20.265
435.66	20.888
435.87	20.471
436.07	21.294
436.27	21.159
436.47	20.991
436.67	20.800
436.88	21.367
437.08	20.850
437.28	20.652
437.48	20.859
437.69	20.964
437.89	20.912
438.09	20.862
438.29	20.554
438.49	21.448
438.70	20.788
438.90	20.385
439.10	20.481
439.30	20.426
439.50	20.263
439.71	20.011
439.91	20.878
440.11	20.714
440.31	20.309
440.51	20.288
440.72	20.402
440.92	20.577
441.12	20.597
441.32	20.934
441.52	20.636
441.72	21.041
441.93	21.342
442.13	20.962
442.33	21.380
442.53	21.730
442.73	21.390
442.94	21.888
443.14	21.778
443.34	21.652
443.54	22.289
443.74	21.911
443.94	21.949
444.15	21.412
444.35	21.199
444.55	21.393
444.75	21.280
444.95	21.271
445.15	21.098
445.36	21.228
445.56	20.607
445.76	20.791
445.96	20.658
446.16	20.514
446.36	21.040
446.57	20.927
446.77	20.909
446.97	20.924
447.17	20.863
447.37	21.306
447.57	21.359
447.77	21.204
447.98	21.567
448.18	21.897
448.38	21.701
448.58	21.487
448.78	22.507
448.98	21.969
449.18	21.954
449.39	22.345
449.59	22.300
449.79	22.282
449.99	22.763
450.19	22.449
450.39	22.318
450.59	21.959
450.79	21.872
451.00	22.391
451.20	23.426
451.40	22.409
451.60	22.136
451.80	22.290
452.00	22.463
452.20	22.544
452.40	22.237
452.61	22.123
452.81	22.073
453.01	21.876
453.21	21.826
453.41	21.971
453.61	21.290
453.81	21.975
454.01	22.166
454.21	22.290
454.42	22.359
454.62	21.934
454.82	22.238
455.02	22.301
455.22	22.010
455.42	22.738
455.62	21.223
455.82	22.257
456.02	22.378
456.23	21.893
456.43	22.688
456.63	22.229
456.83	22.193
457.03	21.769
457.23	21.872
457.43	22.086
457.63	21.858
457.83	22.010
458.03	21.542
458.23	21.681
458.43	21.845
458.64	21.489
458.84	21.456
459.04	21.715
459.24	21.229
459.44	20.829
459.64	20.677
459.84	20.919
460.04	20.455
460.24	20.856
460.44	21.218
460.64	21.386
460.84	21.614
461.04	21.638
461.24	21.632
461.45	21.516
461.65	21.740
461.85	22.331
462.05	22.598
462.25	22.687
462.45	23.312
462.65	22.298
462.85	22.041
463.05	22.695
463.25	22.423
463.45	22.390
463.65	22.059
463.85	22.181
464.05	22.325
464.25	22.534
464.45	22.538
464.65	22.046
464.85	21.843
465.05	22.150
465.26	22.134
465.46	22.251
465.66	22.110
465.86	22.289
466.06	21.969
466.26	21.907
466.46	21.918
466.66	22.115
466.86	22.316
467.06	21.924
467.26	22.039
467.46	22.368
467.66	21.616
467.86	22.101
468.06	21.733
468.26	21.863
468.46	22.139
468.66	22.251
468.86	22.643
469.06	22.374
469.26	22.111
469.46	22.033
469.66	21.944
469.86	22.266
470.06	22.304
470.26	22.534
470.46	22.182
470.66	22.069
470.86	22.057
471.06	22.008
471.26	21.995
471.46	22.526
471.66	22.443
471.86	21.972
472.06	22.652
472.26	22.768
472.46	21.995
472.66	22.646
472.86	21.410
473.06	22.635
473.26	22.143
473.46	21.933
473.66	22.134
473.86	22.347
474.06	22.574
474.26	22.446
474.46	21.813
474.66	21.812
474.86	22.566
475.06	22.759
475.26	22.774
475.46	22.096
475.66	22.216
475.86	22.365
476.06	22.717
476.26	22.407
476.46	22.174
476.66	22.083
476.86	22.072
477.06	21.694
477.26	21.999
477.46	21.923
477.65	22.314
477.85	22.504
478.05	21.835
478.25	22.364
478.45	22.473
478.65	22.321
478.85	22.188
479.05	21.993
479.25	22.386
479.45	22.257
479.65	22.822
479.85	22.634
480.05	22.086
480.25	22.655
480.45	22.709
480.65	22.293
480.85	22.136
481.05	22.237
481.25	22.052
481.44	21.912
481.64	22.170
481.84	21.891
482.04	21.924
482.24	21.833
482.44	21.519
482.64	21.460
482.84	21.399
483.04	20.996
483.24	20.833
483.44	20.246
483.64	19.824
483.84	20.071
484.04	20.486
484.23	20.999
484.43	21.461
484.63	22.361
484.83	23.369
485.03	24.268
485.23	24.291
485.43	24.051
485.63	23.873
485.83	23.601
486.03	23.848
486.23	23.693
486.42	23.106
486.62	22.958
486.82	22.412
487.02	21.986
487.22	21.532
487.42	21.624
487.62	21.202
487.82	21.358
488.02	21.277
488.22	21.443
488.41	21.964
488.61	22.002
488.81	22.146
489.01	22.525
489.21	22.654
489.41	22.998
489.61	22.912
489.81	22.909
490.01	23.353
490.20	23.072
490.40	22.700
490.60	22.962
490.80	21.922
491.00	22.001
491.20	21.609
491.40	21.246
491.60	20.779
491.79	21.154
491.99	21.326
492.19	21.520
492.39	21.473
492.59	21.879
492.79	21.746
492.99	22.345
493.19	22.332
493.38	22.963
493.58	23.273
493.78	23.329
493.98	23.413
494.18	23.153
494.38	23.402
494.58	22.951
494.77	23.116
494.97	22.914
495.17	22.775
495.37	22.593
495.57	22.466
495.77	22.238
495.96	22.488
496.16	22.443
496.36	22.221
496.56	21.806
496.76	22.281
496.96	21.681
497.15	22.318
497.35	22.048
497.55	22.510
497.75	22.317
497.95	21.923
498.15	22.326
498.34	22.463
498.54	22.395
498.74	22.741
498.94	22.866
499.14	22.643
499.34	22.798
499.53	22.599
499.73	22.725
499.93	23.100
500.13	22.773
500.33	22.545
500.52	22.589
500.72	22.579
500.92	22.381
501.12	22.511
501.32	23.211
501.52	22.912
501.71	22.784
501.91	22.633
502.11	23.160
502.31	22.436
502.51	22.751
502.70	23.027
502.90	22.927
503.10	22.771
503.30	22.727
503.50	23.128
503.69	22.978
503.89	22.975
504.09	22.966
504.29	22.917
504.48	22.577
504.68	22.996
504.88	22.671
505.08	22.573
505.28	22.970
505.47	23.028
505.67	22.998
505.87	22.827
506.07	22.801
506.27	22.839
506.46	23.199
506.66	22.793
506.86	23.585
507.06	23.443
507.25	22.759
507.45	23.141
507.65	22.791
507.85	23.400
508.04	23.241
508.24	23.018
508.44	23.463
508.64	23.058
508.83	22.923
509.03	22.785
509.23	22.879
509.43	22.846
509.63	23.061
509.82	22.988
510.02	22.702
510.22	22.794
510.42	23.272
510.61	23.583
510.81	23.122
511.01	22.966
511.21	23.249
511.40	23.283
511.60	23.442
511.80	23.572
511.99	22.992
512.19	23.297
512.39	23.528
512.59	23.476
512.78	23.323
512.98	23.428
513.18	23.651
513.38	23.770
513.57	23.681
513.77	23.943
513.97	23.795
514.17	24.286
514.36	23.563
514.56	23.479
514.76	24.139
514.95	23.987
515.15	23.816
515.35	23.962
515.55	23.868
515.74	23.667
515.94	23.946
516.14	23.416
516.33	24.009
516.53	24.066
516.73	23.894
516.93	23.934
517.12	23.935
517.32	23.050
517.52	23.635
517.71	23.412
517.91	23.301
518.11	22.850
518.30	23.152
518.50	22.892
518.70	23.299
518.90	23.183
519.09	23.227
519.29	23.673
519.49	23.666
519.68	23.435
519.88	23.723
520.08	24.171
520.27	23.993
520.47	24.284
520.67	23.805
520.86	24.432
521.06	24.598
521.26	24.018
521.45	23.962
521.65	23.990
521.85	24.350
522.04	24.146
522.24	24.500
522.44	23.989
522.63	24.131
522.83	23.960
523.03	24.016
523.22	24.201
523.42	24.084
523.62	24.075
523.81	24.157
524.01	23.274
524.21	23.856
524.40	23.578
524.60	23.735
524.80	23.488
524.99	23.295
525.19	22.903
525.39	23.645
525.58	23.022
525.78	22.815
525.98	22.904
526.17	22.974
526.37	22.926
526.57	23.380
526.76	23.727
526.96	23.394
527.15	23.358
527.35	23.454
527.55	23.215
527.74	22.929
527.94	22.747
528.14	22.335
528.33	21.812
528.53	22.212
528.72	22.390
528.92	22.742
529.12	22.778
529.31	23.120
529.51	23.274
529.71	23.409
529.90	23.620
530.10	23.874
530.29	24.465
530.49	24.648
530.69	24.826
530.88	24.654
531.08	24.362
531.28	24.282
531.47	23.996
531.67	23.596
531.86	23.854
532.06	23.569
532.26	23.465
532.45	23.453
532.65	23.179
532.84	22.980
533.04	22.563
533.24	22.476
533.43	22.552
533.63	22.922
533.82	23.111
534.02	23.306
534.22	23.266
534.41	23.475
534.61	23.403
534.80	23.800
535.00	24.223
535.19	24.332
535.39	24.512
535.59	24.260
535.78	24.254
535.98	23.946
536.17	23.695
536.37	23.564
536.57	23.383
536.76	23.299
536.96	22.730
537.15	23.418
537.35	23.322
537.54	23.651
537.74	23.656
537.93	23.661
538.13	23.479
538.33	23.815
538.52	24.208
538.72	24.526
538.91	24.406
539.11	24.095
539.30	24.388
539.50	24.164
539.70	24.399
539.89	23.900
540.09	23.902
540.28	23.495
540.48	23.693
540.67	22.784
540.87	22.174
541.06	21.980
541.26	22.365
541.45	22.515
541.65	22.637
541.85	23.105
542.04	23.351
542.24	23.263
542.43	23.460
542.63	23.416
542.82	23.661
543.02	23.802
543.21	24.027
543.41	24.399
543.60	24.497
543.80	24.529
543.99	24.064
544.19	24.038
544.38	24.275
544.58	24.028
544.77	23.733
544.97	24.215
545.16	23.883
545.36	24.306
545.56	23.928
545.75	24.599
545.95	24.044
546.14	24.300
546.34	24.085
546.53	23.602
546.73	23.548
546.92	24.013
547.12	23.880
547.31	24.054
547.51	24.135
547.70	24.423
547.90	24.135
548.09	24.040
548.29	24.907
548.48	24.832
548.68	24.761
548.87	25.398
549.07	25.178
549.26	24.872
549.46	25.321
549.65	25.286
549.84	25.039
550.04	25.359
550.23	24.728
550.43	25.068
550.62	25.239
550.82	25.151
551.01	24.756
551.21	24.921
551.40	25.345
551.60	24.489
551.79	25.104
551.99	24.842
552.18	24.941
552.38	24.477
552.57	25.006
552.77	24.570
552.96	24.941
553.16	24.934
553.35	25.040
553.54	25.015
553.74	25.245
553.93	24.769
554.13	25.132
554.32	25.646
554.52	25.818
554.71	25.628
554.91	25.759
555.10	25.562
555.29	25.807
555.49	25.915
555.68	26.010
555.88	25.373
556.07	25.122
556.27	25.900
556.46	26.372
556.66	26.264
556.85	25.908
557.04	25.835
557.24	25.918
557.43	25.209
557.63	25.921
557.82	25.007
558.02	26.103
558.21	26.176
558.40	25.799
558.60	25.676
558.79	25.482
558.99	25.901
559.18	26.014
559.38	26.015
559.57	25.949
559.76	25.938
559.96	26.084
560.15	25.888
560.35	25.816
560.54	25.744
560.73	25.727
560.93	25.871
561.12	25.307
561.32	26.101
561.51	26.049
561.70	26.204
561.90	25.811
562.09	25.329
562.29	26.021
562.48	25.702
562.67	26.227
562.87	26.101
563.06	26.044
563.26	26.067
563.45	26.363
563.64	26.580
563.84	26.640
564.03	26.130
564.23	25.775
564.42	26.477
564.61	26.277
564.81	26.844
565.00	26.376
565.20	25.779
565.39	26.417
565.58	25.495
565.78	25.801
565.97	25.905
566.16	25.935
566.36	25.733
566.55	26.201
566.74	26.065
566.94	26.395
567.13	26.350
567.33	26.291
567.52	26.693
567.71	26.300
567.91	26.705
568.10	27.483
568.29	27.023
568.49	27.312
568.68	26.890
568.87	26.726
569.07	26.923
569.26	26.836
569.45	27.142
569.65	26.446
569.84	26.491
570.04	27.053
570.23	26.655
570.42	26.241
570.62	26.685
570.81	27.067
571.00	26.158
571.20	26.975
571.39	26.881
571.58	26.493
571.78	26.369
571.97	26.403
572.16	26.454
572.36	26.254
572.55	26.636
572.74	26.008
572.94	26.743
573.13	26.316
573.32	26.531
573.51	26.335
573.71	26.647
573.90	27.015
574.09	27.079
574.29	26.765
574.48	26.803
574.67	26.508
574.87	26.356
575.06	26.457
575.25	26.484
575.45	26.813
575.64	27.050
575.83	26.756
576.03	27.800
576.22	26.994
576.41	26.917
576.60	26.730
576.80	26.892
576.99	26.582
577.18	26.792
577.38	26.727
577.57	27.044
577.76	27.611
577.95	26.717
578.15	25.990
578.34	26.882
578.53	27.157
578.73	26.574
578.92	26.362
579.11	27.058
579.30	27.458
579.50	27.614
579.69	27.036
579.88	27.126
580.08	26.589
580.27	26.750
580.46	27.298
580.65	27.386
580.85	27.735
581.04	27.606
581.23	25.868
581.42	26.499
581.62	26.889
581.81	26.769
582.00	27.194
582.19	27.488
582.39	27.206
582.58	27.102
582.77	28.124
582.96	26.936
583.16	26.343
583.35	27.919
583.54	26.863
583.73	27.375
583.93	27.233
584.12	26.985
584.31	26.955
584.50	27.221
584.70	27.238
584.89	27.559
585.08	26.370
585.27	27.348
585.47	26.919
585.66	27.693
585.85	27.236
586.04	27.310
586.24	27.593
586.43	26.544
586.62	27.044
586.81	26.696
587.00	27.100
587.20	27.106
587.39	26.990
587.58	26.460
587.77	26.023
587.97	26.994
588.16	26.592
588.35	27.174
588.54	26.555
588.73	26.682
588.93	26.362
589.12	26.901
589.31	26.338
589.50	26.782
589.69	27.022
589.89	26.610
590.08	26.031
590.27	26.773
590.46	26.807
590.65	26.430
590.85	26.399
591.04	27.523
591.23	26.870
591.42	26.870
591.61	27.067
591.81	27.103
592.00	27.008
592.19	27.628
592.38	27.450
592.57	27.440
592.77	26.612
592.96	27.883
593.15	27.832
593.34	27.344
593.53	26.743
593.72	26.839
593.92	26.501
594.11	27.801
594.30	26.606
594.49	27.985
594.68	27.794
594.87	27.240
595.07	26.541
595.26	27.630
595.45	27.135
595.64	27.587
595.83	27.241
596.02	27.260
596.22	27.498
596.41	26.645
596.60	26.672
596.79	27.390
596.98	27.022
597.17	27.225
597.37	27.523
597.56	27.237
597.75	26.864
597.94	27.744
598.13	27.394
598.32	27.640
598.51	28.487
598.71	27.590
598.90	27.909
599.09	27.887
599.28	28.407
599.47	28.348
599.66	28.156
599.85	28.618
600.05	28.156
600.24	28.132
600.43	28.223
600.62	27.970
600.81	28.041
601.00	28.097
601.19	28.159
601.38	28.783
601.58	28.733
601.77	28.869
601.96	28.367
602.15	28.602
602.34	28.502
602.53	29.431
602.72	28.601
602.91	28.601
603.10	28.233
603.30	28.731
603.49	28.513
603.68	28.636
603.87	28.076
604.06	27.993
604.25	27.745
604.44	28.268
604.63	27.792
604.82	28.614
605.01	28.331
605.21	28.603
605.40	28.370
605.59	28.591
605.78	28.493
605.97	28.221
606.16	29.414
606.35	28.772
606.54	29.123
606.73	29.971
606.92	29.937
607.11	29.486
607.30	29.160
607.50	28.922
607.69	29.084
607.88	29.667
608.07	29.229
608.26	29.868
608.45	29.655
608.64	29.599
608.83	28.634
609.02	29.157
609.21	28.480
609.40	29.309
609.59	28.768
609.78	28.568
609.97	29.020
610.16	29.001
610.35	28.965
610.55	29.141
610.74	29.322
610.93	30.000
611.12	29.375
611.31	29.155
611.50	29.724
611.69	29.423
611.88	28.844
612.07	30.102
612.26	29.709
612.45	30.462
612.64	29.983
612.83	30.388
613.02	30.268
613.21	29.978
613.40	29.534
613.59	30.869
613.78	30.634
613.97	30.453
614.16	30.012
614.35	31.167
614.54	29.746
614.73	30.413
614.92	30.287
615.11	30.493
615.30	29.650
615.49	29.369
615.68	29.541
615.87	30.710
616.07	30.204
616.26	29.039
616.45	30.357
616.64	29.429
616.83	29.442
617.02	30.404
617.21	29.468
617.40	29.188
617.59	29.944
617.78	28.631
617.97	29.403
618.16	29.074
618.35	29.046
618.54	29.099
618.73	28.580
618.92	28.568
619.11	29.145
619.30	30.202
619.49	28.890
619.68	28.777
619.86	28.937
620.05	29.339
620.24	29.175
620.43	30.149
620.62	28.900
620.81	29.434
621.00	29.836
621.19	29.686
621.38	29.731
621.57	28.843
621.76	29.181
621.95	30.342
622.14	28.464
622.33	29.641
622.52	28.371
622.71	29.154
622.90	28.762
623.09	29.293
623.28	28.534
623.47	29.616
623.66	29.899
623.85	28.594
624.04	28.607
624.23	29.761
624.42	28.712
624.61	28.925
624.80	28.232
624.99	28.782
625.18	27.354
625.36	29.277
625.55	28.778
625.74	28.351
625.93	28.170
626.12	28.837
626.31	28.460
626.50	28.758
626.69	28.708
626.88	28.826
627.07	28.635
627.26	28.735
627.45	28.822
627.64	28.524
627.83	28.126
628.02	27.855
628.20	28.790
628.39	28.974
628.58	28.516
628.77	29.123
628.96	28.142
629.15	29.096
629.34	29.250
629.53	29.182
629.72	29.186
629.91	29.628
630.10	29.213
630.29	30.895
630.47	29.327
630.66	29.940
630.85	29.803
631.04	30.511
631.23	30.520
631.42	29.496
631.61	30.620
631.80	29.719
631.99	30.461
632.18	29.872
632.36	29.657
632.55	30.378
632.74	29.689
632.93	30.297
633.12	29.353
633.31	29.977
633.50	29.524
633.69	29.585
633.88	28.519
634.06	28.961
634.25	28.699
634.44	29.489
634.63	29.207
634.82	29.785
635.01	29.574
635.20	29.270
635.39	29.068
635.57	29.578
635.76	29.427
635.95	29.009
636.14	28.880
636.33	28.977
636.52	30.017
636.71	29.280
636.89	29.016
637.08	29.382
637.27	28.457
637.46	28.334
637.65	28.439
637.84	28.277
638.03	28.483
638.21	29.061
638.40	28.901
638.59	28.239
638.78	28.546
638.97	29.167
639.16	28.241
639.34	29.102
639.53	27.281
639.72	28.594
639.91	27.647
640.10	27.760
640.29	28.116
640.47	29.782
640.66	27.887
640.85	30.111
641.04	26.837
641.23	28.877
641.42	28.880
641.60	28.107
641.79	28.808
641.98	28.569
642.17	27.320
642.36	28.616
642.54	28.260
642.73	28.566
642.92	27.914
643.11	27.947
643.30	27.475
643.49	28.124
643.67	27.293
643.86	27.990
644.05	27.306
644.24	28.510
644.43	27.888
644.61	27.711
644.80	28.262
644.99	28.783
645.18	28.108
645.37	29.195
645.55	27.783
645.74	28.537
645.93	28.101
646.12	29.251
646.31	28.538
646.49	28.252
646.68	28.943
646.87	28.652
647.06	27.650
647.24	28.402
647.43	29.000
647.62	29.422
647.81	28.219
648.00	29.435
648.18	27.073
648.37	28.076
648.56	28.402
648.75	28.537
648.93	28.153
649.12	28.961
649.31	28.418
649.50	28.912
649.68	27.976
649.87	28.119
650.06	26.944
650.25	28.302
650.43	27.132
650.62	28.423
650.81	27.082
651.00	28.762
651.18	27.389
651.37	28.388
651.56	26.563
651.75	28.342
651.93	27.240
652.12	28.275
652.31	27.424
652.50	28.065
652.68	28.974
652.87	29.458
653.06	28.192
653.25	28.047
653.43	27.912
653.62	27.534
653.81	27.234
654.00	28.183
654.18	27.329
654.37	28.175
654.56	27.543
654.74	27.105
654.93	27.556
655.12	28.018
655.31	27.392
655.49	27.908
655.68	26.332
655.87	27.074
656.05	25.365
656.24	27.881
656.43	26.911
656.62	26.881
656.80	26.603
656.99	27.921
657.18	26.160
657.36	27.579
657.55	26.527
657.74	27.060
657.93	27.840
658.11	27.582
658.30	27.198
658.49	26.095
658.67	26.112
658.86	25.763
659.05	25.662
659.23	26.473
659.42	25.254
659.61	25.838
659.79	25.507
659.98	26.995
660.17	25.967
660.35	26.083
660.54	26.834
660.73	26.416
660.91	26.066
661.10	26.786
661.29	26.028
661.47	26.478
661.66	25.468
661.85	26.008
662.03	26.141
662.22	25.455
662.41	24.401
662.59	25.437
662.78	24.144
662.97	24.896
663.15	24.467
663.34	24.880
663.53	24.317
663.71	24.428
663.90	23.421
664.09	24.524
664.27	25.110
664.46	25.292
664.65	24.092
664.83	23.612
665.02	22.256
665.21	24.116
665.39	22.539
665.58	24.893
665.77	22.856
665.95	24.563
666.14	22.984
666.32	25.223
666.51	22.421
666.70	22.835
666.88	21.934
667.07	22.994
667.26	20.996
667.44	23.483
667.63	22.609
667.81	23.394
668.00	22.031
668.19	25.317
668.37	22.834
668.56	23.208
668.75	20.945
668.93	24.419
669.12	20.550
669.30	23.645
669.49	20.798
669.68	23.517
669.86	22.982
670.05	22.183
670.23	21.683
670.42	22.731
670.61	22.358
670.79	23.837
670.98	22.993
671.16	22.812
671.35	21.162
671.54	21.543
671.72	22.151
671.91	23.075
672.09	21.061
672.28	22.659
672.46	22.468
672.65	24.511
672.84	22.630
673.02	23.798
673.21	20.503
673.39	21.300
673.58	22.515
673.77	22.771
673.95	21.188
674.14	21.747
674.32	20.732
674.51	23.288
674.69	21.039
674.88	21.935
675.07	21.066
675.25	24.092
675.44	21.553
675.62	22.416
675.81	20.979
675.99	25.314
676.18	23.560
676.36	21.262
676.55	21.809
676.74	23.642
676.92	22.766
677.11	22.401
677.29	21.884
677.48	22.623
677.66	21.718
677.85	23.192
678.03	22.469
678.22	24.179
678.40	22.406
678.59	21.934
678.78	20.865
678.96	22.730
679.15	22.333
679.33	23.912
679.52	23.665
679.70	23.398
679.89	22.707
680.07	23.495
680.26	21.166
680.44	22.785
680.63	23.043
680.81	24.260
681.00	22.964
681.18	23.935
681.37	22.617
681.55	24.539
681.74	25.017
681.92	24.766
682.11	23.854
682.29	23.916
682.48	22.560
682.66	24.009
682.85	24.153
683.03	23.953
683.22	24.199
683.40	26.234
683.59	24.334
683.77	25.217
683.96	23.271
684.14	25.220
684.33	22.694
684.51	26.755
684.70	24.540
684.88	26.774
685.07	24.109
685.25	26.467
685.44	23.967
685.62	25.914
685.81	23.099
685.99	26.303
686.18	22.981
686.36	26.519
686.55	24.362
686.73	25.159
686.92	26.324
687.10	25.393
687.29	25.832
687.47	27.647
687.65	26.238
687.84	25.327
688.02	28.580
688.21	27.573
688.39	25.742
688.58	28.305
688.76	27.078
688.95	26.841
689.13	25.040
689.32	28.615
689.50	28.327
689.68	28.252
689.87	26.234
690.05	28.385
690.24	29.055
690.42	28.116
690.61	28.237
690.79	29.569
690.98	27.891
691.16	29.322
691.34	27.369
691.53	29.606
691.71	28.152
691.90	30.733
692.08	27.375
692.27	30.569
692.45	31.727
692.63	30.114
692.82	29.804
693.00	28.173
693.19	27.707
693.37	31.449
693.56	28.824
693.74	30.987
693.92	29.384
694.11	31.549
694.29	31.244
694.48	30.785
694.66	31.110
694.84	32.040
695.03	29.971
695.21	32.688
695.40	32.716
695.58	34.354
695.76	30.816
695.95	32.898
696.13	29.852
696.32	33.537
696.50	36.219
696.68	31.947
696.87	30.520
697.05	34.005
697.24	32.696
697.42	34.026
697.60	32.745
697.79	32.003
697.97	34.474
698.16	35.108
698.34	32.060
698.52	34.625
698.71	32.499
698.89	33.287
699.07	33.066
699.26	34.503
699.44	33.272
699.63	33.473
699.81	33.351
699.99	34.501
700.18	34.497
700.36	34.409
700.54	35.532
700.73	34.698
700.91	34.560
701.09	35.566
701.28	34.424
701.46	35.460
701.64	33.398
701.83	34.059
702.01	34.333
702.20	35.995
702.38	34.470
702.56	35.010
702.75	34.663
702.93	35.086
703.11	34.410
703.30	34.856
703.48	34.381
703.66	35.557
703.85	34.622
704.03	37.190
704.21	35.224
704.40	37.451
704.58	32.806
704.76	35.665
704.95	34.345
705.13	37.094
705.31	34.195
705.50	36.236
705.68	34.638
705.86	36.023
706.04	36.574
706.23	37.641
706.41	35.338
706.59	36.534
706.78	35.510
706.96	36.644
707.14	36.846
707.33	38.279
707.51	34.971
707.69	38.144
707.88	36.121
708.06	36.552
708.24	36.573
708.42	37.819
708.61	34.750
708.79	38.295
708.97	36.597
709.16	37.556
709.34	39.717
709.52	38.320
709.71	37.577
709.89	37.756
710.07	34.585
710.25	38.503
710.44	35.734
710.62	37.370
710.80	37.722
710.98	37.848
711.17	35.858
711.35	37.360
711.53	35.922
711.72	37.729
711.90	39.244
712.08	37.662
712.26	34.970
712.45	36.900
712.63	38.655
712.81	37.890
712.99	36.613
713.18	38.904
713.36	38.128
713.54	38.126
713.72	36.103
713.91	36.998
714.09	35.886
714.27	36.451
714.45	38.485
714.64	38.688
714.82	37.512
715.00	37.725
715.18	36.455
715.37	38.957
715.55	37.585
715.73	37.296
715.91	35.748
716.10	37.427
716.28	34.698
716.46	39.040
716.64	35.927
716.83	37.975
717.01	35.595
717.19	37.956
717.37	36.802
717.55	38.954
717.74	35.424
717.92	36.412
718.10	34.430
718.28	37.399
718.47	33.292
718.65	39.107
718.83	36.046
719.01	39.029
719.19	36.162
719.38	37.510
719.56	36.978
719.74	35.623
719.92	32.797
720.10	35.832
720.29	36.293
720.47	38.441
720.65	36.611
720.83	39.752
721.01	33.595
721.20	33.951
721.38	35.701
721.56	35.662
721.74	37.384
721.92	37.326
722.11	35.456
722.29	36.839
722.47	36.430
722.65	38.845
722.83	38.532
723.01	37.715
723.20	37.614
723.38	36.922
723.56	34.654
723.74	38.721
723.92	35.069
724.10	38.721
724.29	33.630
724.47	37.729
724.65	36.875
724.83	37.883
725.01	35.340
725.19	40.403
725.38	33.628
725.56	39.357
725.74	37.486
725.92	38.978
726.10	37.224
726.28	38.070
726.46	36.362
726.65	37.626
726.83	35.566
727.01	39.350
727.19	37.091
727.37	37.435
727.55	35.388
727.73	35.968
727.92	37.748
728.10	36.884
728.28	34.087
728.46	38.546
728.64	36.494
728.82	39.250
729.00	36.503
729.19	38.963
729.37	36.445
729.55	38.988
729.73	33.951
729.91	38.413
730.09	38.339
730.27	36.511
730.45	34.981
730.63	37.468
730.82	35.642
731.00	38.023
731.18	34.731
731.36	39.429
731.54	33.244
731.72	38.992
731.90	34.177
732.08	38.371
732.26	33.170
732.45	38.857
732.63	38.935
732.81	37.536
732.99	36.535
733.17	38.351
733.35	36.203
733.53	38.823
733.71	34.572
733.89	37.551
734.07	37.547
734.25	41.730
734.44	37.855
734.62	37.572
734.80	34.940
734.98	39.591
735.16	38.914
735.34	38.585
735.52	39.350
735.70	40.101
735.88	38.966
736.06	38.444
736.24	39.678
736.42	41.350
736.60	39.653
736.78	39.466
736.97	35.499
737.15	40.157
737.33	36.324
737.51	41.548
737.69	38.193
737.87	41.156
738.05	42.182
738.23	38.545
738.41	36.595
738.59	42.237
738.77	38.556
738.95	40.992
739.13	41.305
739.31	41.481
739.49	41.884
739.67	40.383
739.85	37.472
740.03	42.547
740.21	40.193
740.39	42.986
740.57	39.930
740.75	40.997
740.93	40.687
741.11	40.623
741.30	39.820
741.48	39.794
741.66	40.829
741.84	41.228
742.02	37.055
742.20	42.458
742.38	39.111
742.56	43.464
742.74	37.480
742.92	37.376
743.10	39.072
743.28	42.410
743.46	40.239
743.64	38.316
743.82	36.340
744.00	42.320
744.18	38.614
744.36	42.051
744.54	38.657
744.72	44.157
744.90	43.432
745.08	40.840
745.26	41.368
745.44	43.428
745.62	39.631
745.80	41.649
745.98	38.643
746.16	45.352
746.34	40.545
746.52	44.653
746.70	35.511
746.87	39.764
747.05	37.377
747.23	41.695
747.41	40.936
747.59	42.528
747.77	39.231
747.95	41.773
748.13	40.442
748.31	44.126
748.49	39.650
748.67	41.259
748.85	39.538
749.03	42.402
749.21	37.060
749.39	41.573
749.57	36.000
749.75	38.927
749.93	41.764
750.11	41.360
750.29	41.578
750.47	41.410
750.65	39.438
750.83	41.272
751.01	34.695
751.18	40.271
751.36	37.975
751.54	39.676
751.72	41.554
751.90	39.105
752.08	35.333
752.26	39.527
752.44	40.662
752.62	40.795
752.80	38.644
752.98	40.201
753.16	41.527
753.34	39.307
753.52	41.774
753.69	40.965
753.87	40.160
754.05	41.384
754.23	38.244
754.41	39.522
754.59	40.671
754.77	40.181
754.95	39.137
755.13	39.744
755.31	38.867
755.49	39.769
755.66	39.982
755.84	41.349
756.02	36.425
756.20	41.754
756.38	35.206
756.56	40.516
756.74	36.452
756.92	40.424
757.10	37.939
757.28	41.210
757.45	48.429
757.63	44.064
757.81	38.887
757.99	44.742
758.17	41.320
758.35	43.573
758.53	42.340
758.71	42.415
758.88	39.492
759.06	41.851
759.24	38.138
759.42	37.701
759.60	36.894
759.78	37.028
759.96	33.344
760.13	37.571
760.31	35.173
760.49	36.455
760.67	33.095
760.85	32.967
761.03	32.851
761.21	34.023
761.38	31.088
761.56	34.614
761.74	32.048
761.92	36.874
762.10	30.352
762.28	36.981
762.46	29.075
762.63	33.006
762.81	31.099
762.99	32.088
763.17	31.956
763.35	35.674
763.53	31.526
763.70	35.508
763.88	38.052
764.06	36.724
764.24	32.929
764.42	36.176
764.60	33.449
764.77	34.053
764.95	34.360
765.13	34.609
765.31	34.422
765.49	39.484
765.66	33.989
765.84	36.929
766.02	34.605
766.20	37.664
766.38	34.595
766.56	39.213
766.73	35.422
766.91	35.821
767.09	35.937
767.27	40.713
767.45	33.505
767.62	40.189
767.80	34.194
767.98	40.967
768.16	35.878
768.33	41.161
768.51	37.938
768.69	40.366
768.87	37.770
769.05	37.340
769.22	36.591
769.40	43.124
769.58	38.640
769.76	44.565
769.94	39.342
770.11	38.957
770.29	39.252
770.47	42.483
770.65	41.250
770.82	43.336
771.00	41.880
771.18	40.455
771.36	39.570
771.53	41.817
771.71	42.057
771.89	45.032
772.07	41.252
772.25	42.103
772.42	38.896
772.60	42.786
772.78	39.685
772.96	44.322
773.13	44.719
773.31	42.721
773.49	39.101
773.67	42.923
773.84	40.979
774.02	40.393
774.20	40.252
774.37	43.040
774.55	39.429
774.73	43.847
774.91	43.823
775.08	44.262
775.26	39.290
775.44	44.198
775.62	40.118
775.79	41.852
775.97	39.636
776.15	40.039
776.32	35.462
776.50	48.908
776.68	41.482
776.86	49.515
777.03	39.149
777.21	47.969
777.39	40.222
777.56	45.371
777.74	43.674
777.92	46.248
778.10	39.616
778.27	44.475
778.45	43.273
778.63	48.014
778.80	42.938
778.98	42.652
779.16	45.294
779.34	44.162
779.51	42.364
779.69	48.824
779.87	41.700
780.04	41.963
780.22	41.605
780.40	43.247
780.57	45.152
780.75	40.375
780.93	44.971
781.10	43.692
781.28	52.629
781.46	40.954
781.63	45.872
781.81	47.649
781.99	39.940
782.16	43.877
782.34	39.641
782.52	43.087
782.69	47.090
782.87	42.865
783.05	37.387
783.22	41.742
783.40	44.646
783.58	44.004
783.75	39.154
783.93	47.581
784.11	43.747
784.28	45.602
784.46	40.148
784.64	45.304
784.81	41.534
784.99	49.201
785.17	41.249
785.34	40.101
785.52	39.225
785.69	48.086
785.87	38.147
786.05	45.938
786.22	42.900
786.40	53.725
786.58	46.893
786.75	47.660
786.93	42.436
787.11	41.729
787.28	43.627
787.46	42.762
787.63	43.102
787.81	42.476
787.99	47.495
788.16	43.394
788.34	37.589
788.51	38.784
788.69	38.757
788.87	36.578
789.04	39.951
789.22	40.570
789.39	36.600
789.57	40.964
789.75	38.992
789.92	44.682
790.10	39.430
790.27	44.714
790.45	34.062
790.63	39.591
790.80	39.500
790.98	39.259
791.15	41.503
791.33	40.837
791.51	40.451
791.68	45.853
791.86	43.957
792.03	43.260
792.21	38.457
792.39	45.174
792.56	39.756
792.74	46.707
792.91	44.851
793.09	40.213
793.26	38.242
793.44	46.852
793.62	41.180
793.79	47.906
793.97	46.846
794.14	43.046
794.32	46.393
794.49	42.581
794.67	38.110
794.84	42.368
795.02	41.782
795.20	44.418
795.37	40.834
795.55	43.135
795.72	49.485
795.90	39.628
796.07	41.132
796.25	41.145
796.42	42.411
796.60	40.477
796.77	40.899
796.95	38.276
797.13	32.079
797.30	44.053
797.48	40.262
797.65	41.492
797.83	40.380
798.00	42.842
798.18	39.114
798.35	39.600
798.53	40.253
798.70	41.913
798.88	41.875
799.05	41.550
799.23	40.486
799.40	41.238
799.58	43.812
799.75	41.766
799.93	41.986
800.10	42.163
800.28	44.516
800.45	41.583
800.63	42.206
800.80	43.616
800.98	41.267
801.15	42.488
801.33	45.784
801.50	40.305
801.68	37.345
801.85	40.997
802.03	40.554
802.20	39.574
802.38	41.745
802.55	42.229
802.73	43.565
802.90	42.137
803.08	40.763
803.25	45.548
803.43	46.008
803.60	45.712
803.78	47.091
803.95	44.521
804.13	43.192
804.30	46.398
804.48	41.414
804.65	45.094
804.83	42.338
805.00	48.596
805.17	48.867
805.35	36.514
805.52	37.740
805.70	47.826
805.87	46.179
806.05	46.658
806.22	41.528
806.40	39.821
806.57	43.298
806.75	52.297
806.92	49.631
807.09	41.408
807.27	38.930
807.44	42.418
807.62	45.091
807.79	43.130
807.97	38.593
808.14	44.254
808.31	44.685
808.49	47.093
808.66	44.003
808.84	41.271
809.01	44.296
809.19	44.039
809.36	49.934
809.53	50.177
809.71	44.134
809.88	53.140
810.06	49.537
810.23	47.989
810.41	48.808
810.58	50.723
810.75	43.358
810.93	41.890
811.10	44.120
811.28	40.352
811.45	45.073
811.62	41.898
811.80	44.969
811.97	47.710
812.15	55.417
812.32	44.884
812.49	51.669
812.67	35.654
812.84	45.749
813.02	44.895
813.19	41.960
813.36	47.876
813.54	44.317
813.71	46.014
813.89	45.735
814.06	48.594
814.23	47.718
814.41	48.046
814.58	52.025
814.75	54.242
814.93	52.220
815.10	45.712
815.28	46.401
815.45	44.281
815.62	53.007
815.80	41.590
815.97	45.656
816.14	46.178
816.32	49.347
816.49	43.939
816.66	49.376
816.84	39.061
817.01	49.919
817.18	44.762
817.36	44.054
817.53	48.112
817.71	34.779
817.88	47.630
818.05	46.310
818.23	43.676
818.40	45.264
818.57	42.736
818.75	39.093
818.92	37.673
819.09	45.503
819.27	50.569
819.44	45.781
819.61	39.575
819.79	42.651
819.96	44.305
820.13	39.034
820.31	37.154
820.48	38.519
820.65	41.451
820.82	36.070
821.00	38.329
821.17	33.644
821.34	35.157
821.52	33.262
821.69	34.980
821.86	31.964
822.04	32.597
822.21	34.916
822.38	37.065
822.56	33.459
822.73	35.914
822.90	33.982
823.07	37.046
823.25	35.093
823.42	33.452
823.59	33.813
823.77	33.864
823.94	34.600
824.11	34.919
824.29	32.482
824.46	36.127
824.63	34.893
824.80	33.409
824.98	33.683
825.15	34.693
825.32	30.168
825.49	34.539
825.67	32.085
825.84	35.420
826.01	32.469
826.19	34.341
826.36	30.759
826.53	38.449
826.70	30.281
826.88	36.277
827.05	31.599
827.22	32.381
827.39	32.862
827.57	32.748
827.74	30.145
827.91	35.792
828.08	33.864
828.26	34.379
828.43	30.645
828.60	36.181
828.77	31.461
828.95	34.757
829.12	30.170
829.29	29.232
829.46	31.543
829.64	33.303
829.81	29.247
829.98	35.453
830.15	29.853
830.32	35.207
830.50	32.770
830.67	38.755
830.84	36.972
831.01	32.447
831.19	36.114
831.36	40.240
831.53	39.724
831.70	49.084
831.87	38.445
832.05	41.954
832.22	44.054
832.39	34.838
832.56	41.723
832.74	40.644
832.91	42.610
833.08	46.545
833.25	39.381
833.42	41.862
833.60	37.868
833.77	33.709
833.94	30.544
834.11	31.640
834.28	28.647
834.45	35.579
834.63	31.040
834.80	33.133
834.97	32.660
835.14	32.142
835.31	31.298
835.49	29.787
835.66	31.113
835.83	33.899
836.00	30.675
836.17	33.169
836.34	31.762
836.52	33.411
836.69	36.665
836.86	35.421
837.03	36.940
837.20	38.643
837.37	38.366
837.55	36.382
837.72	37.238
837.89	37.310
838.06	42.753
838.23	47.341
838.40	49.091
838.58	39.722
838.75	51.176
838.92	51.967
839.09	56.972
839.26	51.101
839.43	58.449
839.60	55.081
839.78	64.932
839.95	59.980
840.12	51.068
840.29	60.539
840.46	56.293
840.63	59.685
840.80	53.366
840.98	56.652
841.15	44.991
841.32	47.571
841.49	39.637
841.66	56.364
841.83	51.768
842.00	51.930
842.17	57.593
842.34	50.963
842.52	58.740
842.69	56.572
842.86	66.553
843.03	74.344
843.20	58.188
843.37	63.896
843.54	67.246
843.71	58.446
843.88	71.815
844.06	71.587
844.23	72.485
844.40	71.554
844.57	73.164
844.74	73.222
844.91	79.783
845.08	74.759
845.25	86.424
845.42	80.682
845.59	91.987
845.76	68.354
845.94	92.092
846.11	85.653
846.28	85.353
846.45	96.578
846.62	99.488
846.79	80.298
846.96	94.828
847.13	102.289
847.30	98.761
847.47	84.022
847.64	96.786
847.81	90.000
847.98	108.235
848.15	90.146
848.32	91.784
848.50	108.129
848.67	83.091
848.84	98.265
849.01	98.655
849.18	96.963
849.35	116.340
849.52	98.357
849.69	93.721
849.86	121.893
850.03	93.321
850.20	105.040
850.37	83.265
850.54	111.568
850.71	110.081
850.88	90.543
851.05	118.961
851.22	99.835
851.39	120.256
851.56	102.734
851.73	95.211
851.90	101.089
852.07	78.373
852.24	115.865
852.41	112.903
852.58	107.513
852.75	93.235
852.92	111.736
853.09	132.965
853.26	100.652
853.43	127.494
853.60	88.363
853.77	114.316
853.94	98.039
854.11	126.350
854.28	105.389
854.45	116.592
854.62	100.442
854.79	126.128
854.96	109.670
855.13	107.759
855.30	111.605
855.47	136.290
855.64	101.515
855.81	108.043
855.98	110.515
856.15	117.647
856.32	111.429
856.49	116.000
856.66	93.210
856.83	107.692
857.00	110.904
857.17	104.619
857.34	110.624
857.51	87.298
857.68	106.477
857.85	89.485
858.02	113.877
858.19	101.247
858.36	106.849
858.53	136.879
858.70	107.658
858.87	103.871
859.04	95.023
859.21	110.644
859.38	106.918
859.55	123.278
859.72	150.413
859.89	115.666
860.05	100.215
860.22	121.758
860.39	96.894
860.56	129.076
860.73	119.635
860.90	91.258
861.07	133.012
861.24	94.213
861.41	109.072
861.58	95.546
861.75	135.340
861.92	104.709
862.09	80.357
862.26	143.143
862.43	130.787
862.59	137.534
862.76	140.979
862.93	121.702
863.10	102.625
863.27	118.478
863.44	118.795
863.61	106.920
863.78	97.831
863.95	148.428
864.12	98.739
864.29	144.886
864.45	123.383
864.62	104.348
864.79	89.074
864.96	120.388
865.13	101.167
865.30	104.795
865.47	103.226
865.64	115.366
865.81	113.418
865.97	87.229
866.14	96.258
866.31	125.195
866.48	95.960
866.65	105.689
866.82	104.270
866.99	130.595
867.16	113.971
867.33	120.624
867.49	120.423
867.66	92.892
867.83	161.238
868.00	121.615
868.17	91.364
868.34	126.168
868.51	105.707
868.67	126.243
868.84	106.731
869.01	135.219
869.18	113.228
869.35	130.814
869.52	125.266
869.69	113.119
869.85	102.466
870.02	126.044
870.19	118.830
870.36	121.053
870.53	98.874
870.70	113.064
870.86	114.173
871.03	109.882
871.20	126.615
871.37	116.216
871.54	141.834
871.71	113.941
871.87	134.127
872.04	95.885
872.21	114.865
872.38	115.672
872.55	134.456
872.72	100.907
872.88	134.699
873.05	94.457
873.22	100.730
873.39	98.058
873.56	116.327
873.72	113.304
873.89	106.100
874.06	113.181
874.23	121.281
874.40	108.767
874.56	103.918
874.73	109.383
874.90	89.016
875.07	108.193
875.24	97.375
875.40	106.460
875.57	135.393
875.74	124.500
875.91	92.873
876.08	112.357
876.24	141.441
876.41	108.577
876.58	107.508
876.75	114.684
876.92	102.772
877.08	121.327
877.25	115.368
877.42	101.768
877.59	98.344
877.75	115.046
877.92	88.683
878.09	107.253
878.26	103.498
878.42	152.218
878.59	123.007
878.76	109.545
878.93	109.605
879.09	119.248
879.26	86.071
879.43	127.737
879.60	94.129
879.76	90.484
879.93	79.525
880.10	71.993
880.27	95.425
880.43	75.000
880.60	71.330
880.77	55.877
880.94	75.189
881.10	56.867
881.27	57.929
881.44	48.052
881.61	43.641
881.77	47.696
881.94	33.954
882.11	32.071
882.28	32.344
882.44	33.047
882.61	30.773
882.78	34.144
882.94	38.446
883.11	33.741
883.28	34.534
883.45	31.592
883.61	30.520
883.78	31.012
883.95	34.330
884.11	31.287
884.28	30.620
>>>>>End Processed Spectral Data<<<<<
