SpectraSuite Data File
++++++++++++++++++++++++++++++++++++
Date: Tue Sep 24 04:02:28 EST 2019
User: sgrac
Dark Spectrum Present: Yes
Reference Spectrum Present: Yes
Number of Sampled Component Spectra: 1
Spectrometers: USB4E01596
Integration Time (usec): 100000 (USB4E01596)
Spectra Averaged: 3 (USB4E01596)
Boxcar Smoothing: 0 (USB4E01596)
Correct for Electrical Dark: No (USB4E01596)
Strobe/Lamp Enabled: Yes (USB4E01596)
Correct for Detector Non-linearity: No (USB4E01596)
Correct for Stray Light: No (USB4E01596)
Number of Pixels in Processed Spectrum: 3648
>>>>>Begin Processed Spectral Data<<<<<
178.44	1895.455
178.66	1895.455
178.87	1895.455
179.09	735.849
179.30	715.556
179.52	-1323.333
179.74	858.491
179.95	698.507
180.17	-19000.000
180.38	-16900.000
180.60	595.506
180.82	-3242.857
181.03	1037.838
181.25	-1960.870
181.46	618.056
181.68	4800.000
181.89	-1712.500
182.11	631.818
182.33	1408.571
182.54	892.982
182.76	-832.500
182.97	299.379
183.19	984.444
183.40	5455.556
183.62	574.390
183.84	592.000
184.05	871.739
184.27	618.519
184.48	-2405.556
184.70	496.774
184.91	657.895
185.13	661.842
185.34	551.613
185.56	1378.125
185.78	1683.333
185.99	2512.500
186.21	541.250
186.42	897.619
186.64	513.978
186.85	872.917
187.07	-4120.000
187.28	-2111.765
187.50	-41300.000
187.72	42900.000
187.93	-1945.833
188.15	1160.465
188.36	627.027
188.58	633.784
188.79	-6400.000
189.01	-3384.615
189.22	1608.000
189.44	546.512
189.65	715.152
189.87	-6014.286
190.09	1344.118
190.30	1271.053
190.52	2280.952
190.73	8033.333
190.95	1165.789
191.16	501.266
191.38	3954.545
191.59	3542.857
191.81	1444.118
192.02	1104.255
192.24	846.939
192.45	2547.059
192.67	535.065
192.88	455.102
193.10	737.879
193.31	439.394
193.53	1171.053
193.74	-39200.000
193.96	822.535
194.18	379.245
194.39	508.696
194.61	517.593
194.82	414.407
195.04	451.402
195.25	0.000
195.47	-43900.000
195.68	422.000
195.90	496.471
196.11	608.434
196.33	927.907
196.54	432.110
196.76	1351.515
196.97	-2991.667
197.19	474.419
197.40	857.895
197.62	788.679
197.83	461.538
198.05	654.795
198.26	0.000
198.48	-762.222
198.69	1660.000
198.91	6428.571
199.12	-9975.000
199.34	472.222
199.55	-39900.000
199.77	2538.889
199.98	687.324
200.20	350.413
200.41	582.895
200.63	1320.588
200.84	-3546.154
201.06	546.835
201.27	1912.000
201.49	1063.830
201.70	537.931
201.91	738.028
202.13	694.030
202.34	-1792.000
202.56	324.648
202.77	4812.500
202.99	6062.500
203.20	726.087
203.42	1135.135
203.63	5162.500
203.85	483.193
204.06	790.385
204.28	376.271
204.49	1300.000
204.71	-1168.750
204.92	363.768
205.14	1648.387
205.35	921.429
205.56	497.143
205.78	-980.000
205.99	1117.949
206.21	873.684
206.42	695.455
206.64	2178.261
206.85	496.386
207.07	-601.613
207.28	1580.000
207.50	558.696
207.71	931.250
207.93	13633.333
208.14	1186.842
208.35	-3300.000
208.57	-1368.966
208.78	362.238
209.00	1130.000
209.21	467.327
209.43	-8316.667
209.64	322.727
209.86	584.211
210.07	1073.810
210.28	1362.069
210.50	7183.333
210.71	1564.516
210.93	-2720.000
211.14	738.182
211.36	522.917
211.57	1818.519
211.78	4333.333
212.00	-2755.556
212.21	1173.171
212.43	810.714
212.64	589.024
212.86	1669.565
213.07	697.059
213.29	3157.143
213.50	349.206
213.71	554.217
213.93	358.462
214.14	374.359
214.36	438.824
214.57	-4410.000
214.78	1179.487
215.00	464.463
215.21	995.000
215.43	1560.000
215.64	466.667
215.86	454.717
216.07	10450.000
216.28	643.284
216.50	473.529
216.71	1355.172
216.93	-1174.419
217.14	462.626
217.35	801.786
217.57	392.308
217.78	695.161
218.00	386.869
218.21	549.296
218.42	1633.333
218.64	3320.000
218.85	867.857
219.07	405.882
219.28	658.462
219.49	393.578
219.71	657.143
219.92	1352.000
220.14	963.043
220.35	4500.000
220.56	1019.512
220.78	1245.455
220.99	709.231
221.21	616.216
221.42	678.378
221.63	8925.000
221.85	1585.714
222.06	1370.833
222.28	586.076
222.49	501.075
222.70	410.000
222.92	784.211
223.13	2055.556
223.34	1225.000
223.56	340.157
223.77	300.694
223.99	486.667
224.20	286.986
224.41	493.333
224.63	525.510
224.84	295.714
225.05	388.000
225.27	692.157
225.48	481.818
225.69	457.292
225.91	456.627
226.12	300.510
226.34	250.279
226.55	185.532
226.76	257.895
226.98	245.625
227.19	191.176
227.40	204.329
227.62	222.816
227.83	131.492
228.04	139.157
228.26	106.907
228.47	100.000
228.69	83.673
228.90	71.009
229.11	65.127
229.33	60.948
229.54	53.938
229.75	44.921
229.97	52.205
230.18	47.185
230.39	38.028
230.61	42.248
230.82	53.059
231.03	46.409
231.25	57.746
231.46	53.226
231.67	50.763
231.89	68.015
232.10	61.549
232.31	69.002
232.53	80.255
232.74	80.472
232.95	85.489
233.17	74.126
233.38	59.799
233.59	81.329
233.81	90.582
234.02	83.725
234.23	82.230
234.45	85.805
234.66	77.636
234.87	84.806
235.09	67.742
235.30	67.733
235.51	87.650
235.73	72.981
235.94	57.837
236.15	68.254
236.36	81.335
236.58	68.759
236.79	70.978
237.00	71.010
237.22	62.063
237.43	74.063
237.64	67.000
237.86	58.726
238.07	70.607
238.28	70.815
238.50	55.688
238.71	70.075
238.92	53.296
239.13	68.706
239.35	63.088
239.56	57.415
239.77	67.940
239.99	57.355
240.20	61.669
240.41	61.697
240.63	57.491
240.84	56.537
241.05	45.335
241.26	39.644
241.48	44.049
241.69	35.658
241.90	31.085
242.12	29.356
242.33	27.409
242.54	22.628
242.75	21.980
242.97	25.189
243.18	20.659
243.39	20.770
243.61	20.161
243.82	22.074
244.03	21.996
244.24	20.176
244.46	23.127
244.67	21.855
244.88	23.014
245.09	22.216
245.31	20.755
245.52	22.265
245.73	30.117
245.95	42.187
246.16	23.032
246.37	19.376
246.58	22.938
246.80	21.264
247.01	20.226
247.22	15.258
247.43	15.348
247.65	14.661
247.86	13.642
248.07	12.716
248.28	10.722
248.50	12.351
248.71	13.486
248.92	11.074
249.13	12.203
249.35	12.060
249.56	14.730
249.77	12.414
249.98	13.021
250.20	20.677
250.41	16.647
250.62	22.352
250.83	19.714
251.05	22.248
251.26	25.869
251.47	23.896
251.68	26.781
251.90	20.437
252.11	23.354
252.32	23.053
252.53	22.082
252.75	19.719
252.96	23.485
253.17	18.706
253.38	19.661
253.59	21.904
253.81	19.714
254.02	20.883
254.23	23.269
254.44	21.966
254.66	24.202
254.87	23.915
255.08	27.608
255.29	31.836
255.50	30.759
255.72	27.360
255.93	27.480
256.14	36.229
256.35	30.821
256.57	37.080
256.78	27.697
256.99	23.522
257.20	31.434
257.41	25.914
257.63	27.806
257.84	29.767
258.05	30.854
258.26	16.969
258.47	25.318
258.69	19.850
258.90	19.033
259.11	20.975
259.32	17.095
259.53	14.125
259.75	13.043
259.96	10.963
260.17	11.161
260.38	9.376
260.59	9.077
260.81	7.448
261.02	8.088
261.23	7.705
261.44	9.754
261.65	9.192
261.87	9.384
262.08	9.176
262.29	11.910
262.50	12.694
262.71	12.305
262.92	12.986
263.14	12.555
263.35	17.048
263.56	20.646
263.77	17.921
263.98	18.185
264.20	20.712
264.41	19.042
264.62	20.385
264.83	18.978
265.04	23.091
265.25	19.784
265.47	21.041
265.68	20.688
265.89	21.449
266.10	18.451
266.31	20.484
266.52	19.343
266.74	17.385
266.95	15.812
267.16	16.996
267.37	17.046
267.58	16.321
267.79	16.214
268.01	10.657
268.22	14.981
268.43	14.832
268.64	16.388
268.85	13.678
269.06	14.216
269.27	17.213
269.49	14.372
269.70	13.100
269.91	13.469
270.12	13.992
270.33	15.517
270.54	14.336
270.75	15.656
270.97	13.823
271.18	14.194
271.39	12.774
271.60	16.257
271.81	12.517
272.02	11.962
272.23	13.692
272.45	11.084
272.66	10.696
272.87	13.849
273.08	9.599
273.29	12.715
273.50	10.830
273.71	11.200
273.92	10.227
274.14	11.175
274.35	11.552
274.56	11.383
274.77	10.515
274.98	13.312
275.19	14.532
275.40	11.429
275.61	10.216
275.83	15.201
276.04	14.331
276.25	17.232
276.46	12.231
276.67	16.402
276.88	14.861
277.09	12.745
277.30	13.574
277.51	14.233
277.73	11.468
277.94	14.098
278.15	13.625
278.36	16.807
278.57	13.796
278.78	12.496
278.99	13.337
279.20	15.078
279.41	16.838
279.62	11.591
279.84	13.264
280.05	14.051
280.26	14.380
280.47	14.362
280.68	14.113
280.89	11.379
281.10	14.846
281.31	13.933
281.52	11.994
281.73	11.152
281.94	11.005
282.16	14.602
282.37	12.448
282.58	12.011
282.79	13.200
283.00	11.915
283.21	8.297
283.42	10.397
283.63	11.941
283.84	12.209
284.05	10.084
284.26	12.177
284.47	10.436
284.68	10.656
284.89	9.089
285.11	10.626
285.32	9.975
285.53	12.327
285.74	10.975
285.95	10.414
286.16	9.440
286.37	8.585
286.58	9.481
286.79	8.021
287.00	9.028
287.21	9.081
287.42	10.472
287.63	7.692
287.84	8.489
288.05	9.902
288.26	9.720
288.48	10.247
288.69	8.370
288.90	11.528
289.11	10.405
289.32	9.856
289.53	9.057
289.74	9.515
289.95	11.642
290.16	9.612
290.37	8.739
290.58	9.770
290.79	8.930
291.00	9.381
291.21	10.552
291.42	9.241
291.63	9.630
291.84	9.345
292.05	9.610
292.26	8.272
292.47	10.272
292.68	9.453
292.89	10.268
293.10	9.722
293.31	11.113
293.52	8.596
293.73	11.012
293.94	10.949
294.15	11.106
294.36	10.628
294.57	11.258
294.79	11.011
295.00	9.395
295.21	11.837
295.42	9.543
295.63	10.910
295.84	8.682
296.05	8.756
296.26	9.001
296.47	8.974
296.68	8.477
296.89	10.142
297.10	7.711
297.31	8.763
297.52	7.554
297.73	7.144
297.94	8.025
298.15	8.144
298.36	5.772
298.57	7.542
298.78	7.768
298.99	6.817
299.20	7.089
299.41	8.930
299.62	8.111
299.83	6.775
300.04	8.165
300.25	9.557
300.46	10.093
300.67	10.122
300.88	9.668
301.09	7.439
301.30	10.174
301.50	8.541
301.71	10.405
301.92	11.092
302.13	9.350
302.34	7.954
302.55	9.642
302.76	9.332
302.97	9.403
303.18	10.020
303.39	10.313
303.60	10.004
303.81	10.882
304.02	9.129
304.23	7.319
304.44	9.224
304.65	9.445
304.86	9.247
305.07	9.762
305.28	9.121
305.49	9.036
305.70	12.695
305.91	8.894
306.12	8.970
306.33	9.957
306.54	9.724
306.75	9.407
306.96	11.811
307.17	8.693
307.38	9.714
307.58	7.608
307.79	10.163
308.00	10.299
308.21	10.658
308.42	9.870
308.63	9.213
308.84	9.502
309.05	9.970
309.26	8.682
309.47	7.635
309.68	9.048
309.89	9.900
310.10	9.153
310.31	9.118
310.52	8.183
310.73	8.618
310.94	7.186
311.14	7.279
311.35	6.505
311.56	8.184
311.77	7.614
311.98	6.723
312.19	7.626
312.40	7.083
312.61	7.823
312.82	8.812
313.03	7.996
313.24	7.691
313.45	7.225
313.66	8.662
313.86	9.196
314.07	8.397
314.28	9.374
314.49	9.348
314.70	8.921
314.91	10.458
315.12	9.160
315.33	10.064
315.54	7.960
315.75	7.701
315.96	8.702
316.16	8.819
316.37	9.558
316.58	8.748
316.79	7.974
317.00	10.414
317.21	11.317
317.42	10.392
317.63	10.140
317.84	10.030
318.05	9.207
318.25	9.443
318.46	10.317
318.67	8.963
318.88	10.890
319.09	8.898
319.30	10.070
319.51	9.898
319.72	9.012
319.93	8.642
320.13	9.393
320.34	11.054
320.55	8.815
320.76	9.816
320.97	8.937
321.18	10.903
321.39	9.462
321.60	10.821
321.80	11.819
322.01	11.706
322.22	10.587
322.43	8.960
322.64	7.472
322.85	10.053
323.06	10.882
323.27	9.537
323.47	10.161
323.68	10.487
323.89	9.534
324.10	10.254
324.31	8.343
324.52	9.108
324.73	9.663
324.93	8.007
325.14	7.962
325.35	8.753
325.56	9.483
325.77	8.921
325.98	9.330
326.19	9.673
326.39	6.938
326.60	7.633
326.81	7.315
327.02	9.045
327.23	6.978
327.44	8.959
327.64	7.388
327.85	7.943
328.06	8.538
328.27	9.866
328.48	8.294
328.69	8.339
328.90	9.120
329.10	9.730
329.31	9.535
329.52	8.936
329.73	8.914
329.94	9.153
330.15	9.573
330.35	9.673
330.56	9.492
330.77	8.684
330.98	8.821
331.19	9.335
331.39	10.650
331.60	9.012
331.81	7.876
332.02	9.171
332.23	11.837
332.44	9.400
332.64	10.094
332.85	8.751
333.06	7.513
333.27	8.810
333.48	7.949
333.68	8.947
333.89	8.734
334.10	6.959
334.31	8.433
334.52	9.507
334.72	7.969
334.93	8.813
335.14	7.373
335.35	8.535
335.56	9.037
335.76	8.054
335.97	10.099
336.18	7.546
336.39	9.420
336.60	8.988
336.80	8.494
337.01	8.370
337.22	7.526
337.43	9.423
337.64	9.817
337.84	8.910
338.05	8.651
338.26	9.547
338.47	8.006
338.68	6.821
338.88	8.571
339.09	7.211
339.30	8.212
339.51	7.477
339.71	7.589
339.92	6.821
340.13	8.131
340.34	8.500
340.55	7.565
340.75	8.180
340.96	6.009
341.17	8.546
341.38	7.877
341.58	8.617
341.79	8.109
342.00	7.361
342.21	7.666
342.41	7.712
342.62	7.793
342.83	8.773
343.04	7.387
343.24	8.134
343.45	7.146
343.66	6.465
343.87	7.051
344.07	6.100
344.28	7.704
344.49	7.718
344.70	8.632
344.90	6.840
345.11	7.377
345.32	6.413
345.53	7.292
345.73	7.232
345.94	7.992
346.15	7.822
346.36	5.628
346.56	6.802
346.77	6.580
346.98	7.741
347.19	7.721
347.39	5.573
347.60	7.028
347.81	6.380
348.02	9.047
348.22	6.566
348.43	7.078
348.64	7.100
348.84	6.020
349.05	6.890
349.26	7.547
349.47	6.241
349.67	7.606
349.88	8.369
350.09	7.594
350.30	8.351
350.50	6.944
350.71	6.916
350.92	7.420
351.12	6.837
351.33	7.080
351.54	6.649
351.74	6.364
351.95	6.199
352.16	6.965
352.37	8.022
352.57	7.474
352.78	7.892
352.99	7.364
353.19	7.212
353.40	7.127
353.61	7.494
353.82	8.590
354.02	8.061
354.23	7.350
354.44	7.929
354.64	6.920
354.85	7.126
355.06	6.502
355.26	6.392
355.47	7.050
355.68	9.042
355.88	7.070
356.09	6.014
356.30	5.747
356.51	6.847
356.71	6.004
356.92	5.028
357.13	6.552
357.33	7.859
357.54	6.821
357.75	6.083
357.95	7.045
358.16	5.110
358.37	7.038
358.57	5.741
358.78	6.110
358.99	6.009
359.19	6.831
359.40	7.759
359.61	6.700
359.81	6.916
360.02	7.415
360.23	6.716
360.43	6.480
360.64	5.489
360.85	6.353
361.05	5.916
361.26	6.868
361.47	6.682
361.67	6.942
361.88	5.245
362.09	6.095
362.29	5.227
362.50	5.715
362.70	5.151
362.91	6.552
363.12	5.233
363.32	5.614
363.53	6.092
363.74	6.676
363.94	5.181
364.15	7.251
364.36	7.124
364.56	5.890
364.77	8.358
364.98	8.924
365.18	7.360
365.39	8.697
365.59	6.409
365.80	6.891
366.01	7.900
366.21	7.430
366.42	7.298
366.63	7.374
366.83	6.557
367.04	6.173
367.24	7.926
367.45	5.643
367.66	6.058
367.86	7.805
368.07	6.654
368.28	7.297
368.48	7.593
368.69	6.478
368.89	7.860
369.10	7.173
369.31	7.798
369.51	8.238
369.72	8.646
369.92	9.595
370.13	6.586
370.34	7.720
370.54	6.269
370.75	7.325
370.95	7.422
371.16	7.709
371.37	6.903
371.57	6.916
371.78	7.293
371.98	7.605
372.19	7.519
372.40	7.798
372.60	8.152
372.81	6.999
373.01	6.424
373.22	6.565
373.43	8.651
373.63	7.946
373.84	8.498
374.04	7.461
374.25	7.916
374.46	7.790
374.66	8.123
374.87	8.405
375.07	7.580
375.28	6.887
375.48	7.472
375.69	8.241
375.90	6.330
376.10	6.498
376.31	6.992
376.51	7.216
376.72	7.266
376.92	6.442
377.13	7.160
377.34	8.444
377.54	7.806
377.75	8.742
377.95	7.382
378.16	9.090
378.36	8.811
378.57	8.172
378.77	7.299
378.98	7.374
379.19	7.632
379.39	6.957
379.60	8.527
379.80	8.286
380.01	8.510
380.21	8.029
380.42	9.156
380.62	7.346
380.83	8.439
381.04	7.893
381.24	9.370
381.45	7.575
381.65	7.036
381.86	8.884
382.06	9.386
382.27	7.713
382.47	7.712
382.68	9.645
382.88	8.424
383.09	8.237
383.29	8.644
383.50	9.186
383.71	8.181
383.91	8.727
384.12	8.204
384.32	9.104
384.53	7.726
384.73	7.435
384.94	7.395
385.14	8.648
385.35	7.404
385.55	9.476
385.76	8.651
385.96	9.061
386.17	8.493
386.37	9.430
386.58	9.193
386.78	10.858
386.99	8.511
387.19	10.276
387.40	8.581
387.60	10.339
387.81	9.445
388.01	9.239
388.22	10.018
388.42	11.115
388.63	11.151
388.83	11.684
389.04	8.796
389.24	10.013
389.45	9.804
389.65	10.243
389.86	10.241
390.06	10.595
390.27	9.039
390.47	9.865
390.68	9.655
390.88	11.930
391.09	10.982
391.29	11.371
391.50	10.759
391.70	11.435
391.91	9.749
392.11	11.366
392.32	11.300
392.52	11.552
392.73	10.996
392.93	11.057
393.14	11.082
393.34	10.704
393.55	12.173
393.75	11.131
393.95	10.830
394.16	12.527
394.36	12.718
394.57	12.733
394.77	11.782
394.98	12.095
395.18	12.465
395.39	12.107
395.59	12.545
395.80	12.323
396.00	12.310
396.21	13.326
396.41	11.907
396.61	13.335
396.82	13.220
397.02	14.391
397.23	13.312
397.43	13.457
397.64	11.761
397.84	14.130
398.05	10.572
398.25	13.824
398.45	12.403
398.66	14.013
398.86	12.700
399.07	14.352
399.27	12.544
399.48	14.090
399.68	12.283
399.89	13.259
400.09	13.572
400.29	12.964
400.50	13.233
400.70	14.463
400.91	13.447
401.11	13.037
401.32	13.693
401.52	12.801
401.72	12.667
401.93	14.824
402.13	13.173
402.34	13.076
402.54	12.226
402.75	15.502
402.95	11.535
403.15	14.358
403.36	12.162
403.56	13.613
403.77	12.297
403.97	13.818
404.17	12.683
404.38	13.817
404.58	12.318
404.79	13.960
404.99	13.291
405.19	12.666
405.40	13.081
405.60	13.643
405.81	12.750
406.01	13.674
406.21	12.823
406.42	13.688
406.62	13.059
406.83	14.296
407.03	13.324
407.23	13.364
407.44	13.038
407.64	13.811
407.85	13.122
408.05	13.478
408.25	13.526
408.46	14.765
408.66	13.913
408.87	13.571
409.07	13.085
409.27	13.047
409.48	13.167
409.68	13.912
409.88	11.304
410.09	13.802
410.29	12.729
410.50	14.751
410.70	12.090
410.90	12.879
411.11	12.262
411.31	13.151
411.51	13.657
411.72	13.769
411.92	12.076
412.12	13.072
412.33	12.734
412.53	13.071
412.74	11.761
412.94	13.478
413.14	13.196
413.35	13.329
413.55	13.278
413.75	14.306
413.96	12.617
414.16	13.016
414.36	12.643
414.57	13.211
414.77	11.871
414.97	13.468
415.18	12.232
415.38	12.631
415.58	12.575
415.79	12.416
415.99	11.788
416.19	12.492
416.40	12.822
416.60	12.921
416.80	11.895
417.01	12.716
417.21	11.345
417.41	13.046
417.62	12.411
417.82	12.546
418.02	11.941
418.23	12.813
418.43	11.778
418.63	12.942
418.84	12.612
419.04	12.577
419.24	12.626
419.45	12.904
419.65	12.666
419.85	12.658
420.06	12.644
420.26	12.609
420.46	12.380
420.67	12.918
420.87	12.376
421.07	12.718
421.28	12.432
421.48	12.383
421.68	12.520
421.88	12.423
422.09	12.582
422.29	12.444
422.49	12.307
422.70	12.994
422.90	12.710
423.10	12.591
423.31	12.956
423.51	13.103
423.71	12.490
423.91	12.470
424.12	12.445
424.32	12.837
424.52	12.294
424.73	12.031
424.93	12.353
425.13	12.451
425.33	12.091
425.54	12.554
425.74	12.313
425.94	12.818
426.15	12.370
426.35	12.707
426.55	12.995
426.75	12.538
426.96	12.718
427.16	12.807
427.36	13.114
427.57	13.050
427.77	12.586
427.97	13.021
428.17	13.034
428.38	13.283
428.58	12.180
428.78	13.449
428.98	12.211
429.19	12.374
429.39	11.705
429.59	13.038
429.79	11.296
430.00	11.859
430.20	11.600
430.40	12.782
430.60	12.226
430.81	12.262
431.01	11.734
431.21	13.317
431.41	12.120
431.62	12.102
431.82	12.505
432.02	13.102
432.22	11.631
432.43	12.040
432.63	12.061
432.83	12.533
433.03	11.996
433.24	11.957
433.44	12.213
433.64	12.668
433.84	12.101
434.05	12.683
434.25	12.234
434.45	12.977
434.65	13.226
434.85	13.445
435.06	12.909
435.26	13.151
435.46	13.133
435.66	13.640
435.87	13.002
436.07	13.414
436.27	13.572
436.47	13.607
436.67	13.051
436.88	13.766
437.08	13.182
437.28	13.524
437.48	13.562
437.69	13.952
437.89	12.708
438.09	13.307
438.29	13.032
438.49	13.661
438.70	13.236
438.90	13.241
439.10	12.853
439.30	13.608
439.50	12.939
439.71	13.378
439.91	13.482
440.11	13.818
440.31	13.429
440.51	13.497
440.72	13.364
440.92	13.380
441.12	13.707
441.32	13.821
441.52	13.958
441.72	13.924
441.93	13.683
442.13	13.941
442.33	14.204
442.53	14.669
442.73	14.024
442.94	14.360
443.14	14.506
443.34	14.502
443.54	14.228
443.74	14.820
443.94	14.076
444.15	13.952
444.35	13.850
444.55	14.286
444.75	13.812
444.95	14.541
445.15	13.976
445.36	14.122
445.56	13.831
445.76	13.820
445.96	13.091
446.16	13.453
446.36	13.475
446.57	14.240
446.77	13.704
446.97	13.822
447.17	13.985
447.37	14.249
447.57	14.180
447.77	14.408
447.98	14.212
448.18	14.350
448.38	14.280
448.58	14.488
448.78	14.998
448.98	14.625
449.18	14.220
449.39	14.903
449.59	14.407
449.79	15.289
449.99	14.913
450.19	15.156
450.39	14.635
450.59	14.741
450.79	14.552
451.00	15.148
451.20	16.328
451.40	14.872
451.60	14.361
451.80	15.193
452.00	14.775
452.20	14.434
452.40	14.803
452.61	15.115
452.81	14.523
453.01	14.999
453.21	14.116
453.41	14.738
453.61	14.465
453.81	14.755
454.01	15.070
454.21	14.798
454.42	15.397
454.62	15.317
454.82	14.951
455.02	15.417
455.22	14.726
455.42	15.016
455.62	14.309
455.82	15.111
456.02	15.017
456.23	14.729
456.43	15.148
456.63	15.080
456.83	14.194
457.03	15.123
457.23	14.577
457.43	14.975
457.63	14.935
457.83	15.095
458.03	14.130
458.23	14.639
458.43	14.320
458.64	14.431
458.84	14.556
459.04	14.786
459.24	14.195
459.44	14.064
459.64	14.058
459.84	14.012
460.04	13.821
460.24	14.227
460.44	14.558
460.64	14.437
460.84	14.589
461.04	14.521
461.24	14.668
461.45	15.109
461.65	15.122
461.85	15.220
462.05	15.481
462.25	15.491
462.45	15.578
462.65	15.453
462.85	15.380
463.05	15.738
463.25	14.917
463.45	16.070
463.65	15.200
463.85	15.368
464.05	15.199
464.25	15.273
464.45	15.652
464.65	15.513
464.85	15.243
465.05	15.163
465.26	15.103
465.46	15.516
465.66	15.330
465.86	15.475
466.06	15.226
466.26	14.763
466.46	14.782
466.66	15.247
466.86	15.236
467.06	15.286
467.26	14.985
467.46	15.696
467.66	15.044
467.86	15.247
468.06	14.963
468.26	14.959
468.46	15.627
468.66	15.414
468.86	14.776
469.06	15.945
469.26	15.190
469.46	15.660
469.66	15.244
469.86	15.603
470.06	15.157
470.26	15.660
470.46	15.123
470.66	15.695
470.86	14.405
471.06	15.476
471.26	14.892
471.46	15.716
471.66	15.725
471.86	15.475
472.06	15.546
472.26	16.044
472.46	15.406
472.66	15.996
472.86	14.913
473.06	15.343
473.26	15.636
473.46	15.244
473.66	15.157
473.86	15.566
474.06	15.219
474.26	16.082
474.46	14.848
474.66	15.713
474.86	15.690
475.06	16.269
475.26	15.406
475.46	15.901
475.66	15.659
475.86	15.814
476.06	16.393
476.26	16.030
476.46	15.663
476.66	15.748
476.86	15.384
477.06	15.525
477.26	15.581
477.46	15.671
477.65	16.000
477.85	16.014
478.05	15.247
478.25	15.845
478.45	15.878
478.65	15.853
478.85	15.560
479.05	15.854
479.25	16.047
479.45	16.172
479.65	15.601
479.85	16.017
480.05	15.593
480.25	16.071
480.45	16.195
480.65	15.831
480.85	15.897
481.05	15.568
481.25	15.868
481.44	15.761
481.64	15.182
481.84	15.462
482.04	15.623
482.24	15.274
482.44	14.988
482.64	15.155
482.84	15.075
483.04	14.858
483.24	14.334
483.44	14.173
483.64	13.853
483.84	13.826
484.04	14.026
484.23	14.417
484.43	14.753
484.63	15.273
484.83	15.937
485.03	16.662
485.23	16.558
485.43	16.391
485.63	16.301
485.83	16.350
486.03	16.593
486.23	16.516
486.42	16.163
486.62	15.965
486.82	15.745
487.02	15.200
487.22	15.194
487.42	15.046
487.62	14.862
487.82	14.568
488.02	14.729
488.22	14.830
488.41	15.159
488.61	14.978
488.81	15.258
489.01	15.612
489.21	15.678
489.41	15.920
489.61	15.746
489.81	16.107
490.01	16.048
490.20	16.047
490.40	16.268
490.60	16.146
490.80	15.570
491.00	15.638
491.20	15.187
491.40	15.014
491.60	14.631
491.79	14.693
491.99	14.955
492.19	14.834
492.39	15.050
492.59	15.022
492.79	15.319
492.99	15.330
493.19	15.473
493.38	16.079
493.58	16.148
493.78	16.045
493.98	16.772
494.18	16.439
494.38	16.339
494.58	16.265
494.77	15.950
494.97	16.366
495.17	16.152
495.37	16.033
495.57	16.495
495.77	16.036
495.96	15.873
496.16	16.051
496.36	15.521
496.56	15.556
496.76	15.561
496.96	15.393
497.15	15.290
497.35	15.245
497.55	15.473
497.75	15.702
497.95	15.587
498.15	15.763
498.34	15.881
498.54	15.564
498.74	16.276
498.94	16.021
499.14	16.112
499.34	15.937
499.53	15.935
499.73	15.806
499.93	16.207
500.13	15.887
500.33	15.590
500.52	16.065
500.72	15.894
500.92	15.828
501.12	15.775
501.32	16.084
501.52	16.150
501.71	15.870
501.91	16.209
502.11	16.371
502.31	15.632
502.51	15.858
502.70	15.586
502.90	16.195
503.10	15.778
503.30	15.741
503.50	15.663
503.69	15.971
503.89	16.204
504.09	15.924
504.29	15.823
504.48	15.846
504.68	15.958
504.88	16.112
505.08	15.704
505.28	15.965
505.47	15.510
505.67	16.288
505.87	16.035
506.07	15.981
506.27	15.715
506.46	16.291
506.66	15.568
506.86	16.062
507.06	16.335
507.25	16.138
507.45	15.712
507.65	16.234
507.85	16.106
508.04	16.145
508.24	15.644
508.44	15.981
508.64	15.605
508.83	16.180
509.03	15.733
509.23	15.563
509.43	15.830
509.63	15.968
509.82	15.984
510.02	15.945
510.22	15.953
510.42	16.109
510.61	16.206
510.81	15.781
511.01	16.335
511.21	16.094
511.40	16.310
511.60	15.941
511.80	16.340
511.99	15.921
512.19	16.048
512.39	16.028
512.59	16.177
512.78	16.369
512.98	16.468
513.18	16.584
513.38	16.519
513.57	16.421
513.77	16.459
513.97	16.570
514.17	16.588
514.36	16.890
514.56	16.698
514.76	17.191
514.95	16.854
515.15	17.059
515.35	16.795
515.55	17.137
515.74	16.782
515.94	16.548
516.14	16.534
516.33	16.884
516.53	17.198
516.73	16.957
516.93	16.958
517.12	17.106
517.32	16.696
517.52	16.876
517.71	16.696
517.91	16.593
518.11	16.513
518.30	16.676
518.50	16.286
518.70	16.575
518.90	16.560
519.09	16.623
519.29	17.061
519.49	16.767
519.68	16.870
519.88	16.951
520.08	17.083
520.27	17.159
520.47	17.887
520.67	17.280
520.86	17.875
521.06	17.835
521.26	17.651
521.45	17.894
521.65	17.731
521.85	17.789
522.04	17.803
522.24	17.662
522.44	17.656
522.63	17.894
522.83	17.653
523.03	17.703
523.22	17.805
523.42	18.219
523.62	18.029
523.81	17.651
524.01	17.975
524.21	18.002
524.40	17.625
524.60	17.743
524.80	17.392
524.99	17.446
525.19	17.444
525.39	17.180
525.58	17.030
525.78	16.894
525.98	17.397
526.17	17.191
526.37	17.323
526.57	17.356
526.76	17.464
526.96	17.149
527.15	17.363
527.35	17.321
527.55	17.431
527.74	17.343
527.94	16.989
528.14	16.477
528.33	16.296
528.53	16.306
528.72	16.440
528.92	16.779
529.12	16.874
529.31	16.989
529.51	17.305
529.71	17.317
529.90	17.597
530.10	17.617
530.29	18.180
530.49	18.425
530.69	18.667
530.88	18.433
531.08	18.277
531.28	18.196
531.47	18.161
531.67	17.888
531.86	17.711
532.06	17.709
532.26	17.795
532.45	17.481
532.65	17.405
532.84	17.032
533.04	16.910
533.24	16.518
533.43	16.864
533.63	17.351
533.82	17.310
534.02	17.404
534.22	17.348
534.41	17.721
534.61	17.803
534.80	17.829
535.00	18.103
535.19	18.308
535.39	18.682
535.59	18.381
535.78	18.027
535.98	18.199
536.17	17.956
536.37	17.721
536.57	17.477
536.76	17.528
536.96	17.520
537.15	17.763
537.35	17.504
537.54	17.473
537.74	17.889
537.93	17.794
538.13	17.922
538.33	18.180
538.52	18.677
538.72	18.486
538.91	18.520
539.11	18.241
539.30	18.487
539.50	18.367
539.70	18.206
539.89	18.037
540.09	18.077
540.28	17.933
540.48	17.720
540.67	17.483
540.87	16.873
541.06	16.927
541.26	17.023
541.45	17.055
541.65	16.938
541.85	17.339
542.04	17.190
542.24	17.879
542.43	17.420
542.63	17.843
542.82	17.734
543.02	17.818
543.21	18.076
543.41	18.499
543.60	18.450
543.80	18.741
543.99	18.455
544.19	18.201
544.38	18.529
544.58	18.014
544.77	18.118
544.97	18.557
545.16	18.469
545.36	18.428
545.56	18.278
545.75	18.234
545.95	18.232
546.14	18.169
546.34	18.091
546.53	17.818
546.73	18.241
546.92	18.060
547.12	18.168
547.31	18.212
547.51	18.300
547.70	18.683
547.90	18.464
548.09	18.484
548.29	18.813
548.48	18.531
548.68	18.985
548.87	19.497
549.07	18.611
549.26	18.957
549.46	19.488
549.65	19.212
549.84	19.620
550.04	19.201
550.23	18.838
550.43	19.625
550.62	19.142
550.82	18.913
551.01	18.603
551.21	18.858
551.40	19.464
551.60	18.985
551.79	19.098
551.99	19.136
552.18	18.871
552.38	19.077
552.57	18.562
552.77	19.054
552.96	19.306
553.16	18.885
553.35	19.537
553.54	19.562
553.74	18.861
553.93	19.465
554.13	19.523
554.32	19.501
554.52	19.692
554.71	19.594
554.91	19.614
555.10	19.959
555.29	19.859
555.49	19.801
555.68	19.580
555.88	19.373
556.07	19.127
556.27	20.202
556.46	19.583
556.66	19.688
556.85	19.794
557.04	19.695
557.24	18.995
557.43	19.484
557.63	19.960
557.82	19.294
558.02	19.910
558.21	20.283
558.40	19.756
558.60	20.069
558.79	20.084
558.99	20.221
559.18	19.857
559.38	20.214
559.57	20.140
559.76	19.731
559.96	20.376
560.15	20.405
560.35	19.622
560.54	19.742
560.73	19.564
560.93	20.094
561.12	19.417
561.32	19.936
561.51	20.558
561.70	20.161
561.90	19.456
562.09	19.810
562.29	20.050
562.48	20.210
562.67	20.491
562.87	20.384
563.06	19.862
563.26	21.023
563.45	20.439
563.64	20.616
563.84	20.489
564.03	20.652
564.23	20.096
564.42	20.586
564.61	20.104
564.81	20.679
565.00	20.097
565.20	20.400
565.39	20.277
565.58	20.231
565.78	20.116
565.97	20.159
566.16	20.772
566.36	20.223
566.55	20.255
566.74	20.298
566.94	19.874
567.13	20.595
567.33	20.022
567.52	20.512
567.71	20.272
567.91	20.514
568.10	20.877
568.29	21.192
568.49	20.515
568.68	21.042
568.87	20.765
569.07	20.913
569.26	20.884
569.45	20.670
569.65	20.662
569.84	20.348
570.04	20.176
570.23	20.892
570.42	20.154
570.62	20.822
570.81	20.529
571.00	20.682
571.20	20.346
571.39	20.785
571.58	20.588
571.78	20.526
571.97	20.488
572.16	20.230
572.36	20.578
572.55	20.680
572.74	20.332
572.94	20.086
573.13	20.623
573.32	20.603
573.51	20.545
573.71	20.632
573.90	20.856
574.09	20.636
574.29	20.991
574.48	21.003
574.67	20.825
574.87	20.688
575.06	20.231
575.25	20.450
575.45	20.269
575.64	20.985
575.83	20.553
576.03	21.523
576.22	21.024
576.41	20.635
576.60	20.456
576.80	21.012
576.99	21.045
577.18	21.288
577.38	20.639
577.57	21.112
577.76	21.872
577.95	21.609
578.15	20.834
578.34	20.925
578.53	20.852
578.73	20.957
578.92	20.131
579.11	21.530
579.30	21.388
579.50	21.403
579.69	20.659
579.88	21.173
580.08	20.744
580.27	21.092
580.46	21.257
580.65	20.934
580.85	21.671
581.04	21.086
581.23	20.605
581.42	20.739
581.62	20.538
581.81	21.242
582.00	21.231
582.19	20.956
582.39	21.427
582.58	21.338
582.77	21.680
582.96	21.583
583.16	20.478
583.35	21.748
583.54	21.023
583.73	21.188
583.93	20.861
584.12	20.337
584.31	20.568
584.50	21.089
584.70	20.945
584.89	21.521
585.08	21.201
585.27	21.822
585.47	20.903
585.66	21.327
585.85	20.923
586.04	21.341
586.24	21.399
586.43	20.380
586.62	20.922
586.81	21.074
587.00	20.200
587.20	21.127
587.39	20.674
587.58	21.603
587.77	20.967
587.97	20.399
588.16	20.674
588.35	21.623
588.54	21.187
588.73	20.823
588.93	21.230
589.12	21.059
589.31	20.598
589.50	20.643
589.69	21.028
589.89	21.060
590.08	20.422
590.27	21.073
590.46	21.364
590.65	21.173
590.85	20.089
591.04	21.411
591.23	20.836
591.42	21.324
591.61	20.997
591.81	21.121
592.00	21.311
592.19	21.206
592.38	21.231
592.57	21.042
592.77	20.811
592.96	21.121
593.15	21.541
593.34	21.354
593.53	21.038
593.72	21.505
593.92	20.864
594.11	22.000
594.30	20.559
594.49	21.654
594.68	21.371
594.87	21.266
595.07	20.743
595.26	21.341
595.45	20.868
595.64	21.526
595.83	21.177
596.02	21.287
596.22	21.338
596.41	20.677
596.60	20.998
596.79	21.373
596.98	20.966
597.17	21.128
597.37	21.322
597.56	21.232
597.75	21.001
597.94	21.525
598.13	21.242
598.32	21.480
598.51	21.706
598.71	21.975
598.90	21.512
599.09	21.837
599.28	21.680
599.47	22.502
599.66	21.979
599.85	22.179
600.05	21.753
600.24	22.547
600.43	22.147
600.62	21.790
600.81	21.941
601.00	22.309
601.19	21.181
601.38	22.472
601.58	22.399
601.77	22.066
601.96	21.015
602.15	22.516
602.34	22.334
602.53	22.540
602.72	21.404
602.91	22.050
603.10	21.154
603.30	21.813
603.49	21.827
603.68	21.886
603.87	21.402
604.06	21.779
604.25	21.369
604.44	21.683
604.63	21.716
604.82	21.928
605.01	21.966
605.21	22.098
605.40	21.653
605.59	22.007
605.78	22.332
605.97	22.017
606.16	22.435
606.35	21.786
606.54	22.142
606.73	23.438
606.92	22.815
607.11	22.943
607.30	22.740
607.50	22.493
607.69	22.198
607.88	22.144
608.07	22.230
608.26	22.780
608.45	22.988
608.64	22.768
608.83	21.831
609.02	22.233
609.21	21.661
609.40	22.437
609.59	22.654
609.78	21.761
609.97	21.969
610.16	22.631
610.35	22.253
610.55	22.105
610.74	22.439
610.93	23.247
611.12	22.612
611.31	22.471
611.50	22.595
611.69	22.672
611.88	22.160
612.07	23.582
612.26	22.165
612.45	23.589
612.64	22.178
612.83	22.684
613.02	22.144
613.21	22.423
613.40	22.458
613.59	23.398
613.78	22.341
613.97	22.810
614.16	22.681
614.35	23.610
614.54	22.334
614.73	21.834
614.92	22.351
615.11	23.055
615.30	23.260
615.49	21.978
615.68	22.642
615.87	23.735
616.07	22.668
616.26	22.012
616.45	22.752
616.64	21.485
616.83	21.795
617.02	22.663
617.21	21.766
617.40	21.780
617.59	22.940
617.78	22.205
617.97	21.885
618.16	23.102
618.35	20.734
618.54	22.093
618.73	22.117
618.92	22.033
619.11	21.224
619.30	22.086
619.49	20.353
619.68	22.240
619.86	21.940
620.05	22.777
620.24	21.057
620.43	23.209
620.62	21.237
620.81	21.976
621.00	22.835
621.19	21.906
621.38	22.020
621.57	22.422
621.76	21.269
621.95	22.726
622.14	21.897
622.33	22.585
622.52	21.123
622.71	21.867
622.90	21.036
623.09	22.225
623.28	21.896
623.47	22.781
623.66	21.688
623.85	21.958
624.04	21.753
624.23	22.002
624.42	20.822
624.61	21.970
624.80	20.815
624.99	21.133
625.18	21.420
625.36	22.454
625.55	21.938
625.74	21.876
625.93	21.090
626.12	21.663
626.31	21.883
626.50	22.041
626.69	21.327
626.88	22.141
627.07	22.286
627.26	21.326
627.45	21.609
627.64	21.204
627.83	21.106
628.02	21.200
628.20	21.632
628.39	21.677
628.58	22.044
628.77	21.580
628.96	21.304
629.15	22.115
629.34	21.325
629.53	21.099
629.72	21.746
629.91	22.243
630.10	21.978
630.29	22.897
630.47	21.745
630.66	22.456
630.85	21.832
631.04	22.273
631.23	22.282
631.42	21.903
631.61	22.290
631.80	22.133
631.99	22.294
632.18	22.502
632.36	22.008
632.55	22.795
632.74	21.630
632.93	20.741
633.12	21.656
633.31	22.360
633.50	21.157
633.69	21.860
633.88	20.456
634.06	22.118
634.25	21.563
634.44	21.989
634.63	21.239
634.82	21.787
635.01	21.839
635.20	21.841
635.39	22.390
635.57	22.723
635.76	21.818
635.95	21.912
636.14	21.971
636.33	20.931
636.52	21.960
636.71	21.448
636.89	21.804
637.08	22.384
637.27	20.953
637.46	21.087
637.65	21.329
637.84	21.658
638.03	20.978
638.21	21.688
638.40	21.784
638.59	20.873
638.78	21.684
638.97	22.235
639.16	21.848
639.34	21.637
639.53	20.418
639.72	22.232
639.91	21.120
640.10	20.810
640.29	22.378
640.47	22.600
640.66	20.826
640.85	22.349
641.04	20.284
641.23	21.696
641.42	21.229
641.60	20.572
641.79	21.879
641.98	21.627
642.17	20.046
642.36	21.297
642.54	20.340
642.73	21.292
642.92	20.534
643.11	21.585
643.30	20.815
643.49	20.918
643.67	19.555
643.86	20.415
644.05	20.552
644.24	22.208
644.43	21.683
644.61	20.603
644.80	21.464
644.99	21.194
645.18	21.452
645.37	21.427
645.55	20.097
645.74	21.536
645.93	21.050
646.12	21.856
646.31	20.902
646.49	20.849
646.68	20.731
646.87	21.561
647.06	20.624
647.24	20.798
647.43	20.299
647.62	22.370
647.81	20.475
648.00	21.316
648.18	19.174
648.37	21.009
648.56	20.866
648.75	20.112
648.93	20.951
649.12	22.026
649.31	20.346
649.50	20.219
649.68	20.971
649.87	20.939
650.06	19.976
650.25	21.524
650.43	19.980
650.62	20.263
650.81	20.224
651.00	21.343
651.18	19.584
651.37	21.209
651.56	19.355
651.75	22.021
651.93	20.009
652.12	21.909
652.31	18.743
652.50	20.664
652.68	20.853
652.87	21.144
653.06	20.797
653.25	21.935
653.43	20.020
653.62	21.622
653.81	20.243
654.00	21.494
654.18	20.407
654.37	21.712
654.56	19.890
654.74	20.450
654.93	20.174
655.12	20.629
655.31	20.839
655.49	22.169
655.68	19.145
655.87	19.180
656.05	18.483
656.24	21.081
656.43	18.816
656.62	21.049
656.80	19.860
656.99	19.748
657.18	18.150
657.36	19.921
657.55	20.161
657.74	19.889
657.93	20.390
658.11	21.824
658.30	20.684
658.49	19.158
658.67	19.090
658.86	18.666
659.05	18.173
659.23	19.953
659.42	19.170
659.61	19.820
659.79	19.427
659.98	19.842
660.17	20.833
660.35	20.214
660.54	20.737
660.73	20.691
660.91	19.422
661.10	20.362
661.29	18.707
661.47	20.187
661.66	19.155
661.85	19.415
662.03	19.220
662.22	17.908
662.41	17.684
662.59	19.450
662.78	17.669
662.97	19.208
663.15	17.393
663.34	17.910
663.53	17.172
663.71	18.288
663.90	17.055
664.09	18.864
664.27	17.529
664.46	17.741
664.65	16.288
664.83	17.704
665.02	16.708
665.21	17.063
665.39	15.682
665.58	18.958
665.77	17.246
665.95	18.616
666.14	16.676
666.32	18.034
666.51	16.401
666.70	16.350
666.88	15.762
667.07	16.947
667.26	14.885
667.44	18.254
667.63	16.593
667.81	16.619
668.00	15.531
668.19	19.778
668.37	17.460
668.56	18.767
668.75	14.859
668.93	18.627
669.12	15.135
669.30	17.625
669.49	15.174
669.68	17.326
669.86	17.100
670.05	16.624
670.23	15.603
670.42	16.003
670.61	17.531
670.79	18.465
670.98	16.733
671.16	18.263
671.35	15.967
671.54	16.579
671.72	16.246
671.91	16.752
672.09	16.014
672.28	17.060
672.46	17.659
672.65	17.789
672.84	16.809
673.02	18.301
673.21	14.879
673.39	15.728
673.58	17.116
673.77	16.309
673.95	15.629
674.14	17.008
674.32	15.222
674.51	17.908
674.69	15.291
674.88	17.254
675.07	16.404
675.25	18.876
675.44	16.624
675.62	16.345
675.81	15.080
675.99	19.811
676.18	17.594
676.36	16.040
676.55	16.577
676.74	18.618
676.92	17.077
677.11	17.505
677.29	16.182
677.48	17.874
677.66	16.712
677.85	16.362
678.03	16.907
678.22	17.346
678.40	15.729
678.59	15.440
678.78	15.522
678.96	16.421
679.15	16.402
679.33	18.452
679.52	18.271
679.70	17.356
679.89	17.335
680.07	17.939
680.26	15.026
680.44	17.024
680.63	16.677
680.81	17.827
681.00	15.637
681.18	17.552
681.37	17.082
681.55	18.653
681.74	18.247
681.92	18.105
682.11	18.409
682.29	17.644
682.48	16.600
682.66	17.953
682.85	17.971
683.03	18.192
683.22	18.833
683.40	19.930
683.59	18.524
683.77	19.615
683.96	17.271
684.14	19.366
684.33	15.936
684.51	21.203
684.70	18.701
684.88	19.952
685.07	17.902
685.25	20.194
685.44	17.546
685.62	18.270
685.81	16.921
685.99	20.428
686.18	16.662
686.36	19.864
686.55	17.625
686.73	18.373
686.92	19.081
687.10	20.540
687.29	21.609
687.47	20.409
687.65	20.500
687.84	18.476
688.02	21.809
688.21	22.514
688.39	19.599
688.58	20.822
688.76	19.631
688.95	20.243
689.13	18.192
689.32	21.774
689.50	20.873
689.68	21.569
689.87	19.660
690.05	21.866
690.24	22.918
690.42	21.591
690.61	22.751
690.79	22.023
690.98	21.570
691.16	21.739
691.34	19.405
691.53	22.198
691.71	20.940
691.90	22.481
692.08	19.414
692.27	23.179
692.45	25.003
692.63	21.224
692.82	23.788
693.00	21.662
693.19	20.281
693.37	23.952
693.56	21.361
693.74	23.621
693.92	21.286
694.11	23.658
694.29	23.588
694.48	23.875
694.66	22.329
694.84	24.160
695.03	21.130
695.21	24.404
695.40	24.373
695.58	26.001
695.76	22.087
695.95	23.876
696.13	21.383
696.32	24.861
696.50	29.932
696.68	23.156
696.87	23.577
697.05	26.248
697.24	24.383
697.42	26.249
697.60	23.930
697.79	24.699
697.97	25.041
698.16	27.217
698.34	23.900
698.52	26.244
698.71	24.643
698.89	25.390
699.07	25.015
699.26	25.320
699.44	25.665
699.63	26.129
699.81	25.421
699.99	26.694
700.18	26.901
700.36	27.279
700.54	27.168
700.73	26.364
700.91	26.033
701.09	27.574
701.28	27.043
701.46	28.124
701.64	25.347
701.83	26.234
702.01	25.078
702.20	30.047
702.38	27.839
702.56	26.282
702.75	26.456
702.93	25.584
703.11	25.523
703.30	27.449
703.48	26.257
703.66	28.058
703.85	26.726
704.03	29.649
704.21	25.901
704.40	30.253
704.58	25.321
704.76	29.099
704.95	25.503
705.13	28.653
705.31	27.526
705.50	29.002
705.68	25.351
705.86	28.204
706.04	26.746
706.23	29.630
706.41	27.214
706.59	28.667
706.78	27.366
706.96	27.689
707.14	27.891
707.33	28.423
707.51	28.243
707.69	27.609
707.88	26.298
708.06	30.209
708.24	27.746
708.42	27.789
708.61	26.350
708.79	28.984
708.97	28.427
709.16	28.274
709.34	30.208
709.52	28.648
709.71	28.079
709.89	28.960
710.07	25.885
710.25	30.604
710.44	27.289
710.62	27.919
710.80	29.887
710.98	30.456
711.17	27.863
711.35	29.935
711.53	26.564
711.72	28.969
711.90	31.071
712.08	29.947
712.26	25.802
712.45	27.795
712.63	28.717
712.81	30.947
712.99	29.042
713.18	30.277
713.36	29.498
713.54	27.893
713.72	27.587
713.91	27.865
714.09	26.322
714.27	29.641
714.45	28.192
714.64	31.291
714.82	27.240
715.00	28.747
715.18	28.738
715.37	29.637
715.55	27.879
715.73	29.962
715.91	30.585
716.10	28.300
716.28	26.239
716.46	30.995
716.64	26.926
716.83	29.393
717.01	26.871
717.19	29.518
717.37	28.353
717.55	29.947
717.74	28.004
717.92	29.417
718.10	25.927
718.28	28.696
718.47	25.258
718.65	29.913
718.83	29.250
719.01	31.709
719.19	27.980
719.38	28.041
719.56	28.533
719.74	27.239
719.92	23.085
720.10	25.097
720.29	26.593
720.47	29.210
720.65	27.912
720.83	31.455
721.01	24.628
721.20	26.706
721.38	27.817
721.56	26.154
721.74	28.720
721.92	28.536
722.11	26.363
722.29	28.904
722.47	26.539
722.65	29.866
722.83	27.702
723.01	27.513
723.20	28.939
723.38	28.269
723.56	25.974
723.74	31.695
723.92	28.051
724.10	29.151
724.29	25.890
724.47	31.314
724.65	26.227
724.83	28.565
725.01	27.019
725.19	30.984
725.38	27.310
725.56	29.047
725.74	28.513
725.92	31.511
726.10	25.958
726.28	26.667
726.46	29.139
726.65	30.132
726.83	26.432
727.01	29.366
727.19	28.983
727.37	27.995
727.55	28.964
727.73	28.622
727.92	28.785
728.10	28.105
728.28	25.733
728.46	30.240
728.64	26.778
728.82	30.365
729.00	28.862
729.19	27.541
729.37	29.586
729.55	30.006
729.73	24.245
729.91	29.510
730.09	30.431
730.27	28.642
730.45	25.750
730.63	28.219
730.82	26.974
731.00	27.486
731.18	26.675
731.36	29.454
731.54	26.135
731.72	28.994
731.90	26.221
732.08	30.043
732.26	24.402
732.45	29.490
732.63	28.688
732.81	29.590
732.99	28.381
733.17	29.818
733.35	26.561
733.53	29.853
733.71	28.069
733.89	28.850
734.07	27.731
734.25	32.782
734.44	28.376
734.62	29.333
734.80	27.440
734.98	31.404
735.16	28.886
735.34	30.216
735.52	29.205
735.70	30.597
735.88	26.135
736.06	30.316
736.24	33.341
736.42	32.830
736.60	30.918
736.78	31.281
736.97	27.677
737.15	34.371
737.33	27.939
737.51	29.877
737.69	31.543
737.87	32.200
738.05	32.479
738.23	32.014
738.41	30.366
738.59	32.107
738.77	27.638
738.95	32.531
739.13	29.981
739.31	30.413
739.49	32.034
739.67	32.404
739.85	29.490
740.03	34.322
740.21	30.663
740.39	31.899
740.57	30.060
740.75	30.484
740.93	32.213
741.11	33.534
741.30	31.789
741.48	31.926
741.66	32.206
741.84	31.188
742.02	28.407
742.20	32.637
742.38	31.889
742.56	35.441
742.74	26.268
742.92	30.990
743.10	29.925
743.28	33.014
743.46	32.555
743.64	31.053
743.82	28.248
744.00	34.003
744.18	30.810
744.36	32.496
744.54	27.768
744.72	36.385
744.90	33.777
745.08	31.832
745.26	31.340
745.44	33.699
745.62	32.624
745.80	30.400
745.98	31.856
746.16	34.241
746.34	32.308
746.52	33.959
746.70	28.882
746.87	28.954
747.05	30.436
747.23	35.579
747.41	31.637
747.59	35.492
747.77	29.738
747.95	30.793
748.13	29.172
748.31	33.779
748.49	31.516
748.67	33.621
748.85	30.706
749.03	33.117
749.21	29.770
749.39	34.639
749.57	29.091
749.75	30.760
749.93	32.547
750.11	31.066
750.29	34.064
750.47	34.479
750.65	32.051
750.83	30.270
751.01	26.585
751.18	31.977
751.36	26.604
751.54	31.233
751.72	31.897
751.90	32.099
752.08	29.683
752.26	29.822
752.44	31.893
752.62	30.525
752.80	30.508
752.98	32.349
753.16	33.830
753.34	32.314
753.52	33.150
753.69	33.323
753.87	33.979
754.05	30.823
754.23	30.203
754.41	33.071
754.59	31.127
754.77	35.733
754.95	31.358
755.13	31.008
755.31	30.582
755.49	31.029
755.66	32.701
755.84	31.736
756.02	28.968
756.20	36.800
756.38	30.813
756.56	31.522
756.74	30.183
756.92	32.513
757.10	28.717
757.28	33.720
757.45	35.990
757.63	33.731
757.81	28.048
757.99	36.461
758.17	29.161
758.35	36.465
758.53	37.019
758.71	34.618
758.88	33.519
759.06	33.241
759.24	27.047
759.42	31.271
759.60	29.160
759.78	30.335
759.96	28.378
760.13	31.019
760.31	27.774
760.49	29.553
760.67	23.971
760.85	27.535
761.03	26.151
761.21	25.155
761.38	24.350
761.56	27.882
761.74	27.221
761.92	30.658
762.10	24.864
762.28	32.221
762.46	22.614
762.63	23.060
762.81	26.558
762.99	23.666
763.17	24.585
763.35	25.850
763.53	22.439
763.70	27.026
763.88	28.743
764.06	28.194
764.24	25.735
764.42	27.648
764.60	26.705
764.77	27.098
764.95	27.137
765.13	26.548
765.31	26.132
765.49	29.860
765.66	25.061
765.84	28.734
766.02	27.287
766.20	28.172
766.38	24.735
766.56	29.981
766.73	25.562
766.91	28.568
767.09	28.575
767.27	30.471
767.45	25.100
767.62	30.406
767.80	27.109
767.98	29.392
768.16	26.660
768.33	30.823
768.51	29.702
768.69	30.568
768.87	31.639
769.05	29.422
769.22	31.584
769.40	34.979
769.58	33.733
769.76	35.942
769.94	32.048
770.11	31.732
770.29	34.386
770.47	33.971
770.65	34.394
770.82	35.055
771.00	32.240
771.18	36.818
771.36	29.830
771.53	31.373
771.71	33.653
771.89	34.181
772.07	35.821
772.25	34.351
772.42	34.692
772.60	35.071
772.78	32.633
772.96	35.531
773.13	37.143
773.31	34.739
773.49	29.213
773.67	33.347
773.84	34.450
774.02	35.657
774.20	31.576
774.37	37.106
774.55	33.898
774.73	35.785
774.91	34.805
775.08	34.379
775.26	34.735
775.44	37.897
775.62	35.398
775.79	34.074
775.97	31.690
776.15	36.083
776.32	26.978
776.50	38.399
776.68	37.329
776.86	38.943
777.03	30.498
777.21	37.812
777.39	32.803
777.56	39.263
777.74	36.364
777.92	38.694
778.10	29.970
778.27	35.160
778.45	38.788
778.63	40.875
778.80	35.876
778.98	36.860
779.16	40.966
779.34	36.252
779.51	35.508
779.69	40.470
779.87	36.907
780.04	35.306
780.22	34.819
780.40	36.621
780.57	37.374
780.75	34.520
780.93	39.209
781.10	38.529
781.28	45.585
781.46	32.399
781.63	38.606
781.81	42.220
781.99	33.118
782.16	35.548
782.34	29.744
782.52	35.194
782.69	37.389
782.87	37.031
783.05	33.333
783.22	33.617
783.40	34.949
783.58	38.405
783.75	32.619
783.93	41.798
784.11	36.383
784.28	39.072
784.46	33.492
784.64	40.815
784.81	36.493
784.99	44.518
785.17	38.681
785.34	35.939
785.52	37.971
785.69	39.020
785.87	34.060
786.05	36.213
786.22	43.261
786.40	44.808
786.58	36.836
786.75	44.379
786.93	42.153
787.11	39.554
787.28	37.844
787.46	38.674
787.63	36.865
787.81	35.486
787.99	37.787
788.16	35.822
788.34	32.074
788.51	33.470
788.69	34.563
788.87	29.735
789.04	36.545
789.22	36.247
789.39	33.949
789.57	31.636
789.75	31.146
789.92	32.409
790.10	32.123
790.27	38.659
790.45	30.288
790.63	38.522
790.80	33.450
790.98	32.749
791.15	33.212
791.33	33.572
791.51	35.944
791.68	36.046
791.86	37.724
792.03	36.153
792.21	35.035
792.39	35.865
792.56	36.988
792.74	38.862
792.91	41.762
793.09	36.487
793.26	34.382
793.44	38.923
793.62	35.161
793.79	40.148
793.97	39.851
794.14	38.326
794.32	39.296
794.49	35.283
794.67	32.353
794.84	36.680
795.02	37.869
795.20	37.347
795.37	34.430
795.55	39.423
795.72	37.174
795.90	34.457
796.07	36.800
796.25	35.367
796.42	33.753
796.60	37.113
796.77	34.961
796.95	33.663
797.13	27.978
797.30	35.573
797.48	33.806
797.65	38.708
797.83	35.906
798.00	34.056
798.18	31.172
798.35	35.116
798.53	35.420
798.70	35.934
798.88	36.606
799.05	37.114
799.23	28.687
799.40	36.565
799.58	40.690
799.75	32.994
799.93	33.911
800.10	36.726
800.28	35.181
800.45	37.744
800.63	35.132
800.80	43.677
800.98	38.840
801.15	35.591
801.33	39.413
801.50	34.139
801.68	36.538
801.85	36.593
802.03	36.246
802.20	36.900
802.38	39.626
802.55	34.303
802.73	40.055
802.90	36.165
803.08	33.728
803.25	41.355
803.43	37.958
803.60	40.106
803.78	43.767
803.95	42.506
804.13	38.189
804.30	41.272
804.48	38.249
804.65	39.583
804.83	40.159
805.00	38.235
805.17	39.267
805.35	36.249
805.52	29.081
805.70	46.288
805.87	41.238
806.05	36.757
806.22	39.474
806.40	34.397
806.57	39.882
806.75	41.284
806.92	44.704
807.09	40.762
807.27	35.883
807.44	38.744
807.62	39.481
807.79	36.292
807.97	36.095
808.14	38.440
808.31	39.911
808.49	38.850
808.66	36.441
808.84	34.181
809.01	41.268
809.19	39.088
809.36	45.412
809.53	40.977
809.71	37.995
809.88	50.932
810.06	44.769
810.23	37.656
810.41	44.881
810.58	43.425
810.75	39.104
810.93	40.104
811.10	38.917
811.28	35.070
811.45	41.711
811.62	41.127
811.80	41.176
811.97	40.382
812.15	50.195
812.32	41.008
812.49	52.322
812.67	37.337
812.84	44.921
813.02	40.194
813.19	40.735
813.36	43.219
813.54	43.091
813.71	42.778
813.89	36.881
814.06	46.071
814.23	46.837
814.41	43.241
814.58	49.221
814.75	47.386
814.93	44.243
815.10	38.052
815.28	39.127
815.45	41.912
815.62	44.346
815.80	43.598
815.97	40.971
816.14	40.772
816.32	43.475
816.49	39.234
816.66	47.950
816.84	40.197
817.01	49.031
817.18	41.111
817.36	39.425
817.53	45.944
817.71	36.787
817.88	39.450
818.05	43.675
818.23	40.809
818.40	42.236
818.57	42.890
818.75	34.871
818.92	38.059
819.09	39.305
819.27	46.773
819.44	44.163
819.61	30.247
819.79	37.294
819.96	43.396
820.13	33.290
820.31	38.306
820.48	32.934
820.65	32.161
820.82	32.512
821.00	36.136
821.17	26.081
821.34	30.715
821.52	31.021
821.69	29.879
821.86	26.357
822.04	27.548
822.21	25.918
822.38	28.652
822.56	24.967
822.73	28.452
822.90	26.633
823.07	29.388
823.25	28.310
823.42	27.239
823.59	26.217
823.77	28.144
823.94	27.348
824.11	27.248
824.29	24.760
824.46	28.258
824.63	28.863
824.80	27.256
824.98	27.273
825.15	29.104
825.32	24.515
825.49	27.090
825.67	28.090
825.84	29.685
826.01	26.387
826.19	28.009
826.36	25.683
826.53	27.960
826.70	24.000
826.88	30.083
827.05	23.562
827.22	26.751
827.39	27.576
827.57	25.033
827.74	22.979
827.91	30.311
828.08	24.708
828.26	27.696
828.43	22.064
828.60	30.068
828.77	26.600
828.95	27.865
829.12	23.040
829.29	23.643
829.46	25.450
829.64	27.572
829.81	26.865
829.98	32.383
830.15	30.806
830.32	31.198
830.50	29.124
830.67	34.740
830.84	32.156
831.01	28.847
831.19	33.671
831.36	36.073
831.53	36.278
831.70	43.992
831.87	38.728
832.05	39.424
832.22	49.140
832.39	30.173
832.56	34.981
832.74	40.344
832.91	36.482
833.08	41.382
833.25	28.762
833.42	36.036
833.60	34.276
833.77	29.093
833.94	29.928
834.11	26.382
834.28	25.703
834.45	29.458
834.63	24.707
834.80	29.865
834.97	29.794
835.14	27.100
835.31	27.008
835.49	25.723
835.66	25.084
835.83	26.558
836.00	26.056
836.17	29.516
836.34	27.176
836.52	30.572
836.69	35.774
836.86	35.583
837.03	36.887
837.20	32.922
837.37	35.309
837.55	32.683
837.72	37.373
837.89	37.816
838.06	42.672
838.23	49.114
838.40	43.896
838.58	35.559
838.75	51.364
838.92	50.869
839.09	52.490
839.26	46.147
839.43	55.556
839.60	48.577
839.78	62.643
839.95	56.397
840.12	50.534
840.29	56.743
840.46	51.635
840.63	52.704
840.80	53.366
840.98	52.489
841.15	43.585
841.32	47.296
841.49	41.623
841.66	50.563
841.83	49.501
842.00	47.281
842.17	57.498
842.34	50.674
842.52	54.573
842.69	53.523
842.86	55.290
843.03	63.740
843.20	54.704
843.37	55.844
843.54	69.519
843.71	55.610
843.88	73.089
844.06	80.159
844.23	75.592
844.40	70.528
844.57	72.458
844.74	67.474
844.91	86.282
845.08	82.476
845.25	83.748
845.42	84.903
845.59	80.467
845.76	82.640
845.94	88.962
846.11	90.150
846.28	88.788
846.45	106.844
846.62	94.710
846.79	74.669
846.96	76.628
847.13	90.141
847.30	86.549
847.47	74.327
847.64	90.926
847.81	89.811
847.98	96.078
848.15	92.518
848.32	91.984
848.50	107.183
848.67	79.818
848.84	108.677
849.01	89.910
849.18	101.085
849.35	107.407
849.52	106.160
849.69	98.372
849.86	108.087
850.03	89.122
850.20	101.411
850.37	85.510
850.54	107.712
850.71	95.363
850.88	100.201
851.05	118.961
851.22	90.744
851.39	98.081
851.56	87.695
851.73	100.192
851.90	90.196
852.07	95.717
852.24	96.875
852.41	113.134
852.58	131.088
852.75	94.926
852.92	107.090
853.09	129.204
853.26	101.087
853.43	95.620
853.60	80.868
853.77	122.650
853.94	98.693
854.11	122.030
854.28	100.599
854.45	109.193
854.62	102.434
854.79	116.390
854.96	97.642
855.13	119.181
855.30	102.222
855.47	137.097
855.64	95.455
855.81	106.304
855.98	120.805
856.15	115.611
856.32	112.468
856.49	118.133
856.66	110.494
856.83	97.222
857.00	112.766
857.17	107.852
857.34	100.693
857.51	103.926
857.68	119.948
857.85	94.206
858.02	120.044
858.19	87.526
858.36	110.274
858.53	122.931
858.70	107.658
858.87	92.903
859.04	94.344
859.21	121.287
859.38	101.048
859.55	136.105
859.72	124.518
859.89	122.977
860.05	117.204
860.22	113.626
860.39	100.414
860.56	122.011
860.73	110.274
860.90	95.949
861.07	125.542
861.24	96.528
861.41	104.852
861.58	94.655
861.75	121.204
861.92	95.516
862.09	92.411
862.26	123.429
862.43	126.620
862.59	120.548
862.76	136.082
862.93	113.617
863.10	113.123
863.27	109.783
863.44	118.554
863.61	96.652
863.78	99.132
863.95	153.774
864.12	100.420
864.29	134.659
864.45	110.199
864.62	98.551
864.79	79.815
864.96	113.350
865.13	107.393
865.30	100.457
865.47	91.651
865.64	116.585
865.81	114.684
865.97	88.961
866.14	92.100
866.31	118.961
866.48	102.626
866.65	91.685
866.82	120.225
866.99	133.994
867.16	94.853
867.33	119.664
867.49	112.207
867.66	111.029
867.83	153.746
868.00	106.510
868.17	105.682
868.34	124.299
868.51	106.948
868.67	115.193
868.84	97.837
869.01	122.108
869.18	114.021
869.35	131.395
869.52	118.617
869.69	119.802
869.85	106.726
870.02	100.491
870.19	122.392
870.36	119.549
870.53	91.441
870.70	119.952
870.86	92.651
871.03	107.294
871.20	126.357
871.37	109.009
871.54	121.203
871.71	108.043
871.87	114.815
872.04	106.584
872.21	104.054
872.38	122.139
872.55	130.829
872.72	113.379
872.88	106.011
873.05	96.452
873.22	106.326
873.39	113.107
873.56	106.633
873.72	112.195
873.89	90.850
874.06	110.029
874.23	116.018
874.40	111.507
874.56	102.680
874.73	108.148
874.90	79.863
875.07	120.000
875.24	113.842
875.40	89.664
875.57	117.978
875.74	121.500
875.91	92.650
876.08	99.771
876.24	143.243
876.41	87.238
876.58	111.712
876.75	93.671
876.92	98.507
877.08	116.588
877.25	101.684
877.42	92.338
877.59	113.043
877.75	105.787
877.92	97.531
878.09	114.945
878.26	104.321
878.42	132.765
878.59	119.590
878.76	102.273
878.93	124.294
879.09	107.743
879.26	83.393
879.43	126.764
879.60	92.564
879.76	86.811
879.93	83.912
880.10	83.662
880.27	83.878
880.43	79.698
880.60	75.475
880.77	61.664
880.94	70.151
881.10	61.566
881.27	53.722
881.44	44.991
881.61	47.297
881.77	43.156
881.94	34.211
882.11	29.313
882.28	32.847
882.44	29.561
882.61	26.823
882.78	29.979
882.94	33.187
883.11	27.994
883.28	27.800
883.45	27.341
883.61	25.755
883.78	25.197
883.95	30.971
884.11	27.507
884.28	24.536
>>>>>End Processed Spectral Data<<<<<
