SpectraSuite Data File
++++++++++++++++++++++++++++++++++++
Date: Wed Sep 18 04:08:44 EST 2019
User: sgrac
Dark Spectrum Present: Yes
Reference Spectrum Present: Yes
Number of Sampled Component Spectra: 1
Spectrometers: USB4E01596
Integration Time (usec): 100000 (USB4E01596)
Spectra Averaged: 3 (USB4E01596)
Boxcar Smoothing: 0 (USB4E01596)
Correct for Electrical Dark: No (USB4E01596)
Strobe/Lamp Enabled: Yes (USB4E01596)
Correct for Detector Non-linearity: No (USB4E01596)
Correct for Stray Light: No (USB4E01596)
Number of Pixels in Processed Spectrum: 3648
>>>>>Begin Processed Spectral Data<<<<<
178.44	-154.839
178.66	-154.839
178.87	-154.839
179.09	-304.000
179.30	213.043
179.52	542.105
179.74	-972.222
179.95	-1866.667
180.17	574.419
180.38	-876.667
180.60	397.143
180.82	1725.000
181.03	367.442
181.25	-1850.000
181.46	-385.000
181.68	-441.860
181.89	673.469
182.11	625.000
182.33	686.275
182.54	442.105
182.76	952.174
182.97	1892.857
183.19	321.739
183.40	294.318
183.62	451.923
183.84	400.000
184.05	781.818
184.27	504.918
184.48	2912.500
184.70	869.444
184.91	710.870
185.13	-746.875
185.34	-385.000
185.56	-830.303
185.78	1283.333
185.99	306.557
186.21	560.976
186.42	-2190.000
186.64	400.000
186.85	1800.000
187.07	440.476
187.28	673.810
187.50	-1094.118
187.72	610.000
187.93	413.253
188.15	523.529
188.36	-1670.588
188.58	363.636
188.79	-9950.000
189.01	200.000
189.22	355.844
189.44	1179.167
189.65	341.573
189.87	310.526
190.09	298.936
190.30	896.667
190.52	1825.000
190.73	296.386
190.95	1245.455
191.16	394.030
191.38	-25900.000
191.59	650.000
191.81	407.143
192.02	-533.333
192.24	398.387
192.45	366.667
192.67	415.152
192.88	378.125
193.10	565.909
193.31	466.071
193.53	472.581
193.74	721.212
193.96	564.407
194.18	-886.957
194.39	519.608
194.61	920.690
194.82	838.462
195.04	508.889
195.25	360.656
195.47	-5725.000
195.68	277.465
195.90	263.736
196.11	512.500
196.33	1835.294
196.54	788.372
196.76	-1088.000
196.97	266.000
197.19	1230.000
197.40	230.075
197.62	-469.697
197.83	563.462
198.05	232.215
198.26	-620.000
198.48	547.222
198.69	244.037
198.91	485.507
199.12	-1466.667
199.34	1100.000
199.55	21100.000
199.77	396.053
199.98	3616.667
200.20	758.824
200.41	405.634
200.63	553.704
200.84	1323.810
201.06	796.774
201.27	344.444
201.49	532.812
201.70	547.541
201.91	602.273
202.13	1435.000
202.34	-545.714
202.56	563.333
202.77	-295.349
202.99	365.854
203.20	565.957
203.42	451.429
203.63	265.138
203.85	-782.759
204.06	1186.364
204.28	1753.333
204.49	606.977
204.71	236.975
204.92	884.615
205.14	852.632
205.35	5425.000
205.56	391.549
205.78	396.296
205.99	224.427
206.21	230.303
206.42	528.261
206.64	776.471
206.85	295.556
207.07	720.000
207.28	242.045
207.50	904.348
207.71	546.512
207.93	489.583
208.14	597.674
208.35	406.780
208.57	282.000
208.78	384.043
209.00	324.731
209.21	215.493
209.43	434.722
209.64	961.538
209.86	1790.909
210.07	360.759
210.28	313.253
210.50	336.232
210.71	337.879
210.93	530.909
211.14	460.000
211.36	985.714
211.57	250.833
211.78	992.308
212.00	759.459
212.21	2911.111
212.43	1361.538
212.64	862.500
212.86	260.000
213.07	575.000
213.29	287.755
213.50	406.667
213.71	306.250
213.93	395.506
214.14	728.125
214.36	641.463
214.57	283.333
214.78	6950.000
215.00	360.976
215.21	648.889
215.43	-6020.000
215.64	314.286
215.86	451.471
216.07	393.151
216.28	606.000
216.50	502.000
216.71	1366.667
216.93	-28700.000
217.14	1363.158
217.35	-323.729
217.57	290.909
217.78	675.862
218.00	245.714
218.21	401.471
218.42	-5600.000
218.64	1000.000
218.85	382.353
219.07	506.977
219.28	535.417
219.49	-13100.000
219.71	341.791
219.92	386.842
220.14	-19300.000
220.35	313.699
220.56	378.261
220.78	265.854
220.99	-420.000
221.21	368.675
221.42	221.053
221.63	1669.231
221.85	-620.000
222.06	196.970
222.28	-617.857
222.49	433.333
222.70	212.931
222.92	547.368
223.13	197.945
223.34	2266.667
223.56	194.017
223.77	370.370
223.99	267.677
224.20	329.762
224.41	300.909
224.63	148.295
224.84	243.548
225.05	218.033
225.27	550.909
225.48	295.122
225.69	304.687
225.91	423.077
226.12	398.667
226.34	272.549
226.55	259.434
226.76	224.031
226.98	320.513
227.19	197.143
227.40	218.310
227.62	140.513
227.83	131.429
228.04	123.784
228.26	138.514
228.47	83.654
228.69	60.984
228.90	63.215
229.11	58.708
229.33	55.281
229.54	54.440
229.75	41.652
229.97	37.902
230.18	49.831
230.39	40.981
230.61	33.503
230.82	48.000
231.03	32.959
231.25	36.773
231.46	43.777
231.67	39.593
231.89	49.063
232.10	52.340
232.31	57.925
232.53	62.889
232.74	51.205
232.95	63.564
233.17	68.653
233.38	62.175
233.59	71.965
233.81	62.047
234.02	61.383
234.23	59.375
234.45	65.363
234.66	50.000
234.87	78.876
235.09	68.182
235.30	54.774
235.51	66.416
235.73	58.432
235.94	51.891
236.15	59.488
236.36	53.034
236.58	65.530
236.79	42.724
237.00	49.907
237.22	46.961
237.43	57.233
237.64	43.750
237.86	60.366
238.07	70.379
238.28	50.429
238.50	58.691
238.71	63.846
238.92	59.226
239.13	54.274
239.35	70.130
239.56	62.633
239.77	61.914
239.99	43.671
240.20	69.167
240.41	36.864
240.63	42.647
240.84	41.914
241.05	38.963
241.26	38.132
241.48	32.615
241.69	40.215
241.90	24.134
242.12	40.260
242.33	27.570
242.54	20.538
242.75	21.256
242.97	28.299
243.18	19.903
243.39	15.661
243.61	17.162
243.82	23.291
244.03	20.023
244.24	20.733
244.46	16.405
244.67	15.522
244.88	16.636
245.09	25.000
245.31	15.841
245.52	17.743
245.73	23.291
245.95	42.696
246.16	23.762
246.37	28.355
246.58	31.713
246.80	28.000
247.01	24.344
247.22	19.807
247.43	14.820
247.65	18.522
247.86	16.608
248.07	11.331
248.28	14.008
248.50	11.895
248.71	11.642
248.92	11.860
249.13	12.143
249.35	13.106
249.56	13.096
249.77	11.679
249.98	11.588
250.20	16.654
250.41	18.403
250.62	17.332
250.83	19.718
251.05	21.112
251.26	21.037
251.47	20.746
251.68	22.707
251.90	22.288
252.11	19.338
252.32	28.194
252.53	26.469
252.75	15.449
252.96	20.257
253.17	20.960
253.38	16.588
253.59	10.055
253.81	17.281
254.02	14.588
254.23	19.804
254.44	22.823
254.66	20.498
254.87	19.558
255.08	18.352
255.29	24.482
255.50	22.411
255.72	23.682
255.93	24.689
256.14	31.481
256.35	19.733
256.57	26.817
256.78	27.359
256.99	22.842
257.20	27.729
257.41	22.040
257.63	25.844
257.84	27.082
258.05	14.929
258.26	19.810
258.47	25.335
258.69	22.303
258.90	16.898
259.11	16.410
259.32	15.852
259.53	16.772
259.75	7.274
259.96	13.132
260.17	14.043
260.38	10.346
260.59	8.796
260.81	8.932
261.02	9.505
261.23	8.375
261.44	10.397
261.65	9.664
261.87	10.630
262.08	11.555
262.29	12.620
262.50	10.028
262.71	10.309
262.92	11.707
263.14	11.008
263.35	11.899
263.56	11.480
263.77	15.761
263.98	16.795
264.20	15.830
264.41	20.042
264.62	11.775
264.83	7.955
265.04	22.281
265.25	14.830
265.47	20.618
265.68	18.445
265.89	18.247
266.10	13.159
266.31	21.249
266.52	18.563
266.74	18.640
266.95	17.271
267.16	15.910
267.37	17.566
267.58	13.752
267.79	15.859
268.01	9.411
268.22	11.168
268.43	13.751
268.64	13.398
268.85	16.069
269.06	15.666
269.27	14.447
269.49	13.454
269.70	14.650
269.91	15.359
270.12	15.259
270.33	14.725
270.54	12.871
270.75	13.636
270.97	14.385
271.18	11.529
271.39	14.996
271.60	13.933
271.81	11.211
272.02	12.947
272.23	12.031
272.45	8.517
272.66	10.932
272.87	12.471
273.08	10.182
273.29	12.555
273.50	9.447
273.71	8.581
273.92	9.649
274.14	9.102
274.35	9.765
274.56	13.535
274.77	12.439
274.98	10.535
275.19	12.355
275.40	14.546
275.61	9.663
275.83	11.283
276.04	12.325
276.25	15.781
276.46	14.077
276.67	13.557
276.88	13.949
277.09	12.329
277.30	13.316
277.51	14.137
277.73	12.620
277.94	12.641
278.15	13.306
278.36	14.219
278.57	11.137
278.78	11.605
278.99	11.288
279.20	17.031
279.41	17.463
279.62	12.093
279.84	16.138
280.05	11.329
280.26	11.473
280.47	15.249
280.68	9.871
280.89	11.885
281.10	14.066
281.31	13.186
281.52	13.216
281.73	10.594
281.94	10.140
282.16	12.487
282.37	11.984
282.58	12.679
282.79	11.955
283.00	13.943
283.21	8.515
283.42	10.590
283.63	13.232
283.84	9.482
284.05	10.287
284.26	10.619
284.47	10.027
284.68	7.442
284.89	10.427
285.11	10.329
285.32	10.154
285.53	10.627
285.74	12.284
285.95	9.911
286.16	11.162
286.37	7.320
286.58	8.745
286.79	8.033
287.00	7.651
287.21	8.375
287.42	8.534
287.63	10.653
287.84	11.474
288.05	9.126
288.26	8.056
288.48	10.427
288.69	8.913
288.90	11.367
289.11	9.558
289.32	10.119
289.53	10.968
289.74	7.358
289.95	9.930
290.16	10.093
290.37	9.632
290.58	9.166
290.79	7.634
291.00	9.063
291.21	8.640
291.42	7.688
291.63	8.386
291.84	8.970
292.05	7.139
292.26	8.796
292.47	9.248
292.68	6.365
292.89	8.473
293.10	11.966
293.31	10.935
293.52	8.224
293.73	6.507
293.94	10.252
294.15	7.966
294.36	8.988
294.57	9.137
294.79	8.953
295.00	6.722
295.21	10.009
295.42	8.518
295.63	10.940
295.84	5.745
296.05	6.971
296.26	8.982
296.47	8.673
296.68	6.313
296.89	9.628
297.10	7.921
297.31	8.063
297.52	6.220
297.73	6.838
297.94	6.586
298.15	7.128
298.36	6.313
298.57	7.351
298.78	8.053
298.99	6.389
299.20	7.108
299.41	8.571
299.62	5.940
299.83	6.357
300.04	8.202
300.25	8.598
300.46	8.765
300.67	8.585
300.88	8.560
301.09	6.080
301.30	7.598
301.50	7.568
301.71	9.875
301.92	9.634
302.13	6.831
302.34	8.184
302.55	8.301
302.76	8.614
302.97	6.463
303.18	7.139
303.39	10.476
303.60	8.466
303.81	10.625
304.02	5.948
304.23	9.283
304.44	8.454
304.65	7.694
304.86	8.252
305.07	6.005
305.28	8.014
305.49	8.749
305.70	9.973
305.91	6.500
306.12	6.123
306.33	8.208
306.54	9.183
306.75	9.675
306.96	11.974
307.17	7.448
307.38	8.041
307.58	6.298
307.79	8.377
308.00	9.101
308.21	7.857
308.42	7.690
308.63	10.675
308.84	11.061
309.05	7.972
309.26	7.310
309.47	8.249
309.68	7.969
309.89	10.375
310.10	6.627
310.31	7.008
310.52	7.310
310.73	10.558
310.94	5.157
311.14	6.770
311.35	6.219
311.56	6.832
311.77	7.135
311.98	6.098
312.19	7.607
312.40	7.640
312.61	6.520
312.82	7.292
313.03	7.501
313.24	7.438
313.45	6.965
313.66	8.319
313.86	9.367
314.07	7.773
314.28	8.048
314.49	5.256
314.70	9.175
314.91	9.245
315.12	7.965
315.33	8.520
315.54	8.110
315.75	8.381
315.96	6.210
316.16	7.975
316.37	9.512
316.58	9.300
316.79	6.857
317.00	11.037
317.21	8.429
317.42	9.848
317.63	8.918
317.84	7.472
318.05	7.184
318.25	7.974
318.46	7.921
318.67	8.154
318.88	8.270
319.09	9.903
319.30	8.714
319.51	8.133
319.72	6.644
319.93	7.982
320.13	10.332
320.34	10.499
320.55	6.202
320.76	11.157
320.97	8.798
321.18	11.111
321.39	8.394
321.60	9.518
321.80	11.354
322.01	10.403
322.22	11.245
322.43	7.528
322.64	9.446
322.85	9.146
323.06	8.867
323.27	9.622
323.47	11.496
323.68	9.795
323.89	7.718
324.10	9.889
324.31	8.224
324.52	8.717
324.73	8.340
324.93	7.732
325.14	6.737
325.35	8.723
325.56	8.148
325.77	9.550
325.98	7.003
326.19	7.639
326.39	6.878
326.60	8.645
326.81	6.031
327.02	6.792
327.23	8.372
327.44	10.301
327.64	6.112
327.85	7.228
328.06	6.789
328.27	10.779
328.48	8.575
328.69	5.985
328.90	7.017
329.10	6.078
329.31	6.847
329.52	9.173
329.73	8.166
329.94	8.443
330.15	9.594
330.35	11.054
330.56	10.361
330.77	8.544
330.98	10.510
331.19	6.916
331.39	10.956
331.60	7.172
331.81	4.548
332.02	9.583
332.23	9.027
332.44	7.859
332.64	10.192
332.85	10.244
333.06	10.485
333.27	9.679
333.48	8.194
333.68	8.221
333.89	7.220
334.10	8.456
334.31	9.078
334.52	8.335
334.72	8.171
334.93	8.768
335.14	6.014
335.35	8.459
335.56	9.442
335.76	6.897
335.97	9.232
336.18	7.505
336.39	10.530
336.60	7.687
336.80	7.466
337.01	7.726
337.22	8.117
337.43	9.626
337.64	8.392
337.84	9.109
338.05	6.372
338.26	9.694
338.47	9.515
338.68	7.679
338.88	10.351
339.09	9.397
339.30	8.917
339.51	7.566
339.71	10.044
339.92	8.039
340.13	8.750
340.34	7.222
340.55	7.953
340.75	6.909
340.96	7.706
341.17	9.229
341.38	9.217
341.58	10.726
341.79	8.315
342.00	6.580
342.21	9.275
342.41	8.306
342.62	9.389
342.83	8.416
343.04	8.293
343.24	11.184
343.45	10.877
343.66	8.059
343.87	9.037
344.07	9.033
344.28	10.587
344.49	10.192
344.70	10.947
344.90	6.739
345.11	7.921
345.32	9.782
345.53	9.677
345.73	11.503
345.94	12.276
346.15	12.163
346.36	10.604
346.56	10.760
346.77	12.859
346.98	12.001
347.19	11.088
347.39	11.354
347.60	10.974
347.81	13.167
348.02	12.903
348.22	9.690
348.43	12.259
348.64	11.731
348.84	13.020
349.05	13.676
349.26	15.490
349.47	10.480
349.67	12.549
349.88	15.258
350.09	12.877
350.30	18.030
350.50	15.340
350.71	15.325
350.92	16.172
351.12	14.408
351.33	14.442
351.54	15.270
351.74	16.907
351.95	14.430
352.16	17.496
352.37	17.948
352.57	17.821
352.78	14.538
352.99	17.874
353.19	18.735
353.40	20.417
353.61	20.562
353.82	21.406
354.02	21.130
354.23	21.558
354.44	22.488
354.64	19.962
354.85	21.891
355.06	21.026
355.26	19.280
355.47	23.903
355.68	24.729
355.88	24.147
356.09	21.269
356.30	22.078
356.51	24.559
356.71	23.810
356.92	21.806
357.13	24.812
357.33	27.307
357.54	23.736
357.75	21.464
357.95	25.097
358.16	23.713
358.37	28.595
358.57	24.412
358.78	29.630
358.99	26.139
359.19	25.219
359.40	27.625
359.61	27.231
359.81	29.558
360.02	29.638
360.23	27.788
360.43	25.294
360.64	26.882
360.85	27.623
361.05	25.957
361.26	29.700
361.47	27.307
361.67	29.566
361.88	24.381
362.09	29.035
362.29	26.845
362.50	27.419
362.70	26.615
362.91	28.935
363.12	27.926
363.32	29.137
363.53	29.402
363.74	30.438
363.94	26.755
364.15	31.439
364.36	29.170
364.56	28.632
364.77	29.931
364.98	32.169
365.18	29.451
365.39	30.636
365.59	27.404
365.80	30.056
366.01	28.735
366.21	28.533
366.42	28.368
366.63	30.560
366.83	29.354
367.04	27.374
367.24	29.219
367.45	28.287
367.66	27.277
367.86	28.502
368.07	28.378
368.28	28.588
368.48	27.871
368.69	28.198
368.89	29.061
369.10	30.863
369.31	29.774
369.51	30.281
369.72	30.003
369.92	31.946
370.13	27.220
370.34	30.609
370.54	24.246
370.75	30.041
370.95	26.856
371.16	29.264
371.37	27.378
371.57	29.207
371.78	26.761
371.98	30.011
372.19	30.891
372.40	30.495
372.60	29.727
372.81	31.027
373.01	27.857
373.22	29.528
373.43	30.390
373.63	31.025
373.84	30.809
374.04	31.455
374.25	30.834
374.46	31.007
374.66	29.753
374.87	30.650
375.07	26.893
375.28	29.366
375.48	28.528
375.69	31.413
375.90	26.281
376.10	27.902
376.31	28.881
376.51	30.374
376.72	29.445
376.92	28.589
377.13	31.689
377.34	31.121
377.54	29.227
377.75	31.814
377.95	29.234
378.16	31.239
378.36	31.103
378.57	32.828
378.77	29.493
378.98	32.075
379.19	30.401
379.39	31.034
379.60	31.296
379.80	30.829
380.01	30.447
380.21	31.730
380.42	31.701
380.62	30.865
380.83	30.915
381.04	31.587
381.24	30.986
381.45	32.173
381.65	31.279
381.86	32.153
382.06	33.370
382.27	30.477
382.47	31.364
382.68	31.863
382.88	30.551
383.09	30.238
383.29	33.015
383.50	33.123
383.71	31.102
383.91	33.236
384.12	31.578
384.32	32.962
384.53	32.025
384.73	32.811
384.94	32.062
385.14	32.484
385.35	30.546
385.55	32.347
385.76	32.124
385.96	32.853
386.17	33.030
386.37	33.431
386.58	34.208
386.78	34.027
386.99	32.709
387.19	33.891
387.40	32.289
387.60	35.398
387.81	33.398
388.01	34.503
388.22	35.101
388.42	36.395
388.63	34.600
388.83	35.380
389.04	34.147
389.24	35.000
389.45	34.167
389.65	34.026
389.86	34.243
390.06	34.183
390.27	35.085
390.47	35.769
390.68	34.679
390.88	35.658
391.09	35.967
391.29	34.660
391.50	35.574
391.70	35.380
391.91	34.880
392.11	35.308
392.32	36.038
392.52	36.204
392.73	35.774
392.93	35.644
393.14	35.802
393.34	36.576
393.55	37.022
393.75	36.591
393.95	36.670
394.16	36.664
394.36	36.911
394.57	36.792
394.77	36.595
394.98	36.505
395.18	37.887
395.39	36.547
395.59	36.615
395.80	37.723
396.00	37.563
396.21	37.868
396.41	36.169
396.61	38.006
396.82	37.617
397.02	38.123
397.23	38.298
397.43	37.814
397.64	36.892
397.84	38.536
398.05	35.894
398.25	39.259
398.45	37.860
398.66	36.813
398.86	38.203
399.07	38.148
399.27	37.131
399.48	37.425
399.68	35.667
399.89	36.229
400.09	37.128
400.29	36.810
400.50	37.259
400.70	37.782
400.91	36.567
401.11	37.205
401.32	38.338
401.52	37.483
401.72	36.736
401.93	37.378
402.13	36.829
402.34	37.666
402.54	35.908
402.75	39.169
402.95	37.040
403.15	37.017
403.36	36.754
403.56	36.655
403.77	35.485
403.97	36.198
404.17	35.338
404.38	35.718
404.58	36.032
404.79	35.789
404.99	36.798
405.19	35.304
405.40	36.064
405.60	35.821
405.81	35.323
406.01	36.358
406.21	35.195
406.42	35.458
406.62	36.035
406.83	35.850
407.03	36.016
407.23	35.916
407.44	36.017
407.64	36.008
407.85	35.360
408.05	36.365
408.25	35.484
408.46	36.474
408.66	35.771
408.87	36.034
409.07	35.625
409.27	34.470
409.48	34.830
409.68	34.206
409.88	33.964
410.09	35.045
410.29	35.377
410.50	35.156
410.70	32.674
410.90	34.281
411.11	34.388
411.31	34.988
411.51	34.797
411.72	35.181
411.92	34.568
412.12	35.334
412.33	32.879
412.53	34.331
412.74	34.058
412.94	34.514
413.14	34.121
413.35	33.669
413.55	33.682
413.75	34.522
413.96	33.671
414.16	33.880
414.36	33.597
414.57	34.432
414.77	33.069
414.97	34.093
415.18	33.709
415.38	34.020
415.58	33.410
415.79	33.963
415.99	32.658
416.19	33.202
416.40	32.122
416.60	32.743
416.80	32.048
417.01	32.251
417.21	31.808
417.41	32.828
417.62	32.569
417.82	31.828
418.02	31.810
418.23	32.059
418.43	32.269
418.63	32.320
418.84	31.596
419.04	31.028
419.24	31.723
419.45	31.250
419.65	31.503
419.85	32.035
420.06	31.527
420.26	31.801
420.46	31.367
420.67	31.136
420.87	31.106
421.07	31.432
421.28	30.839
421.48	31.537
421.68	31.211
421.88	31.507
422.09	31.879
422.29	30.871
422.49	31.321
422.70	30.978
422.90	31.231
423.10	30.888
423.31	31.698
423.51	31.151
423.71	31.395
423.91	30.743
424.12	30.956
424.32	31.290
424.52	30.749
424.73	30.427
424.93	30.828
425.13	30.451
425.33	29.912
425.54	29.687
425.74	30.467
425.94	31.001
426.15	30.561
426.35	30.444
426.55	30.758
426.75	31.232
426.96	30.987
427.16	31.120
427.36	31.859
427.57	30.919
427.77	30.992
427.97	31.941
428.17	31.404
428.38	30.743
428.58	30.498
428.78	31.756
428.98	30.247
429.19	30.657
429.39	30.084
429.59	30.376
429.79	30.561
430.00	30.040
430.20	29.256
430.40	30.504
430.60	29.897
430.81	30.080
431.01	30.196
431.21	30.060
431.41	29.255
431.62	29.959
431.82	29.346
432.02	30.593
432.22	30.195
432.43	29.801
432.63	29.902
432.83	30.060
433.03	28.936
433.24	29.301
433.44	29.045
433.64	29.672
433.84	29.564
434.05	28.962
434.25	28.916
434.45	29.397
434.65	29.181
434.85	29.616
435.06	29.211
435.26	29.424
435.46	30.330
435.66	29.871
435.87	29.796
436.07	29.599
436.27	29.782
436.47	29.773
436.67	29.707
436.88	30.241
437.08	29.822
437.28	30.177
437.48	30.122
437.69	29.024
437.89	29.856
438.09	29.963
438.29	28.888
438.49	29.359
438.70	29.607
438.90	29.087
439.10	28.689
439.30	29.129
439.50	28.855
439.71	28.733
439.91	29.081
440.11	28.742
440.31	28.552
440.51	28.726
440.72	28.366
440.92	28.761
441.12	28.742
441.32	28.992
441.52	28.886
441.72	28.920
441.93	28.603
442.13	29.421
442.33	28.932
442.53	29.482
442.73	29.484
442.94	28.885
443.14	29.601
443.34	29.872
443.54	29.741
443.74	29.594
443.94	29.824
444.15	29.207
444.35	29.080
444.55	29.036
444.75	29.610
444.95	28.762
445.15	28.650
445.36	29.291
445.56	27.857
445.76	28.461
445.96	28.282
446.16	28.687
446.36	28.446
446.57	28.681
446.77	28.211
446.97	28.813
447.17	28.368
447.37	28.674
447.57	29.109
447.77	28.915
447.98	28.641
448.18	29.103
448.38	28.799
448.58	29.384
448.78	29.188
448.98	29.213
449.18	29.704
449.39	29.389
449.59	29.600
449.79	29.594
449.99	29.754
450.19	29.546
450.39	29.470
450.59	29.870
450.79	29.343
451.00	29.243
451.20	30.746
451.40	29.710
451.60	29.853
451.80	29.286
452.00	29.304
452.20	29.484
452.40	29.954
452.61	29.564
452.81	28.746
453.01	29.032
453.21	28.990
453.41	29.134
453.61	29.071
453.81	29.184
454.01	29.479
454.21	28.803
454.42	29.288
454.62	29.591
454.82	29.082
455.02	29.193
455.22	29.332
455.42	29.095
455.62	28.772
455.82	28.512
456.02	28.941
456.23	29.159
456.43	28.701
456.63	29.171
456.83	28.833
457.03	28.803
457.23	29.724
457.43	29.661
457.63	28.591
457.83	28.860
458.03	28.304
458.23	28.521
458.43	28.496
458.64	28.607
458.84	28.995
459.04	27.879
459.24	28.147
459.44	28.172
459.64	27.759
459.84	27.675
460.04	27.563
460.24	27.566
460.44	27.690
460.64	27.849
460.84	27.575
461.04	27.696
461.24	28.094
461.45	28.099
461.65	28.352
461.85	28.069
462.05	28.559
462.25	27.836
462.45	29.330
462.65	29.183
462.85	28.897
463.05	28.736
463.25	28.890
463.45	28.640
463.65	29.254
463.85	28.979
464.05	28.690
464.25	28.541
464.45	28.620
464.65	29.071
464.85	28.926
465.05	28.663
465.26	28.694
465.46	28.822
465.66	28.236
465.86	29.065
466.06	28.903
466.26	27.838
466.46	28.091
466.66	28.194
466.86	29.004
467.06	28.018
467.26	28.542
467.46	28.394
467.66	28.190
467.86	28.140
468.06	28.054
468.26	28.427
468.46	28.289
468.66	28.570
468.86	28.148
469.06	28.967
469.26	28.481
469.46	28.851
469.66	28.455
469.86	28.651
470.06	28.499
470.26	28.784
470.46	29.078
470.66	28.803
470.86	28.284
471.06	27.521
471.26	28.316
471.46	28.810
471.66	28.946
471.86	28.729
472.06	28.710
472.26	29.227
472.46	28.778
472.66	28.748
472.86	28.527
473.06	28.579
473.26	28.667
473.46	28.694
473.66	28.899
473.86	28.859
474.06	28.956
474.26	28.244
474.46	28.972
474.66	29.132
474.86	29.213
475.06	29.260
475.26	28.828
475.46	29.025
475.66	29.449
475.86	29.094
476.06	29.195
476.26	29.794
476.46	28.911
476.66	29.275
476.86	28.977
477.06	28.668
477.26	29.063
477.46	29.373
477.65	28.811
477.85	29.084
478.05	28.451
478.25	28.804
478.45	29.197
478.65	28.747
478.85	28.855
479.05	28.420
479.25	29.083
479.45	28.926
479.65	28.703
479.85	29.482
480.05	29.085
480.25	29.182
480.45	29.137
480.65	29.152
480.85	29.824
481.05	28.779
481.25	29.278
481.44	29.597
481.64	28.880
481.84	29.053
482.04	28.803
482.24	28.600
482.44	28.591
482.64	28.211
482.84	28.383
483.04	28.363
483.24	27.697
483.44	27.517
483.64	27.494
483.84	27.330
484.04	27.226
484.23	27.651
484.43	28.002
484.63	28.240
484.83	28.651
485.03	28.958
485.23	29.018
485.43	29.053
485.63	29.693
485.83	29.805
486.03	30.071
486.23	30.219
486.42	29.983
486.62	29.897
486.82	29.671
487.02	28.827
487.22	28.909
487.42	28.756
487.62	28.384
487.82	28.328
488.02	28.555
488.22	28.388
488.41	28.216
488.61	28.311
488.81	28.715
489.01	28.776
489.21	29.207
489.41	28.979
489.61	29.281
489.81	29.624
490.01	29.672
490.20	30.004
490.40	29.804
490.60	29.875
490.80	29.165
491.00	29.535
491.20	28.565
491.40	28.063
491.60	27.942
491.79	27.837
491.99	27.740
492.19	28.211
492.39	27.974
492.59	28.375
492.79	28.546
492.99	28.637
493.19	28.917
493.38	29.103
493.58	29.475
493.78	29.815
493.98	30.003
494.18	30.289
494.38	29.706
494.58	30.196
494.77	29.524
494.97	29.999
495.17	29.608
495.37	29.861
495.57	29.686
495.77	29.614
495.96	29.856
496.16	29.104
496.36	29.084
496.56	28.821
496.76	28.864
496.96	29.098
497.15	29.198
497.35	28.875
497.55	29.473
497.75	29.628
497.95	29.285
498.15	28.974
498.34	28.807
498.54	29.160
498.74	29.918
498.94	29.683
499.14	29.304
499.34	29.373
499.53	29.870
499.73	29.781
499.93	29.071
500.13	29.735
500.33	29.872
500.52	30.147
500.72	29.736
500.92	30.235
501.12	30.183
501.32	29.941
501.52	30.184
501.71	30.166
501.91	30.182
502.11	30.454
502.31	30.062
502.51	29.943
502.70	30.464
502.90	30.202
503.10	30.107
503.30	30.228
503.50	30.273
503.69	30.857
503.89	31.120
504.09	30.199
504.29	30.442
504.48	30.163
504.68	30.247
504.88	30.412
505.08	30.228
505.28	30.689
505.47	31.240
505.67	30.387
505.87	30.945
506.07	30.840
506.27	30.714
506.46	30.465
506.66	30.915
506.86	31.382
507.06	31.030
507.25	30.794
507.45	30.884
507.65	30.699
507.85	30.992
508.04	31.295
508.24	31.047
508.44	30.777
508.64	30.622
508.83	31.325
509.03	31.189
509.23	30.867
509.43	30.897
509.63	30.888
509.82	31.549
510.02	31.298
510.22	30.823
510.42	30.927
510.61	31.385
510.81	31.604
511.01	30.737
511.21	31.469
511.40	31.682
511.60	31.627
511.80	31.473
511.99	31.662
512.19	31.243
512.39	31.442
512.59	31.328
512.78	31.879
512.98	31.570
513.18	31.668
513.38	31.400
513.57	31.885
513.77	31.919
513.97	31.952
514.17	31.695
514.36	32.318
514.56	32.140
514.76	32.171
514.95	32.104
515.15	32.284
515.35	32.356
515.55	32.021
515.74	32.625
515.94	32.199
516.14	32.150
516.33	32.375
516.53	32.425
516.73	32.014
516.93	32.536
517.12	32.222
517.32	31.825
517.52	31.940
517.71	32.300
517.91	31.783
518.11	31.895
518.30	32.068
518.50	31.783
518.70	31.544
518.90	31.857
519.09	32.338
519.29	31.898
519.49	31.927
519.68	31.801
519.88	32.461
520.08	32.372
520.27	32.408
520.47	32.914
520.67	32.768
520.86	32.993
521.06	32.897
521.26	33.391
521.45	33.185
521.65	32.953
521.85	33.085
522.04	32.469
522.24	32.773
522.44	33.239
522.63	32.775
522.83	32.993
523.03	32.812
523.22	33.267
523.42	33.330
523.62	33.024
523.81	32.695
524.01	33.251
524.21	33.028
524.40	32.824
524.60	32.957
524.80	32.466
524.99	32.578
525.19	32.776
525.39	32.097
525.58	32.737
525.78	32.357
525.98	32.217
526.17	32.191
526.37	32.521
526.57	32.287
526.76	32.606
526.96	32.223
527.15	32.410
527.35	32.778
527.55	32.637
527.74	32.998
527.94	32.415
528.14	31.880
528.33	31.391
528.53	31.257
528.72	31.695
528.92	32.039
529.12	32.089
529.31	32.277
529.51	32.195
529.71	32.580
529.90	32.538
530.10	33.344
530.29	33.380
530.49	33.571
530.69	33.980
530.88	33.985
531.08	33.980
531.28	33.916
531.47	33.251
531.67	33.287
531.86	33.232
532.06	33.346
532.26	33.199
532.45	33.130
532.65	33.032
532.84	32.925
533.04	32.680
533.24	32.466
533.43	32.396
533.63	32.959
533.82	32.814
534.02	32.560
534.22	32.762
534.41	32.652
534.61	32.833
534.80	33.265
535.00	33.624
535.19	33.768
535.39	33.937
535.59	34.152
535.78	33.664
535.98	33.849
536.17	33.716
536.37	33.524
536.57	32.956
536.76	33.497
536.96	32.870
537.15	33.173
537.35	33.268
537.54	33.110
537.74	33.279
537.93	33.629
538.13	33.109
538.33	34.082
538.52	34.391
538.72	34.451
538.91	34.378
539.11	34.385
539.30	34.345
539.50	34.629
539.70	33.994
539.89	33.812
540.09	34.233
540.28	33.762
540.48	33.792
540.67	33.453
540.87	32.716
541.06	32.810
541.26	32.667
541.45	32.950
541.65	32.762
541.85	33.432
542.04	33.320
542.24	33.761
542.43	33.489
542.63	33.609
542.82	33.683
543.02	34.272
543.21	34.542
543.41	34.538
543.60	34.642
543.80	35.156
543.99	34.719
544.19	34.867
544.38	34.798
544.58	34.619
544.77	34.642
544.97	35.407
545.16	34.745
545.36	35.012
545.56	34.906
545.75	35.557
545.95	34.541
546.14	34.911
546.34	34.902
546.53	34.581
546.73	34.604
546.92	34.980
547.12	34.777
547.31	34.970
547.51	34.887
547.70	34.913
547.90	35.170
548.09	34.822
548.29	35.144
548.48	35.261
548.68	34.782
548.87	35.730
549.07	36.511
549.26	36.241
549.46	35.919
549.65	36.154
549.84	36.182
550.04	36.435
550.23	36.768
550.43	36.598
550.62	35.917
550.82	36.710
551.01	36.313
551.21	36.426
551.40	36.718
551.60	36.313
551.79	36.065
551.99	36.482
552.18	35.934
552.38	36.839
552.57	36.357
552.77	36.644
552.96	36.636
553.16	36.229
553.35	36.163
553.54	36.636
553.74	36.220
553.93	37.010
554.13	36.393
554.32	36.735
554.52	36.665
554.71	37.411
554.91	36.715
555.10	37.729
555.29	37.439
555.49	37.903
555.68	37.125
555.88	37.203
556.07	37.814
556.27	37.493
556.46	37.574
556.66	37.340
556.85	37.468
557.04	37.739
557.24	37.785
557.43	37.394
557.63	37.797
557.82	38.089
558.02	38.020
558.21	37.546
558.40	38.763
558.60	38.674
558.79	38.436
558.99	38.077
559.18	38.952
559.38	38.363
559.57	38.219
559.76	37.827
559.96	39.519
560.15	38.141
560.35	38.993
560.54	38.574
560.73	38.816
560.93	38.354
561.12	39.381
561.32	38.440
561.51	37.885
561.70	38.510
561.90	39.227
562.09	38.175
562.29	38.287
562.48	38.976
562.67	38.788
562.87	38.514
563.06	38.725
563.26	39.128
563.45	38.238
563.64	39.294
563.84	38.917
564.03	39.416
564.23	38.498
564.42	39.697
564.61	39.176
564.81	39.363
565.00	38.811
565.20	38.670
565.39	38.953
565.58	37.932
565.78	38.758
565.97	39.133
566.16	39.119
566.36	38.938
566.55	38.978
566.74	38.946
566.94	39.420
567.13	38.656
567.33	39.283
567.52	38.993
567.71	39.316
567.91	39.250
568.10	39.043
568.29	39.183
568.49	39.017
568.68	40.065
568.87	39.722
569.07	39.775
569.26	38.964
569.45	39.334
569.65	38.662
569.84	39.336
570.04	39.957
570.23	39.220
570.42	39.071
570.62	39.253
570.81	39.612
571.00	39.850
571.20	38.840
571.39	39.048
571.58	39.302
571.78	38.669
571.97	39.172
572.16	38.673
572.36	39.006
572.55	38.644
572.74	39.308
572.94	39.249
573.13	39.151
573.32	39.420
573.51	39.731
573.71	39.177
573.90	39.074
574.09	39.668
574.29	38.818
574.48	39.815
574.67	39.212
574.87	38.742
575.06	38.534
575.25	39.276
575.45	39.440
575.64	38.899
575.83	38.857
576.03	39.733
576.22	39.168
576.41	39.289
576.60	39.179
576.80	38.956
576.99	39.175
577.18	39.320
577.38	38.963
577.57	39.602
577.76	39.166
577.95	40.604
578.15	39.642
578.34	39.875
578.53	39.533
578.73	39.481
578.92	39.311
579.11	39.652
579.30	39.997
579.50	39.314
579.69	39.464
579.88	38.964
580.08	39.461
580.27	38.855
580.46	40.204
580.65	39.372
580.85	39.947
581.04	39.374
581.23	39.520
581.42	39.180
581.62	39.932
581.81	39.689
582.00	40.024
582.19	39.079
582.39	39.710
582.58	39.516
582.77	41.021
582.96	39.438
583.16	38.952
583.35	39.047
583.54	40.374
583.73	38.930
583.93	39.293
584.12	39.072
584.31	39.956
584.50	39.632
584.70	39.752
584.89	39.974
585.08	39.893
585.27	40.198
585.47	39.364
585.66	39.857
585.85	39.783
586.04	39.272
586.24	40.184
586.43	39.471
586.62	39.519
586.81	38.875
587.00	39.371
587.20	39.365
587.39	39.959
587.58	39.157
587.77	39.253
587.97	39.119
588.16	40.303
588.35	39.732
588.54	39.337
588.73	39.144
588.93	39.048
589.12	39.401
589.31	39.949
589.50	38.591
589.69	39.658
589.89	40.262
590.08	38.718
590.27	39.141
590.46	38.321
590.65	39.355
590.85	39.216
591.04	40.048
591.23	39.887
591.42	39.231
591.61	39.946
591.81	39.858
592.00	39.909
592.19	39.087
592.38	39.820
592.57	39.277
592.77	40.387
592.96	39.500
593.15	39.524
593.34	40.109
593.53	40.128
593.72	40.645
593.92	39.912
594.11	39.855
594.30	40.001
594.49	40.094
594.68	38.980
594.87	39.202
595.07	39.465
595.26	39.359
595.45	40.418
595.64	40.198
595.83	40.658
596.02	40.799
596.22	40.267
596.41	39.129
596.60	40.089
596.79	39.198
596.98	39.668
597.17	39.709
597.37	39.684
597.56	39.666
597.75	39.359
597.94	40.016
598.13	41.301
598.32	41.103
598.51	40.935
598.71	41.220
598.90	41.061
599.09	41.635
599.28	41.883
599.47	41.685
599.66	41.100
599.85	40.720
600.05	41.512
600.24	40.672
600.43	41.755
600.62	41.775
600.81	42.309
601.00	42.355
601.19	41.052
601.38	42.227
601.58	42.047
601.77	41.881
601.96	42.391
602.15	41.906
602.34	42.127
602.53	42.535
602.72	42.080
602.91	42.459
603.10	42.162
603.30	42.415
603.49	41.809
603.68	42.159
603.87	41.010
604.06	41.400
604.25	41.992
604.44	41.904
604.63	41.035
604.82	41.390
605.01	41.671
605.21	41.993
605.40	41.293
605.59	41.837
605.78	41.699
605.97	41.547
606.16	41.883
606.35	42.151
606.54	42.607
606.73	42.322
606.92	42.417
607.11	42.400
607.30	42.704
607.50	42.127
607.69	42.719
607.88	42.699
608.07	42.878
608.26	42.677
608.45	42.728
608.64	42.863
608.83	42.310
609.02	42.505
609.21	41.128
609.40	42.269
609.59	42.068
609.78	40.988
609.97	42.505
610.16	42.543
610.35	43.289
610.55	42.657
610.74	42.641
610.93	42.297
611.12	43.231
611.31	42.679
611.50	42.522
611.69	43.119
611.88	42.638
612.07	42.500
612.26	42.716
612.45	43.685
612.64	43.446
612.83	43.367
613.02	44.225
613.21	43.073
613.40	43.660
613.59	43.886
613.78	43.157
613.97	44.173
614.16	43.932
614.35	43.366
614.54	42.595
614.73	43.906
614.92	43.246
615.11	43.688
615.30	42.993
615.49	42.796
615.68	43.141
615.87	42.826
616.07	41.501
616.26	42.526
616.45	43.388
616.64	41.673
616.83	43.102
617.02	43.178
617.21	42.096
617.40	43.596
617.59	42.275
617.78	43.042
617.97	41.342
618.16	42.391
618.35	41.690
618.54	41.576
618.73	42.457
618.92	41.548
619.11	42.334
619.30	41.975
619.49	41.345
619.68	41.961
619.86	42.056
620.05	41.812
620.24	42.019
620.43	41.921
620.62	41.523
620.81	41.228
621.00	42.139
621.19	42.159
621.38	42.362
621.57	41.708
621.76	42.679
621.95	41.605
622.14	41.123
622.33	40.980
622.52	41.761
622.71	41.184
622.90	41.661
623.09	41.748
623.28	40.237
623.47	42.145
623.66	41.407
623.85	41.548
624.04	41.700
624.23	41.674
624.42	41.869
624.61	41.866
624.80	40.814
624.99	40.370
625.18	41.843
625.36	42.004
625.55	40.576
625.74	41.259
625.93	41.258
626.12	40.947
626.31	41.208
626.50	40.744
626.69	41.211
626.88	41.006
627.07	40.858
627.26	41.402
627.45	41.285
627.64	40.297
627.83	40.629
628.02	40.818
628.20	40.892
628.39	40.643
628.58	40.759
628.77	41.114
628.96	40.582
629.15	40.537
629.34	40.899
629.53	41.451
629.72	40.867
629.91	42.045
630.10	41.788
630.29	40.590
630.47	42.661
630.66	41.727
630.85	42.265
631.04	41.580
631.23	42.070
631.42	41.735
631.61	41.735
631.80	41.613
631.99	41.527
632.18	42.383
632.36	41.675
632.55	43.385
632.74	42.000
632.93	41.248
633.12	42.964
633.31	40.923
633.50	41.155
633.69	40.986
633.88	40.652
634.06	41.186
634.25	41.108
634.44	41.701
634.63	41.413
634.82	41.666
635.01	41.472
635.20	41.009
635.39	41.903
635.57	41.141
635.76	42.047
635.95	40.911
636.14	41.160
636.33	41.141
636.52	41.547
636.71	41.631
636.89	41.266
637.08	41.192
637.27	40.691
637.46	41.804
637.65	40.412
637.84	41.206
638.03	40.647
638.21	41.839
638.40	42.285
638.59	41.369
638.78	40.716
638.97	41.137
639.16	39.737
639.34	40.997
639.53	40.227
639.72	40.424
639.91	40.675
640.10	40.840
640.29	40.732
640.47	42.305
640.66	39.673
640.85	41.221
641.04	40.904
641.23	40.915
641.42	40.535
641.60	39.737
641.79	39.309
641.98	40.509
642.17	39.944
642.36	41.504
642.54	40.243
642.73	41.226
642.92	40.694
643.11	40.107
643.30	40.959
643.49	41.773
643.67	39.819
643.86	40.091
644.05	40.230
644.24	40.406
644.43	39.724
644.61	41.309
644.80	40.335
644.99	41.214
645.18	41.177
645.37	40.194
645.55	39.089
645.74	39.578
645.93	40.028
646.12	40.731
646.31	40.085
646.49	40.762
646.68	40.405
646.87	39.845
647.06	40.495
647.24	41.629
647.43	40.375
647.62	41.047
647.81	40.147
648.00	40.361
648.18	40.771
648.37	39.159
648.56	40.389
648.75	40.568
648.93	40.905
649.12	40.133
649.31	40.515
649.50	40.166
649.68	40.649
649.87	40.777
650.06	38.973
650.25	39.757
650.43	40.887
650.62	40.856
650.81	38.823
651.00	38.543
651.18	39.159
651.37	40.931
651.56	39.005
651.75	39.741
651.93	38.478
652.12	41.237
652.31	39.157
652.50	40.290
652.68	40.002
652.87	41.055
653.06	38.852
653.25	39.223
653.43	39.103
653.62	39.130
653.81	38.449
654.00	39.677
654.18	39.216
654.37	40.235
654.56	38.428
654.74	39.304
654.93	38.767
655.12	39.384
655.31	38.853
655.49	40.422
655.68	39.366
655.87	37.733
656.05	37.778
656.24	38.839
656.43	37.976
656.62	38.288
656.80	37.733
656.99	38.796
657.18	37.726
657.36	39.324
657.55	36.818
657.74	37.137
657.93	36.634
658.11	38.329
658.30	36.327
658.49	37.631
658.67	37.823
658.86	35.592
659.05	37.088
659.23	36.693
659.42	35.252
659.61	35.902
659.79	35.523
659.98	36.155
660.17	36.098
660.35	35.536
660.54	35.970
660.73	36.564
660.91	35.737
661.10	35.461
661.29	34.577
661.47	34.901
661.66	34.202
661.85	36.408
662.03	34.440
662.22	34.080
662.41	33.912
662.59	34.997
662.78	32.781
662.97	33.781
663.15	32.903
663.34	34.000
663.53	33.765
663.71	33.812
663.90	31.765
664.09	34.687
664.27	31.901
664.46	32.689
664.65	32.776
664.83	31.369
665.02	30.571
665.21	31.371
665.39	29.827
665.58	33.260
665.77	30.232
665.95	32.334
666.14	30.324
666.32	31.752
666.51	30.901
666.70	30.429
666.88	29.451
667.07	31.222
667.26	28.141
667.44	30.568
667.63	29.539
667.81	29.018
668.00	29.044
668.19	31.127
668.37	29.555
668.56	30.453
668.75	26.872
668.93	30.685
669.12	28.991
669.30	29.734
669.49	28.278
669.68	29.758
669.86	28.456
670.05	29.386
670.23	28.504
670.42	28.739
670.61	28.953
670.79	30.270
670.98	28.546
671.16	29.078
671.35	27.474
671.54	28.406
671.72	26.882
671.91	28.905
672.09	25.955
672.28	28.989
672.46	28.811
672.65	30.004
672.84	29.109
673.02	28.952
673.21	26.852
673.39	28.274
673.58	29.113
673.77	29.315
673.95	27.453
674.14	29.119
674.32	27.516
674.51	29.658
674.69	30.185
674.88	28.835
675.07	28.215
675.25	31.379
675.44	29.019
675.62	29.188
675.81	27.695
675.99	33.894
676.18	29.388
676.36	29.639
676.55	28.947
676.74	31.268
676.92	31.495
677.11	29.371
677.29	28.332
677.48	30.070
677.66	30.346
677.85	30.485
678.03	29.717
678.22	31.542
678.40	29.967
678.59	29.861
678.78	28.749
678.96	31.347
679.15	28.443
679.33	31.837
679.52	31.513
679.70	32.805
679.89	30.866
680.07	30.616
680.26	29.121
680.44	31.447
680.63	30.316
680.81	30.109
681.00	29.650
681.18	32.242
681.37	30.152
681.55	32.693
681.74	32.131
681.92	31.942
682.11	32.689
682.29	32.141
682.48	31.708
682.66	33.389
682.85	32.383
683.03	32.857
683.22	33.552
683.40	33.417
683.59	33.248
683.77	33.987
683.96	32.791
684.14	34.200
684.33	31.917
684.51	36.067
684.70	34.093
684.88	36.849
685.07	35.146
685.25	35.728
685.44	34.506
685.62	35.730
685.81	34.318
685.99	35.942
686.18	34.251
686.36	35.901
686.55	35.111
686.73	36.455
686.92	36.543
687.10	37.687
687.29	38.083
687.47	38.550
687.65	38.075
687.84	39.355
688.02	38.003
688.21	39.270
688.39	36.627
688.58	40.493
688.76	37.739
688.95	39.522
689.13	37.971
689.32	39.818
689.50	41.102
689.68	41.963
689.87	40.955
690.05	41.658
690.24	39.779
690.42	41.896
690.61	42.607
690.79	43.275
690.98	43.147
691.16	42.681
691.34	41.638
691.53	44.286
691.71	41.300
691.90	43.541
692.08	44.046
692.27	46.714
692.45	45.113
692.63	45.811
692.82	46.228
693.00	46.194
693.19	44.137
693.37	46.547
693.56	45.726
693.74	49.011
693.92	46.120
694.11	48.783
694.29	45.517
694.48	48.744
694.66	48.471
694.84	50.700
695.03	47.223
695.21	48.491
695.40	48.288
695.58	48.276
695.76	48.939
695.95	49.173
696.13	48.134
696.32	50.258
696.50	53.448
696.68	49.821
696.87	49.070
697.05	50.877
697.24	49.410
697.42	52.133
697.60	51.289
697.79	51.308
697.97	52.354
698.16	50.652
698.34	49.593
698.52	50.919
698.71	49.139
698.89	49.454
699.07	49.945
699.26	50.847
699.44	49.749
699.63	50.062
699.81	50.428
699.99	51.078
700.18	50.998
700.36	51.934
700.54	51.749
700.73	53.766
700.91	52.269
701.09	53.426
701.28	52.585
701.46	53.369
701.64	53.092
701.83	52.241
702.01	54.483
702.20	55.088
702.38	54.074
702.56	54.947
702.75	53.438
702.93	53.422
703.11	52.839
703.30	54.078
703.48	53.321
703.66	55.724
703.85	52.976
704.03	56.665
704.21	55.487
704.40	56.001
704.58	52.657
704.76	55.694
704.95	56.031
705.13	55.295
705.31	54.299
705.50	58.170
705.68	55.736
705.86	57.010
706.04	55.688
706.23	57.252
706.41	54.849
706.59	56.988
706.78	55.019
706.96	54.837
707.14	56.230
707.33	56.667
707.51	53.511
707.69	57.553
707.88	55.854
708.06	57.293
708.24	56.363
708.42	57.927
708.61	55.995
708.79	56.467
708.97	57.559
709.16	55.358
709.34	59.568
709.52	56.649
709.71	56.173
709.89	55.940
710.07	54.394
710.25	56.566
710.44	57.465
710.62	58.014
710.80	55.988
710.98	57.953
711.17	56.738
711.35	58.520
711.53	57.208
711.72	57.060
711.90	55.869
712.08	57.368
712.26	54.082
712.45	55.220
712.63	56.071
712.81	56.239
712.99	55.861
713.18	55.743
713.36	55.854
713.54	54.706
713.72	56.141
713.91	57.961
714.09	55.336
714.27	58.834
714.45	57.511
714.64	55.482
714.82	56.251
715.00	57.776
715.18	55.186
715.37	55.076
715.55	56.115
715.73	58.101
715.91	56.816
716.10	58.319
716.28	54.717
716.46	56.139
716.64	55.666
716.83	56.579
717.01	55.413
717.19	58.188
717.37	55.399
717.55	56.845
717.74	57.961
717.92	59.013
718.10	56.720
718.28	56.239
718.47	55.082
718.65	56.589
718.83	57.905
719.01	57.445
719.19	55.558
719.38	56.894
719.56	57.082
719.74	56.821
719.92	55.285
720.10	56.446
720.29	55.799
720.47	55.931
720.65	57.414
720.83	57.046
721.01	54.015
721.20	57.400
721.38	58.222
721.56	56.318
721.74	56.856
721.92	58.512
722.11	54.960
722.29	55.787
722.47	57.812
722.65	61.462
722.83	61.309
723.01	57.670
723.20	60.000
723.38	58.614
723.56	55.295
723.74	59.746
723.92	56.639
724.10	59.218
724.29	54.909
724.47	59.307
724.65	56.948
724.83	60.417
725.01	56.025
725.19	56.531
725.38	55.508
725.56	59.061
725.74	56.605
725.92	61.062
726.10	57.828
726.28	58.923
726.46	58.702
726.65	55.749
726.83	57.544
727.01	60.364
727.19	55.257
727.37	58.844
727.55	55.933
727.73	57.477
727.92	58.908
728.10	55.791
728.28	54.089
728.46	58.295
728.64	57.079
728.82	59.050
729.00	56.767
729.19	58.797
729.37	56.247
729.55	59.972
729.73	55.075
729.91	57.833
730.09	56.312
730.27	59.085
730.45	55.990
730.63	57.192
730.82	55.066
731.00	57.099
731.18	56.371
731.36	60.311
731.54	55.451
731.72	57.540
731.90	58.986
732.08	57.623
732.26	57.186
732.45	57.017
732.63	57.512
732.81	56.995
732.99	57.107
733.17	58.769
733.35	56.071
733.53	59.363
733.71	56.673
733.89	58.649
734.07	57.043
734.25	60.716
734.44	56.629
734.62	55.871
734.80	59.188
734.98	59.466
735.16	55.184
735.34	60.475
735.52	59.192
735.70	60.000
735.88	54.723
736.06	58.942
736.24	60.361
736.42	61.146
736.60	58.333
736.78	61.532
736.97	57.709
737.15	60.299
737.33	58.465
737.51	59.027
737.69	57.167
737.87	57.352
738.05	57.237
738.23	60.045
738.41	58.572
738.59	60.238
738.77	59.933
738.95	62.298
739.13	60.414
739.31	61.503
739.49	61.940
739.67	62.143
739.85	58.693
740.03	59.518
740.21	59.751
740.39	61.313
740.57	58.359
740.75	59.342
740.93	57.317
741.11	59.507
741.30	59.662
741.48	63.568
741.66	62.122
741.84	63.077
742.02	58.580
742.20	61.087
742.38	56.155
742.56	64.379
742.74	58.702
742.92	60.728
743.10	58.640
743.28	61.856
743.46	59.448
743.64	60.079
743.82	57.858
744.00	61.883
744.18	57.276
744.36	59.494
744.54	56.820
744.72	62.149
744.90	61.611
745.08	62.747
745.26	58.070
745.44	62.680
745.62	57.054
745.80	57.973
745.98	55.663
746.16	62.531
746.34	58.815
746.52	59.799
746.70	57.538
746.87	61.130
747.05	60.970
747.23	59.742
747.41	60.806
747.59	61.211
747.77	59.263
747.95	59.700
748.13	58.498
748.31	65.311
748.49	61.067
748.67	60.063
748.85	58.819
749.03	61.807
749.21	55.274
749.39	60.453
749.57	56.658
749.75	60.856
749.93	57.571
750.11	63.561
750.29	59.511
750.47	58.950
750.65	62.147
750.83	57.880
751.01	56.142
751.18	58.271
751.36	57.466
751.54	60.760
751.72	64.152
751.90	58.255
752.08	57.579
752.26	58.009
752.44	56.248
752.62	59.895
752.80	58.787
752.98	59.184
753.16	59.649
753.34	58.807
753.52	61.205
753.69	62.284
753.87	57.531
754.05	59.849
754.23	60.167
754.41	60.389
754.59	57.555
754.77	63.828
754.95	57.207
755.13	62.207
755.31	58.680
755.49	60.458
755.66	57.315
755.84	57.436
756.02	57.950
756.20	62.137
756.38	58.583
756.56	61.826
756.74	57.303
756.92	58.289
757.10	56.121
757.28	60.263
757.45	66.368
757.63	65.182
757.81	56.578
757.99	62.603
758.17	59.434
758.35	61.739
758.53	62.801
758.71	57.737
758.88	56.293
759.06	63.685
759.24	56.178
759.42	58.905
759.60	52.772
759.78	55.285
759.96	51.345
760.13	57.795
760.31	48.598
760.49	55.624
760.67	48.221
760.85	53.375
761.03	49.302
761.21	51.930
761.38	47.673
761.56	53.895
761.74	49.233
761.92	54.153
762.10	47.715
762.28	55.912
762.46	48.997
762.63	51.414
762.81	52.127
762.99	54.420
763.17	52.864
763.35	53.208
763.53	51.878
763.70	52.780
763.88	55.018
764.06	52.593
764.24	51.143
764.42	53.797
764.60	53.682
764.77	55.160
764.95	52.620
765.13	54.972
765.31	52.084
765.49	54.582
765.66	53.491
765.84	57.525
766.02	54.082
766.20	54.922
766.38	52.838
766.56	57.889
766.73	51.615
766.91	57.169
767.09	55.712
767.27	57.467
767.45	58.260
767.62	56.447
767.80	56.763
767.98	57.583
768.16	54.799
768.33	59.796
768.51	55.408
768.69	59.301
768.87	56.064
769.05	58.496
769.22	57.302
769.40	61.055
769.58	56.780
769.76	61.561
769.94	59.044
770.11	57.641
770.29	59.304
770.47	63.742
770.65	55.325
770.82	59.549
771.00	61.308
771.18	57.355
771.36	57.188
771.53	57.213
771.71	52.373
771.89	64.021
772.07	56.236
772.25	61.277
772.42	56.152
772.60	60.570
772.78	57.006
772.96	61.060
773.13	58.053
773.31	59.626
773.49	58.001
773.67	54.435
773.84	58.858
774.02	59.939
774.20	53.346
774.37	61.699
774.55	54.101
774.73	62.271
774.91	56.166
775.08	63.417
775.26	64.745
775.44	61.567
775.62	58.197
775.79	59.591
775.97	55.431
776.15	58.280
776.32	53.454
776.50	66.794
776.68	56.929
776.86	65.659
777.03	55.707
777.21	61.378
777.39	53.145
777.56	62.086
777.74	54.624
777.92	58.723
778.10	56.311
778.27	60.115
778.45	56.358
778.63	56.599
778.80	60.413
778.98	63.884
779.16	64.452
779.34	59.242
779.51	56.507
779.69	58.917
779.87	52.559
780.04	61.500
780.22	53.977
780.40	58.255
780.57	61.552
780.75	58.591
780.93	60.362
781.10	62.860
781.28	61.564
781.46	57.509
781.63	62.065
781.81	61.770
781.99	57.282
782.16	57.043
782.34	56.719
782.52	59.783
782.69	57.550
782.87	59.965
783.05	53.627
783.22	58.194
783.40	56.353
783.58	61.500
783.75	58.087
783.93	62.696
784.11	59.841
784.28	64.581
784.46	51.123
784.64	62.719
784.81	53.574
784.99	60.301
785.17	60.557
785.34	59.121
785.52	53.602
785.69	59.177
785.87	50.977
786.05	63.603
786.22	53.907
786.40	66.444
786.58	58.333
786.75	62.409
786.93	62.559
787.11	52.687
787.28	54.974
787.46	64.031
787.63	48.076
787.81	59.835
787.99	51.869
788.16	54.896
788.34	56.017
788.51	58.734
788.69	52.397
788.87	54.405
789.04	54.185
789.22	58.413
789.39	51.756
789.57	55.608
789.75	50.988
789.92	58.563
790.10	56.201
790.27	59.251
790.45	50.329
790.63	56.429
790.80	52.948
790.98	58.385
791.15	51.355
791.33	53.999
791.51	54.529
791.68	57.972
791.86	57.460
792.03	59.975
792.21	46.429
792.39	59.975
792.56	56.031
792.74	57.937
792.91	57.650
793.09	52.188
793.26	47.714
793.44	64.714
793.62	51.342
793.79	59.133
793.97	52.088
794.14	62.349
794.32	55.510
794.49	60.891
794.67	55.756
794.84	50.474
795.02	47.726
795.20	58.011
795.37	52.256
795.55	56.047
795.72	58.560
795.90	57.776
796.07	57.134
796.25	54.004
796.42	49.515
796.60	56.919
796.77	53.077
796.95	57.301
797.13	45.416
797.30	58.510
797.48	54.831
797.65	58.260
797.83	49.940
798.00	57.381
798.18	51.279
798.35	61.469
798.53	52.022
798.70	54.282
798.88	47.770
799.05	53.045
799.23	53.139
799.40	48.020
799.58	50.160
799.75	54.076
799.93	51.567
800.10	57.545
800.28	48.183
800.45	56.899
800.63	51.397
800.80	60.504
800.98	56.301
801.15	49.932
801.33	54.829
801.50	58.481
801.68	52.302
801.85	51.597
802.03	52.904
802.20	56.669
802.38	50.860
802.55	52.438
802.73	50.388
802.90	51.801
803.08	47.310
803.25	63.162
803.43	59.275
803.60	56.986
803.78	54.512
803.95	52.958
804.13	57.614
804.30	56.493
804.48	49.665
804.65	53.548
804.83	55.164
805.00	53.085
805.17	56.078
805.35	60.452
805.52	48.799
805.70	55.056
805.87	57.567
806.05	52.542
806.22	50.507
806.40	45.409
806.57	54.930
806.75	56.119
806.92	58.327
807.09	53.409
807.27	50.952
807.44	55.136
807.62	49.745
807.79	52.309
807.97	48.108
808.14	60.163
808.31	48.900
808.49	57.414
808.66	44.386
808.84	53.558
809.01	54.862
809.19	55.679
809.36	57.051
809.53	49.047
809.71	53.466
809.88	56.412
810.06	58.603
810.23	59.333
810.41	52.030
810.58	66.126
810.75	52.141
810.93	62.638
811.10	54.689
811.28	57.358
811.45	50.300
811.62	55.233
811.80	50.480
811.97	51.434
812.15	58.446
812.32	48.482
812.49	58.963
812.67	50.600
812.84	52.584
813.02	54.593
813.19	48.918
813.36	49.466
813.54	49.732
813.71	53.650
813.89	54.104
814.06	52.991
814.23	52.688
814.41	48.839
814.58	51.997
814.75	54.996
814.93	53.495
815.10	55.869
815.28	51.852
815.45	47.498
815.62	45.656
815.80	42.334
815.97	41.968
816.14	51.092
816.32	54.071
816.49	45.471
816.66	48.048
816.84	53.266
817.01	56.575
817.18	49.517
817.36	48.033
817.53	56.886
817.71	37.737
817.88	52.059
818.05	40.982
818.23	55.051
818.40	41.694
818.57	51.361
818.75	49.443
818.92	44.179
819.09	44.344
819.27	50.846
819.44	54.160
819.61	44.237
819.79	51.600
819.96	55.507
820.13	49.253
820.31	48.319
820.48	53.393
820.65	45.812
820.82	45.869
821.00	52.616
821.17	42.408
821.34	49.132
821.52	48.866
821.69	43.745
821.86	46.043
822.04	47.527
822.21	50.374
822.38	52.323
822.56	48.548
822.73	54.003
822.90	51.815
823.07	52.280
823.25	51.723
823.42	50.466
823.59	51.102
823.77	53.634
823.94	52.085
824.11	52.747
824.29	52.409
824.46	53.952
824.63	52.813
824.80	54.539
824.98	54.275
825.15	53.449
825.32	50.802
825.49	53.683
825.67	52.871
825.84	56.403
826.01	51.420
826.19	55.293
826.36	49.612
826.53	56.915
826.70	51.903
826.88	51.776
827.05	48.449
827.22	50.490
827.39	50.228
827.57	50.215
827.74	46.068
827.91	50.356
828.08	48.093
828.26	50.988
828.43	47.118
828.60	51.523
828.77	46.573
828.95	53.185
829.12	46.630
829.29	47.081
829.46	48.463
829.64	49.353
829.81	42.107
829.98	51.000
830.15	45.909
830.32	50.308
830.50	43.269
830.67	51.081
830.84	40.510
831.01	42.199
831.19	46.602
831.36	44.101
831.53	46.226
831.70	51.781
831.87	45.171
832.05	55.556
832.22	55.461
832.39	49.838
832.56	44.668
832.74	44.027
832.91	41.550
833.08	55.000
833.25	41.799
833.42	40.251
833.60	42.976
833.77	35.383
833.94	41.644
834.11	37.207
834.28	44.877
834.45	48.785
834.63	41.698
834.80	47.784
834.97	46.348
835.14	42.693
835.31	46.322
835.49	45.131
835.66	44.920
835.83	46.646
836.00	47.506
836.17	46.330
836.34	44.238
836.52	44.647
836.69	53.029
836.86	44.979
837.03	49.870
837.20	45.448
837.37	43.116
837.55	38.293
837.72	49.499
837.89	54.897
838.06	57.156
838.23	55.071
838.40	48.503
838.58	49.337
838.75	50.883
838.92	54.689
839.09	61.945
839.26	55.903
839.43	57.126
839.60	57.252
839.78	68.021
839.95	46.445
840.12	54.187
840.29	52.043
840.46	57.261
840.63	54.597
840.80	49.468
840.98	61.682
841.15	48.958
841.32	44.301
841.49	42.987
841.66	57.980
841.83	40.737
842.00	45.626
842.17	63.730
842.34	52.960
842.52	62.250
842.69	53.018
842.86	52.674
843.03	76.493
843.20	59.079
843.37	57.795
843.54	57.337
843.71	55.072
843.88	78.998
844.06	75.857
844.23	80.357
844.40	66.667
844.57	58.833
844.74	63.469
844.91	77.119
845.08	64.374
845.25	59.339
845.42	73.423
845.59	69.167
845.76	59.188
845.94	73.188
846.11	75.745
846.28	87.500
846.45	82.093
846.62	80.633
846.79	54.348
846.96	62.551
847.13	84.483
847.30	76.282
847.47	69.498
847.64	77.004
847.81	83.224
847.98	83.570
848.15	67.102
848.32	86.728
848.50	94.575
848.67	62.907
848.84	89.051
849.01	79.419
849.18	87.045
849.35	85.472
849.52	74.134
849.69	87.654
849.86	96.852
850.03	74.227
850.20	96.476
850.37	92.759
850.54	77.805
850.71	74.011
850.88	65.487
851.05	79.665
851.22	101.485
851.39	82.289
851.56	74.752
851.73	108.807
851.90	92.739
852.07	100.518
852.24	85.388
852.41	72.650
852.58	87.958
852.75	84.738
852.92	61.787
853.09	96.042
853.26	83.333
853.43	89.051
853.60	82.267
853.77	72.973
853.94	89.027
854.11	91.460
854.28	105.371
854.45	65.880
854.62	82.863
854.79	85.635
854.96	78.341
855.13	86.331
855.30	83.333
855.47	95.427
855.64	70.405
855.81	81.818
855.98	99.167
856.15	97.656
856.32	84.512
856.49	111.538
856.66	71.795
856.83	89.294
857.00	79.235
857.17	93.280
857.34	93.085
857.51	79.839
857.68	96.285
857.85	85.100
858.02	81.106
858.19	91.987
858.36	86.437
858.53	69.760
858.70	97.927
858.87	104.938
859.04	76.667
859.21	82.421
859.38	108.153
859.55	85.567
859.72	125.691
859.89	119.274
860.05	95.332
860.22	92.949
860.39	96.646
860.56	94.833
860.73	83.765
860.90	104.075
861.07	88.451
861.24	64.200
861.41	95.710
861.58	76.225
861.75	108.491
861.92	83.333
862.09	98.705
862.26	93.062
862.43	85.484
862.59	91.039
862.76	77.329
862.93	101.892
863.10	82.029
863.27	64.746
863.44	73.697
863.61	96.626
863.78	90.541
863.95	91.623
864.12	75.172
864.29	91.736
864.45	86.562
864.62	76.658
864.79	84.319
864.96	92.010
865.13	81.868
865.30	98.765
865.47	79.828
865.64	71.842
865.81	84.450
865.97	81.073
866.14	87.632
866.31	90.365
866.48	88.642
866.65	64.829
866.82	102.810
866.99	113.134
867.16	77.562
867.33	118.495
867.49	111.837
867.66	89.351
867.83	76.011
868.00	85.185
868.17	61.364
868.34	90.476
868.51	74.840
868.67	89.736
868.84	88.360
869.01	107.419
869.18	77.741
869.35	109.140
869.52	91.365
869.69	92.837
869.85	65.803
870.02	108.389
870.19	105.751
870.36	100.923
870.53	76.526
870.70	103.857
870.86	86.970
871.03	82.609
871.20	92.623
871.37	88.608
871.54	93.103
871.71	64.619
871.87	73.713
872.04	77.446
872.21	88.793
872.38	100.893
872.55	96.056
872.72	65.668
872.88	77.667
873.05	80.568
873.22	105.957
873.39	81.551
873.56	79.710
873.72	88.220
873.89	74.675
874.06	84.457
874.23	60.837
874.40	91.104
874.56	114.072
874.73	76.071
874.90	65.217
875.07	127.946
875.24	84.557
875.40	68.265
875.57	91.011
875.74	83.380
875.91	74.453
876.08	93.731
876.24	86.721
876.41	102.550
876.58	94.940
876.75	101.408
876.92	88.889
877.08	92.481
877.25	69.797
877.42	87.393
877.59	66.766
877.75	105.202
877.92	75.798
878.09	66.319
878.26	80.940
878.42	85.588
878.59	100.265
878.76	70.574
878.93	79.903
879.09	75.325
879.26	57.609
879.43	79.505
879.60	81.772
879.76	66.402
879.93	65.543
880.10	63.821
880.27	51.243
880.43	57.614
880.60	58.934
880.77	47.160
880.94	48.790
881.10	38.896
881.27	38.964
881.44	36.131
881.61	44.077
881.77	47.427
881.94	38.571
882.11	35.117
882.28	33.126
882.44	38.389
882.61	40.455
882.78	42.826
882.94	48.928
883.11	46.302
883.28	43.284
883.45	45.770
883.61	43.079
883.78	41.632
883.95	46.190
884.11	45.007
884.28	44.116
>>>>>End Processed Spectral Data<<<<<
