SpectraSuite Data File
++++++++++++++++++++++++++++++++++++
Date: Tue Sep 24 04:08:34 EST 2019
User: sgrac
Dark Spectrum Present: Yes
Reference Spectrum Present: Yes
Number of Sampled Component Spectra: 1
Spectrometers: USB4E01596
Integration Time (usec): 100000 (USB4E01596)
Spectra Averaged: 3 (USB4E01596)
Boxcar Smoothing: 0 (USB4E01596)
Correct for Electrical Dark: No (USB4E01596)
Strobe/Lamp Enabled: Yes (USB4E01596)
Correct for Detector Non-linearity: No (USB4E01596)
Correct for Stray Light: No (USB4E01596)
Number of Pixels in Processed Spectrum: 3648
>>>>>Begin Processed Spectral Data<<<<<
178.44	1522.727
178.66	1522.727
178.87	1522.727
179.09	803.774
179.30	884.444
179.52	-1283.333
179.74	915.094
179.95	661.194
180.17	-19600.000
180.38	-15900.000
180.60	546.067
180.82	-3421.429
181.03	1175.676
181.25	-2004.348
181.46	633.333
181.68	5455.556
181.89	-1933.333
182.11	581.818
182.33	1457.143
182.54	685.965
182.76	-922.500
182.97	278.261
183.19	1026.667
183.40	5800.000
183.62	526.829
183.84	578.667
184.05	976.087
184.27	546.914
184.48	-2266.667
184.70	549.462
184.91	597.368
185.13	696.053
185.34	507.527
185.56	1218.750
185.78	1437.500
185.99	2693.750
186.21	522.500
186.42	838.095
186.64	474.194
186.85	981.250
187.07	-3920.000
187.28	-2582.353
187.50	-39400.000
187.72	43700.000
187.93	-2145.833
188.15	1230.233
188.36	650.000
188.58	656.757
188.79	-5971.429
189.01	-3669.231
189.22	1956.000
189.44	576.744
189.65	751.515
189.87	-5985.714
190.09	1114.706
190.30	1142.105
190.52	2414.286
190.73	7533.333
190.95	1184.211
191.16	498.734
191.38	3836.364
191.59	3550.000
191.81	1494.118
192.02	1068.085
192.24	659.184
192.45	2311.765
192.67	671.429
192.88	478.571
193.10	657.576
193.31	493.939
193.53	973.684
193.74	-39100.000
193.96	773.239
194.18	427.358
194.39	550.000
194.61	466.667
194.82	401.695
195.04	473.832
195.25	0.000
195.47	-43300.000
195.68	475.000
195.90	495.294
196.11	609.639
196.33	906.977
196.54	481.651
196.76	1436.364
196.97	-3508.333
197.19	612.791
197.40	907.018
197.62	835.849
197.83	517.308
198.05	747.945
198.26	0.000
198.48	-868.889
198.69	1530.000
198.91	5585.714
199.12	-10550.000
199.34	567.778
199.55	-47600.000
199.77	2522.222
199.98	791.549
200.20	340.496
200.41	663.158
200.63	1388.235
200.84	-3592.308
201.06	478.481
201.27	1784.000
201.49	1019.149
201.70	501.149
201.91	669.014
202.13	729.851
202.34	-1700.000
202.56	333.099
202.77	5862.500
202.99	6450.000
203.20	649.275
203.42	1332.432
203.63	4612.500
203.85	419.328
204.06	776.923
204.28	395.763
204.49	1493.939
204.71	-1300.000
204.92	402.174
205.14	1503.226
205.35	1102.381
205.56	524.762
205.78	-1038.000
205.99	1151.282
206.21	794.737
206.42	725.758
206.64	2108.696
206.85	610.843
207.07	-703.226
207.28	1712.000
207.50	538.043
207.71	781.250
207.93	14500.000
208.14	1273.684
208.35	-2600.000
208.57	-1234.483
208.78	348.252
209.00	1085.000
209.21	508.911
209.43	-6583.333
209.64	279.545
209.86	864.912
210.07	1083.333
210.28	1355.172
210.50	7650.000
210.71	1296.774
210.93	-2920.000
211.14	841.818
211.36	440.625
211.57	1788.889
211.78	4944.444
212.00	-2222.222
212.21	1195.122
212.43	900.000
212.64	604.878
212.86	1969.565
213.07	602.941
213.29	3057.143
213.50	336.508
213.71	557.831
213.93	338.462
214.14	414.530
214.36	469.412
214.57	-4520.000
214.78	1192.308
215.00	413.223
215.21	1172.500
215.43	1716.000
215.64	428.704
215.86	495.283
216.07	10075.000
216.28	662.687
216.50	482.353
216.71	1644.828
216.93	-1016.279
217.14	469.697
217.35	782.143
217.57	403.419
217.78	653.226
218.00	467.677
218.21	567.606
218.42	1781.481
218.64	3180.000
218.85	873.214
219.07	404.202
219.28	604.615
219.49	463.303
219.71	768.571
219.92	1648.000
220.14	854.348
220.35	4018.182
220.56	1070.732
220.78	1218.182
220.99	578.462
221.21	693.243
221.42	581.081
221.63	8875.000
221.85	1589.286
222.06	1729.167
222.28	574.684
222.49	534.409
222.70	467.000
222.92	777.193
223.13	2283.333
223.34	1318.750
223.56	395.276
223.77	272.917
223.99	483.333
224.20	323.288
224.41	584.000
224.63	514.286
224.84	307.143
225.05	323.200
225.27	843.137
225.48	425.253
225.69	426.042
225.91	500.000
226.12	275.000
226.34	254.190
226.55	205.106
226.76	246.842
226.98	289.375
227.19	215.686
227.40	185.714
227.62	214.563
227.83	146.961
228.04	139.157
228.26	125.225
228.47	96.774
228.69	86.939
228.90	61.835
229.11	65.127
229.33	54.951
229.54	58.831
229.75	45.969
229.97	52.443
230.18	46.059
230.39	38.732
230.61	40.271
230.82	51.555
231.03	45.016
231.25	58.451
231.46	52.357
231.67	53.690
231.89	66.544
232.10	56.620
232.31	60.808
232.53	77.866
232.74	69.764
232.95	78.233
233.17	81.469
233.38	74.372
233.59	81.646
233.81	79.452
234.02	89.150
234.23	89.199
234.45	91.547
234.66	71.818
234.87	75.504
235.09	72.504
235.30	67.442
235.51	65.695
235.73	73.715
235.94	63.166
236.15	79.048
236.36	77.542
236.58	59.492
236.79	63.249
237.00	66.179
237.22	64.286
237.43	69.020
237.64	69.667
237.86	57.895
238.07	70.451
238.28	74.074
238.50	57.937
238.71	67.068
238.92	57.784
239.13	63.585
239.35	64.412
239.56	59.456
239.77	71.351
239.99	45.735
240.20	63.120
240.41	57.939
240.63	53.715
240.84	49.117
241.05	45.052
241.26	44.178
241.48	38.401
241.69	35.658
241.90	34.186
242.12	28.535
242.33	26.240
242.54	22.137
242.75	23.960
242.97	27.083
243.18	22.707
243.39	19.459
243.61	24.862
243.82	19.572
244.03	19.958
244.24	21.393
244.46	22.777
244.67	22.682
244.88	25.837
245.09	19.842
245.31	23.363
245.52	25.014
245.73	25.990
245.95	40.562
246.16	27.813
246.37	22.216
246.58	22.938
246.80	21.002
247.01	18.185
247.22	17.371
247.43	14.128
247.65	13.068
247.86	13.789
248.07	12.119
248.28	11.187
248.50	11.029
248.71	12.444
248.92	10.919
249.13	12.885
249.35	11.703
249.56	13.952
249.77	12.166
249.98	13.204
250.20	19.757
250.41	15.840
250.62	20.379
250.83	21.234
251.05	23.942
251.26	25.670
251.47	26.234
251.68	25.732
251.90	24.426
252.11	23.188
252.32	28.280
252.53	24.611
252.75	22.047
252.96	23.972
253.17	18.789
253.38	20.157
253.59	19.493
253.81	19.588
254.02	20.291
254.23	23.798
254.44	21.414
254.66	23.989
254.87	22.614
255.08	29.308
255.29	31.579
255.50	30.033
255.72	31.564
255.93	36.003
256.14	39.548
256.35	31.123
256.57	33.790
256.78	30.828
256.99	27.043
257.20	32.038
257.41	30.139
257.63	28.752
257.84	29.528
258.05	30.579
258.26	14.995
258.47	25.624
258.69	21.305
258.90	21.968
259.11	19.588
259.32	17.890
259.53	14.636
259.75	14.286
259.96	10.886
260.17	11.653
260.38	9.716
260.59	10.168
260.81	9.544
261.02	9.264
261.23	8.483
261.44	9.754
261.65	9.656
261.87	9.014
262.08	9.494
262.29	11.542
262.50	11.376
262.71	13.762
262.92	13.301
263.14	13.653
263.35	15.969
263.56	20.072
263.77	18.068
263.98	17.302
264.20	20.523
264.41	16.403
264.62	19.129
264.83	17.302
265.04	23.135
265.25	17.716
265.47	20.317
265.68	20.600
265.89	20.798
266.10	17.655
266.31	21.582
266.52	17.331
266.74	17.579
266.95	15.225
267.16	17.251
267.37	17.943
267.58	17.294
267.79	15.992
268.01	14.461
268.22	14.082
268.43	17.554
268.64	15.463
268.85	13.232
269.06	12.320
269.27	16.371
269.49	14.493
269.70	16.148
269.91	14.250
270.12	16.641
270.33	15.970
270.54	12.842
270.75	14.798
270.97	15.275
271.18	15.049
271.39	13.838
271.60	15.241
271.81	11.781
272.02	13.865
272.23	12.297
272.45	11.454
272.66	11.386
272.87	12.190
273.08	10.798
273.29	12.647
273.50	11.812
273.71	12.067
273.92	8.496
274.14	11.560
274.35	12.377
274.56	11.431
274.77	8.505
274.98	13.639
275.19	14.456
275.40	11.375
275.61	10.405
275.83	15.060
276.04	13.814
276.25	17.516
276.46	14.751
276.67	16.258
276.88	16.033
277.09	13.115
277.30	13.432
277.51	14.857
277.73	13.318
277.94	12.755
278.15	14.789
278.36	15.147
278.57	14.511
278.78	14.252
278.99	13.481
279.20	16.692
279.41	20.952
279.62	11.348
279.84	11.602
280.05	14.051
280.26	13.236
280.47	13.887
280.68	14.603
280.89	12.120
281.10	13.261
281.31	15.823
281.52	13.397
281.73	12.092
281.94	12.225
282.16	13.325
282.37	12.279
282.58	11.508
282.79	13.554
283.00	10.216
283.21	9.272
283.42	11.437
283.63	11.394
283.84	11.858
284.05	10.973
284.26	10.829
284.47	10.147
284.68	10.992
284.89	9.089
285.11	9.418
285.32	11.031
285.53	12.449
285.74	11.754
285.95	9.825
286.16	9.752
286.37	7.595
286.58	8.680
286.79	8.125
287.00	8.876
287.21	8.489
287.42	9.844
287.63	7.320
287.84	8.768
288.05	10.844
288.26	8.447
288.48	9.462
288.69	8.883
288.90	10.677
289.11	12.209
289.32	10.949
289.53	10.369
289.74	9.494
289.95	11.030
290.16	10.552
290.37	8.338
290.58	8.876
290.79	9.295
291.00	8.103
291.21	9.921
291.42	9.149
291.63	9.012
291.84	9.853
292.05	8.942
292.26	8.310
292.47	10.045
292.68	10.181
292.89	10.328
293.10	10.904
293.31	10.793
293.52	9.318
293.73	9.480
293.94	11.813
294.15	11.129
294.36	10.799
294.57	12.367
294.79	10.968
295.00	9.762
295.21	11.219
295.42	9.602
295.63	10.634
295.84	10.103
296.05	8.403
296.26	8.983
296.47	8.026
296.68	9.317
296.89	9.456
297.10	8.956
297.31	9.249
297.52	7.966
297.73	8.020
297.94	7.870
298.15	8.089
298.36	7.459
298.57	6.966
298.78	8.590
298.99	7.611
299.20	7.589
299.41	8.105
299.62	8.354
299.83	7.644
300.04	8.553
300.25	9.419
300.46	8.434
300.67	10.396
300.88	8.872
301.09	7.981
301.30	10.442
301.50	7.666
301.71	10.561
301.92	10.584
302.13	8.003
302.34	6.735
302.55	9.662
302.76	7.790
302.97	10.365
303.18	9.209
303.39	11.303
303.60	10.448
303.81	11.750
304.02	8.431
304.23	8.942
304.44	8.669
304.65	11.444
304.86	9.027
305.07	9.073
305.28	9.438
305.49	9.075
305.70	11.155
305.91	8.449
306.12	7.942
306.33	10.193
306.54	8.508
306.75	10.692
306.96	10.630
307.17	8.333
307.38	9.902
307.58	9.222
307.79	10.413
308.00	10.021
308.21	10.823
308.42	9.828
308.63	9.064
308.84	9.641
309.05	10.387
309.26	6.651
309.47	7.788
309.68	9.158
309.89	9.865
310.10	8.544
310.31	8.486
310.52	7.932
310.73	9.594
310.94	6.511
311.14	8.385
311.35	7.409
311.56	7.907
311.77	7.269
311.98	6.425
312.19	6.830
312.40	7.021
312.61	5.852
312.82	8.484
313.03	8.074
313.24	9.082
313.45	7.930
313.66	9.039
313.86	9.859
314.07	8.487
314.28	9.578
314.49	9.292
314.70	9.942
314.91	10.166
315.12	9.639
315.33	9.909
315.54	8.495
315.75	9.365
315.96	9.380
316.16	8.380
316.37	10.897
316.58	8.593
316.79	9.986
317.00	9.965
317.21	9.734
317.42	10.903
317.63	11.030
317.84	9.650
318.05	10.539
318.25	10.174
318.46	11.104
318.67	9.526
318.88	10.589
319.09	8.777
319.30	10.573
319.51	10.896
319.72	9.456
319.93	9.618
320.13	8.528
320.34	10.971
320.55	7.541
320.76	10.197
320.97	9.209
321.18	10.987
321.39	11.071
321.60	10.067
321.80	11.582
322.01	11.371
322.22	9.321
322.43	9.330
322.64	9.709
322.85	9.733
323.06	11.171
323.27	9.802
323.47	11.336
323.68	10.788
323.89	9.317
324.10	10.599
324.31	9.418
324.52	8.444
324.73	9.289
324.93	7.295
325.14	9.597
325.35	9.172
325.56	9.807
325.77	8.938
325.98	8.584
326.19	8.903
326.39	6.141
326.60	9.066
326.81	8.293
327.02	8.544
327.23	7.479
327.44	9.918
327.64	6.778
327.85	6.974
328.06	7.115
328.27	9.989
328.48	9.549
328.69	9.362
328.90	8.516
329.10	9.009
329.31	9.861
329.52	9.232
329.73	10.035
329.94	9.330
330.15	9.140
330.35	9.996
330.56	9.061
330.77	7.989
330.98	9.867
331.19	9.614
331.39	10.329
331.60	10.072
331.81	6.879
332.02	9.056
332.23	11.039
332.44	9.382
332.64	9.250
332.85	9.050
333.06	8.851
333.27	8.700
333.48	8.929
333.68	8.426
333.89	9.406
334.10	6.620
334.31	9.094
334.52	8.515
334.72	8.479
334.93	8.726
335.14	7.792
335.35	7.968
335.56	9.207
335.76	8.231
335.97	8.791
336.18	7.767
336.39	8.413
336.60	9.123
336.80	7.896
337.01	8.336
337.22	7.393
337.43	9.855
337.64	8.381
337.84	8.682
338.05	7.554
338.26	9.580
338.47	8.039
338.68	6.986
338.88	8.735
339.09	7.211
339.30	7.545
339.51	6.950
339.71	8.279
339.92	7.505
340.13	7.632
340.34	8.104
340.55	9.237
340.75	8.297
340.96	6.804
341.17	9.357
341.38	7.515
341.58	8.732
341.79	8.786
342.00	7.107
342.21	7.795
342.41	7.532
342.62	7.683
342.83	9.118
343.04	7.512
343.24	7.736
343.45	7.653
343.66	7.415
343.87	8.193
344.07	7.283
344.28	7.061
344.49	7.503
344.70	8.407
344.90	6.825
345.11	6.730
345.32	7.139
345.53	6.843
345.73	6.499
345.94	8.292
346.15	7.978
346.36	6.913
346.56	6.512
346.77	7.510
346.98	6.917
347.19	7.555
347.39	5.501
347.60	6.601
347.81	7.653
348.02	8.727
348.22	6.884
348.43	7.216
348.64	7.550
348.84	6.990
349.05	7.403
349.26	7.409
349.47	5.930
349.67	6.454
349.88	7.587
350.09	7.431
350.30	8.290
350.50	6.126
350.71	7.337
350.92	6.896
351.12	7.833
351.33	6.485
351.54	7.651
351.74	6.540
351.95	6.812
352.16	7.023
352.37	8.470
352.57	7.222
352.78	8.410
352.99	7.275
353.19	8.119
353.40	7.776
353.61	8.556
353.82	7.485
354.02	8.046
354.23	7.703
354.44	8.510
354.64	8.392
354.85	7.766
355.06	6.763
355.26	5.677
355.47	7.489
355.68	9.542
355.88	7.486
356.09	6.670
356.30	5.733
356.51	7.657
356.71	7.018
356.92	4.938
357.13	8.191
357.33	7.759
357.54	6.785
357.75	6.452
357.95	7.298
358.16	6.578
358.37	8.010
358.57	6.048
358.78	7.466
358.99	6.355
359.19	6.507
359.40	6.884
359.61	6.700
359.81	8.255
360.02	8.432
360.23	7.251
360.43	6.726
360.64	6.569
360.85	7.235
361.05	6.335
361.26	7.768
361.47	7.083
361.67	7.009
361.88	5.123
362.09	6.718
362.29	5.615
362.50	5.690
362.70	4.999
362.91	7.661
363.12	5.703
363.32	5.572
363.53	6.291
363.74	7.125
363.94	5.181
364.15	6.963
364.36	7.935
364.56	6.182
364.77	7.602
364.98	9.654
365.18	6.889
365.39	8.215
365.59	6.377
365.80	6.881
366.01	7.973
366.21	7.016
366.42	6.893
366.63	8.492
366.83	7.122
367.04	5.706
367.24	9.364
367.45	5.377
367.66	6.609
367.86	8.551
368.07	7.060
368.28	7.244
368.48	7.121
368.69	6.800
368.89	8.193
369.10	7.465
369.31	7.776
369.51	8.138
369.72	8.702
369.92	9.172
370.13	6.642
370.34	7.569
370.54	5.829
370.75	7.750
370.95	7.444
371.16	7.506
371.37	6.935
371.57	7.647
371.78	8.238
371.98	8.120
372.19	7.269
372.40	8.230
372.60	8.464
372.81	7.814
373.01	6.453
373.22	6.892
373.43	7.764
373.63	7.750
373.84	8.508
374.04	7.876
374.25	8.111
374.46	8.307
374.66	8.174
374.87	8.792
375.07	6.334
375.28	7.294
375.48	7.688
375.69	8.727
375.90	6.022
376.10	6.459
376.31	6.827
376.51	6.949
376.72	7.323
376.92	5.993
377.13	8.000
377.34	8.453
377.54	7.317
377.75	9.148
377.95	7.791
378.16	9.065
378.36	8.760
378.57	8.596
378.77	7.999
378.98	8.785
379.19	7.674
379.39	7.723
379.60	8.871
379.80	8.527
380.01	9.120
380.21	7.966
380.42	8.944
380.62	7.899
380.83	8.656
381.04	7.618
381.24	8.887
381.45	9.214
381.65	7.214
381.86	8.521
382.06	10.018
382.27	7.937
382.47	8.403
382.68	10.571
382.88	8.406
383.09	9.013
383.29	8.690
383.50	10.085
383.71	9.281
383.91	9.468
384.12	8.212
384.32	9.625
384.53	8.329
384.73	7.859
384.94	8.380
385.14	9.531
385.35	8.363
385.55	10.050
385.76	9.734
385.96	9.796
386.17	9.740
386.37	10.647
386.58	10.289
386.78	11.071
386.99	9.230
387.19	11.133
387.40	9.314
387.60	12.415
387.81	10.737
388.01	10.538
388.22	11.431
388.42	12.903
388.63	12.863
388.83	13.352
389.04	10.379
389.24	11.633
389.45	11.525
389.65	10.898
389.86	11.580
390.06	11.398
390.27	11.265
390.47	11.334
390.68	11.071
390.88	14.080
391.09	13.383
391.29	12.836
391.50	11.843
391.70	13.012
391.91	11.658
392.11	12.892
392.32	12.786
392.52	13.738
392.73	14.031
392.93	14.437
393.14	13.019
393.34	13.622
393.55	14.380
393.75	13.417
393.95	13.244
394.16	14.566
394.36	14.910
394.57	14.667
394.77	14.502
394.98	14.439
395.18	14.964
395.39	14.776
395.59	14.857
395.80	15.214
396.00	15.266
396.21	15.864
396.41	13.834
396.61	16.359
396.82	15.428
397.02	17.396
397.23	15.437
397.43	15.274
397.64	14.184
397.84	17.362
398.05	13.772
398.25	16.393
398.45	15.040
398.66	16.571
398.86	15.974
399.07	16.350
399.27	16.428
399.48	17.096
399.68	15.724
399.89	15.952
400.09	17.600
400.29	16.165
400.50	15.957
400.70	17.471
400.91	15.733
401.11	16.192
401.32	16.651
401.52	15.811
401.72	15.821
401.93	18.124
402.13	16.018
402.34	16.963
402.54	14.640
402.75	18.013
402.95	14.826
403.15	17.350
403.36	15.206
403.56	17.371
403.77	15.735
403.97	16.999
404.17	15.279
404.38	16.901
404.58	15.589
404.79	16.952
404.99	16.392
405.19	17.103
405.40	16.439
405.60	17.118
405.81	15.881
406.01	17.224
406.21	16.181
406.42	17.336
406.62	16.634
406.83	17.669
407.03	17.031
407.23	16.965
407.44	15.769
407.64	16.771
407.85	16.599
408.05	17.680
408.25	16.860
408.46	17.749
408.66	16.839
408.87	16.490
409.07	16.194
409.27	16.868
409.48	16.680
409.68	17.595
409.88	15.098
410.09	16.926
410.29	16.814
410.50	17.853
410.70	15.736
410.90	16.847
411.11	15.568
411.31	16.581
411.51	17.250
411.72	17.281
411.92	16.562
412.12	16.841
412.33	16.712
412.53	16.693
412.74	14.566
412.94	16.997
413.14	16.884
413.35	16.693
413.55	16.013
413.75	17.933
413.96	15.980
414.16	16.141
414.36	16.678
414.57	15.532
414.77	15.265
414.97	16.735
415.18	15.962
415.38	15.989
415.58	15.790
415.79	15.678
415.99	15.156
416.19	16.807
416.40	16.144
416.60	16.217
416.80	15.408
417.01	16.157
417.21	14.838
417.41	16.340
417.62	15.559
417.82	15.923
418.02	15.130
418.23	16.069
418.43	15.293
418.63	15.621
418.84	15.054
419.04	15.581
419.24	15.346
419.45	15.810
419.65	15.695
419.85	15.729
420.06	16.002
420.26	15.853
420.46	15.353
420.67	15.540
420.87	15.467
421.07	15.361
421.28	15.127
421.48	15.796
421.68	15.281
421.88	15.354
422.09	15.321
422.29	15.392
422.49	15.136
422.70	15.822
422.90	15.506
423.10	15.582
423.31	15.816
423.51	15.808
423.71	15.079
423.91	15.235
424.12	15.389
424.32	15.521
424.52	15.099
424.73	14.887
424.93	15.029
425.13	14.849
425.33	14.579
425.54	15.186
425.74	15.460
425.94	15.564
426.15	15.271
426.35	15.293
426.55	15.567
426.75	15.587
426.96	15.464
427.16	15.538
427.36	15.671
427.57	15.892
427.77	16.042
427.97	15.842
428.17	15.347
428.38	16.135
428.58	14.678
428.78	16.800
428.98	14.982
429.19	15.612
429.39	14.923
429.59	15.926
429.79	14.060
430.00	14.469
430.20	14.278
430.40	15.759
430.60	14.801
430.81	15.574
431.01	14.917
431.21	16.330
431.41	15.303
431.62	15.604
431.82	15.363
432.02	16.812
432.22	14.396
432.43	15.133
432.63	14.845
432.83	15.195
433.03	15.050
433.24	15.076
433.44	15.456
433.64	15.841
433.84	15.026
434.05	15.745
434.25	15.673
434.45	16.156
434.65	16.253
434.85	16.709
435.06	16.335
435.26	16.687
435.46	16.452
435.66	16.858
435.87	16.599
436.07	16.870
436.27	16.639
436.47	17.430
436.67	16.455
436.88	17.111
437.08	16.798
437.28	16.754
437.48	16.952
437.69	17.129
437.89	16.850
438.09	17.149
438.29	16.979
438.49	17.514
438.70	17.167
438.90	16.599
439.10	17.237
439.30	17.094
439.50	16.464
439.71	17.269
439.91	17.382
440.11	17.340
440.31	17.125
440.51	17.007
440.72	17.167
440.92	17.312
441.12	17.513
441.32	17.556
441.52	17.523
441.72	17.839
441.93	18.043
442.13	18.053
442.33	18.139
442.53	18.627
442.73	18.011
442.94	18.296
443.14	18.582
443.34	19.106
443.54	18.581
443.74	18.781
443.94	18.457
444.15	18.027
444.35	18.324
444.55	18.492
444.75	18.594
444.95	18.644
445.15	18.236
445.36	18.711
445.56	18.445
445.76	18.150
445.96	17.992
446.16	17.473
446.36	18.175
446.57	18.323
446.77	17.996
446.97	18.264
447.17	18.363
447.37	18.668
447.57	18.447
447.77	18.859
447.98	19.036
448.18	18.753
448.38	19.227
448.58	19.236
448.78	19.630
448.98	19.216
449.18	18.992
449.39	19.451
449.59	19.475
449.79	19.711
449.99	19.982
450.19	19.932
450.39	19.795
450.59	19.655
450.79	19.805
451.00	19.719
451.20	21.341
451.40	19.906
451.60	19.517
451.80	20.017
452.00	19.598
452.20	19.787
452.40	19.644
452.61	20.060
452.81	19.675
453.01	19.712
453.21	19.756
453.41	19.902
453.61	19.585
453.81	20.236
454.01	20.178
454.21	20.193
454.42	19.932
454.62	20.944
454.82	19.949
455.02	20.502
455.22	19.991
455.42	20.412
455.62	19.680
455.82	19.841
456.02	20.066
456.23	20.292
456.43	20.951
456.63	19.762
456.83	20.205
457.03	20.142
457.23	19.812
457.43	20.164
457.63	20.280
457.83	20.346
458.03	19.469
458.23	19.979
458.43	19.933
458.64	19.558
458.84	19.639
459.04	19.848
459.24	19.502
459.44	19.240
459.64	19.395
459.84	19.302
460.04	19.126
460.24	19.465
460.44	19.696
460.64	19.706
460.84	19.816
461.04	19.814
461.24	20.433
461.45	19.615
461.65	20.171
461.85	20.978
462.05	20.881
462.25	20.967
462.45	21.000
462.65	20.772
462.85	20.643
463.05	21.068
463.25	20.816
463.45	21.441
463.65	20.838
463.85	20.811
464.05	20.983
464.25	20.850
464.45	21.480
464.65	20.937
464.85	21.295
465.05	20.246
465.26	20.703
465.46	21.052
465.66	20.776
465.86	21.299
466.06	21.055
466.26	20.476
466.46	20.568
466.66	20.755
466.86	20.845
467.06	20.685
467.26	20.941
467.46	21.523
467.66	20.645
467.86	21.326
468.06	20.723
468.26	21.021
468.46	21.195
468.66	21.257
468.86	21.278
469.06	21.430
469.26	21.227
469.46	21.329
469.66	21.470
469.86	21.184
470.06	21.080
470.26	21.772
470.46	20.941
470.66	21.715
470.86	20.851
471.06	21.460
471.26	21.281
471.46	21.027
471.66	21.907
471.86	21.307
472.06	21.812
472.26	22.181
472.46	21.670
472.66	21.755
472.86	21.060
473.06	22.104
473.26	21.538
473.46	22.019
473.66	21.728
473.86	22.066
474.06	22.171
474.26	22.006
474.46	21.032
474.66	22.170
474.86	22.137
475.06	22.499
475.26	22.049
475.46	22.366
475.66	21.551
475.86	22.099
476.06	22.575
476.26	22.411
476.46	22.252
476.66	22.001
476.86	22.169
477.06	22.335
477.26	21.988
477.46	22.136
477.65	21.627
477.85	22.137
478.05	21.885
478.25	22.316
478.45	22.358
478.65	22.442
478.85	22.360
479.05	22.326
479.25	22.456
479.45	22.624
479.65	22.307
479.85	22.739
480.05	22.224
480.25	22.390
480.45	22.184
480.65	22.411
480.85	22.339
481.05	21.791
481.25	22.398
481.44	22.364
481.64	22.191
481.84	22.074
482.04	21.839
482.24	21.578
482.44	21.378
482.64	21.221
482.84	21.078
483.04	21.156
483.24	20.350
483.44	20.121
483.64	19.532
483.84	19.743
484.04	20.286
484.23	21.057
484.43	21.152
484.63	22.224
484.83	22.996
485.03	23.831
485.23	23.843
485.43	23.559
485.63	23.233
485.83	23.171
486.03	23.266
486.23	23.155
486.42	22.847
486.62	22.483
486.82	21.867
487.02	21.576
487.22	21.513
487.42	21.282
487.62	21.098
487.82	21.317
488.02	21.301
488.22	21.562
488.41	21.573
488.61	21.770
488.81	22.057
489.01	22.095
489.21	22.456
489.41	22.438
489.61	22.671
489.81	22.739
490.01	23.097
490.20	22.782
490.40	22.439
490.60	22.690
490.80	22.179
491.00	22.065
491.20	21.450
491.40	21.080
491.60	20.822
491.79	20.678
491.99	21.268
492.19	21.280
492.39	21.561
492.59	21.511
492.79	21.783
492.99	22.092
493.19	22.301
493.38	22.672
493.58	22.664
493.78	22.844
493.98	23.018
494.18	22.832
494.38	22.789
494.58	22.954
494.77	22.578
494.97	22.720
495.17	22.965
495.37	22.864
495.57	22.916
495.77	22.435
495.96	22.895
496.16	22.352
496.36	21.948
496.56	22.266
496.76	22.066
496.96	21.838
497.15	21.970
497.35	21.816
497.55	22.445
497.75	21.971
497.95	21.747
498.15	21.647
498.34	22.117
498.54	21.994
498.74	22.554
498.94	22.490
499.14	22.699
499.34	22.686
499.53	22.496
499.73	22.117
499.93	22.285
500.13	22.382
500.33	22.413
500.52	22.577
500.72	21.709
500.92	22.315
501.12	22.359
501.32	22.351
501.52	22.518
501.71	21.980
501.91	22.900
502.11	22.578
502.31	22.360
502.51	21.984
502.70	22.400
502.90	22.355
503.10	22.224
503.30	22.042
503.50	21.985
503.69	22.414
503.89	22.401
504.09	22.557
504.29	22.263
504.48	22.487
504.68	22.045
504.88	22.054
505.08	22.249
505.28	22.473
505.47	21.854
505.67	22.227
505.87	22.272
506.07	22.273
506.27	22.421
506.46	22.434
506.66	22.013
506.86	22.611
507.06	22.821
507.25	22.685
507.45	22.223
507.65	22.078
507.85	22.209
508.04	22.445
508.24	21.867
508.44	22.334
508.64	21.616
508.83	21.856
509.03	22.017
509.23	21.928
509.43	22.064
509.63	22.132
509.82	21.705
510.02	21.823
510.22	22.212
510.42	22.088
510.61	22.359
510.81	22.057
511.01	22.491
511.21	22.709
511.40	22.335
511.60	22.488
511.80	22.489
511.99	22.425
512.19	22.392
512.39	22.579
512.59	22.244
512.78	22.811
512.98	22.534
513.18	22.966
513.38	22.638
513.57	23.034
513.77	23.209
513.97	22.910
514.17	23.138
514.36	23.124
514.56	23.001
514.76	23.312
514.95	23.364
515.15	23.617
515.35	23.513
515.55	23.452
515.74	23.657
515.94	22.907
516.14	23.069
516.33	23.681
516.53	23.671
516.73	23.539
516.93	23.128
517.12	23.735
517.32	23.019
517.52	23.424
517.71	23.170
517.91	23.010
518.11	22.675
518.30	23.470
518.50	22.318
518.70	22.967
518.90	22.813
519.09	23.096
519.29	23.602
519.49	23.341
519.68	23.630
519.88	23.822
520.08	23.911
520.27	24.108
520.47	24.417
520.67	24.220
520.86	24.584
521.06	24.887
521.26	24.596
521.45	24.323
521.65	24.522
521.85	24.602
522.04	24.455
522.24	24.893
522.44	24.736
522.63	24.557
522.83	24.740
523.03	24.497
523.22	24.779
523.42	25.046
523.62	24.810
523.81	24.658
524.01	24.720
524.21	24.562
524.40	24.559
524.60	24.500
524.80	24.585
524.99	23.917
525.19	23.840
525.39	23.480
525.58	23.791
525.78	23.964
525.98	24.044
526.17	24.038
526.37	24.266
526.57	23.961
526.76	24.576
526.96	24.070
527.15	24.184
527.35	24.123
527.55	24.117
527.74	23.702
527.94	23.588
528.14	23.277
528.33	22.615
528.53	22.547
528.72	23.100
528.92	23.543
529.12	23.796
529.31	24.000
529.51	24.178
529.71	24.310
529.90	24.666
530.10	24.942
530.29	25.304
530.49	25.391
530.69	25.658
530.88	25.637
531.08	25.208
531.28	25.348
531.47	24.897
531.67	24.547
531.86	24.683
532.06	24.306
532.26	24.607
532.45	24.294
532.65	24.325
532.84	23.758
533.04	23.328
533.24	23.297
533.43	23.424
533.63	23.986
533.82	24.047
534.02	24.361
534.22	24.175
534.41	24.407
534.61	24.387
534.80	24.528
535.00	25.186
535.19	25.250
535.39	25.546
535.59	25.307
535.78	25.085
535.98	24.930
536.17	24.353
536.37	24.580
536.57	24.369
536.76	24.592
536.96	24.099
537.15	24.563
537.35	24.643
537.54	24.655
537.74	25.105
537.93	24.675
538.13	24.829
538.33	24.939
538.52	25.261
538.72	25.451
538.91	25.643
539.11	25.239
539.30	25.091
539.50	24.926
539.70	25.380
539.89	24.597
540.09	24.626
540.28	24.157
540.48	24.313
540.67	23.831
540.87	23.304
541.06	23.225
541.26	23.451
541.45	23.756
541.65	23.599
541.85	24.033
542.04	23.918
542.24	24.406
542.43	24.278
542.63	24.703
542.82	24.636
543.02	25.065
543.21	25.091
543.41	25.343
543.60	25.356
543.80	25.544
543.99	25.137
544.19	25.137
544.38	24.926
544.58	24.727
544.77	24.918
544.97	25.055
545.16	24.913
545.36	24.927
545.56	24.981
545.75	25.284
545.95	25.022
546.14	24.783
546.34	24.794
546.53	25.068
546.73	24.716
546.92	24.900
547.12	24.586
547.31	25.006
547.51	25.182
547.70	25.123
547.90	25.311
548.09	24.719
548.29	25.256
548.48	25.636
548.68	25.880
548.87	26.094
549.07	26.048
549.26	25.478
549.46	25.922
549.65	26.240
549.84	25.865
550.04	25.902
550.23	25.896
550.43	26.011
550.62	25.968
550.82	26.279
551.01	25.729
551.21	25.996
551.40	26.364
551.60	26.080
551.79	26.052
551.99	25.933
552.18	26.117
552.38	25.702
552.57	25.469
552.77	25.822
552.96	25.936
553.16	25.841
553.35	26.390
553.54	26.269
553.74	26.108
553.93	25.905
554.13	26.437
554.32	26.322
554.52	26.699
554.71	26.246
554.91	26.677
555.10	26.503
555.29	26.792
555.49	26.649
555.68	26.741
555.88	26.643
556.07	25.709
556.27	25.995
556.46	26.865
556.66	26.565
556.85	26.589
557.04	27.069
557.24	26.740
557.43	26.383
557.63	26.902
557.82	26.125
558.02	27.166
558.21	26.939
558.40	27.014
558.60	27.018
558.79	26.730
558.99	27.386
559.18	26.641
559.38	27.206
559.57	27.344
559.76	26.704
559.96	28.211
560.15	26.927
560.35	27.104
560.54	26.760
560.73	26.671
560.93	27.604
561.12	26.808
561.32	27.181
561.51	27.295
561.70	27.162
561.90	26.852
562.09	27.684
562.29	26.960
562.48	26.753
562.67	27.072
562.87	27.290
563.06	27.058
563.26	27.750
563.45	26.981
563.64	27.805
563.84	27.548
564.03	27.411
564.23	26.869
564.42	27.356
564.61	27.090
564.81	27.431
565.00	27.361
565.20	27.423
565.39	27.320
565.58	27.078
565.78	27.062
565.97	27.117
566.16	27.378
566.36	27.316
566.55	27.187
566.74	27.209
566.94	27.652
567.13	27.574
567.33	27.168
567.52	27.936
567.71	27.776
567.91	28.449
568.10	28.023
568.29	27.714
568.49	27.966
568.68	27.551
568.87	28.005
569.07	27.928
569.26	27.909
569.45	27.578
569.65	27.667
569.84	27.780
570.04	28.095
570.23	28.397
570.42	27.773
570.62	27.983
570.81	28.285
571.00	27.596
571.20	27.747
571.39	27.220
571.58	28.234
571.78	27.886
571.97	28.197
572.16	27.346
572.36	28.045
572.55	27.994
572.74	27.830
572.94	27.807
573.13	27.648
573.32	28.199
573.51	28.204
573.71	28.528
573.90	28.655
574.09	27.875
574.29	28.299
574.48	28.224
574.67	28.104
574.87	28.077
575.06	28.288
575.25	27.752
575.45	28.227
575.64	28.239
575.83	28.082
576.03	29.238
576.22	28.706
576.41	28.546
576.60	27.978
576.80	28.110
576.99	28.788
577.18	28.534
577.38	28.466
577.57	28.454
577.76	29.159
577.95	28.938
578.15	28.354
578.34	28.170
578.53	28.890
578.73	28.634
578.92	27.879
579.11	28.920
579.30	29.214
579.50	28.550
579.69	28.788
579.88	28.164
580.08	29.228
580.27	28.712
580.46	29.158
580.65	28.918
580.85	29.197
581.04	29.076
581.23	28.088
581.42	29.108
581.62	28.780
581.81	29.328
582.00	29.085
582.19	28.336
582.39	28.652
582.58	29.364
582.77	29.337
582.96	28.965
583.16	28.266
583.35	29.654
583.54	28.853
583.73	29.828
583.93	29.235
584.12	28.522
584.31	28.745
584.50	29.170
584.70	29.472
584.89	29.306
585.08	28.769
585.27	29.498
585.47	29.467
585.66	29.810
585.85	29.006
586.04	29.140
586.24	29.357
586.43	28.663
586.62	29.001
586.81	28.707
587.00	29.453
587.20	29.479
587.39	28.782
587.58	29.155
587.77	29.033
587.97	29.027
588.16	28.954
588.35	29.443
588.54	28.827
588.73	28.878
588.93	28.966
589.12	28.882
589.31	28.830
589.50	28.973
589.69	28.908
589.89	29.011
590.08	28.120
590.27	29.057
590.46	28.936
590.65	28.939
590.85	28.502
591.04	29.354
591.23	28.770
591.42	28.482
591.61	28.479
591.81	29.196
592.00	29.190
592.19	29.034
592.38	29.126
592.57	29.690
592.77	29.538
592.96	29.512
593.15	29.931
593.34	29.528
593.53	29.173
593.72	28.932
593.92	28.594
594.11	29.405
594.30	29.228
594.49	29.535
594.68	29.794
594.87	29.043
595.07	29.104
595.26	28.580
595.45	29.033
595.64	29.367
595.83	28.994
596.02	29.614
596.22	29.254
596.41	28.658
596.60	28.729
596.79	29.154
596.98	29.167
597.17	29.088
597.37	28.925
597.56	28.505
597.75	28.999
597.94	29.202
598.13	29.118
598.32	29.514
598.51	29.754
598.71	29.730
598.90	29.744
599.09	30.111
599.28	29.787
599.47	30.393
599.66	29.828
599.85	29.206
600.05	29.982
600.24	30.304
600.43	29.375
600.62	29.954
600.81	30.359
601.00	30.309
601.19	29.684
601.38	29.908
601.58	29.938
601.77	29.731
601.96	29.466
602.15	30.423
602.34	30.318
602.53	30.445
602.72	30.091
602.91	29.697
603.10	29.749
603.30	29.674
603.49	29.664
603.68	30.088
603.87	29.390
604.06	29.385
604.25	29.007
604.44	29.670
604.63	29.044
604.82	29.284
605.01	29.804
605.21	29.913
605.40	29.406
605.59	29.981
605.78	29.506
605.97	29.544
606.16	30.142
606.35	29.687
606.54	30.732
606.73	30.956
606.92	30.387
607.11	30.814
607.30	30.473
607.50	30.199
607.69	30.245
607.88	30.852
608.07	30.708
608.26	31.580
608.45	29.883
608.64	30.495
608.83	29.863
609.02	29.776
609.21	29.695
609.40	30.375
609.59	29.943
609.78	29.631
609.97	30.082
610.16	29.749
610.35	29.871
610.55	29.783
610.74	30.213
610.93	30.808
611.12	30.356
611.31	30.646
611.50	30.448
611.69	30.724
611.88	30.992
612.07	31.968
612.26	30.279
612.45	30.392
612.64	30.372
612.83	31.304
613.02	30.582
613.21	30.754
613.40	30.402
613.59	31.624
613.78	30.989
613.97	31.002
614.16	30.754
614.35	31.470
614.54	30.821
614.73	30.761
614.92	30.744
615.11	31.003
615.30	31.567
615.49	31.140
615.68	30.936
615.87	31.605
616.07	31.155
616.26	29.431
616.45	30.590
616.64	30.983
616.83	30.523
617.02	30.870
617.21	29.801
617.40	30.666
617.59	30.731
617.78	29.836
617.97	30.161
618.16	30.949
618.35	30.974
618.54	30.371
618.73	30.195
618.92	30.301
619.11	30.030
619.30	30.414
619.49	29.724
619.68	30.181
619.86	30.656
620.05	30.500
620.24	29.743
620.43	30.325
620.62	29.569
620.81	30.222
621.00	30.530
621.19	30.692
621.38	30.180
621.57	30.692
621.76	29.751
621.95	30.744
622.14	30.255
622.33	30.271
622.52	29.529
622.71	29.933
622.90	29.439
623.09	31.023
623.28	30.293
623.47	29.558
623.66	30.195
623.85	30.108
624.04	29.370
624.23	30.233
624.42	30.147
624.61	30.264
624.80	29.980
624.99	30.418
625.18	29.000
625.36	29.962
625.55	29.854
625.74	29.694
625.93	28.631
626.12	29.731
626.31	29.307
626.50	30.059
626.69	29.786
626.88	29.956
627.07	30.020
627.26	29.899
627.45	29.500
627.64	29.387
627.83	29.471
628.02	29.544
628.20	29.720
628.39	29.442
628.58	29.550
628.77	29.994
628.96	29.770
629.15	30.269
629.34	29.989
629.53	29.961
629.72	29.990
629.91	29.964
630.10	31.108
630.29	30.488
630.47	31.331
630.66	31.544
630.85	30.405
631.04	30.283
631.23	31.130
631.42	30.830
631.61	31.939
631.80	30.760
631.99	31.614
632.18	31.011
632.36	30.155
632.55	31.392
632.74	30.376
632.93	29.712
633.12	30.418
633.31	31.358
633.50	29.488
633.69	30.102
633.88	29.463
634.06	29.381
634.25	29.900
634.44	30.083
634.63	29.677
634.82	30.513
635.01	31.049
635.20	30.371
635.39	30.616
635.57	30.667
635.76	30.767
635.95	30.116
636.14	30.693
636.33	30.715
636.52	30.553
636.71	29.928
636.89	30.706
637.08	30.473
637.27	30.085
637.46	29.228
637.65	30.735
637.84	30.065
638.03	29.794
638.21	30.796
638.40	29.964
638.59	29.571
638.78	29.292
638.97	30.572
639.16	29.990
639.34	30.377
639.53	28.828
639.72	31.063
639.91	29.260
640.10	29.241
640.29	30.242
640.47	30.522
640.66	29.114
640.85	30.532
641.04	28.095
641.23	31.021
641.42	29.441
641.60	30.035
641.79	30.157
641.98	29.361
642.17	29.368
642.36	30.426
642.54	29.562
642.73	30.163
642.92	29.234
643.11	30.231
643.30	29.842
643.49	29.364
643.67	28.901
643.86	29.431
644.05	29.289
644.24	29.470
644.43	29.339
644.61	29.925
644.80	29.099
644.99	30.190
645.18	29.981
645.37	29.881
645.55	28.638
645.74	30.370
645.93	29.930
646.12	30.002
646.31	29.768
646.49	28.765
646.68	30.701
646.87	29.513
647.06	29.538
647.24	30.193
647.43	29.925
647.62	30.426
647.81	29.196
648.00	31.490
648.18	29.211
648.37	29.586
648.56	29.848
648.75	29.293
648.93	30.336
649.12	31.392
649.31	29.677
649.50	29.317
649.68	28.627
649.87	29.930
650.06	28.663
650.25	30.555
650.43	28.463
650.62	29.974
650.81	28.292
651.00	30.628
651.18	28.660
651.37	30.103
651.56	28.950
651.75	29.857
651.93	28.905
652.12	29.303
652.31	29.457
652.50	29.655
652.68	29.520
652.87	30.261
653.06	29.445
653.25	30.007
653.43	28.667
653.62	29.844
653.81	29.855
654.00	30.210
654.18	29.178
654.37	30.811
654.56	29.444
654.74	29.165
654.93	28.835
655.12	29.275
655.31	29.648
655.49	29.326
655.68	28.638
655.87	29.499
656.05	27.337
656.24	29.042
656.43	27.127
656.62	29.817
656.80	28.738
656.99	29.109
657.18	28.271
657.36	29.331
657.55	28.659
657.74	28.929
657.93	29.710
658.11	29.096
658.30	29.031
658.49	28.155
658.67	27.163
658.86	27.825
659.05	27.873
659.23	29.107
659.42	28.006
659.61	28.993
659.79	27.981
659.98	28.589
660.17	29.338
660.35	28.279
660.54	29.393
660.73	28.389
660.91	28.083
661.10	28.695
661.29	27.924
661.47	28.659
661.66	28.200
661.85	28.628
662.03	27.762
662.22	27.062
662.41	26.989
662.59	27.561
662.78	26.328
662.97	29.053
663.15	26.500
663.34	27.229
663.53	26.537
663.71	27.102
663.90	26.362
664.09	26.775
664.27	26.572
664.46	28.155
664.65	26.183
664.83	27.112
665.02	26.208
665.21	26.618
665.39	24.486
665.58	27.559
665.77	26.411
665.95	27.229
666.14	25.909
666.32	27.412
666.51	25.470
666.70	25.167
666.88	26.037
667.07	25.072
667.26	23.978
667.44	26.018
667.63	26.134
667.81	25.524
668.00	24.820
668.19	28.654
668.37	26.178
668.56	26.930
668.75	24.937
668.93	27.644
669.12	23.714
669.30	26.491
669.49	24.075
669.68	26.483
669.86	26.945
670.05	25.534
670.23	24.900
670.42	25.927
670.61	25.949
670.79	27.261
670.98	27.029
671.16	26.404
671.35	24.679
671.54	25.523
671.72	24.340
671.91	26.214
672.09	25.536
672.28	25.338
672.46	26.918
672.65	27.004
672.84	24.356
673.02	27.148
673.21	22.627
673.39	24.521
673.58	26.293
673.77	26.899
673.95	25.521
674.14	27.876
674.32	25.462
674.51	26.345
674.69	24.638
674.88	25.905
675.07	23.871
675.25	26.951
675.44	26.716
675.62	25.808
675.81	24.223
675.99	28.713
676.18	26.226
676.36	25.033
676.55	25.697
676.74	27.053
676.92	26.762
677.11	27.408
677.29	25.788
677.48	27.900
677.66	27.120
677.85	24.961
678.03	25.836
678.22	27.896
678.40	25.383
678.59	25.929
678.78	24.879
678.96	25.734
679.15	26.802
679.33	27.467
679.52	26.446
679.70	26.548
679.89	26.762
680.07	27.767
680.26	25.054
680.44	26.569
680.63	26.206
680.81	27.578
681.00	25.409
681.18	27.078
681.37	26.790
681.55	27.347
681.74	27.042
681.92	27.533
682.11	26.532
682.29	27.399
682.48	27.076
682.66	28.054
682.85	26.391
683.03	27.304
683.22	28.159
683.40	29.134
683.59	26.952
683.77	28.726
683.96	27.020
684.14	28.581
684.33	27.081
684.51	30.735
684.70	28.206
684.88	29.755
685.07	27.589
685.25	29.751
685.44	26.453
685.62	28.601
685.81	26.963
685.99	29.554
686.18	27.432
686.36	30.099
686.55	27.725
686.73	28.028
686.92	29.416
687.10	29.132
687.29	30.749
687.47	30.754
687.65	29.836
687.84	29.698
688.02	31.323
688.21	31.589
688.39	28.844
688.58	30.730
688.76	30.072
688.95	29.363
689.13	29.634
689.32	31.045
689.50	30.597
689.68	30.809
689.87	29.332
690.05	32.341
690.24	31.079
690.42	30.208
690.61	31.232
690.79	33.149
690.98	30.902
691.16	33.250
691.34	30.966
691.53	31.829
691.71	30.021
691.90	32.916
692.08	31.402
692.27	32.575
692.45	33.082
692.63	32.344
692.82	33.583
693.00	32.651
693.19	30.141
693.37	34.501
693.56	31.814
693.74	33.092
693.92	32.182
694.11	33.569
694.29	34.607
694.48	34.507
694.66	32.909
694.84	34.395
695.03	32.116
695.21	35.057
695.40	34.493
695.58	36.701
695.76	33.564
695.95	35.510
696.13	35.157
696.32	35.112
696.50	37.809
696.68	34.806
696.87	34.638
697.05	35.298
697.24	34.593
697.42	36.986
697.60	34.457
697.79	34.561
697.97	35.643
698.16	36.660
698.34	33.900
698.52	36.116
698.71	34.439
698.89	34.284
699.07	35.328
699.26	36.234
699.44	35.270
699.63	35.588
699.81	34.686
699.99	36.093
700.18	36.444
700.36	36.233
700.54	36.894
700.73	35.981
700.91	35.687
701.09	36.436
701.28	36.746
701.46	37.049
701.64	35.256
701.83	36.478
702.01	35.044
702.20	37.667
702.38	37.389
702.56	36.201
702.75	36.657
702.93	35.159
703.11	36.488
703.30	36.043
703.48	36.389
703.66	39.197
703.85	38.310
704.03	38.269
704.21	35.974
704.40	39.640
704.58	35.394
704.76	37.875
704.95	37.084
705.13	38.490
705.31	35.675
705.50	38.624
705.68	37.044
705.86	38.612
706.04	37.943
706.23	39.866
706.41	40.080
706.59	39.694
706.78	37.663
706.96	40.041
707.14	38.915
707.33	38.417
707.51	37.963
707.69	39.283
707.88	36.495
708.06	39.866
708.24	37.635
708.42	39.634
708.61	37.383
708.79	40.447
708.97	37.914
709.16	40.198
709.34	41.809
709.52	39.960
709.71	40.060
709.89	38.647
710.07	36.559
710.25	38.104
710.44	37.252
710.62	38.699
710.80	39.386
710.98	39.437
711.17	39.240
711.35	40.193
711.53	39.373
711.72	38.835
711.90	39.764
712.08	39.878
712.26	37.160
712.45	39.789
712.63	38.841
712.81	40.450
712.99	36.812
713.18	40.003
713.36	39.955
713.54	40.564
713.72	38.176
713.91	40.337
714.09	38.481
714.27	38.663
714.45	39.283
714.64	40.762
714.82	40.165
715.00	39.066
715.18	39.001
715.37	41.659
715.55	38.856
715.73	40.170
715.91	40.356
716.10	39.326
716.28	38.553
716.46	40.686
716.64	37.475
716.83	39.065
717.01	37.407
717.19	39.600
717.37	38.982
717.55	40.618
717.74	37.672
717.92	38.411
718.10	35.449
718.28	37.954
718.47	36.601
718.65	39.267
718.83	37.822
719.01	40.170
719.19	38.800
719.38	37.548
719.56	38.855
719.74	37.197
719.92	34.828
720.10	38.378
720.29	38.437
720.47	40.492
720.65	38.240
720.83	40.103
721.01	35.868
721.20	38.669
721.38	37.793
721.56	38.889
721.74	38.705
721.92	37.076
722.11	35.412
722.29	38.951
722.47	38.564
722.65	40.628
722.83	38.878
723.01	39.634
723.20	39.321
723.38	40.004
723.56	39.417
723.74	43.412
723.92	38.420
724.10	39.890
724.29	35.921
724.47	39.025
724.65	38.752
724.83	41.351
725.01	38.062
725.19	40.581
725.38	37.228
725.56	40.000
725.74	39.125
725.92	38.911
726.10	37.539
726.28	42.177
726.46	38.246
726.65	39.099
726.83	39.445
727.01	39.023
727.19	37.882
727.37	39.019
727.55	39.239
727.73	39.270
727.92	38.823
728.10	40.589
728.28	37.416
728.46	40.886
728.64	39.974
728.82	40.778
729.00	39.514
729.19	40.325
729.37	39.184
729.55	42.376
729.73	35.055
729.91	41.749
730.09	40.675
730.27	39.148
730.45	37.717
730.63	39.341
730.82	37.343
731.00	39.532
731.18	37.341
731.36	39.614
731.54	37.140
731.72	40.155
731.90	36.307
732.08	40.666
732.26	34.784
732.45	41.796
732.63	39.374
732.81	38.158
732.99	40.294
733.17	39.540
733.35	39.443
733.53	40.732
733.71	37.834
733.89	39.984
734.07	38.238
734.25	44.141
734.44	40.266
734.62	40.995
734.80	37.177
734.98	41.472
735.16	39.855
735.34	40.678
735.52	39.673
735.70	40.233
735.88	37.888
736.06	40.060
736.24	43.360
736.42	41.846
736.60	42.118
736.78	43.045
736.97	38.002
737.15	42.780
737.33	39.428
737.51	41.973
737.69	41.305
737.87	42.967
738.05	41.780
738.23	41.613
738.41	41.084
738.59	43.243
738.77	38.874
738.95	43.132
739.13	43.887
739.31	42.015
739.49	43.127
739.67	42.275
739.85	40.453
740.03	43.415
740.21	42.171
740.39	44.712
740.57	42.404
740.75	43.577
740.93	41.539
741.11	44.042
741.30	40.978
741.48	44.143
741.66	41.720
741.84	43.284
742.02	41.640
742.20	46.148
742.38	40.774
742.56	47.476
742.74	38.243
742.92	42.662
743.10	41.199
743.28	44.865
743.46	42.345
743.64	45.833
743.82	42.140
744.00	46.280
744.18	43.128
744.36	44.740
744.54	42.226
744.72	48.190
744.90	46.156
745.08	46.493
745.26	45.324
745.44	46.142
745.62	39.099
745.80	43.725
745.98	43.137
746.16	47.606
746.34	41.731
746.52	47.717
746.70	38.585
746.87	43.208
747.05	40.051
747.23	45.141
747.41	44.078
747.59	45.268
747.77	43.267
747.95	42.395
748.13	44.116
748.31	45.272
748.49	44.321
748.67	45.574
748.85	41.912
749.03	45.435
749.21	42.665
749.39	47.201
749.57	41.515
749.75	42.325
749.93	44.642
750.11	41.422
750.29	43.676
750.47	47.529
750.65	41.178
750.83	43.423
751.01	38.963
751.18	43.262
751.36	41.308
751.54	41.481
751.72	42.372
751.90	42.531
752.08	42.794
752.26	40.571
752.44	44.669
752.62	42.067
752.80	44.407
752.98	45.572
753.16	43.203
753.34	40.385
753.52	45.076
753.69	43.242
753.87	44.311
754.05	45.271
754.23	42.234
754.41	42.823
754.59	44.889
754.77	44.776
754.95	44.424
755.13	45.826
755.31	42.439
755.49	42.570
755.66	45.090
755.84	43.058
756.02	39.384
756.20	45.538
756.38	41.293
756.56	42.173
756.74	40.485
756.92	44.659
757.10	40.332
757.28	45.064
757.45	50.405
757.63	46.074
757.81	42.490
757.99	49.969
758.17	44.051
758.35	46.652
758.53	46.571
758.71	45.783
758.88	39.647
759.06	44.034
759.24	38.380
759.42	42.827
759.60	40.385
759.78	40.804
759.96	37.261
760.13	42.020
760.31	37.477
760.49	35.360
760.67	33.393
760.85	39.151
761.03	34.622
761.21	35.678
761.38	33.142
761.56	37.563
761.74	35.047
761.92	40.253
762.10	32.066
762.28	39.274
762.46	32.780
762.63	34.660
762.81	33.259
762.99	33.902
763.17	37.668
763.35	36.591
763.53	33.406
763.70	38.713
763.88	38.288
764.06	37.485
764.24	36.208
764.42	39.701
764.60	36.792
764.77	36.930
764.95	37.794
765.13	37.567
765.31	35.282
765.49	37.604
765.66	35.552
765.84	38.527
766.02	37.126
766.20	37.054
766.38	35.415
766.56	40.112
766.73	36.638
766.91	40.021
767.09	39.140
767.27	42.929
767.45	39.501
767.62	42.077
767.80	36.446
767.98	42.465
768.16	39.168
768.33	43.842
768.51	39.786
768.69	41.182
768.87	43.180
769.05	42.582
769.22	41.255
769.40	44.922
769.58	43.693
769.76	44.783
769.94	43.613
770.11	44.209
770.29	40.378
770.47	44.475
770.65	46.780
770.82	50.434
771.00	43.400
771.18	44.735
771.36	43.304
771.53	45.929
771.71	44.618
771.89	45.946
772.07	45.108
772.25	48.536
772.42	40.977
772.60	47.498
772.78	48.489
772.96	46.886
773.13	49.697
773.31	46.112
773.49	45.933
773.67	46.003
773.84	42.268
774.02	44.638
774.20	46.082
774.37	47.284
774.55	44.291
774.73	49.269
774.91	47.769
775.08	50.867
775.26	45.686
775.44	47.552
775.62	44.887
775.79	47.269
775.97	44.519
776.15	45.731
776.32	40.801
776.50	50.819
776.68	50.401
776.86	52.861
777.03	42.871
777.21	46.953
777.39	39.451
777.56	48.231
777.74	46.813
777.92	51.023
778.10	39.321
778.27	48.493
778.45	47.610
778.63	49.372
778.80	44.350
778.98	48.061
779.16	52.894
779.34	45.151
779.51	44.208
779.69	50.408
779.87	45.158
780.04	47.288
780.22	47.152
780.40	48.609
780.57	44.141
780.75	44.450
780.93	48.633
781.10	46.712
781.28	55.952
781.46	43.510
781.63	52.447
781.81	52.157
781.99	45.717
782.16	45.959
782.34	44.154
782.52	47.411
782.69	50.655
782.87	47.031
783.05	45.013
783.22	46.628
783.40	44.060
783.58	51.189
783.75	43.064
783.93	54.206
784.11	48.836
784.28	52.078
784.46	40.306
784.64	48.194
784.81	48.603
784.99	52.287
785.17	47.025
785.34	46.682
785.52	43.863
785.69	50.676
785.87	40.981
786.05	48.570
786.22	49.940
786.40	58.070
786.58	45.819
786.75	49.381
786.93	45.439
787.11	52.376
787.28	45.761
787.46	46.851
787.63	46.082
787.81	44.717
787.99	46.294
788.16	45.901
788.34	45.097
788.51	42.514
788.69	42.092
788.87	42.554
789.04	48.467
789.22	44.158
789.39	43.655
789.57	41.235
789.75	40.181
789.92	44.591
790.10	40.165
790.27	44.481
790.45	40.914
790.63	47.119
790.80	36.800
790.98	45.118
791.15	44.404
791.33	45.790
791.51	45.655
791.68	48.148
791.86	47.913
792.03	44.670
792.21	44.084
792.39	47.401
792.56	43.743
792.74	48.922
792.91	46.968
793.09	47.487
793.26	45.309
793.44	47.094
793.62	43.504
793.79	48.091
793.97	44.897
794.14	47.577
794.32	48.856
794.49	47.407
794.67	38.924
794.84	44.109
795.02	45.274
795.20	46.932
795.37	42.127
795.55	46.199
795.72	51.183
795.90	43.579
796.07	44.772
796.25	48.542
796.42	41.753
796.60	42.431
796.77	42.841
796.95	45.689
797.13	38.258
797.30	47.040
797.48	42.835
797.65	47.216
797.83	45.078
798.00	46.258
798.18	37.709
798.35	46.677
798.53	42.175
798.70	47.323
798.88	44.370
799.05	45.817
799.23	39.618
799.40	47.079
799.58	47.700
799.75	45.614
799.93	46.471
800.10	47.195
800.28	44.399
800.45	46.899
800.63	43.645
800.80	49.359
800.98	43.517
801.15	46.121
801.33	44.472
801.50	44.755
801.68	40.199
801.85	44.301
802.03	45.477
802.20	45.775
802.38	44.611
802.55	39.009
802.73	49.690
802.90	41.672
803.08	43.393
803.25	50.645
803.43	50.327
803.60	51.979
803.78	47.715
803.95	43.010
804.13	47.878
804.30	47.112
804.48	45.118
804.65	52.554
804.83	44.782
805.00	48.262
805.17	51.800
805.35	42.545
805.52	44.878
805.70	47.023
805.87	48.221
806.05	51.609
806.22	48.780
806.40	43.204
806.57	50.723
806.75	50.787
806.92	50.308
807.09	46.189
807.27	45.211
807.44	46.693
807.62	50.912
807.79	45.759
807.97	44.247
808.14	48.016
808.31	46.149
808.49	46.262
808.66	42.894
808.84	43.946
809.01	49.085
809.19	45.733
809.36	54.987
809.53	51.663
809.71	47.271
809.88	60.041
810.06	54.875
810.23	48.128
810.41	48.317
810.58	54.046
810.75	43.731
810.93	44.717
811.10	46.258
811.28	48.936
811.45	49.733
811.62	50.694
811.80	50.542
811.97	47.634
812.15	59.470
812.32	45.891
812.49	54.644
812.67	45.065
812.84	50.715
813.02	52.026
813.19	44.564
813.36	48.611
813.54	46.852
813.71	50.197
813.89	46.791
814.06	52.559
814.23	53.643
814.41	52.606
814.58	54.595
814.75	49.272
814.93	56.086
815.10	47.460
815.28	49.541
815.45	48.284
815.62	52.606
815.80	44.268
815.97	50.937
816.14	52.587
816.32	48.613
816.49	50.638
816.66	54.100
816.84	39.818
817.01	50.969
817.18	44.921
817.36	47.087
817.53	48.273
817.71	39.679
817.88	49.006
818.05	47.590
818.23	43.824
818.40	46.584
818.57	45.350
818.75	40.266
818.92	41.988
819.09	45.956
819.27	49.127
819.44	50.492
819.61	42.867
819.79	38.805
819.96	50.804
820.13	40.927
820.31	41.820
820.48	43.191
820.65	37.438
820.82	37.329
821.00	40.731
821.17	35.953
821.34	35.250
821.52	38.432
821.69	37.652
821.86	32.750
822.04	34.711
822.21	35.388
822.38	38.008
822.56	35.290
822.73	38.462
822.90	37.030
823.07	37.896
823.25	36.169
823.42	35.138
823.59	34.129
823.77	35.366
823.94	35.362
824.11	34.830
824.29	34.017
824.46	36.346
824.63	36.001
824.80	35.177
824.98	33.981
825.15	36.650
825.32	31.701
825.49	35.488
825.67	34.658
825.84	36.318
826.01	32.275
826.19	34.653
826.36	33.103
826.53	36.820
826.70	32.919
826.88	36.100
827.05	32.929
827.22	35.910
827.39	34.944
827.57	32.987
827.74	30.783
827.91	37.989
828.08	31.077
828.26	35.296
828.43	31.871
828.60	38.282
828.77	32.853
828.95	37.453
829.12	30.195
829.29	29.687
829.46	33.433
829.64	33.426
829.81	30.788
829.98	36.001
830.15	35.927
830.32	37.037
830.50	34.949
830.67	38.857
830.84	35.099
831.01	32.916
831.19	37.426
831.36	41.096
831.53	43.797
831.70	50.509
831.87	45.371
832.05	44.483
832.22	55.572
832.39	40.256
832.56	43.521
832.74	41.018
832.91	38.572
833.08	47.532
833.25	37.201
833.42	42.342
833.60	41.343
833.77	33.387
833.94	35.164
834.11	33.528
834.28	31.063
834.45	34.963
834.63	31.587
834.80	36.101
834.97	35.856
835.14	33.858
835.31	33.406
835.49	28.375
835.66	32.043
835.83	32.645
836.00	32.965
836.17	33.210
836.34	33.461
836.52	33.690
836.69	39.485
836.86	37.905
837.03	40.618
837.20	36.736
837.37	42.670
837.55	38.399
837.72	40.352
837.89	41.359
838.06	50.202
838.23	52.290
838.40	50.476
838.58	43.365
838.75	47.695
838.92	50.137
839.09	61.355
839.26	51.927
839.43	67.824
839.60	66.159
839.78	70.760
839.95	66.428
840.12	58.333
840.29	71.129
840.46	57.384
840.63	57.227
840.80	53.366
840.98	64.796
841.15	50.176
841.32	51.421
841.49	48.359
841.66	57.749
841.83	47.053
842.00	51.842
842.17	65.521
842.34	58.767
842.52	63.821
842.69	63.933
842.86	61.092
843.03	68.871
843.20	60.743
843.37	66.883
843.54	75.535
843.71	56.843
843.88	89.172
844.06	82.381
844.23	73.077
844.40	64.956
844.57	67.090
844.74	77.156
844.91	94.043
845.08	81.511
845.25	100.000
845.42	83.604
845.59	86.978
845.76	93.309
845.94	98.847
846.11	98.287
846.28	84.268
846.45	96.958
846.62	87.543
846.79	86.589
846.96	84.291
847.13	104.049
847.30	94.690
847.47	91.023
847.64	101.890
847.81	102.642
847.98	106.667
848.15	84.854
848.32	83.367
848.50	107.561
848.67	90.909
848.84	92.408
849.01	108.072
849.18	105.640
849.35	124.183
849.52	107.187
849.69	93.721
849.86	105.720
850.03	90.076
850.20	107.863
850.37	90.204
850.54	128.021
850.71	114.919
850.88	95.372
851.05	113.247
851.22	90.909
851.39	117.697
851.56	88.867
851.73	110.153
851.90	92.157
852.07	100.214
852.24	107.692
852.41	131.336
852.58	124.870
852.75	95.772
852.92	130.318
853.09	138.274
853.26	121.739
853.43	105.596
853.60	100.592
853.77	115.812
853.94	104.793
854.11	120.518
854.28	104.990
854.45	113.229
854.62	107.743
854.79	127.316
854.96	105.189
855.13	103.017
855.30	115.802
855.47	148.656
855.64	105.303
855.81	106.957
855.98	112.975
856.15	109.050
856.32	123.377
856.49	116.000
856.66	93.827
856.83	104.274
857.00	108.777
857.17	114.088
857.34	94.919
857.51	98.845
857.68	128.238
857.85	107.082
858.02	116.960
858.19	106.861
858.36	104.338
858.53	129.787
858.70	119.144
858.87	112.688
859.04	91.629
859.21	123.020
859.38	117.400
859.55	140.618
859.72	132.507
859.89	120.104
860.05	127.097
860.22	132.308
860.39	94.824
860.56	117.120
860.73	134.703
860.90	104.264
861.07	138.313
861.24	100.463
861.41	121.730
861.58	97.550
861.75	132.461
861.92	113.004
862.09	102.902
862.26	126.571
862.43	121.296
862.59	140.822
862.76	127.835
862.93	134.255
863.10	120.735
863.27	105.000
863.44	126.747
863.61	103.795
863.78	108.677
863.95	152.201
864.12	110.504
864.29	141.477
864.45	103.980
864.62	104.589
864.79	88.148
864.96	131.311
865.13	100.778
865.30	111.644
865.47	86.907
865.64	130.000
865.81	118.481
865.97	86.147
866.14	96.258
866.31	106.753
866.48	105.051
866.65	96.061
866.82	116.629
866.99	141.360
867.16	102.941
867.33	123.022
867.49	122.770
867.66	119.118
867.83	151.140
868.00	131.250
868.17	113.864
868.34	131.075
868.51	100.496
868.67	131.768
868.84	105.529
869.01	131.877
869.18	109.259
869.35	129.651
869.52	131.649
869.69	126.980
869.85	108.969
870.02	109.582
870.19	134.860
870.36	124.561
870.53	107.883
870.70	126.366
870.86	101.312
871.03	122.353
871.20	121.705
871.37	110.586
871.54	121.777
871.71	117.158
871.87	118.254
872.04	84.774
872.21	123.649
872.38	127.612
872.55	142.228
872.72	128.118
872.88	130.328
873.05	99.778
873.22	107.299
873.39	106.796
873.56	105.612
873.72	115.743
873.89	103.486
874.06	131.805
874.23	121.510
874.40	121.096
874.56	96.082
874.73	134.568
874.90	103.661
875.07	124.819
875.24	91.885
875.40	106.718
875.57	124.157
875.74	112.250
875.91	115.367
876.08	104.348
876.24	124.925
876.41	95.816
876.58	106.306
876.75	104.051
876.92	107.249
877.08	107.820
877.25	109.474
877.42	97.839
877.59	95.031
877.75	113.426
877.92	98.971
878.09	114.945
878.26	95.885
878.42	157.338
878.59	122.096
878.76	110.455
878.93	121.469
879.09	109.513
879.26	77.857
879.43	137.470
879.60	92.368
879.76	88.648
879.93	94.881
880.10	75.943
880.27	80.392
880.43	71.812
880.60	73.057
880.77	62.387
880.94	75.819
881.10	58.193
881.27	56.095
881.44	50.742
881.61	47.218
881.77	52.863
881.94	36.393
882.11	34.072
882.28	32.646
882.44	35.912
882.61	29.036
882.78	36.701
882.94	38.725
883.11	36.633
883.28	31.509
883.45	34.870
883.61	30.520
883.78	29.002
883.95	36.397
884.11	32.747
884.28	28.961
>>>>>End Processed Spectral Data<<<<<
