SpectraSuite Data File
++++++++++++++++++++++++++++++++++++
Date: Wed Sep 25 03:24:22 EST 2019
User: sgrac
Dark Spectrum Present: Yes
Reference Spectrum Present: Yes
Number of Sampled Component Spectra: 1
Spectrometers: USB4E01596
Integration Time (usec): 100000 (USB4E01596)
Spectra Averaged: 3 (USB4E01596)
Boxcar Smoothing: 0 (USB4E01596)
Correct for Electrical Dark: No (USB4E01596)
Strobe/Lamp Enabled: Yes (USB4E01596)
Correct for Detector Non-linearity: No (USB4E01596)
Correct for Stray Light: No (USB4E01596)
Number of Pixels in Processed Spectrum: 3648
>>>>>Begin Processed Spectral Data<<<<<
178.44	-365.385
178.66	-365.385
178.87	-365.385
179.09	-665.625
179.30	748.387
179.52	1417.391
179.74	-786.842
179.95	-414.815
180.17	661.224
180.38	-1135.714
180.60	-2313.333
180.82	-3677.778
181.03	883.721
181.25	-2641.667
181.46	-337.500
181.68	430.769
181.89	-1064.516
182.11	9000.000
182.33	690.385
182.54	-19100.000
182.76	517.647
182.97	918.421
183.19	1279.167
183.40	615.217
183.62	1645.000
183.84	464.286
184.05	1219.231
184.27	-2663.636
184.48	27900.000
184.70	1181.481
184.91	666.038
185.13	2435.714
185.34	613.559
185.56	479.310
185.78	1527.778
185.99	620.000
186.21	404.819
186.42	1042.857
186.64	-2333.333
186.85	880.488
187.07	-1108.000
187.28	330.208
187.50	-516.279
187.72	1704.762
187.93	1148.649
188.15	2278.571
188.36	604.167
188.58	608.333
188.79	584.375
189.01	514.754
189.22	451.613
189.44	359.434
189.65	-836.585
189.87	1221.429
190.09	358.654
190.30	318.519
190.52	-418.966
190.73	277.108
190.95	-2314.286
191.16	673.913
191.38	596.154
191.59	435.802
191.81	2088.889
192.02	-2616.667
192.24	-3009.091
192.45	477.419
192.67	-6080.000
192.88	320.930
193.10	466.176
193.31	246.721
193.53	-361.290
193.74	1854.545
193.96	-4183.333
194.18	2335.714
194.39	547.458
194.61	1047.222
194.82	327.273
195.04	342.105
195.25	576.667
195.47	-29600.000
195.68	446.154
195.90	445.556
196.11	1366.667
196.33	-301.190
196.54	1246.429
196.76	575.806
196.97	241.975
197.19	284.962
197.40	-505.333
197.62	731.250
197.83	1829.412
198.05	448.750
198.26	781.250
198.48	2170.588
198.69	-848.718
198.91	553.125
199.12	-13600.000
199.34	580.488
199.55	1220.000
199.77	580.952
199.98	1333.333
200.20	485.714
200.41	345.455
200.63	379.268
200.84	708.889
201.06	221.519
201.27	-510.526
201.49	-4542.857
201.70	411.688
201.91	-4857.143
202.13	-1893.750
202.34	-1018.182
202.56	1552.632
202.77	921.053
202.99	731.915
203.20	295.699
203.42	700.000
203.63	536.620
203.85	-2333.333
204.06	1300.000
204.28	-5060.000
204.49	1316.667
204.71	279.570
204.92	564.706
205.14	1775.000
205.35	971.875
205.56	1664.286
205.78	756.364
205.99	407.317
206.21	1028.205
206.42	584.746
206.64	500.000
206.85	706.977
207.07	-757.895
207.28	501.449
207.50	781.081
207.71	1193.750
207.93	349.495
208.14	638.000
208.35	706.818
208.57	1986.667
208.78	1232.000
209.00	757.447
209.21	644.444
209.43	290.291
209.64	-2781.818
209.86	705.128
210.07	-1566.667
210.28	402.174
210.50	1489.474
210.71	246.429
210.93	430.769
211.14	394.545
211.36	-2340.000
211.57	525.000
211.78	542.000
212.00	648.936
212.21	818.919
212.43	28600.000
212.64	947.059
212.86	641.667
213.07	903.030
213.29	-2333.333
213.50	1006.452
213.71	1256.000
213.93	1955.556
214.14	297.391
214.36	238.608
214.57	596.721
214.78	686.275
215.00	469.118
215.21	2346.154
215.43	302.020
215.64	644.186
215.86	621.212
216.07	617.778
216.28	1182.609
216.50	367.593
216.71	544.828
216.93	747.368
217.14	298.198
217.35	1015.385
217.57	298.387
217.78	1305.263
218.00	433.721
218.21	1180.000
218.42	11933.333
218.64	287.395
218.85	848.889
219.07	534.426
219.28	256.140
219.49	1006.061
219.71	358.108
219.92	1410.000
220.14	1506.250
220.35	460.606
220.56	196.129
220.78	6340.000
220.99	398.780
221.21	272.881
221.42	731.707
221.63	451.667
221.85	715.217
222.06	257.265
222.28	621.053
222.49	717.500
222.70	277.064
222.92	333.708
223.13	423.864
223.34	290.551
223.56	457.971
223.77	500.000
223.99	1042.308
224.20	253.846
224.41	242.623
224.63	275.410
224.84	426.761
225.05	313.187
225.27	320.779
225.48	323.585
225.69	183.333
225.91	659.615
226.12	255.224
226.34	240.690
226.55	229.565
226.76	156.571
226.98	154.237
227.19	163.218
227.40	131.982
227.62	130.769
227.83	137.367
228.04	107.509
228.26	88.972
228.47	68.286
228.69	64.160
228.90	52.993
229.11	55.340
229.33	47.278
229.54	41.632
229.75	43.016
229.97	42.954
230.18	33.432
230.39	30.982
230.61	35.867
230.82	38.668
231.03	34.934
231.25	40.044
231.46	40.097
231.67	50.198
231.89	37.482
232.10	46.082
232.31	46.305
232.53	65.726
232.74	58.900
232.95	69.131
233.17	58.058
233.38	49.812
233.59	63.252
233.81	53.254
234.02	57.004
234.23	54.724
234.45	62.704
234.66	65.703
234.87	73.150
235.09	52.322
235.30	46.338
235.51	59.335
235.73	43.328
235.94	53.263
236.15	52.209
236.36	44.874
236.58	51.429
236.79	46.563
237.00	55.781
237.22	43.807
237.43	42.020
237.64	42.415
237.86	55.199
238.07	56.203
238.28	43.134
238.50	45.736
238.71	45.322
238.92	51.407
239.13	47.050
239.35	53.623
239.56	41.512
239.77	57.033
239.99	43.759
240.20	57.601
240.41	34.174
240.63	41.733
240.84	50.437
241.05	34.390
241.26	30.327
241.48	30.891
241.69	29.564
241.90	25.372
242.12	23.124
242.33	25.335
242.54	19.815
242.75	20.463
242.97	22.426
243.18	13.498
243.39	15.880
243.61	16.912
243.82	17.292
244.03	15.041
244.24	13.475
244.46	15.831
244.67	18.920
244.88	16.764
245.09	16.595
245.31	19.034
245.52	17.919
245.73	21.559
245.95	33.420
246.16	19.687
246.37	16.059
246.58	20.848
246.80	15.659
247.01	14.245
247.22	11.347
247.43	12.568
247.65	10.938
247.86	11.233
248.07	8.671
248.28	9.911
248.50	8.906
248.71	9.310
248.92	8.073
249.13	10.601
249.35	8.180
249.56	9.265
249.77	9.016
249.98	10.996
250.20	12.931
250.41	12.837
250.62	14.673
250.83	19.504
251.05	18.355
251.26	15.734
251.47	15.843
251.68	17.522
251.90	19.211
252.11	20.607
252.32	18.847
252.53	18.302
252.75	16.836
252.96	16.103
253.17	17.062
253.38	14.348
253.59	14.205
253.81	17.831
254.02	9.768
254.23	15.684
254.44	17.991
254.66	14.965
254.87	22.573
255.08	18.131
255.29	21.550
255.50	25.170
255.72	23.534
255.93	24.633
256.14	19.985
256.35	19.029
256.57	25.873
256.78	20.609
256.99	22.055
257.20	26.618
257.41	22.944
257.63	19.773
257.84	18.868
258.05	17.835
258.26	16.145
258.47	17.018
258.69	16.045
258.90	16.435
259.11	17.074
259.32	14.585
259.53	12.843
259.75	10.634
259.96	10.494
260.17	8.353
260.38	10.161
260.59	7.054
260.81	5.803
261.02	7.430
261.23	6.942
261.44	8.198
261.65	7.729
261.87	5.651
262.08	7.202
262.29	10.495
262.50	9.212
262.71	7.920
262.92	10.642
263.14	8.581
263.35	9.950
263.56	12.340
263.77	15.294
263.98	10.911
264.20	10.515
264.41	15.301
264.62	11.880
264.83	13.172
265.04	16.396
265.25	13.512
265.47	14.806
265.68	14.955
265.89	13.015
266.10	15.177
266.31	15.816
266.52	14.668
266.74	14.842
266.95	13.109
267.16	12.612
267.37	11.889
267.58	10.925
267.79	11.588
268.01	11.144
268.22	9.211
268.43	14.845
268.64	12.025
268.85	9.143
269.06	8.184
269.27	13.868
269.49	9.746
269.70	9.865
269.91	7.632
270.12	10.168
270.33	12.371
270.54	10.323
270.75	12.317
270.97	10.532
271.18	10.240
271.39	9.702
271.60	12.898
271.81	10.679
272.02	9.545
272.23	10.550
272.45	8.667
272.66	8.443
272.87	8.270
273.08	8.887
273.29	8.929
273.50	7.401
273.71	7.890
273.92	8.240
274.14	8.654
274.35	10.165
274.56	10.160
274.77	7.729
274.98	9.466
275.19	9.272
275.40	8.453
275.61	7.781
275.83	14.032
276.04	10.672
276.25	11.571
276.46	9.775
276.67	12.686
276.88	9.545
277.09	10.789
277.30	10.088
277.51	10.759
277.73	10.397
277.94	8.056
278.15	10.464
278.36	12.777
278.57	10.490
278.78	9.562
278.99	10.847
279.20	11.429
279.41	12.466
279.62	10.295
279.84	9.819
280.05	9.331
280.26	9.893
280.47	10.472
280.68	10.291
280.89	10.910
281.10	9.914
281.31	10.125
281.52	9.903
281.73	8.948
281.94	7.053
282.16	9.404
282.37	7.006
282.58	7.702
282.79	10.576
283.00	9.697
283.21	8.950
283.42	7.084
283.63	7.614
283.84	8.497
284.05	8.835
284.26	6.240
284.47	6.580
284.68	8.006
284.89	8.962
285.11	8.136
285.32	7.836
285.53	7.576
285.74	7.888
285.95	6.277
286.16	7.277
286.37	7.936
286.58	8.766
286.79	6.626
287.00	7.621
287.21	7.340
287.42	7.634
287.63	7.126
287.84	5.709
288.05	6.879
288.26	7.685
288.48	8.034
288.69	6.344
288.90	7.763
289.11	7.744
289.32	8.732
289.53	7.410
289.74	5.447
289.95	5.613
290.16	7.554
290.37	7.400
290.58	7.844
290.79	6.895
291.00	7.581
291.21	6.148
291.42	7.374
291.63	4.826
291.84	6.032
292.05	7.471
292.26	5.923
292.47	6.920
292.68	6.837
292.89	8.131
293.10	7.881
293.31	7.008
293.52	7.371
293.73	5.718
293.94	9.529
294.15	6.952
294.36	8.610
294.57	8.302
294.79	6.954
295.00	5.296
295.21	8.667
295.42	6.495
295.63	7.583
295.84	6.796
296.05	5.164
296.26	7.102
296.47	6.089
296.68	5.192
296.89	6.756
297.10	7.068
297.31	6.320
297.52	6.128
297.73	5.612
297.94	4.332
298.15	5.213
298.36	5.762
298.57	3.949
298.78	5.685
298.99	4.736
299.20	5.563
299.41	6.884
299.62	5.646
299.83	4.931
300.04	6.736
300.25	6.603
300.46	6.647
300.67	6.567
300.88	6.222
301.09	5.050
301.30	7.794
301.50	6.716
301.71	8.675
301.92	7.907
302.13	5.704
302.34	6.949
302.55	7.455
302.76	6.614
302.97	5.328
303.18	9.277
303.39	6.335
303.60	5.805
303.81	6.876
304.02	6.995
304.23	6.742
304.44	7.004
304.65	8.726
304.86	7.483
305.07	7.097
305.28	6.793
305.49	7.907
305.70	6.893
305.91	6.860
306.12	8.812
306.33	7.611
306.54	7.432
306.75	7.447
306.96	9.517
307.17	7.216
307.38	8.507
307.58	6.293
307.79	5.608
308.00	7.307
308.21	6.993
308.42	6.724
308.63	6.281
308.84	6.803
309.05	5.368
309.26	5.956
309.47	5.911
309.68	6.383
309.89	7.007
310.10	4.464
310.31	5.767
310.52	6.090
310.73	6.592
310.94	6.575
311.14	5.883
311.35	6.294
311.56	4.796
311.77	5.733
311.98	5.271
312.19	4.124
312.40	6.810
312.61	5.992
312.82	5.210
313.03	5.335
313.24	6.457
313.45	6.603
313.66	4.780
313.86	6.924
314.07	5.510
314.28	5.909
314.49	7.324
314.70	5.905
314.91	8.752
315.12	7.273
315.33	6.773
315.54	7.099
315.75	7.279
315.96	7.007
316.16	8.410
316.37	8.152
316.58	5.497
316.79	7.799
317.00	7.788
317.21	9.124
317.42	6.714
317.63	7.992
317.84	7.190
318.05	7.745
318.25	10.936
318.46	6.822
318.67	7.278
318.88	7.788
319.09	7.816
319.30	6.232
319.51	8.335
319.72	8.256
319.93	6.000
320.13	6.314
320.34	7.196
320.55	8.505
320.76	8.985
320.97	7.779
321.18	8.147
321.39	6.143
321.60	7.767
321.80	8.097
322.01	8.965
322.22	8.181
322.43	6.935
322.64	7.429
322.85	7.307
323.06	8.601
323.27	7.277
323.47	8.227
323.68	7.835
323.89	6.768
324.10	7.230
324.31	5.298
324.52	7.199
324.73	6.020
324.93	5.706
325.14	6.643
325.35	6.786
325.56	5.408
325.77	8.472
325.98	4.910
326.19	6.816
326.39	5.520
326.60	6.301
326.81	5.571
327.02	6.608
327.23	5.491
327.44	8.245
327.64	5.855
327.85	5.489
328.06	6.415
328.27	7.675
328.48	7.216
328.69	4.798
328.90	5.622
329.10	7.478
329.31	7.891
329.52	6.099
329.73	6.669
329.94	5.975
330.15	6.950
330.35	6.916
330.56	7.017
330.77	6.981
330.98	6.885
331.19	6.761
331.39	7.607
331.60	6.276
331.81	6.315
332.02	7.570
332.23	7.210
332.44	5.716
332.64	6.297
332.85	7.331
333.06	7.322
333.27	4.970
333.48	5.872
333.68	5.870
333.89	6.596
334.10	7.198
334.31	6.455
334.52	5.259
334.72	7.685
334.93	5.398
335.14	4.745
335.35	6.049
335.56	7.560
335.76	6.757
335.97	6.681
336.18	5.614
336.39	8.516
336.60	7.862
336.80	6.271
337.01	6.898
337.22	4.892
337.43	6.863
337.64	6.403
337.84	6.589
338.05	7.483
338.26	6.351
338.47	7.572
338.68	5.452
338.88	6.760
339.09	6.478
339.30	5.543
339.51	6.467
339.71	8.028
339.92	6.268
340.13	6.047
340.34	6.627
340.55	6.426
340.75	7.537
340.96	5.271
341.17	6.508
341.38	6.026
341.58	7.856
341.79	5.665
342.00	6.398
342.21	6.196
342.41	5.249
342.62	5.711
342.83	8.057
343.04	5.429
343.24	5.606
343.45	7.262
343.66	5.191
343.87	5.632
344.07	6.414
344.28	7.382
344.49	6.678
344.70	7.637
344.90	4.850
345.11	4.998
345.32	6.523
345.53	7.221
345.73	6.278
345.94	6.946
346.15	6.822
346.36	5.898
346.56	7.221
346.77	6.945
346.98	7.262
347.19	6.904
347.39	5.795
347.60	7.460
347.81	7.518
348.02	8.328
348.22	6.226
348.43	7.193
348.64	6.109
348.84	6.585
349.05	6.924
349.26	8.347
349.47	7.861
349.67	6.797
349.88	8.370
350.09	6.659
350.30	10.185
350.50	7.617
350.71	10.006
350.92	8.928
351.12	8.699
351.33	9.766
351.54	9.235
351.74	8.682
351.95	6.929
352.16	8.260
352.37	8.828
352.57	7.238
352.78	8.395
352.99	8.802
353.19	9.637
353.40	9.170
353.61	10.279
353.82	9.770
354.02	10.617
354.23	9.703
354.44	12.880
354.64	9.468
354.85	11.404
355.06	10.076
355.26	8.611
355.47	9.548
355.68	11.238
355.88	10.451
356.09	10.409
356.30	8.899
356.51	11.320
356.71	10.104
356.92	8.395
357.13	11.508
357.33	12.195
357.54	10.738
357.75	9.470
357.95	11.245
358.16	10.397
358.37	13.563
358.57	10.034
358.78	13.592
358.99	11.203
359.19	11.388
359.40	12.464
359.61	11.002
359.81	13.459
360.02	14.873
360.23	10.522
360.43	11.911
360.64	11.221
360.85	11.521
361.05	10.260
361.26	13.956
361.47	10.916
361.67	13.505
361.88	9.751
362.09	12.366
362.29	10.792
362.50	11.475
362.70	9.776
362.91	12.837
363.12	10.741
363.32	11.715
363.53	12.384
363.74	12.944
363.94	10.470
364.15	14.026
364.36	12.758
364.56	12.269
364.77	12.807
364.98	15.269
365.18	12.497
365.39	13.388
365.59	10.832
365.80	13.235
366.01	13.525
366.21	11.952
366.42	10.325
366.63	13.132
366.83	11.662
367.04	10.179
367.24	13.245
367.45	11.688
367.66	11.390
367.86	12.819
368.07	11.766
368.28	12.727
368.48	12.491
368.69	11.750
368.89	11.922
369.10	12.798
369.31	12.626
369.51	12.855
369.72	15.359
369.92	16.126
370.13	11.201
370.34	14.332
370.54	9.282
370.75	13.608
370.95	11.553
371.16	13.412
371.37	10.698
371.57	12.620
371.78	11.742
371.98	13.607
372.19	14.134
372.40	14.085
372.60	13.793
372.81	14.842
373.01	11.275
373.22	13.079
373.43	14.078
373.63	14.398
373.84	14.061
374.04	14.258
374.25	13.577
374.46	14.814
374.66	14.154
374.87	16.036
375.07	11.612
375.28	12.842
375.48	14.571
375.69	15.441
375.90	12.161
376.10	12.928
376.31	13.522
376.51	13.248
376.72	13.756
376.92	13.489
377.13	14.691
377.34	14.863
377.54	14.935
377.75	16.590
377.95	13.819
378.16	15.534
378.36	14.899
378.57	16.266
378.77	15.330
378.98	16.347
379.19	15.349
379.39	15.261
379.60	16.226
379.80	16.414
380.01	16.484
380.21	15.696
380.42	16.481
380.62	16.338
380.83	16.793
381.04	16.060
381.24	16.225
381.45	15.890
381.65	15.508
381.86	17.522
382.06	17.429
382.27	16.026
382.47	15.896
382.68	18.433
382.88	16.694
383.09	16.809
383.29	17.581
383.50	18.874
383.71	17.121
383.91	18.348
384.12	16.679
384.32	18.973
384.53	17.829
384.73	17.043
384.94	17.413
385.14	17.970
385.35	17.909
385.55	19.224
385.76	17.843
385.96	20.110
386.17	19.236
386.37	20.077
386.58	19.857
386.78	21.328
386.99	19.412
387.19	21.721
387.40	19.323
387.60	21.663
387.81	19.974
388.01	21.377
388.22	21.677
388.42	22.825
388.63	21.864
388.83	23.416
389.04	21.327
389.24	23.463
389.45	22.997
389.65	22.132
389.86	22.420
390.06	22.800
390.27	21.721
390.47	23.022
390.68	22.740
390.88	24.325
391.09	23.875
391.29	23.793
391.50	23.292
391.70	23.762
391.91	24.268
392.11	24.725
392.32	24.399
392.52	25.730
392.73	24.899
392.93	25.633
393.14	24.743
393.34	25.578
393.55	25.714
393.75	25.897
393.95	25.361
394.16	25.744
394.36	26.113
394.57	26.478
394.77	26.039
394.98	26.984
395.18	26.282
395.39	27.249
395.59	26.114
395.80	26.696
396.00	27.038
396.21	27.036
396.41	27.838
396.61	27.795
396.82	28.197
397.02	29.009
397.23	27.670
397.43	27.932
397.64	26.395
397.84	29.101
398.05	26.644
398.25	28.701
398.45	27.153
398.66	28.355
398.86	27.372
399.07	29.459
399.27	28.102
399.48	28.808
399.68	28.902
399.89	28.098
400.09	28.793
400.29	29.034
400.50	28.263
400.70	28.656
400.91	28.247
401.11	29.034
401.32	28.906
401.52	29.410
401.72	29.518
401.93	29.651
402.13	28.634
402.34	29.947
402.54	29.007
402.75	30.269
402.95	28.647
403.15	28.795
403.36	28.193
403.56	29.312
403.77	28.797
403.97	29.149
404.17	28.196
404.38	28.285
404.58	28.304
404.79	27.982
404.99	28.452
405.19	28.680
405.40	27.746
405.60	29.092
405.81	28.631
406.01	29.415
406.21	28.178
406.42	28.894
406.62	29.046
406.83	29.024
407.03	28.973
407.23	29.559
407.44	29.986
407.64	29.474
407.85	28.823
408.05	29.002
408.25	28.437
408.46	29.528
408.66	29.400
408.87	29.552
409.07	29.230
409.27	29.081
409.48	28.242
409.68	28.624
409.88	28.182
410.09	28.917
410.29	29.061
410.50	28.371
410.70	28.319
410.90	28.497
411.11	27.627
411.31	27.865
411.51	28.320
411.72	28.789
411.92	27.720
412.12	28.991
412.33	28.270
412.53	28.718
412.74	28.459
412.94	29.077
413.14	27.251
413.35	28.597
413.55	28.918
413.75	28.518
413.96	27.811
414.16	29.054
414.36	28.525
414.57	28.418
414.77	28.014
414.97	28.380
415.18	27.133
415.38	27.823
415.58	27.091
415.79	28.128
415.99	27.078
416.19	27.497
416.40	28.251
416.60	27.622
416.80	27.438
417.01	27.282
417.21	26.782
417.41	27.622
417.62	27.275
417.82	26.562
418.02	26.865
418.23	27.236
418.43	26.547
418.63	26.833
418.84	26.822
419.04	26.770
419.24	26.629
419.45	26.330
419.65	26.991
419.85	26.403
420.06	26.872
420.26	26.228
420.46	26.856
420.67	26.976
420.87	26.054
421.07	26.193
421.28	26.665
421.48	26.155
421.68	26.232
421.88	25.928
422.09	26.133
422.29	26.613
422.49	26.263
422.70	26.194
422.90	26.563
423.10	26.469
423.31	27.019
423.51	26.921
423.71	26.439
423.91	26.449
424.12	26.021
424.32	26.394
424.52	26.285
424.73	25.946
424.93	25.560
425.13	25.698
425.33	25.859
425.54	26.539
425.74	26.282
425.94	26.362
426.15	26.577
426.35	26.524
426.55	26.376
426.75	27.324
426.96	26.952
427.16	26.449
427.36	26.817
427.57	26.870
427.77	27.159
427.97	26.715
428.17	26.406
428.38	26.685
428.58	26.669
428.78	26.513
428.98	26.927
429.19	26.095
429.39	25.746
429.59	25.929
429.79	25.937
430.00	25.870
430.20	25.584
430.40	25.970
430.60	25.198
430.81	25.994
431.01	25.714
431.21	25.952
431.41	25.848
431.62	25.918
431.82	25.593
432.02	26.060
432.22	24.974
432.43	25.557
432.63	25.628
432.83	24.973
433.03	25.260
433.24	25.707
433.44	24.657
433.64	25.229
433.84	25.117
434.05	25.396
434.25	25.211
434.45	25.455
434.65	24.928
434.85	25.399
435.06	25.630
435.26	25.524
435.46	25.672
435.66	25.751
435.87	26.036
436.07	25.807
436.27	26.101
436.47	25.861
436.67	25.539
436.88	25.835
437.08	25.592
437.28	25.521
437.48	24.955
437.69	25.138
437.89	24.993
438.09	24.869
438.29	25.230
438.49	25.131
438.70	25.433
438.90	24.733
439.10	25.170
439.30	24.861
439.50	24.547
439.71	24.694
439.91	24.387
440.11	24.512
440.31	24.453
440.51	24.721
440.72	24.445
440.92	24.428
441.12	24.785
441.32	24.268
441.52	24.400
441.72	24.595
441.93	24.694
442.13	24.762
442.33	25.233
442.53	24.654
442.73	25.098
442.94	24.788
443.14	25.144
443.34	25.322
443.54	24.948
443.74	24.975
443.94	24.558
444.15	24.746
444.35	24.765
444.55	23.873
444.75	23.997
444.95	24.223
445.15	23.941
445.36	23.723
445.56	23.562
445.76	23.517
445.96	23.323
446.16	23.682
446.36	23.605
446.57	23.244
446.77	23.037
446.97	23.265
447.17	23.221
447.37	23.230
447.57	23.801
447.77	24.021
447.98	23.642
448.18	23.997
448.38	23.919
448.58	24.294
448.78	24.194
448.98	24.145
449.18	24.908
449.39	24.259
449.59	24.105
449.79	24.113
449.99	24.108
450.19	23.928
450.39	23.984
450.59	23.790
450.79	24.164
451.00	23.475
451.20	24.199
451.40	23.731
451.60	23.436
451.80	23.119
452.00	23.218
452.20	22.791
452.40	22.967
452.61	23.039
452.81	23.361
453.01	23.009
453.21	22.745
453.41	23.250
453.61	22.780
453.81	22.629
454.01	22.900
454.21	22.795
454.42	22.799
454.62	23.055
454.82	22.925
455.02	23.088
455.22	22.951
455.42	22.926
455.62	22.764
455.82	22.498
456.02	22.232
456.23	23.162
456.43	23.281
456.63	22.967
456.83	22.823
457.03	22.017
457.23	22.409
457.43	22.032
457.63	22.141
457.83	21.823
458.03	21.074
458.23	21.557
458.43	21.734
458.64	21.445
458.84	20.701
459.04	21.262
459.24	21.033
459.44	20.913
459.64	20.679
459.84	20.351
460.04	20.555
460.24	20.401
460.44	20.740
460.64	20.797
460.84	20.226
461.04	20.691
461.24	20.963
461.45	20.888
461.65	21.069
461.85	21.237
462.05	21.105
462.25	21.179
462.45	21.406
462.65	21.506
462.85	20.655
463.05	21.507
463.25	21.037
463.45	21.007
463.65	20.579
463.85	20.428
464.05	20.856
464.25	20.187
464.45	20.282
464.65	20.187
464.85	19.911
465.05	20.117
465.26	19.755
465.46	20.080
465.66	19.914
465.86	19.855
466.06	19.211
466.26	19.135
466.46	19.233
466.66	19.110
466.86	19.317
467.06	18.895
467.26	19.073
467.46	19.400
467.66	18.852
467.86	18.984
468.06	18.779
468.26	18.768
468.46	19.264
468.66	19.016
468.86	18.567
469.06	18.647
469.26	18.627
469.46	18.720
469.66	18.937
469.86	18.574
470.06	17.805
470.26	18.032
470.46	17.875
470.66	18.403
470.86	17.656
471.06	17.798
471.26	17.797
471.46	17.859
471.66	17.694
471.86	17.766
472.06	17.944
472.26	18.098
472.46	17.874
472.66	17.761
472.86	17.233
473.06	17.558
473.26	17.295
473.46	17.474
473.66	17.092
473.86	17.520
474.06	16.964
474.26	17.076
474.46	16.795
474.66	17.188
474.86	16.726
475.06	17.208
475.26	16.795
475.46	16.901
475.66	15.843
475.86	16.845
476.06	16.830
476.26	16.487
476.46	15.810
476.66	16.076
476.86	16.467
477.06	16.013
477.26	15.697
477.46	16.235
477.65	15.876
477.85	16.281
478.05	15.760
478.25	15.982
478.45	15.951
478.65	16.058
478.85	16.074
479.05	16.014
479.25	15.745
479.45	16.402
479.65	15.755
479.85	16.015
480.05	15.905
480.25	15.999
480.45	15.513
480.65	15.801
480.85	15.710
481.05	15.715
481.25	15.206
481.44	15.613
481.64	15.382
481.84	15.451
482.04	15.759
482.24	15.246
482.44	15.208
482.64	14.939
482.84	15.071
483.04	14.635
483.24	14.400
483.44	14.270
483.64	13.997
483.84	14.067
484.04	14.436
484.23	14.574
484.43	14.701
484.63	15.122
484.83	15.735
485.03	16.364
485.23	16.263
485.43	15.961
485.63	16.050
485.83	16.110
486.03	16.126
486.23	16.012
486.42	15.791
486.62	15.643
486.82	15.222
487.02	14.864
487.22	14.880
487.42	14.771
487.62	14.480
487.82	14.499
488.02	14.475
488.22	14.462
488.41	14.558
488.61	14.649
488.81	14.655
489.01	14.929
489.21	14.850
489.41	15.109
489.61	14.978
489.81	15.108
490.01	14.994
490.20	14.949
490.40	15.143
490.60	14.869
490.80	14.522
491.00	14.257
491.20	13.801
491.40	13.514
491.60	13.468
491.79	13.643
491.99	13.531
492.19	13.598
492.39	13.609
492.59	13.723
492.79	13.563
492.99	13.901
493.19	13.971
493.38	14.224
493.58	14.422
493.78	14.409
493.98	14.582
494.18	13.923
494.38	14.314
494.58	13.800
494.77	13.687
494.97	13.764
495.17	13.509
495.37	13.369
495.57	13.309
495.77	13.257
495.96	12.975
496.16	12.815
496.36	12.572
496.56	12.227
496.76	12.179
496.96	12.363
497.15	12.417
497.35	12.718
497.55	12.209
497.75	12.281
497.95	12.157
498.15	12.453
498.34	12.021
498.54	12.074
498.74	12.644
498.94	12.290
499.14	12.144
499.34	12.204
499.53	12.101
499.73	12.006
499.93	11.836
500.13	11.758
500.33	11.522
500.52	11.731
500.72	11.489
500.92	11.282
501.12	11.187
501.32	11.511
501.52	10.994
501.71	11.316
501.91	10.751
502.11	11.141
502.31	10.910
502.51	11.004
502.70	10.253
502.90	10.637
503.10	10.102
503.30	10.518
503.50	10.339
503.69	10.665
503.89	9.991
504.09	10.537
504.29	10.160
504.48	10.775
504.68	10.616
504.88	10.614
505.08	9.608
505.28	10.058
505.47	10.328
505.67	10.261
505.87	9.859
506.07	9.805
506.27	9.592
506.46	10.226
506.66	9.302
506.86	10.030
507.06	10.053
507.25	9.796
507.45	9.566
507.65	9.892
507.85	9.577
508.04	9.664
508.24	9.731
508.44	9.973
508.64	9.467
508.83	9.433
509.03	9.463
509.23	9.807
509.43	9.252
509.63	9.914
509.82	9.598
510.02	9.879
510.22	9.872
510.42	10.360
510.61	9.726
510.81	9.758
511.01	9.644
511.21	9.963
511.40	9.674
511.60	10.215
511.80	9.777
511.99	10.055
512.19	10.254
512.39	10.748
512.59	10.073
512.78	10.842
512.98	10.193
513.18	10.835
513.38	10.431
513.57	11.058
513.77	10.617
513.97	11.169
514.17	10.916
514.36	11.045
514.56	11.236
514.76	11.491
514.95	11.131
515.15	11.494
515.35	11.182
515.55	11.988
515.74	11.896
515.94	12.234
516.14	12.181
516.33	12.390
516.53	12.306
516.73	12.554
516.93	12.368
517.12	12.986
517.32	12.604
517.52	12.956
517.71	12.587
517.91	13.184
518.11	13.238
518.30	13.441
518.50	13.527
518.70	13.326
518.90	14.049
519.09	13.965
519.29	14.601
519.49	14.736
519.68	14.745
519.88	15.121
520.08	15.032
520.27	15.405
520.47	15.704
520.67	15.815
520.86	16.147
521.06	16.439
521.26	16.707
521.45	16.420
521.65	16.832
521.85	17.293
522.04	16.775
522.24	17.604
522.44	17.690
522.63	17.879
522.83	17.803
523.03	18.671
523.22	18.474
523.42	19.164
523.62	19.034
523.81	19.373
524.01	19.137
524.21	19.547
524.40	19.586
524.60	19.981
524.80	20.034
524.99	20.025
525.19	19.935
525.39	19.942
525.58	20.329
525.78	20.447
525.98	20.613
526.17	20.510
526.37	20.977
526.57	21.175
526.76	21.383
526.96	21.714
527.15	21.520
527.35	21.678
527.55	22.337
527.74	22.134
527.94	22.044
528.14	21.922
528.33	21.400
528.53	21.331
528.72	22.310
528.92	22.267
529.12	22.809
529.31	23.028
529.51	23.384
529.71	23.795
529.90	23.922
530.10	23.927
530.29	24.562
530.49	25.031
530.69	25.405
530.88	25.027
531.08	25.098
531.28	25.144
531.47	24.832
531.67	24.560
531.86	24.644
532.06	24.889
532.26	24.573
532.45	24.745
532.65	24.453
532.84	24.552
533.04	24.440
533.24	24.207
533.43	24.273
533.63	25.110
533.82	24.869
534.02	25.469
534.22	24.966
534.41	25.417
534.61	25.687
534.80	25.629
535.00	26.146
535.19	26.076
535.39	26.521
535.59	26.541
535.78	26.147
535.98	26.166
536.17	26.290
536.37	25.646
536.57	25.320
536.76	25.673
536.96	25.406
537.15	25.931
537.35	25.809
537.54	25.976
537.74	26.154
537.93	26.116
538.13	26.026
538.33	26.538
538.52	26.757
538.72	26.581
538.91	26.671
539.11	26.770
539.30	26.818
539.50	26.722
539.70	26.712
539.89	26.398
540.09	25.959
540.28	26.218
540.48	25.822
540.67	25.768
540.87	25.607
541.06	24.745
541.26	25.406
541.45	25.449
541.65	25.773
541.85	26.018
542.04	25.851
542.24	26.179
542.43	26.562
542.63	26.354
542.82	26.779
543.02	26.743
543.21	27.307
543.41	27.173
543.60	27.224
543.80	27.289
543.99	27.556
544.19	27.095
544.38	27.027
544.58	27.043
544.77	26.516
544.97	27.003
545.16	27.034
545.36	27.411
545.56	27.168
545.75	26.890
545.95	27.372
546.14	26.593
546.34	26.824
546.53	26.494
546.73	26.887
546.92	26.728
547.12	26.284
547.31	26.624
547.51	26.480
547.70	26.919
547.90	26.878
548.09	27.261
548.29	27.128
548.48	27.202
548.68	27.649
548.87	27.906
549.07	27.850
549.26	27.858
549.46	27.633
549.65	28.219
549.84	27.684
550.04	27.746
550.23	27.552
550.43	27.438
550.62	27.499
550.82	27.304
551.01	27.290
551.21	27.536
551.40	27.926
551.60	27.788
551.79	27.533
551.99	27.544
552.18	27.204
552.38	27.001
552.57	27.243
552.77	27.108
552.96	27.665
553.16	27.281
553.35	27.200
553.54	27.814
553.74	27.377
553.93	27.470
554.13	27.854
554.32	27.495
554.52	28.175
554.71	28.221
554.91	27.530
555.10	28.225
555.29	28.330
555.49	27.800
555.68	28.338
555.88	27.974
556.07	27.513
556.27	28.234
556.46	27.753
556.66	27.459
556.85	27.677
557.04	27.481
557.24	27.828
557.43	27.980
557.63	27.892
557.82	27.309
558.02	27.731
558.21	27.630
558.40	27.524
558.60	28.165
558.79	28.091
558.99	27.964
559.18	28.227
559.38	28.188
559.57	28.363
559.76	27.619
559.96	28.658
560.15	27.534
560.35	27.478
560.54	27.143
560.73	27.034
560.93	27.708
561.12	27.693
561.32	27.879
561.51	27.981
561.70	27.661
561.90	27.717
562.09	28.209
562.29	27.816
562.48	27.965
562.67	27.888
562.87	27.650
563.06	28.326
563.26	28.028
563.45	28.116
563.64	27.638
563.84	27.519
564.03	28.203
564.23	27.447
564.42	27.609
564.61	27.343
564.81	27.794
565.00	27.258
565.20	27.055
565.39	27.106
565.58	26.879
565.78	27.159
565.97	26.903
566.16	27.301
566.36	27.288
566.55	27.189
566.74	27.247
566.94	27.142
567.13	27.043
567.33	27.474
567.52	28.058
567.71	27.329
567.91	27.218
568.10	27.357
568.29	27.277
568.49	27.599
568.68	27.040
568.87	27.153
569.07	27.181
569.26	27.014
569.45	27.390
569.65	26.973
569.84	27.036
570.04	27.688
570.23	26.786
570.42	26.750
570.62	26.923
570.81	26.815
571.00	26.803
571.20	26.614
571.39	26.501
571.58	26.410
571.78	26.803
571.97	26.429
572.16	26.370
572.36	26.203
572.55	26.586
572.74	26.071
572.94	25.993
573.13	26.470
573.32	26.211
573.51	26.088
573.71	27.009
573.90	26.507
574.09	26.567
574.29	26.240
574.48	25.819
574.67	26.436
574.87	26.992
575.06	26.247
575.25	26.065
575.45	26.334
575.64	26.508
575.83	26.135
576.03	27.059
576.22	26.672
576.41	25.317
576.60	26.427
576.80	26.086
576.99	26.665
577.18	26.718
577.38	26.259
577.57	26.507
577.76	26.434
577.95	26.293
578.15	26.194
578.34	26.993
578.53	26.456
578.73	26.070
578.92	26.114
579.11	26.857
579.30	26.602
579.50	26.473
579.69	26.142
579.88	26.529
580.08	26.293
580.27	26.205
580.46	26.724
580.65	26.708
580.85	25.781
581.04	26.061
581.23	26.218
581.42	26.309
581.62	26.385
581.81	26.196
582.00	26.355
582.19	26.814
582.39	26.757
582.58	26.594
582.77	26.034
582.96	26.421
583.16	26.193
583.35	26.485
583.54	26.472
583.73	26.814
583.93	26.498
584.12	26.678
584.31	26.306
584.50	26.611
584.70	26.532
584.89	27.021
585.08	27.215
585.27	26.483
585.47	26.361
585.66	26.491
585.85	27.014
586.04	26.817
586.24	27.406
586.43	26.402
586.62	26.286
586.81	27.148
587.00	27.085
587.20	26.752
587.39	26.398
587.58	26.306
587.77	26.859
587.97	27.207
588.16	26.479
588.35	26.754
588.54	26.731
588.73	26.237
588.93	27.186
589.12	27.315
589.31	27.179
589.50	26.753
589.69	26.838
589.89	27.527
590.08	26.991
590.27	27.256
590.46	27.327
590.65	27.506
590.85	28.118
591.04	27.331
591.23	27.970
591.42	28.040
591.61	27.169
591.81	27.547
592.00	28.099
592.19	28.176
592.38	27.805
592.57	28.259
592.77	27.717
592.96	28.242
593.15	27.981
593.34	28.226
593.53	28.296
593.72	28.694
593.92	28.027
594.11	28.997
594.30	27.937
594.49	28.205
594.68	28.699
594.87	28.586
595.07	28.166
595.26	28.200
595.45	28.557
595.64	29.423
595.83	29.122
596.02	28.706
596.22	28.891
596.41	28.712
596.60	28.679
596.79	28.627
596.98	28.806
597.17	28.736
597.37	28.936
597.56	29.044
597.75	28.678
597.94	29.603
598.13	28.896
598.32	29.668
598.51	29.988
598.71	30.128
598.90	29.829
599.09	30.007
599.28	30.606
599.47	30.052
599.66	30.128
599.85	30.699
600.05	30.926
600.24	29.884
600.43	30.800
600.62	30.550
600.81	31.051
601.00	30.525
601.19	30.926
601.38	30.103
601.58	30.951
601.77	30.779
601.96	31.584
602.15	30.985
602.34	31.007
602.53	31.287
602.72	31.153
602.91	31.000
603.10	30.291
603.30	31.081
603.49	31.886
603.68	31.125
603.87	31.204
604.06	30.847
604.25	31.588
604.44	31.009
604.63	30.558
604.82	31.212
605.01	31.040
605.21	31.889
605.40	31.409
605.59	31.691
605.78	31.634
605.97	31.383
606.16	32.434
606.35	31.839
606.54	32.466
606.73	32.465
606.92	32.831
607.11	32.114
607.30	33.180
607.50	32.788
607.69	31.608
607.88	33.245
608.07	32.114
608.26	33.052
608.45	33.093
608.64	32.949
608.83	31.665
609.02	32.198
609.21	32.545
609.40	32.491
609.59	32.609
609.78	31.792
609.97	32.788
610.16	32.134
610.35	32.598
610.55	32.591
610.74	33.176
610.93	33.021
611.12	32.839
611.31	32.947
611.50	32.627
611.69	32.822
611.88	33.630
612.07	33.131
612.26	33.296
612.45	32.787
612.64	32.415
612.83	33.883
613.02	33.258
613.21	33.188
613.40	33.336
613.59	33.284
613.78	32.734
613.97	32.593
614.16	33.082
614.35	33.913
614.54	32.684
614.73	33.646
614.92	34.259
615.11	33.457
615.30	33.843
615.49	34.807
615.68	33.536
615.87	34.119
616.07	32.810
616.26	33.284
616.45	33.427
616.64	33.137
616.83	33.233
617.02	32.799
617.21	32.386
617.40	33.406
617.59	33.161
617.78	33.708
617.97	32.488
618.16	33.693
618.35	32.155
618.54	33.282
618.73	33.446
618.92	33.341
619.11	33.436
619.30	33.718
619.49	33.358
619.68	34.125
619.86	32.748
620.05	34.009
620.24	32.945
620.43	32.807
620.62	32.330
620.81	32.926
621.00	33.299
621.19	33.826
621.38	33.976
621.57	33.873
621.76	33.240
621.95	33.353
622.14	33.510
622.33	32.851
622.52	33.478
622.71	33.288
622.90	32.945
623.09	33.168
623.28	33.316
623.47	33.378
623.66	32.385
623.85	32.913
624.04	32.732
624.23	33.393
624.42	33.042
624.61	33.961
624.80	32.373
624.99	33.015
625.18	33.743
625.36	32.724
625.55	32.894
625.74	32.824
625.93	32.700
626.12	32.516
626.31	32.582
626.50	33.023
626.69	32.650
626.88	32.257
627.07	33.398
627.26	31.658
627.45	32.533
627.64	33.341
627.83	33.172
628.02	32.544
628.20	32.382
628.39	33.078
628.58	33.573
628.77	33.635
628.96	33.157
629.15	32.142
629.34	33.023
629.53	33.094
629.72	33.281
629.91	32.980
630.10	32.639
630.29	33.498
630.47	32.629
630.66	32.873
630.85	32.479
631.04	33.128
631.23	33.687
631.42	33.114
631.61	32.922
631.80	32.771
631.99	33.766
632.18	32.893
632.36	33.366
632.55	33.012
632.74	32.260
632.93	32.950
633.12	32.626
633.31	32.689
633.50	33.031
633.69	32.853
633.88	32.977
634.06	33.634
634.25	32.479
634.44	32.568
634.63	32.751
634.82	32.681
635.01	32.873
635.20	32.403
635.39	33.045
635.57	33.222
635.76	32.826
635.95	32.925
636.14	33.367
636.33	33.316
636.52	32.924
636.71	33.029
636.89	33.066
637.08	33.127
637.27	32.759
637.46	32.311
637.65	33.872
637.84	32.976
638.03	32.351
638.21	32.385
638.40	33.574
638.59	33.317
638.78	33.725
638.97	33.358
639.16	32.676
639.34	32.368
639.53	33.235
639.72	33.052
639.91	33.291
640.10	33.161
640.29	32.944
640.47	33.480
640.66	33.076
640.85	33.227
641.04	32.259
641.23	32.195
641.42	32.804
641.60	32.657
641.79	33.476
641.98	33.190
642.17	32.992
642.36	32.155
642.54	31.452
642.73	33.416
642.92	32.808
643.11	32.799
643.30	32.159
643.49	33.256
643.67	32.106
643.86	32.245
644.05	33.630
644.24	32.480
644.43	31.878
644.61	33.630
644.80	32.425
644.99	32.206
645.18	33.027
645.37	32.700
645.55	32.045
645.74	33.268
645.93	33.264
646.12	33.728
646.31	33.062
646.49	33.010
646.68	34.118
646.87	31.856
647.06	32.375
647.24	32.527
647.43	33.375
647.62	33.442
647.81	32.051
648.00	33.039
648.18	31.220
648.37	33.124
648.56	33.753
648.75	32.871
648.93	32.387
649.12	31.856
649.31	31.625
649.50	32.858
649.68	32.517
649.87	31.465
650.06	32.804
650.25	31.945
650.43	32.822
650.62	32.970
650.81	32.022
651.00	32.014
651.18	32.192
651.37	33.193
651.56	31.265
651.75	33.194
651.93	32.175
652.12	32.547
652.31	32.239
652.50	32.350
652.68	31.537
652.87	32.320
653.06	32.009
653.25	32.729
653.43	32.181
653.62	32.559
653.81	30.779
654.00	33.842
654.18	32.623
654.37	33.144
654.56	33.120
654.74	32.573
654.93	32.312
655.12	33.164
655.31	31.270
655.49	31.908
655.68	30.955
655.87	31.644
656.05	30.854
656.24	31.400
656.43	30.835
656.62	30.359
656.80	30.430
656.99	30.293
657.18	30.391
657.36	31.780
657.55	31.617
657.74	31.877
657.93	31.057
658.11	31.428
658.30	31.792
658.49	31.611
658.67	29.514
658.86	30.498
659.05	30.518
659.23	30.630
659.42	29.145
659.61	30.897
659.79	30.181
659.98	30.701
660.17	29.815
660.35	31.256
660.54	30.785
660.73	30.239
660.91	30.895
661.10	30.719
661.29	29.897
661.47	30.521
661.66	29.877
661.85	30.083
662.03	29.277
662.22	29.870
662.41	28.751
662.59	29.865
662.78	28.880
662.97	28.471
663.15	28.075
663.34	30.349
663.53	27.859
663.71	29.324
663.90	27.420
664.09	29.531
664.27	28.752
664.46	28.425
664.65	27.840
664.83	27.598
665.02	27.228
665.21	27.718
665.39	26.020
665.58	27.508
665.77	27.554
665.95	29.182
666.14	26.495
666.32	27.217
666.51	26.156
666.70	26.149
666.88	25.542
667.07	27.003
667.26	25.674
667.44	26.586
667.63	26.082
667.81	25.773
668.00	27.335
668.19	27.797
668.37	26.532
668.56	27.568
668.75	25.427
668.93	26.573
669.12	24.939
669.30	26.685
669.49	26.933
669.68	26.164
669.86	27.066
670.05	26.699
670.23	24.814
670.42	26.189
670.61	26.496
670.79	26.917
670.98	25.214
671.16	26.535
671.35	25.298
671.54	26.302
671.72	23.818
671.91	26.676
672.09	23.426
672.28	26.355
672.46	25.922
672.65	25.955
672.84	26.743
673.02	26.790
673.21	24.024
673.39	25.653
673.58	24.610
673.77	26.751
673.95	24.084
674.14	26.408
674.32	24.280
674.51	25.807
674.69	24.150
674.88	25.006
675.07	25.100
675.25	27.765
675.44	23.880
675.62	26.248
675.81	24.470
675.99	28.293
676.18	25.193
676.36	26.865
676.55	22.960
676.74	26.626
676.92	26.778
677.11	25.461
677.29	24.155
677.48	26.547
677.66	25.537
677.85	25.615
678.03	25.421
678.22	26.104
678.40	25.896
678.59	25.495
678.78	24.526
678.96	26.623
679.15	25.027
679.33	26.867
679.52	26.967
679.70	26.541
679.89	25.905
680.07	28.105
680.26	25.494
680.44	26.912
680.63	25.875
680.81	27.514
681.00	26.115
681.18	26.755
681.37	26.698
681.55	28.100
681.74	27.413
681.92	27.989
682.11	27.083
682.29	28.040
682.48	27.547
682.66	28.565
682.85	27.379
683.03	27.631
683.22	28.957
683.40	29.171
683.59	26.780
683.77	28.419
683.96	26.335
684.14	29.348
684.33	26.335
684.51	30.148
684.70	28.122
684.88	30.145
685.07	28.642
685.25	30.122
685.44	27.217
685.62	28.865
685.81	28.311
685.99	29.632
686.18	28.779
686.36	29.602
686.55	26.646
686.73	30.547
686.92	29.655
687.10	30.587
687.29	30.253
687.47	30.950
687.65	30.646
687.84	30.836
688.02	31.936
688.21	32.457
688.39	29.047
688.58	33.283
688.76	31.770
688.95	30.571
689.13	32.026
689.32	33.744
689.50	30.873
689.68	33.372
689.87	31.815
690.05	31.885
690.24	31.760
690.42	33.685
690.61	33.482
690.79	32.543
690.98	32.747
691.16	32.322
691.34	31.470
691.53	33.360
691.71	32.661
691.90	35.769
692.08	32.442
692.27	36.323
692.45	35.182
692.63	34.601
692.82	34.600
693.00	34.863
693.19	33.966
693.37	36.123
693.56	34.917
693.74	36.034
693.92	33.965
694.11	35.740
694.29	35.729
694.48	36.922
694.66	35.549
694.84	36.817
695.03	36.683
695.21	38.487
695.40	38.385
695.58	38.047
695.76	35.471
695.95	38.994
696.13	37.500
696.32	39.245
696.50	39.913
696.68	39.441
696.87	36.965
697.05	37.513
697.24	37.754
697.42	38.990
697.60	37.225
697.79	41.404
697.97	36.491
698.16	38.871
698.34	37.384
698.52	39.441
698.71	39.558
698.89	39.584
699.07	38.608
699.26	39.694
699.44	38.982
699.63	40.076
699.81	39.281
699.99	40.253
700.18	38.942
700.36	40.266
700.54	40.775
700.73	39.651
700.91	41.226
701.09	40.776
701.28	40.338
701.46	40.112
701.64	40.304
701.83	41.495
702.01	39.227
702.20	40.802
702.38	40.963
702.56	43.282
702.75	41.330
702.93	41.321
703.11	37.842
703.30	41.338
703.48	41.246
703.66	43.378
703.85	40.378
704.03	45.654
704.21	40.952
704.40	42.774
704.58	41.959
704.76	43.790
704.95	41.436
705.13	45.148
705.31	42.063
705.50	42.654
705.68	41.996
705.86	43.146
706.04	42.385
706.23	43.182
706.41	42.356
706.59	42.774
706.78	41.118
706.96	42.753
707.14	42.904
707.33	43.983
707.51	44.728
707.69	44.585
707.88	41.293
708.06	44.433
708.24	43.067
708.42	44.375
708.61	43.188
708.79	45.256
708.97	43.544
709.16	45.403
709.34	44.329
709.52	44.993
709.71	42.625
709.89	46.591
710.07	42.898
710.25	46.924
710.44	43.086
710.62	45.361
710.80	42.440
710.98	45.270
711.17	44.071
711.35	44.348
711.53	41.784
711.72	43.006
711.90	45.177
712.08	43.260
712.26	42.805
712.45	43.957
712.63	44.526
712.81	44.805
712.99	43.929
713.18	43.517
713.36	44.380
713.54	45.154
713.72	42.187
713.91	45.028
714.09	43.362
714.27	45.412
714.45	44.979
714.64	45.932
714.82	44.597
715.00	43.543
715.18	44.848
715.37	46.030
715.55	44.907
715.73	46.246
715.91	43.777
716.10	43.493
716.28	43.004
716.46	45.423
716.64	43.769
716.83	46.315
717.01	45.654
717.19	44.662
717.37	43.049
717.55	44.492
717.74	43.304
717.92	43.615
718.10	43.445
718.28	45.343
718.47	41.706
718.65	45.253
718.83	44.945
719.01	47.031
719.19	43.636
719.38	44.595
719.56	44.192
719.74	43.810
719.92	43.809
720.10	42.840
720.29	43.498
720.47	46.193
720.65	45.339
720.83	43.837
721.01	40.529
721.20	46.207
721.38	45.646
721.56	45.649
721.74	44.237
721.92	44.606
722.11	44.965
722.29	47.002
722.47	43.742
722.65	48.682
722.83	48.069
723.01	46.071
723.20	43.682
723.38	45.284
723.56	45.010
723.74	46.139
723.92	45.423
724.10	45.836
724.29	43.360
724.47	45.874
724.65	44.389
724.83	48.166
725.01	44.750
725.19	46.299
725.38	45.928
725.56	45.553
725.74	44.943
725.92	48.218
726.10	44.170
726.28	46.086
726.46	45.740
726.65	47.138
726.83	43.111
727.01	46.744
727.19	47.085
727.37	45.696
727.55	44.264
727.73	44.961
727.92	44.982
728.10	49.214
728.28	44.699
728.46	45.290
728.64	47.033
728.82	45.170
729.00	47.288
729.19	45.957
729.37	45.257
729.55	46.304
729.73	44.284
729.91	45.849
730.09	46.905
730.27	45.269
730.45	43.197
730.63	45.647
730.82	44.486
731.00	46.551
731.18	44.454
731.36	46.397
731.54	45.063
731.72	48.323
731.90	44.955
732.08	45.804
732.26	42.296
732.45	47.592
732.63	45.302
732.81	45.378
732.99	46.146
733.17	48.004
733.35	45.603
733.53	46.696
733.71	47.164
733.89	47.819
734.07	46.379
734.25	46.340
734.44	45.987
734.62	46.064
734.80	47.436
734.98	47.873
735.16	49.142
735.34	48.969
735.52	49.171
735.70	49.583
735.88	48.896
736.06	48.371
736.24	50.036
736.42	48.354
736.60	47.920
736.78	49.428
736.97	48.163
737.15	48.790
737.33	46.663
737.51	48.177
737.69	49.426
737.87	48.731
738.05	48.820
738.23	48.539
738.41	45.576
738.59	49.950
738.77	47.034
738.95	50.425
739.13	50.013
739.31	48.074
739.49	50.236
739.67	51.283
739.85	50.306
740.03	48.466
740.21	49.602
740.39	48.410
740.57	50.425
740.75	50.013
740.93	48.386
741.11	49.394
741.30	51.113
741.48	46.293
741.66	51.346
741.84	51.211
742.02	49.587
742.20	51.628
742.38	50.815
742.56	52.376
742.74	48.422
742.92	48.523
743.10	47.358
743.28	53.656
743.46	50.364
743.64	50.549
743.82	49.076
744.00	53.184
744.18	50.961
744.36	51.645
744.54	49.284
744.72	52.753
744.90	50.139
745.08	51.197
745.26	49.911
745.44	49.445
745.62	47.437
745.80	49.862
745.98	50.382
746.16	52.705
746.34	49.529
746.52	49.731
746.70	48.820
746.87	51.074
747.05	51.138
747.23	51.179
747.41	52.203
747.59	52.357
747.77	50.824
747.95	50.569
748.13	50.463
748.31	55.394
748.49	51.098
748.67	51.254
748.85	47.664
749.03	52.367
749.21	53.356
749.39	55.809
749.57	51.492
749.75	50.818
749.93	51.044
750.11	51.265
750.29	50.337
750.47	50.452
750.65	50.926
750.83	52.718
751.01	49.181
751.18	50.327
751.36	51.864
751.54	54.285
751.72	51.196
751.90	51.349
752.08	51.160
752.26	50.667
752.44	52.425
752.62	50.981
752.80	51.164
752.98	53.073
753.16	52.105
753.34	52.829
753.52	54.598
753.69	51.857
753.87	49.567
754.05	50.324
754.23	49.418
754.41	49.939
754.59	51.585
754.77	49.715
754.95	50.526
755.13	50.000
755.31	49.635
755.49	52.685
755.66	47.562
755.84	52.456
756.02	50.307
756.20	55.003
756.38	49.634
756.56	53.128
756.74	49.011
756.92	53.063
757.10	50.800
757.28	56.395
757.45	53.795
757.63	54.957
757.81	51.411
757.99	52.477
758.17	49.769
758.35	53.209
758.53	48.779
758.71	49.754
758.88	49.844
759.06	50.210
759.24	49.905
759.42	51.158
759.60	48.170
759.78	45.328
759.96	44.085
760.13	47.493
760.31	43.357
760.49	42.554
760.67	38.328
760.85	42.932
761.03	40.142
761.21	40.176
761.38	36.527
761.56	42.013
761.74	37.750
761.92	46.770
762.10	36.268
762.28	41.000
762.46	37.246
762.63	40.533
762.81	38.382
762.99	42.140
763.17	40.653
763.35	41.024
763.53	39.481
763.70	42.708
763.88	41.016
764.06	43.238
764.24	41.217
764.42	42.728
764.60	41.452
764.77	42.396
764.95	41.100
765.13	43.880
765.31	44.658
765.49	45.078
765.66	43.436
765.84	46.565
766.02	43.716
766.20	47.249
766.38	44.881
766.56	48.298
766.73	44.631
766.91	46.570
767.09	45.660
767.27	50.182
767.45	45.273
767.62	46.561
767.80	46.738
767.98	49.922
768.16	47.766
768.33	52.207
768.51	47.475
768.69	50.796
768.87	47.673
769.05	52.123
769.22	51.383
769.40	53.088
769.58	52.501
769.76	50.881
769.94	50.672
770.11	50.581
770.29	53.356
770.47	51.009
770.65	50.729
770.82	54.861
771.00	51.619
771.18	56.717
771.36	55.228
771.53	51.135
771.71	53.242
771.89	55.226
772.07	50.248
772.25	54.000
772.42	52.207
772.60	54.383
772.78	49.936
772.96	55.801
773.13	53.247
773.31	57.825
773.49	50.978
773.67	50.502
773.84	51.102
774.02	55.706
774.20	54.487
774.37	51.732
774.55	51.263
774.73	57.630
774.91	54.216
775.08	53.510
775.26	53.321
775.44	56.607
775.62	53.687
775.79	50.095
775.97	55.457
776.15	51.498
776.32	52.761
776.50	55.442
776.68	55.382
776.86	53.394
777.03	51.455
777.21	55.345
777.39	52.495
777.56	57.239
777.74	52.069
777.92	53.817
778.10	51.701
778.27	53.622
778.45	56.761
778.63	57.754
778.80	54.163
778.98	55.447
779.16	56.520
779.34	54.820
779.51	54.506
779.69	57.897
779.87	54.098
780.04	56.313
780.22	49.294
780.40	58.236
780.57	57.382
780.75	53.405
780.93	58.097
781.10	56.090
781.28	60.170
781.46	48.233
781.63	49.927
781.81	57.348
781.99	48.564
782.16	53.651
782.34	49.920
782.52	54.761
782.69	53.725
782.87	57.655
783.05	58.163
783.22	50.924
783.40	51.237
783.58	57.239
783.75	54.281
783.93	61.960
784.11	52.562
784.28	56.531
784.46	55.072
784.64	60.056
784.81	57.437
784.99	58.978
785.17	58.295
785.34	57.026
785.52	55.176
785.69	54.428
785.87	52.437
786.05	54.926
786.22	54.252
786.40	63.094
786.58	55.199
786.75	52.074
786.93	52.491
787.11	53.118
787.28	53.398
787.46	53.359
787.63	52.582
787.81	50.498
787.99	52.022
788.16	52.802
788.34	49.665
788.51	53.048
788.69	50.879
788.87	54.313
789.04	48.688
789.22	51.230
789.39	49.385
789.57	53.104
789.75	45.014
789.92	49.451
790.10	50.882
790.27	49.425
790.45	45.883
790.63	52.243
790.80	47.994
790.98	55.429
791.15	51.325
791.33	50.133
791.51	48.532
791.68	56.200
791.86	53.296
792.03	54.266
792.21	44.616
792.39	50.500
792.56	50.873
792.74	58.055
792.91	52.566
793.09	54.493
793.26	50.117
793.44	62.349
793.62	51.590
793.79	51.135
793.97	50.000
794.14	53.569
794.32	51.206
794.49	57.500
794.67	47.876
794.84	56.212
795.02	50.604
795.20	54.145
795.37	48.051
795.55	57.721
795.72	57.509
795.90	54.535
796.07	47.630
796.25	52.144
796.42	52.687
796.60	51.864
796.77	49.827
796.95	50.687
797.13	48.636
797.30	53.660
797.48	45.508
797.65	47.315
797.83	47.436
798.00	55.712
798.18	46.053
798.35	53.329
798.53	52.313
798.70	52.847
798.88	52.819
799.05	49.457
799.23	52.744
799.40	55.009
799.58	56.291
799.75	54.958
799.93	44.867
800.10	57.024
800.28	54.335
800.45	50.811
800.63	45.597
800.80	53.495
800.98	50.213
801.15	49.787
801.33	53.660
801.50	53.189
801.68	44.260
801.85	51.072
802.03	47.092
802.20	52.797
802.38	53.064
802.55	52.767
802.73	49.866
802.90	50.312
803.08	50.367
803.25	56.878
803.43	52.952
803.60	58.918
803.78	48.059
803.95	54.177
804.13	49.435
804.30	55.436
804.48	48.825
804.65	55.825
804.83	49.195
805.00	52.257
805.17	55.792
805.35	51.432
805.52	47.921
805.70	52.192
805.87	53.123
806.05	52.937
806.22	47.717
806.40	50.370
806.57	48.760
806.75	52.108
806.92	50.557
807.09	58.811
807.27	56.275
807.44	55.453
807.62	49.839
807.79	50.363
807.97	50.950
808.14	52.111
808.31	48.792
808.49	52.022
808.66	48.584
808.84	47.556
809.01	52.665
809.19	46.559
809.36	53.867
809.53	48.789
809.71	47.132
809.88	54.882
810.06	50.756
810.23	51.784
810.41	54.566
810.58	56.745
810.75	51.024
810.93	50.972
811.10	50.614
811.28	53.624
811.45	57.121
811.62	53.915
811.80	51.492
811.97	51.303
812.15	53.904
812.32	45.549
812.49	51.490
812.67	54.350
812.84	45.331
813.02	57.735
813.19	40.261
813.36	56.708
813.54	51.675
813.71	53.137
813.89	55.183
814.06	53.138
814.23	46.286
814.41	43.170
814.58	50.116
814.75	51.494
814.93	43.063
815.10	52.917
815.28	39.950
815.45	49.206
815.62	48.313
815.80	47.896
815.97	48.145
816.14	53.068
816.32	50.336
816.49	45.522
816.66	43.336
816.84	49.959
817.01	49.088
817.18	50.042
817.36	47.373
817.53	48.513
817.71	41.013
817.88	51.876
818.05	37.452
818.23	50.562
818.40	44.862
818.57	45.468
818.75	41.589
818.92	43.408
819.09	47.085
819.27	46.465
819.44	42.758
819.61	44.863
819.79	44.544
819.96	49.476
820.13	43.686
820.31	46.777
820.48	48.305
820.65	45.487
820.82	44.611
821.00	43.818
821.17	37.166
821.34	44.783
821.52	46.952
821.69	41.575
821.86	40.276
822.04	44.348
822.21	41.928
822.38	42.649
822.56	40.393
822.73	41.087
822.90	39.919
823.07	42.421
823.25	40.507
823.42	41.662
823.59	40.708
823.77	41.993
823.94	40.950
824.11	41.119
824.29	39.188
824.46	43.527
824.63	42.140
824.80	42.076
824.98	42.811
825.15	43.742
825.32	40.544
825.49	44.973
825.67	43.251
825.84	44.412
826.01	44.329
826.19	44.044
826.36	42.946
826.53	44.745
826.70	44.144
826.88	43.342
827.05	42.823
827.22	41.178
827.39	39.994
827.57	42.156
827.74	37.156
827.91	43.131
828.08	40.261
828.26	41.328
828.43	36.705
828.60	43.643
828.77	41.789
828.95	43.245
829.12	37.023
829.29	39.119
829.46	41.760
829.64	40.440
829.81	38.467
829.98	43.971
830.15	42.594
830.32	42.965
830.50	43.430
830.67	42.913
830.84	37.557
831.01	40.324
831.19	41.131
831.36	44.499
831.53	53.411
831.70	48.296
831.87	37.260
832.05	48.368
832.22	51.740
832.39	42.530
832.56	47.686
832.74	41.463
832.91	42.345
833.08	48.686
833.25	38.024
833.42	40.064
833.60	40.359
833.77	40.435
833.94	41.624
834.11	38.447
834.28	35.603
834.45	40.866
834.63	33.161
834.80	38.325
834.97	36.583
835.14	38.409
835.31	40.875
835.49	37.795
835.66	39.394
835.83	39.843
836.00	35.992
836.17	41.639
836.34	35.890
836.52	40.932
836.69	43.548
836.86	44.356
837.03	44.199
837.20	41.475
837.37	38.907
837.55	40.096
837.72	43.582
837.89	45.248
838.06	46.809
838.23	51.315
838.40	55.224
838.58	52.641
838.75	47.034
838.92	50.143
839.09	53.546
839.26	55.734
839.43	55.383
839.60	58.507
839.78	68.685
839.95	65.577
840.12	47.744
840.29	63.983
840.46	55.441
840.63	59.551
840.80	49.607
840.98	57.451
841.15	49.850
841.32	51.140
841.49	46.667
841.66	54.467
841.83	48.391
842.00	48.320
842.17	59.512
842.34	48.807
842.52	58.861
842.69	60.554
842.86	49.036
843.03	68.218
843.20	62.923
843.37	53.875
843.54	53.341
843.71	57.838
843.88	62.252
844.06	71.509
844.23	63.846
844.40	66.981
844.57	69.297
844.74	67.180
844.91	70.048
845.08	64.000
845.25	75.421
845.42	68.675
845.59	60.521
845.76	64.322
845.94	78.768
846.11	67.572
846.28	79.274
846.45	80.777
846.62	96.023
846.79	80.492
846.96	80.777
847.13	85.863
847.30	87.917
847.47	77.656
847.64	74.897
847.81	75.179
847.98	102.119
848.15	86.653
848.32	86.679
848.50	82.035
848.67	71.264
848.84	86.013
849.01	82.157
849.18	100.943
849.35	100.218
849.52	77.551
849.69	93.177
849.86	93.305
850.03	71.250
850.20	95.429
850.37	69.783
850.54	96.344
850.71	78.395
850.88	97.436
851.05	90.508
851.22	89.079
851.39	95.577
851.56	81.773
851.73	100.704
851.90	104.890
852.07	87.579
852.24	80.897
852.41	101.129
852.58	87.336
852.75	83.871
852.92	81.764
853.09	93.407
853.26	90.196
853.43	97.877
853.60	90.092
853.77	82.700
853.94	74.409
854.11	103.896
854.28	105.442
854.45	90.443
854.62	82.646
854.79	94.545
854.96	98.077
855.13	90.682
855.30	77.108
855.47	99.732
855.64	88.377
855.81	106.516
855.98	96.698
856.15	78.959
856.32	87.879
856.49	104.695
856.66	99.767
856.83	83.499
857.00	93.429
857.17	105.542
857.34	103.117
857.51	122.965
857.68	71.789
857.85	82.265
858.02	91.647
858.19	76.513
858.36	91.759
858.53	105.978
858.70	84.040
858.87	81.416
859.04	82.851
859.21	83.990
859.38	89.151
859.55	126.994
859.72	93.088
859.89	102.750
860.05	106.047
860.22	93.973
860.39	94.924
860.56	93.255
860.73	83.512
860.90	96.353
861.07	114.249
861.24	93.305
861.41	99.756
861.58	100.251
861.75	104.211
861.92	124.516
862.09	87.940
862.26	92.231
862.43	111.628
862.59	106.977
862.76	81.994
862.93	89.545
863.10	108.871
863.27	84.653
863.44	80.570
863.61	79.642
863.78	67.929
863.95	126.163
864.12	89.762
864.29	92.575
864.45	98.536
864.62	91.422
864.79	88.330
864.96	93.961
865.13	86.486
865.30	91.350
865.47	76.850
865.64	102.148
865.81	81.481
865.97	84.149
866.14	104.762
866.31	91.420
866.48	100.285
866.65	94.460
866.82	83.772
866.99	115.084
867.16	97.151
867.33	90.476
867.49	72.985
867.66	114.591
867.83	82.799
868.00	91.443
868.17	98.773
868.34	97.814
868.51	93.995
868.67	112.603
868.84	88.947
869.01	114.246
869.18	97.297
869.35	96.181
869.52	82.863
869.69	99.259
869.85	103.118
870.02	65.707
870.19	105.122
870.36	100.694
870.53	85.558
870.70	106.532
870.86	107.487
871.03	84.516
871.20	89.451
871.37	114.640
871.54	82.801
871.71	85.000
871.87	67.550
872.04	79.805
872.21	88.224
872.38	95.588
872.55	102.469
872.72	88.539
872.88	84.639
873.05	68.246
873.22	105.699
873.39	87.209
873.56	98.636
873.72	78.935
873.89	85.677
874.06	84.921
874.23	79.671
874.40	108.421
874.56	111.041
874.73	88.108
874.90	111.168
875.07	90.202
875.24	79.397
875.40	69.913
875.57	101.995
875.74	91.837
875.91	91.529
876.08	80.761
876.24	88.983
876.41	105.389
876.58	87.822
876.75	77.600
876.92	94.076
877.08	82.507
877.25	96.712
877.42	86.111
877.59	80.144
877.75	95.844
877.92	75.909
878.09	75.097
878.26	89.437
878.42	90.704
878.59	87.500
878.76	84.599
878.93	122.857
879.09	86.032
879.26	84.363
879.43	77.963
879.60	86.816
879.76	87.859
879.93	77.599
880.10	68.952
880.27	72.495
880.43	63.428
880.60	75.551
880.77	57.872
880.94	65.718
881.10	59.367
881.27	41.657
881.44	36.842
881.61	36.781
881.77	42.817
881.94	33.056
882.11	30.564
882.28	31.799
882.44	31.981
882.61	38.691
882.78	34.573
882.94	43.214
883.11	31.770
883.28	35.616
883.45	37.789
883.61	36.584
883.78	35.430
883.95	37.505
884.11	37.672
884.28	32.003
>>>>>End Processed Spectral Data<<<<<
