SpectraSuite Data File
++++++++++++++++++++++++++++++++++++
Date: Wed Sep 25 02:55:37 EST 2019
User: sgrac
Dark Spectrum Present: Yes
Reference Spectrum Present: Yes
Number of Sampled Component Spectra: 1
Spectrometers: USB4E01596
Integration Time (usec): 100000 (USB4E01596)
Spectra Averaged: 3 (USB4E01596)
Boxcar Smoothing: 0 (USB4E01596)
Correct for Electrical Dark: No (USB4E01596)
Strobe/Lamp Enabled: Yes (USB4E01596)
Correct for Detector Non-linearity: No (USB4E01596)
Correct for Stray Light: No (USB4E01596)
Number of Pixels in Processed Spectrum: 3648
>>>>>Begin Processed Spectral Data<<<<<
178.44	-76.923
178.66	-76.923
178.87	-76.923
179.09	-215.625
179.30	406.452
179.52	365.217
179.74	-278.947
179.95	-164.815
180.17	200.000
180.38	-375.000
180.60	-806.667
180.82	-1588.889
181.03	202.326
181.25	-900.000
181.46	-190.278
181.68	225.641
181.89	-209.677
182.11	4633.333
182.33	186.538
182.54	-8800.000
182.76	196.078
182.97	350.000
183.19	541.667
183.40	234.783
183.62	430.000
183.84	139.286
184.05	534.615
184.27	-1618.182
184.48	10300.000
184.70	251.852
184.91	194.340
185.13	1000.000
185.34	237.288
185.56	193.103
185.78	672.222
185.99	170.000
186.21	134.940
186.42	478.571
186.64	-1000.000
186.85	265.854
187.07	-364.000
187.28	114.583
187.50	-211.628
187.72	814.286
187.93	437.838
188.15	942.857
188.36	245.833
188.58	215.000
188.79	235.938
189.01	132.787
189.22	184.946
189.44	156.604
189.65	-295.122
189.87	467.857
190.09	158.654
190.30	146.296
190.52	-53.448
190.73	54.217
190.95	-814.286
191.16	269.565
191.38	290.385
191.59	188.889
191.81	411.111
192.02	-883.333
192.24	-1100.000
192.45	198.387
192.67	-1580.000
192.88	141.860
193.10	141.176
193.31	113.115
193.53	-30.645
193.74	18.182
193.96	-2166.667
194.18	564.286
194.39	123.729
194.61	480.556
194.82	135.227
195.04	112.281
195.25	230.000
195.47	-14800.000
195.68	198.462
195.90	181.111
196.11	428.571
196.33	-145.238
196.54	314.286
196.76	187.097
196.97	98.148
197.19	134.586
197.40	-90.667
197.62	337.500
197.83	305.882
198.05	117.500
198.26	220.833
198.48	1047.059
198.69	-176.923
198.91	221.875
199.12	-3600.000
199.34	151.220
199.55	475.000
199.77	250.794
199.98	523.810
200.20	203.571
200.41	96.591
200.63	74.390
200.84	260.000
201.06	81.013
201.27	-71.930
201.49	-571.429
201.70	197.403
201.91	-1628.571
202.13	-325.000
202.34	-390.909
202.56	584.211
202.77	318.421
202.99	206.383
203.20	87.097
203.42	256.140
203.63	198.592
203.85	-526.667
204.06	286.364
204.28	-1960.000
204.49	343.333
204.71	126.882
204.92	275.000
205.14	706.250
205.35	306.250
205.56	464.286
205.78	287.273
205.99	157.317
206.21	217.949
206.42	127.119
206.64	137.500
206.85	146.512
207.07	-213.158
207.28	136.232
207.50	283.784
207.71	303.125
207.93	34.343
208.14	182.000
208.35	145.455
208.57	526.667
208.78	672.000
209.00	321.277
209.21	195.556
209.43	130.097
209.64	-745.455
209.86	233.333
210.07	-357.143
210.28	219.565
210.50	984.211
210.71	95.714
210.93	247.436
211.14	189.091
211.36	-840.000
211.57	159.722
211.78	276.000
212.00	195.745
212.21	289.189
212.43	8200.000
212.64	432.353
212.86	162.500
213.07	500.000
213.29	-1013.333
213.50	254.839
213.71	644.000
213.93	361.111
214.14	91.304
214.36	108.861
214.57	163.934
214.78	198.039
215.00	225.000
215.21	715.385
215.43	93.939
215.64	241.860
215.86	372.727
216.07	295.556
216.28	273.913
216.50	187.963
216.71	150.000
216.93	468.421
217.14	136.937
217.35	538.462
217.57	79.839
217.78	242.105
218.00	127.907
218.21	495.000
218.42	3666.667
218.64	106.723
218.85	177.778
219.07	129.508
219.28	99.123
219.49	212.121
219.71	94.595
219.92	675.000
220.14	318.750
220.35	213.636
220.56	106.452
220.78	1540.000
220.99	121.951
221.21	86.441
221.42	319.512
221.63	170.000
221.85	252.174
222.06	106.838
222.28	160.526
222.49	145.000
222.70	77.982
222.92	124.719
223.13	162.500
223.34	98.425
223.56	185.507
223.77	120.635
223.99	473.077
224.20	105.594
224.41	103.279
224.63	95.902
224.84	108.451
225.05	174.725
225.27	189.610
225.48	151.887
225.69	75.000
225.91	207.692
226.12	58.955
226.34	62.759
226.55	66.087
226.76	62.857
226.98	47.034
227.19	75.862
227.40	23.423
227.62	26.721
227.83	34.520
228.04	25.597
228.26	37.845
228.47	17.647
228.69	22.807
228.90	26.829
229.11	13.981
229.33	23.950
229.54	13.693
229.75	20.643
229.97	14.205
230.18	18.935
230.39	10.076
230.61	17.880
230.82	14.720
231.03	11.164
231.25	20.566
231.46	8.384
231.67	20.740
231.89	-1.980
232.10	20.452
232.31	16.749
232.53	15.524
232.74	16.343
232.95	20.518
233.17	20.194
233.38	10.150
233.59	7.572
233.81	7.101
234.02	35.214
234.23	15.157
234.45	20.746
234.66	20.809
234.87	28.399
235.09	17.957
235.30	22.113
235.51	22.310
235.73	10.873
235.94	22.458
236.15	6.874
236.36	3.025
236.58	7.227
236.79	13.281
237.00	21.875
237.22	23.867
237.43	17.423
237.64	0.929
237.86	28.899
238.07	8.083
238.28	17.447
238.50	12.558
238.71	22.368
238.92	24.296
239.13	20.342
239.35	30.435
239.56	19.971
239.77	18.926
239.99	10.866
240.20	26.639
240.41	14.628
240.63	17.200
240.84	16.376
241.05	18.252
241.26	6.838
241.48	15.903
241.69	11.632
241.90	9.005
242.12	9.413
242.33	9.253
242.54	8.666
242.75	4.200
242.97	10.958
243.18	3.737
243.39	7.499
243.61	6.461
243.82	7.929
244.03	6.098
244.24	5.813
244.46	6.029
244.67	6.488
244.88	12.095
245.09	7.705
245.31	9.994
245.52	8.839
245.73	11.045
245.95	12.990
246.16	5.848
246.37	12.358
246.58	8.632
246.80	6.837
247.01	4.653
247.22	3.331
247.43	5.059
247.65	7.859
247.86	4.242
248.07	3.398
248.28	6.009
248.50	6.227
248.71	5.317
248.92	5.576
249.13	5.871
249.35	5.226
249.56	6.177
249.77	5.991
249.98	6.598
250.20	7.165
250.41	4.834
250.62	10.070
250.83	10.326
251.05	8.726
251.26	5.385
251.47	7.709
251.68	7.723
251.90	4.688
252.11	9.845
252.32	7.003
252.53	6.698
252.75	6.802
252.96	6.432
253.17	10.254
253.38	10.554
253.59	5.594
253.81	8.302
254.02	4.884
254.23	6.624
254.44	7.102
254.66	8.301
254.87	8.691
255.08	4.860
255.29	7.546
255.50	15.604
255.72	8.045
255.93	15.290
256.14	6.040
256.35	6.549
256.57	8.981
256.78	8.368
256.99	10.471
257.20	9.382
257.41	6.167
257.63	6.680
257.84	3.836
258.05	9.983
258.26	5.587
258.47	6.591
258.69	3.781
258.90	6.915
259.11	10.020
259.32	7.845
259.53	6.065
259.75	3.948
259.96	5.152
260.17	2.870
260.38	4.944
260.59	5.487
260.81	3.752
261.02	4.557
261.23	4.634
261.44	5.960
261.65	4.685
261.87	3.181
262.08	4.546
262.29	7.387
262.50	2.562
262.71	4.275
262.92	6.790
263.14	3.682
263.35	3.400
263.56	6.608
263.77	7.167
263.98	5.853
264.20	4.124
264.41	5.794
264.62	7.572
264.83	4.256
265.04	7.498
265.25	5.553
265.47	6.273
265.68	4.360
265.89	5.558
266.10	7.454
266.31	6.851
266.52	7.936
266.74	6.970
266.95	6.350
267.16	6.231
267.37	8.961
267.58	4.006
267.79	5.372
268.01	5.654
268.22	4.082
268.43	4.180
268.64	6.604
268.85	4.941
269.06	5.051
269.27	5.877
269.49	5.795
269.70	5.480
269.91	3.612
270.12	4.673
270.33	5.953
270.54	5.637
270.75	5.644
270.97	5.315
271.18	4.018
271.39	5.526
271.60	6.735
271.81	5.354
272.02	2.159
272.23	5.475
272.45	5.284
272.66	3.811
272.87	4.656
273.08	5.176
273.29	5.089
273.50	4.689
273.71	3.623
273.92	4.168
274.14	4.126
274.35	4.718
274.56	5.690
274.77	4.787
274.98	3.940
275.19	4.702
275.40	5.748
275.61	2.612
275.83	5.513
276.04	5.816
276.25	4.290
276.46	7.287
276.67	6.928
276.88	5.084
277.09	4.162
277.30	5.301
277.51	4.358
277.73	5.450
277.94	4.697
278.15	5.369
278.36	9.206
278.57	4.363
278.78	2.954
278.99	4.746
279.20	6.719
279.41	6.607
279.62	5.260
279.84	5.693
280.05	3.359
280.26	3.063
280.47	7.642
280.68	5.819
280.89	4.162
281.10	4.543
281.31	4.649
281.52	5.076
281.73	3.992
281.94	3.473
282.16	5.122
282.37	2.545
282.58	3.213
282.79	5.414
283.00	6.210
283.21	4.235
283.42	4.119
283.63	3.545
283.84	3.175
284.05	3.242
284.26	4.042
284.47	3.797
284.68	3.669
284.89	5.647
285.11	5.723
285.32	4.084
285.53	2.655
285.74	5.413
285.95	4.748
286.16	3.978
286.37	5.647
286.58	4.887
286.79	3.807
287.00	4.944
287.21	4.117
287.42	5.215
287.63	3.740
287.84	2.684
288.05	3.440
288.26	4.299
288.48	4.740
288.69	4.283
288.90	5.211
289.11	4.496
289.32	5.463
289.53	3.007
289.74	3.097
289.95	2.817
290.16	4.387
290.37	3.822
290.58	3.748
290.79	5.290
291.00	3.193
291.21	2.732
291.42	3.746
291.63	2.019
291.84	4.021
292.05	5.195
292.26	3.687
292.47	3.123
292.68	4.951
292.89	3.734
293.10	3.105
293.31	3.447
293.52	5.093
293.73	2.554
293.94	6.033
294.15	3.533
294.36	4.871
294.57	5.789
294.79	3.687
295.00	3.722
295.21	3.782
295.42	3.726
295.63	5.198
295.84	3.218
296.05	2.465
296.26	5.513
296.47	3.539
296.68	3.662
296.89	5.927
297.10	5.228
297.31	3.475
297.52	4.206
297.73	3.104
297.94	3.613
298.15	3.943
298.36	4.021
298.57	3.180
298.78	4.776
298.99	3.052
299.20	3.475
299.41	4.478
299.62	3.670
299.83	3.143
300.04	4.645
300.25	3.682
300.46	3.534
300.67	3.245
300.88	4.613
301.09	1.730
301.30	4.352
301.50	3.388
301.71	5.756
301.92	5.015
302.13	3.909
302.34	4.517
302.55	4.956
302.76	3.286
302.97	4.016
303.18	4.796
303.39	2.386
303.60	5.064
303.81	5.031
304.02	2.367
304.23	4.494
304.44	2.023
304.65	5.440
304.86	3.918
305.07	4.123
305.28	4.617
305.49	6.175
305.70	3.807
305.91	2.217
306.12	5.179
306.33	4.820
306.54	4.583
306.75	3.831
306.96	6.492
307.17	3.857
307.38	5.007
307.58	3.449
307.79	4.048
308.00	2.649
308.21	2.762
308.42	1.516
308.63	4.749
308.84	2.838
309.05	1.705
309.26	4.075
309.47	2.490
309.68	4.222
309.89	3.801
310.10	2.345
310.31	2.642
310.52	2.876
310.73	4.792
310.94	4.178
311.14	4.488
311.35	4.293
311.56	3.246
311.77	3.564
311.98	2.856
312.19	3.001
312.40	3.146
312.61	3.415
312.82	4.192
313.03	2.038
313.24	2.775
313.45	3.976
313.66	2.868
313.86	4.788
314.07	2.321
314.28	3.642
314.49	2.962
314.70	1.982
314.91	6.758
315.12	5.347
315.33	4.571
315.54	3.249
315.75	3.966
315.96	4.024
316.16	3.826
316.37	5.380
316.58	3.070
316.79	4.241
317.00	4.381
317.21	4.060
317.42	4.448
317.63	3.811
317.84	3.907
318.05	4.758
318.25	5.397
318.46	3.463
318.67	3.027
318.88	4.104
319.09	4.506
319.30	3.189
319.51	3.513
319.72	4.958
319.93	3.298
320.13	3.605
320.34	2.707
320.55	4.274
320.76	5.926
320.97	4.999
321.18	5.189
321.39	4.027
321.60	3.791
321.80	5.165
322.01	5.197
322.22	4.271
322.43	1.618
322.64	4.915
322.85	2.874
323.06	4.368
323.27	3.813
323.47	4.168
323.68	4.355
323.89	4.430
324.10	3.971
324.31	2.019
324.52	4.398
324.73	3.546
324.93	3.625
325.14	3.738
325.35	4.826
325.56	2.943
325.77	4.362
325.98	2.102
326.19	4.383
326.39	0.799
326.60	4.311
326.81	2.511
327.02	3.349
327.23	2.799
327.44	4.627
327.64	2.954
327.85	3.535
328.06	4.412
328.27	5.056
328.48	4.444
328.69	2.370
328.90	3.773
329.10	3.699
329.31	5.037
329.52	3.462
329.73	4.202
329.94	2.261
330.15	4.594
330.35	3.468
330.56	4.979
330.77	4.139
330.98	4.576
331.19	3.506
331.39	4.560
331.60	3.358
331.81	4.258
332.02	4.476
332.23	2.568
332.44	2.848
332.64	3.814
332.85	3.486
333.06	4.836
333.27	3.426
333.48	4.548
333.68	3.324
333.89	3.889
334.10	5.588
334.31	4.943
334.52	3.436
334.72	5.554
334.93	3.425
335.14	4.142
335.35	4.857
335.56	5.828
335.76	4.680
335.97	6.554
336.18	2.944
336.39	6.968
336.60	4.536
336.80	3.922
337.01	4.327
337.22	4.821
337.43	5.666
337.64	6.526
337.84	3.925
338.05	7.053
338.26	5.986
338.47	5.424
338.68	4.319
338.88	7.592
339.09	4.951
339.30	5.906
339.51	7.282
339.71	8.028
339.92	5.057
340.13	4.753
340.34	5.047
340.55	6.374
340.75	6.335
340.96	5.535
341.17	5.657
341.38	6.235
341.58	7.768
341.79	7.571
342.00	6.330
342.21	7.813
342.41	6.874
342.62	7.369
342.83	9.050
343.04	6.395
343.24	7.766
343.45	10.585
343.66	7.941
343.87	10.042
344.07	6.643
344.28	11.287
344.49	9.092
344.70	13.178
344.90	7.387
345.11	8.632
345.32	8.770
345.53	11.177
345.73	10.617
345.94	12.960
346.15	12.197
346.36	11.323
346.56	13.224
346.77	15.011
346.98	13.066
347.19	14.770
347.39	12.780
347.60	13.998
347.81	12.654
348.02	14.161
348.22	12.001
348.43	14.949
348.64	10.772
348.84	14.900
349.05	14.805
349.26	17.429
349.47	14.136
349.67	14.018
349.88	15.721
350.09	16.664
350.30	18.936
350.50	16.416
350.71	17.112
350.92	18.189
351.12	15.778
351.33	16.410
351.54	17.396
351.74	18.884
351.95	16.596
352.16	17.960
352.37	18.721
352.57	19.516
352.78	17.084
352.99	18.653
353.19	18.350
353.40	20.625
353.61	18.935
353.82	20.697
354.02	20.373
354.23	21.682
354.44	22.643
354.64	20.221
354.85	20.711
355.06	20.784
355.26	18.474
355.47	21.073
355.68	22.991
355.88	22.609
356.09	22.613
356.30	21.397
356.51	24.641
356.71	22.689
356.92	20.136
357.13	23.975
357.33	23.347
357.54	22.966
357.75	21.501
357.95	23.743
358.16	22.321
358.37	25.563
358.57	23.429
358.78	26.378
358.99	23.929
359.19	23.826
359.40	24.320
359.61	23.725
359.81	25.791
360.02	25.971
360.23	22.207
360.43	24.833
360.64	23.833
360.85	26.167
361.05	24.118
361.26	26.313
361.47	23.817
361.67	26.412
361.88	22.364
362.09	25.028
362.29	22.738
362.50	25.656
362.70	24.170
362.91	25.753
363.12	24.716
363.32	25.267
363.53	25.559
363.74	26.601
363.94	24.205
364.15	27.020
364.36	24.443
364.56	25.705
364.77	24.370
364.98	26.197
365.18	24.062
365.39	26.820
365.59	23.143
365.80	25.342
366.01	24.466
366.21	24.911
366.42	22.748
366.63	26.229
366.83	23.481
367.04	23.602
367.24	25.835
367.45	24.122
367.66	23.708
367.86	24.385
368.07	23.129
368.28	25.011
368.48	24.618
368.69	23.934
368.89	24.838
369.10	24.843
369.31	24.545
369.51	23.704
369.72	24.670
369.92	26.992
370.13	23.582
370.34	25.543
370.54	21.984
370.75	26.665
370.95	22.397
371.16	25.657
371.37	23.465
371.57	23.928
371.78	24.504
371.98	26.720
372.19	25.734
372.40	25.929
372.60	25.444
372.81	26.288
373.01	25.669
373.22	26.003
373.43	26.284
373.63	27.246
373.84	25.503
374.04	27.715
374.25	24.807
374.46	26.610
374.66	25.191
374.87	27.495
375.07	25.134
375.28	25.748
375.48	26.454
375.69	27.651
375.90	25.435
376.10	26.406
376.31	25.529
376.51	25.758
376.72	25.708
376.92	26.723
377.13	25.891
377.34	28.354
377.54	26.374
377.75	27.785
377.95	26.105
378.16	28.494
378.36	26.711
378.57	27.941
378.77	26.810
378.98	27.821
379.19	27.273
379.39	28.182
379.60	28.120
379.80	29.544
380.01	29.024
380.21	28.683
380.42	28.067
380.62	29.294
380.83	28.826
381.04	28.289
381.24	27.875
381.45	29.170
381.65	28.823
381.86	29.686
382.06	28.154
382.27	28.726
382.47	28.604
382.68	29.670
382.88	28.893
383.09	30.393
383.29	29.782
383.50	30.461
383.71	29.636
383.91	30.652
384.12	29.792
384.32	30.786
384.53	30.663
384.73	31.477
384.94	30.069
385.14	30.430
385.35	29.755
385.55	30.780
385.76	30.921
385.96	31.763
386.17	31.977
386.37	31.728
386.58	31.130
386.78	33.650
386.99	31.642
387.19	32.474
387.40	31.787
387.60	33.643
387.81	32.060
388.01	33.065
388.22	32.335
388.42	33.154
388.63	32.293
388.83	33.858
389.04	33.059
389.24	33.380
389.45	33.575
389.65	34.885
389.86	33.551
390.06	34.092
390.27	33.805
390.47	34.502
390.68	33.459
390.88	35.116
391.09	35.354
391.29	34.927
391.50	34.658
391.70	34.501
391.91	35.050
392.11	35.001
392.32	34.694
392.52	35.785
392.73	35.860
392.93	35.472
393.14	35.637
393.34	36.548
393.55	35.379
393.75	36.283
393.95	35.817
394.16	36.875
394.36	36.249
394.57	37.111
394.77	36.269
394.98	37.030
395.18	37.207
395.39	37.447
395.59	36.383
395.80	36.645
396.00	35.918
396.21	37.947
396.41	37.252
396.61	37.710
396.82	36.720
397.02	37.694
397.23	36.249
397.43	37.276
397.64	37.032
397.84	38.076
398.05	35.853
398.25	37.390
398.45	37.630
398.66	38.777
398.86	37.013
399.07	37.702
399.27	37.488
399.48	36.978
399.68	37.010
399.89	37.629
400.09	38.125
400.29	37.538
400.50	37.546
400.70	37.473
400.91	38.003
401.11	37.643
401.32	37.069
401.52	38.118
401.72	37.250
401.93	37.628
402.13	36.763
402.34	38.008
402.54	36.922
402.75	38.160
402.95	37.679
403.15	37.803
403.36	37.139
403.56	37.022
403.77	36.638
403.97	37.444
404.17	35.770
404.38	36.651
404.58	36.556
404.79	36.124
404.99	37.026
405.19	36.932
405.40	37.242
405.60	36.356
405.81	36.448
406.01	37.004
406.21	36.740
406.42	37.951
406.62	37.566
406.83	37.412
407.03	37.643
407.23	37.310
407.44	37.031
407.64	36.805
407.85	37.014
408.05	36.956
408.25	36.472
408.46	37.126
408.66	37.329
408.87	37.409
409.07	37.905
409.27	36.171
409.48	37.004
409.68	36.506
409.88	36.646
410.09	37.352
410.29	37.061
410.50	36.887
410.70	35.662
410.90	36.489
411.11	36.048
411.31	35.671
411.51	36.076
411.72	36.278
411.92	35.790
412.12	36.940
412.33	36.231
412.53	36.372
412.74	35.678
412.94	36.572
413.14	35.798
413.35	36.198
413.55	36.404
413.75	36.154
413.96	35.603
414.16	36.152
414.36	34.929
414.57	36.067
414.77	34.963
414.97	36.577
415.18	35.053
415.38	35.700
415.58	35.793
415.79	36.576
415.99	35.631
416.19	35.266
416.40	35.342
416.60	34.870
416.80	35.192
417.01	35.178
417.21	34.945
417.41	34.598
417.62	35.405
417.82	34.813
418.02	35.344
418.23	34.493
418.43	35.342
418.63	35.136
418.84	34.932
419.04	35.164
419.24	34.420
419.45	34.938
419.65	34.530
419.85	34.762
420.06	34.331
420.26	34.765
420.46	34.379
420.67	35.350
420.87	34.728
421.07	33.745
421.28	34.813
421.48	34.353
421.68	34.447
421.88	34.295
422.09	34.528
422.29	34.763
422.49	34.490
422.70	35.214
422.90	34.297
423.10	34.538
423.31	34.849
423.51	34.684
423.71	34.410
423.91	34.233
424.12	34.050
424.32	34.313
424.52	33.978
424.73	34.298
424.93	34.301
425.13	34.066
425.33	34.147
425.54	34.223
425.74	34.712
425.94	34.541
426.15	34.330
426.35	33.991
426.55	34.376
426.75	35.114
426.96	34.421
427.16	34.546
427.36	34.632
427.57	34.322
427.77	34.582
427.97	34.888
428.17	34.701
428.38	34.237
428.58	33.724
428.78	34.864
428.98	34.307
429.19	34.715
429.39	33.437
429.59	34.036
429.79	33.976
430.00	34.310
430.20	33.684
430.40	33.909
430.60	33.629
430.81	33.708
431.01	33.968
431.21	34.444
431.41	34.503
431.62	34.370
431.82	34.049
432.02	34.387
432.22	34.014
432.43	33.965
432.63	33.375
432.83	33.836
433.03	33.248
433.24	33.685
433.44	33.738
433.64	33.510
433.84	33.131
434.05	33.566
434.25	33.337
434.45	33.740
434.65	33.472
434.85	33.448
435.06	33.785
435.26	34.170
435.46	34.614
435.66	34.225
435.87	33.390
436.07	34.260
436.27	34.596
436.47	33.788
436.67	33.443
436.88	34.406
437.08	34.386
437.28	34.124
437.48	33.398
437.69	33.951
437.89	33.494
438.09	33.217
438.29	33.907
438.49	33.873
438.70	33.436
438.90	33.405
439.10	33.885
439.30	33.981
439.50	33.742
439.71	33.487
439.91	33.481
440.11	33.262
440.31	33.329
440.51	33.472
440.72	33.418
440.92	33.784
441.12	33.498
441.32	33.364
441.52	33.763
441.72	33.251
441.93	32.976
442.13	33.768
442.33	33.284
442.53	33.350
442.73	33.736
442.94	33.278
443.14	33.904
443.34	33.914
443.54	33.052
443.74	32.875
443.94	33.126
444.15	33.013
444.35	33.306
444.55	33.434
444.75	33.179
444.95	33.283
445.15	32.799
445.36	32.962
445.56	32.674
445.76	33.135
445.96	32.592
446.16	32.826
446.36	32.420
446.57	32.838
446.77	32.213
446.97	32.272
447.17	32.932
447.37	32.865
447.57	32.585
447.77	33.527
447.98	33.056
448.18	33.255
448.38	32.578
448.58	33.098
448.78	33.284
448.98	33.444
449.18	33.267
449.39	32.951
449.59	32.690
449.79	33.378
449.99	32.724
450.19	32.440
450.39	32.690
450.59	32.641
450.79	33.011
451.00	32.621
451.20	32.598
451.40	32.843
451.60	32.606
451.80	32.743
452.00	32.418
452.20	32.104
452.40	32.159
452.61	32.115
452.81	32.129
453.01	32.132
453.21	31.727
453.41	32.473
453.61	31.881
453.81	32.025
454.01	32.084
454.21	31.537
454.42	31.927
454.62	32.091
454.82	32.064
455.02	32.237
455.22	32.156
455.42	31.463
455.62	32.997
455.82	31.745
456.02	31.662
456.23	31.343
456.43	31.604
456.63	32.427
456.83	32.434
457.03	31.264
457.23	31.784
457.43	32.071
457.63	31.687
457.83	31.486
458.03	31.137
458.23	31.081
458.43	31.022
458.64	31.088
458.84	30.655
459.04	31.317
459.24	30.994
459.44	30.736
459.64	30.694
459.84	30.170
460.04	30.093
460.24	30.622
460.44	30.280
460.64	30.271
460.84	30.205
461.04	30.777
461.24	30.775
461.45	30.633
461.65	30.565
461.85	31.035
462.05	30.833
462.25	30.980
462.45	30.672
462.65	31.014
462.85	30.277
463.05	30.316
463.25	30.551
463.45	30.325
463.65	30.176
463.85	29.820
464.05	30.345
464.25	29.868
464.45	30.016
464.65	29.629
464.85	29.311
465.05	29.860
465.26	30.076
465.46	29.422
465.66	29.609
465.86	29.793
466.06	29.122
466.26	29.366
466.46	29.142
466.66	29.512
466.86	28.593
467.06	28.534
467.26	28.874
467.46	28.811
467.66	28.423
467.86	28.759
468.06	29.288
468.26	29.477
468.46	29.113
468.66	29.341
468.86	29.182
469.06	29.158
469.26	28.616
469.46	28.257
469.66	28.561
469.86	28.422
470.06	27.879
470.26	28.640
470.46	28.214
470.66	29.121
470.86	28.498
471.06	27.920
471.26	27.359
471.46	27.789
471.66	28.296
471.86	28.589
472.06	28.514
472.26	27.736
472.46	27.896
472.66	27.813
472.86	27.688
473.06	27.889
473.26	28.344
473.46	27.586
473.66	27.803
473.86	27.557
474.06	27.637
474.26	27.552
474.46	27.465
474.66	27.290
474.86	27.041
475.06	27.593
475.26	27.433
475.46	27.072
475.66	26.816
475.86	27.051
476.06	27.822
476.26	26.768
476.46	26.403
476.66	27.123
476.86	26.517
477.06	26.649
477.26	26.558
477.46	26.673
477.65	26.457
477.85	27.275
478.05	26.176
478.25	26.492
478.45	26.430
478.65	26.423
478.85	26.649
479.05	26.199
479.25	26.463
479.45	26.487
479.65	25.808
479.85	26.687
480.05	26.398
480.25	26.447
480.45	26.072
480.65	26.410
480.85	26.624
481.05	26.664
481.25	25.645
481.44	26.003
481.64	25.800
481.84	26.307
482.04	26.082
482.24	25.724
482.44	25.628
482.64	25.504
482.84	25.575
483.04	25.452
483.24	25.325
483.44	24.957
483.64	24.812
483.84	25.132
484.04	25.578
484.23	25.662
484.43	25.817
484.63	26.442
484.83	26.902
485.03	27.785
485.23	27.628
485.43	27.307
485.63	26.758
485.83	26.641
486.03	26.435
486.23	26.600
486.42	25.991
486.62	26.078
486.82	25.754
487.02	25.605
487.22	25.155
487.42	25.127
487.62	25.498
487.82	25.214
488.02	25.148
488.22	25.205
488.41	25.283
488.61	25.164
488.81	25.268
489.01	25.200
489.21	25.428
489.41	25.487
489.61	25.362
489.81	25.738
490.01	25.440
490.20	25.173
490.40	25.140
490.60	24.824
490.80	24.853
491.00	24.359
491.20	24.363
491.40	24.537
491.60	23.981
491.79	24.292
491.99	24.183
492.19	24.165
492.39	24.075
492.59	24.194
492.79	23.897
492.99	24.668
493.19	24.201
493.38	24.492
493.58	24.685
493.78	24.512
493.98	24.317
494.18	24.270
494.38	24.539
494.58	23.950
494.77	23.553
494.97	23.613
495.17	23.974
495.37	23.668
495.57	23.475
495.77	23.114
495.96	23.259
496.16	23.801
496.36	22.620
496.56	23.209
496.76	22.574
496.96	22.900
497.15	22.746
497.35	22.486
497.55	22.580
497.75	22.865
497.95	22.591
498.15	22.684
498.34	22.272
498.54	22.367
498.74	22.468
498.94	22.317
499.14	22.256
499.34	22.222
499.53	22.254
499.73	22.373
499.93	22.149
500.13	21.970
500.33	21.829
500.52	21.501
500.72	21.459
500.92	21.378
501.12	21.969
501.32	21.615
501.52	22.009
501.71	21.528
501.91	21.226
502.11	21.394
502.31	21.371
502.51	21.361
502.70	21.347
502.90	21.136
503.10	21.314
503.30	20.870
503.50	20.877
503.69	20.519
503.89	20.253
504.09	20.548
504.29	20.401
504.48	20.544
504.68	20.092
504.88	20.448
505.08	20.291
505.28	20.049
505.47	20.519
505.67	20.357
505.87	20.029
506.07	19.992
506.27	20.130
506.46	19.909
506.66	20.009
506.86	20.508
507.06	20.117
507.25	20.001
507.45	20.198
507.65	19.627
507.85	19.911
508.04	19.906
508.24	19.874
508.44	19.845
508.64	19.710
508.83	19.612
509.03	20.085
509.23	19.478
509.43	20.143
509.63	19.572
509.82	19.648
510.02	19.501
510.22	19.974
510.42	20.031
510.61	19.668
510.81	19.867
511.01	20.079
511.21	19.878
511.40	19.949
511.60	20.141
511.80	19.891
511.99	20.332
512.19	20.314
512.39	20.500
512.59	20.342
512.78	20.432
512.98	20.712
513.18	20.908
513.38	20.417
513.57	20.232
513.77	20.811
513.97	20.523
514.17	20.880
514.36	20.918
514.56	20.982
514.76	21.093
514.95	21.135
515.15	21.484
515.35	21.533
515.55	22.097
515.74	21.523
515.94	21.653
516.14	21.834
516.33	22.251
516.53	21.830
516.73	22.064
516.93	22.585
517.12	22.282
517.32	22.430
517.52	22.410
517.71	22.857
517.91	22.523
518.11	23.058
518.30	22.869
518.50	23.055
518.70	23.126
518.90	23.516
519.09	23.709
519.29	23.764
519.49	23.898
519.68	24.248
519.88	24.204
520.08	24.552
520.27	24.594
520.47	24.552
520.67	25.151
520.86	25.426
521.06	25.326
521.26	25.758
521.45	25.445
521.65	25.845
521.85	25.543
522.04	25.677
522.24	26.209
522.44	26.029
522.63	26.974
522.83	26.213
523.03	26.766
523.22	27.174
523.42	27.290
523.62	27.297
523.81	26.867
524.01	26.890
524.21	27.566
524.40	27.271
524.60	27.852
524.80	27.507
524.99	27.754
525.19	27.873
525.39	27.973
525.58	28.479
525.78	28.236
525.98	28.455
526.17	28.324
526.37	28.352
526.57	28.583
526.76	28.699
526.96	28.540
527.15	28.956
527.35	28.920
527.55	28.986
527.74	29.532
527.94	29.091
528.14	29.163
528.33	29.360
528.53	29.065
528.72	29.588
528.92	29.574
529.12	29.954
529.31	30.100
529.51	29.968
529.71	30.469
529.90	30.509
530.10	30.754
530.29	30.817
530.49	31.081
530.69	31.138
530.88	30.918
531.08	30.622
531.28	30.662
531.47	30.251
531.67	30.441
531.86	30.045
532.06	30.474
532.26	30.364
532.45	30.234
532.65	30.387
532.84	30.409
533.04	30.281
533.24	30.367
533.43	30.491
533.63	30.742
533.82	30.562
534.02	31.004
534.22	30.724
534.41	31.098
534.61	30.984
534.80	31.389
535.00	30.989
535.19	31.266
535.39	31.140
535.59	31.399
535.78	31.017
535.98	31.370
536.17	31.403
536.37	30.841
536.57	30.562
536.76	30.645
536.96	30.822
537.15	30.712
537.35	30.906
537.54	31.190
537.74	31.211
537.93	31.086
538.13	30.900
538.33	31.434
538.52	31.226
538.72	31.181
538.91	31.220
539.11	31.161
539.30	31.419
539.50	31.302
539.70	31.564
539.89	31.018
540.09	30.907
540.28	31.178
540.48	30.986
540.67	30.293
540.87	30.577
541.06	30.468
541.26	30.549
541.45	30.641
541.65	30.821
541.85	30.932
542.04	30.706
542.24	31.301
542.43	31.150
542.63	31.148
542.82	31.393
543.02	31.654
543.21	31.408
543.41	31.808
543.60	31.569
543.80	31.673
543.99	31.551
544.19	31.393
544.38	31.506
544.58	31.238
544.77	31.386
544.97	31.901
545.16	31.392
545.36	31.378
545.56	31.063
545.75	31.328
545.95	30.900
546.14	31.128
546.34	31.371
546.53	30.844
546.73	30.952
546.92	31.067
547.12	31.021
547.31	31.447
547.51	30.698
547.70	31.106
547.90	31.553
548.09	31.167
548.29	30.957
548.48	31.281
548.68	31.669
548.87	31.697
549.07	31.654
549.26	31.754
549.46	31.529
549.65	31.741
549.84	31.510
550.04	31.075
550.23	31.543
550.43	31.472
550.62	31.190
550.82	31.387
551.01	31.380
551.21	31.148
551.40	31.527
551.60	31.392
551.79	31.762
551.99	31.873
552.18	31.059
552.38	30.854
552.57	31.568
552.77	31.665
552.96	31.209
553.16	31.285
553.35	30.943
553.54	31.585
553.74	31.449
553.93	31.530
554.13	31.382
554.32	31.914
554.52	31.379
554.71	32.008
554.91	31.255
555.10	31.325
555.29	31.672
555.49	31.489
555.68	31.249
555.88	31.598
556.07	31.411
556.27	30.791
556.46	31.514
556.66	31.161
556.85	31.634
557.04	31.651
557.24	31.340
557.43	31.580
557.63	31.514
557.82	31.128
558.02	30.902
558.21	31.547
558.40	31.350
558.60	31.437
558.79	31.492
558.99	31.404
559.18	31.371
559.38	31.472
559.57	30.682
559.76	30.911
559.96	32.005
560.15	31.268
560.35	31.065
560.54	31.097
560.73	30.584
560.93	30.505
561.12	30.535
561.32	31.547
561.51	32.005
561.70	30.572
561.90	31.141
562.09	31.321
562.29	31.135
562.48	31.360
562.67	31.310
562.87	31.137
563.06	31.137
563.26	31.339
563.45	30.755
563.64	30.709
563.84	31.134
564.03	31.084
564.23	31.481
564.42	30.842
564.61	30.933
564.81	30.959
565.00	30.977
565.20	30.431
565.39	31.204
565.58	30.557
565.78	30.806
565.97	30.491
566.16	31.029
566.36	30.575
566.55	31.061
566.74	30.772
566.94	31.282
567.13	30.954
567.33	31.407
567.52	31.079
567.71	30.775
567.91	31.655
568.10	30.370
568.29	30.310
568.49	30.773
568.68	31.064
568.87	30.653
569.07	30.523
569.26	30.492
569.45	30.469
569.65	30.211
569.84	30.948
570.04	30.639
570.23	30.260
570.42	30.224
570.62	30.412
570.81	30.351
571.00	30.625
571.20	30.349
571.39	30.443
571.58	29.940
571.78	30.634
571.97	29.877
572.16	29.996
572.36	29.855
572.55	30.232
572.74	29.642
572.94	30.202
573.13	30.274
573.32	29.717
573.51	29.673
573.71	29.737
573.90	30.207
574.09	30.098
574.29	30.728
574.48	29.842
574.67	29.833
574.87	29.897
575.06	29.161
575.25	30.299
575.45	29.835
575.64	30.117
575.83	29.587
576.03	30.003
576.22	30.054
576.41	29.683
576.60	29.288
576.80	29.919
576.99	30.016
577.18	30.097
577.38	29.605
577.57	30.042
577.76	30.171
577.95	29.778
578.15	29.613
578.34	30.141
578.53	29.353
578.73	29.713
578.92	29.706
579.11	30.396
579.30	29.909
579.50	30.227
579.69	29.603
579.88	30.174
580.08	30.002
580.27	30.028
580.46	29.637
580.65	29.491
580.85	29.486
581.04	29.613
581.23	29.733
581.42	29.068
581.62	29.791
581.81	29.465
582.00	29.912
582.19	29.760
582.39	29.374
582.58	30.367
582.77	29.838
582.96	30.039
583.16	29.411
583.35	29.683
583.54	30.132
583.73	28.862
583.93	29.715
584.12	30.520
584.31	29.711
584.50	30.153
584.70	29.921
584.89	29.928
585.08	29.284
585.27	30.550
585.47	29.615
585.66	29.487
585.85	29.757
586.04	29.654
586.24	30.114
586.43	30.270
586.62	30.484
586.81	30.160
587.00	30.104
587.20	30.260
587.39	30.423
587.58	29.721
587.77	29.970
587.97	30.231
588.16	30.406
588.35	30.125
588.54	30.280
588.73	30.230
588.93	30.240
589.12	31.053
589.31	30.741
589.50	30.174
589.69	30.438
589.89	30.291
590.08	30.167
590.27	30.729
590.46	30.091
590.65	31.066
590.85	30.507
591.04	31.050
591.23	31.095
591.42	31.363
591.61	31.354
591.81	30.780
592.00	31.320
592.19	30.695
592.38	31.299
592.57	31.394
592.77	31.205
592.96	31.350
593.15	31.342
593.34	31.157
593.53	31.127
593.72	31.060
593.92	32.215
594.11	32.086
594.30	29.893
594.49	31.425
594.68	31.714
594.87	31.915
595.07	30.939
595.26	31.997
595.45	31.733
595.64	31.928
595.83	31.695
596.02	32.423
596.22	32.274
596.41	31.981
596.60	31.490
596.79	32.255
596.98	32.252
597.17	32.521
597.37	32.502
597.56	32.228
597.75	32.800
597.94	32.840
598.13	32.508
598.32	32.946
598.51	32.813
598.71	33.046
598.90	32.356
599.09	32.267
599.28	33.386
599.47	32.507
599.66	33.055
599.85	33.328
600.05	32.887
600.24	32.905
600.43	33.451
600.62	33.803
600.81	33.587
601.00	32.883
601.19	33.868
601.38	33.125
601.58	33.099
601.77	33.462
601.96	33.356
602.15	33.486
602.34	34.206
602.53	33.748
602.72	34.003
602.91	33.389
603.10	33.885
603.30	34.415
603.49	34.008
603.68	34.157
603.87	34.360
604.06	33.469
604.25	34.495
604.44	34.120
604.63	34.236
604.82	34.028
605.01	34.171
605.21	34.511
605.40	34.049
605.59	33.772
605.78	34.359
605.97	34.007
606.16	35.018
606.35	34.701
606.54	34.995
606.73	34.913
606.92	34.438
607.11	34.743
607.30	34.973
607.50	34.970
607.69	34.840
607.88	35.289
608.07	34.731
608.26	35.095
608.45	35.022
608.64	35.250
608.83	34.376
609.02	35.375
609.21	35.405
609.40	35.494
609.59	35.094
609.78	34.845
609.97	35.181
610.16	35.110
610.35	34.700
610.55	35.063
610.74	34.702
610.93	35.545
611.12	35.181
611.31	35.553
611.50	34.862
611.69	35.439
611.88	35.408
612.07	35.938
612.26	35.510
612.45	35.411
612.64	34.680
612.83	34.989
613.02	35.211
613.21	35.758
613.40	36.201
613.59	34.976
613.78	34.252
613.97	35.199
614.16	35.095
614.35	35.724
614.54	34.455
614.73	34.887
614.92	35.114
615.11	35.371
615.30	35.359
615.49	36.098
615.68	34.695
615.87	35.956
616.07	34.785
616.26	35.877
616.45	35.026
616.64	35.515
616.83	35.308
617.02	35.546
617.21	34.968
617.40	35.738
617.59	35.094
617.78	35.643
617.97	34.125
618.16	35.760
618.35	34.505
618.54	35.325
618.73	35.502
618.92	35.515
619.11	35.511
619.30	35.784
619.49	35.635
619.68	35.056
619.86	34.684
620.05	34.904
620.24	34.969
620.43	35.237
620.62	34.107
620.81	35.093
621.00	35.918
621.19	35.584
621.38	35.237
621.57	36.399
621.76	34.904
621.95	36.243
622.14	35.904
622.33	34.821
622.52	35.507
622.71	35.098
622.90	35.592
623.09	34.677
623.28	35.027
623.47	35.088
623.66	34.333
623.85	34.204
624.04	34.456
624.23	35.660
624.42	34.133
624.61	35.465
624.80	34.649
624.99	35.408
625.18	34.877
625.36	35.041
625.55	35.211
625.74	35.526
625.93	35.122
626.12	35.754
626.31	35.396
626.50	35.167
626.69	34.751
626.88	34.284
627.07	35.302
627.26	34.777
627.45	34.992
627.64	35.163
627.83	34.950
628.02	35.186
628.20	34.448
628.39	35.256
628.58	35.222
628.77	35.430
628.96	35.012
629.15	35.259
629.34	35.581
629.53	35.647
629.72	34.870
629.91	35.874
630.10	34.968
630.29	35.060
630.47	35.038
630.66	35.001
630.85	34.454
631.04	35.414
631.23	35.077
631.42	35.703
631.61	34.675
631.80	34.654
631.99	35.227
632.18	34.250
632.36	35.073
632.55	34.672
632.74	33.601
632.93	34.460
633.12	34.785
633.31	34.357
633.50	34.803
633.69	34.080
633.88	34.706
634.06	35.229
634.25	35.000
634.44	35.402
634.63	35.226
634.82	35.359
635.01	34.574
635.20	35.432
635.39	34.429
635.57	34.859
635.76	35.120
635.95	34.826
636.14	33.624
636.33	35.097
636.52	33.797
636.71	35.423
636.89	34.536
637.08	34.495
637.27	35.105
637.46	34.699
637.65	35.331
637.84	34.412
638.03	34.744
638.21	34.889
638.40	34.327
638.59	34.562
638.78	34.613
638.97	34.791
639.16	34.953
639.34	34.886
639.53	34.052
639.72	34.521
639.91	34.714
640.10	34.399
640.29	35.452
640.47	34.272
640.66	34.605
640.85	34.609
641.04	34.859
641.23	34.260
641.42	33.766
641.60	34.914
641.79	34.941
641.98	34.654
642.17	33.815
642.36	34.331
642.54	33.530
642.73	34.816
642.92	34.338
643.11	34.942
643.30	33.392
643.49	34.736
643.67	32.555
643.86	34.406
644.05	33.479
644.24	34.900
644.43	33.916
644.61	34.052
644.80	34.312
644.99	35.159
645.18	34.186
645.37	34.601
645.55	33.330
645.74	33.595
645.93	33.690
646.12	35.025
646.31	34.218
646.49	33.913
646.68	35.333
646.87	34.316
647.06	33.117
647.24	34.227
647.43	34.241
647.62	35.341
647.81	34.175
648.00	34.665
648.18	32.868
648.37	34.099
648.56	34.261
648.75	34.145
648.93	34.776
649.12	33.352
649.31	33.575
649.50	35.050
649.68	33.609
649.87	33.454
650.06	33.473
650.25	34.315
650.43	33.504
650.62	35.037
650.81	33.501
651.00	34.933
651.18	34.319
651.37	34.380
651.56	33.883
651.75	33.812
651.93	34.050
652.12	34.501
652.31	34.847
652.50	33.447
652.68	33.434
652.87	34.362
653.06	33.569
653.25	34.487
653.43	34.068
653.62	33.970
653.81	33.823
654.00	33.984
654.18	34.097
654.37	33.365
654.56	33.691
654.74	33.945
654.93	33.829
655.12	34.372
655.31	33.212
655.49	33.805
655.68	32.445
655.87	32.700
656.05	31.834
656.24	33.900
656.43	31.922
656.62	33.035
656.80	32.286
656.99	33.269
657.18	32.585
657.36	32.710
657.55	32.854
657.74	32.751
657.93	32.981
658.11	32.987
658.30	33.173
658.49	33.442
658.67	31.499
658.86	32.220
659.05	31.812
659.23	33.103
659.42	32.391
659.61	32.638
659.79	32.859
659.98	32.761
660.17	32.900
660.35	33.102
660.54	32.549
660.73	32.866
660.91	33.429
661.10	32.771
661.29	32.155
661.47	32.891
661.66	33.493
661.85	31.584
662.03	31.815
662.22	32.781
662.41	30.793
662.59	31.742
662.78	31.589
662.97	31.201
663.15	30.601
663.34	31.679
663.53	29.747
663.71	31.400
663.90	29.038
664.09	31.707
664.27	30.626
664.46	30.387
664.65	30.478
664.83	30.884
665.02	29.590
665.21	30.169
665.39	29.245
665.58	30.746
665.77	29.466
665.95	30.773
666.14	28.663
666.32	30.557
666.51	28.776
666.70	30.203
666.88	28.199
667.07	29.643
667.26	28.505
667.44	29.507
667.63	29.106
667.81	30.277
668.00	29.748
668.19	30.125
668.37	28.836
668.56	30.301
668.75	27.946
668.93	29.871
669.12	29.440
669.30	29.910
669.49	28.698
669.68	29.760
669.86	28.744
670.05	29.579
670.23	27.660
670.42	28.761
670.61	29.129
670.79	29.550
670.98	28.872
671.16	29.879
671.35	28.064
671.54	29.019
671.72	28.570
671.91	30.192
672.09	27.281
672.28	29.882
672.46	29.087
672.65	30.578
672.84	29.418
673.02	30.828
673.21	27.018
673.39	31.429
673.58	28.203
673.77	29.977
673.95	27.675
674.14	29.144
674.32	28.106
674.51	29.108
674.69	28.141
674.88	29.083
675.07	27.320
675.25	31.171
675.44	28.573
675.62	30.519
675.81	28.354
675.99	31.960
676.18	28.541
676.36	30.414
676.55	27.322
676.74	29.538
676.92	27.602
677.11	28.971
677.29	27.915
677.48	29.980
677.66	29.169
677.85	30.008
678.03	29.518
678.22	30.168
678.40	29.344
678.59	28.651
678.78	27.956
678.96	30.678
679.15	28.707
679.33	29.621
679.52	29.872
679.70	30.603
679.89	29.724
680.07	30.682
680.26	29.456
680.44	30.232
680.63	30.350
680.81	31.566
681.00	30.213
681.18	30.917
681.37	28.641
681.55	31.762
681.74	31.364
681.92	31.344
682.11	29.816
682.29	30.750
682.48	30.567
682.66	31.999
682.85	30.122
683.03	30.645
683.22	30.790
683.40	31.862
683.59	30.998
683.77	31.624
683.96	29.320
684.14	31.940
684.33	29.077
684.51	32.669
684.70	31.539
684.88	32.146
685.07	30.702
685.25	31.615
685.44	28.652
685.62	32.746
685.81	30.558
685.99	31.423
686.18	31.628
686.36	31.134
686.55	29.470
686.73	31.366
686.92	30.640
687.10	32.854
687.29	31.515
687.47	32.785
687.65	32.032
687.84	32.300
688.02	32.965
688.21	34.095
688.39	31.639
688.58	33.296
688.76	32.788
688.95	32.621
689.13	30.401
689.32	33.426
689.50	32.126
689.68	34.583
689.87	32.112
690.05	34.434
690.24	32.532
690.42	34.470
690.61	32.788
690.79	34.197
690.98	33.834
691.16	34.145
691.34	31.603
691.53	34.450
691.71	33.253
691.90	35.549
692.08	32.853
692.27	35.622
692.45	35.550
692.63	34.310
692.82	35.179
693.00	36.494
693.19	32.259
693.37	34.945
693.56	33.947
693.74	35.548
693.92	33.114
694.11	35.902
694.29	34.340
694.48	36.154
694.66	34.969
694.84	35.953
695.03	35.282
695.21	38.018
695.40	35.734
695.58	37.446
695.76	35.976
695.95	37.247
696.13	37.364
696.32	37.424
696.50	39.581
696.68	38.690
696.87	36.331
697.05	37.818
697.24	37.002
697.42	39.215
697.60	36.280
697.79	38.806
697.97	36.428
698.16	38.340
698.34	38.679
698.52	40.309
698.71	39.005
698.89	40.000
699.07	39.256
699.26	39.408
699.44	39.319
699.63	40.862
699.81	38.844
699.99	39.844
700.18	39.502
700.36	40.998
700.54	40.543
700.73	40.729
700.91	40.251
701.09	39.806
701.28	40.087
701.46	41.414
701.64	39.451
701.83	41.857
702.01	38.864
702.20	39.622
702.38	41.580
702.56	41.593
702.75	38.489
702.93	41.441
703.11	39.453
703.30	41.338
703.48	39.234
703.66	41.067
703.85	39.217
704.03	42.222
704.21	40.554
704.40	41.084
704.58	39.881
704.76	41.873
704.95	39.944
705.13	43.009
705.31	40.980
705.50	43.022
705.68	38.892
705.86	40.983
706.04	41.296
706.23	40.227
706.41	41.236
706.59	41.210
706.78	39.681
706.96	42.424
707.14	40.690
707.33	44.055
707.51	40.832
707.69	42.896
707.88	42.175
708.06	41.822
708.24	40.638
708.42	41.503
708.61	41.900
708.79	43.284
708.97	41.123
709.16	43.126
709.34	41.997
709.52	41.812
709.71	42.893
709.89	44.746
710.07	39.717
710.25	45.231
710.44	41.566
710.62	44.663
710.80	42.093
710.98	44.056
711.17	41.811
711.35	42.959
711.53	41.879
711.72	41.453
711.90	41.817
712.08	42.504
712.26	40.373
712.45	44.144
712.63	42.356
712.81	45.104
712.99	44.564
713.18	41.998
713.36	42.264
713.54	42.878
713.72	41.645
713.91	44.739
714.09	41.707
714.27	44.551
714.45	42.606
714.64	44.934
714.82	42.115
715.00	44.092
715.18	42.467
715.37	43.819
715.55	43.487
715.73	42.757
715.91	43.372
716.10	43.192
716.28	41.568
716.46	43.916
716.64	42.508
716.83	44.799
717.01	42.509
717.19	45.026
717.37	42.303
717.55	43.269
717.74	42.234
717.92	43.364
718.10	40.094
718.28	43.777
718.47	41.390
718.65	44.380
718.83	42.456
719.01	43.911
719.19	39.420
719.38	41.501
719.56	42.923
719.74	40.744
719.92	38.313
720.10	41.418
720.29	40.066
720.47	43.846
720.65	40.538
720.83	40.910
721.01	38.422
721.20	42.177
721.38	40.919
721.56	41.277
721.74	39.815
721.92	43.799
722.11	39.204
722.29	43.971
722.47	41.164
722.65	42.666
722.83	41.935
723.01	43.510
723.20	40.443
723.38	41.597
723.56	40.100
723.74	45.440
723.92	41.918
724.10	41.043
724.29	40.511
724.47	41.305
724.65	41.810
724.83	42.870
725.01	39.454
725.19	42.416
725.38	41.347
725.56	42.018
725.74	40.526
725.92	41.979
726.10	40.321
726.28	43.662
726.46	41.754
726.65	44.242
726.83	39.757
727.01	41.642
727.19	42.313
727.37	41.809
727.55	39.937
727.73	40.268
727.92	41.208
728.10	43.370
728.28	38.104
728.46	41.797
728.64	40.969
728.82	42.666
729.00	43.356
729.19	43.581
729.37	40.098
729.55	42.929
729.73	39.979
729.91	42.602
730.09	41.344
730.27	42.857
730.45	40.731
730.63	44.035
730.82	42.185
731.00	44.349
731.18	41.818
731.36	42.783
731.54	42.103
731.72	42.595
731.90	43.076
732.08	43.775
732.26	39.938
732.45	44.382
732.63	40.594
732.81	41.861
732.99	41.421
733.17	44.554
733.35	40.492
733.53	41.665
733.71	42.638
733.89	43.927
734.07	42.799
734.25	44.077
734.44	40.797
734.62	43.788
734.80	40.531
734.98	47.238
735.16	42.649
735.34	45.624
735.52	42.914
735.70	44.126
735.88	44.122
736.06	43.116
736.24	43.147
736.42	45.491
736.60	41.948
736.78	42.910
736.97	41.872
737.15	41.553
737.33	39.560
737.51	44.158
737.69	42.209
737.87	43.949
738.05	43.272
738.23	44.534
738.41	39.669
738.59	44.182
738.77	43.305
738.95	45.871
739.13	42.568
739.31	42.521
739.49	40.646
739.67	44.988
739.85	43.524
740.03	42.454
740.21	43.013
740.39	41.402
740.57	44.019
740.75	43.435
740.93	41.671
741.11	42.197
741.30	42.462
741.48	42.178
741.66	41.776
741.84	45.184
742.02	39.931
742.20	41.644
742.38	42.474
742.56	44.591
742.74	39.802
742.92	41.740
743.10	40.496
743.28	44.606
743.46	41.276
743.64	43.370
743.82	40.503
744.00	44.713
744.18	42.828
744.36	42.479
744.54	41.015
744.72	43.519
744.90	41.257
745.08	44.614
745.26	41.755
745.44	43.201
745.62	40.309
745.80	42.476
745.98	38.153
746.16	44.227
746.34	42.153
746.52	41.132
746.70	39.703
746.87	41.167
747.05	38.346
747.23	41.543
747.41	41.923
747.59	43.251
747.77	40.446
747.95	41.588
748.13	41.717
748.31	44.441
748.49	40.610
748.67	41.886
748.85	36.003
749.03	40.659
749.21	37.383
749.39	46.694
749.57	40.460
749.75	43.985
749.93	40.026
750.11	40.925
750.29	42.336
750.47	44.344
750.65	39.937
750.83	43.399
751.01	41.413
751.18	41.052
751.36	37.114
751.54	43.534
751.72	42.609
751.90	42.233
752.08	41.352
752.26	42.730
752.44	40.891
752.62	40.704
752.80	38.564
752.98	42.489
753.16	38.810
753.34	43.039
753.52	40.198
753.69	43.707
753.87	44.409
754.05	43.112
754.23	41.176
754.41	43.388
754.59	43.039
754.77	40.734
754.95	38.947
755.13	40.562
755.31	37.996
755.49	44.346
755.66	39.587
755.84	43.835
756.02	39.444
756.20	44.254
756.38	39.389
756.56	44.019
756.74	39.987
756.92	41.700
757.10	40.875
757.28	41.323
757.45	45.638
757.63	43.535
757.81	38.274
757.99	44.208
758.17	40.534
758.35	44.546
758.53	40.576
758.71	41.487
758.88	37.735
759.06	40.872
759.24	40.025
759.42	40.457
759.60	39.787
759.78	37.959
759.96	35.274
760.13	37.927
760.31	32.472
760.49	38.277
760.67	29.536
760.85	37.623
761.03	32.436
761.21	33.759
761.38	30.474
761.56	37.617
761.74	28.844
761.92	39.487
762.10	27.103
762.28	34.118
762.46	26.434
762.63	32.021
762.81	29.003
762.99	35.569
763.17	32.109
763.35	36.613
763.53	33.671
763.70	39.390
763.88	37.658
764.06	38.520
764.24	36.826
764.42	39.867
764.60	39.743
764.77	40.319
764.95	38.818
765.13	42.597
765.31	39.097
765.49	39.688
765.66	38.677
765.84	39.268
766.02	36.644
766.20	40.215
766.38	37.645
766.56	39.975
766.73	38.194
766.91	37.881
767.09	36.522
767.27	40.240
767.45	35.418
767.62	38.923
767.80	37.861
767.98	41.767
768.16	35.712
768.33	42.379
768.51	36.599
768.69	39.589
768.87	36.071
769.05	39.863
769.22	36.224
769.40	40.180
769.58	41.731
769.76	41.963
769.94	36.112
770.11	42.375
770.29	38.453
770.47	42.585
770.65	35.020
770.82	40.648
771.00	38.270
771.18	41.696
771.36	39.181
771.53	36.131
771.71	40.815
771.89	42.050
772.07	37.055
772.25	38.163
772.42	32.833
772.60	40.921
772.78	36.948
772.96	42.567
773.13	39.722
773.31	41.600
773.49	36.311
773.67	36.455
773.84	37.797
774.02	37.558
774.20	38.599
774.37	38.011
774.55	35.578
774.73	38.052
774.91	36.854
775.08	39.790
775.26	35.852
775.44	41.893
775.62	32.289
775.79	36.225
775.97	35.457
776.15	37.993
776.32	33.685
776.50	42.460
776.68	36.178
776.86	39.962
777.03	36.081
777.21	38.269
777.39	32.877
777.56	39.683
777.74	35.764
777.92	36.198
778.10	32.439
778.27	39.609
778.45	37.593
778.63	38.843
778.80	33.882
778.98	40.078
779.16	41.088
779.34	37.585
779.51	35.566
779.69	42.664
779.87	36.300
780.04	38.018
780.22	30.246
780.40	41.134
780.57	38.813
780.75	33.538
780.93	38.215
781.10	38.997
781.28	41.800
781.46	33.499
781.63	35.517
781.81	41.418
781.99	33.128
782.16	35.700
782.34	34.933
782.52	35.516
782.69	36.922
782.87	36.510
783.05	37.642
783.22	35.163
783.40	29.962
783.58	42.930
783.75	32.382
783.93	35.353
784.11	29.532
784.28	39.507
784.46	31.312
784.64	37.753
784.81	33.982
784.99	42.634
785.17	33.182
785.34	37.002
785.52	29.882
785.69	36.211
785.87	28.773
786.05	31.672
786.22	30.442
786.40	35.689
786.58	29.947
786.75	36.636
786.93	31.924
787.11	38.889
787.28	33.239
787.46	38.987
787.63	30.148
787.81	37.334
787.99	33.423
788.16	37.275
788.34	33.556
788.51	37.572
788.69	33.868
788.87	36.192
789.04	31.195
789.22	34.443
789.39	34.342
789.57	35.278
789.75	30.794
789.92	32.967
790.10	31.521
790.27	36.218
790.45	33.125
790.63	32.646
790.80	28.485
790.98	33.506
791.15	35.525
791.33	31.194
791.51	29.030
791.68	35.666
791.86	32.958
792.03	35.779
792.21	26.781
792.39	30.778
792.56	27.881
792.74	31.693
792.91	34.969
793.09	34.145
793.26	26.698
793.44	37.954
793.62	32.394
793.79	36.833
793.97	29.167
794.14	32.448
794.32	30.612
794.49	39.188
794.67	31.478
794.84	33.191
795.02	30.012
795.20	37.155
795.37	27.345
795.55	34.375
795.72	35.232
795.90	35.760
796.07	31.314
796.25	35.620
796.42	30.083
796.60	32.443
796.77	34.717
796.95	35.239
797.13	29.213
797.30	32.691
797.48	34.385
797.65	29.847
797.83	30.658
798.00	34.102
798.18	30.947
798.35	33.353
798.53	28.524
798.70	35.080
798.88	30.049
799.05	32.989
799.23	27.845
799.40	33.932
799.58	35.361
799.75	34.886
799.93	26.471
800.10	35.862
800.28	31.319
800.45	32.908
800.63	27.107
800.80	31.043
800.98	26.290
801.15	31.322
801.33	30.335
801.50	28.297
801.68	22.713
801.85	32.164
802.03	27.517
802.20	35.009
802.38	33.165
802.55	30.126
802.73	28.054
802.90	32.147
803.08	27.321
803.25	35.189
803.43	33.397
803.60	35.204
803.78	32.040
803.95	33.291
804.13	27.309
804.30	26.401
804.48	27.602
804.65	31.207
804.83	25.772
805.00	25.952
805.17	28.170
805.35	35.964
805.52	26.469
805.70	36.548
805.87	31.755
806.05	29.765
806.22	28.018
806.40	29.254
806.57	30.261
806.75	35.557
806.92	29.115
807.09	35.314
807.27	26.928
807.44	35.940
807.62	26.435
807.79	31.510
807.97	25.475
808.14	34.325
808.31	23.423
808.49	29.358
808.66	31.881
808.84	25.495
809.01	31.627
809.19	32.347
809.36	30.330
809.53	30.035
809.71	25.363
809.88	32.101
810.06	31.749
810.23	34.596
810.41	31.591
810.58	33.651
810.75	23.150
810.93	27.205
811.10	26.290
811.28	30.695
811.45	27.945
811.62	27.591
811.80	28.998
811.97	23.453
812.15	31.463
812.32	32.959
812.49	28.092
812.67	32.003
812.84	24.021
813.02	33.174
813.19	22.575
813.36	31.903
813.54	26.131
813.71	34.694
813.89	30.320
814.06	26.276
814.23	22.939
814.41	17.688
814.58	26.956
814.75	25.961
814.93	22.855
815.10	24.651
815.28	18.671
815.45	23.141
815.62	28.153
815.80	28.114
815.97	27.562
816.14	29.402
816.32	23.742
816.49	29.252
816.66	26.656
816.84	26.851
817.01	23.300
817.18	29.941
817.36	25.950
817.53	25.430
817.71	23.199
817.88	28.845
818.05	21.892
818.23	27.047
818.40	27.071
818.57	34.757
818.75	22.654
818.92	20.586
819.09	27.897
819.27	22.643
819.44	25.732
819.61	20.695
819.79	24.983
819.96	25.229
820.13	21.005
820.31	26.930
820.48	33.730
820.65	25.782
820.82	26.513
821.00	29.013
821.17	18.356
821.34	31.553
821.52	29.143
821.69	29.001
821.86	29.613
822.04	31.110
822.21	32.208
822.38	40.501
822.56	36.539
822.73	40.225
822.90	39.795
823.07	42.715
823.25	39.850
823.42	42.093
823.59	40.395
823.77	43.417
823.94	40.154
824.11	41.713
824.29	39.691
824.46	42.164
824.63	41.569
824.80	39.997
824.98	39.661
825.15	40.697
825.32	36.388
825.49	39.716
825.67	36.941
825.84	37.287
826.01	38.201
826.19	40.210
826.36	31.709
826.53	37.147
826.70	33.783
826.88	34.385
827.05	32.428
827.22	33.997
827.39	33.352
827.57	37.033
827.74	33.057
827.91	37.662
828.08	33.086
828.26	35.828
828.43	32.114
828.60	39.281
828.77	36.736
828.95	37.655
829.12	31.700
829.29	32.487
829.46	33.565
829.64	29.371
829.81	26.069
829.98	35.644
830.15	27.741
830.32	31.868
830.50	28.031
830.67	31.807
830.84	25.240
831.01	25.297
831.19	20.676
831.36	26.528
831.53	21.709
831.70	34.993
831.87	18.240
832.05	24.926
832.22	24.826
832.39	21.154
832.56	16.860
832.74	27.210
832.91	22.181
833.08	29.927
833.25	19.758
833.42	22.939
833.60	21.525
833.77	23.201
833.94	24.923
834.11	25.739
834.28	22.680
834.45	30.827
834.63	24.443
834.80	27.801
834.97	26.496
835.14	28.978
835.31	28.085
835.49	28.740
835.66	30.789
835.83	30.222
836.00	27.043
836.17	30.168
836.34	21.711
836.52	23.709
836.69	31.603
836.86	29.306
837.03	24.901
837.20	22.006
837.37	21.066
837.55	21.179
837.72	20.206
837.89	25.177
838.06	27.029
838.23	20.187
838.40	25.022
838.58	24.954
838.75	24.350
838.92	29.131
839.09	22.078
839.26	31.690
839.43	25.749
839.60	29.253
839.78	28.172
839.95	31.373
840.12	24.239
840.29	37.650
840.46	27.310
840.63	24.311
840.80	23.084
840.98	24.049
841.15	19.057
841.32	25.867
841.49	16.481
841.66	31.700
841.83	24.195
842.00	18.083
842.17	29.095
842.34	21.074
842.52	27.743
842.69	26.413
842.86	23.555
843.03	30.874
843.20	25.725
843.37	25.500
843.54	24.423
843.71	30.676
843.88	24.636
844.06	33.145
844.23	39.615
844.40	20.912
844.57	35.725
844.74	25.732
844.91	18.196
845.08	41.692
845.25	31.145
845.42	19.478
845.59	23.464
845.76	36.535
845.94	24.959
846.11	32.937
846.28	26.282
846.45	23.722
846.62	42.424
846.79	21.402
846.96	29.903
847.13	39.709
847.30	29.167
847.47	33.150
847.64	23.663
847.81	43.929
847.98	28.390
848.15	40.040
848.32	32.860
848.50	34.199
848.67	22.031
848.84	37.787
849.01	17.647
849.18	35.377
849.35	31.808
849.52	41.558
849.69	37.953
849.86	47.084
850.03	43.125
850.20	44.381
850.37	23.913
850.54	34.409
850.71	26.749
850.88	44.103
851.05	30.684
851.22	27.623
851.39	37.592
851.56	38.424
851.73	32.864
851.90	37.897
852.07	35.158
852.24	48.148
852.41	34.989
852.58	32.096
852.75	24.654
852.92	30.661
853.09	40.659
853.26	51.198
853.43	43.524
853.60	50.461
853.77	34.810
853.94	28.602
854.11	30.909
854.28	41.723
854.45	27.739
854.62	33.189
854.79	30.000
854.96	31.838
855.13	30.227
855.30	38.554
855.47	17.962
855.64	41.884
855.81	43.609
855.98	39.623
856.15	35.792
856.32	33.333
856.49	33.333
856.66	24.709
856.83	24.254
857.00	34.571
857.17	38.072
857.34	28.052
857.51	53.779
857.68	23.158
857.85	46.154
858.02	39.443
858.19	42.131
858.36	45.212
858.53	41.848
858.70	35.556
858.87	41.372
859.04	38.430
859.21	25.616
859.38	37.500
859.55	19.632
859.72	24.194
859.89	37.500
860.05	49.535
860.22	34.247
860.39	37.056
860.56	30.499
860.73	53.319
860.90	55.319
861.07	45.802
861.24	41.037
861.41	28.537
861.58	33.417
861.75	36.842
861.92	36.774
862.09	12.060
862.26	20.551
862.43	35.349
862.59	51.163
862.76	31.302
862.93	46.136
863.10	61.290
863.27	32.426
863.44	33.938
863.61	36.465
863.78	8.686
863.95	42.733
864.12	40.714
864.29	29.234
864.45	48.745
864.62	23.284
864.79	36.842
864.96	39.372
865.13	29.484
865.30	40.928
865.47	31.981
865.64	32.458
865.81	38.272
865.97	47.086
866.14	47.619
866.31	46.154
866.48	43.305
866.65	21.330
866.82	25.439
866.99	41.341
867.16	31.909
867.33	41.855
867.49	29.847
867.66	40.214
867.83	29.155
868.00	29.340
868.17	30.368
868.34	30.874
868.51	28.868
868.67	33.699
868.84	35.789
869.01	35.475
869.18	51.081
869.35	42.721
869.52	34.273
869.69	21.728
869.85	41.007
870.02	28.058
870.19	38.976
870.36	51.389
870.53	48.359
870.70	44.595
870.86	39.840
871.03	39.355
871.20	49.011
871.37	51.365
871.54	26.536
871.71	31.190
871.87	28.256
872.04	34.307
872.21	30.339
872.38	32.563
872.55	52.593
872.72	43.266
872.88	39.759
873.05	25.355
873.22	35.751
873.39	30.233
873.56	35.227
873.72	34.954
873.89	35.938
874.06	30.159
874.23	42.710
874.40	47.895
874.56	36.278
874.73	26.757
874.90	38.579
875.07	49.856
875.24	39.950
875.40	42.857
875.57	36.908
875.74	26.531
875.91	31.529
876.08	38.926
876.24	24.788
876.41	45.210
876.58	35.597
876.75	32.267
876.92	31.280
877.08	31.332
877.25	35.068
877.42	27.500
877.59	42.105
877.75	49.610
877.92	21.818
878.09	33.977
878.26	38.498
878.42	28.643
878.59	35.142
878.76	30.586
878.93	42.286
879.09	30.162
879.26	37.838
879.43	32.225
879.60	31.841
879.76	42.826
879.93	33.333
880.10	30.667
880.27	23.772
880.43	26.855
880.60	38.419
880.77	28.936
880.94	30.013
881.10	20.053
881.27	18.365
881.44	22.569
881.61	20.684
881.77	20.413
881.94	21.547
882.11	17.685
882.28	16.221
882.44	18.406
882.61	26.131
882.78	27.618
882.94	30.627
883.11	26.583
883.28	26.535
883.45	28.043
883.61	30.529
883.78	28.003
883.95	29.562
884.11	27.369
884.28	23.740
>>>>>End Processed Spectral Data<<<<<
