SpectraSuite Data File
++++++++++++++++++++++++++++++++++++
Date: Wed Sep 25 03:03:05 EST 2019
User: sgrac
Dark Spectrum Present: Yes
Reference Spectrum Present: Yes
Number of Sampled Component Spectra: 1
Spectrometers: USB4E01596
Integration Time (usec): 100000 (USB4E01596)
Spectra Averaged: 3 (USB4E01596)
Boxcar Smoothing: 0 (USB4E01596)
Correct for Electrical Dark: No (USB4E01596)
Strobe/Lamp Enabled: Yes (USB4E01596)
Correct for Detector Non-linearity: No (USB4E01596)
Correct for Stray Light: No (USB4E01596)
Number of Pixels in Processed Spectrum: 3648
>>>>>Begin Processed Spectral Data<<<<<
178.44	-180.769
178.66	-180.769
178.87	-180.769
179.09	-359.375
179.30	529.032
179.52	856.522
179.74	-465.789
179.95	-303.704
180.17	291.837
180.38	-553.571
180.60	-1200.000
180.82	-2633.333
181.03	504.651
181.25	-1475.000
181.46	-251.389
181.68	297.436
181.89	-622.581
182.11	8833.333
182.33	461.538
182.54	-10050.000
182.76	374.510
182.97	589.474
183.19	829.167
183.40	365.217
183.62	740.000
183.84	291.667
184.05	642.308
184.27	-1663.636
184.48	11300.000
184.70	788.889
184.91	326.415
185.13	1314.286
185.34	444.068
185.56	221.839
185.78	666.667
185.99	364.000
186.21	266.265
186.42	821.429
186.64	-1588.889
186.85	473.171
187.07	-808.000
187.28	181.250
187.50	-332.558
187.72	1023.810
187.93	791.892
188.15	1507.143
188.36	456.250
188.58	401.667
188.79	340.625
189.01	303.279
189.22	321.505
189.44	263.208
189.65	-436.585
189.87	667.857
190.09	244.231
190.30	221.296
190.52	-341.379
190.73	221.687
190.95	-1571.429
191.16	447.826
191.38	380.769
191.59	319.753
191.81	750.000
192.02	-2291.667
192.24	-1481.818
192.45	317.742
192.67	-5040.000
192.88	209.302
193.10	333.824
193.31	186.066
193.53	-167.742
193.74	700.000
193.96	-3616.667
194.18	1421.429
194.39	305.085
194.61	586.111
194.82	238.636
195.04	146.491
195.25	330.000
195.47	-19900.000
195.68	316.923
195.90	270.000
196.11	933.333
196.33	-145.238
196.54	739.286
196.76	369.355
196.97	172.222
197.19	205.263
197.40	-294.667
197.62	383.333
197.83	1064.706
198.05	223.750
198.26	460.417
198.48	1376.471
198.69	-548.718
198.91	339.062
199.12	-10400.000
199.34	495.122
199.55	940.000
199.77	404.762
199.98	938.095
200.20	315.476
200.41	150.000
200.63	267.073
200.84	395.556
201.06	158.228
201.27	-282.456
201.49	-2657.143
201.70	232.468
201.91	-2685.714
202.13	-806.250
202.34	-727.273
202.56	884.211
202.77	536.842
202.99	436.170
203.20	233.333
203.42	419.298
203.63	342.254
203.85	-1640.000
204.06	700.000
204.28	-2200.000
204.49	763.333
204.71	224.731
204.92	404.412
205.14	1281.250
205.35	615.625
205.56	850.000
205.78	576.364
205.99	284.146
206.21	397.436
206.42	272.881
206.64	325.000
206.85	460.465
207.07	-518.421
207.28	288.406
207.50	408.108
207.71	759.375
207.93	191.919
208.14	338.000
208.35	450.000
208.57	1360.000
208.78	740.000
209.00	478.723
209.21	388.889
209.43	178.641
209.64	-2100.000
209.86	366.667
210.07	-957.143
210.28	259.783
210.50	742.105
210.71	188.571
210.93	274.359
211.14	278.182
211.36	-2020.000
211.57	308.333
211.78	426.000
212.00	397.872
212.21	467.568
212.43	14500.000
212.64	500.000
212.86	362.500
213.07	836.364
213.29	-1513.333
213.50	609.677
213.71	832.000
213.93	1011.111
214.14	247.826
214.36	150.633
214.57	395.082
214.78	352.941
215.00	401.471
215.21	1361.538
215.43	245.455
215.64	532.558
215.86	424.242
216.07	320.000
216.28	934.783
216.50	224.074
216.71	272.414
216.93	502.632
217.14	250.450
217.35	796.154
217.57	177.419
217.78	1084.211
218.00	360.465
218.21	715.000
218.42	5200.000
218.64	179.832
218.85	513.333
219.07	478.689
219.28	212.281
219.49	469.697
219.71	204.054
219.92	800.000
220.14	1300.000
220.35	345.455
220.56	162.581
220.78	3980.000
220.99	301.220
221.21	152.542
221.42	409.756
221.63	290.000
221.85	334.783
222.06	170.940
222.28	421.053
222.49	362.500
222.70	212.844
222.92	323.596
223.13	240.909
223.34	198.425
223.56	278.261
223.77	214.286
223.99	638.462
224.20	125.175
224.41	148.361
224.63	128.689
224.84	347.887
225.05	232.967
225.27	223.377
225.48	171.698
225.69	147.619
225.91	382.692
226.12	190.299
226.34	139.310
226.55	84.348
226.76	117.143
226.98	99.153
227.19	108.046
227.40	105.405
227.62	70.445
227.83	87.189
228.04	70.990
228.26	38.596
228.47	52.685
228.69	39.599
228.90	39.024
229.11	44.854
229.33	21.306
229.54	19.917
229.75	27.318
229.97	27.170
230.18	17.751
230.39	20.655
230.61	25.803
230.82	24.533
231.03	19.208
231.25	22.307
231.46	19.806
231.67	35.007
231.89	18.105
232.10	38.911
232.31	33.826
232.53	37.298
232.74	34.628
232.95	36.414
233.17	45.631
233.38	32.331
233.59	45.880
233.81	28.008
234.02	46.693
234.23	38.189
234.45	35.198
234.66	39.306
234.87	49.225
235.09	38.545
235.30	33.803
235.51	35.601
235.73	26.853
235.94	30.804
236.15	22.422
236.36	23.361
236.58	27.563
236.79	27.031
237.00	46.250
237.22	36.858
237.43	34.993
237.64	27.090
237.86	39.297
238.07	24.248
238.28	23.910
238.50	21.550
238.71	28.070
238.92	36.148
239.13	38.975
239.35	34.138
239.56	25.535
239.77	39.003
239.99	27.460
240.20	34.310
240.41	26.482
240.63	19.333
240.84	30.786
241.05	30.644
241.26	14.172
241.48	24.729
241.69	21.890
241.90	10.885
242.12	11.392
242.33	14.422
242.54	12.247
242.75	12.493
242.97	16.106
243.18	8.267
243.39	8.249
243.61	10.061
243.82	10.333
244.03	9.892
244.24	8.833
244.46	9.710
244.67	12.927
244.88	13.369
245.09	12.931
245.31	15.722
245.52	13.470
245.73	14.471
245.95	23.956
246.16	14.129
246.37	12.984
246.58	12.620
246.80	9.793
247.01	8.408
247.22	8.858
247.43	6.904
247.65	7.126
247.86	6.057
248.07	6.164
248.28	6.057
248.50	6.479
248.71	5.433
248.92	6.160
249.13	6.965
249.35	5.554
249.56	7.561
249.77	6.676
249.98	6.660
250.20	8.973
250.41	8.082
250.62	12.495
250.83	10.464
251.05	13.892
251.26	10.348
251.47	10.792
251.68	12.680
251.90	8.119
252.11	14.711
252.32	10.968
252.53	8.914
252.75	12.301
252.96	11.243
253.17	10.039
253.38	10.685
253.59	8.741
253.81	11.902
254.02	9.625
254.23	10.862
254.44	9.942
254.66	12.835
254.87	12.754
255.08	9.844
255.29	14.140
255.50	19.064
255.72	16.090
255.93	15.830
256.14	14.467
256.35	12.635
256.57	13.257
256.78	13.762
256.99	19.372
257.20	14.255
257.41	14.257
257.63	10.488
257.84	14.340
258.05	11.946
258.26	12.402
258.47	15.937
258.69	9.300
258.90	8.532
259.11	12.144
259.32	8.378
259.53	8.348
259.75	7.195
259.96	7.715
260.17	3.232
260.38	7.281
260.59	5.817
260.81	3.772
261.02	5.454
261.23	5.207
261.44	6.712
261.65	5.541
261.87	4.070
262.08	4.015
262.29	7.275
262.50	3.916
262.71	7.125
262.92	7.418
263.14	5.604
263.35	4.581
263.56	8.580
263.77	9.272
263.98	6.982
264.20	7.381
264.41	8.782
264.62	8.790
264.83	7.706
265.04	12.285
265.25	6.756
265.47	13.792
265.68	10.033
265.89	11.209
266.10	8.846
266.31	7.586
266.52	8.827
266.74	9.840
266.95	8.521
267.16	6.940
267.37	7.105
267.58	5.353
267.79	7.838
268.01	7.418
268.22	5.904
268.43	8.525
268.64	7.103
268.85	5.326
269.06	7.737
269.27	10.448
269.49	7.573
269.70	8.285
269.91	4.600
270.12	8.062
270.33	8.846
270.54	6.825
270.75	9.462
270.97	5.150
271.18	5.606
271.39	8.100
271.60	8.118
271.81	6.085
272.02	6.903
272.23	7.612
272.45	6.429
272.66	5.878
272.87	5.191
273.08	6.592
273.29	5.367
273.50	5.056
273.71	5.292
273.92	6.121
274.14	6.063
274.35	6.615
274.56	5.766
274.77	5.485
274.98	6.504
275.19	6.646
275.40	6.171
275.61	5.112
275.83	10.123
276.04	6.862
276.25	6.798
276.46	6.931
276.67	10.566
276.88	5.677
277.09	4.778
277.30	4.877
277.51	7.071
277.73	6.487
277.94	5.630
278.15	7.810
278.36	10.252
278.57	7.412
278.78	6.258
278.99	6.133
279.20	8.446
279.41	9.178
279.62	7.665
279.84	6.024
280.05	8.243
280.26	7.688
280.47	8.491
280.68	5.942
280.89	7.402
281.10	6.486
281.31	6.731
281.52	6.593
281.73	2.946
281.94	3.981
282.16	6.541
282.37	5.747
282.58	5.203
282.79	7.744
283.00	6.974
283.21	5.384
283.42	5.484
283.63	5.567
283.84	4.902
284.05	5.616
284.26	5.554
284.47	3.420
284.68	5.695
284.89	6.561
285.11	5.378
285.32	4.218
285.53	4.101
285.74	5.540
285.95	6.623
286.16	4.832
286.37	6.079
286.58	5.783
286.79	4.381
287.00	5.408
287.21	5.084
287.42	4.409
287.63	3.591
287.84	3.365
288.05	4.908
288.26	5.897
288.48	6.688
288.69	4.423
288.90	5.615
289.11	5.937
289.32	5.222
289.53	4.296
289.74	3.602
289.95	4.538
290.16	7.297
290.37	4.493
290.58	4.751
290.79	5.568
291.00	4.270
291.21	4.625
291.42	6.613
291.63	3.096
291.84	4.548
292.05	5.506
292.26	6.245
292.47	4.695
292.68	4.433
292.89	7.239
293.10	4.364
293.31	4.332
293.52	5.003
293.73	4.757
293.94	5.484
294.15	4.434
294.36	4.686
294.57	4.083
294.79	5.651
295.00	3.956
295.21	5.814
295.42	4.580
295.63	5.279
295.84	4.098
296.05	3.208
296.26	4.709
296.47	3.311
296.68	4.810
296.89	4.110
297.10	4.282
297.31	3.243
297.52	4.805
297.73	3.150
297.94	3.088
298.15	3.987
298.36	4.148
298.57	2.860
298.78	4.834
298.99	3.253
299.20	4.664
299.41	4.463
299.62	4.799
299.83	2.909
300.04	4.628
300.25	5.641
300.46	4.669
300.67	4.764
300.88	4.904
301.09	3.459
301.30	4.669
301.50	5.213
301.71	6.022
301.92	5.223
302.13	4.128
302.34	4.844
302.55	4.123
302.76	4.010
302.97	4.201
303.18	6.283
303.39	4.340
303.60	5.908
303.81	5.493
304.02	4.861
304.23	4.536
304.44	3.981
304.65	6.089
304.86	4.415
305.07	5.641
305.28	5.561
305.49	7.194
305.70	5.576
305.91	2.301
306.12	6.619
306.33	6.025
306.54	6.147
306.75	3.939
306.96	8.803
307.17	4.529
307.38	6.424
307.58	4.591
307.79	4.794
308.00	4.592
308.21	3.764
308.42	4.351
308.63	5.282
308.84	3.965
309.05	3.747
309.26	4.013
309.47	3.057
309.68	3.888
309.89	4.435
310.10	3.934
310.31	3.647
310.52	3.764
310.73	4.810
310.94	4.435
311.14	3.984
311.35	4.789
311.56	3.246
311.77	2.924
311.98	4.194
312.19	3.482
312.40	3.292
312.61	4.591
312.82	3.734
313.03	3.545
313.24	4.355
313.45	3.941
313.66	4.355
313.86	4.475
314.07	3.453
314.28	5.231
314.49	5.543
314.70	4.434
314.91	5.964
315.12	5.921
315.33	4.155
315.54	5.091
315.75	5.275
315.96	4.945
316.16	4.931
316.37	5.814
316.58	3.754
316.79	6.251
317.00	4.995
317.21	6.151
317.42	3.762
317.63	5.471
317.84	4.676
318.05	5.767
318.25	6.643
318.46	6.171
318.67	6.140
318.88	4.294
319.09	5.125
319.30	3.819
319.51	4.931
319.72	3.887
319.93	4.511
320.13	4.309
320.34	5.150
320.55	5.074
320.76	6.521
320.97	3.878
321.18	5.410
321.39	3.595
321.60	4.573
321.80	5.706
322.01	6.400
322.22	5.424
322.43	3.699
322.64	5.368
322.85	4.500
323.06	6.406
323.27	3.943
323.47	5.074
323.68	6.897
323.89	5.066
324.10	4.562
324.31	3.719
324.52	4.556
324.73	3.702
324.93	3.662
325.14	5.811
325.35	4.505
325.56	3.808
325.77	4.900
325.98	3.950
326.19	3.808
326.39	1.580
326.60	4.493
326.81	5.791
327.02	4.298
327.23	3.948
327.44	4.737
327.64	4.107
327.85	3.464
328.06	4.007
328.27	5.734
328.48	4.260
328.69	3.135
328.90	4.792
329.10	5.025
329.31	6.206
329.52	3.998
329.73	4.895
329.94	3.734
330.15	5.932
330.35	5.222
330.56	5.210
330.77	4.592
330.98	5.921
331.19	5.488
331.39	5.811
331.60	3.918
331.81	5.879
332.02	5.384
332.23	4.252
332.44	3.560
332.64	3.417
332.85	4.721
333.06	4.972
333.27	3.109
333.48	4.625
333.68	3.362
333.89	3.812
334.10	5.403
334.31	4.814
334.52	4.652
334.72	5.500
334.93	2.532
335.14	2.847
335.35	4.280
335.56	5.936
335.76	5.136
335.97	5.919
336.18	4.700
336.39	5.347
336.60	4.482
336.80	3.833
337.01	3.639
337.22	2.730
337.43	4.329
337.64	4.864
337.84	4.457
338.05	5.729
338.26	5.171
338.47	4.765
338.68	3.381
338.88	5.079
339.09	4.968
339.30	3.747
339.51	6.155
339.71	4.444
339.92	3.561
340.13	3.103
340.34	4.357
340.55	4.824
340.75	5.844
340.96	4.072
341.17	3.938
341.38	4.515
341.58	5.366
341.79	4.764
342.00	4.883
342.21	4.748
342.41	3.403
342.62	3.350
342.83	5.282
343.04	2.898
343.24	4.386
343.45	4.470
343.66	3.654
343.87	4.635
344.07	4.123
344.28	5.091
344.49	4.586
344.70	4.664
344.90	3.606
345.11	1.888
345.32	4.182
345.53	3.611
345.73	4.235
345.94	5.548
346.15	4.553
346.36	5.540
346.56	4.770
346.77	5.613
346.98	5.226
347.19	4.919
347.39	3.965
347.60	4.753
347.81	5.292
348.02	5.209
348.22	4.955
348.43	3.934
348.64	3.714
348.84	4.873
349.05	5.265
349.26	5.701
349.47	5.753
349.67	2.624
349.88	4.880
350.09	4.251
350.30	6.684
350.50	3.655
350.71	6.204
350.92	5.878
351.12	4.405
351.33	5.198
351.54	6.572
351.74	4.921
351.95	5.475
352.16	4.772
352.37	5.328
352.57	4.506
352.78	5.106
352.99	5.513
353.19	5.782
353.40	6.473
353.61	5.570
353.82	5.509
354.02	6.584
354.23	6.213
354.44	7.416
354.64	5.481
354.85	5.204
355.06	6.478
355.26	4.678
355.47	6.496
355.68	6.332
355.88	6.192
356.09	6.067
356.30	4.166
356.51	7.551
356.71	5.740
356.92	4.898
357.13	7.396
357.33	7.364
357.54	6.153
357.75	4.716
357.95	6.231
358.16	5.709
358.37	7.532
358.57	6.247
358.78	8.875
358.99	7.161
359.19	7.016
359.40	7.143
359.61	6.009
359.81	9.021
360.02	8.729
360.23	5.561
360.43	6.283
360.64	6.271
360.85	6.841
361.05	5.946
361.26	9.072
361.47	6.383
361.67	7.558
361.88	6.929
362.09	8.238
362.29	5.558
362.50	6.691
362.70	5.731
362.91	8.248
363.12	5.742
363.32	6.963
363.53	7.848
363.74	7.727
363.94	5.847
364.15	8.787
364.36	7.655
364.56	6.160
364.77	6.906
364.98	9.837
365.18	7.984
365.39	9.294
365.59	6.123
365.80	7.247
366.01	8.781
366.21	6.839
366.42	5.371
366.63	9.336
366.83	6.750
367.04	4.810
367.24	8.788
367.45	5.466
367.66	6.098
367.86	7.108
368.07	6.677
368.28	7.312
368.48	7.066
368.69	5.749
368.89	7.024
369.10	7.647
369.31	8.425
369.51	7.143
369.72	8.983
369.92	11.008
370.13	7.892
370.34	8.878
370.54	4.978
370.75	8.789
370.95	5.910
371.16	8.290
371.37	7.219
371.57	7.318
371.78	8.161
371.98	8.778
372.19	8.281
372.40	9.561
372.60	9.158
372.81	9.057
373.01	6.464
373.22	7.422
373.43	9.501
373.63	9.172
373.84	8.410
374.04	8.076
374.25	7.847
374.46	9.373
374.66	8.974
374.87	10.383
375.07	7.341
375.28	7.653
375.48	8.926
375.69	10.052
375.90	7.655
376.10	7.212
376.31	8.912
376.51	7.336
376.72	7.510
376.92	7.472
377.13	9.408
377.34	10.440
377.54	8.494
377.75	10.725
377.95	8.465
378.16	10.604
378.36	9.626
378.57	10.950
378.77	10.555
378.98	10.048
379.19	9.813
379.39	9.769
379.60	10.229
379.80	10.930
380.01	10.819
380.21	9.259
380.42	10.782
380.62	10.716
380.83	11.195
381.04	9.645
381.24	10.695
381.45	11.729
381.65	10.014
381.86	11.558
382.06	12.028
382.27	9.796
382.47	10.309
382.68	12.710
382.88	10.326
383.09	10.734
383.29	11.185
383.50	12.918
383.71	10.965
383.91	13.525
384.12	11.652
384.32	13.930
384.53	12.589
384.73	11.926
384.94	11.801
385.14	13.523
385.35	12.611
385.55	14.027
385.76	13.087
385.96	13.086
386.17	14.384
386.37	15.051
386.58	13.528
386.78	16.236
386.99	13.507
387.19	16.084
387.40	13.611
387.60	17.066
387.81	14.782
388.01	16.758
388.22	15.363
388.42	17.615
388.63	16.223
388.83	17.696
389.04	15.568
389.24	17.315
389.45	17.371
389.65	17.013
389.86	17.297
390.06	17.937
390.27	17.738
390.47	17.063
390.68	17.944
390.88	19.952
391.09	19.707
391.29	20.468
391.50	18.638
391.70	20.182
391.91	19.915
392.11	20.904
392.32	20.147
392.52	21.982
392.73	20.780
392.93	22.396
393.14	21.716
393.34	21.866
393.55	21.378
393.75	22.990
393.95	21.658
394.16	22.505
394.36	23.204
394.57	23.393
394.77	22.818
394.98	23.609
395.18	23.920
395.39	24.696
395.59	23.148
395.80	24.604
396.00	23.885
396.21	25.256
396.41	24.918
396.61	25.473
396.82	25.287
397.02	25.898
397.23	24.720
397.43	25.787
397.64	23.564
397.84	25.773
398.05	22.979
398.25	25.737
398.45	23.803
398.66	26.435
398.86	24.702
399.07	27.173
399.27	25.315
399.48	26.352
399.68	25.830
399.89	26.039
400.09	26.925
400.29	26.111
400.50	26.988
400.70	25.806
400.91	25.750
401.11	26.471
401.32	26.027
401.52	26.052
401.72	26.505
401.93	27.864
402.13	25.814
402.34	26.174
402.54	26.827
402.75	28.308
402.95	25.379
403.15	27.616
403.36	26.749
403.56	26.758
403.77	26.224
403.97	26.731
404.17	25.609
404.38	27.152
404.58	25.705
404.79	27.062
404.99	27.221
405.19	27.273
405.40	27.044
405.60	27.155
405.81	26.154
406.01	27.144
406.21	26.928
406.42	27.710
406.62	27.456
406.83	27.375
407.03	27.429
407.23	27.663
407.44	26.422
407.64	27.462
407.85	26.580
408.05	26.944
408.25	25.537
408.46	28.165
408.66	27.552
408.87	26.879
409.07	26.823
409.27	26.417
409.48	26.916
409.68	26.552
409.88	26.262
410.09	27.621
410.29	26.719
410.50	26.977
410.70	26.135
410.90	26.639
411.11	25.462
411.31	26.287
411.51	26.530
411.72	27.838
411.92	25.721
412.12	26.622
412.33	25.759
412.53	26.481
412.74	26.116
412.94	26.618
413.14	25.898
413.35	26.763
413.55	25.617
413.75	27.513
413.96	25.617
414.16	26.048
414.36	25.646
414.57	25.870
414.77	24.831
414.97	26.767
415.18	25.418
415.38	26.355
415.58	25.666
415.79	25.937
415.99	25.758
416.19	26.273
416.40	25.632
416.60	26.162
416.80	26.321
417.01	25.931
417.21	25.119
417.41	26.310
417.62	25.600
417.82	25.264
418.02	24.894
418.23	25.751
418.43	25.676
418.63	25.634
418.84	25.337
419.04	25.587
419.24	25.433
419.45	25.893
419.65	25.613
419.85	25.218
420.06	25.366
420.26	26.001
420.46	25.667
420.67	26.161
420.87	25.626
421.07	25.183
421.28	25.437
421.48	25.223
421.68	25.223
421.88	25.433
422.09	25.839
422.29	25.332
422.49	25.297
422.70	25.326
422.90	25.453
423.10	25.155
423.31	25.876
423.51	25.527
423.71	25.190
423.91	25.205
424.12	25.376
424.32	24.994
424.52	25.126
424.73	25.008
424.93	24.836
425.13	25.118
425.33	25.083
425.54	24.875
425.74	25.144
425.94	25.055
426.15	24.862
426.35	24.898
426.55	25.349
426.75	25.826
426.96	25.895
427.16	25.107
427.36	25.057
427.57	25.377
427.77	24.755
427.97	24.780
428.17	24.748
428.38	25.443
428.58	24.723
428.78	24.782
428.98	24.596
429.19	24.588
429.39	24.464
429.59	24.509
429.79	24.289
430.00	24.254
430.20	24.094
430.40	24.641
430.60	23.384
430.81	24.074
431.01	24.250
431.21	24.463
431.41	24.339
431.62	24.630
431.82	24.105
432.02	24.706
432.22	24.159
432.43	23.947
432.63	23.925
432.83	24.410
433.03	24.327
433.24	23.763
433.44	24.138
433.64	23.837
433.84	23.719
434.05	23.483
434.25	23.689
434.45	24.188
434.65	23.750
434.85	23.919
435.06	23.912
435.26	24.169
435.46	23.975
435.66	24.119
435.87	23.417
436.07	23.810
436.27	23.666
436.47	24.112
436.67	23.406
436.88	24.374
437.08	24.336
437.28	24.152
437.48	23.548
437.69	23.549
437.89	23.550
438.09	23.338
438.29	23.630
438.49	23.998
438.70	23.593
438.90	23.242
439.10	23.811
439.30	23.403
439.50	23.286
439.71	23.572
439.91	23.271
440.11	23.832
440.31	23.874
440.51	23.264
440.72	23.161
440.92	23.648
441.12	23.656
441.32	23.064
441.52	23.586
441.72	23.362
441.93	23.478
442.13	23.240
442.33	23.593
442.53	23.810
442.73	23.429
442.94	23.637
443.14	23.669
443.34	23.610
443.54	23.097
443.74	23.436
443.94	23.141
444.15	23.239
444.35	23.359
444.55	23.156
444.75	22.893
444.95	22.955
445.15	22.605
445.36	22.953
445.56	22.647
445.76	23.056
445.96	22.667
446.16	23.010
446.36	23.469
446.57	22.889
446.77	22.479
446.97	22.744
447.17	22.965
447.37	22.909
447.57	22.945
447.77	23.040
447.98	22.957
448.18	23.053
448.38	22.786
448.58	23.030
448.78	23.184
448.98	23.105
449.18	23.077
449.39	22.948
449.59	22.591
449.79	22.642
449.99	22.894
450.19	22.860
450.39	22.601
450.59	22.527
450.79	22.607
451.00	22.882
451.20	23.400
451.40	22.907
451.60	22.604
451.80	22.477
452.00	22.184
452.20	22.275
452.40	22.758
452.61	22.331
452.81	22.232
453.01	22.471
453.21	21.903
453.41	22.251
453.61	22.149
453.81	22.479
454.01	22.272
454.21	22.299
454.42	22.103
454.62	22.023
454.82	22.290
455.02	22.378
455.22	21.660
455.42	22.016
455.62	21.877
455.82	21.823
456.02	21.145
456.23	21.922
456.43	22.170
456.63	21.854
456.83	21.732
457.03	21.678
457.23	21.203
457.43	21.452
457.63	21.177
457.83	21.697
458.03	20.749
458.23	21.588
458.43	21.104
458.64	21.357
458.84	19.937
459.04	20.908
459.24	20.509
459.44	21.064
459.64	20.618
459.84	21.142
460.04	20.847
460.24	20.670
460.44	20.517
460.64	21.021
460.84	20.736
461.04	20.779
461.24	20.958
461.45	21.058
461.65	20.976
461.85	21.199
462.05	21.084
462.25	20.948
462.45	20.704
462.65	20.821
462.85	20.165
463.05	20.736
463.25	20.415
463.45	20.613
463.65	20.259
463.85	20.204
464.05	19.638
464.25	20.311
464.45	20.168
464.65	20.082
464.85	19.868
465.05	20.033
465.26	19.647
465.46	20.002
465.66	19.422
465.86	20.036
466.06	19.341
466.26	19.767
466.46	19.208
466.66	19.276
466.86	19.175
467.06	19.317
467.26	18.896
467.46	19.432
467.66	19.173
467.86	19.335
468.06	19.210
468.26	19.633
468.46	19.664
468.66	19.901
468.86	19.374
469.06	19.165
469.26	18.603
469.46	19.322
469.66	19.317
469.86	19.034
470.06	18.493
470.26	18.985
470.46	18.561
470.66	19.140
470.86	18.834
471.06	18.702
471.26	18.257
471.46	18.964
471.66	18.536
471.86	18.721
472.06	18.908
472.26	18.753
472.46	18.673
472.66	18.223
472.86	17.982
473.06	18.343
473.26	18.389
473.46	18.583
473.66	18.530
473.86	17.910
474.06	17.783
474.26	18.053
474.46	18.180
474.66	18.365
474.86	18.030
475.06	18.276
475.26	17.730
475.46	18.158
475.66	17.874
475.86	18.324
476.06	18.424
476.26	18.218
476.46	17.507
476.66	17.956
476.86	17.913
477.06	18.358
477.26	17.532
477.46	18.191
477.65	18.025
477.85	17.831
478.05	18.131
478.25	18.215
478.45	17.548
478.65	18.538
478.85	18.126
479.05	18.026
479.25	17.609
479.45	17.935
479.65	17.873
479.85	18.136
480.05	17.826
480.25	17.655
480.45	17.224
480.65	18.028
480.85	17.900
481.05	17.849
481.25	17.589
481.44	18.031
481.64	17.811
481.84	17.989
482.04	17.841
482.24	17.799
482.44	17.346
482.64	17.456
482.84	17.595
483.04	17.549
483.24	17.597
483.44	17.272
483.64	16.937
483.84	17.241
484.04	17.529
484.23	17.722
484.43	17.936
484.63	18.158
484.83	18.785
485.03	19.243
485.23	19.143
485.43	18.982
485.63	18.514
485.83	18.437
486.03	18.384
486.23	18.410
486.42	18.280
486.62	18.128
486.82	17.584
487.02	17.491
487.22	17.197
487.42	17.131
487.62	17.181
487.82	17.315
488.02	17.577
488.22	17.164
488.41	17.334
488.61	17.466
488.81	17.387
489.01	17.437
489.21	17.759
489.41	17.656
489.61	17.673
489.81	17.521
490.01	17.625
490.20	17.421
490.40	17.398
490.60	17.233
490.80	16.864
491.00	16.461
491.20	16.562
491.40	16.595
491.60	16.278
491.79	16.518
491.99	16.510
492.19	16.410
492.39	16.501
492.59	16.587
492.79	16.291
492.99	16.750
493.19	16.648
493.38	17.039
493.58	17.159
493.78	16.917
493.98	16.813
494.18	16.733
494.38	16.797
494.58	16.277
494.77	15.930
494.97	16.193
495.17	16.151
495.37	15.858
495.57	15.760
495.77	15.669
495.96	15.486
496.16	15.667
496.36	15.449
496.56	15.469
496.76	14.873
496.96	15.430
497.15	15.174
497.35	15.134
497.55	15.143
497.75	15.251
497.95	14.978
498.15	15.346
498.34	15.085
498.54	15.352
498.74	15.255
498.94	15.185
499.14	15.287
499.34	15.110
499.53	15.126
499.73	15.283
499.93	14.989
500.13	14.646
500.33	14.551
500.52	14.859
500.72	14.512
500.92	14.681
501.12	14.733
501.32	14.976
501.52	14.888
501.71	14.454
501.91	14.097
502.11	14.695
502.31	14.104
502.51	14.619
502.70	14.096
502.90	14.443
503.10	14.131
503.30	14.491
503.50	14.526
503.69	14.617
503.89	14.108
504.09	14.569
504.29	14.073
504.48	14.709
504.68	14.287
504.88	14.147
505.08	13.787
505.28	13.884
505.47	14.328
505.67	14.129
505.87	14.472
506.07	14.735
506.27	14.214
506.46	14.380
506.66	13.844
506.86	14.883
507.06	14.323
507.25	14.208
507.45	13.862
507.65	14.374
507.85	14.039
508.04	14.255
508.24	14.422
508.44	14.816
508.64	14.438
508.83	14.669
509.03	13.956
509.23	14.368
509.43	14.515
509.63	14.448
509.82	14.644
510.02	14.861
510.22	15.159
510.42	15.051
510.61	15.012
510.81	14.817
511.01	14.831
511.21	15.049
511.40	14.767
511.60	15.234
511.80	15.170
511.99	15.153
512.19	15.145
512.39	15.469
512.59	15.433
512.78	15.736
512.98	15.532
513.18	15.680
513.38	15.669
513.57	16.133
513.77	16.046
513.97	15.829
514.17	16.339
514.36	16.431
514.56	16.353
514.76	16.500
514.95	16.667
515.15	16.464
515.35	16.997
515.55	16.710
515.74	16.929
515.94	17.153
516.14	17.143
516.33	17.209
516.53	17.355
516.73	17.503
516.93	17.298
517.12	17.678
517.32	17.634
517.52	17.854
517.71	17.928
517.91	18.071
518.11	18.361
518.30	18.255
518.50	18.612
518.70	18.115
518.90	18.808
519.09	18.789
519.29	19.004
519.49	19.442
519.68	18.928
519.88	19.551
520.08	19.636
520.27	19.585
520.47	19.636
520.67	20.009
520.86	20.185
521.06	20.865
521.26	20.825
521.45	20.607
521.65	20.375
521.85	20.643
522.04	21.083
522.24	21.045
522.44	21.187
522.63	21.810
522.83	21.691
523.03	22.051
523.22	21.587
523.42	21.907
523.62	22.101
523.81	22.036
524.01	22.416
524.21	22.753
524.40	22.317
524.60	22.861
524.80	22.700
524.99	22.606
525.19	22.991
525.39	22.900
525.58	23.228
525.78	22.964
525.98	23.315
526.17	23.501
526.37	23.553
526.57	23.535
526.76	23.856
526.96	23.846
527.15	23.762
527.35	23.828
527.55	24.066
527.74	24.318
527.94	24.018
528.14	23.621
528.33	23.882
528.53	23.834
528.72	24.444
528.92	24.170
529.12	24.833
529.31	25.034
529.51	25.101
529.71	25.106
529.90	25.581
530.10	25.518
530.29	25.613
530.49	25.695
530.69	26.221
530.88	25.691
531.08	25.633
531.28	25.677
531.47	25.284
531.67	25.460
531.86	25.418
532.06	25.674
532.26	25.431
532.45	25.406
532.65	25.163
532.84	25.480
533.04	25.224
533.24	25.259
533.43	25.380
533.63	25.828
533.82	25.693
534.02	26.079
534.22	25.973
534.41	25.997
534.61	26.215
534.80	26.247
535.00	26.270
535.19	26.207
535.39	26.060
535.59	26.360
535.78	26.617
535.98	26.159
536.17	25.887
536.37	25.738
536.57	25.909
536.76	26.243
536.96	26.180
537.15	26.250
537.35	25.804
537.54	26.096
537.74	26.016
537.93	26.429
538.13	26.328
538.33	26.447
538.52	26.748
538.72	26.638
538.91	26.557
539.11	26.499
539.30	26.469
539.50	26.117
539.70	26.555
539.89	26.318
540.09	26.193
540.28	26.227
540.48	25.892
540.67	25.851
540.87	26.081
541.06	25.719
541.26	25.866
541.45	26.163
541.65	26.354
541.85	26.494
542.04	26.510
542.24	26.797
542.43	27.002
542.63	26.891
542.82	26.736
543.02	26.946
543.21	27.225
543.41	27.289
543.60	27.449
543.80	27.538
543.99	27.179
544.19	27.022
544.38	27.332
544.58	26.853
544.77	26.759
544.97	26.898
545.16	27.427
545.36	27.235
545.56	27.054
545.75	26.847
545.95	26.972
546.14	26.691
546.34	26.824
546.53	26.753
546.73	26.664
546.92	26.901
547.12	26.888
547.31	27.129
547.51	27.124
547.70	27.581
547.90	27.207
548.09	27.320
548.29	27.633
548.48	27.454
548.68	27.809
548.87	27.451
549.07	27.731
549.26	27.017
549.46	27.300
549.65	27.545
549.84	27.621
550.04	28.013
550.23	27.533
550.43	27.310
550.62	27.426
550.82	27.459
551.01	27.059
551.21	27.952
551.40	27.760
551.60	27.631
551.79	27.691
551.99	27.700
552.18	27.497
552.38	26.985
552.57	27.748
552.77	27.300
552.96	27.391
553.16	27.744
553.35	27.521
553.54	27.889
553.74	27.822
553.93	27.429
554.13	28.368
554.32	27.594
554.52	27.505
554.71	28.296
554.91	27.406
555.10	28.076
555.29	28.071
555.49	28.089
555.68	28.146
555.88	27.610
556.07	27.791
556.27	27.708
556.46	28.085
556.66	28.243
556.85	27.418
557.04	27.838
557.24	28.016
557.43	28.407
557.63	28.017
557.82	27.647
558.02	27.987
558.21	27.968
558.40	27.852
558.60	28.292
558.79	28.432
558.99	28.158
559.18	27.897
559.38	27.975
559.57	27.865
559.76	28.031
559.96	28.498
560.15	28.029
560.35	27.707
560.54	27.990
560.73	27.944
560.93	27.777
561.12	28.644
561.32	28.323
561.51	28.209
561.70	27.488
561.90	27.962
562.09	28.228
562.29	27.656
562.48	27.510
562.67	28.024
562.87	27.673
563.06	27.789
563.26	28.158
563.45	27.767
563.64	27.652
563.84	27.914
564.03	27.901
564.23	27.252
564.42	28.038
564.61	27.084
564.81	26.845
565.00	27.495
565.20	27.041
565.39	27.721
565.58	27.576
565.78	27.336
565.97	27.395
566.16	27.920
566.36	27.930
566.55	27.564
566.74	28.226
566.94	27.449
567.13	27.318
567.33	27.621
567.52	27.914
567.71	27.472
567.91	27.933
568.10	27.271
568.29	27.568
568.49	27.136
568.68	27.517
568.87	27.169
569.07	27.334
569.26	27.297
569.45	26.716
569.65	27.207
569.84	26.883
570.04	26.658
570.23	27.166
570.42	27.241
570.62	26.307
570.81	26.931
571.00	27.011
571.20	26.535
571.39	26.792
571.58	26.459
571.78	26.898
571.97	26.554
572.16	26.605
572.36	26.392
572.55	26.403
572.74	26.125
572.94	26.670
573.13	26.738
573.32	26.193
573.51	26.299
573.71	26.628
573.90	26.800
574.09	26.624
574.29	26.842
574.48	26.062
574.67	26.273
574.87	26.249
575.06	25.966
575.25	26.054
575.45	26.373
575.64	26.578
575.83	25.637
576.03	26.343
576.22	26.477
576.41	25.632
576.60	25.750
576.80	25.882
576.99	26.012
577.18	26.010
577.38	25.600
577.57	25.832
577.76	25.744
577.95	26.066
578.15	26.099
578.34	26.329
578.53	25.540
578.73	25.991
578.92	25.895
579.11	26.008
579.30	26.163
579.50	25.781
579.69	24.805
579.88	25.873
580.08	25.161
580.27	26.000
580.46	25.582
580.65	25.858
580.85	24.969
581.04	25.916
581.23	25.269
581.42	25.355
581.62	25.601
581.81	25.961
582.00	25.578
582.19	25.379
582.39	25.766
582.58	25.854
582.77	25.300
582.96	26.334
583.16	25.454
583.35	25.515
583.54	25.234
583.73	26.085
583.93	25.387
584.12	25.749
584.31	25.787
584.50	25.362
584.70	26.019
584.89	26.098
585.08	25.484
585.27	26.929
585.47	25.592
585.66	25.621
585.85	26.045
586.04	26.066
586.24	25.980
586.43	25.805
586.62	26.093
586.81	26.401
587.00	25.736
587.20	26.629
587.39	25.858
587.58	26.243
587.77	26.013
587.97	25.812
588.16	26.311
588.35	25.890
588.54	26.587
588.73	27.221
588.93	25.951
589.12	26.854
589.31	26.618
589.50	26.558
589.69	26.702
589.89	26.920
590.08	26.852
590.27	27.240
590.46	26.979
590.65	27.101
590.85	27.201
591.04	27.661
591.23	27.632
591.42	27.630
591.61	27.591
591.81	27.422
592.00	27.982
592.19	27.610
592.38	27.908
592.57	27.898
592.77	27.653
592.96	27.913
593.15	28.737
593.34	28.516
593.53	28.119
593.72	28.596
593.92	27.969
594.11	28.890
594.30	28.179
594.49	28.820
594.68	29.517
594.87	29.431
595.07	29.092
595.26	29.328
595.45	29.393
595.64	29.439
595.83	29.037
596.02	30.100
596.22	29.777
596.41	29.679
596.60	30.097
596.79	29.887
596.98	29.787
597.17	30.377
597.37	30.268
597.56	30.629
597.75	30.543
597.94	30.567
598.13	30.637
598.32	30.990
598.51	31.157
598.71	31.376
598.90	30.621
599.09	31.617
599.28	31.738
599.47	31.525
599.66	31.836
599.85	31.430
600.05	32.077
600.24	31.670
600.43	31.964
600.62	32.144
600.81	32.150
601.00	32.032
601.19	32.786
601.38	32.757
601.58	32.520
601.77	32.532
601.96	33.021
602.15	32.985
602.34	33.481
602.53	32.988
602.72	33.005
602.91	32.854
603.10	33.134
603.30	33.579
603.49	33.943
603.68	33.785
603.87	33.811
604.06	32.959
604.25	34.245
604.44	34.420
604.63	33.580
604.82	34.372
605.01	34.932
605.21	34.820
605.40	34.606
605.59	34.843
605.78	34.805
605.97	34.775
606.16	35.417
606.35	34.869
606.54	35.077
606.73	35.123
606.92	35.308
607.11	34.707
607.30	35.305
607.50	35.430
607.69	34.981
607.88	35.890
608.07	35.045
608.26	35.225
608.45	35.548
608.64	35.590
608.83	34.926
609.02	36.024
609.21	35.565
609.40	35.917
609.59	35.771
609.78	35.712
609.97	36.370
610.16	35.953
610.35	35.276
610.55	36.068
610.74	36.375
610.93	35.757
611.12	36.140
611.31	36.019
611.50	35.570
611.69	36.361
611.88	36.032
612.07	37.234
612.26	35.898
612.45	36.613
612.64	35.402
612.83	36.226
613.02	35.949
613.21	36.208
613.40	36.254
613.59	36.207
613.78	35.675
613.97	36.224
614.16	35.981
614.35	36.195
614.54	35.497
614.73	35.783
614.92	36.535
615.11	35.862
615.30	36.099
615.49	37.010
615.68	36.595
615.87	36.536
616.07	35.029
616.26	35.518
616.45	36.360
616.64	36.410
616.83	36.552
617.02	36.396
617.21	34.746
617.40	35.745
617.59	36.230
617.78	37.114
617.97	35.199
618.16	35.914
618.35	36.074
618.54	36.444
618.73	35.386
618.92	36.237
619.11	35.769
619.30	36.401
619.49	36.624
619.68	36.473
619.86	36.113
620.05	35.473
620.24	35.660
620.43	36.247
620.62	35.239
620.81	36.719
621.00	36.413
621.19	36.382
621.38	35.985
621.57	36.864
621.76	35.570
621.95	36.465
622.14	35.524
622.33	36.849
622.52	36.138
622.71	35.651
622.90	36.074
623.09	36.059
623.28	35.815
623.47	35.750
623.66	35.851
623.85	35.776
624.04	35.288
624.23	35.757
624.42	36.780
624.61	35.902
624.80	34.888
624.99	35.700
625.18	36.107
625.36	35.765
625.55	35.920
625.74	35.640
625.93	36.075
626.12	35.344
626.31	36.104
626.50	36.155
626.69	35.640
626.88	35.387
627.07	36.193
627.26	35.730
627.45	35.477
627.64	35.889
627.83	35.503
628.02	36.489
628.20	35.933
628.39	35.813
628.58	36.337
628.77	36.425
628.96	35.110
629.15	35.289
629.34	35.410
629.53	35.788
629.72	36.237
629.91	36.042
630.10	35.329
630.29	35.527
630.47	35.394
630.66	35.564
630.85	35.334
631.04	36.085
631.23	35.618
631.42	35.295
631.61	35.324
631.80	35.175
631.99	35.975
632.18	35.271
632.36	35.073
632.55	36.294
632.74	35.105
632.93	35.424
633.12	35.189
633.31	35.790
633.50	35.356
633.69	35.468
633.88	35.241
634.06	36.001
634.25	34.313
634.44	36.074
634.63	35.515
634.82	36.363
635.01	35.310
635.20	36.096
635.39	35.517
635.57	35.159
635.76	35.292
635.95	35.382
636.14	34.926
636.33	35.162
636.52	34.565
636.71	35.961
636.89	34.940
637.08	34.722
637.27	34.816
637.46	35.562
637.65	34.964
637.84	34.792
638.03	34.895
638.21	34.329
638.40	36.045
638.59	35.354
638.78	35.206
638.97	35.766
639.16	34.384
639.34	34.812
639.53	34.641
639.72	34.537
639.91	35.004
640.10	35.145
640.29	35.633
640.47	35.055
640.66	35.466
640.85	35.536
641.04	34.112
641.23	34.530
641.42	34.658
641.60	34.520
641.79	35.032
641.98	35.454
642.17	34.574
642.36	35.854
642.54	33.639
642.73	35.635
642.92	34.514
643.11	35.109
643.30	34.235
643.49	35.393
643.67	33.368
643.86	36.198
644.05	34.598
644.24	34.639
644.43	33.738
644.61	34.774
644.80	34.826
644.99	34.626
645.18	34.473
645.37	34.582
645.55	34.494
645.74	34.537
645.93	34.201
646.12	35.091
646.31	34.825
646.49	35.129
646.68	36.778
646.87	34.016
647.06	33.655
647.24	33.975
647.43	33.108
647.62	35.611
647.81	33.755
648.00	35.275
648.18	33.599
648.37	35.242
648.56	34.092
648.75	34.801
648.93	34.373
649.12	33.888
649.31	32.934
649.50	35.451
649.68	34.425
649.87	34.532
650.06	33.798
650.25	33.963
650.43	34.755
650.62	34.646
650.81	33.743
651.00	33.719
651.18	34.543
651.37	33.969
651.56	33.222
651.75	34.684
651.93	34.397
652.12	34.501
652.31	33.516
652.50	34.391
652.68	34.865
652.87	34.380
653.06	32.954
653.25	34.199
653.43	33.003
653.62	34.403
653.81	33.710
654.00	34.314
654.18	34.002
654.37	34.336
654.56	32.845
654.74	33.570
654.93	34.069
655.12	33.733
655.31	32.544
655.49	33.353
655.68	30.791
655.87	32.842
656.05	31.391
656.24	32.584
656.43	32.191
656.62	33.407
656.80	32.623
656.99	33.046
657.18	31.291
657.36	31.790
657.55	31.273
657.74	32.359
657.93	32.658
658.11	32.879
658.30	32.003
658.49	31.901
658.67	31.297
658.86	31.779
659.05	30.629
659.23	31.624
659.42	31.309
659.61	31.928
659.79	31.226
659.98	31.256
660.17	31.115
660.35	31.503
660.54	30.816
660.73	31.125
660.91	31.299
661.10	30.805
661.29	29.426
661.47	30.562
661.66	29.859
661.85	29.823
662.03	29.849
662.22	29.861
662.41	28.288
662.59	29.375
662.78	27.707
662.97	27.535
663.15	27.155
663.34	27.308
663.53	27.661
663.71	28.285
663.90	27.090
664.09	28.071
664.27	26.263
664.46	27.183
664.65	25.834
664.83	26.491
665.02	26.265
665.21	25.559
665.39	23.799
665.58	25.912
665.77	24.508
665.95	26.364
666.14	23.254
666.32	26.210
666.51	23.924
666.70	24.829
666.88	23.375
667.07	25.193
667.26	22.092
667.44	23.642
667.63	23.235
667.81	23.346
668.00	24.049
668.19	25.886
668.37	22.823
668.56	24.812
668.75	22.368
668.93	25.211
669.12	23.291
669.30	24.818
669.49	23.939
669.68	24.247
669.86	24.589
670.05	23.861
670.23	22.088
670.42	23.425
670.61	23.819
670.79	24.044
670.98	22.368
671.16	23.136
671.35	20.773
671.54	22.792
671.72	21.674
671.91	24.144
672.09	21.221
672.28	24.580
672.46	23.654
672.65	24.139
672.84	24.391
673.02	24.216
673.21	19.455
673.39	23.173
673.58	22.966
673.77	23.021
673.95	21.474
674.14	24.991
674.32	20.996
674.51	24.212
674.69	22.392
674.88	23.668
675.07	22.742
675.25	25.435
675.44	21.527
675.62	23.023
675.81	21.142
675.99	26.485
676.18	23.002
676.36	23.579
676.55	22.550
676.74	25.437
676.92	23.545
677.11	24.144
677.29	22.428
677.48	25.269
677.66	24.322
677.85	23.795
678.03	23.359
678.22	24.957
678.40	23.810
678.59	22.994
678.78	22.391
678.96	23.803
679.15	22.973
679.33	26.890
679.52	25.858
679.70	26.076
679.89	24.254
680.07	26.225
680.26	24.825
680.44	26.330
680.63	25.834
680.81	25.879
681.00	24.578
681.18	26.844
681.37	26.133
681.55	27.305
681.74	26.998
681.92	27.482
682.11	27.567
682.29	26.567
682.48	27.019
682.66	27.596
682.85	27.121
683.03	27.337
683.22	27.827
683.40	29.390
683.59	27.496
683.77	28.159
683.96	26.974
684.14	29.440
684.33	25.203
684.51	31.408
684.70	27.899
684.88	30.743
685.07	29.015
685.25	30.554
685.44	26.071
685.62	30.019
685.81	29.281
685.99	31.576
686.18	28.651
686.36	30.831
686.55	27.686
686.73	31.443
686.92	30.160
687.10	33.198
687.29	31.984
687.47	33.486
687.65	33.418
687.84	32.548
688.02	34.258
688.21	33.841
688.39	32.233
688.58	35.172
688.76	32.801
688.95	32.794
689.13	32.749
689.32	35.763
689.50	34.743
689.68	35.476
689.87	35.661
690.05	35.652
690.24	34.898
690.42	37.251
690.61	35.994
690.79	38.041
690.98	38.330
691.16	37.460
691.34	34.298
691.53	38.747
691.71	36.266
691.90	39.203
692.08	36.981
692.27	40.261
692.45	40.910
692.63	40.197
692.82	39.331
693.00	40.855
693.19	37.292
693.37	41.870
693.56	39.496
693.74	41.346
693.92	38.412
694.11	43.432
694.29	41.513
694.48	43.307
694.66	40.975
694.84	44.979
695.03	41.262
695.21	44.523
695.40	43.181
695.58	45.229
695.76	43.030
695.95	45.724
696.13	43.758
696.32	44.974
696.50	46.150
696.68	46.446
696.87	44.766
697.05	45.983
697.24	47.398
697.42	47.221
697.60	44.806
697.79	47.797
697.97	45.518
698.16	46.568
698.34	46.377
698.52	47.967
698.71	46.796
698.89	47.638
699.07	47.492
699.26	47.431
699.44	47.218
699.63	49.293
699.81	48.776
699.99	48.310
700.18	48.717
700.36	48.926
700.54	49.014
700.73	47.850
700.91	49.785
701.09	49.110
701.28	49.343
701.46	50.134
701.64	49.016
701.83	50.381
702.01	47.866
702.20	49.671
702.38	50.056
702.56	51.595
702.75	49.212
702.93	51.141
703.11	49.407
703.30	50.832
703.48	49.630
703.66	52.083
703.85	48.092
704.03	54.464
704.21	48.875
704.40	52.158
704.58	51.175
704.76	52.341
704.95	49.122
705.13	53.597
705.31	48.189
705.50	53.997
705.68	50.442
705.86	52.042
706.04	49.833
706.23	51.224
706.41	51.952
706.59	50.954
706.78	48.615
706.96	51.013
707.14	51.081
707.33	51.608
707.51	52.257
707.69	51.850
707.88	50.476
708.06	53.198
708.24	53.104
708.42	51.943
708.61	49.086
708.79	53.024
708.97	51.734
709.16	54.770
709.34	52.785
709.52	53.634
709.71	52.369
709.89	52.877
710.07	50.624
710.25	54.987
710.44	52.789
710.62	52.559
710.80	51.634
710.98	54.829
711.17	52.356
711.35	52.731
711.53	51.516
711.72	52.523
711.90	52.428
712.08	54.283
712.26	52.219
712.45	53.881
712.63	54.038
712.81	52.935
712.99	53.027
713.18	52.099
713.36	52.665
713.54	54.437
713.72	49.091
713.91	54.265
714.09	53.391
714.27	51.888
714.45	53.942
714.64	55.398
714.82	52.490
715.00	54.938
715.18	53.920
715.37	53.567
715.55	51.907
715.73	53.610
715.91	53.140
716.10	52.481
716.28	51.349
716.46	54.169
716.64	54.029
716.83	54.483
717.01	51.653
717.19	54.262
717.37	53.455
717.55	55.476
717.74	51.711
717.92	53.001
718.10	51.398
718.28	54.657
718.47	52.084
718.65	53.692
718.83	55.017
719.01	54.992
719.19	50.832
719.38	53.665
719.56	52.164
719.74	53.244
719.92	50.634
720.10	51.472
720.29	49.742
720.47	54.256
720.65	53.003
720.83	53.023
721.01	51.322
721.20	53.879
721.38	52.582
721.56	55.736
721.74	50.891
721.92	53.734
722.11	51.517
722.29	54.156
722.47	51.873
722.65	54.677
722.83	55.429
723.01	51.987
723.20	52.646
723.38	54.128
723.56	52.206
723.74	54.724
723.92	53.747
724.10	55.092
724.29	50.695
724.47	53.012
724.65	53.080
724.83	55.250
725.01	52.590
725.19	53.043
725.38	53.633
725.56	55.033
725.74	51.625
725.92	53.382
726.10	50.401
726.28	54.537
726.46	51.549
726.65	54.613
726.83	50.270
727.01	54.128
727.19	53.432
727.37	55.599
727.55	51.364
727.73	53.201
727.92	51.776
728.10	56.247
728.28	53.075
728.46	53.254
728.64	53.380
728.82	54.580
729.00	52.334
729.19	54.273
729.37	53.179
729.55	52.913
729.73	49.701
729.91	53.258
730.09	51.350
730.27	52.113
730.45	49.467
730.63	55.885
730.82	51.789
731.00	55.630
731.18	51.808
731.36	53.811
731.54	54.067
731.72	55.322
731.90	52.962
732.08	54.873
732.26	51.024
732.45	54.936
732.63	52.549
732.81	52.814
732.99	52.445
733.17	56.991
733.35	52.266
733.53	53.164
733.71	54.495
733.89	54.195
734.07	52.751
734.25	55.127
734.44	51.780
734.62	52.767
734.80	53.258
734.98	57.884
735.16	54.311
735.34	56.048
735.52	55.317
735.70	54.295
735.88	55.518
736.06	54.383
736.24	52.849
736.42	54.222
736.60	53.867
736.78	54.552
736.97	53.649
737.15	55.144
737.33	51.795
737.51	52.096
737.69	54.017
737.87	56.199
738.05	54.758
738.23	53.929
738.41	52.350
738.59	54.724
738.77	52.085
738.95	56.607
739.13	53.773
739.31	55.453
739.49	52.745
739.67	56.562
739.85	55.380
740.03	56.680
740.21	54.724
740.39	54.961
740.57	55.230
740.75	54.708
740.93	52.369
741.11	54.621
741.30	53.647
741.48	54.627
741.66	53.746
741.84	55.684
742.02	51.267
742.20	53.737
742.38	55.316
742.56	56.010
742.74	51.853
742.92	53.884
743.10	51.416
743.28	55.786
743.46	52.578
743.64	54.346
743.82	51.893
744.00	56.814
744.18	54.540
744.36	53.760
744.54	51.910
744.72	56.044
744.90	52.306
745.08	54.369
745.26	51.596
745.44	54.834
745.62	49.166
745.80	53.141
745.98	51.146
746.16	54.223
746.34	51.758
746.52	54.885
746.70	52.603
746.87	53.350
747.05	54.954
747.23	55.795
747.41	53.338
747.59	54.088
747.77	52.797
747.95	52.978
748.13	55.219
748.31	56.384
748.49	51.590
748.67	54.303
748.85	53.511
749.03	53.199
749.21	55.738
749.39	57.060
749.57	50.994
749.75	55.502
749.93	55.895
750.11	54.545
750.29	53.372
750.47	53.069
750.65	55.133
750.83	53.184
751.01	50.626
751.18	51.883
751.36	50.482
751.54	54.503
751.72	52.966
751.90	54.388
752.08	49.735
752.26	50.000
752.44	53.866
752.62	52.071
752.80	55.153
752.98	55.059
753.16	53.023
753.34	56.135
753.52	53.065
753.69	56.986
753.87	55.431
754.05	52.080
754.23	52.911
754.41	54.296
754.59	52.828
754.77	54.617
754.95	54.386
755.13	52.094
755.31	49.889
755.49	54.991
755.66	51.760
755.84	54.263
756.02	51.794
756.20	55.036
756.38	53.452
756.56	55.721
756.74	49.904
756.92	55.468
757.10	51.747
757.28	56.798
757.45	54.961
757.63	54.155
757.81	50.860
757.99	54.086
758.17	54.551
758.35	53.746
758.53	52.129
758.71	51.905
758.88	48.529
759.06	51.244
759.24	51.938
759.42	52.753
759.60	49.546
759.78	52.266
759.96	48.841
760.13	50.477
760.31	45.303
760.49	48.769
760.67	40.464
760.85	48.951
761.03	42.742
761.21	45.377
761.38	41.697
761.56	47.257
761.74	44.376
761.92	50.253
762.10	42.116
762.28	47.735
762.46	40.024
762.63	45.512
762.81	44.065
762.99	46.430
763.17	45.469
763.35	46.881
763.53	43.412
763.70	50.189
763.88	49.498
764.06	49.214
764.24	47.835
764.42	51.235
764.60	49.443
764.77	49.952
764.95	50.517
765.13	52.059
765.31	49.191
765.49	52.383
765.66	47.044
765.84	52.129
766.02	47.950
766.20	51.722
766.38	48.084
766.56	50.460
766.73	47.676
766.91	49.934
767.09	50.457
767.27	51.634
767.45	46.987
767.62	51.829
767.80	48.764
767.98	48.775
768.16	49.245
768.33	52.175
768.51	49.259
768.69	50.332
768.87	48.631
769.05	48.870
769.22	46.330
769.40	50.555
769.58	49.471
769.76	54.117
769.94	52.247
770.11	52.614
770.29	51.877
770.47	52.911
770.65	46.073
770.82	55.330
771.00	47.630
771.18	53.968
771.36	47.375
771.53	49.594
771.71	48.254
771.89	53.624
772.07	51.489
772.25	51.755
772.42	48.607
772.60	52.415
772.78	48.950
772.96	56.330
773.13	47.112
773.31	53.095
773.49	47.156
773.67	47.032
773.84	48.510
774.02	54.537
774.20	53.938
774.37	53.464
774.55	48.028
774.73	51.440
774.91	48.232
775.08	53.282
775.26	45.717
775.44	54.124
775.62	46.892
775.79	49.571
775.97	47.556
776.15	51.165
776.32	45.582
776.50	51.391
776.68	50.356
776.86	53.011
777.03	43.695
777.21	53.359
777.39	48.581
777.56	54.497
777.74	42.808
777.92	50.264
778.10	49.449
778.27	50.048
778.45	48.390
778.63	51.580
778.80	47.435
778.98	50.632
779.16	53.846
779.34	53.651
779.51	46.072
779.69	52.944
779.87	45.400
780.04	50.405
780.22	43.694
780.40	51.793
780.57	48.402
780.75	51.459
780.93	57.135
781.10	51.535
781.28	51.065
781.46	44.948
781.63	45.609
781.81	51.028
781.99	42.667
782.16	45.335
782.34	45.173
782.52	51.083
782.69	49.375
782.87	49.572
783.05	46.882
783.22	51.467
783.40	42.881
783.58	48.901
783.75	46.323
783.93	50.000
784.11	46.336
784.28	51.124
784.46	49.559
784.64	53.764
784.81	46.167
784.99	55.376
785.17	39.830
785.34	49.122
785.52	45.327
785.69	48.374
785.87	41.867
786.05	44.674
786.22	41.950
786.40	52.491
786.58	46.346
786.75	51.959
786.93	42.700
787.11	48.866
787.28	44.111
787.46	53.249
787.63	48.249
787.81	49.281
787.99	46.631
788.16	46.684
788.34	43.335
788.51	48.984
788.69	48.345
788.87	48.698
789.04	42.323
789.22	49.976
789.39	46.500
789.57	44.073
789.75	41.182
789.92	47.253
790.10	45.446
790.27	47.024
790.45	44.632
790.63	50.593
790.80	42.628
790.98	49.380
791.15	43.323
791.33	44.562
791.51	43.213
791.68	49.886
791.86	50.028
792.03	49.261
792.21	43.622
792.39	47.944
792.56	47.905
792.74	47.335
792.91	40.045
793.09	47.188
793.26	37.354
793.44	54.540
793.62	36.293
793.79	45.006
793.97	45.657
794.14	39.646
794.32	41.744
794.49	52.813
794.67	38.659
794.84	44.580
795.02	42.512
795.20	49.677
795.37	41.230
795.55	50.858
795.72	46.683
795.90	47.834
796.07	47.331
796.25	45.512
796.42	44.211
796.60	45.687
796.77	41.003
796.95	43.211
797.13	38.898
797.30	45.625
797.48	43.369
797.65	43.245
797.83	40.245
798.00	47.665
798.18	41.263
798.35	47.365
798.53	47.026
798.70	44.476
798.88	39.901
799.05	46.033
799.23	45.407
799.40	48.002
799.58	44.961
799.75	46.057
799.93	40.946
800.10	46.829
800.28	47.131
800.45	46.350
800.63	38.742
800.80	45.675
800.98	42.441
801.15	46.984
801.33	42.494
801.50	43.777
801.68	40.147
801.85	39.766
802.03	41.901
802.20	41.986
802.38	44.725
802.55	43.774
802.73	45.302
802.90	41.823
803.08	42.017
803.25	46.385
803.43	46.286
803.60	45.691
803.78	36.344
803.95	47.215
804.13	40.133
804.30	41.526
804.48	40.631
804.65	45.423
804.83	41.946
805.00	42.877
805.17	40.164
805.35	42.521
805.52	34.455
805.70	44.100
805.87	44.116
806.05	45.300
806.22	41.088
806.40	40.955
806.57	43.611
806.75	48.458
806.92	48.525
807.09	48.019
807.27	41.111
807.44	47.109
807.62	41.844
807.79	41.397
807.97	41.323
808.14	43.875
808.31	40.604
808.49	42.050
808.66	46.405
808.84	39.630
809.01	42.426
809.19	47.910
809.36	50.572
809.53	45.121
809.71	34.969
809.88	43.861
810.06	45.500
810.23	42.972
810.41	42.636
810.58	42.669
810.75	41.811
810.93	46.338
811.10	39.394
811.28	43.121
811.45	35.181
811.62	42.133
811.80	41.163
811.97	41.450
812.15	43.366
812.32	42.662
812.49	38.376
812.67	44.374
812.84	38.855
813.02	52.392
813.19	35.860
813.36	45.008
813.54	36.683
813.71	45.578
813.89	40.920
814.06	39.833
814.23	38.939
814.41	31.086
814.58	36.174
814.75	42.272
814.93	35.204
815.10	41.413
815.28	30.866
815.45	37.427
815.62	38.099
815.80	40.572
815.97	31.007
816.14	36.972
816.32	41.443
816.49	29.663
816.66	39.439
816.84	33.198
817.01	37.313
817.18	42.154
817.36	42.603
817.53	40.063
817.71	32.937
817.88	41.428
818.05	30.511
818.23	38.925
818.40	37.193
818.57	46.067
818.75	32.122
818.92	35.081
819.09	37.196
819.27	40.909
819.44	37.519
819.61	33.285
819.79	34.935
819.96	45.216
820.13	35.438
820.31	42.693
820.48	43.843
820.65	36.755
820.82	39.827
821.00	42.299
821.17	34.090
821.34	44.983
821.52	43.381
821.69	44.750
821.86	40.621
822.04	47.482
822.21	46.678
822.38	50.257
822.56	47.752
822.73	49.967
822.90	49.829
823.07	52.050
823.25	48.648
823.42	51.847
823.59	49.326
823.77	51.112
823.94	49.839
824.11	48.886
824.29	48.520
824.46	50.294
824.63	49.036
824.80	48.356
824.98	48.137
825.15	46.955
825.32	44.927
825.49	47.631
825.67	45.326
825.84	48.145
826.01	45.589
826.19	47.648
826.36	41.397
826.53	47.132
826.70	42.983
826.88	46.769
827.05	42.380
827.22	45.498
827.39	44.795
827.57	44.317
827.74	42.527
827.91	50.207
828.08	44.695
828.26	49.182
828.43	43.064
828.60	48.897
828.77	46.533
828.95	45.600
829.12	41.208
829.29	40.051
829.46	39.371
829.64	42.358
829.81	35.041
829.98	41.974
830.15	39.525
830.32	40.997
830.50	36.053
830.67	40.331
830.84	35.740
831.01	33.892
831.19	34.424
831.36	41.076
831.53	40.041
831.70	40.170
831.87	34.493
832.05	39.466
832.22	39.366
832.39	29.216
832.56	32.975
832.74	35.442
832.91	33.458
833.08	35.766
833.25	28.927
833.42	35.911
833.60	29.468
833.77	34.244
833.94	36.925
834.11	37.939
834.28	35.646
834.45	40.433
834.63	35.748
834.80	43.040
834.97	34.324
835.14	41.217
835.31	40.314
835.49	40.515
835.66	39.244
835.83	40.308
836.00	35.798
836.17	37.563
836.34	33.659
836.52	37.323
836.69	39.063
836.86	39.110
837.03	32.767
837.20	33.746
837.37	33.904
837.55	34.133
837.72	34.231
837.89	30.780
838.06	41.608
838.23	36.726
838.40	35.558
838.58	35.974
838.75	29.240
838.92	44.317
839.09	42.957
839.26	36.720
839.43	44.284
839.60	44.431
839.78	49.593
839.95	42.810
840.12	35.257
840.29	46.572
840.46	41.581
840.63	44.331
840.80	38.507
840.98	38.849
841.15	37.412
841.32	36.373
841.49	37.222
841.66	45.245
841.83	34.961
842.00	31.028
842.17	42.116
842.34	29.125
842.52	37.869
842.69	41.061
842.86	35.653
843.03	51.873
843.20	38.406
843.37	42.000
843.54	37.789
843.71	44.865
843.88	46.755
844.06	61.072
844.23	40.128
844.40	41.195
844.57	53.085
844.74	46.379
844.91	54.106
845.08	42.154
845.25	53.535
845.42	47.390
845.59	42.272
845.76	47.856
845.94	52.674
846.11	42.615
846.28	47.009
846.45	55.419
846.62	66.667
846.79	42.235
846.96	46.019
847.13	56.133
847.30	47.708
847.47	51.648
847.64	46.296
847.81	52.321
847.98	48.305
848.15	55.179
848.32	57.194
848.50	52.381
848.67	43.487
848.84	56.576
849.01	52.549
849.18	58.019
849.35	42.048
849.52	56.401
849.69	43.497
849.86	57.667
850.03	55.625
850.20	48.000
850.37	46.304
850.54	55.914
850.71	51.646
850.88	43.846
851.05	54.746
851.22	54.390
851.39	53.317
851.56	66.256
851.73	63.146
851.90	68.215
852.07	49.263
852.24	71.540
852.41	60.045
852.58	47.598
852.75	64.747
852.92	54.108
853.09	67.033
853.26	65.142
853.43	57.749
853.60	58.525
853.77	56.329
853.94	45.376
854.11	65.974
854.28	70.068
854.45	42.191
854.62	57.701
854.79	60.000
854.96	57.051
855.13	42.273
855.30	59.839
855.47	62.735
855.64	65.731
855.81	67.920
855.98	59.198
856.15	56.616
856.32	48.918
856.49	65.962
856.66	59.207
856.83	54.076
857.00	52.286
857.17	65.542
857.34	69.351
857.51	63.372
857.68	41.684
857.85	59.188
858.02	65.197
858.19	64.407
858.36	61.247
858.53	65.489
858.70	44.646
858.87	64.823
859.04	46.281
859.21	61.576
859.38	72.877
859.55	69.018
859.72	52.765
859.89	77.750
860.05	63.256
860.22	70.411
860.39	52.030
860.56	75.367
860.73	64.882
860.90	71.429
861.07	70.229
861.24	73.218
861.41	50.000
861.58	64.070
861.75	73.421
861.92	65.484
862.09	43.467
862.26	39.098
862.43	59.767
862.59	74.186
862.76	56.510
862.93	47.500
863.10	73.387
863.27	56.188
863.44	35.492
863.61	60.403
863.78	44.543
863.95	62.791
864.12	67.619
864.29	58.005
864.45	57.531
864.62	50.490
864.79	67.735
864.96	51.691
865.13	50.860
865.30	63.291
865.47	63.962
865.64	70.167
865.81	69.136
865.97	68.298
866.14	79.894
866.31	59.763
866.48	58.405
866.65	59.280
866.82	55.482
866.99	67.039
867.16	57.835
867.33	68.922
867.49	47.059
867.66	90.747
867.83	60.058
868.00	63.081
868.17	57.975
868.34	60.383
868.51	62.587
868.67	70.411
868.84	58.421
869.01	63.128
869.18	62.973
869.35	73.508
869.52	38.395
869.69	60.247
869.85	73.621
870.02	54.197
870.19	64.143
870.36	67.361
870.53	62.582
870.70	79.955
870.86	61.230
871.03	70.753
871.20	60.879
871.37	76.675
871.54	46.683
871.71	55.000
871.87	44.150
872.04	59.611
872.21	60.679
872.38	38.866
872.55	66.420
872.72	59.599
872.88	55.723
873.05	45.498
873.22	54.145
873.39	64.884
873.56	56.364
873.72	47.685
873.89	61.458
874.06	61.640
874.23	52.567
874.40	76.053
874.56	86.120
874.73	64.324
874.90	64.213
875.07	61.095
875.24	64.070
875.40	55.195
875.57	53.367
875.74	45.125
875.91	71.529
876.08	53.691
876.24	61.441
876.41	71.257
876.58	54.098
876.75	40.533
876.92	62.085
877.08	52.480
877.25	71.781
877.42	59.444
877.59	57.416
877.75	75.065
877.92	55.682
878.09	55.019
878.26	38.263
878.42	54.271
878.59	52.123
878.76	56.399
878.93	86.857
879.09	56.478
879.26	52.703
879.43	65.696
879.60	44.279
879.76	61.589
879.93	42.652
880.10	62.286
880.27	45.383
880.43	51.060
880.60	50.919
880.77	42.128
880.94	41.009
881.10	40.106
881.27	34.938
881.44	28.724
881.61	33.945
881.77	35.064
881.94	29.987
882.11	28.724
882.28	28.587
882.44	28.406
882.61	37.593
882.78	36.110
882.94	44.485
883.11	35.088
883.28	38.333
883.45	38.312
883.61	34.953
883.78	35.203
883.95	37.018
884.11	33.504
884.28	32.406
>>>>>End Processed Spectral Data<<<<<
