SpectraSuite Data File
++++++++++++++++++++++++++++++++++++
Date: Wed Sep 25 03:10:02 EST 2019
User: sgrac
Dark Spectrum Present: Yes
Reference Spectrum Present: Yes
Number of Sampled Component Spectra: 1
Spectrometers: USB4E01596
Integration Time (usec): 100000 (USB4E01596)
Spectra Averaged: 3 (USB4E01596)
Boxcar Smoothing: 0 (USB4E01596)
Correct for Electrical Dark: No (USB4E01596)
Strobe/Lamp Enabled: Yes (USB4E01596)
Correct for Detector Non-linearity: No (USB4E01596)
Correct for Stray Light: No (USB4E01596)
Number of Pixels in Processed Spectrum: 3648
>>>>>Begin Processed Spectral Data<<<<<
178.44	-367.308
178.66	-367.308
178.87	-367.308
179.09	-571.875
179.30	525.806
179.52	843.478
179.74	-778.947
179.95	-390.741
180.17	506.122
180.38	-875.000
180.60	-1526.667
180.82	-3388.889
181.03	630.233
181.25	-1958.333
181.46	-338.889
181.68	362.821
181.89	-861.290
182.11	7533.333
182.33	396.154
182.54	-11650.000
182.76	443.137
182.97	623.684
183.19	820.833
183.40	415.217
183.62	1095.000
183.84	329.762
184.05	842.308
184.27	-1309.091
184.48	17400.000
184.70	907.407
184.91	441.509
185.13	1800.000
185.34	447.458
185.56	313.793
185.78	977.778
185.99	546.000
186.21	342.169
186.42	1057.143
186.64	-2255.556
186.85	629.268
187.07	-876.000
187.28	293.750
187.50	-425.581
187.72	1157.143
187.93	951.351
188.15	1535.714
188.36	585.417
188.58	386.667
188.79	573.438
189.01	372.131
189.22	308.602
189.44	256.604
189.65	-570.732
189.87	914.286
190.09	220.192
190.30	268.519
190.52	-341.379
190.73	279.518
190.95	-1585.714
191.16	613.043
191.38	400.000
191.59	337.037
191.81	1650.000
192.02	-2733.333
192.24	-2272.727
192.45	453.226
192.67	-5880.000
192.88	256.977
193.10	466.176
193.31	185.246
193.53	-314.516
193.74	1563.636
193.96	-4316.667
194.18	1842.857
194.39	471.186
194.61	913.889
194.82	285.227
195.04	234.211
195.25	463.333
195.47	-26800.000
195.68	393.846
195.90	313.333
196.11	1109.524
196.33	-186.905
196.54	803.571
196.76	383.871
196.97	193.827
197.19	272.932
197.40	-398.667
197.62	595.833
197.83	1694.118
198.05	388.750
198.26	562.500
198.48	1911.765
198.69	-661.538
198.91	425.000
199.12	-11200.000
199.34	573.171
199.55	940.000
199.77	446.032
199.98	1166.667
200.20	317.857
200.41	295.455
200.63	325.610
200.84	531.111
201.06	221.519
201.27	-256.140
201.49	-3614.286
201.70	394.805
201.91	-4500.000
202.13	-1106.250
202.34	-712.121
202.56	1236.842
202.77	636.842
202.99	591.489
203.20	216.129
203.42	564.912
203.63	436.620
203.85	-1246.667
204.06	822.727
204.28	-5120.000
204.49	803.333
204.71	309.677
204.92	469.118
205.14	2131.250
205.35	790.625
205.56	1271.429
205.78	560.000
205.99	340.244
206.21	715.385
206.42	367.797
206.64	364.062
206.85	458.140
207.07	-673.684
207.28	326.087
207.50	721.622
207.71	678.125
207.93	265.657
208.14	512.000
208.35	481.818
208.57	1673.333
208.78	940.000
209.00	482.979
209.21	535.556
209.43	247.573
209.64	-2018.182
209.86	515.385
210.07	-1319.048
210.28	341.304
210.50	1100.000
210.71	236.429
210.93	353.846
211.14	282.727
211.36	-1700.000
211.57	344.444
211.78	564.000
212.00	517.021
212.21	516.216
212.43	22300.000
212.64	711.765
212.86	477.083
213.07	1118.182
213.29	-1766.667
213.50	825.806
213.71	1280.000
213.93	1194.444
214.14	248.696
214.36	210.759
214.57	500.000
214.78	611.765
215.00	329.412
215.21	1715.385
215.43	250.505
215.64	634.884
215.86	557.576
216.07	480.000
216.28	1095.652
216.50	344.444
216.71	541.379
216.93	715.789
217.14	221.622
217.35	984.615
217.57	207.258
217.78	1063.158
218.00	359.302
218.21	1240.000
218.42	7000.000
218.64	276.471
218.85	591.111
219.07	432.787
219.28	251.754
219.49	748.485
219.71	289.189
219.92	1310.000
220.14	1662.500
220.35	362.121
220.56	180.000
220.78	4340.000
220.99	386.585
221.21	179.661
221.42	539.024
221.63	345.000
221.85	443.478
222.06	229.060
222.28	665.789
222.49	497.500
222.70	263.303
222.92	286.517
223.13	356.818
223.34	190.551
223.56	410.145
223.77	365.079
223.99	850.000
224.20	210.490
224.41	218.852
224.63	180.328
224.84	304.225
225.05	258.242
225.27	297.403
225.48	240.566
225.69	144.643
225.91	605.769
226.12	213.433
226.34	167.586
226.55	200.870
226.76	113.714
226.98	126.271
227.19	150.575
227.40	119.820
227.62	110.931
227.83	112.456
228.04	93.857
228.26	59.398
228.47	69.565
228.69	66.416
228.90	52.106
229.11	45.437
229.33	51.322
229.54	37.206
229.75	38.195
229.97	37.430
230.18	32.150
230.39	19.270
230.61	37.045
230.82	35.280
231.03	28.451
231.25	33.732
231.46	27.339
231.67	34.478
231.89	32.956
232.10	46.746
232.31	33.826
232.53	51.210
232.74	41.262
232.95	43.068
233.17	56.117
233.38	37.594
233.59	48.552
233.81	53.846
234.02	43.385
234.23	44.882
234.45	44.289
234.66	47.206
234.87	58.176
235.09	44.737
235.30	47.324
235.51	39.399
235.73	42.998
235.94	38.695
236.15	37.480
236.36	31.765
236.58	30.252
236.79	35.781
237.00	50.312
237.22	47.432
237.43	46.852
237.64	34.985
237.86	42.966
238.07	33.459
238.28	38.934
238.50	42.016
238.71	30.263
238.92	40.889
239.13	40.683
239.35	56.361
239.56	36.377
239.77	40.921
239.99	42.291
240.20	49.791
240.41	35.057
240.63	39.067
240.84	36.900
241.05	29.683
241.26	31.219
241.48	24.896
241.69	24.394
241.90	24.432
242.12	17.326
242.33	21.506
242.54	18.891
242.75	13.947
242.97	21.509
243.18	16.955
243.39	14.645
243.61	16.782
243.82	17.334
244.03	12.692
244.24	11.627
244.46	15.969
244.67	20.109
244.88	15.809
245.09	15.571
245.31	18.304
245.52	15.394
245.73	20.142
245.95	32.963
246.16	16.039
246.37	17.938
246.58	19.233
246.80	15.527
247.01	13.551
247.22	10.102
247.43	11.899
247.65	15.161
247.86	10.806
248.07	9.023
248.28	12.353
248.50	9.707
248.71	9.519
248.92	12.156
249.13	12.622
249.35	11.941
249.56	11.155
249.77	12.011
249.98	11.310
250.20	14.534
250.41	13.114
250.62	14.098
250.83	16.246
251.05	19.458
251.26	11.721
251.47	15.045
251.68	15.677
251.90	17.610
252.11	19.290
252.32	16.993
252.53	20.306
252.75	15.630
252.96	14.531
253.17	15.295
253.38	13.956
253.59	14.292
253.81	12.834
254.02	13.845
254.23	19.679
254.44	15.150
254.66	16.275
254.87	16.140
255.08	16.636
255.29	15.704
255.50	25.441
255.72	16.316
255.93	19.537
256.14	20.805
256.35	17.257
256.57	24.091
256.78	20.124
256.99	24.149
257.20	24.800
257.41	19.164
257.63	23.981
257.84	18.365
258.05	16.994
258.26	13.520
258.47	16.910
258.69	12.468
258.90	13.606
259.11	15.752
259.32	12.376
259.53	14.699
259.75	9.424
259.96	9.442
260.17	8.534
260.38	10.637
260.59	8.911
260.81	7.563
261.02	9.572
261.23	8.752
261.44	11.008
261.65	10.044
261.87	7.904
262.08	10.304
262.29	12.568
262.50	9.754
262.71	8.523
262.92	12.325
263.14	8.774
263.35	12.133
263.56	10.989
263.77	16.254
263.98	11.329
264.20	12.124
264.41	12.540
264.62	11.053
264.83	12.321
265.04	17.344
265.25	9.995
265.47	15.452
265.68	13.783
265.89	14.127
266.10	10.822
266.31	14.621
266.52	11.948
266.74	11.603
266.95	12.249
267.16	10.746
267.37	13.816
267.58	11.690
267.79	11.318
268.01	8.007
268.22	8.198
268.43	11.159
268.64	15.047
268.85	9.015
269.06	10.518
269.27	13.495
269.49	11.986
269.70	12.476
269.91	12.777
270.12	9.806
270.33	11.008
270.54	11.715
270.75	8.997
270.97	10.300
271.18	10.434
271.39	8.697
271.60	12.688
271.81	9.684
272.02	8.636
272.23	14.183
272.45	8.928
272.66	10.361
272.87	8.830
273.08	9.082
273.29	10.178
273.50	9.653
273.71	8.272
273.92	9.026
274.14	9.585
274.35	10.287
274.56	11.100
274.77	9.973
274.98	9.281
275.19	10.087
275.40	8.594
275.61	9.579
275.83	13.302
276.04	13.289
276.25	12.205
276.46	11.819
276.67	15.217
276.88	10.917
277.09	11.005
277.30	13.481
277.51	10.180
277.73	11.374
277.94	9.145
278.15	10.586
278.36	13.516
278.57	10.610
278.78	10.959
278.99	9.430
279.20	13.281
279.41	14.350
279.62	7.409
279.84	9.639
280.05	9.705
280.26	8.790
280.47	10.975
280.68	10.046
280.89	11.385
281.10	10.286
281.31	11.266
281.52	10.621
281.73	7.902
281.94	8.496
282.16	9.771
282.37	7.531
282.58	9.283
282.79	11.454
283.00	11.321
283.21	9.213
283.42	7.649
283.63	8.851
283.84	8.100
284.05	7.824
284.26	9.218
284.47	7.854
284.68	9.459
284.89	9.351
285.11	10.480
285.32	7.592
285.53	7.943
285.74	10.488
285.95	9.048
286.16	7.122
286.37	8.668
286.58	10.304
286.79	7.380
287.00	8.156
287.21	7.053
287.42	8.728
287.63	8.056
287.84	7.713
288.05	10.435
288.26	8.370
288.48	9.882
288.69	8.445
288.90	8.677
289.11	10.970
289.32	8.074
289.53	7.947
289.74	5.974
289.95	6.581
290.16	10.529
290.37	8.050
290.58	7.045
290.79	8.460
291.00	8.129
291.21	7.728
291.42	8.681
291.63	6.749
291.84	8.803
292.05	7.296
292.26	7.756
292.47	7.410
292.68	7.665
292.89	9.376
293.10	8.294
293.31	7.984
293.52	8.734
293.73	6.515
293.94	9.941
294.15	8.406
294.36	8.887
294.57	9.042
294.79	9.161
295.00	7.720
295.21	8.839
295.42	7.390
295.63	9.641
295.84	8.015
296.05	5.145
296.26	7.121
296.47	5.956
296.68	8.453
296.89	10.249
297.10	7.670
297.31	6.701
297.52	6.979
297.73	7.448
297.94	6.686
298.15	7.374
298.36	7.759
298.57	5.794
298.78	8.240
298.99	6.103
299.20	6.996
299.41	7.943
299.62	6.807
299.83	5.366
300.04	8.296
300.25	8.489
300.46	10.053
300.67	8.597
300.88	8.432
301.09	7.137
301.30	8.170
301.50	7.117
301.71	9.614
301.92	8.365
302.13	6.701
302.34	8.195
302.55	7.205
302.76	7.172
302.97	7.152
303.18	8.817
303.39	6.993
303.60	8.975
303.81	9.455
304.02	5.431
304.23	6.721
304.44	4.897
304.65	9.019
304.86	7.297
305.07	8.615
305.28	7.675
305.49	8.885
305.70	7.963
305.91	6.275
306.12	9.522
306.33	7.759
306.54	7.175
306.75	8.308
306.96	10.357
307.17	7.497
307.38	7.687
307.58	7.122
307.79	7.983
308.00	7.130
308.21	7.528
308.42	6.240
308.63	7.878
308.84	6.573
309.05	5.368
309.26	6.123
309.47	6.073
309.68	7.482
309.89	8.082
310.10	5.636
310.31	5.786
310.52	6.676
310.73	8.195
310.94	5.651
311.14	6.841
311.35	7.320
311.56	5.587
311.77	7.227
311.98	6.201
312.19	5.937
312.40	6.665
312.61	6.991
312.82	7.010
313.03	6.594
313.24	7.214
313.45	8.176
313.66	6.727
313.86	9.042
314.07	5.624
314.28	8.814
314.49	7.364
314.70	6.355
314.91	9.404
315.12	7.294
315.33	6.836
315.54	7.202
315.75	8.199
315.96	7.508
316.16	8.287
316.37	9.683
316.58	7.115
316.79	7.236
317.00	6.561
317.21	7.792
317.42	8.127
317.63	7.951
317.84	7.003
318.05	8.157
318.25	9.608
318.46	7.976
318.67	8.373
318.88	9.093
319.09	9.225
319.30	6.777
319.51	7.419
319.72	9.118
319.93	6.043
320.13	6.570
320.34	7.614
320.55	7.263
320.76	8.263
320.97	8.967
321.18	10.510
321.39	5.279
321.60	6.664
321.80	9.179
322.01	8.375
322.22	8.927
322.43	5.895
322.64	9.105
322.85	7.708
323.06	7.741
323.27	8.061
323.47	7.687
323.68	8.752
323.89	6.911
324.10	6.477
324.31	6.218
324.52	8.264
324.73	6.039
324.93	6.152
325.14	7.272
325.35	8.539
325.56	7.726
325.77	9.083
325.98	7.121
326.19	8.061
326.39	4.257
326.60	7.123
326.81	5.736
327.02	6.268
327.23	4.935
327.44	8.814
327.64	5.188
327.85	6.182
328.06	7.500
328.27	9.526
328.48	8.061
328.69	5.219
328.90	7.640
329.10	7.418
329.31	8.657
329.52	7.645
329.73	8.423
329.94	6.782
330.15	8.708
330.35	6.834
330.56	7.815
330.77	8.155
330.98	10.016
331.19	7.408
331.39	8.596
331.60	8.215
331.81	6.917
332.02	7.364
332.23	5.855
332.44	6.489
332.64	7.310
332.85	6.952
333.06	7.827
333.27	4.693
333.48	7.024
333.68	6.497
333.89	5.547
334.10	7.624
334.31	7.580
334.52	6.076
334.72	8.671
334.93	4.114
335.14	6.460
335.35	7.169
335.56	8.300
335.76	7.084
335.97	7.498
336.18	6.218
336.39	8.390
336.60	7.049
336.80	5.494
337.01	6.518
337.22	6.398
337.43	6.563
337.64	8.800
337.84	6.411
338.05	7.311
338.26	8.832
338.47	9.357
338.68	5.045
338.88	7.610
339.09	6.215
339.30	6.165
339.51	9.154
339.71	9.147
339.92	5.645
340.13	6.012
340.34	6.899
340.55	6.827
340.75	8.047
340.96	6.998
341.17	7.857
341.38	6.652
341.58	7.663
341.79	6.635
342.00	5.989
342.21	7.745
342.41	6.536
342.62	5.828
342.83	7.822
343.04	4.813
343.24	7.255
343.45	7.345
343.66	5.738
343.87	7.708
344.07	6.234
344.28	7.909
344.49	8.079
344.70	9.132
344.90	6.158
345.11	4.967
345.32	6.835
345.53	7.677
345.73	6.681
345.94	8.630
346.15	8.665
346.36	6.716
346.56	7.816
346.77	9.171
346.98	7.718
347.19	8.430
347.39	6.405
347.60	7.860
347.81	9.510
348.02	8.656
348.22	7.127
348.43	7.707
348.64	6.174
348.84	7.474
349.05	8.775
349.26	10.029
349.47	7.223
349.67	6.944
349.88	9.969
350.09	7.613
350.30	10.318
350.50	8.692
350.71	9.249
350.92	9.007
351.12	8.495
351.33	9.074
351.54	8.348
351.74	10.672
351.95	9.636
352.16	9.856
352.37	10.021
352.57	9.075
352.78	7.626
352.99	10.709
353.19	9.876
353.40	9.868
353.61	9.646
353.82	10.759
354.02	10.952
354.23	10.657
354.44	13.153
354.64	10.618
354.85	12.370
355.06	11.398
355.26	10.414
355.47	10.464
355.68	12.678
355.88	12.962
356.09	12.756
356.30	10.373
356.51	12.604
356.71	12.531
356.92	10.136
357.13	13.860
357.33	13.079
357.54	12.358
357.75	10.273
357.95	13.665
358.16	11.628
358.37	15.888
358.57	12.336
358.78	15.381
358.99	14.010
359.19	14.225
359.40	13.751
359.61	13.726
359.81	15.242
360.02	16.027
360.23	12.200
360.43	13.898
360.64	12.977
360.85	14.611
361.05	12.620
361.26	16.589
361.47	13.371
361.67	15.023
361.88	12.010
362.09	14.910
362.29	12.131
362.50	13.633
362.70	12.798
362.91	15.344
363.12	13.446
363.32	14.123
363.53	14.675
363.74	16.446
363.94	13.138
364.15	17.034
364.36	15.462
364.56	15.225
364.77	15.735
364.98	16.839
365.18	14.580
365.39	17.449
365.59	13.549
365.80	14.649
366.01	15.172
366.21	14.597
366.42	12.632
366.63	15.704
366.83	14.824
367.04	12.416
367.24	15.614
367.45	14.433
367.66	13.605
367.86	14.573
368.07	14.629
368.28	15.032
368.48	14.372
368.69	13.167
368.89	14.302
369.10	14.575
369.31	14.738
369.51	14.309
369.72	17.008
369.92	18.264
370.13	12.615
370.34	16.525
370.54	11.690
370.75	15.545
370.95	13.170
371.16	15.298
371.37	12.631
371.57	14.560
371.78	13.304
371.98	16.107
372.19	15.470
372.40	15.981
372.60	15.280
372.81	16.140
373.01	12.681
373.22	14.567
373.43	16.214
373.63	16.505
373.84	15.299
374.04	16.477
374.25	15.341
374.46	16.886
374.66	16.339
374.87	17.178
375.07	13.951
375.28	14.403
375.48	15.400
375.69	18.239
375.90	13.444
376.10	14.180
376.31	14.719
376.51	15.158
376.72	14.663
376.92	15.466
377.13	15.224
377.34	17.503
377.54	16.295
377.75	17.706
377.95	14.991
378.16	17.346
378.36	15.771
378.57	17.035
378.77	17.260
378.98	17.518
379.19	16.026
379.39	15.989
379.60	16.528
379.80	17.532
380.01	18.072
380.21	17.393
380.42	17.229
380.62	17.395
380.83	18.156
381.04	16.781
381.24	17.423
381.45	18.118
381.65	18.071
381.86	19.311
382.06	17.362
382.27	17.080
382.47	16.817
382.68	18.576
382.88	17.068
383.09	17.459
383.29	18.094
383.50	18.232
383.71	17.702
383.91	19.237
384.12	18.845
384.32	20.027
384.53	18.529
384.73	17.705
384.94	18.687
385.14	19.078
385.35	18.195
385.55	19.886
385.76	18.373
385.96	19.913
386.17	19.732
386.37	20.250
386.58	20.241
386.78	21.741
386.99	18.807
387.19	21.144
387.40	19.440
387.60	21.510
387.81	20.475
388.01	20.819
388.22	21.417
388.42	23.495
388.63	21.374
388.83	22.636
389.04	21.439
389.24	22.613
389.45	21.761
389.65	22.587
389.86	21.776
390.06	22.073
390.27	21.789
390.47	23.056
390.68	21.883
390.88	24.181
391.09	23.197
391.29	24.371
391.50	23.164
391.70	24.384
391.91	23.772
392.11	24.003
392.32	24.420
392.52	24.302
392.73	24.343
392.93	24.815
393.14	23.966
393.34	25.005
393.55	25.095
393.75	25.890
393.95	24.065
394.16	25.619
394.36	25.371
394.57	26.514
394.77	25.435
394.98	26.675
395.18	25.945
395.39	26.546
395.59	24.995
395.80	26.482
396.00	26.537
396.21	27.197
396.41	26.404
396.61	28.011
396.82	26.381
397.02	27.645
397.23	27.860
397.43	27.214
397.64	25.765
397.84	28.110
398.05	25.335
398.25	27.980
398.45	26.756
398.66	28.105
398.86	27.084
399.07	27.772
399.27	27.520
399.48	27.619
399.68	27.787
399.89	27.802
400.09	27.477
400.29	27.678
400.50	28.343
400.70	28.180
400.91	26.978
401.11	28.058
401.32	27.605
401.52	27.630
401.72	27.758
401.93	28.454
402.13	27.844
402.34	28.628
402.54	26.969
402.75	28.810
402.95	26.887
403.15	27.663
403.36	27.663
403.56	28.141
403.77	28.074
403.97	27.741
404.17	27.332
404.38	27.648
404.58	27.412
404.79	27.899
404.99	27.922
405.19	27.469
405.40	27.070
405.60	27.926
405.81	27.017
406.01	28.809
406.21	27.470
406.42	28.753
406.62	28.400
406.83	28.035
407.03	29.028
407.23	28.015
407.44	28.208
407.64	27.735
407.85	27.354
408.05	28.484
408.25	26.897
408.46	29.176
408.66	27.469
408.87	28.302
409.07	27.607
409.27	27.064
409.48	27.453
409.68	27.879
409.88	26.478
410.09	27.463
410.29	27.613
410.50	28.797
410.70	26.870
410.90	27.766
411.11	27.196
411.31	28.271
411.51	26.752
411.72	27.707
411.92	27.414
412.12	27.610
412.33	27.154
412.53	27.090
412.74	26.753
412.94	27.591
413.14	27.008
413.35	28.319
413.55	27.314
413.75	28.059
413.96	26.518
414.16	27.300
414.36	26.645
414.57	27.542
414.77	26.089
414.97	27.302
415.18	25.834
415.38	26.475
415.58	26.941
415.79	26.841
415.99	26.333
416.19	26.304
416.40	26.781
416.60	26.143
416.80	26.382
417.01	26.618
417.21	26.164
417.41	26.902
417.62	25.862
417.82	26.263
418.02	26.034
418.23	25.741
418.43	25.749
418.63	26.002
418.84	25.663
419.04	26.050
419.24	25.999
419.45	25.519
419.65	26.164
419.85	25.740
420.06	26.511
420.26	25.711
420.46	25.935
420.67	26.223
420.87	25.257
421.07	25.251
421.28	25.917
421.48	25.674
421.68	25.521
421.88	25.420
422.09	25.592
422.29	25.507
422.49	25.548
422.70	26.031
422.90	25.766
423.10	25.942
423.31	26.311
423.51	25.587
423.71	26.064
423.91	25.605
424.12	25.702
424.32	25.130
424.52	25.108
424.73	25.079
424.93	25.184
425.13	25.303
425.33	25.244
425.54	25.042
425.74	25.340
425.94	25.514
426.15	25.164
426.35	25.429
426.55	26.117
426.75	26.210
426.96	25.848
427.16	25.908
427.36	26.619
427.57	25.765
427.77	25.882
427.97	25.703
428.17	25.793
428.38	26.050
428.58	24.898
428.78	25.911
428.98	25.792
429.19	25.506
429.39	24.636
429.59	25.537
429.79	25.118
430.00	25.438
430.20	24.303
430.40	24.728
430.60	24.056
430.81	25.276
431.01	24.726
431.21	25.239
431.41	25.078
431.62	26.045
431.82	24.514
432.02	25.224
432.22	24.443
432.43	24.646
432.63	24.403
432.83	24.705
433.03	24.148
433.24	24.588
433.44	24.112
433.64	23.853
433.84	24.759
434.05	24.518
434.25	24.450
434.45	24.663
434.65	24.244
434.85	24.429
435.06	24.485
435.26	24.902
435.46	24.678
435.66	24.939
435.87	24.726
436.07	25.249
436.27	25.093
436.47	24.825
436.67	24.733
436.88	25.232
437.08	24.880
437.28	24.994
437.48	24.598
437.69	24.601
437.89	23.863
438.09	24.008
438.29	24.231
438.49	24.201
438.70	24.404
438.90	23.992
439.10	24.169
439.30	24.112
439.50	23.737
439.71	24.165
439.91	23.819
440.11	24.279
440.31	23.932
440.51	23.480
440.72	23.784
440.92	23.708
441.12	24.227
441.32	23.948
441.52	24.078
441.72	23.924
441.93	23.789
442.13	24.483
442.33	24.387
442.53	24.250
442.73	24.361
442.94	24.041
443.14	24.361
443.34	24.366
443.54	24.346
443.74	24.423
443.94	24.023
444.15	23.909
444.35	23.778
444.55	23.843
444.75	24.050
444.95	23.396
445.15	23.593
445.36	23.559
445.56	22.941
445.76	23.476
445.96	22.854
446.16	23.345
446.36	22.996
446.57	23.276
446.77	23.172
446.97	23.022
447.17	23.474
447.37	23.313
447.57	23.427
447.77	23.461
447.98	23.495
448.18	23.812
448.38	23.599
448.58	23.774
448.78	24.219
448.98	23.709
449.18	23.858
449.39	23.829
449.59	23.465
449.79	23.927
449.99	23.695
450.19	23.792
450.39	23.602
450.59	23.565
450.79	23.664
451.00	23.817
451.20	24.124
451.40	23.678
451.60	23.831
451.80	23.391
452.00	23.205
452.20	23.121
452.40	23.061
452.61	22.570
452.81	22.959
453.01	22.740
453.21	22.753
453.41	22.804
453.61	22.583
453.81	23.117
454.01	23.089
454.21	22.497
454.42	23.147
454.62	22.973
454.82	22.767
455.02	23.062
455.22	22.644
455.42	23.107
455.62	23.205
455.82	22.524
456.02	22.052
456.23	23.003
456.43	22.854
456.63	22.712
456.83	22.488
457.03	21.937
457.23	22.142
457.43	22.457
457.63	22.209
457.83	22.447
458.03	21.598
458.23	21.462
458.43	22.197
458.64	21.578
458.84	21.443
459.04	21.887
459.24	21.285
459.44	21.152
459.64	21.200
459.84	21.069
460.04	21.004
460.24	21.237
460.44	21.115
460.64	21.216
460.84	21.212
461.04	21.497
461.24	21.676
461.45	21.501
461.65	21.891
461.85	22.077
462.05	21.823
462.25	21.942
462.45	21.814
462.65	22.099
462.85	21.798
463.05	21.886
463.25	21.751
463.45	21.836
463.65	21.283
463.85	21.386
464.05	21.430
464.25	20.708
464.45	21.387
464.65	20.921
464.85	21.321
465.05	20.777
465.26	20.505
465.46	20.966
465.66	20.741
465.86	20.945
466.06	20.335
466.26	20.503
466.46	20.657
466.66	20.812
466.86	20.205
467.06	19.925
467.26	20.267
467.46	20.628
467.66	20.199
467.86	20.330
468.06	20.194
468.26	20.315
468.46	20.754
468.66	20.427
468.86	20.422
469.06	20.336
469.26	19.820
469.46	20.142
469.66	20.309
469.86	20.243
470.06	19.692
470.26	20.044
470.46	19.625
470.66	19.983
470.86	19.839
471.06	19.840
471.26	19.318
471.46	19.625
471.66	19.178
471.86	19.610
472.06	20.001
472.26	19.733
472.46	19.730
472.66	19.390
472.86	19.471
473.06	19.217
473.26	19.502
473.46	19.221
473.66	19.426
473.86	19.288
474.06	18.834
474.26	19.278
474.46	19.050
474.66	19.266
474.86	19.009
475.06	19.196
475.26	19.318
475.46	19.156
475.66	18.543
475.86	19.300
476.06	19.397
476.26	19.136
476.46	18.201
476.66	19.157
476.86	18.662
477.06	18.741
477.26	18.429
477.46	19.003
477.65	18.758
477.85	19.285
478.05	18.618
478.25	19.174
478.45	18.307
478.65	19.203
478.85	18.680
479.05	18.542
479.25	18.318
479.45	18.985
479.65	18.571
479.85	18.597
480.05	18.393
480.25	18.619
480.45	18.335
480.65	18.796
480.85	18.498
481.05	18.594
481.25	18.140
481.44	18.096
481.64	17.795
481.84	18.338
482.04	18.677
482.24	18.140
482.44	18.048
482.64	17.813
482.84	17.945
483.04	17.545
483.24	17.359
483.44	17.329
483.64	17.165
483.84	17.123
484.04	17.321
484.23	17.769
484.43	17.964
484.63	18.307
484.83	18.764
485.03	19.635
485.23	19.563
485.43	19.083
485.63	18.985
485.83	19.041
486.03	19.160
486.23	19.246
486.42	18.708
486.62	18.960
486.82	18.358
487.02	17.931
487.22	17.837
487.42	17.614
487.62	17.503
487.82	17.442
488.02	17.627
488.22	17.560
488.41	17.707
488.61	17.728
488.81	17.666
489.01	18.066
489.21	17.907
489.41	18.268
489.61	18.234
489.81	18.116
490.01	18.284
490.20	18.265
490.40	18.289
490.60	17.682
490.80	17.663
491.00	17.528
491.20	17.055
491.40	16.858
491.60	16.778
491.79	16.992
491.99	16.940
492.19	17.069
492.39	16.956
492.59	17.056
492.79	16.904
492.99	17.447
493.19	17.509
493.38	17.738
493.58	17.761
493.78	17.710
493.98	17.855
494.18	17.275
494.38	17.679
494.58	17.655
494.77	17.165
494.97	17.231
495.17	16.598
495.37	16.971
495.57	16.365
495.77	16.311
495.96	16.671
496.16	16.659
496.36	16.654
496.56	16.353
496.76	15.885
496.96	16.193
497.15	16.175
497.35	16.055
497.55	15.889
497.75	16.437
497.95	16.444
498.15	16.210
498.34	15.871
498.54	16.243
498.74	16.384
498.94	16.358
499.14	16.041
499.34	16.291
499.53	16.287
499.73	16.408
499.93	15.953
500.13	15.739
500.33	15.577
500.52	15.880
500.72	15.557
500.92	15.814
501.12	15.844
501.32	15.989
501.52	15.644
501.71	15.724
501.91	15.504
502.11	15.720
502.31	15.567
502.51	15.772
502.70	14.971
502.90	15.416
503.10	15.728
503.30	15.409
503.50	15.566
503.69	15.375
503.89	15.150
504.09	15.131
504.29	14.942
504.48	15.608
504.68	15.216
504.88	15.276
505.08	15.535
505.28	15.448
505.47	15.245
505.67	15.272
505.87	15.279
506.07	15.543
506.27	15.484
506.46	15.482
506.66	15.132
506.86	15.540
507.06	15.455
507.25	15.403
507.45	15.337
507.65	15.688
507.85	15.346
508.04	15.220
508.24	15.363
508.44	15.584
508.64	14.962
508.83	15.144
509.03	14.973
509.23	14.983
509.43	15.386
509.63	15.157
509.82	15.141
510.02	15.512
510.22	15.679
510.42	15.417
510.61	15.496
510.81	15.748
511.01	15.349
511.21	15.595
511.40	15.433
511.60	15.602
511.80	15.992
511.99	15.950
512.19	15.918
512.39	15.634
512.59	16.104
512.78	16.258
512.98	15.991
513.18	15.994
513.38	16.366
513.57	16.305
513.77	16.700
513.97	16.391
514.17	16.546
514.36	16.873
514.56	16.546
514.76	16.969
514.95	16.693
515.15	16.991
515.35	16.997
515.55	17.252
515.74	17.392
515.94	17.257
516.14	17.133
516.33	17.236
516.53	17.632
516.73	17.698
516.93	17.592
517.12	17.384
517.32	17.348
517.52	17.832
517.71	17.375
517.91	17.519
518.11	18.049
518.30	17.876
518.50	17.949
518.70	17.824
518.90	17.919
519.09	18.563
519.29	18.577
519.49	18.808
519.68	18.639
519.88	18.962
520.08	19.060
520.27	19.299
520.47	19.251
520.67	19.651
520.86	19.902
521.06	19.968
521.26	20.268
521.45	19.799
521.65	20.085
521.85	20.394
522.04	20.110
522.24	20.464
522.44	20.661
522.63	20.784
522.83	20.738
523.03	21.539
523.22	21.277
523.42	21.586
523.62	21.886
523.81	21.703
524.01	21.622
524.21	21.811
524.40	21.707
524.60	21.914
524.80	21.770
524.99	21.518
525.19	21.511
525.39	21.884
525.58	21.902
525.78	22.374
525.98	22.392
526.17	22.498
526.37	22.631
526.57	22.660
526.76	22.890
526.96	22.772
527.15	23.208
527.35	22.975
527.55	23.219
527.74	23.409
527.94	23.059
528.14	23.004
528.33	22.706
528.53	22.526
528.72	23.198
528.92	23.145
529.12	23.469
529.31	23.443
529.51	23.927
529.71	24.048
529.90	24.463
530.10	24.505
530.29	24.767
530.49	25.082
530.69	25.471
530.88	25.212
531.08	25.466
531.28	25.201
531.47	24.779
531.67	24.644
531.86	24.588
532.06	25.038
532.26	24.692
532.45	24.535
532.65	24.532
532.84	24.400
533.04	24.033
533.24	24.371
533.43	24.178
533.63	24.807
533.82	24.678
534.02	24.967
534.22	25.012
534.41	24.929
534.61	25.217
534.80	25.367
535.00	25.397
535.19	25.483
535.39	25.748
535.59	25.793
535.78	25.815
535.98	25.582
536.17	25.564
536.37	24.941
536.57	24.971
536.76	25.057
536.96	25.149
537.15	25.050
537.35	25.130
537.54	25.478
537.74	25.593
537.93	25.643
538.13	25.575
538.33	25.714
538.52	26.204
538.72	26.079
538.91	26.215
539.11	26.333
539.30	26.139
539.50	25.937
539.70	26.023
539.89	25.796
540.09	25.568
540.28	25.340
540.48	25.115
540.67	25.354
540.87	25.212
541.06	24.709
541.26	24.846
541.45	24.835
541.65	25.003
541.85	25.499
542.04	25.111
542.24	25.546
542.43	26.017
542.63	25.951
542.82	25.908
543.02	26.139
543.21	26.168
543.41	26.334
543.60	26.540
543.80	26.825
543.99	26.179
544.19	26.231
544.38	26.509
544.58	26.628
544.77	26.159
544.97	26.187
545.16	25.982
545.36	26.223
545.56	26.009
545.75	25.812
545.95	26.379
546.14	26.189
546.34	26.060
546.53	25.693
546.73	26.161
546.92	26.023
547.12	25.715
547.31	26.156
547.51	25.862
547.70	25.655
547.90	26.463
548.09	26.274
548.29	26.780
548.48	26.400
548.68	26.760
548.87	27.119
549.07	26.516
549.26	27.063
549.46	26.669
549.65	27.014
549.84	26.754
550.04	26.649
550.23	26.582
550.43	26.344
550.62	26.607
550.82	26.648
551.01	27.433
551.21	26.828
551.40	27.068
551.60	26.646
551.79	26.948
551.99	27.051
552.18	26.689
552.38	25.901
552.57	26.762
552.77	27.379
552.96	26.301
553.16	26.549
553.35	26.450
553.54	27.256
553.74	26.943
553.93	26.852
554.13	27.125
554.32	26.818
554.52	26.835
554.71	27.604
554.91	26.936
555.10	27.418
555.29	27.188
555.49	27.075
555.68	27.338
555.88	27.147
556.07	26.718
556.27	26.783
556.46	27.043
556.66	26.856
556.85	27.205
557.04	26.911
557.24	27.448
557.43	27.245
557.63	27.758
557.82	26.597
558.02	26.849
558.21	27.473
558.40	26.850
558.60	27.802
558.79	27.155
558.99	27.004
559.18	27.255
559.38	27.513
559.57	27.328
559.76	27.487
559.96	27.724
560.15	26.616
560.35	27.072
560.54	27.185
560.73	27.010
560.93	26.507
561.12	27.164
561.32	27.369
561.51	27.512
561.70	27.089
561.90	26.943
562.09	27.413
562.29	26.790
562.48	27.019
562.67	27.498
562.87	27.020
563.06	26.948
563.26	27.079
563.45	27.083
563.64	27.267
563.84	27.561
564.03	27.372
564.23	27.025
564.42	27.397
564.61	26.839
564.81	26.869
565.00	27.132
565.20	26.671
565.39	27.187
565.58	26.642
565.78	26.713
565.97	26.591
566.16	27.130
566.36	27.152
566.55	26.778
566.74	26.886
566.94	26.789
567.13	26.732
567.33	26.755
567.52	27.018
567.71	27.209
567.91	27.017
568.10	27.186
568.29	26.723
568.49	27.148
568.68	26.945
568.87	26.599
569.07	26.889
569.26	26.958
569.45	26.942
569.65	26.267
569.84	27.044
570.04	26.679
570.23	26.838
570.42	26.346
570.62	26.902
570.81	26.523
571.00	26.740
571.20	26.236
571.39	26.424
571.58	26.277
571.78	26.247
571.97	26.293
572.16	25.942
572.36	26.010
572.55	25.621
572.74	25.961
572.94	26.175
573.13	26.393
573.32	25.933
573.51	26.011
573.71	26.481
573.90	26.213
574.09	26.357
574.29	26.251
574.48	26.116
574.67	26.132
574.87	26.237
575.06	25.864
575.25	26.297
575.45	25.762
575.64	26.535
575.83	25.699
576.03	26.724
576.22	26.549
576.41	25.302
576.60	25.826
576.80	25.894
576.99	26.258
577.18	26.527
577.38	25.890
577.57	26.052
577.76	26.107
577.95	26.919
578.15	25.414
578.34	26.533
578.53	25.700
578.73	25.445
578.92	26.002
579.11	26.462
579.30	26.074
579.50	25.796
579.69	25.988
579.88	26.016
580.08	25.836
580.27	25.885
580.46	25.418
580.65	25.943
580.85	25.705
581.04	26.303
581.23	25.965
581.42	26.217
581.62	25.973
581.81	26.141
582.00	26.211
582.19	25.960
582.39	25.727
582.58	25.871
582.77	25.946
582.96	26.400
583.16	25.835
583.35	26.153
583.54	25.353
583.73	26.002
583.93	25.541
584.12	26.118
584.31	25.696
584.50	25.305
584.70	26.440
584.89	25.880
585.08	25.749
585.27	26.854
585.47	26.058
585.66	26.269
585.85	26.010
586.04	25.634
586.24	26.108
586.43	26.293
586.62	25.720
586.81	26.199
587.00	25.566
587.20	26.191
587.39	26.209
587.58	26.162
587.77	26.436
587.97	26.022
588.16	26.038
588.35	25.895
588.54	25.988
588.73	26.882
588.93	26.687
589.12	27.093
589.31	27.074
589.50	26.019
589.69	26.822
589.89	26.394
590.08	26.283
590.27	27.320
590.46	27.048
590.65	26.685
590.85	26.927
591.04	27.076
591.23	26.876
591.42	27.264
591.61	27.273
591.81	27.220
592.00	27.859
592.19	27.321
592.38	27.133
592.57	27.640
592.77	27.272
592.96	27.606
593.15	27.230
593.34	27.647
593.53	28.172
593.72	26.933
593.92	27.484
594.11	27.518
594.30	27.206
594.49	28.283
594.68	27.953
594.87	28.470
595.07	27.996
595.26	28.565
595.45	27.916
595.64	28.595
595.83	28.106
596.02	28.395
596.22	28.443
596.41	28.584
596.60	28.522
596.79	28.290
596.98	28.915
597.17	28.527
597.37	28.766
597.56	28.532
597.75	28.918
597.94	29.121
598.13	29.231
598.32	29.434
598.51	29.388
598.71	29.257
598.90	29.363
599.09	29.827
599.28	30.363
599.47	29.402
599.66	29.941
599.85	30.195
600.05	30.109
600.24	29.810
600.43	29.765
600.62	30.017
600.81	30.308
601.00	30.883
601.19	30.192
601.38	30.526
601.58	30.509
601.77	30.061
601.96	31.714
602.15	31.349
602.34	31.295
602.53	30.726
602.72	30.793
602.91	30.845
603.10	30.200
603.30	31.120
603.49	31.165
603.68	31.638
603.87	30.942
604.06	30.710
604.25	31.472
604.44	31.150
604.63	31.197
604.82	30.795
605.01	31.554
605.21	31.380
605.40	31.413
605.59	31.456
605.78	31.916
605.97	31.765
606.16	32.635
606.35	32.109
606.54	32.590
606.73	32.293
606.92	32.682
607.11	32.593
607.30	31.954
607.50	32.187
607.69	32.196
607.88	32.771
608.07	32.701
608.26	32.827
608.45	32.501
608.64	31.994
608.83	32.679
609.02	33.169
609.21	32.496
609.40	32.058
609.59	32.651
609.78	32.507
609.97	32.859
610.16	32.492
610.35	32.293
610.55	32.812
610.74	32.561
610.93	33.089
611.12	32.494
611.31	33.170
611.50	33.520
611.69	33.122
611.88	33.285
612.07	33.501
612.26	32.973
612.45	33.195
612.64	32.795
612.83	32.940
613.02	32.623
613.21	33.194
613.40	32.551
613.59	33.121
613.78	31.985
613.97	32.889
614.16	32.555
614.35	33.521
614.54	32.514
614.73	32.384
614.92	32.765
615.11	33.592
615.30	32.908
615.49	33.676
615.68	32.854
615.87	33.338
616.07	31.837
616.26	32.976
616.45	33.537
616.64	32.570
616.83	33.301
617.02	33.260
617.21	32.460
617.40	33.283
617.59	32.733
617.78	32.700
617.97	32.064
618.16	32.578
618.35	32.581
618.54	31.778
618.73	33.035
618.92	32.633
619.11	31.947
619.30	33.467
619.49	32.069
619.68	33.045
619.86	32.495
620.05	33.156
620.24	31.868
620.43	32.316
620.62	32.743
620.81	32.596
621.00	32.022
621.19	33.321
621.38	33.123
621.57	33.599
621.76	32.389
621.95	32.864
622.14	32.339
622.33	32.285
622.52	32.687
622.71	32.085
622.90	32.132
623.09	32.555
623.28	32.205
623.47	32.337
623.66	32.052
623.85	31.488
624.04	31.199
624.23	32.855
624.42	32.346
624.61	32.464
624.80	32.634
624.99	31.570
625.18	32.217
625.36	32.585
625.55	32.742
625.74	32.286
625.93	31.945
626.12	31.963
626.31	32.258
626.50	32.694
626.69	31.800
626.88	32.084
627.07	31.885
627.26	32.084
627.45	31.272
627.64	32.217
627.83	32.251
628.02	31.836
628.20	32.695
628.39	31.434
628.58	32.754
628.77	32.598
628.96	31.727
629.15	31.880
629.34	32.928
629.53	33.132
629.72	32.044
629.91	32.993
630.10	31.945
630.29	32.423
630.47	31.815
630.66	32.359
630.85	31.710
631.04	32.185
631.23	32.162
631.42	32.521
631.61	31.996
631.80	32.119
631.99	33.358
632.18	32.157
632.36	32.167
632.55	33.027
632.74	31.442
632.93	31.880
633.12	31.465
633.31	31.631
633.50	31.938
633.69	31.965
633.88	31.709
634.06	32.253
634.25	31.289
634.44	32.214
634.63	31.931
634.82	32.737
635.01	32.727
635.20	31.305
635.39	31.971
635.57	31.919
635.76	31.975
635.95	32.334
636.14	32.196
636.33	32.730
636.52	31.705
636.71	31.975
636.89	31.919
637.08	32.068
637.27	32.198
637.46	32.173
637.65	31.968
637.84	32.100
638.03	31.463
638.21	31.381
638.40	31.977
638.59	31.798
638.78	32.105
638.97	32.162
639.16	31.554
639.34	30.681
639.53	31.468
639.72	32.477
639.91	32.438
640.10	31.575
640.29	31.492
640.47	31.878
640.66	32.592
640.85	32.618
641.04	31.916
641.23	32.239
641.42	31.126
641.60	31.703
641.79	32.675
641.98	31.850
642.17	31.794
642.36	31.955
642.54	29.691
642.73	32.366
642.92	31.655
643.11	32.278
643.30	31.251
643.49	32.747
643.67	30.742
643.86	32.566
644.05	30.995
644.24	31.531
644.43	30.382
644.61	31.681
644.80	30.700
644.99	31.101
645.18	32.950
645.37	32.241
645.55	29.680
645.74	31.328
645.93	31.164
646.12	31.920
646.31	31.555
646.49	31.537
646.68	32.692
646.87	31.724
647.06	30.400
647.24	31.677
647.43	31.165
647.62	32.865
647.81	31.604
648.00	32.419
648.18	30.143
648.37	32.055
648.56	31.412
648.75	31.025
648.93	30.636
649.12	30.599
649.31	30.192
649.50	32.195
649.68	30.657
649.87	32.060
650.06	31.355
650.25	31.130
650.43	30.965
650.62	31.927
650.81	31.148
651.00	31.143
651.18	31.335
651.37	31.442
651.56	30.473
651.75	30.905
651.93	30.209
652.12	31.205
652.31	30.725
652.50	31.020
652.68	30.890
652.87	31.975
653.06	30.137
653.25	32.170
653.43	30.705
653.62	31.364
653.81	30.742
654.00	31.316
654.18	31.054
654.37	32.145
654.56	30.378
654.74	30.421
654.93	30.705
655.12	31.836
655.31	30.208
655.49	30.734
655.68	28.698
655.87	30.405
656.05	28.977
656.24	29.882
656.43	29.706
656.62	30.208
656.80	30.012
656.99	29.918
657.18	28.560
657.36	29.103
657.55	29.560
657.74	29.969
657.93	29.344
658.11	29.438
658.30	28.484
658.49	28.641
658.67	28.273
658.86	28.891
659.05	28.858
659.23	29.389
659.42	27.883
659.61	28.820
659.79	28.666
659.98	29.097
660.17	28.106
660.35	28.603
660.54	28.305
660.73	29.444
660.91	29.138
661.10	29.017
661.29	28.053
661.47	29.095
661.66	28.745
661.85	28.175
662.03	27.508
662.22	28.411
662.41	26.898
662.59	27.356
662.78	26.377
662.97	26.569
663.15	25.427
663.34	26.775
663.53	26.054
663.71	27.530
663.90	25.642
664.09	27.313
664.27	26.537
664.46	25.853
664.65	25.391
664.83	25.716
665.02	24.989
665.21	25.774
665.39	24.171
665.58	25.695
665.77	24.656
665.95	25.114
666.14	24.498
666.32	25.455
666.51	23.181
666.70	24.528
666.88	23.712
667.07	25.512
667.26	23.024
667.44	23.973
667.63	25.071
667.81	23.650
668.00	24.876
668.19	26.233
668.37	23.744
668.56	24.915
668.75	22.976
668.93	24.907
669.12	23.203
669.30	24.199
669.49	23.128
669.68	24.366
669.86	24.830
670.05	23.318
670.23	23.665
670.42	25.011
670.61	23.719
670.79	24.175
670.98	22.813
671.16	25.488
671.35	21.476
671.54	25.147
671.72	22.218
671.91	24.812
672.09	22.129
672.28	24.426
672.46	24.681
672.65	24.800
672.84	23.791
673.02	25.985
673.21	21.418
673.39	24.839
673.58	23.271
673.77	24.585
673.95	22.356
674.14	25.496
674.32	22.312
674.51	25.819
674.69	22.731
674.88	24.154
675.07	23.915
675.25	25.686
675.44	22.974
675.62	24.854
675.81	22.857
675.99	27.226
676.18	23.961
676.36	25.066
676.55	22.178
676.74	24.111
676.92	23.380
677.11	25.210
677.29	23.609
677.48	25.332
677.66	25.026
677.85	24.385
678.03	25.307
678.22	25.055
678.40	25.397
678.59	25.058
678.78	22.931
678.96	25.207
679.15	23.127
679.33	26.600
679.52	25.743
679.70	26.707
679.89	25.520
680.07	27.134
680.26	24.814
680.44	26.065
680.63	25.753
680.81	25.899
681.00	24.980
681.18	26.095
681.37	26.718
681.55	27.472
681.74	27.018
681.92	27.043
682.11	27.184
682.29	27.222
682.48	27.642
682.66	27.712
682.85	26.519
683.03	27.043
683.22	27.870
683.40	29.127
683.59	26.598
683.77	28.782
683.96	25.244
684.14	29.705
684.33	25.107
684.51	30.892
684.70	27.045
684.88	29.816
685.07	27.724
685.25	28.938
685.44	25.894
685.62	29.474
685.81	27.493
685.99	29.314
686.18	28.316
686.36	29.488
686.55	27.339
686.73	31.084
686.92	30.135
687.10	32.166
687.29	30.266
687.47	31.498
687.65	30.226
687.84	30.489
688.02	32.651
688.21	32.419
688.39	29.793
688.58	32.683
688.76	30.386
688.95	31.201
689.13	29.931
689.32	33.045
689.50	31.196
689.68	33.231
689.87	31.866
690.05	33.656
690.24	33.419
690.42	34.239
690.61	33.168
690.79	34.237
690.98	34.304
691.16	34.598
691.34	32.461
691.53	35.081
691.71	33.508
691.90	36.429
692.08	32.812
692.27	37.654
692.45	37.521
692.63	36.934
692.82	34.854
693.00	34.863
693.19	34.462
693.37	36.866
693.56	37.351
693.74	38.196
693.92	34.562
694.11	37.839
694.29	36.590
694.48	38.579
694.66	37.110
694.84	39.882
695.03	36.592
695.21	41.437
695.40	39.565
695.58	39.940
695.76	39.847
695.95	40.346
696.13	39.576
696.32	40.918
696.50	42.911
696.68	40.706
696.87	39.605
697.05	41.944
697.24	41.342
697.42	40.692
697.60	41.070
697.79	43.934
697.97	41.427
698.16	41.892
698.34	42.445
698.52	42.922
698.71	42.374
698.89	42.783
699.07	42.367
699.26	43.677
699.44	43.321
699.63	43.755
699.81	42.858
699.99	43.232
700.18	43.233
700.36	44.113
700.54	44.982
700.73	43.932
700.91	44.976
701.09	45.753
701.28	45.572
701.46	45.506
701.64	45.155
701.83	46.275
702.01	44.516
702.20	46.532
702.38	47.067
702.56	47.337
702.75	44.884
702.93	47.883
703.11	44.043
703.30	46.505
703.48	46.942
703.66	48.650
703.85	45.919
704.03	50.744
704.21	47.457
704.40	48.143
704.58	46.678
704.76	49.197
704.95	47.876
705.13	50.150
705.31	46.431
705.50	49.492
705.68	47.681
705.86	48.650
706.04	47.760
706.23	49.196
706.41	48.536
706.59	49.527
706.78	45.637
706.96	46.961
707.14	49.059
707.33	50.000
707.51	49.436
707.69	47.761
707.88	48.228
708.06	50.363
708.24	49.916
708.42	49.409
708.61	49.278
708.79	51.036
708.97	50.034
709.16	51.872
709.34	51.913
709.52	49.029
709.71	49.155
709.89	50.299
710.07	47.510
710.25	52.892
710.44	51.119
710.62	50.690
710.80	50.545
710.98	52.091
711.17	48.670
711.35	49.905
711.53	47.511
711.72	49.604
711.90	51.817
712.08	50.362
712.26	47.923
712.45	50.459
712.63	49.808
712.81	50.895
712.99	51.302
713.18	50.565
713.36	50.937
713.54	51.162
713.72	48.166
713.91	51.084
714.09	49.518
714.27	49.868
714.45	50.938
714.64	52.188
714.82	50.290
715.00	50.218
715.18	49.975
715.37	51.888
715.55	49.249
715.73	52.073
715.91	51.079
716.10	51.022
716.28	48.872
716.46	51.390
716.64	51.316
716.83	50.893
717.01	49.669
717.19	51.653
717.37	51.831
717.55	51.369
717.74	50.313
717.92	51.984
718.10	50.304
718.28	51.196
718.47	49.551
718.65	51.582
718.83	51.415
719.01	52.799
719.19	51.760
719.38	50.512
719.56	51.198
719.74	52.349
719.92	50.050
720.10	49.629
720.29	49.824
720.47	50.908
720.65	50.764
720.83	52.617
721.01	47.237
721.20	52.079
721.38	52.363
721.56	51.645
721.74	50.054
721.92	53.622
722.11	51.583
722.29	51.326
722.47	52.468
722.65	53.887
722.83	52.499
723.01	53.929
723.20	52.258
723.38	50.486
723.56	50.170
723.74	52.857
723.92	50.311
724.10	51.425
724.29	49.148
724.47	52.330
724.65	54.608
724.83	53.141
725.01	50.233
725.19	51.067
725.38	51.897
725.56	52.916
725.74	51.808
725.92	51.760
726.10	49.485
726.28	51.882
726.46	51.116
726.65	53.311
726.83	47.929
727.01	53.077
727.19	53.761
727.37	52.459
727.55	49.087
727.73	49.697
727.92	51.044
728.10	54.377
728.28	50.000
728.46	52.131
728.64	52.054
728.82	51.972
729.00	51.871
729.19	54.940
729.37	49.441
729.55	51.446
729.73	50.978
729.91	51.512
730.09	50.193
730.27	51.845
730.45	48.945
730.63	51.511
730.82	50.136
731.00	53.806
731.18	51.951
731.36	52.939
731.54	50.300
731.72	52.677
731.90	51.675
732.08	52.566
732.26	48.811
732.45	53.832
732.63	51.934
732.81	51.487
732.99	51.699
733.17	53.440
733.35	50.362
733.53	53.045
733.71	53.758
733.89	52.455
734.07	51.497
734.25	52.334
734.44	51.961
734.62	52.746
734.80	50.787
734.98	54.053
735.16	53.333
735.34	53.485
735.52	55.096
735.70	54.566
735.88	55.278
736.06	53.878
736.24	53.421
736.42	55.558
736.60	52.692
736.78	58.408
736.97	54.076
737.15	54.564
737.33	51.390
737.51	53.560
737.69	53.532
737.87	54.129
738.05	54.498
738.23	55.390
738.41	51.615
738.59	54.848
738.77	54.079
738.95	54.454
739.13	54.157
739.31	52.901
739.49	53.366
739.67	54.939
739.85	53.697
740.03	53.538
740.21	55.296
740.39	52.914
740.57	56.406
740.75	53.979
740.93	53.071
741.11	54.217
741.30	55.311
741.48	55.240
741.66	54.705
741.84	57.368
742.02	52.601
742.20	54.458
742.38	56.835
742.56	58.443
742.74	52.347
742.92	54.677
743.10	52.587
743.28	56.514
743.46	51.850
743.64	55.859
743.82	53.802
744.00	55.690
744.18	56.610
744.36	55.376
744.54	51.791
744.72	56.569
744.90	56.051
745.08	55.925
745.26	53.901
745.44	54.422
745.62	52.654
745.80	54.796
745.98	55.414
746.16	58.083
746.34	54.206
746.52	55.106
746.70	53.896
746.87	54.408
747.05	52.517
747.23	56.065
747.41	56.275
747.59	54.280
747.77	53.767
747.95	57.013
748.13	56.272
748.31	55.262
748.49	54.474
748.67	56.589
748.85	54.083
749.03	54.063
749.21	55.638
749.39	57.831
749.57	52.455
749.75	54.604
749.93	54.802
750.11	54.327
750.29	52.483
750.47	53.817
750.65	51.868
750.83	54.551
751.01	51.974
751.18	55.151
751.36	52.089
751.54	56.404
751.72	54.408
751.90	55.504
752.08	54.208
752.26	52.889
752.44	55.865
752.62	55.746
752.80	55.552
752.98	55.897
753.16	53.783
753.34	55.308
753.52	57.152
753.69	57.835
753.87	56.200
754.05	53.498
754.23	53.891
754.41	53.534
754.59	54.910
754.77	55.092
754.95	55.279
755.13	56.781
755.31	56.581
755.49	55.022
755.66	51.437
755.84	56.387
756.02	55.868
756.20	56.520
756.38	51.893
756.56	54.716
756.74	53.890
756.92	57.708
757.10	56.481
757.28	57.704
757.45	56.378
757.63	55.534
757.81	52.546
757.99	57.175
758.17	54.782
758.35	54.474
758.53	53.538
758.71	54.487
758.88	50.594
759.06	56.446
759.24	52.827
759.42	53.723
759.60	51.736
759.78	52.112
759.96	48.415
760.13	49.985
760.31	43.326
760.49	50.062
760.67	41.579
760.85	50.833
761.03	46.487
761.21	46.229
761.38	43.826
761.56	47.045
761.74	41.233
761.92	51.520
762.10	42.749
762.28	46.441
762.46	42.622
762.63	45.773
762.81	43.169
762.99	46.647
763.17	45.197
763.35	46.678
763.53	41.829
763.70	48.029
763.88	48.365
764.06	47.788
764.24	48.203
764.42	48.510
764.60	46.869
764.77	47.299
764.95	48.216
765.13	49.435
765.31	48.734
765.49	49.922
765.66	46.660
765.84	49.668
766.02	47.680
766.20	50.981
766.38	49.218
766.56	51.578
766.73	47.783
766.91	51.735
767.09	51.885
767.27	52.946
767.45	49.157
767.62	51.683
767.80	50.074
767.98	55.380
768.16	51.077
768.33	55.712
768.51	52.525
768.69	55.570
768.87	51.403
769.05	52.363
769.22	50.358
769.40	58.223
769.58	54.180
769.76	56.634
769.94	54.245
770.11	56.209
770.29	54.911
770.47	53.921
770.65	53.725
770.82	55.330
771.00	53.239
771.18	53.194
771.36	54.930
771.53	53.285
771.71	55.195
771.89	53.865
772.07	52.151
772.25	53.959
772.42	52.593
772.60	56.977
772.78	50.622
772.96	57.477
773.13	56.337
773.31	55.084
773.49	52.089
773.67	54.055
773.84	52.095
774.02	56.034
774.20	55.678
774.37	53.552
774.55	51.794
774.73	58.685
774.91	55.848
775.08	55.743
775.26	51.155
775.44	54.124
775.62	51.133
775.79	56.530
775.97	52.000
776.15	56.728
776.32	48.092
776.50	61.005
776.68	54.528
776.86	58.126
777.03	51.600
777.21	54.872
777.39	51.517
777.56	58.730
777.74	51.133
777.92	51.128
778.10	46.718
778.27	54.719
778.45	54.235
778.63	58.337
778.80	57.164
778.98	56.177
779.16	60.460
779.34	55.063
779.51	52.000
779.69	60.374
779.87	52.338
780.04	54.931
780.22	48.927
780.40	58.527
780.57	53.780
780.75	49.360
780.93	62.320
781.10	56.807
781.28	61.874
781.46	54.604
781.63	51.043
781.81	56.732
781.99	47.692
782.16	52.789
782.34	45.973
782.52	53.552
782.69	57.586
782.87	55.835
783.05	56.179
783.22	55.761
783.40	51.072
783.58	57.972
783.75	50.494
783.93	57.007
784.11	56.915
784.28	57.602
784.46	56.560
784.64	58.202
784.81	53.318
784.99	62.742
785.17	50.398
785.34	57.377
785.52	52.154
785.69	57.455
785.87	47.446
786.05	51.203
786.22	52.608
786.40	58.922
786.58	55.021
786.75	54.954
786.93	51.448
787.11	52.948
787.28	48.358
787.46	57.214
787.63	53.234
787.81	52.821
787.99	53.046
788.16	53.419
788.34	47.916
788.51	54.247
788.69	49.224
788.87	55.539
789.04	47.328
789.22	52.533
789.39	49.196
789.57	50.988
789.75	48.015
789.92	49.267
790.10	46.543
790.27	54.977
790.45	49.735
790.63	54.719
790.80	48.445
790.98	50.000
791.15	52.294
791.33	50.398
791.51	50.471
791.68	54.721
791.86	54.873
792.03	50.512
792.21	43.898
792.39	49.056
792.56	47.788
792.74	54.364
792.91	51.213
793.09	55.826
793.26	44.438
793.44	53.450
793.62	53.209
793.79	55.392
793.97	48.650
794.14	52.743
794.32	48.609
794.49	55.187
794.67	45.242
794.84	50.914
795.02	47.826
795.20	55.262
795.37	47.686
795.55	58.272
795.72	54.130
795.90	50.780
796.07	53.269
796.25	51.458
796.42	53.075
796.60	51.363
796.77	50.288
796.95	56.075
797.13	48.689
797.30	51.789
797.48	46.845
797.65	53.985
797.83	50.000
798.00	52.954
798.18	50.895
798.35	51.419
798.53	51.542
798.70	53.645
798.88	48.112
799.05	52.446
799.23	50.029
799.40	51.245
799.58	55.397
799.75	52.031
799.93	41.349
800.10	55.957
800.28	52.076
800.45	50.348
800.63	46.730
800.80	52.310
800.98	52.945
801.15	48.934
801.33	46.526
801.50	52.074
801.68	45.181
801.85	48.018
802.03	48.030
802.20	47.706
802.38	47.315
802.55	46.792
802.73	52.819
802.90	51.186
803.08	50.167
803.25	48.496
803.43	49.778
803.60	54.375
803.78	51.094
803.95	49.241
804.13	48.439
804.30	51.654
804.48	49.899
804.65	50.000
804.83	49.597
805.00	48.872
805.17	52.707
805.35	43.412
805.52	42.640
805.70	49.494
805.87	53.123
806.05	49.478
806.22	45.966
806.40	45.595
806.57	53.020
806.75	50.724
806.92	50.426
807.09	50.820
807.27	50.458
807.44	54.271
807.62	47.969
807.79	45.682
807.97	48.396
808.14	47.336
808.31	43.557
808.49	45.467
808.66	49.020
808.84	44.518
809.01	48.527
809.19	51.190
809.36	51.648
809.53	53.772
809.71	40.428
809.88	50.740
810.06	57.307
810.23	52.003
810.41	53.535
810.58	47.947
810.75	48.504
810.93	49.402
811.10	44.226
811.28	51.701
811.45	44.804
811.62	50.783
811.80	47.360
811.97	52.687
812.15	50.038
812.32	50.922
812.49	47.914
812.67	50.758
812.84	45.482
813.02	54.944
813.19	41.483
813.36	51.872
813.54	50.000
813.71	47.846
813.89	47.155
814.06	45.272
814.23	40.980
814.41	38.529
814.58	46.708
814.75	45.431
814.93	43.144
815.10	50.534
815.28	38.856
815.45	48.956
815.62	46.625
815.80	43.434
815.97	41.254
816.14	47.092
816.32	47.651
816.49	36.401
816.66	44.583
816.84	46.461
817.01	44.942
817.18	49.449
817.36	41.714
817.53	45.931
817.71	39.667
817.88	43.341
818.05	36.842
818.23	46.067
818.40	37.117
818.57	46.442
818.75	45.309
818.92	42.791
819.09	43.173
819.27	47.138
819.44	38.213
819.61	40.304
819.79	36.651
819.96	44.168
820.13	42.461
820.31	46.203
820.48	50.208
820.65	47.611
820.82	39.020
821.00	46.963
821.17	33.989
821.34	43.135
821.52	47.619
821.69	45.809
821.86	44.649
822.04	44.815
822.21	44.206
822.38	49.071
822.56	46.116
822.73	48.658
822.90	48.040
823.07	49.181
823.25	46.875
823.42	48.925
823.59	45.968
823.77	47.688
823.94	46.438
824.11	46.648
824.29	47.262
824.46	48.243
824.63	46.470
824.80	47.088
824.98	47.097
825.15	47.733
825.32	46.288
825.49	49.450
825.67	45.754
825.84	49.898
826.01	47.541
826.19	49.796
826.36	43.312
826.53	48.792
826.70	44.867
826.88	47.971
827.05	45.127
827.22	44.741
827.39	45.855
827.57	44.824
827.74	42.709
827.91	48.911
828.08	46.079
828.26	47.597
828.43	43.236
828.60	48.699
828.77	44.986
828.95	47.930
829.12	40.360
829.29	40.107
829.46	42.153
829.64	43.931
829.81	39.173
829.98	47.626
830.15	39.975
830.32	43.970
830.50	40.664
830.67	43.059
830.84	40.687
831.01	41.135
831.19	37.860
831.36	43.765
831.53	49.139
831.70	46.265
831.87	36.409
832.05	48.442
832.22	52.436
832.39	37.204
832.56	38.678
832.74	38.948
832.91	43.241
833.08	47.299
833.25	35.323
833.42	40.064
833.60	37.796
833.77	39.989
833.94	39.888
834.11	40.850
834.28	38.768
834.45	43.661
834.63	38.495
834.80	40.777
834.97	39.706
835.14	43.089
835.31	40.987
835.49	40.301
835.66	40.292
835.83	43.133
836.00	39.105
836.17	38.655
836.34	39.702
836.52	39.790
836.69	44.607
836.86	42.872
837.03	41.709
837.20	40.590
837.37	38.907
837.55	37.080
837.72	33.518
837.89	40.496
838.06	44.838
838.23	44.105
838.40	46.795
838.58	45.446
838.75	39.022
838.92	49.379
839.09	51.449
839.26	44.567
839.43	50.943
839.60	47.001
839.78	65.192
839.95	58.388
840.12	41.343
840.29	53.101
840.46	53.491
840.63	48.621
840.80	41.356
840.98	44.707
841.15	44.634
841.32	40.932
841.49	43.611
841.66	45.437
841.83	48.391
842.00	44.565
842.17	45.066
842.34	49.304
842.52	53.376
842.69	45.790
842.86	43.576
843.03	60.499
843.20	49.638
843.37	53.375
843.54	49.575
843.71	59.054
843.88	46.623
844.06	60.508
844.23	65.000
844.40	61.792
844.57	65.423
844.74	54.083
844.91	57.166
845.08	63.077
845.25	61.616
845.42	56.024
845.59	46.927
845.76	57.290
845.94	56.726
846.11	60.611
846.28	65.171
846.45	81.186
846.62	76.136
846.79	74.053
846.96	66.990
847.13	75.468
847.30	71.042
847.47	53.846
847.64	54.115
847.81	72.321
847.98	79.025
848.15	71.116
848.32	81.883
848.50	61.255
848.67	65.134
848.84	68.058
849.01	64.706
849.18	64.858
849.35	78.431
849.52	76.067
849.69	76.546
849.86	80.562
850.03	56.250
850.20	70.476
850.37	66.087
850.54	88.387
850.71	74.280
850.88	75.897
851.05	69.316
851.22	64.882
851.39	60.934
851.56	82.020
851.73	88.263
851.90	83.619
852.07	72.842
852.24	73.099
852.41	91.874
852.58	87.555
852.75	68.433
852.92	63.928
853.09	96.484
853.26	83.007
853.43	69.002
853.60	81.336
853.77	61.603
853.94	66.667
854.11	81.818
854.28	82.086
854.45	70.396
854.62	75.054
854.79	65.000
854.96	65.385
855.13	88.636
855.30	68.675
855.47	91.689
855.64	70.341
855.81	91.729
855.98	65.094
856.15	69.414
856.32	66.234
856.49	73.005
856.66	74.126
856.83	64.612
857.00	78.286
857.17	75.904
857.34	88.312
857.51	72.965
857.68	55.158
857.85	72.222
858.02	93.968
858.19	75.787
858.36	75.501
858.53	54.891
858.70	61.212
858.87	64.159
859.04	62.810
859.21	68.227
859.38	92.217
859.55	110.736
859.72	73.733
859.89	88.000
860.05	92.326
860.22	73.425
860.39	73.350
860.56	90.323
860.73	77.516
860.90	100.304
861.07	93.893
861.24	71.922
861.41	87.561
861.58	92.714
861.75	95.789
861.92	80.000
862.09	56.533
862.26	96.241
862.43	85.581
862.59	74.186
862.76	82.271
862.93	73.636
863.10	77.151
863.27	74.010
863.44	67.876
863.61	73.154
863.78	66.147
863.95	95.058
864.12	77.381
864.29	69.606
864.45	78.661
864.62	70.588
864.79	71.396
864.96	74.638
865.13	81.818
865.30	74.262
865.47	72.315
865.64	72.792
865.81	72.222
865.97	76.923
866.14	78.307
866.31	85.207
866.48	75.783
866.65	56.510
866.82	68.860
866.99	117.598
867.16	61.254
867.33	85.464
867.49	62.092
867.66	99.644
867.83	93.586
868.00	55.257
868.17	82.515
868.34	102.732
868.51	70.208
868.67	83.014
868.84	58.684
869.01	100.000
869.18	89.730
869.35	82.100
869.52	50.542
869.69	85.679
869.85	85.612
870.02	64.748
870.19	55.679
870.36	92.361
870.53	78.993
870.70	87.162
870.86	93.583
871.03	77.634
871.20	69.011
871.37	96.774
871.54	76.167
871.71	68.571
871.87	44.371
872.04	82.725
872.21	71.657
872.38	70.378
872.55	89.136
872.72	83.095
872.88	75.904
873.05	44.787
873.22	63.990
873.39	60.698
873.56	82.955
873.72	69.444
873.89	76.042
874.06	73.016
874.23	67.762
874.40	71.316
874.56	89.590
874.73	77.297
874.90	70.305
875.07	72.622
875.24	78.392
875.40	70.130
875.57	68.828
875.74	77.098
875.91	80.706
876.08	78.971
876.24	71.186
876.41	86.527
876.58	66.979
876.75	74.667
876.92	85.545
877.08	68.407
877.25	61.644
877.42	61.111
877.59	64.833
877.75	78.182
877.92	52.273
878.09	72.008
878.26	61.033
878.42	82.161
878.59	62.264
878.76	70.499
878.93	82.286
879.09	76.518
879.26	61.197
879.43	58.628
879.60	58.706
879.76	70.640
879.93	62.186
880.10	56.000
880.27	57.760
880.43	62.367
880.60	49.632
880.77	43.262
880.94	58.215
881.10	40.501
881.27	38.634
881.44	39.251
881.61	36.947
881.77	35.064
881.94	30.307
882.11	27.003
882.28	25.803
882.44	30.725
882.61	38.516
882.78	36.029
882.94	44.567
883.11	36.728
883.28	38.928
883.45	37.043
883.61	39.485
883.78	37.438
883.95	38.816
884.11	41.408
884.28	36.074
>>>>>End Processed Spectral Data<<<<<
