SpectraSuite Data File
++++++++++++++++++++++++++++++++++++
Date: Wed Sep 25 03:16:48 EST 2019
User: sgrac
Dark Spectrum Present: Yes
Reference Spectrum Present: Yes
Number of Sampled Component Spectra: 1
Spectrometers: USB4E01596
Integration Time (usec): 100000 (USB4E01596)
Spectra Averaged: 3 (USB4E01596)
Boxcar Smoothing: 0 (USB4E01596)
Correct for Electrical Dark: No (USB4E01596)
Strobe/Lamp Enabled: Yes (USB4E01596)
Correct for Detector Non-linearity: No (USB4E01596)
Correct for Stray Light: No (USB4E01596)
Number of Pixels in Processed Spectrum: 3648
>>>>>Begin Processed Spectral Data<<<<<
178.44	-371.154
178.66	-371.154
178.87	-371.154
179.09	-571.875
179.30	735.484
179.52	1056.522
179.74	-836.842
179.95	-501.852
180.17	434.694
180.38	-992.857
180.60	-1933.333
180.82	-3322.222
181.03	730.233
181.25	-2641.667
181.46	-423.611
181.68	346.154
181.89	-796.774
182.11	8633.333
182.33	561.538
182.54	-15100.000
182.76	513.725
182.97	771.053
183.19	1029.167
183.40	589.130
183.62	1305.000
183.84	378.571
184.05	1026.923
184.27	-2445.455
184.48	22100.000
184.70	1155.556
184.91	579.245
185.13	2392.857
185.34	620.339
185.56	259.770
185.78	1305.556
185.99	502.000
186.21	319.277
186.42	1196.429
186.64	-2777.778
186.85	736.585
187.07	-1020.000
187.28	326.042
187.50	-439.535
187.72	1261.905
187.93	1159.459
188.15	1900.000
188.36	716.667
188.58	436.667
188.79	679.688
189.01	472.131
189.22	326.882
189.44	309.434
189.65	-704.878
189.87	1064.286
190.09	312.500
190.30	351.852
190.52	-360.345
190.73	255.422
190.95	-2128.571
191.16	569.565
191.38	451.923
191.59	422.222
191.81	1416.667
192.02	-2408.333
192.24	-2754.545
192.45	482.258
192.67	-5260.000
192.88	327.907
193.10	407.353
193.31	259.836
193.53	-290.323
193.74	1327.273
193.96	-5950.000
194.18	1992.857
194.39	481.356
194.61	972.222
194.82	336.364
195.04	300.000
195.25	560.000
195.47	-28500.000
195.68	450.769
195.90	362.222
196.11	1561.905
196.33	-338.095
196.54	1042.857
196.76	443.548
196.97	206.173
197.19	264.662
197.40	-430.667
197.62	577.083
197.83	1470.588
198.05	397.500
198.26	604.167
198.48	1894.118
198.69	-761.538
198.91	421.875
199.12	-11900.000
199.34	617.073
199.55	990.000
199.77	465.079
199.98	1180.952
200.20	451.190
200.41	317.045
200.63	330.488
200.84	613.333
201.06	220.886
201.27	-415.789
201.49	-3042.857
201.70	458.442
201.91	-4871.429
202.13	-1587.500
202.34	-815.152
202.56	1478.947
202.77	850.000
202.99	665.957
203.20	323.656
203.42	617.544
203.63	459.155
203.85	-1513.333
204.06	1304.545
204.28	-5720.000
204.49	893.333
204.71	274.194
204.92	494.118
205.14	1818.750
205.35	840.625
205.56	1557.143
205.78	580.000
205.99	319.512
206.21	620.513
206.42	520.339
206.64	479.687
206.85	639.535
207.07	-700.000
207.28	415.942
207.50	781.081
207.71	728.125
207.93	254.545
208.14	472.000
208.35	538.636
208.57	2020.000
208.78	1300.000
209.00	557.447
209.21	657.778
209.43	336.893
209.64	-2563.636
209.86	658.974
210.07	-1457.143
210.28	322.826
210.50	1752.632
210.71	234.286
210.93	465.385
211.14	384.545
211.36	-2820.000
211.57	416.667
211.78	514.000
212.00	623.404
212.21	791.892
212.43	29100.000
212.64	794.118
212.86	497.917
213.07	927.273
213.29	-2260.000
213.50	851.613
213.71	1364.000
213.93	1683.333
214.14	325.217
214.36	214.557
214.57	529.508
214.78	609.804
215.00	476.471
215.21	1630.769
215.43	284.848
215.64	732.558
215.86	857.576
216.07	628.889
216.28	1017.391
216.50	317.593
216.71	520.690
216.93	831.579
217.14	316.216
217.35	1196.154
217.57	239.516
217.78	968.421
218.00	376.744
218.21	970.000
218.42	8333.333
218.64	288.235
218.85	753.333
219.07	534.426
219.28	271.930
219.49	781.818
219.71	343.243
219.92	1185.000
220.14	1443.750
220.35	478.788
220.56	189.032
220.78	4460.000
220.99	339.024
221.21	206.780
221.42	602.439
221.63	445.000
221.85	658.696
222.06	192.308
222.28	755.263
222.49	560.000
222.70	259.633
222.92	369.663
223.13	362.500
223.34	230.709
223.56	402.899
223.77	431.746
223.99	1157.692
224.20	225.874
224.41	247.541
224.63	266.393
224.84	364.789
225.05	353.846
225.27	314.286
225.48	276.415
225.69	192.857
225.91	590.385
226.12	288.060
226.34	181.379
226.55	198.261
226.76	191.429
226.98	143.220
227.19	141.954
227.40	129.279
227.62	92.713
227.83	101.068
228.04	118.771
228.26	69.674
228.47	90.537
228.69	66.416
228.90	66.075
229.11	47.961
229.33	67.341
229.54	47.441
229.75	45.612
229.97	46.336
230.18	38.363
230.39	35.139
230.61	45.075
230.82	62.383
231.03	48.259
231.25	48.966
231.46	45.322
231.67	55.086
231.89	55.870
232.10	58.433
232.31	67.159
232.53	66.734
232.74	56.472
232.95	64.695
233.17	66.214
233.38	38.722
233.59	68.597
233.81	67.456
234.02	58.366
234.23	53.937
234.45	73.193
234.66	51.638
234.87	73.494
235.09	49.071
235.30	53.521
235.51	65.823
235.73	58.484
235.94	48.255
236.15	55.155
236.36	45.378
236.58	44.874
236.79	52.031
237.00	50.469
237.22	53.625
237.43	45.681
237.64	45.356
237.86	52.446
238.07	55.451
238.28	52.181
238.50	48.992
238.71	42.251
238.92	53.185
239.13	49.689
239.35	54.106
239.56	40.656
239.77	60.614
239.99	35.536
240.20	61.646
240.41	48.928
240.63	50.800
240.84	52.293
241.05	38.232
241.26	31.913
241.48	38.801
241.69	39.822
241.90	31.715
242.12	27.217
242.33	39.311
242.54	33.680
242.75	29.564
242.97	41.743
243.18	30.220
243.39	28.319
243.61	34.475
243.82	40.869
244.03	34.372
244.24	35.782
244.46	32.536
244.67	43.239
244.88	35.915
245.09	34.267
245.31	35.036
245.52	32.832
245.73	34.908
245.95	54.504
246.16	27.099
246.37	32.745
246.58	30.237
246.80	29.863
247.01	31.837
247.22	32.357
247.43	33.153
247.65	41.290
247.86	36.900
248.07	32.271
248.28	36.533
248.50	41.071
248.71	38.008
248.92	39.571
249.13	40.100
249.35	40.419
249.56	37.726
249.77	38.631
249.98	34.810
250.20	44.319
250.41	35.895
250.62	41.759
250.83	36.531
251.05	35.356
251.26	27.350
251.47	31.473
251.68	31.354
251.90	25.386
252.11	31.998
252.32	28.373
252.53	35.707
252.75	24.602
252.96	32.063
253.17	33.520
253.38	28.652
253.59	31.774
253.81	30.199
254.02	28.497
254.23	32.099
254.44	29.458
254.66	28.291
254.87	35.045
255.08	29.283
255.29	29.368
255.50	29.376
255.72	29.398
255.93	31.429
256.14	36.242
256.35	28.968
256.57	28.439
256.78	28.976
256.99	31.545
257.20	34.836
257.41	29.509
257.63	29.927
257.84	31.384
258.05	30.342
258.26	24.916
258.47	30.308
258.69	25.294
258.90	22.003
259.11	34.429
259.32	24.105
259.53	29.433
259.75	25.247
259.96	26.922
260.17	25.110
260.38	31.436
260.59	30.590
260.81	32.592
261.02	31.680
261.23	37.094
261.44	35.726
261.65	36.803
261.87	33.057
262.08	35.968
262.29	36.599
262.50	33.399
262.71	27.871
262.92	34.893
263.14	28.242
263.35	27.666
263.56	25.739
263.77	28.666
263.98	25.209
264.20	31.629
264.41	19.058
264.62	24.413
264.83	20.251
265.04	34.508
265.25	22.999
265.47	28.690
265.68	24.379
265.89	21.769
266.10	22.586
266.31	30.667
266.52	23.094
266.74	25.092
266.95	22.532
267.16	24.963
267.37	26.633
267.58	23.853
267.79	23.007
268.01	27.549
268.22	25.911
268.43	29.658
268.64	30.498
268.85	25.184
269.06	20.940
269.27	32.090
269.49	28.811
269.70	25.048
269.91	25.554
270.12	25.074
270.33	28.101
270.54	27.504
270.75	20.883
270.97	28.623
271.18	22.391
271.39	23.925
271.60	27.601
271.81	27.033
272.02	23.665
272.23	30.983
272.45	23.217
272.66	25.853
272.87	24.936
273.08	27.563
273.29	29.031
273.50	28.017
273.71	26.341
273.92	26.244
274.14	27.497
274.35	29.888
274.56	29.616
274.77	30.691
274.98	27.340
275.19	28.185
275.40	22.429
275.61	24.719
275.83	26.109
276.04	29.863
276.25	26.284
276.46	30.746
276.67	30.592
276.88	30.911
277.09	23.335
277.30	28.507
277.51	24.688
277.73	23.489
277.94	21.617
278.15	27.212
278.36	30.727
278.57	22.624
278.78	24.936
278.99	25.732
279.20	25.871
279.41	30.433
279.62	22.643
279.84	24.910
280.05	20.000
280.26	19.694
280.47	22.579
280.68	25.942
280.89	20.660
281.10	23.800
281.31	24.244
281.52	28.083
281.73	17.373
281.94	19.931
282.16	23.168
282.37	21.832
282.58	20.403
282.79	30.677
283.00	28.135
283.21	23.810
283.42	23.300
283.63	24.792
283.84	21.475
284.05	24.366
284.26	20.563
284.47	25.212
284.68	24.756
284.89	24.966
285.11	22.179
285.32	22.952
285.53	21.368
285.74	29.583
285.95	24.027
286.16	24.588
286.37	25.159
286.58	26.940
286.79	24.062
287.00	26.111
287.21	22.216
287.42	27.168
287.63	23.851
287.84	24.008
288.05	26.473
288.26	24.919
288.48	24.864
288.69	21.453
288.90	21.523
289.11	25.640
289.32	25.165
289.53	21.435
289.74	18.076
289.95	20.387
290.16	23.218
290.37	20.777
290.58	17.919
290.79	21.954
291.00	20.705
291.21	20.043
291.42	22.435
291.63	21.554
291.84	21.374
292.05	20.447
292.26	21.454
292.47	21.698
292.68	18.852
292.89	22.713
293.10	20.560
293.31	21.683
293.52	15.680
293.73	16.499
293.94	18.899
294.15	17.667
294.36	18.652
294.57	22.235
294.79	20.000
295.00	16.908
295.21	21.980
295.42	21.170
295.63	20.974
295.84	19.149
296.05	16.999
296.26	20.272
296.47	17.755
296.68	21.042
296.89	23.214
297.10	22.683
297.31	20.450
297.52	18.856
297.73	19.820
297.94	21.361
298.15	20.692
298.36	21.733
298.57	19.660
298.78	24.055
298.99	18.799
299.20	22.893
299.41	21.467
299.62	20.263
299.83	16.901
300.04	20.809
300.25	22.093
300.46	22.194
300.67	20.535
300.88	21.399
301.09	13.777
301.30	18.516
301.50	14.214
301.71	24.964
301.92	21.265
302.13	15.616
302.34	17.392
302.55	15.577
302.76	16.143
302.97	18.586
303.18	18.492
303.39	14.109
303.60	18.526
303.81	21.174
304.02	13.609
304.23	17.291
304.44	13.690
304.65	18.665
304.86	17.454
305.07	18.379
305.28	16.355
305.49	20.461
305.70	17.819
305.91	14.976
306.12	17.874
306.33	17.505
306.54	18.012
306.75	18.080
306.96	20.903
307.17	16.858
307.38	15.662
307.58	15.364
307.79	16.350
308.00	15.298
308.21	13.808
308.42	14.722
308.63	16.090
308.84	16.736
309.05	12.568
309.26	13.312
309.47	15.709
309.68	15.573
309.89	17.163
310.10	13.335
310.31	15.163
310.52	15.732
310.73	19.544
310.94	15.976
311.14	16.322
311.35	17.787
311.56	16.276
311.77	16.508
311.98	14.442
312.19	18.614
312.40	13.767
312.61	18.041
312.82	16.735
313.03	15.060
313.24	17.051
313.45	18.704
313.66	13.684
313.86	19.079
314.07	13.833
314.28	17.474
314.49	14.889
314.70	15.958
314.91	20.517
315.12	15.448
315.33	15.915
315.54	15.522
315.75	14.925
315.96	13.914
316.16	12.769
316.37	17.712
316.58	14.292
316.79	16.402
317.00	18.434
317.21	16.445
317.42	17.127
317.63	17.336
317.84	15.295
318.05	15.386
318.25	16.844
318.46	16.877
318.67	15.629
318.88	17.133
319.09	16.101
319.30	13.324
319.51	12.852
319.72	16.744
319.93	12.340
320.13	14.164
320.34	15.823
320.55	14.232
320.76	15.867
320.97	16.207
321.18	17.267
321.39	15.358
321.60	12.776
321.80	17.704
322.01	16.251
322.22	15.277
322.43	11.650
322.64	13.907
322.85	15.170
323.06	16.546
323.27	15.991
323.47	15.893
323.68	14.003
323.89	13.843
324.10	15.601
324.31	11.415
324.52	15.976
324.73	15.079
324.93	13.606
325.14	17.598
325.35	17.041
325.56	15.839
325.77	16.604
325.98	15.836
326.19	16.159
326.39	11.208
326.60	14.648
326.81	15.558
327.02	11.712
327.23	14.319
327.44	18.491
327.64	12.610
327.85	12.293
328.06	17.335
328.27	18.282
328.48	17.683
328.69	10.858
328.90	14.035
329.10	11.909
329.31	15.112
329.52	12.425
329.73	16.235
329.94	12.273
330.15	16.177
330.35	12.750
330.56	15.399
330.77	12.871
330.98	14.472
331.19	14.858
331.39	12.207
331.60	13.372
331.81	13.482
332.02	16.254
332.23	13.517
332.44	11.961
332.64	14.283
332.85	14.064
333.06	16.586
333.27	10.376
333.48	15.947
333.68	14.153
333.89	13.019
334.10	13.842
334.31	16.156
334.52	13.366
334.72	14.905
334.93	12.491
335.14	12.299
335.35	12.802
335.56	17.629
335.76	11.765
335.97	17.502
336.18	10.900
336.39	17.393
336.60	15.344
336.80	13.708
337.01	13.145
337.22	15.030
337.43	16.171
337.64	17.775
337.84	16.178
338.05	15.500
338.26	18.636
338.47	16.444
338.68	11.188
338.88	17.871
339.09	15.028
339.30	16.146
339.51	16.990
339.71	19.966
339.92	13.230
340.13	17.521
340.34	15.123
340.55	15.361
340.75	15.456
340.96	13.132
341.17	16.177
341.38	13.321
341.58	17.044
341.79	17.290
342.00	13.970
342.21	16.400
342.41	13.850
342.62	17.551
342.83	20.235
343.04	14.638
343.24	17.774
343.45	20.439
343.66	17.162
343.87	18.201
344.07	14.709
344.28	21.157
344.49	19.118
344.70	22.489
344.90	16.832
345.11	17.820
345.32	18.914
345.53	21.224
345.73	19.788
345.94	23.365
346.15	22.765
346.36	21.340
346.56	22.036
346.77	23.104
346.98	21.468
347.19	23.126
347.39	22.373
347.60	22.181
347.81	22.537
348.02	23.815
348.22	19.579
348.43	22.897
348.64	19.598
348.84	23.494
349.05	22.543
349.26	24.943
349.47	20.526
349.67	21.940
349.88	25.028
350.09	24.147
350.30	27.105
350.50	24.278
350.71	25.846
350.92	27.673
351.12	23.722
351.33	26.976
351.54	25.822
351.74	28.193
351.95	25.184
352.16	28.395
352.37	27.978
352.57	27.179
352.78	25.773
352.99	29.409
353.19	27.493
353.40	29.605
353.61	28.256
353.82	29.402
354.02	28.184
354.23	30.371
354.44	31.028
354.64	29.645
354.85	28.754
355.06	29.583
355.26	26.386
355.47	30.475
355.68	30.469
355.88	31.326
356.09	30.717
356.30	29.219
356.51	30.715
356.71	31.852
356.92	29.565
357.13	31.976
357.33	30.909
357.54	32.850
357.75	29.034
357.95	33.437
358.16	30.036
358.37	34.112
358.57	30.151
358.78	32.919
358.99	32.854
359.19	32.436
359.40	33.746
359.61	32.708
359.81	33.406
360.02	33.053
360.23	30.549
360.43	32.354
360.64	31.000
360.85	33.171
361.05	30.434
361.26	35.505
361.47	31.463
361.67	33.320
361.88	31.683
362.09	32.722
362.29	30.908
362.50	33.129
362.70	31.874
362.91	34.763
363.12	32.500
363.32	33.167
363.53	33.619
363.74	34.059
363.94	32.335
364.15	35.306
364.36	32.452
364.56	33.664
364.77	32.649
364.98	33.810
365.18	32.371
365.39	34.395
365.59	30.548
365.80	32.634
366.01	32.832
366.21	33.300
366.42	30.580
366.63	34.228
366.83	31.375
367.04	30.582
367.24	33.597
367.45	31.903
367.66	31.293
367.86	33.549
368.07	31.104
368.28	32.084
368.48	33.166
368.69	31.569
368.89	31.493
369.10	32.535
369.31	32.111
369.51	32.524
369.72	34.259
369.92	35.043
370.13	29.335
370.34	33.167
370.54	27.405
370.75	32.142
370.95	30.262
371.16	32.861
371.37	30.809
371.57	31.313
371.78	30.863
371.98	33.158
372.19	32.330
372.40	33.019
372.60	33.022
372.81	32.592
373.01	31.292
373.22	33.128
373.43	33.628
373.63	33.578
373.84	32.055
374.04	33.626
374.25	31.552
374.46	33.879
374.66	31.958
374.87	34.323
375.07	30.404
375.28	31.905
375.48	32.853
375.69	34.927
375.90	30.768
376.10	31.441
376.31	31.511
376.51	31.821
376.72	31.852
376.92	32.553
377.13	32.954
377.34	33.113
377.54	32.383
377.75	33.502
377.95	32.927
378.16	34.620
378.36	33.508
378.57	33.982
378.77	33.986
378.98	33.675
379.19	33.376
379.39	33.720
379.60	33.733
379.80	35.046
380.01	34.005
380.21	33.661
380.42	34.018
380.62	33.676
380.83	34.609
381.04	33.992
381.24	34.032
381.45	34.268
381.65	33.352
381.86	34.703
382.06	34.544
382.27	33.519
382.47	33.202
382.68	35.469
382.88	34.156
383.09	34.765
383.29	34.762
383.50	34.952
383.71	34.988
383.91	35.512
384.12	34.332
384.32	35.693
384.53	34.877
384.73	34.794
384.94	34.355
385.14	35.539
385.35	34.836
385.55	35.119
385.76	34.856
385.96	35.016
386.17	35.899
386.37	35.666
386.58	36.698
386.78	36.975
386.99	34.439
387.19	36.462
387.40	35.520
387.60	37.127
387.81	36.371
388.01	35.941
388.22	35.933
388.42	37.670
388.63	35.676
388.83	36.059
389.04	36.947
389.24	36.879
389.45	37.387
389.65	36.929
389.86	37.615
390.06	37.614
390.27	35.852
390.47	37.580
390.68	36.988
390.88	37.553
391.09	37.603
391.29	38.148
391.50	36.932
391.70	37.391
391.91	37.157
392.11	38.371
392.32	37.069
392.52	38.148
392.73	37.916
392.93	38.653
393.14	38.197
393.34	38.273
393.55	38.397
393.75	38.846
393.95	38.053
394.16	38.348
394.36	38.020
394.57	37.582
394.77	38.060
394.98	39.052
395.18	39.349
395.39	39.527
395.59	38.030
395.80	38.466
396.00	39.173
396.21	39.060
396.41	38.592
396.61	39.437
396.82	38.961
397.02	39.167
397.23	39.167
397.43	39.413
397.64	37.973
397.84	39.341
398.05	37.749
398.25	38.817
398.45	38.376
398.66	39.246
398.86	37.157
399.07	39.247
399.27	39.110
399.48	38.355
399.68	38.546
399.89	38.173
400.09	39.295
400.29	39.162
400.50	38.916
400.70	38.978
400.91	39.303
401.11	39.145
401.32	39.195
401.52	38.750
401.72	37.818
401.93	38.880
402.13	38.801
402.34	38.618
402.54	38.084
402.75	39.078
402.95	38.060
403.15	38.855
403.36	38.159
403.56	38.916
403.77	38.145
403.97	36.729
404.17	37.869
404.38	37.912
404.58	37.456
404.79	38.126
404.99	37.837
405.19	38.224
405.40	37.905
405.60	37.381
405.81	37.677
406.01	37.781
406.21	37.675
406.42	38.266
406.62	37.759
406.83	37.813
407.03	38.525
407.23	37.975
407.44	37.813
407.64	38.095
407.85	37.480
408.05	38.137
408.25	37.557
408.46	37.507
408.66	37.691
408.87	37.618
409.07	37.773
409.27	37.254
409.48	37.233
409.68	36.868
409.88	37.331
410.09	36.733
410.29	37.239
410.50	37.580
410.70	36.897
410.90	36.415
411.11	36.685
411.31	37.174
411.51	36.984
411.72	36.616
411.92	36.376
412.12	36.831
412.33	36.824
412.53	37.487
412.74	36.089
412.94	37.481
413.14	36.444
413.35	37.161
413.55	37.181
413.75	37.352
413.96	36.505
414.16	37.519
414.36	36.318
414.57	36.627
414.77	35.750
414.97	36.352
415.18	35.390
415.38	35.686
415.58	36.355
415.79	35.868
415.99	35.762
416.19	35.341
416.40	35.689
416.60	35.795
416.80	35.684
417.01	35.489
417.21	35.341
417.41	35.702
417.62	35.714
417.82	35.225
418.02	35.263
418.23	34.932
418.43	35.313
418.63	34.548
418.84	34.871
419.04	35.006
419.24	34.891
419.45	34.727
419.65	35.467
419.85	34.967
420.06	34.763
420.26	34.898
420.46	35.272
420.67	35.233
420.87	34.382
421.07	34.646
421.28	35.018
421.48	34.442
421.68	34.444
421.88	34.672
422.09	34.815
422.29	35.057
422.49	34.400
422.70	34.575
422.90	35.009
423.10	35.061
423.31	35.064
423.51	34.703
423.71	34.946
423.91	33.942
424.12	34.486
424.32	34.275
424.52	34.339
424.73	34.382
424.93	33.977
425.13	34.200
425.33	33.971
425.54	34.345
425.74	34.546
425.94	34.425
426.15	35.081
426.35	34.080
426.55	34.773
426.75	35.299
426.96	34.487
427.16	34.452
427.36	35.454
427.57	34.890
427.77	34.233
427.97	34.635
428.17	34.506
428.38	33.873
428.58	33.479
428.78	35.190
428.98	34.478
429.19	34.583
429.39	34.257
429.59	34.128
429.79	34.754
430.00	33.263
430.20	33.433
430.40	34.390
430.60	33.535
430.81	34.020
431.01	33.487
431.21	33.884
431.41	33.764
431.62	34.457
431.82	34.289
432.02	34.004
432.22	33.075
432.43	33.594
432.63	33.093
432.83	33.559
433.03	33.531
433.24	33.130
433.44	32.952
433.64	32.799
433.84	33.392
434.05	33.373
434.25	33.221
434.45	33.568
434.65	33.109
434.85	33.067
435.06	33.545
435.26	33.335
435.46	33.723
435.66	33.735
435.87	33.187
436.07	33.396
436.27	33.496
436.47	33.707
436.67	33.317
436.88	34.027
437.08	34.360
437.28	33.909
437.48	33.366
437.69	32.908
437.89	32.994
438.09	32.891
438.29	32.918
438.49	32.723
438.70	33.389
438.90	32.905
439.10	32.693
439.30	33.098
439.50	32.726
439.71	32.876
439.91	33.277
440.11	33.291
440.31	32.843
440.51	32.652
440.72	32.933
440.92	32.505
441.12	33.335
441.32	32.875
441.52	33.309
441.72	33.191
441.93	33.122
442.13	33.310
442.33	33.429
442.53	33.021
442.73	33.565
442.94	33.420
443.14	33.300
443.34	33.273
443.54	33.307
443.74	32.864
443.94	32.709
444.15	32.545
444.35	33.318
444.55	32.702
444.75	32.778
444.95	32.374
445.15	32.285
445.36	32.659
445.56	32.572
445.76	32.356
445.96	31.397
446.16	32.192
446.36	32.330
446.57	31.996
446.77	32.102
446.97	32.517
447.17	32.677
447.37	32.720
447.57	32.413
447.77	32.799
447.98	32.516
448.18	32.689
448.38	32.475
448.58	32.752
448.78	33.051
448.98	33.093
449.18	32.804
449.39	32.560
449.59	32.362
449.79	33.013
449.99	32.864
450.19	33.055
450.39	33.038
450.59	32.329
450.79	32.680
451.00	32.699
451.20	33.154
451.40	32.704
451.60	32.432
451.80	31.740
452.00	32.102
452.20	31.467
452.40	32.274
452.61	32.019
452.81	31.888
453.01	31.933
453.21	31.622
453.41	32.205
453.61	32.241
453.81	32.050
454.01	32.028
454.21	31.751
454.42	31.984
454.62	32.075
454.82	32.281
455.02	31.523
455.22	31.779
455.42	31.934
455.62	32.626
455.82	31.408
456.02	31.525
456.23	31.991
456.43	32.144
456.63	32.229
456.83	32.016
457.03	31.215
457.23	31.489
457.43	31.495
457.63	31.252
457.83	31.863
458.03	30.800
458.23	31.029
458.43	30.882
458.64	30.817
458.84	30.438
459.04	30.498
459.24	30.260
459.44	30.455
459.64	30.303
459.84	30.324
460.04	30.542
460.24	30.563
460.44	30.440
460.64	30.802
460.84	30.701
461.04	31.031
461.24	30.820
461.45	30.862
461.65	31.245
461.85	31.204
462.05	30.794
462.25	31.186
462.45	31.670
462.65	31.261
462.85	30.367
463.05	31.049
463.25	31.058
463.45	30.703
463.65	30.168
463.85	30.217
464.05	30.457
464.25	30.723
464.45	30.476
464.65	29.642
464.85	30.069
465.05	29.806
465.26	30.205
465.46	30.728
465.66	30.115
465.86	29.933
466.06	30.083
466.26	29.740
466.46	30.208
466.66	29.948
466.86	30.011
467.06	29.229
467.26	29.086
467.46	29.669
467.66	29.321
467.86	29.285
468.06	29.373
468.26	29.489
468.46	29.501
468.66	29.419
468.86	29.638
469.06	29.173
469.26	29.458
469.46	29.571
469.66	29.507
469.86	29.081
470.06	29.222
470.26	29.123
470.46	28.942
470.66	29.048
470.86	29.097
471.06	28.611
471.26	29.374
471.46	29.576
471.66	28.806
471.86	29.009
472.06	28.890
472.26	29.341
472.46	28.761
472.66	28.959
472.86	28.817
473.06	28.780
473.26	29.378
473.46	28.516
473.66	28.648
473.86	28.793
474.06	28.333
474.26	28.451
474.46	28.213
474.66	28.742
474.86	28.547
475.06	28.666
475.26	28.659
475.46	28.688
475.66	27.914
475.86	28.740
476.06	29.225
476.26	28.283
476.46	27.511
476.66	28.489
476.86	28.184
477.06	28.319
477.26	28.494
477.46	28.667
477.65	28.142
477.85	28.292
478.05	27.881
478.25	28.074
478.45	27.919
478.65	27.948
478.85	27.983
479.05	28.194
479.25	27.764
479.45	28.117
479.65	28.068
479.85	28.159
480.05	28.096
480.25	27.939
480.45	27.803
480.65	27.779
480.85	28.058
481.05	28.030
481.25	27.467
481.44	27.686
481.64	27.572
481.84	27.853
482.04	28.123
482.24	27.632
482.44	27.548
482.64	27.343
482.84	27.229
483.04	27.131
483.24	26.809
483.44	26.247
483.64	26.262
483.84	26.585
484.04	27.291
484.23	27.714
484.43	28.135
484.63	28.649
484.83	29.568
485.03	30.389
485.23	30.128
485.43	29.758
485.63	29.480
485.83	29.518
486.03	29.230
486.23	29.197
486.42	28.800
486.62	28.296
486.82	28.222
487.02	27.989
487.22	27.363
487.42	27.611
487.62	27.307
487.82	27.436
488.02	27.726
488.22	27.559
488.41	27.933
488.61	28.059
488.81	27.997
489.01	28.122
489.21	28.511
489.41	28.295
489.61	28.193
489.81	28.326
490.01	28.195
490.20	28.084
490.40	28.093
490.60	28.145
490.80	27.527
491.00	26.818
491.20	26.375
491.40	26.593
491.60	26.297
491.79	26.621
491.99	26.577
492.19	26.834
492.39	27.089
492.59	27.001
492.79	26.855
492.99	27.447
493.19	27.354
493.38	27.895
493.58	28.185
493.78	27.899
493.98	27.770
494.18	27.195
494.38	27.372
494.58	27.282
494.77	26.531
494.97	26.339
495.17	26.470
495.37	26.587
495.57	26.108
495.77	26.085
495.96	26.393
496.16	26.350
496.36	25.623
496.56	25.574
496.76	25.280
496.96	25.871
497.15	25.854
497.35	25.720
497.55	25.918
497.75	26.297
497.95	26.170
498.15	25.603
498.34	25.684
498.54	25.809
498.74	26.219
498.94	26.176
499.14	26.030
499.34	25.918
499.53	25.749
499.73	25.713
499.93	25.778
500.13	25.009
500.33	24.861
500.52	25.309
500.72	25.058
500.92	25.378
501.12	25.332
501.32	25.144
501.52	25.309
501.71	25.196
501.91	25.175
502.11	25.190
502.31	24.967
502.51	25.062
502.70	25.103
502.90	24.956
503.10	25.205
503.30	24.864
503.50	25.206
503.69	25.171
503.89	24.932
504.09	24.810
504.29	24.823
504.48	24.558
504.68	24.362
504.88	24.666
505.08	24.391
505.28	24.590
505.47	24.601
505.67	24.390
505.87	24.741
506.07	24.564
506.27	24.707
506.46	24.450
506.66	24.450
506.86	24.238
507.06	24.341
507.25	24.347
507.45	24.550
507.65	24.940
507.85	24.250
508.04	24.480
508.24	24.866
508.44	24.290
508.64	24.332
508.83	24.196
509.03	24.715
509.23	24.232
509.43	24.279
509.63	24.460
509.82	24.611
510.02	24.223
510.22	24.653
510.42	24.596
510.61	24.706
510.81	24.415
511.01	24.409
511.21	24.668
511.40	24.462
511.60	24.634
511.80	24.917
511.99	24.699
512.19	24.801
512.39	24.746
512.59	24.767
512.78	25.351
512.98	24.849
513.18	24.786
513.38	25.268
513.57	25.099
513.77	25.435
513.97	25.211
514.17	25.454
514.36	25.189
514.56	25.280
514.76	25.188
514.95	25.988
515.15	25.888
515.35	25.711
515.55	25.760
515.74	25.797
515.94	26.063
516.14	26.077
516.33	25.878
516.53	26.223
516.73	26.166
516.93	26.338
517.12	26.358
517.32	26.465
517.52	26.164
517.71	26.700
517.91	26.422
518.11	26.562
518.30	26.440
518.50	26.690
518.70	26.601
518.90	27.285
519.09	27.044
519.29	27.612
519.49	27.779
519.68	27.467
519.88	28.098
520.08	27.724
520.27	28.093
520.47	28.306
520.67	28.663
520.86	28.779
521.06	28.670
521.26	29.341
521.45	28.680
521.65	28.501
521.85	28.841
522.04	28.953
522.24	29.316
522.44	28.887
522.63	29.552
522.83	29.347
523.03	30.112
523.22	29.706
523.42	29.855
523.62	29.823
523.81	29.476
524.01	29.869
524.21	30.056
524.40	29.721
524.60	30.118
524.80	29.906
524.99	29.647
525.19	29.788
525.39	29.820
525.58	30.242
525.78	30.079
525.98	30.403
526.17	30.375
526.37	30.435
526.57	30.676
526.76	30.722
526.96	30.676
527.15	31.282
527.35	30.899
527.55	31.373
527.74	31.052
527.94	30.769
528.14	30.642
528.33	30.254
528.53	30.401
528.72	31.189
528.92	31.395
529.12	31.585
529.31	31.766
529.51	32.061
529.71	32.273
529.90	32.353
530.10	32.606
530.29	32.940
530.49	33.201
530.69	33.417
530.88	33.225
531.08	32.532
531.28	32.735
531.47	32.442
531.67	32.164
531.86	31.987
532.06	32.014
532.26	31.948
532.45	31.898
532.65	31.491
532.84	31.743
533.04	31.378
533.24	31.154
533.43	31.627
533.63	32.290
533.82	32.101
534.02	32.540
534.22	32.614
534.41	32.623
534.61	32.427
534.80	32.860
535.00	32.607
535.19	32.855
535.39	33.423
535.59	33.037
535.78	32.726
535.98	32.139
536.17	32.489
536.37	31.779
536.57	32.005
536.76	31.707
536.96	32.176
537.15	32.244
537.35	32.298
537.54	32.482
537.74	32.394
537.93	32.190
538.13	32.585
538.33	32.942
538.52	33.137
538.72	32.920
538.91	32.792
539.11	32.862
539.30	32.456
539.50	32.416
539.70	32.898
539.89	32.564
540.09	32.330
540.28	31.616
540.48	31.941
540.67	31.822
540.87	31.965
541.06	31.129
541.26	31.989
541.45	31.680
541.65	32.164
541.85	32.737
542.04	32.548
542.24	32.639
542.43	32.654
542.63	32.789
542.82	32.775
543.02	33.282
543.21	33.371
543.41	33.725
543.60	33.654
543.80	33.545
543.99	33.290
544.19	33.292
544.38	33.299
544.58	33.226
544.77	33.118
544.97	33.116
545.16	33.228
545.36	33.151
545.56	33.018
545.75	32.801
545.95	33.028
546.14	32.423
546.34	32.492
546.53	32.486
546.73	33.027
546.92	32.892
547.12	32.720
547.31	32.745
547.51	32.934
547.70	33.025
547.90	33.154
548.09	33.119
548.29	33.209
548.48	33.188
548.68	33.391
548.87	33.681
549.07	33.557
549.26	33.280
549.46	33.090
549.65	33.660
549.84	33.501
550.04	33.081
550.23	33.187
550.43	33.287
550.62	33.271
550.82	33.283
551.01	33.356
551.21	33.429
551.40	33.080
551.60	33.156
551.79	33.456
551.99	33.316
552.18	33.196
552.38	32.463
552.57	32.999
552.77	33.380
552.96	33.101
553.16	32.686
553.35	33.021
553.54	33.465
553.74	33.433
553.93	33.321
554.13	34.071
554.32	33.505
554.52	33.693
554.71	34.295
554.91	33.884
555.10	33.980
555.29	34.390
555.49	33.786
555.68	33.743
555.88	33.512
556.07	32.815
556.27	33.067
556.46	33.300
556.66	32.994
556.85	33.406
557.04	33.178
557.24	32.984
557.43	34.194
557.63	33.299
557.82	33.056
558.02	33.728
558.21	33.708
558.40	33.340
558.60	33.723
558.79	33.354
558.99	33.259
559.18	33.352
559.38	33.412
559.57	33.643
559.76	32.900
559.96	34.946
560.15	33.436
560.35	33.731
560.54	33.704
560.73	32.890
560.93	33.423
561.12	33.787
561.32	33.983
561.51	33.775
561.70	33.497
561.90	32.867
562.09	33.724
562.29	33.149
562.48	33.350
562.67	34.105
562.87	33.223
563.06	33.424
563.26	33.830
563.45	33.012
563.64	33.534
563.84	33.926
564.03	33.209
564.23	33.516
564.42	33.415
564.61	33.976
564.81	33.343
565.00	33.068
565.20	33.201
565.39	33.471
565.58	32.571
565.78	32.700
565.97	32.767
566.16	32.894
566.36	33.220
566.55	33.159
566.74	33.564
566.94	33.669
567.13	33.763
567.33	33.613
567.52	33.607
567.71	33.346
567.91	33.571
568.10	33.161
568.29	33.033
568.49	33.618
568.68	33.462
568.87	33.343
569.07	33.144
569.26	32.922
569.45	32.951
569.65	32.764
569.84	32.522
570.04	33.179
570.23	32.646
570.42	32.522
570.62	32.902
570.81	32.315
571.00	32.443
571.20	32.448
571.39	32.715
571.58	32.597
571.78	32.490
571.97	31.924
572.16	32.051
572.36	32.206
572.55	32.098
572.74	32.392
572.94	32.835
573.13	32.638
573.32	32.160
573.51	32.232
573.71	32.147
573.90	32.457
574.09	32.532
574.29	32.569
574.48	32.082
574.67	32.227
574.87	32.210
575.06	31.805
575.25	32.248
575.45	32.372
575.64	31.677
575.83	31.809
576.03	32.825
576.22	32.381
576.41	32.056
576.60	31.988
576.80	31.926
576.99	32.253
577.18	32.094
577.38	31.738
577.57	32.028
577.76	32.150
577.95	32.357
578.15	31.651
578.34	32.792
578.53	31.668
578.73	31.983
578.92	31.629
579.11	32.922
579.30	32.128
579.50	32.376
579.69	32.204
579.88	31.983
580.08	32.012
580.27	32.129
580.46	31.541
580.65	31.371
580.85	31.528
581.04	30.896
581.23	31.735
581.42	31.767
581.62	31.946
581.81	31.950
582.00	32.192
582.19	31.917
582.39	31.440
582.58	31.758
582.77	31.779
582.96	32.020
583.16	30.714
583.35	32.072
583.54	32.222
583.73	31.772
583.93	31.350
584.12	31.607
584.31	31.938
584.50	31.892
584.70	32.763
584.89	32.433
585.08	32.389
585.27	32.906
585.47	31.344
585.66	31.761
585.85	32.086
586.04	32.088
586.24	32.868
586.43	31.856
586.62	32.031
586.81	32.297
587.00	31.897
587.20	31.895
587.39	31.561
587.58	31.768
587.77	32.375
587.97	32.339
588.16	32.086
588.35	31.831
588.54	32.550
588.73	31.746
588.93	32.329
589.12	32.393
589.31	32.607
589.50	31.664
589.69	32.787
589.89	32.857
590.08	32.280
590.27	33.158
590.46	32.607
590.65	32.535
590.85	32.627
591.04	32.752
591.23	32.992
591.42	33.633
591.61	33.156
591.81	33.190
592.00	33.361
592.19	33.298
592.38	33.624
592.57	34.289
592.77	33.958
592.96	33.454
593.15	33.490
593.34	33.660
593.53	33.510
593.72	33.828
593.92	33.185
594.11	34.405
594.30	33.699
594.49	34.125
594.68	34.067
594.87	34.548
595.07	33.805
595.26	34.252
595.45	34.812
595.64	34.617
595.83	35.011
596.02	34.805
596.22	34.983
596.41	34.228
596.60	34.533
596.79	34.486
596.98	34.514
597.17	35.127
597.37	35.261
597.56	35.580
597.75	35.027
597.94	35.104
598.13	35.655
598.32	35.509
598.51	35.705
598.71	35.542
598.90	36.058
599.09	36.049
599.28	35.973
599.47	35.775
599.66	36.268
599.85	36.405
600.05	36.329
600.24	35.857
600.43	36.167
600.62	36.150
600.81	36.909
601.00	36.592
601.19	36.904
601.38	36.766
601.58	37.208
601.77	37.001
601.96	37.372
602.15	37.086
602.34	38.036
602.53	37.662
602.72	37.242
602.91	37.137
603.10	36.933
603.30	37.881
603.49	37.750
603.68	38.457
603.87	38.306
604.06	37.083
604.25	38.129
604.44	37.267
604.63	37.772
604.82	38.258
605.01	37.748
605.21	38.540
605.40	38.520
605.59	38.281
605.78	38.751
605.97	38.226
606.16	39.096
606.35	38.401
606.54	39.763
606.73	38.587
606.92	38.616
607.11	38.863
607.30	39.275
607.50	40.072
607.69	38.891
607.88	38.778
608.07	38.960
608.26	38.721
608.45	39.063
608.64	38.934
608.83	39.178
609.02	38.926
609.21	39.020
609.40	39.038
609.59	38.786
609.78	38.663
609.97	39.434
610.16	39.130
610.35	38.728
610.55	39.540
610.74	39.384
610.93	39.525
611.12	39.561
611.31	39.835
611.50	39.571
611.69	39.379
611.88	39.726
612.07	40.677
612.26	40.033
612.45	39.021
612.64	39.080
612.83	39.024
613.02	38.762
613.21	39.196
613.40	40.150
613.59	40.234
613.78	39.222
613.97	39.222
614.16	39.063
614.35	40.096
614.54	39.259
614.73	39.767
614.92	39.790
615.11	39.399
615.30	39.746
615.49	41.037
615.68	39.580
615.87	40.306
616.07	38.854
616.26	38.992
616.45	39.810
616.64	38.061
616.83	40.843
617.02	39.648
617.21	39.518
617.40	38.795
617.59	39.718
617.78	39.701
617.97	39.035
618.16	39.447
618.35	39.168
618.54	39.003
618.73	39.965
618.92	40.188
619.11	39.412
619.30	39.736
619.49	39.114
619.68	40.052
619.86	38.889
620.05	39.305
620.24	39.001
620.43	39.665
620.62	38.873
620.81	38.535
621.00	39.836
621.19	39.714
621.38	39.649
621.57	39.922
621.76	38.995
621.95	39.333
622.14	39.752
622.33	39.540
622.52	39.818
622.71	39.853
622.90	39.323
623.09	39.357
623.28	39.334
623.47	39.854
623.66	38.762
623.85	39.252
624.04	38.986
624.23	39.452
624.42	38.971
624.61	39.391
624.80	40.155
624.99	38.758
625.18	39.019
625.36	39.763
625.55	39.482
625.74	39.488
625.93	38.970
626.12	39.285
626.31	40.152
626.50	40.054
626.69	39.107
626.88	39.452
627.07	39.561
627.26	38.657
627.45	38.981
627.64	39.504
627.83	38.947
628.02	39.027
628.20	39.160
628.39	39.669
628.58	40.318
628.77	39.567
628.96	39.442
629.15	38.918
629.34	40.052
629.53	39.226
629.72	38.913
629.91	39.764
630.10	38.919
630.29	39.794
630.47	38.946
630.66	39.305
630.85	39.027
631.04	39.650
631.23	40.043
631.42	39.621
631.61	39.265
631.80	39.251
631.99	40.031
632.18	39.150
632.36	39.005
632.55	39.250
632.74	37.883
632.93	38.647
633.12	39.146
633.31	38.861
633.50	38.834
633.69	39.082
633.88	38.655
634.06	38.634
634.25	39.170
634.44	39.714
634.63	39.849
634.82	39.473
635.01	39.117
635.20	39.348
635.39	39.274
635.57	38.636
635.76	39.380
635.95	38.579
636.14	39.889
636.33	38.331
636.52	38.845
636.71	39.586
636.89	39.709
637.08	39.350
637.27	39.546
637.46	39.202
637.65	39.312
637.84	39.036
638.03	38.952
638.21	39.446
638.40	39.579
638.59	39.168
638.78	39.901
638.97	39.230
639.16	38.517
639.34	38.803
639.53	39.303
639.72	39.026
639.91	39.905
640.10	38.979
640.29	39.284
640.47	39.644
640.66	39.202
640.85	38.335
641.04	40.093
641.23	38.911
641.42	38.552
641.60	38.728
641.79	39.199
641.98	39.579
642.17	39.230
642.36	38.682
642.54	38.294
642.73	38.867
642.92	38.801
643.11	39.208
643.30	38.591
643.49	39.833
643.67	37.591
643.86	39.811
644.05	38.504
644.24	38.725
644.43	38.057
644.61	39.329
644.80	39.333
644.99	40.189
645.18	39.471
645.37	39.350
645.55	37.769
645.74	38.632
645.93	39.063
646.12	39.635
646.31	38.967
646.49	38.864
646.68	39.591
646.87	38.279
647.06	38.338
647.24	38.982
647.43	38.117
647.62	39.335
647.81	39.426
648.00	39.166
648.18	37.934
648.37	39.010
648.56	38.896
648.75	38.990
648.93	38.906
649.12	39.355
649.31	38.014
649.50	39.388
649.68	39.066
649.87	38.864
650.06	38.805
650.25	38.730
650.43	38.384
650.62	39.721
650.81	38.309
651.00	38.927
651.18	39.131
651.37	39.115
651.56	38.383
651.75	38.926
651.93	38.321
652.12	38.527
652.31	38.979
652.50	38.266
652.68	39.260
652.87	38.847
653.06	38.166
653.25	39.632
653.43	38.385
653.62	38.579
653.81	38.601
654.00	39.216
654.18	38.473
654.37	39.283
654.56	38.478
654.74	38.338
654.93	38.591
655.12	38.455
655.31	38.552
655.49	39.055
655.68	37.305
655.87	38.438
656.05	36.466
656.24	39.012
656.43	37.130
656.62	37.461
656.80	37.028
656.99	38.139
657.18	36.134
657.36	37.942
657.55	37.839
657.74	38.114
657.93	36.678
658.11	38.143
658.30	36.655
658.49	37.767
658.67	36.782
658.86	37.228
659.05	36.409
659.23	37.056
659.42	37.005
659.61	37.152
659.79	37.352
659.98	36.881
660.17	36.755
660.35	36.942
660.54	36.929
660.73	36.425
660.91	36.391
661.10	36.759
661.29	35.226
661.47	36.744
661.66	36.519
661.85	35.973
662.03	36.058
662.22	35.754
662.41	35.123
662.59	35.346
662.78	35.051
662.97	35.173
663.15	34.411
663.34	35.555
663.53	34.391
663.71	35.081
663.90	33.894
664.09	35.948
664.27	35.109
664.46	34.899
664.65	34.722
664.83	34.503
665.02	33.251
665.21	33.740
665.39	32.897
665.58	34.097
665.77	33.520
665.95	33.693
666.14	32.086
666.32	33.051
666.51	33.181
666.70	32.693
666.88	30.948
667.07	31.941
667.26	31.222
667.44	31.766
667.63	32.271
667.81	33.392
668.00	32.288
668.19	34.075
668.37	31.797
668.56	33.330
668.75	31.320
668.93	32.583
669.12	30.690
669.30	31.929
669.49	32.109
669.68	31.893
669.86	31.824
670.05	32.003
670.23	30.582
670.42	32.683
670.61	31.088
670.79	32.652
670.98	31.540
671.16	32.698
671.35	30.967
671.54	32.677
671.72	29.752
671.91	32.372
672.09	29.993
672.28	32.556
672.46	32.096
672.65	31.969
672.84	30.102
673.02	32.463
673.21	29.552
673.39	31.574
673.58	30.395
673.77	31.712
673.95	31.241
674.14	32.705
674.32	31.156
674.51	34.213
674.69	31.292
674.88	31.346
675.07	31.250
675.25	33.112
675.44	30.435
675.62	31.466
675.81	29.576
675.99	34.510
676.18	30.881
676.36	32.675
676.55	30.772
676.74	32.127
676.92	31.026
677.11	32.644
677.29	30.328
677.48	33.325
677.66	33.056
677.85	32.116
678.03	33.515
678.22	33.390
678.40	32.342
678.59	33.617
678.78	31.854
678.96	33.245
679.15	31.699
679.33	34.761
679.52	33.337
679.70	33.735
679.89	33.498
680.07	34.611
680.26	33.376
680.44	34.460
680.63	33.869
680.81	34.321
681.00	32.804
681.18	34.181
681.37	33.598
681.55	35.110
681.74	35.563
681.92	34.796
682.11	34.819
682.29	34.901
682.48	35.392
682.66	35.222
682.85	33.767
683.03	34.715
683.22	35.038
683.40	35.761
683.59	35.388
683.77	34.986
683.96	33.535
684.14	35.775
684.33	33.321
684.51	37.399
684.70	35.376
684.88	36.086
685.07	33.991
685.25	35.796
685.44	33.589
685.62	36.221
685.81	35.232
685.99	36.277
686.18	34.901
686.36	37.199
686.55	35.259
686.73	36.730
686.92	36.599
687.10	37.845
687.29	37.672
687.47	38.088
687.65	37.449
687.84	38.526
688.02	39.719
688.21	39.898
688.39	37.696
688.58	39.162
688.76	38.234
688.95	38.538
689.13	38.639
689.32	39.967
689.50	38.005
689.68	40.615
689.87	40.630
690.05	40.864
690.24	38.871
690.42	40.301
690.61	40.089
690.79	40.724
690.98	42.035
691.16	41.667
691.34	39.014
691.53	41.703
691.71	39.440
691.90	43.901
692.08	41.122
692.27	43.862
692.45	44.030
692.63	43.057
692.82	43.242
693.00	42.600
693.19	40.239
693.37	43.720
693.56	42.582
693.74	43.837
693.92	42.307
694.11	44.210
694.29	44.111
694.48	45.234
694.66	45.465
694.84	46.526
695.03	45.209
695.21	46.369
695.40	46.629
695.58	45.815
695.76	46.151
695.95	46.499
696.13	47.636
696.32	47.328
696.50	47.989
696.68	47.535
696.87	47.051
697.05	47.610
697.24	46.859
697.42	47.812
697.60	46.189
697.79	49.034
697.97	46.465
698.16	47.040
698.34	47.101
698.52	49.386
698.71	47.890
698.89	48.288
699.07	48.370
699.26	48.233
699.44	48.211
699.63	49.459
699.81	48.393
699.99	49.755
700.18	48.745
700.36	50.624
700.54	48.095
700.73	49.398
700.91	48.528
701.09	49.824
701.28	50.440
701.46	50.064
701.64	49.548
701.83	51.766
702.01	49.470
702.20	50.758
702.38	51.221
702.56	50.570
702.75	50.045
702.93	51.637
703.11	49.483
703.30	52.496
703.48	51.062
703.66	53.254
703.85	50.299
704.03	52.452
704.21	52.543
704.40	51.740
704.58	51.652
704.76	53.049
704.95	52.211
705.13	54.410
705.31	52.575
705.50	54.243
705.68	51.850
705.86	53.184
706.04	54.260
706.23	53.007
706.41	52.638
706.59	52.002
706.78	52.112
706.96	52.623
707.14	51.987
707.33	56.198
707.51	53.808
707.69	52.205
707.88	53.571
708.06	55.688
708.24	54.690
708.42	52.956
708.61	54.707
708.79	54.928
708.97	54.413
709.16	53.459
709.34	55.604
709.52	53.768
709.71	54.847
709.89	55.321
710.07	52.290
710.25	56.530
710.44	54.676
710.62	55.613
710.80	53.169
710.98	55.452
711.17	53.926
711.35	53.284
711.53	52.712
711.72	53.548
711.90	55.000
712.08	54.803
712.26	52.061
712.45	53.336
712.63	54.293
712.81	55.022
712.99	54.541
713.18	53.896
713.36	53.343
713.54	53.995
713.72	53.587
713.91	54.522
714.09	53.118
714.27	53.627
714.45	55.784
714.64	56.264
714.82	53.119
715.00	54.307
715.18	54.270
715.37	55.294
715.55	53.046
715.73	55.275
715.91	55.282
716.10	53.543
716.28	54.378
716.46	56.178
716.64	53.072
716.83	55.759
717.01	53.507
717.19	55.148
717.37	55.559
717.55	55.411
717.74	55.824
717.92	54.418
718.10	51.658
718.28	55.156
718.47	53.509
718.65	56.511
718.83	54.753
719.01	55.030
719.19	53.868
719.38	54.651
719.56	55.526
719.74	54.896
719.92	53.191
720.10	54.556
720.29	53.608
720.47	55.562
720.65	54.984
720.83	57.360
721.01	54.074
721.20	56.772
721.38	55.295
721.56	58.160
721.74	55.226
721.92	56.111
722.11	55.365
722.29	57.499
722.47	56.368
722.65	56.763
722.83	56.974
723.01	57.395
723.20	56.661
723.38	57.408
723.56	57.547
723.74	57.849
723.92	55.130
724.10	56.042
724.29	53.006
724.47	56.354
724.65	56.423
724.83	56.190
725.01	54.946
725.19	55.109
725.38	57.126
725.56	56.429
725.74	56.476
725.92	57.267
726.10	56.312
726.28	58.878
726.46	58.246
726.65	58.114
726.83	53.579
727.01	57.507
727.19	59.238
727.37	55.512
727.55	55.578
727.73	55.082
727.92	56.639
728.10	57.862
728.28	57.209
728.46	57.392
728.64	57.248
728.82	55.894
729.00	56.939
729.19	56.148
729.37	55.637
729.55	55.364
729.73	55.922
729.91	56.079
730.09	57.215
730.27	56.195
730.45	56.594
730.63	57.316
730.82	55.493
731.00	58.461
731.18	54.811
731.36	57.238
731.54	55.620
731.72	57.301
731.90	58.292
732.08	57.140
732.26	54.602
732.45	56.701
732.63	57.973
732.81	55.547
732.99	56.776
733.17	58.475
733.35	57.397
733.53	57.377
733.71	58.407
733.89	58.185
734.07	57.807
734.25	57.778
734.44	56.488
734.62	58.112
734.80	57.079
734.98	59.217
735.16	57.307
735.34	60.478
735.52	57.108
735.70	59.842
735.88	59.309
736.06	58.352
736.24	59.642
736.42	62.476
736.60	58.762
736.78	61.891
736.97	60.594
737.15	61.246
737.33	58.948
737.51	60.208
737.69	59.041
737.87	59.132
738.05	60.254
738.23	61.839
738.41	57.522
738.59	60.144
738.77	59.492
738.95	60.836
739.13	61.729
739.31	58.904
739.49	60.124
739.67	59.201
739.85	61.372
740.03	60.143
740.21	60.269
740.39	57.418
740.57	59.760
740.75	60.080
740.93	62.025
741.11	60.253
741.30	59.534
741.48	59.509
741.66	62.570
741.84	62.553
742.02	61.643
742.20	62.306
742.38	60.563
742.56	63.337
742.74	61.378
742.92	59.081
743.10	56.890
743.28	62.651
743.46	60.588
743.64	63.186
743.82	61.769
744.00	64.074
744.18	62.822
744.36	62.544
744.54	58.806
744.72	60.880
744.90	63.386
745.08	62.358
745.26	60.609
745.44	62.916
745.62	61.996
745.80	59.608
745.98	64.554
746.16	64.442
746.34	62.398
746.52	61.461
746.70	61.591
746.87	63.161
747.05	60.051
747.23	62.837
747.41	64.219
747.59	63.706
747.77	61.526
747.95	61.341
748.13	62.911
748.31	64.995
748.49	61.849
748.67	61.480
748.85	59.771
749.03	61.932
749.21	64.128
749.39	63.030
749.57	61.498
749.75	64.132
749.93	66.560
750.11	64.292
750.29	60.178
750.47	64.631
750.65	62.794
750.83	63.249
751.01	60.706
751.18	60.691
751.36	61.022
751.54	64.974
751.72	60.865
751.90	61.178
752.08	61.730
752.26	65.048
752.44	62.418
752.62	60.666
752.80	63.763
752.98	61.080
753.16	61.317
753.34	62.587
753.52	61.654
753.69	63.751
753.87	62.095
754.05	63.451
754.23	62.898
754.41	62.980
754.59	62.865
754.77	60.753
754.95	60.989
755.13	63.250
755.31	59.975
755.49	64.024
755.66	64.127
755.84	62.821
756.02	60.556
756.20	65.236
756.38	59.465
756.56	63.695
756.74	60.268
756.92	62.813
757.10	61.770
757.28	65.358
757.45	62.394
757.63	63.523
757.81	60.039
757.99	65.154
758.17	61.016
758.35	63.547
758.53	62.148
758.71	61.739
758.88	58.166
759.06	60.097
759.24	60.102
759.42	60.138
759.60	59.493
759.78	58.773
759.96	53.811
760.13	58.197
760.31	53.025
760.49	54.277
760.67	48.173
760.85	53.488
761.03	50.851
761.21	49.422
761.38	47.628
761.56	52.046
761.74	50.108
761.92	56.523
762.10	47.332
762.28	53.824
762.46	45.490
762.63	50.898
762.81	49.328
762.99	49.986
763.17	50.667
763.35	53.169
763.53	50.408
763.70	53.529
763.88	52.682
764.06	50.807
764.24	49.122
764.42	51.980
764.60	51.095
764.77	53.586
764.95	53.188
765.13	53.649
765.31	52.123
765.49	52.500
765.66	52.508
765.84	53.263
766.02	51.959
766.20	56.699
766.38	53.908
766.56	55.826
766.73	53.072
766.91	56.556
767.09	56.282
767.27	61.994
767.45	56.498
767.62	58.385
767.80	58.862
767.98	60.310
768.16	56.638
768.33	59.405
768.51	57.811
768.69	61.638
768.87	58.864
769.05	61.952
769.22	57.972
769.40	60.132
769.58	63.417
769.76	62.711
769.94	59.777
770.11	60.784
770.29	64.771
770.47	65.334
770.65	59.069
770.82	64.155
771.00	61.295
771.18	63.066
771.36	67.051
771.53	62.287
771.71	64.464
771.89	65.959
772.07	62.862
772.25	65.143
772.42	60.394
772.60	67.129
772.78	63.138
772.96	66.784
773.13	62.069
773.31	64.987
773.49	62.756
773.67	64.590
773.84	62.808
774.02	65.856
774.20	61.905
774.37	65.808
774.55	60.567
774.73	69.002
774.91	65.639
775.08	65.953
775.26	68.335
775.44	67.151
775.62	60.482
775.79	65.777
775.97	59.753
776.15	63.005
776.32	64.759
776.50	65.837
776.68	64.154
776.86	68.117
777.03	60.718
777.21	67.029
777.39	62.769
777.56	63.203
777.74	60.197
777.92	68.411
778.10	63.824
778.27	61.487
778.45	65.527
778.63	67.428
778.80	62.439
778.98	66.975
779.16	64.306
779.34	66.991
779.51	61.494
779.69	65.140
779.87	66.315
780.04	67.461
780.22	61.905
780.40	65.746
780.57	66.514
780.75	66.359
780.93	73.811
781.10	64.944
781.28	70.554
781.46	60.528
781.63	59.728
781.81	64.902
781.99	59.179
782.16	64.959
782.34	56.747
782.52	68.363
782.69	68.679
782.87	70.128
783.05	64.739
783.22	66.685
783.40	61.078
783.58	67.662
783.75	61.526
783.93	65.490
784.11	62.975
784.28	67.291
784.46	62.900
784.64	70.562
784.81	65.103
784.99	68.387
785.17	62.898
785.34	66.628
785.52	61.332
785.69	66.480
785.87	61.773
786.05	62.257
786.22	63.946
786.40	67.497
786.58	61.616
786.75	66.532
786.93	64.137
787.11	67.234
787.28	65.742
787.46	68.612
787.63	64.154
787.81	63.219
787.99	66.577
788.16	62.057
788.34	61.040
788.51	67.744
788.69	62.358
788.87	62.838
789.04	55.637
789.22	59.575
789.39	60.218
789.57	59.031
789.75	53.647
789.92	60.577
790.10	57.797
790.27	63.182
790.45	56.283
790.63	64.157
790.80	56.820
790.98	60.703
791.15	60.449
791.33	61.645
791.51	56.620
791.68	62.742
791.86	63.155
792.03	64.448
792.21	58.200
792.39	61.056
792.56	61.001
792.74	65.905
792.91	60.688
793.09	62.551
793.26	56.792
793.44	66.223
793.62	58.968
793.79	63.905
793.97	59.390
794.14	61.416
794.32	63.389
794.49	71.062
794.67	54.698
794.84	58.404
795.02	58.816
795.20	63.139
795.37	58.709
795.55	61.949
795.72	61.014
795.90	58.579
796.07	58.788
796.25	64.208
796.42	59.501
796.60	62.270
796.77	58.881
796.95	61.352
797.13	53.986
797.30	61.805
797.48	55.294
797.65	59.186
797.83	58.082
798.00	61.958
798.18	55.316
798.35	65.431
798.53	59.416
798.70	63.667
798.88	59.661
799.05	60.272
799.23	58.001
799.40	57.614
799.58	58.557
799.75	61.290
799.93	55.479
800.10	63.663
800.28	61.905
800.45	61.182
800.63	58.176
800.80	61.197
800.98	61.020
801.15	59.659
801.33	61.538
801.50	63.282
801.68	54.942
801.85	56.855
802.03	58.286
802.20	64.551
802.38	58.939
802.55	58.742
802.73	56.980
802.90	60.362
803.08	57.047
803.25	58.413
803.43	60.063
803.60	66.399
803.78	57.728
803.95	62.785
804.13	60.797
804.30	58.609
804.48	58.496
804.65	61.442
804.83	59.396
805.00	62.200
805.17	58.465
805.35	62.253
805.52	54.191
805.70	63.452
805.87	56.410
806.05	60.248
806.22	55.097
806.40	54.203
806.57	60.013
806.75	60.038
806.92	59.803
807.09	63.251
807.27	57.320
807.44	66.886
807.62	56.995
807.79	57.416
807.97	53.438
808.14	60.000
808.31	54.362
808.49	60.181
808.66	57.226
808.84	59.709
809.01	61.781
809.19	58.006
809.36	59.247
809.53	62.491
809.71	51.071
809.88	61.021
810.06	61.987
810.23	54.625
810.41	58.247
810.58	63.856
810.75	60.394
810.93	62.780
811.10	61.016
811.28	59.098
811.45	53.888
811.62	61.372
811.80	60.673
811.97	53.827
812.15	60.955
812.32	59.102
812.49	61.773
812.67	60.495
812.84	53.916
813.02	65.550
813.19	49.063
813.36	58.892
813.54	56.281
813.71	59.637
813.89	52.455
814.06	64.100
814.23	57.388
814.41	45.972
814.58	52.285
814.75	59.436
814.93	48.757
815.10	58.340
815.28	56.686
815.45	55.890
815.62	57.638
815.80	51.347
815.97	54.152
816.14	57.052
816.32	57.299
816.49	51.931
816.66	51.598
816.84	52.400
817.01	54.643
817.18	58.100
817.36	55.861
817.53	63.772
817.71	43.468
817.88	58.205
818.05	48.589
818.23	54.013
818.40	50.997
818.57	56.779
818.75	51.479
818.92	50.424
819.09	52.989
819.27	57.407
819.44	55.008
819.61	51.954
819.79	49.348
819.96	50.393
820.13	47.423
820.31	49.266
820.48	55.979
820.65	51.681
820.82	48.876
821.00	55.694
821.17	42.713
821.34	52.921
821.52	56.810
821.69	53.091
821.86	50.249
822.04	52.918
822.21	53.597
822.38	52.428
822.56	53.241
822.73	52.568
822.90	51.385
823.07	51.057
823.25	51.050
823.42	51.113
823.59	49.747
823.77	49.735
823.94	49.977
824.11	48.784
824.29	48.964
824.46	49.756
824.63	48.317
824.80	49.241
824.98	48.601
825.15	50.761
825.32	47.289
825.49	49.390
825.67	46.695
825.84	51.787
826.01	48.110
826.19	51.099
826.36	45.959
826.53	52.780
826.70	49.608
826.88	50.526
827.05	49.232
827.22	49.369
827.39	50.014
827.57	50.934
827.74	48.962
827.91	51.996
828.08	50.487
828.26	50.099
828.43	46.010
828.60	54.548
828.77	47.332
828.95	50.492
829.12	43.856
829.29	46.938
829.46	46.931
829.64	46.038
829.81	43.059
829.98	48.493
830.15	44.313
830.32	48.283
830.50	46.289
830.67	49.050
830.84	45.886
831.01	47.027
831.19	46.951
831.36	54.156
831.53	53.963
831.70	53.670
831.87	46.984
832.05	51.929
832.22	49.729
832.39	42.530
832.56	46.777
832.74	50.152
832.91	46.677
833.08	57.664
833.25	44.279
833.42	49.329
833.60	46.060
833.77	46.626
833.94	48.519
834.11	46.765
834.28	46.661
834.45	49.724
834.63	43.830
834.80	48.585
834.97	45.051
835.14	48.200
835.31	46.672
835.49	45.741
835.66	47.475
835.83	46.102
836.00	42.023
836.17	50.252
836.34	44.816
836.52	45.866
836.69	49.093
836.86	47.112
837.03	47.538
837.20	48.083
837.37	41.080
837.55	43.934
837.72	46.751
837.89	48.369
838.06	56.028
838.23	56.064
838.40	51.273
838.58	44.627
838.75	49.532
838.92	57.211
839.09	54.645
839.26	60.664
839.43	57.714
839.60	63.525
839.78	68.452
839.95	63.399
840.12	54.565
840.29	62.459
840.46	58.830
840.63	58.018
840.80	57.564
840.98	52.312
841.15	54.865
841.32	51.734
841.49	44.259
841.66	58.213
841.83	55.827
842.00	50.395
842.17	62.970
842.34	53.280
842.52	60.654
842.69	69.204
842.86	53.319
843.03	70.942
843.20	61.594
843.37	56.000
843.54	54.192
843.71	67.703
843.88	63.311
844.06	74.330
844.23	68.077
844.40	57.547
844.57	70.301
844.74	70.262
844.91	69.404
845.08	65.846
845.25	80.135
845.42	84.940
845.59	69.832
845.76	66.552
845.94	70.502
846.11	86.078
846.28	83.547
846.45	85.072
846.62	94.129
846.79	72.348
846.96	77.476
847.13	86.071
847.30	86.042
847.47	76.923
847.64	76.132
847.81	78.929
847.98	86.441
848.15	83.466
848.32	81.705
848.50	75.974
848.67	79.310
848.84	87.265
849.01	68.039
849.18	92.453
849.35	86.057
849.52	97.959
849.69	84.648
849.86	94.816
850.03	78.125
850.20	85.143
850.37	83.696
850.54	91.398
850.71	89.095
850.88	79.231
851.05	86.313
851.22	88.651
851.39	98.034
851.56	81.527
851.73	97.653
851.90	102.934
852.07	75.368
852.24	95.517
852.41	84.876
852.58	91.921
852.75	91.935
852.92	74.349
853.09	83.956
853.26	84.967
853.43	87.898
853.60	86.866
853.77	79.747
853.94	75.269
854.11	116.623
854.28	94.558
854.45	87.646
854.62	97.397
854.79	94.773
854.96	89.103
855.13	89.773
855.30	76.506
855.47	103.485
855.64	84.770
855.81	92.481
855.98	73.585
856.15	78.525
856.32	81.602
856.49	91.784
856.66	95.804
856.83	78.330
857.00	88.286
857.17	106.747
857.34	103.117
857.51	96.221
857.68	83.158
857.85	81.624
858.02	87.703
858.19	95.157
858.36	93.541
858.53	97.554
858.70	77.980
858.87	88.938
859.04	65.289
859.21	92.365
859.38	91.745
859.55	108.282
859.72	88.018
859.89	91.750
860.05	105.814
860.22	110.959
860.39	81.726
860.56	95.015
860.73	95.503
860.90	117.021
861.07	111.196
861.24	91.577
861.41	108.049
861.58	103.518
861.75	101.579
861.92	127.097
862.09	86.432
862.26	82.957
862.43	106.512
862.59	96.512
862.76	112.465
862.93	92.045
863.10	109.409
863.27	86.386
863.44	103.109
863.61	86.130
863.78	67.483
863.95	104.360
864.12	80.238
864.29	89.095
864.45	79.916
864.62	73.039
864.79	80.778
864.96	72.947
865.13	92.138
865.30	89.662
865.47	96.420
865.64	95.465
865.81	90.329
865.97	83.217
866.14	101.323
866.31	83.136
866.48	103.989
866.65	75.069
866.82	83.991
866.99	108.939
867.16	82.906
867.33	102.506
867.49	80.610
867.66	140.569
867.83	101.166
868.00	75.795
868.17	103.374
868.34	101.639
868.51	102.079
868.67	94.521
868.84	92.105
869.01	80.726
869.18	111.351
869.35	106.205
869.52	74.620
869.69	90.617
869.85	91.607
870.02	81.775
870.19	81.960
870.36	94.907
870.53	83.589
870.70	90.541
870.86	101.872
871.03	93.763
871.20	90.330
871.37	98.263
871.54	76.167
871.71	73.333
871.87	72.185
872.04	70.803
872.21	94.212
872.38	90.336
872.55	91.111
872.72	83.095
872.88	118.072
873.05	80.569
873.22	91.710
873.39	80.000
873.56	85.682
873.72	83.102
873.89	82.552
874.06	88.095
874.23	76.797
874.40	105.526
874.56	109.148
874.73	80.000
874.90	91.878
875.07	94.236
875.24	84.673
875.40	63.636
875.57	78.304
875.74	86.621
875.91	102.353
876.08	71.141
876.24	80.297
876.41	126.347
876.58	98.595
876.75	80.267
876.92	92.891
877.08	79.634
877.25	101.918
877.42	95.556
877.59	83.493
877.75	107.273
877.92	73.636
878.09	78.958
878.26	72.770
878.42	74.623
878.59	91.274
878.76	78.959
878.93	118.286
879.09	74.291
879.26	81.081
879.43	64.449
879.60	79.104
879.76	94.260
879.93	67.204
880.10	72.762
880.27	64.637
880.43	68.375
880.60	66.360
880.77	52.482
880.94	60.802
881.10	54.222
881.27	48.264
881.44	42.016
881.61	45.872
881.77	42.603
881.94	36.893
882.11	35.964
882.28	38.276
882.44	32.029
882.61	43.522
882.78	42.742
882.94	45.797
883.11	39.359
883.28	42.501
883.45	40.665
883.61	43.147
883.78	39.560
883.95	42.188
884.11	38.852
884.28	37.727
>>>>>End Processed Spectral Data<<<<<
