SpectraSuite Data File
++++++++++++++++++++++++++++++++++++
Date: Wed Sep 25 03:31:46 EST 2019
User: sgrac
Dark Spectrum Present: Yes
Reference Spectrum Present: Yes
Number of Sampled Component Spectra: 1
Spectrometers: USB4E01596
Integration Time (usec): 100000 (USB4E01596)
Spectra Averaged: 3 (USB4E01596)
Boxcar Smoothing: 0 (USB4E01596)
Correct for Electrical Dark: No (USB4E01596)
Strobe/Lamp Enabled: Yes (USB4E01596)
Correct for Detector Non-linearity: No (USB4E01596)
Correct for Stray Light: No (USB4E01596)
Number of Pixels in Processed Spectrum: 3648
>>>>>Begin Processed Spectral Data<<<<<
178.44	-480.769
178.66	-480.769
178.87	-480.769
179.09	-615.625
179.30	690.323
179.52	1443.478
179.74	-702.632
179.95	-500.000
180.17	538.776
180.38	-1103.571
180.60	-2340.000
180.82	-4977.778
181.03	827.907
181.25	-2158.333
181.46	-415.278
181.68	528.205
181.89	-1016.129
182.11	10100.000
182.33	667.308
182.54	-15500.000
182.76	743.137
182.97	928.947
183.19	1187.500
183.40	676.087
183.62	1560.000
183.84	486.905
184.05	1161.538
184.27	-2581.818
184.48	29100.000
184.70	1333.333
184.91	641.509
185.13	2750.000
185.34	584.746
185.56	429.885
185.78	1322.222
185.99	572.000
186.21	426.506
186.42	1303.571
186.64	-3288.889
186.85	873.171
187.07	-1128.000
187.28	317.708
187.50	-611.628
187.72	1590.476
187.93	1118.919
188.15	2157.143
188.36	652.083
188.58	578.333
188.79	618.750
189.01	501.639
189.22	432.258
189.44	346.226
189.65	-721.951
189.87	1110.714
190.09	309.615
190.30	340.741
190.52	-456.897
190.73	346.988
190.95	-2521.429
191.16	610.870
191.38	576.923
191.59	540.741
191.81	1894.444
192.02	-3200.000
192.24	-2881.818
192.45	409.677
192.67	-7800.000
192.88	379.070
193.10	497.059
193.31	326.230
193.53	-433.871
193.74	1690.909
193.96	-5333.333
194.18	2507.143
194.39	562.712
194.61	936.111
194.82	365.909
195.04	279.825
195.25	486.667
195.47	-29400.000
195.68	518.462
195.90	441.111
196.11	1757.143
196.33	-353.571
196.54	1339.286
196.76	537.097
196.97	227.778
197.19	265.414
197.40	-449.333
197.62	733.333
197.83	2182.353
198.05	418.750
198.26	679.167
198.48	2276.471
198.69	-874.359
198.91	464.062
199.12	-15200.000
199.34	724.390
199.55	1655.000
199.77	504.762
199.98	1671.429
200.20	428.571
200.41	332.955
200.63	426.829
200.84	773.333
201.06	261.392
201.27	-515.789
201.49	-4571.429
201.70	467.532
201.91	-4571.429
202.13	-1800.000
202.34	-915.152
202.56	1347.368
202.77	760.526
202.99	814.894
203.20	401.075
203.42	635.088
203.63	538.028
203.85	-2506.667
204.06	1436.364
204.28	-6700.000
204.49	1253.333
204.71	334.409
204.92	505.882
205.14	1987.500
205.35	1050.000
205.56	1728.571
205.78	723.636
205.99	428.049
206.21	1033.333
206.42	538.983
206.64	520.312
206.85	620.930
207.07	-889.474
207.28	489.855
207.50	854.054
207.71	1075.000
207.93	377.778
208.14	690.000
208.35	740.909
208.57	2366.667
208.78	1488.000
209.00	774.468
209.21	648.889
209.43	397.087
209.64	-2763.636
209.86	782.051
210.07	-1652.381
210.28	384.783
210.50	1905.263
210.71	279.286
210.93	478.205
211.14	390.909
211.36	-2730.000
211.57	429.167
211.78	618.000
212.00	793.617
212.21	905.405
212.43	33200.000
212.64	1102.941
212.86	625.000
213.07	1039.394
213.29	-2693.333
213.50	1000.000
213.71	1444.000
213.93	1977.778
214.14	366.087
214.36	260.127
214.57	622.951
214.78	662.745
215.00	536.765
215.21	2376.923
215.43	359.596
215.64	802.326
215.86	872.727
216.07	715.556
216.28	1204.348
216.50	350.926
216.71	531.034
216.93	934.211
217.14	367.568
217.35	1288.462
217.57	295.968
217.78	1531.579
218.00	481.395
218.21	1450.000
218.42	10533.333
218.64	361.345
218.85	757.778
219.07	524.590
219.28	287.719
219.49	1081.818
219.71	436.486
219.92	1445.000
220.14	1837.500
220.35	492.424
220.56	200.000
220.78	5500.000
220.99	436.585
221.21	256.780
221.42	746.341
221.63	605.000
221.85	767.391
222.06	271.795
222.28	886.842
222.49	717.500
222.70	357.798
222.92	453.933
223.13	484.091
223.34	302.362
223.56	471.014
223.77	484.127
223.99	1088.462
224.20	276.923
224.41	286.066
224.63	309.016
224.84	423.944
225.05	416.484
225.27	401.299
225.48	357.547
225.69	207.738
225.91	740.385
226.12	275.373
226.34	258.621
226.55	198.261
226.76	221.143
226.98	167.797
227.19	175.287
227.40	161.261
227.62	135.628
227.83	122.064
228.04	121.160
228.26	83.709
228.47	100.767
228.69	85.965
228.90	77.162
229.11	69.903
229.33	65.785
229.54	53.665
229.75	55.748
229.97	52.649
230.18	42.899
230.39	52.771
230.61	53.747
230.82	60.864
231.03	45.378
231.25	54.733
231.46	49.210
231.67	59.445
231.89	54.880
232.10	64.409
232.31	68.801
232.53	71.371
232.74	75.081
232.95	79.852
233.17	68.350
233.38	60.714
233.59	83.296
233.81	77.909
234.02	64.981
234.23	62.008
234.45	72.727
234.66	61.464
234.87	70.224
235.09	58.824
235.30	62.394
235.51	68.987
235.73	60.626
235.94	52.807
236.15	58.429
236.36	54.118
236.58	47.227
236.79	55.938
237.00	64.062
237.22	66.616
237.43	69.107
237.64	50.464
237.86	64.679
238.07	64.474
238.28	60.743
238.50	52.868
238.71	53.509
238.92	61.926
239.13	54.037
239.35	66.184
239.56	45.221
239.77	65.473
239.99	46.843
240.20	68.898
240.41	53.720
240.63	49.867
240.84	54.148
241.05	38.905
241.26	38.256
241.48	40.966
241.69	41.034
241.90	37.353
242.12	27.353
242.33	36.311
242.54	35.413
242.75	27.356
242.97	39.908
243.18	27.043
243.39	29.069
243.61	32.871
243.82	40.911
244.03	34.553
244.24	34.114
244.46	30.649
244.67	36.800
244.88	38.568
245.09	32.435
245.31	39.865
245.52	32.111
245.73	38.334
245.95	53.198
246.16	30.689
246.37	29.271
246.58	31.196
246.80	28.187
247.01	30.612
247.22	29.100
247.43	28.253
247.65	35.396
247.86	34.285
248.07	28.193
248.28	35.672
248.50	35.783
248.71	31.994
248.92	37.448
249.13	35.488
249.35	36.758
249.56	34.345
249.77	35.407
249.98	30.726
250.20	40.430
250.41	33.043
250.62	41.800
250.83	30.932
251.05	37.914
251.26	28.458
251.47	32.111
251.68	30.432
251.90	25.214
252.11	34.917
252.32	31.926
252.53	38.449
252.75	27.062
252.96	30.014
253.17	29.341
253.38	26.646
253.59	30.245
253.81	27.700
254.02	26.885
254.23	29.372
254.44	29.669
254.66	30.202
254.87	34.989
255.08	30.779
255.29	33.243
255.50	30.054
255.72	34.135
255.93	36.062
256.14	41.089
256.35	29.045
256.57	31.148
256.78	28.077
256.99	30.039
257.20	38.982
257.41	33.090
257.63	34.669
257.84	32.642
258.05	28.603
258.26	27.821
258.47	30.632
258.69	24.170
258.90	20.431
259.11	33.186
259.32	26.542
259.53	27.649
259.75	24.897
259.96	25.007
260.17	23.455
260.38	29.803
260.59	26.856
260.81	29.826
261.02	29.301
261.23	32.589
261.44	31.018
261.65	33.777
261.87	30.883
262.08	33.057
262.29	34.234
262.50	30.443
262.71	26.637
262.92	34.351
263.14	26.449
263.35	27.523
263.56	29.062
263.77	30.107
263.98	23.537
264.20	29.237
264.41	20.371
264.62	25.109
264.83	22.357
265.04	31.120
265.25	21.564
265.47	25.969
265.68	27.848
265.89	22.742
266.10	25.685
266.31	30.667
266.52	23.451
266.74	26.527
266.95	23.597
267.16	24.515
267.37	27.169
267.58	24.508
267.79	22.500
268.01	27.810
268.22	25.337
268.43	28.440
268.64	32.368
268.85	25.858
269.06	21.707
269.27	31.903
269.49	26.506
269.70	26.918
269.91	27.155
270.12	26.983
270.33	26.970
270.54	24.856
270.75	23.240
270.97	26.907
271.18	21.387
271.39	22.763
271.60	29.796
271.81	25.775
272.02	24.801
272.23	26.709
272.45	21.942
272.66	25.704
272.87	23.995
273.08	26.782
273.29	27.157
273.50	26.477
273.71	24.458
273.92	26.078
274.14	26.138
274.35	28.940
274.56	29.083
274.77	27.624
274.98	26.230
275.19	25.453
275.40	21.640
275.61	22.781
275.83	27.625
276.04	30.183
276.25	26.767
276.46	30.361
276.67	31.857
276.88	28.353
277.09	25.801
277.30	29.839
277.51	25.541
277.73	25.800
277.94	21.866
278.15	28.646
278.36	30.634
278.57	24.357
278.78	24.396
278.99	26.379
279.20	24.144
279.41	28.789
279.62	21.039
279.84	23.614
280.05	21.960
280.26	21.930
280.47	26.006
280.68	26.616
280.89	24.197
281.10	25.514
281.31	23.873
281.52	26.979
281.73	18.557
281.94	21.427
282.16	22.774
282.37	24.009
282.58	20.326
282.79	28.546
283.00	26.558
283.21	22.374
283.42	23.323
283.63	24.316
283.84	22.642
284.05	24.272
284.26	22.122
284.47	23.491
284.68	24.375
284.89	23.342
285.11	22.891
285.32	23.219
285.53	21.584
285.74	26.560
285.95	25.759
286.16	25.655
286.37	23.959
286.58	25.183
286.79	23.020
287.00	25.004
287.21	22.342
287.42	23.781
287.63	22.363
287.84	24.707
288.05	25.063
288.26	24.177
288.48	25.567
288.69	22.834
288.90	22.714
289.11	28.049
289.32	24.835
289.53	22.487
289.74	16.802
289.95	20.086
290.16	24.053
290.37	21.793
290.58	19.353
290.79	20.983
291.00	20.588
291.21	20.277
291.42	19.723
291.63	20.938
291.84	23.385
292.05	21.284
292.26	20.830
292.47	22.025
292.68	19.577
292.89	24.580
293.10	20.777
293.31	21.660
293.52	17.154
293.73	19.428
293.94	20.818
294.15	18.961
294.36	19.760
294.57	22.571
294.79	20.530
295.00	16.865
295.21	22.974
295.42	22.086
295.63	20.628
295.84	17.809
296.05	16.432
296.26	19.946
296.47	19.296
296.68	22.372
296.89	21.926
297.10	21.857
297.31	19.474
297.52	19.439
297.73	19.820
297.94	20.447
298.15	19.816
298.36	21.096
298.57	19.036
298.78	21.948
298.99	18.353
299.20	21.491
299.41	22.148
299.62	21.910
299.83	18.088
300.04	24.066
300.25	22.184
300.46	22.542
300.67	22.813
300.88	22.679
301.09	14.612
301.30	21.108
301.50	16.600
301.71	23.311
301.92	22.805
302.13	17.172
302.34	19.027
302.55	19.138
302.76	19.595
302.97	19.201
303.18	21.005
303.39	17.092
303.60	18.464
303.81	21.006
304.02	16.737
304.23	16.667
304.44	14.733
304.65	19.711
304.86	20.253
305.07	19.528
305.28	18.838
305.49	22.295
305.70	20.720
305.91	15.478
306.12	19.127
306.33	18.584
306.54	18.441
306.75	18.231
306.96	24.559
307.17	19.892
307.38	18.254
307.58	18.365
307.79	18.250
308.00	16.976
308.21	16.214
308.42	18.655
308.63	18.198
308.84	16.924
309.05	16.653
309.26	17.409
309.47	17.126
309.68	17.400
309.89	17.988
310.10	15.548
310.31	17.637
310.52	17.170
310.73	20.043
310.94	17.140
311.14	16.154
311.35	18.385
311.56	17.310
311.77	17.050
311.98	17.037
312.19	17.506
312.40	15.080
312.61	18.154
312.82	18.856
313.03	18.555
313.24	17.387
313.45	22.316
313.66	16.976
313.86	20.571
314.07	16.984
314.28	20.089
314.49	15.950
314.70	18.860
314.91	21.128
315.12	18.890
315.33	18.201
315.54	15.232
315.75	14.905
315.96	15.896
316.16	13.608
316.37	19.739
316.58	16.158
316.79	18.492
317.00	20.825
317.21	18.351
317.42	16.629
317.63	18.115
317.84	18.911
318.05	18.496
318.25	17.927
318.46	17.800
318.67	17.110
318.88	19.406
319.09	19.432
319.30	14.834
319.51	16.016
319.72	16.933
319.93	15.383
320.13	15.358
320.34	16.945
320.55	18.400
320.76	17.672
320.97	18.987
321.18	20.667
321.39	17.383
321.60	15.349
321.80	21.065
322.01	18.498
322.22	18.192
322.43	14.979
322.64	13.794
322.85	17.554
323.06	19.964
323.27	17.168
323.47	17.361
323.68	16.483
323.89	15.279
324.10	16.782
324.31	14.094
324.52	17.140
324.73	17.943
324.93	15.762
325.14	18.986
325.35	18.266
325.56	17.660
325.77	18.327
325.98	16.108
326.19	16.512
326.39	13.030
326.60	16.822
326.81	16.987
327.02	14.559
327.23	16.562
327.44	21.318
327.64	13.511
327.85	13.448
328.06	19.798
328.27	20.681
328.48	18.546
328.69	14.108
328.90	16.902
329.10	15.351
329.31	18.253
329.52	15.640
329.73	20.090
329.94	14.776
330.15	18.973
330.35	17.299
330.56	17.542
330.77	16.825
330.98	16.720
331.19	16.402
331.39	15.759
331.60	15.451
331.81	16.182
332.02	16.646
332.23	14.667
332.44	13.954
332.64	16.428
332.85	15.717
333.06	18.334
333.27	12.693
333.48	17.751
333.68	15.426
333.89	16.127
334.10	15.285
334.31	19.052
334.52	15.189
334.72	17.449
334.93	15.115
335.14	15.255
335.35	15.060
335.56	19.993
335.76	14.169
335.97	18.519
336.18	14.539
336.39	21.084
336.60	18.055
336.80	16.234
337.01	15.752
337.22	16.873
337.43	16.910
337.64	21.081
337.84	18.309
338.05	18.132
338.26	19.087
338.47	20.620
338.68	13.347
338.88	19.691
339.09	16.836
339.30	18.529
339.51	19.261
339.71	20.086
339.92	14.904
340.13	18.567
340.34	16.885
340.55	18.217
340.75	17.422
340.96	16.605
341.17	20.226
341.38	16.968
341.58	19.200
341.79	18.607
342.00	15.961
342.21	18.808
342.41	16.509
342.62	18.791
342.83	22.086
343.04	16.453
343.24	19.308
343.45	21.967
343.66	19.074
343.87	20.438
344.07	17.866
344.28	21.420
344.49	20.084
344.70	24.374
344.90	18.491
345.11	18.645
345.32	19.944
345.53	20.926
345.73	19.639
345.94	24.102
346.15	23.786
346.36	22.388
346.56	23.611
346.77	23.912
346.98	22.865
347.19	24.889
347.39	21.107
347.60	23.704
347.81	22.973
348.02	24.392
348.22	21.541
348.43	24.534
348.64	21.415
348.84	23.823
349.05	23.548
349.26	27.703
349.47	21.572
349.67	23.081
349.88	25.804
350.09	25.020
350.30	27.171
350.50	25.338
350.71	26.217
350.92	26.275
351.12	23.124
351.33	27.715
351.54	25.603
351.74	26.845
351.95	24.355
352.16	27.394
352.37	27.263
352.57	26.268
352.78	25.151
352.99	26.899
353.19	26.250
353.40	28.209
353.61	27.769
353.82	27.013
354.02	27.068
354.23	28.664
354.44	30.437
354.64	26.703
354.85	27.505
355.06	27.335
355.26	25.864
355.47	28.528
355.68	30.101
355.88	30.085
356.09	28.949
356.30	27.901
356.51	29.887
356.71	29.738
356.92	26.354
357.13	31.227
357.33	30.289
357.54	29.106
357.75	27.160
357.95	31.749
358.16	27.858
358.37	31.933
358.57	27.716
358.78	32.137
358.99	30.191
359.19	30.262
359.40	31.329
359.61	30.259
359.81	31.599
360.02	32.115
360.23	28.736
360.43	30.188
360.64	29.420
360.85	30.569
361.05	28.676
361.26	32.438
361.47	28.434
361.67	30.459
361.88	27.827
362.09	29.690
362.29	27.917
362.50	30.935
362.70	29.202
362.91	31.068
363.12	29.598
363.32	30.786
363.53	30.233
363.74	31.391
363.94	29.821
364.15	32.878
364.36	30.012
364.56	31.132
364.77	31.136
364.98	32.719
365.18	29.638
365.39	31.845
365.59	28.664
365.80	30.910
366.01	29.265
366.21	30.766
366.42	29.053
366.63	32.030
366.83	29.794
367.04	28.166
367.24	30.686
367.45	28.560
367.66	28.507
367.86	30.633
368.07	29.415
368.28	29.882
368.48	29.519
368.69	29.318
368.89	31.054
369.10	30.477
369.31	30.138
369.51	30.800
369.72	31.604
369.92	33.488
370.13	27.710
370.34	30.370
370.54	26.114
370.75	30.635
370.95	27.760
371.16	29.911
371.37	28.024
371.57	29.329
371.78	29.485
371.98	30.958
372.19	28.979
372.40	30.380
372.60	30.110
372.81	29.653
373.01	27.773
373.22	31.013
373.43	31.292
373.63	30.583
373.84	29.697
374.04	29.241
374.25	29.524
374.46	31.445
374.66	31.392
374.87	31.246
375.07	28.483
375.28	28.794
375.48	30.455
375.69	32.010
375.90	28.361
376.10	29.041
376.31	28.675
376.51	29.012
376.72	28.694
376.92	29.623
377.13	29.724
377.34	30.855
377.54	29.627
377.75	30.847
377.95	29.392
378.16	30.642
378.36	28.897
378.57	29.931
378.77	29.573
378.98	30.843
379.19	30.644
379.39	30.928
379.60	30.286
379.80	31.736
380.01	31.248
380.21	29.970
380.42	29.870
380.62	30.168
380.83	31.299
381.04	29.684
381.24	30.289
381.45	30.934
381.65	29.645
381.86	31.711
382.06	30.237
382.27	31.017
382.47	30.275
382.68	30.649
382.88	29.680
383.09	29.934
383.29	30.372
383.50	31.227
383.71	30.548
383.91	31.716
384.12	30.542
384.32	32.485
384.53	30.863
384.73	30.255
384.94	30.043
385.14	30.447
385.35	30.780
385.55	30.755
385.76	29.886
385.96	31.368
386.17	32.168
386.37	31.589
386.58	31.634
386.78	32.135
386.99	30.718
387.19	31.946
387.40	31.014
387.60	32.362
387.81	31.343
388.01	31.824
388.22	31.992
388.42	32.327
388.63	31.726
388.83	31.978
389.04	31.466
389.24	32.456
389.45	32.002
389.65	31.673
389.86	31.617
390.06	33.123
390.27	30.906
390.47	32.410
390.68	31.418
390.88	32.714
391.09	32.369
391.29	33.031
391.50	31.886
391.70	31.779
391.91	32.370
392.11	31.856
392.32	32.211
392.52	32.403
392.73	32.648
392.93	33.381
393.14	32.782
393.34	33.488
393.55	32.660
393.75	32.505
393.95	32.156
394.16	32.859
394.36	32.415
394.57	33.298
394.77	32.776
394.98	33.532
395.18	33.441
395.39	34.157
395.59	33.217
395.80	33.445
396.00	33.367
396.21	33.641
396.41	32.867
396.61	34.852
396.82	32.574
397.02	33.905
397.23	33.052
397.43	33.720
397.64	32.261
397.84	34.378
398.05	32.228
398.25	32.685
398.45	32.288
398.66	33.398
398.86	32.465
399.07	34.037
399.27	32.709
399.48	31.830
399.68	32.297
399.89	32.867
400.09	33.244
400.29	33.339
400.50	33.036
400.70	32.419
400.91	32.012
401.11	32.657
401.32	32.946
401.52	33.034
401.72	32.983
401.93	34.357
402.13	32.187
402.34	33.025
402.54	31.946
402.75	33.469
402.95	32.004
403.15	33.133
403.36	31.838
403.56	31.324
403.77	32.393
403.97	32.035
404.17	31.288
404.38	31.267
404.58	31.818
404.79	32.008
404.99	31.532
405.19	32.140
405.40	31.146
405.60	31.889
405.81	31.500
406.01	32.581
406.21	31.667
406.42	32.518
406.62	32.065
406.83	32.031
407.03	32.302
407.23	32.619
407.44	32.304
407.64	32.558
407.85	31.604
408.05	32.130
408.25	31.250
408.46	32.627
408.66	32.810
408.87	32.577
409.07	31.638
409.27	31.452
409.48	31.123
409.68	31.574
409.88	30.386
410.09	31.119
410.29	30.967
410.50	32.033
410.70	30.645
410.90	31.078
411.11	30.493
411.31	30.683
411.51	30.755
411.72	31.416
411.92	30.446
412.12	31.347
412.33	30.629
412.53	31.606
412.74	30.533
412.94	32.230
413.14	31.175
413.35	30.938
413.55	30.881
413.75	31.819
413.96	30.485
414.16	30.641
414.36	29.069
414.57	30.470
414.77	29.490
414.97	31.505
415.18	30.268
415.38	29.708
415.58	29.962
415.79	30.613
415.99	29.515
416.19	30.362
416.40	29.840
416.60	30.380
416.80	28.851
417.01	29.876
417.21	29.299
417.41	29.492
417.62	29.356
417.82	28.900
418.02	29.100
418.23	29.150
418.43	29.096
418.63	29.647
418.84	29.141
419.04	29.267
419.24	29.134
419.45	29.369
419.65	29.042
419.85	28.885
420.06	29.012
420.26	28.356
420.46	28.873
420.67	28.778
420.87	28.693
421.07	28.884
421.28	28.720
421.48	28.760
421.68	28.742
421.88	28.882
422.09	28.824
422.29	29.093
422.49	28.216
422.70	28.998
422.90	28.816
423.10	29.074
423.31	28.867
423.51	29.496
423.71	28.421
423.91	28.612
424.12	28.174
424.32	28.551
424.52	28.190
424.73	28.332
424.93	28.340
425.13	27.999
425.33	28.253
425.54	28.676
425.74	28.437
425.94	29.213
426.15	28.565
426.35	28.917
426.55	28.763
426.75	29.742
426.96	28.719
427.16	28.588
427.36	29.302
427.57	29.737
427.77	28.958
427.97	29.302
428.17	28.880
428.38	29.479
428.58	28.755
428.78	29.248
428.98	28.748
429.19	28.794
429.39	28.572
429.59	28.944
429.79	28.254
430.00	28.206
430.20	28.000
430.40	28.838
430.60	27.091
430.81	28.272
431.01	28.474
431.21	28.540
431.41	28.372
431.62	28.657
431.82	28.066
432.02	28.718
432.22	27.616
432.43	28.086
432.63	28.071
432.83	27.996
433.03	27.467
433.24	27.836
433.44	26.940
433.64	28.047
433.84	27.863
434.05	27.749
434.25	27.403
434.45	27.793
434.65	27.877
434.85	28.140
435.06	27.753
435.26	28.117
435.46	28.312
435.66	28.860
435.87	27.825
436.07	28.658
436.27	27.991
436.47	28.441
436.67	27.929
436.88	28.362
437.08	28.078
437.28	28.002
437.48	27.691
437.69	28.438
437.89	28.038
438.09	27.637
438.29	27.559
438.49	27.924
438.70	27.543
438.90	27.586
439.10	27.651
439.30	27.693
439.50	27.607
439.71	27.721
439.91	27.453
440.11	27.206
440.31	27.123
440.51	27.475
440.72	26.945
440.92	27.458
441.12	27.548
441.32	27.561
441.52	27.886
441.72	27.838
441.93	27.481
442.13	27.937
442.33	28.026
442.53	28.246
442.73	28.235
442.94	28.261
443.14	28.029
443.34	28.495
443.54	27.431
443.74	28.135
443.94	27.423
444.15	27.757
444.35	27.279
444.55	27.314
444.75	27.351
444.95	27.204
445.15	26.868
445.36	26.688
445.56	26.534
445.76	27.534
445.96	26.656
446.16	27.308
446.36	26.814
446.57	26.915
446.77	26.825
446.97	27.047
447.17	26.476
447.37	27.419
447.57	27.111
447.77	27.686
447.98	27.554
448.18	27.397
448.38	27.633
448.58	28.331
448.78	27.909
448.98	28.083
449.18	27.932
449.39	27.552
449.59	27.672
449.79	28.322
449.99	27.953
450.19	28.409
450.39	28.234
450.59	27.679
450.79	27.710
451.00	28.227
451.20	28.714
451.40	27.971
451.60	27.488
451.80	27.627
452.00	26.911
452.20	27.671
452.40	27.486
452.61	27.795
452.81	27.295
453.01	27.022
453.21	27.040
453.41	27.807
453.61	26.761
453.81	27.287
454.01	27.488
454.21	27.596
454.42	27.705
454.62	27.734
454.82	27.248
455.02	27.741
455.22	27.390
455.42	27.687
455.62	27.614
455.82	26.989
456.02	26.739
456.23	27.563
456.43	27.731
456.63	27.629
456.83	27.624
457.03	26.830
457.23	26.854
457.43	27.556
457.63	27.108
457.83	27.443
458.03	26.341
458.23	27.099
458.43	26.893
458.64	26.752
458.84	26.437
459.04	26.315
459.24	26.671
459.44	26.232
459.64	26.132
459.84	25.928
460.04	25.814
460.24	26.548
460.44	26.527
460.64	26.947
460.84	26.602
461.04	27.069
461.24	26.807
461.45	26.939
461.65	27.155
461.85	27.508
462.05	27.076
462.25	27.413
462.45	27.400
462.65	27.602
462.85	27.015
463.05	27.787
463.25	27.640
463.45	27.394
463.65	27.210
463.85	26.918
464.05	26.710
464.25	26.905
464.45	27.155
464.65	26.857
464.85	26.893
465.05	26.539
465.26	26.490
465.46	26.173
465.66	27.161
465.86	27.165
466.06	26.320
466.26	26.365
466.46	26.518
466.66	26.565
466.86	26.418
467.06	26.538
467.26	26.132
467.46	26.578
467.66	26.320
467.86	26.483
468.06	26.295
468.26	26.699
468.46	26.770
468.66	26.405
468.86	26.330
469.06	27.149
469.26	26.741
469.46	26.516
469.66	27.036
469.86	27.118
470.06	26.528
470.26	26.465
470.46	26.489
470.66	27.109
470.86	26.450
471.06	26.451
471.26	26.531
471.46	26.798
471.66	26.288
471.86	27.177
472.06	26.944
472.26	26.940
472.46	27.285
472.66	26.719
472.86	26.233
473.06	26.687
473.26	26.890
473.46	26.651
473.66	25.680
473.86	26.767
474.06	25.951
474.26	26.690
474.46	26.332
474.66	26.477
474.86	26.208
475.06	27.232
475.26	26.957
475.46	27.264
475.66	26.092
475.86	26.755
476.06	26.947
476.26	26.398
476.46	26.163
476.66	26.625
476.86	26.014
477.06	26.128
477.26	25.629
477.46	26.545
477.65	25.963
477.85	26.491
478.05	25.985
478.25	26.754
478.45	26.246
478.65	26.345
478.85	26.506
479.05	26.690
479.25	26.072
479.45	26.394
479.65	26.306
479.85	26.690
480.05	26.165
480.25	26.720
480.45	26.158
480.65	26.967
480.85	26.373
481.05	26.445
481.25	25.759
481.44	26.223
481.64	25.838
481.84	26.424
482.04	26.283
482.24	25.891
482.44	25.795
482.64	25.875
482.84	25.655
483.04	25.650
483.24	25.366
483.44	24.851
483.64	24.265
483.84	24.653
484.04	25.230
484.23	25.922
484.43	25.891
484.63	26.803
484.83	27.413
485.03	28.675
485.23	28.126
485.43	28.098
485.63	27.272
485.83	27.990
486.03	27.691
486.23	28.183
486.42	27.182
486.62	27.227
486.82	26.336
487.02	26.444
487.22	25.977
487.42	25.930
487.62	25.428
487.82	25.864
488.02	25.738
488.22	26.346
488.41	26.206
488.61	26.755
488.81	26.368
489.01	26.863
489.21	26.959
489.41	27.146
489.61	27.226
489.81	27.489
490.01	27.112
490.20	27.361
490.40	26.996
490.60	26.969
490.80	26.356
491.00	26.094
491.20	25.624
491.40	25.607
491.60	25.398
491.79	25.812
491.99	25.549
492.19	26.147
492.39	25.808
492.59	26.487
492.79	26.040
492.99	26.563
493.19	26.690
493.38	27.331
493.58	27.296
493.78	27.830
493.98	27.462
494.18	27.322
494.38	27.128
494.58	27.359
494.77	26.441
494.97	26.479
495.17	26.810
495.37	26.454
495.57	26.102
495.77	26.774
495.96	26.282
496.16	26.851
496.36	26.330
496.56	25.979
496.76	25.848
496.96	26.052
497.15	26.212
497.35	26.106
497.55	25.899
497.75	26.480
497.95	26.150
498.15	26.498
498.34	26.130
498.54	26.703
498.74	26.814
498.94	26.588
499.14	26.113
499.34	26.114
499.53	25.990
499.73	26.642
499.93	26.870
500.13	26.284
500.33	26.506
500.52	26.399
500.72	26.158
500.92	26.610
501.12	26.623
501.32	26.805
501.52	26.524
501.71	26.813
501.91	26.723
502.11	26.850
502.31	26.370
502.51	26.550
502.70	26.551
502.90	26.558
503.10	26.548
503.30	26.341
503.50	26.857
503.69	26.604
503.89	26.344
504.09	26.835
504.29	26.620
504.48	26.677
504.68	26.386
504.88	26.328
505.08	26.682
505.28	26.703
505.47	26.629
505.67	26.680
505.87	26.544
506.07	26.528
506.27	26.510
506.46	27.003
506.66	26.338
506.86	27.026
507.06	27.134
507.25	26.586
507.45	27.034
507.65	26.289
507.85	26.799
508.04	26.818
508.24	26.994
508.44	26.837
508.64	26.444
508.83	26.808
509.03	26.528
509.23	26.449
509.43	26.664
509.63	26.335
509.82	26.976
510.02	27.022
510.22	27.177
510.42	27.133
510.61	27.231
510.81	26.939
511.01	26.583
511.21	27.184
511.40	26.625
511.60	27.135
511.80	26.664
511.99	26.990
512.19	26.621
512.39	27.176
512.59	26.709
512.78	27.279
512.98	26.648
513.18	27.261
513.38	27.034
513.57	27.387
513.77	27.085
513.97	27.307
514.17	27.209
514.36	27.469
514.56	27.583
514.76	27.334
514.95	26.952
515.15	27.306
515.35	27.526
515.55	26.791
515.74	27.325
515.94	27.185
516.14	27.149
516.33	27.521
516.53	27.009
516.73	27.007
516.93	26.930
517.12	26.586
517.32	26.974
517.52	26.943
517.71	27.148
517.91	26.859
518.11	26.256
518.30	26.487
518.50	26.018
518.70	26.596
518.90	26.879
519.09	26.811
519.29	26.984
519.49	27.496
519.68	27.104
519.88	27.306
520.08	27.111
520.27	27.592
520.47	27.753
520.67	27.817
520.86	27.694
521.06	27.921
521.26	27.197
521.45	27.483
521.65	27.258
521.85	26.780
522.04	27.399
522.24	27.672
522.44	27.179
522.63	27.722
522.83	27.211
523.03	27.721
523.22	27.708
523.42	27.608
523.62	27.341
523.81	27.137
524.01	27.773
524.21	27.343
524.40	26.900
524.60	27.455
524.80	26.802
524.99	26.905
525.19	26.697
525.39	26.752
525.58	26.270
525.78	26.744
525.98	27.174
526.17	26.887
526.37	26.731
526.57	27.499
526.76	27.242
526.96	27.014
527.15	27.293
527.35	27.317
527.55	27.234
527.74	27.328
527.94	26.824
528.14	26.447
528.33	26.061
528.53	26.317
528.72	26.377
528.92	27.055
529.12	26.939
529.31	27.184
529.51	27.466
529.71	28.128
529.90	27.756
530.10	28.201
530.29	28.299
530.49	28.872
530.69	28.828
530.88	29.172
531.08	28.158
531.28	28.385
531.47	27.576
531.67	27.647
531.86	27.410
532.06	27.467
532.26	27.206
532.45	27.710
532.65	27.053
532.84	27.231
533.04	26.470
533.24	26.773
533.43	26.657
533.63	27.594
533.82	27.288
534.02	27.742
534.22	27.460
534.41	28.085
534.61	27.714
534.80	28.198
535.00	28.127
535.19	28.562
535.39	28.135
535.59	28.348
535.78	27.928
535.98	27.844
536.17	27.536
536.37	27.570
536.57	27.099
536.76	27.199
536.96	27.402
537.15	27.740
537.35	27.156
537.54	27.816
537.74	27.758
537.93	27.808
538.13	28.013
538.33	28.410
538.52	28.264
538.72	28.466
538.91	28.670
539.11	28.272
539.30	28.054
539.50	27.998
539.70	28.319
539.89	28.013
540.09	27.604
540.28	27.786
540.48	27.135
540.67	27.419
540.87	27.366
541.06	26.694
541.26	26.527
541.45	26.917
541.65	27.494
541.85	27.537
542.04	27.684
542.24	28.018
542.43	27.940
542.63	28.349
542.82	28.027
543.02	28.867
543.21	28.769
543.41	29.228
543.60	28.732
543.80	29.465
543.99	28.706
544.19	28.793
544.38	28.568
544.58	28.607
544.77	28.315
544.97	28.575
545.16	28.797
545.36	28.686
545.56	28.616
545.75	28.839
545.95	28.536
546.14	28.322
546.34	28.161
546.53	28.386
546.73	27.623
546.92	28.503
547.12	28.081
547.31	28.710
547.51	28.413
547.70	29.039
547.90	29.362
548.09	28.847
548.29	28.833
548.48	28.678
548.68	28.859
548.87	30.045
549.07	29.444
549.26	29.714
549.46	29.333
549.65	29.503
549.84	29.206
550.04	29.240
550.23	29.627
550.43	29.289
550.62	29.048
550.82	28.991
551.01	29.463
551.21	29.242
551.40	29.108
551.60	29.425
551.79	29.709
551.99	29.582
552.18	29.379
552.38	29.209
552.57	29.881
552.77	29.059
552.96	29.098
553.16	29.619
553.35	29.483
553.54	29.992
553.74	29.428
553.93	29.890
554.13	29.705
554.32	29.536
554.52	30.077
554.71	30.852
554.91	30.087
555.10	30.368
555.29	30.162
555.49	30.495
555.68	30.019
555.88	30.096
556.07	29.621
556.27	29.892
556.46	30.356
556.66	30.373
556.85	30.280
557.04	30.210
557.24	30.663
557.43	31.263
557.63	30.612
557.82	30.420
558.02	30.459
558.21	30.801
558.40	30.628
558.60	31.361
558.79	30.687
558.99	30.926
559.18	31.275
559.38	30.694
559.57	30.620
559.76	30.447
559.96	31.947
560.15	30.925
560.35	30.731
560.54	30.659
560.73	31.056
560.93	30.787
561.12	31.381
561.32	31.088
561.51	31.577
561.70	30.975
561.90	30.784
562.09	31.372
562.29	31.203
562.48	31.538
562.67	32.267
562.87	31.622
563.06	31.307
563.26	31.793
563.45	31.253
563.64	31.283
563.84	32.156
564.03	31.816
564.23	31.850
564.42	31.572
564.61	31.168
564.81	31.838
565.00	31.851
565.20	31.622
565.39	31.833
565.58	31.548
565.78	31.111
565.97	31.937
566.16	31.563
566.36	31.924
566.55	32.028
566.74	31.452
566.94	31.805
567.13	32.188
567.33	32.446
567.52	32.623
567.71	32.400
567.91	32.427
568.10	32.390
568.29	32.393
568.49	33.350
568.68	32.972
568.87	32.562
569.07	32.644
569.26	32.862
569.45	32.861
569.65	32.556
569.84	32.796
570.04	32.424
570.23	32.102
570.42	32.000
570.62	32.468
570.81	32.560
571.00	32.638
571.20	32.685
571.39	32.519
571.58	32.339
571.78	32.859
571.97	32.644
572.16	32.734
572.36	31.969
572.55	32.573
572.74	32.330
572.94	32.333
573.13	33.138
573.32	32.734
573.51	32.611
573.71	33.315
573.90	33.134
574.09	32.975
574.29	33.075
574.48	32.515
574.67	32.417
574.87	33.537
575.06	32.379
575.25	32.637
575.45	32.720
575.64	32.913
575.83	32.459
576.03	33.826
576.22	33.340
576.41	32.731
576.60	32.998
576.80	32.667
576.99	33.133
577.18	33.233
577.38	33.556
577.57	32.762
577.76	33.248
577.95	33.917
578.15	32.954
578.34	33.395
578.53	32.997
578.73	33.177
578.92	33.538
579.11	33.775
579.30	34.089
579.50	33.833
579.69	33.228
579.88	33.711
580.08	34.038
580.27	33.526
580.46	33.032
580.65	33.309
580.85	32.801
581.04	33.541
581.23	33.326
581.42	33.084
581.62	33.295
581.81	33.675
582.00	33.973
582.19	33.625
582.39	33.456
582.58	33.483
582.77	33.179
582.96	33.695
583.16	31.784
583.35	32.881
583.54	33.104
583.73	33.435
583.93	32.961
584.12	33.182
584.31	33.350
584.50	32.742
584.70	33.385
584.89	33.029
585.08	32.992
585.27	33.968
585.47	33.248
585.66	33.204
585.85	32.909
586.04	32.827
586.24	33.287
586.43	32.713
586.62	32.784
586.81	32.864
587.00	32.965
587.20	33.203
587.39	32.233
587.58	32.201
587.77	33.100
587.97	32.589
588.16	32.856
588.35	32.752
588.54	32.763
588.73	32.905
588.93	32.755
589.12	32.855
589.31	33.191
589.50	32.349
589.69	32.814
589.89	32.036
590.08	32.334
590.27	32.737
590.46	33.283
590.65	33.267
590.85	32.305
591.04	32.773
591.23	32.815
591.42	33.346
591.61	33.699
591.81	33.222
592.00	32.916
592.19	33.226
592.38	33.174
592.57	33.091
592.77	33.137
592.96	33.069
593.15	32.839
593.34	33.202
593.53	33.286
593.72	32.890
593.92	32.711
594.11	33.413
594.30	32.513
594.49	32.812
594.68	33.451
594.87	33.471
595.07	32.599
595.26	32.983
595.45	33.183
595.64	33.795
595.83	32.893
596.02	33.041
596.22	33.207
596.41	32.711
596.60	32.277
596.79	32.598
596.98	32.769
597.17	32.847
597.37	33.206
597.56	32.440
597.75	33.036
597.94	32.887
598.13	33.191
598.32	33.345
598.51	33.335
598.71	33.284
598.90	33.097
599.09	33.304
599.28	33.800
599.47	33.463
599.66	33.467
599.85	33.654
600.05	34.180
600.24	33.383
600.43	33.945
600.62	34.278
600.81	34.213
601.00	34.111
601.19	34.105
601.38	33.456
601.58	34.518
601.77	33.656
601.96	34.341
602.15	33.899
602.34	34.150
602.53	33.880
602.72	33.305
602.91	33.930
603.10	34.078
603.30	33.496
603.49	33.608
603.68	33.838
603.87	33.728
604.06	32.860
604.25	34.230
604.44	33.565
604.63	32.826
604.82	34.120
605.01	33.083
605.21	34.215
605.40	34.109
605.59	33.977
605.78	33.939
605.97	33.812
606.16	34.510
606.35	34.511
606.54	34.358
606.73	34.703
606.92	34.423
607.11	34.162
607.30	34.042
607.50	35.331
607.69	33.614
607.88	35.133
608.07	33.865
608.26	33.861
608.45	33.803
608.64	33.517
608.83	33.959
609.02	33.686
609.21	33.752
609.40	34.049
609.59	33.474
609.78	33.059
609.97	33.315
610.16	33.889
610.35	33.987
610.55	33.298
610.74	34.088
610.93	33.933
611.12	34.013
611.31	33.979
611.50	33.404
611.69	34.452
611.88	34.009
612.07	34.329
612.26	33.719
612.45	34.318
612.64	33.951
612.83	33.896
613.02	33.650
613.21	33.690
613.40	34.180
613.59	34.556
613.78	33.640
613.97	34.291
614.16	33.498
614.35	33.899
614.54	33.279
614.73	33.427
614.92	33.911
615.11	34.005
615.30	33.822
615.49	34.530
615.68	33.566
615.87	34.119
616.07	32.471
616.26	33.799
616.45	33.854
616.64	32.751
616.83	33.226
617.02	32.842
617.21	33.400
617.40	34.021
617.59	32.800
617.78	33.403
617.97	32.927
618.16	33.018
618.35	32.813
618.54	32.803
618.73	33.151
618.92	32.416
619.11	32.470
619.30	33.704
619.49	33.226
619.68	33.338
619.86	32.988
620.05	33.013
620.24	32.348
620.43	32.937
620.62	31.880
620.81	32.413
621.00	33.838
621.19	33.856
621.38	33.212
621.57	33.466
621.76	32.766
621.95	33.827
622.14	32.801
622.33	32.851
622.52	32.968
622.71	32.862
622.90	32.508
623.09	32.163
623.28	32.663
623.47	32.686
623.66	32.341
623.85	32.219
624.04	31.641
624.23	32.533
624.42	33.146
624.61	32.405
624.80	31.635
624.99	33.774
625.18	31.409
625.36	32.139
625.55	32.836
625.74	32.385
625.93	32.771
626.12	32.372
626.31	32.569
626.50	32.785
626.69	31.922
626.88	32.146
627.07	32.526
627.26	31.832
627.45	31.791
627.64	32.430
627.83	31.587
628.02	32.236
628.20	32.051
628.39	32.515
628.58	32.701
628.77	32.634
628.96	32.317
629.15	32.100
629.34	32.858
629.53	32.529
629.72	32.201
629.91	32.806
630.10	32.466
630.29	32.308
630.47	31.768
630.66	32.770
630.85	31.952
631.04	32.835
631.23	32.576
631.42	33.007
631.61	31.968
631.80	31.772
631.99	33.306
632.18	32.492
632.36	32.003
632.55	32.353
632.74	31.117
632.93	32.733
633.12	31.547
633.31	31.484
633.50	32.100
633.69	32.097
633.88	31.673
634.06	32.825
634.25	32.075
634.44	32.179
634.63	32.299
634.82	32.645
635.01	32.178
635.20	32.494
635.39	32.378
635.57	32.720
635.76	32.276
635.95	32.220
636.14	31.428
636.33	31.992
636.52	32.259
636.71	32.299
636.89	32.421
637.08	31.909
637.27	31.793
637.46	31.349
637.65	32.139
637.84	31.828
638.03	32.660
638.21	31.972
638.40	32.253
638.59	32.469
638.78	32.163
638.97	32.416
639.16	33.080
639.34	31.685
639.53	32.023
639.72	32.560
639.91	31.697
640.10	31.371
640.29	32.789
640.47	32.300
640.66	32.610
640.85	32.627
641.04	31.231
641.23	31.394
641.42	30.896
641.60	31.563
641.79	31.847
641.98	32.012
642.17	32.242
642.36	32.744
642.54	30.871
642.73	31.924
642.92	32.467
643.11	31.747
643.30	31.696
643.49	32.183
643.67	30.985
643.86	31.811
644.05	31.848
644.24	32.275
644.43	31.775
644.61	31.877
644.80	32.339
644.99	32.130
645.18	31.763
645.37	31.163
645.55	30.862
645.74	32.204
645.93	32.176
646.12	32.810
646.31	32.218
646.49	32.060
646.68	33.324
646.87	31.386
647.06	31.679
647.24	32.135
647.43	32.422
647.62	33.414
647.81	31.595
648.00	31.911
648.18	30.050
648.37	32.449
648.56	31.873
648.75	32.018
648.93	31.882
649.12	31.680
649.31	31.238
649.50	32.326
649.68	31.587
649.87	31.195
650.06	30.732
650.25	31.491
650.43	31.154
650.62	32.039
650.81	29.948
651.00	31.764
651.18	31.736
651.37	32.062
651.56	30.035
651.75	31.559
651.93	31.123
652.12	31.349
652.31	30.926
652.50	31.883
652.68	31.610
652.87	32.365
653.06	31.385
653.25	32.236
653.43	32.125
653.62	32.295
653.81	30.732
654.00	31.401
654.18	31.016
654.37	32.385
654.56	30.181
654.74	31.981
654.93	31.384
655.12	31.496
655.31	31.017
655.49	31.707
655.68	29.290
655.87	31.400
656.05	29.400
656.24	30.044
656.43	28.671
656.62	30.430
656.80	30.165
656.99	30.181
657.18	29.832
657.36	30.125
657.55	29.064
657.74	31.777
657.93	30.321
658.11	30.987
658.30	30.287
658.49	29.089
658.67	28.448
658.86	29.376
659.05	29.233
659.23	29.693
659.42	29.334
659.61	29.843
659.79	28.878
659.98	30.055
660.17	29.399
660.35	30.180
660.54	29.919
660.73	30.005
660.91	28.710
661.10	29.024
661.29	28.378
661.47	29.710
661.66	28.848
661.85	29.823
662.03	27.830
662.22	29.447
662.41	28.070
662.59	28.582
662.78	28.068
662.97	27.644
663.15	26.771
663.34	28.124
663.53	27.202
663.71	28.254
663.90	26.557
664.09	28.352
664.27	27.940
664.46	27.455
664.65	26.909
664.83	26.812
665.02	25.638
665.21	25.853
665.39	25.220
665.58	27.702
665.77	26.340
665.95	26.920
666.14	25.160
666.32	26.748
666.51	24.519
666.70	25.617
666.88	25.682
667.07	26.650
667.26	23.798
667.44	25.068
667.63	25.412
667.81	25.388
668.00	25.371
668.19	28.226
668.37	25.795
668.56	28.297
668.75	23.830
668.93	26.505
669.12	25.216
669.30	26.783
669.49	25.277
669.68	26.218
669.86	25.981
670.05	24.187
670.23	24.135
670.42	26.597
670.61	25.987
670.79	26.382
670.98	24.247
671.16	26.758
671.35	24.254
671.54	26.166
671.72	23.818
671.91	26.149
672.09	22.730
672.28	27.136
672.46	25.075
672.65	26.038
672.84	26.203
673.02	25.326
673.21	22.788
673.39	25.957
673.58	25.183
673.77	25.816
673.95	25.177
674.14	26.346
674.32	23.641
674.51	26.335
674.69	24.501
674.88	24.605
675.07	25.050
675.25	27.514
675.44	23.880
675.62	24.679
675.81	24.181
675.99	28.871
676.18	26.276
676.36	26.128
676.55	23.448
676.74	25.945
676.92	26.613
677.11	26.301
677.29	23.736
677.48	26.497
677.66	26.675
677.85	26.155
678.03	26.268
678.22	26.483
678.40	26.284
678.59	26.478
678.78	24.526
678.96	26.023
679.15	24.849
679.33	27.862
679.52	26.876
679.70	26.862
679.89	26.048
680.07	27.736
680.26	25.409
680.44	27.505
680.63	26.973
680.81	27.762
681.00	25.271
681.18	27.258
681.37	27.035
681.55	28.090
681.74	27.186
681.92	28.243
682.11	28.646
682.29	27.467
682.48	27.093
682.66	28.060
682.85	26.637
683.03	27.054
683.22	27.838
683.40	29.830
683.59	27.905
683.77	28.714
683.96	25.360
684.14	28.311
684.33	26.729
684.51	30.304
684.70	29.422
684.88	30.389
685.07	27.116
685.25	29.826
685.44	26.511
685.62	31.389
685.81	28.566
685.99	30.394
686.18	28.767
686.36	29.615
686.55	27.288
686.73	30.995
686.92	29.327
687.10	30.829
687.29	31.437
687.47	31.192
687.65	30.659
687.84	30.935
688.02	31.559
688.21	32.483
688.39	29.565
688.58	32.320
688.76	30.197
688.95	31.596
689.13	30.350
689.32	32.931
689.50	31.531
689.68	33.869
689.87	31.014
690.05	32.073
690.24	33.123
690.42	34.496
690.61	34.136
690.79	34.640
690.98	33.901
691.16	34.225
691.34	31.338
691.53	34.384
691.71	33.185
691.90	35.714
692.08	32.648
692.27	37.290
692.45	36.982
692.63	36.212
692.82	35.263
693.00	36.680
693.19	35.001
693.37	37.735
693.56	35.410
693.74	38.354
693.92	35.219
694.11	38.735
694.29	38.538
694.48	38.428
694.66	38.968
694.84	38.683
695.03	37.346
695.21	41.815
695.40	38.569
695.58	40.240
695.76	38.959
695.95	39.769
696.13	39.258
696.32	41.732
696.50	42.248
696.68	42.119
696.87	39.384
697.05	41.479
697.24	40.647
697.42	42.282
697.60	40.290
697.79	42.859
697.97	41.759
698.16	41.687
698.34	41.269
698.52	43.518
698.71	41.598
698.89	42.986
699.07	42.746
699.26	42.197
699.44	42.434
699.63	43.506
699.81	43.241
699.99	42.587
700.18	42.869
700.36	44.150
700.54	44.692
700.73	42.835
700.91	44.914
701.09	44.122
701.28	45.206
701.46	46.169
701.64	44.314
701.83	45.376
702.01	44.969
702.20	46.116
702.38	46.548
702.56	47.857
702.75	44.780
702.93	46.802
703.11	44.179
703.30	46.759
703.48	47.248
703.66	47.608
703.85	45.703
704.03	48.884
704.21	48.114
704.40	48.277
704.58	47.257
704.76	49.611
704.95	47.087
705.13	49.691
705.31	48.509
705.50	49.158
705.68	49.179
705.86	50.000
706.04	49.745
706.23	49.423
706.41	50.181
706.59	49.923
706.78	47.611
706.96	48.519
707.14	48.832
707.33	51.681
707.51	49.453
707.69	48.978
707.88	48.193
708.06	52.282
708.24	50.860
708.42	50.152
708.61	50.983
708.79	51.804
708.97	49.880
709.16	52.113
709.34	52.383
709.52	50.586
709.71	49.489
709.89	53.276
710.07	49.625
710.25	53.428
710.44	50.100
710.62	50.431
710.80	49.571
710.98	50.943
711.17	50.128
711.35	51.263
711.53	50.750
711.72	51.063
711.90	51.399
712.08	50.961
712.26	50.371
712.45	51.719
712.63	50.878
712.81	52.464
712.99	52.083
713.18	51.975
713.36	51.195
713.54	53.831
713.72	50.223
713.91	52.610
714.09	50.579
714.27	50.099
714.45	51.585
714.64	52.188
714.82	51.961
715.00	52.206
715.18	51.640
715.37	53.034
715.55	50.966
715.73	51.401
715.91	51.517
716.10	51.324
716.28	50.103
716.46	52.724
716.64	49.194
716.83	51.372
717.01	51.379
717.19	53.044
717.37	52.063
717.55	51.923
717.74	50.214
717.92	51.117
718.10	50.356
718.28	52.763
718.47	50.976
718.65	53.492
718.83	52.395
719.01	52.118
719.19	51.064
719.38	50.861
719.56	53.332
719.74	53.662
719.92	51.238
720.10	53.174
720.29	51.602
720.47	52.848
720.65	53.197
720.83	51.506
721.01	52.806
721.20	54.436
721.38	53.435
721.56	53.377
721.74	51.878
721.92	55.887
722.11	53.364
722.29	54.312
722.47	51.851
722.65	54.040
722.83	55.679
723.01	55.762
723.20	53.558
723.38	53.563
723.56	53.881
723.74	55.330
723.92	53.977
724.10	53.590
724.29	51.682
724.47	55.922
724.65	55.707
724.83	55.823
725.01	54.456
725.19	54.292
725.38	54.049
725.56	55.055
725.74	53.684
725.92	54.730
726.10	54.387
726.28	55.761
726.46	57.107
726.65	55.578
726.83	52.251
727.01	54.621
727.19	57.287
727.37	54.040
727.55	53.392
727.73	53.330
727.92	54.907
728.10	56.120
728.28	52.354
728.46	54.252
728.64	54.879
728.82	54.413
729.00	53.701
729.19	56.273
729.37	52.996
729.55	53.777
729.73	54.212
729.91	54.211
730.09	54.252
730.27	54.009
730.45	53.918
730.63	54.817
730.82	53.965
731.00	57.748
731.18	54.382
731.36	57.778
731.54	55.247
731.72	53.676
731.90	53.145
732.08	53.958
732.26	53.216
732.45	55.437
732.63	53.736
732.81	53.256
732.99	52.777
733.17	55.968
733.35	54.252
733.53	55.181
733.71	55.724
733.89	54.352
734.07	55.239
734.25	54.822
734.44	53.108
734.62	55.398
734.80	54.464
734.98	56.847
735.16	56.743
735.34	57.351
735.52	58.390
735.70	57.452
735.88	57.030
736.06	58.054
736.24	56.830
736.42	58.111
736.60	58.664
736.78	59.080
736.97	59.285
737.15	61.145
737.33	55.435
737.51	57.008
737.69	58.684
737.87	58.639
738.05	59.761
738.23	59.270
738.41	57.102
738.59	60.641
738.77	59.596
738.95	57.783
739.13	59.146
739.31	58.054
739.49	59.056
739.67	59.734
739.85	58.083
740.03	60.069
740.21	59.000
740.39	56.792
740.57	61.086
740.75	57.444
740.93	57.002
741.11	59.217
741.30	59.304
741.48	59.075
741.66	60.277
741.84	59.895
742.02	58.842
742.20	58.623
742.38	57.912
742.56	63.910
742.74	56.904
742.92	59.190
743.10	58.960
743.28	62.398
743.46	61.404
743.64	61.673
743.82	56.528
744.00	62.288
744.18	60.455
744.36	60.958
744.54	59.940
744.72	59.452
744.90	64.686
745.08	60.742
745.26	59.486
745.44	61.775
745.62	59.751
745.80	60.343
745.98	60.732
746.16	64.125
746.34	60.295
746.52	62.852
746.70	62.043
746.87	62.328
747.05	60.789
747.23	61.995
747.41	62.984
747.59	61.526
747.77	59.425
747.95	63.911
748.13	62.017
748.31	63.345
748.49	61.783
748.67	61.003
748.85	61.392
749.03	62.540
749.21	63.624
749.39	66.592
749.57	60.162
749.75	61.662
749.93	61.805
750.11	61.293
750.29	60.914
750.47	62.013
750.65	62.606
750.83	61.199
751.01	57.657
751.18	59.384
751.36	60.701
751.54	62.699
751.72	60.079
751.90	61.271
752.08	64.645
752.26	60.254
752.44	64.286
752.62	60.573
752.80	65.426
752.98	63.346
753.16	62.646
753.34	64.304
753.52	63.474
753.69	61.265
753.87	63.922
754.05	60.031
754.23	60.263
754.41	62.279
754.59	60.752
754.77	60.911
754.95	61.372
755.13	63.250
755.31	59.404
755.49	63.266
755.66	58.767
755.84	60.666
756.02	63.854
756.20	62.556
756.38	58.925
756.56	64.441
756.74	57.621
756.92	63.307
757.10	60.921
757.28	65.089
757.45	65.134
757.63	61.534
757.81	61.336
757.99	61.905
758.17	62.137
758.35	65.191
758.53	61.021
758.71	58.482
758.88	58.448
759.06	59.451
759.24	60.673
759.42	59.168
759.60	58.524
759.78	55.134
759.96	54.299
760.13	58.966
760.31	54.181
760.49	55.169
760.67	46.563
760.85	55.247
761.03	49.954
761.21	50.912
761.38	46.229
761.56	51.591
761.74	49.029
761.92	56.903
762.10	47.543
762.28	51.206
762.46	48.835
762.63	49.421
762.81	48.516
762.99	52.593
763.17	48.054
763.35	49.468
763.53	46.922
763.70	52.594
763.88	50.153
764.06	50.493
764.24	48.346
764.42	51.607
764.60	50.346
764.77	51.144
764.95	51.609
765.13	52.538
765.31	51.552
765.49	52.090
765.66	50.032
765.84	52.044
766.02	51.306
766.20	54.761
766.38	55.093
766.56	57.540
766.73	52.831
766.91	55.762
767.09	59.138
767.27	59.927
767.45	53.728
767.62	55.224
767.80	54.662
767.98	59.039
768.16	60.206
768.33	61.847
768.51	57.374
768.69	60.411
768.87	59.240
769.05	59.452
769.22	58.928
769.40	62.526
769.58	61.409
769.76	63.215
769.94	63.388
770.11	62.709
770.29	61.737
770.47	63.005
770.65	62.429
770.82	65.365
771.00	61.532
771.18	63.453
771.36	64.405
771.53	64.234
771.71	66.500
771.89	64.798
772.07	58.850
772.25	64.163
772.42	64.766
772.60	65.250
772.78	63.180
772.96	66.608
773.13	63.457
773.31	65.031
773.49	59.422
773.67	63.169
773.84	63.542
774.02	66.230
774.20	63.462
774.37	61.812
774.55	61.409
774.73	69.530
774.91	62.421
775.08	64.904
775.26	65.351
775.44	67.760
775.62	61.398
775.79	62.345
775.97	62.519
776.15	65.668
776.32	64.056
776.50	66.374
776.68	65.386
776.86	67.925
777.03	60.378
777.21	68.354
777.39	63.307
777.56	67.629
777.74	65.320
777.92	64.186
778.10	61.188
778.27	63.775
778.45	65.379
778.63	66.164
778.80	64.569
778.98	62.062
779.16	67.636
779.34	65.190
779.51	68.482
779.69	67.617
779.87	64.253
780.04	64.697
780.22	63.056
780.40	67.345
780.57	68.595
780.75	65.182
780.93	74.399
781.10	66.223
781.28	67.039
781.46	60.329
781.63	61.378
781.81	70.863
781.99	62.410
782.16	60.142
782.34	65.493
782.52	63.174
782.69	70.092
782.87	68.201
783.05	67.007
783.22	65.598
783.40	62.562
783.58	68.338
783.75	62.623
783.93	69.442
784.11	63.581
784.28	67.077
784.46	64.664
784.64	73.258
784.81	67.563
784.99	68.441
785.17	62.273
785.34	66.979
785.52	62.619
785.69	68.105
785.87	64.709
786.05	66.380
786.22	64.966
786.40	73.175
786.58	67.142
786.75	66.878
786.93	66.802
787.11	64.683
787.28	61.835
787.46	65.308
787.63	68.783
787.81	60.619
787.99	63.288
788.16	62.262
788.34	56.819
788.51	64.773
788.69	63.340
788.87	63.961
789.04	60.787
789.22	61.167
789.39	58.184
789.57	62.277
789.75	55.263
789.92	62.775
790.10	55.222
790.27	63.082
790.45	60.183
790.63	64.105
790.80	61.284
790.98	66.598
791.15	57.747
791.33	61.432
791.51	58.116
791.68	63.254
791.86	67.662
792.03	64.619
792.21	58.697
792.39	58.722
792.56	62.340
792.74	64.968
792.91	64.862
793.09	63.536
793.26	56.206
793.44	68.644
793.62	62.987
793.79	64.586
793.97	60.622
794.14	59.056
794.32	61.781
794.49	71.250
794.67	57.510
794.84	61.023
795.02	65.278
795.20	64.491
795.37	57.491
795.55	67.708
795.72	67.459
795.90	59.619
796.07	61.188
796.25	63.122
796.42	63.102
796.60	67.390
796.77	61.534
796.95	64.816
797.13	55.056
797.30	61.695
797.48	57.754
797.65	66.026
797.83	62.598
798.00	65.672
798.18	59.421
798.35	65.547
798.53	61.894
798.70	62.699
798.88	59.551
799.05	63.913
799.23	59.503
799.40	60.625
799.58	63.745
799.75	67.145
799.93	60.323
800.10	63.841
800.28	65.751
800.45	65.353
800.63	60.881
800.80	64.336
800.98	64.845
801.15	61.548
801.33	60.360
801.50	65.201
801.68	59.975
801.85	61.144
802.03	59.287
802.20	59.962
802.38	63.613
802.55	60.566
802.73	62.752
802.90	61.423
803.08	61.857
803.25	61.804
803.43	64.889
803.60	68.871
803.78	60.409
803.95	65.190
804.13	61.196
804.30	63.403
804.48	59.973
804.65	69.071
804.83	65.839
805.00	64.316
805.17	65.867
805.35	53.724
805.52	62.376
805.70	60.148
805.87	64.629
806.05	62.337
806.22	56.160
806.40	61.735
806.57	61.157
806.75	65.828
806.92	67.475
807.09	61.202
807.27	56.536
807.44	64.980
807.62	56.867
807.79	66.711
807.97	57.760
808.14	62.561
808.31	57.181
808.49	62.831
808.66	65.868
808.84	57.332
809.01	62.553
809.19	55.434
809.36	65.972
809.53	59.031
809.71	56.116
809.88	70.266
810.06	68.107
810.23	65.477
810.41	60.604
810.58	65.249
810.75	63.701
810.93	67.115
811.10	58.722
811.28	63.609
811.45	63.818
811.62	60.104
811.80	64.652
811.97	61.482
812.15	68.158
812.32	65.918
812.49	58.346
812.67	66.800
812.84	58.283
813.02	70.734
813.19	59.169
813.36	64.509
813.54	61.893
813.71	64.021
813.89	62.120
814.06	64.770
814.23	55.673
814.41	57.268
814.58	55.926
814.75	59.693
814.93	58.941
815.10	62.613
815.28	53.154
815.45	57.561
815.62	65.098
815.80	60.943
815.97	57.862
816.14	58.327
816.32	55.201
816.49	55.300
816.66	56.118
816.84	57.608
817.01	58.541
817.18	60.984
817.36	55.942
817.53	58.138
817.71	46.397
817.88	58.793
818.05	51.716
818.23	64.286
818.40	53.911
818.57	62.097
818.75	55.959
818.92	50.501
819.09	59.852
819.27	63.805
819.44	51.002
819.61	53.329
819.79	54.496
819.96	55.111
820.13	48.647
820.31	58.264
820.48	58.715
820.65	52.566
820.82	55.159
821.00	57.104
821.17	47.857
821.34	53.420
821.52	55.190
821.69	52.794
821.86	49.521
822.04	53.885
822.21	49.012
822.38	50.280
822.56	47.401
822.73	50.679
822.90	47.666
823.07	49.517
823.25	47.676
823.42	49.709
823.59	47.966
823.77	49.453
823.94	48.766
824.11	48.749
824.29	46.675
824.46	50.369
824.63	49.606
824.80	49.786
824.98	50.744
825.15	50.321
825.32	48.970
825.49	52.109
825.67	50.332
825.84	52.060
826.01	52.310
826.19	53.681
826.36	48.803
826.53	52.635
826.70	50.487
826.88	52.870
827.05	49.882
827.22	48.247
827.39	50.600
827.57	52.215
827.74	47.509
827.91	49.767
828.08	48.257
828.26	50.050
828.43	48.907
828.60	50.136
828.77	49.961
828.95	50.466
829.12	45.551
829.29	47.192
829.46	48.412
829.64	48.836
829.81	44.331
829.98	51.733
830.15	49.468
830.32	50.963
830.50	45.597
830.67	54.019
830.84	46.744
831.01	51.243
831.19	46.951
831.36	50.428
831.53	51.206
831.70	59.305
831.87	48.900
832.05	54.451
832.22	58.701
832.39	46.967
832.56	53.388
832.74	52.134
832.91	49.141
833.08	56.934
833.25	46.979
833.42	50.863
833.60	45.804
833.77	48.076
833.94	49.949
834.11	47.227
834.28	45.317
834.45	48.504
834.63	42.874
834.80	48.472
834.97	44.185
835.14	50.396
835.31	47.083
835.49	47.888
835.66	49.607
835.83	48.283
836.00	45.875
836.17	50.294
836.34	49.372
836.52	47.693
836.69	53.075
836.86	51.828
837.03	49.689
837.20	52.625
837.37	47.860
837.55	51.131
837.72	52.219
837.89	50.071
838.06	66.036
838.23	57.337
838.40	60.404
838.58	55.647
838.75	55.151
838.92	65.138
839.09	63.437
839.26	58.652
839.43	72.031
839.60	70.135
839.78	73.108
839.95	70.915
840.12	55.299
840.29	75.082
840.46	61.807
840.63	63.330
840.80	62.181
840.98	64.645
841.15	51.655
841.32	54.410
841.49	47.778
841.66	65.514
841.83	62.264
842.00	54.447
842.17	65.107
842.34	57.853
842.52	68.882
842.69	68.051
842.86	58.137
843.03	74.574
843.20	62.560
843.37	67.250
843.54	63.548
843.71	74.595
843.88	61.457
844.06	78.561
844.23	80.000
844.40	77.673
844.57	74.892
844.74	79.199
844.91	72.786
845.08	86.000
845.25	80.640
845.42	79.719
845.59	73.371
845.76	72.899
845.94	82.820
846.11	80.306
846.28	99.359
846.45	97.342
846.62	111.364
846.79	87.311
846.96	86.214
847.13	91.684
847.30	98.958
847.47	82.051
847.64	86.626
847.81	81.429
847.98	96.398
848.15	90.637
848.32	96.448
848.50	97.186
848.67	89.080
848.84	102.296
849.01	84.706
849.18	111.321
849.35	97.168
849.52	97.588
849.69	95.522
849.86	107.559
850.03	92.083
850.20	102.286
850.37	86.522
850.54	86.022
850.71	89.918
850.88	89.487
851.05	84.768
851.22	96.788
851.39	112.776
851.56	113.547
851.73	115.258
851.90	116.870
852.07	94.105
852.24	101.949
852.41	99.097
852.58	101.092
852.75	96.774
852.92	95.391
853.09	97.143
853.26	98.693
853.43	103.822
853.60	103.226
853.77	96.624
853.94	93.763
854.11	118.961
854.28	112.018
854.45	101.865
854.62	82.863
854.79	97.727
854.96	87.393
855.13	94.318
855.30	91.365
855.47	96.247
855.64	91.383
855.81	113.534
855.98	93.396
856.15	101.302
856.32	81.818
856.49	112.676
856.66	90.909
856.83	90.656
857.00	106.286
857.17	123.855
857.34	102.338
857.51	116.570
857.68	82.737
857.85	100.427
858.02	96.984
858.19	105.811
858.36	104.232
858.53	99.457
858.70	90.909
858.87	96.460
859.04	77.273
859.21	94.089
859.38	117.217
859.55	134.969
859.72	99.078
859.89	116.000
860.05	118.605
860.22	126.849
860.39	89.848
860.56	110.557
860.73	102.998
860.90	138.906
861.07	124.682
861.24	80.994
861.41	101.220
861.58	101.508
861.75	105.789
861.92	123.226
862.09	106.030
862.26	100.501
862.43	113.256
862.59	116.512
862.76	114.681
862.93	107.727
863.10	117.473
863.27	93.317
863.44	84.715
863.61	93.289
863.78	80.624
863.95	131.395
864.12	94.762
864.29	101.856
864.45	107.950
864.62	97.059
864.79	94.279
864.96	100.000
865.13	118.919
865.30	100.844
865.47	110.979
865.64	91.408
865.81	86.008
865.97	101.399
866.14	95.767
866.31	109.763
866.48	108.832
866.65	101.939
866.82	97.588
866.99	117.318
867.16	104.843
867.33	113.033
867.49	93.464
867.66	139.146
867.83	117.784
868.00	91.687
868.17	133.742
868.34	97.541
868.51	93.764
868.67	116.438
868.84	96.316
869.01	117.598
869.18	92.973
869.35	99.523
869.52	83.948
869.69	102.469
869.85	101.679
870.02	89.688
870.19	109.800
870.36	109.491
870.53	98.906
870.70	97.072
870.86	111.230
871.03	85.161
871.20	99.121
871.37	102.233
871.54	100.737
871.71	90.952
871.87	88.962
872.04	94.404
872.21	92.216
872.38	104.412
872.55	113.333
872.72	107.450
872.88	121.988
873.05	86.493
873.22	90.933
873.39	90.233
873.56	95.000
873.72	100.463
873.89	91.927
874.06	92.593
874.23	95.688
874.40	112.105
874.56	120.820
874.73	107.297
874.90	104.061
875.07	117.867
875.24	101.759
875.40	74.026
875.57	111.471
875.74	89.796
875.91	107.765
876.08	95.302
876.24	98.305
876.41	143.114
876.58	88.993
876.75	104.000
876.92	104.739
877.08	93.995
877.25	112.055
877.42	98.333
877.59	92.823
877.75	114.286
877.92	86.364
878.09	87.452
878.26	96.714
878.42	94.221
878.59	90.566
878.76	98.698
878.93	119.143
879.09	96.356
879.26	83.398
879.43	83.160
879.60	95.025
879.76	86.534
879.93	79.570
880.10	74.857
880.27	86.444
880.43	82.509
880.60	77.206
880.77	69.362
880.94	66.882
881.10	60.950
881.27	56.887
881.44	42.551
881.61	45.955
881.77	46.657
881.94	40.665
882.11	36.617
882.28	41.060
882.44	38.551
882.61	45.323
882.78	42.135
882.94	51.743
883.11	41.915
883.28	44.473
883.45	45.594
883.61	46.918
883.78	43.463
883.95	45.485
884.11	41.526
884.28	42.805
>>>>>End Processed Spectral Data<<<<<
