SpectraSuite Data File
++++++++++++++++++++++++++++++++++++
Date: Wed Sep 25 03:38:59 EST 2019
User: sgrac
Dark Spectrum Present: Yes
Reference Spectrum Present: Yes
Number of Sampled Component Spectra: 1
Spectrometers: USB4E01596
Integration Time (usec): 100000 (USB4E01596)
Spectra Averaged: 3 (USB4E01596)
Boxcar Smoothing: 0 (USB4E01596)
Correct for Electrical Dark: No (USB4E01596)
Strobe/Lamp Enabled: Yes (USB4E01596)
Correct for Detector Non-linearity: No (USB4E01596)
Correct for Stray Light: No (USB4E01596)
Number of Pixels in Processed Spectrum: 3648
>>>>>Begin Processed Spectral Data<<<<<
178.44	-478.846
178.66	-478.846
178.87	-478.846
179.09	-818.750
179.30	806.452
179.52	1300.000
179.74	-871.053
179.95	-540.741
180.17	704.082
180.38	-1064.286
180.60	-1960.000
180.82	-4133.333
181.03	886.047
181.25	-2666.667
181.46	-441.667
181.68	473.077
181.89	-1135.484
182.11	10800.000
182.33	792.308
182.54	-18450.000
182.76	705.882
182.97	957.895
183.19	1150.000
183.40	780.435
183.62	1650.000
183.84	479.762
184.05	1526.923
184.27	-2854.545
184.48	30700.000
184.70	1351.852
184.91	743.396
185.13	2700.000
185.34	661.017
185.56	382.759
185.78	1588.889
185.99	654.000
186.21	498.795
186.42	1207.143
186.64	-3666.667
186.85	951.220
187.07	-1432.000
187.28	460.417
187.50	-711.628
187.72	1828.571
187.93	1197.297
188.15	2528.571
188.36	812.500
188.58	671.667
188.79	690.625
189.01	572.131
189.22	484.946
189.44	402.830
189.65	-734.146
189.87	1439.286
190.09	341.346
190.30	386.111
190.52	-479.310
190.73	497.590
190.95	-2492.857
191.16	623.913
191.38	603.846
191.59	509.877
191.81	2066.667
192.02	-3325.000
192.24	-3327.273
192.45	524.194
192.67	-7900.000
192.88	430.233
193.10	576.471
193.31	300.000
193.53	-419.355
193.74	1818.182
193.96	-6733.333
194.18	2335.714
194.39	544.068
194.61	1127.778
194.82	405.682
195.04	278.947
195.25	655.000
195.47	-30700.000
195.68	532.308
195.90	502.222
196.11	1590.476
196.33	-308.333
196.54	1260.714
196.76	540.323
196.97	266.667
197.19	360.150
197.40	-441.333
197.62	910.417
197.83	2058.824
198.05	532.500
198.26	827.083
198.48	2117.647
198.69	-864.103
198.91	539.062
199.12	-17150.000
199.34	641.463
199.55	1720.000
199.77	519.048
199.98	1666.667
200.20	494.048
200.41	375.000
200.63	502.439
200.84	688.889
201.06	277.848
201.27	-492.982
201.49	-3971.429
201.70	490.909
201.91	-5128.571
202.13	-2250.000
202.34	-990.909
202.56	1589.474
202.77	981.579
202.99	778.723
203.20	465.591
203.42	661.404
203.63	576.056
203.85	-2340.000
204.06	1404.545
204.28	-7600.000
204.49	1326.667
204.71	341.935
204.92	547.059
205.14	2456.250
205.35	1000.000
205.56	2078.571
205.78	818.182
205.99	441.463
206.21	982.051
206.42	544.068
206.64	557.812
206.85	725.581
207.07	-981.579
207.28	514.493
207.50	1048.649
207.71	1068.750
207.93	361.616
208.14	572.000
208.35	777.273
208.57	2446.667
208.78	1492.000
209.00	842.553
209.21	708.889
209.43	377.670
209.64	-2863.636
209.86	905.128
210.07	-1557.143
210.28	394.565
210.50	1631.579
210.71	300.000
210.93	530.769
211.14	437.273
211.36	-3520.000
211.57	494.444
211.78	658.000
212.00	693.617
212.21	910.811
212.43	33600.000
212.64	1161.765
212.86	704.167
213.07	1278.788
213.29	-2446.667
213.50	1119.355
213.71	1680.000
213.93	1855.556
214.14	309.565
214.36	258.228
214.57	645.902
214.78	674.510
215.00	577.941
215.21	2430.769
215.43	313.131
215.64	913.953
215.86	827.273
216.07	811.111
216.28	1247.826
216.50	393.519
216.71	537.931
216.93	828.947
217.14	314.414
217.35	1084.615
217.57	291.129
217.78	1842.105
218.00	434.884
218.21	1440.000
218.42	11133.333
218.64	321.008
218.85	817.778
219.07	622.951
219.28	311.404
219.49	993.939
219.71	436.486
219.92	1435.000
220.14	1600.000
220.35	483.333
220.56	232.258
220.78	6280.000
220.99	407.317
221.21	283.898
221.42	826.829
221.63	541.667
221.85	771.739
222.06	303.419
222.28	950.000
222.49	692.500
222.70	364.220
222.92	446.067
223.13	444.318
223.34	271.654
223.56	507.246
223.77	517.460
223.99	1000.000
224.20	246.154
224.41	283.607
224.63	259.836
224.84	470.423
225.05	418.681
225.27	472.727
225.48	347.170
225.69	184.524
225.91	692.308
226.12	284.328
226.34	260.690
226.55	208.696
226.76	214.286
226.98	157.627
227.19	176.437
227.40	155.856
227.62	146.559
227.83	149.110
228.04	107.167
228.26	69.173
228.47	92.072
228.69	81.704
228.90	69.623
229.11	54.175
229.33	58.631
229.54	48.271
229.75	42.027
229.97	44.870
230.18	46.943
230.39	28.967
230.61	40.792
230.82	43.458
231.03	44.898
231.25	49.402
231.46	37.424
231.67	47.160
231.89	48.373
232.10	57.769
232.31	61.576
232.53	63.911
232.74	59.385
232.95	74.492
233.17	63.883
233.38	52.444
233.59	64.365
233.81	72.584
234.02	72.179
234.23	56.693
234.45	65.268
234.66	58.574
234.87	79.518
235.09	55.418
235.30	63.662
235.51	62.975
235.73	60.132
235.94	58.118
236.15	59.083
236.36	47.899
236.58	38.319
236.79	55.625
237.00	57.031
237.22	46.224
237.43	52.709
237.64	48.452
237.86	43.731
238.07	55.075
238.28	53.635
238.50	44.651
238.71	44.006
238.92	52.889
239.13	63.043
239.35	65.378
239.56	47.076
239.77	59.974
239.99	39.794
240.20	66.109
240.41	43.380
240.63	50.400
240.84	45.306
241.05	38.905
241.26	30.525
241.48	35.137
241.69	32.472
241.90	25.685
242.12	22.988
242.33	27.760
242.54	24.899
242.75	19.602
242.97	23.089
243.18	17.001
243.39	18.394
243.61	18.430
243.82	20.202
244.03	16.893
244.24	17.035
244.46	19.144
244.67	22.189
244.88	20.584
245.09	22.629
245.31	22.459
245.52	20.325
245.73	24.395
245.95	40.862
246.16	18.298
246.37	22.323
246.58	22.211
246.80	17.380
247.01	15.714
247.22	13.653
247.43	11.740
247.65	13.607
247.86	12.807
248.07	11.132
248.28	10.701
248.50	10.623
248.71	9.705
248.92	8.959
249.13	11.196
249.35	10.300
249.56	13.206
249.77	12.468
249.98	13.698
250.20	15.524
250.41	12.044
250.62	19.359
250.83	20.193
251.05	21.013
251.26	18.057
251.47	16.746
251.68	20.634
251.90	21.384
252.11	19.748
252.32	21.215
252.53	20.886
252.75	14.954
252.96	18.437
253.17	20.121
253.38	16.790
253.59	14.030
253.81	15.205
254.02	14.320
254.23	20.750
254.44	18.411
254.66	20.317
254.87	20.485
255.08	20.062
255.29	22.298
255.50	28.765
255.72	25.865
255.93	27.181
256.14	27.144
256.35	21.957
256.57	30.649
256.78	24.274
256.99	26.963
257.20	25.600
257.41	21.751
257.63	20.441
257.84	22.767
258.05	20.920
258.26	21.061
258.47	20.313
258.69	17.629
258.90	18.590
259.11	17.796
259.32	14.090
259.53	14.699
259.75	10.952
259.96	11.735
260.17	7.991
260.38	10.728
260.59	9.200
260.81	7.872
261.02	7.138
261.23	6.813
261.44	9.379
261.65	9.989
261.87	6.698
262.08	8.710
262.29	12.545
262.50	8.793
262.71	9.866
262.92	12.183
263.14	12.520
263.35	12.885
263.56	16.502
263.77	16.291
263.98	13.420
264.20	16.041
264.41	15.075
264.62	15.448
264.83	16.174
265.04	22.538
265.25	12.911
265.47	19.465
265.68	18.003
265.89	16.674
266.10	13.112
266.31	18.529
266.52	14.133
266.74	14.801
266.95	15.240
267.16	13.881
267.37	13.888
267.58	11.690
267.79	11.554
268.01	8.954
268.22	7.928
268.43	11.126
268.64	13.707
268.85	10.908
269.06	9.655
269.27	15.361
269.49	11.590
269.70	13.701
269.91	9.744
270.12	11.846
270.33	13.336
270.54	9.677
270.75	12.616
270.97	14.361
271.18	11.990
271.39	10.267
271.60	14.552
271.81	12.054
272.02	9.858
272.23	12.019
272.45	9.995
272.66	9.066
272.87	9.211
273.08	9.229
273.29	9.230
273.50	10.411
273.71	8.868
273.92	9.955
274.14	9.711
274.35	10.190
274.56	10.312
274.77	9.424
274.98	10.286
275.19	10.691
275.40	10.735
275.61	9.831
275.83	14.761
276.04	10.962
276.25	10.242
276.46	11.878
276.67	17.020
276.88	10.948
277.09	11.128
277.30	11.360
277.51	12.588
277.73	11.671
277.94	11.229
278.15	11.714
278.36	16.071
278.57	10.371
278.78	13.818
278.99	12.049
279.20	14.254
279.41	14.439
279.62	12.861
279.84	11.506
280.05	12.068
280.26	9.250
280.47	11.478
280.68	11.577
280.89	12.396
281.10	10.771
281.31	13.092
281.52	9.683
281.73	7.764
281.94	7.694
282.16	10.559
282.37	9.814
282.58	8.722
282.79	10.376
283.00	11.416
283.21	8.088
283.42	8.943
283.63	10.278
283.84	8.824
284.05	7.824
284.26	10.329
284.47	8.844
284.68	9.817
284.89	9.236
285.11	8.642
285.32	9.634
285.53	7.986
285.74	7.951
285.95	9.191
286.16	7.743
286.37	8.537
286.58	9.682
286.79	6.626
287.00	8.228
287.21	8.127
287.42	9.104
287.63	7.609
287.84	7.732
288.05	9.353
288.26	7.951
288.48	9.440
288.69	8.325
288.90	9.379
289.11	9.572
289.32	10.860
289.53	7.904
289.74	6.238
289.95	8.667
290.16	10.935
290.37	7.644
290.58	8.130
290.79	7.906
291.00	8.560
291.21	7.026
291.42	7.335
291.63	6.864
291.84	8.120
292.05	8.619
292.26	8.340
292.47	7.451
292.68	8.784
292.89	8.899
293.10	8.228
293.31	8.029
293.52	9.158
293.73	7.921
293.94	10.649
294.15	8.522
294.36	8.726
294.57	10.725
294.79	9.625
295.00	7.167
295.21	9.207
295.42	8.430
295.63	9.967
295.84	7.116
296.05	6.240
296.26	7.714
296.47	7.726
296.68	6.249
296.89	7.973
297.10	5.675
297.31	7.760
297.52	7.105
297.73	6.316
297.94	5.232
298.15	7.009
298.36	5.720
298.57	4.806
298.78	6.364
298.99	5.542
299.20	5.350
299.41	6.369
299.62	6.274
299.83	4.948
300.04	8.365
300.25	7.709
300.46	6.849
300.67	8.692
300.88	7.598
301.09	7.137
301.30	8.843
301.50	8.180
301.71	8.369
301.92	8.822
302.13	6.163
302.34	7.909
302.55	8.184
302.76	8.020
302.97	7.910
303.18	10.199
303.39	7.548
303.60	9.819
303.81	8.868
304.02	6.615
304.23	7.574
304.44	8.921
304.65	8.663
304.86	8.706
305.07	7.426
305.28	8.865
305.49	9.476
305.70	8.066
305.91	6.944
306.12	8.373
306.33	7.992
306.54	8.374
306.75	9.643
306.96	10.273
307.17	7.454
307.38	10.412
307.58	7.816
307.79	8.277
308.00	7.991
308.21	8.820
308.42	7.976
308.63	9.254
308.84	8.472
309.05	6.695
309.26	6.541
309.47	7.834
309.68	7.364
309.89	7.660
310.10	6.507
310.31	6.921
310.52	6.552
310.73	7.857
310.94	5.805
311.14	6.051
311.35	6.243
311.56	6.233
311.77	7.309
311.98	5.760
312.19	5.728
312.40	5.335
312.61	6.524
312.82	6.772
313.03	5.782
313.24	7.500
313.45	6.379
313.66	7.293
313.86	8.158
314.07	5.095
314.28	9.822
314.49	7.464
314.70	6.436
314.91	9.180
315.12	8.502
315.33	8.622
315.54	8.464
315.75	8.260
315.96	7.027
316.16	8.144
316.37	9.021
316.58	6.658
316.79	7.920
317.00	7.725
317.21	7.710
317.42	8.252
317.63	8.668
317.84	8.042
318.05	7.703
318.25	9.894
318.46	8.102
318.67	8.072
318.88	7.746
319.09	7.410
319.30	7.973
319.51	8.684
319.72	8.761
319.93	6.426
320.13	7.807
320.34	9.397
320.55	8.926
320.76	8.942
320.97	8.877
321.18	10.444
321.39	7.691
321.60	7.675
321.80	8.954
322.01	9.941
322.22	9.153
322.43	7.097
322.64	8.811
322.85	9.200
323.06	7.764
323.27	9.346
323.47	8.637
323.68	8.939
323.89	7.404
324.10	7.678
324.31	5.538
324.52	7.791
324.73	8.182
324.93	7.175
325.14	7.920
325.35	7.220
325.56	7.929
325.77	8.221
325.98	6.722
326.19	8.024
326.39	5.781
326.60	6.521
326.81	6.725
327.02	6.160
327.23	7.285
327.44	9.199
327.64	5.657
327.85	6.093
328.06	7.665
328.27	7.199
328.48	6.996
328.69	6.461
328.90	6.791
329.10	6.449
329.31	8.964
329.52	7.377
329.73	7.771
329.94	8.761
330.15	8.209
330.35	7.528
330.56	8.277
330.77	8.402
330.98	8.932
331.19	8.389
331.39	8.616
331.60	8.795
331.81	7.894
332.02	7.281
332.23	7.210
332.44	7.425
332.64	7.569
332.85	6.454
333.06	8.371
333.27	6.099
333.48	7.388
333.68	6.630
333.89	6.405
334.10	7.902
334.31	7.986
334.52	6.968
334.72	7.094
334.93	6.478
335.14	6.186
335.35	7.078
335.56	8.120
335.76	7.175
335.97	8.315
336.18	6.950
336.39	8.210
336.60	6.597
336.80	6.748
337.01	5.359
337.22	6.629
337.43	6.370
337.64	8.188
337.84	7.920
338.05	7.724
338.26	7.618
338.47	8.248
338.68	5.930
338.88	8.199
339.09	6.864
339.30	6.182
339.51	8.408
339.71	9.113
339.92	5.840
340.13	6.295
340.34	7.171
340.55	7.315
340.75	7.155
340.96	6.064
341.17	6.360
341.38	7.346
341.58	8.610
341.79	8.021
342.00	7.027
342.21	6.432
342.41	5.825
342.62	5.811
342.83	8.646
343.04	5.296
343.24	6.348
343.45	7.511
343.66	6.250
343.87	7.290
344.07	6.643
344.28	7.926
344.49	6.469
344.70	7.426
344.90	5.775
345.11	3.666
345.32	6.273
345.53	6.452
345.73	6.666
345.94	6.976
346.15	6.670
346.36	5.554
346.56	6.315
346.77	7.073
346.98	6.852
347.19	6.963
347.39	5.658
347.60	6.168
347.81	7.393
348.02	6.581
348.22	5.245
348.43	6.535
348.64	5.032
348.84	5.499
349.05	7.690
349.26	7.155
349.47	5.736
349.67	4.841
349.88	6.899
350.09	6.142
350.30	6.868
350.50	5.021
350.71	7.461
350.92	7.371
351.12	5.427
351.33	7.075
351.54	5.980
351.74	7.366
351.95	5.506
352.16	6.164
352.37	6.935
352.57	6.045
352.78	5.187
352.99	5.767
353.19	6.929
353.40	7.013
353.61	6.220
353.82	6.955
354.02	6.408
354.23	7.750
354.44	9.036
354.64	5.824
354.85	6.705
355.06	6.037
355.26	5.036
355.47	4.476
355.68	6.479
355.88	5.233
356.09	5.374
356.30	4.279
356.51	6.184
356.71	5.440
356.92	4.952
357.13	6.674
357.33	6.229
357.54	5.402
357.75	4.894
357.95	6.007
358.16	5.266
358.37	6.672
358.57	5.175
358.78	6.233
358.99	6.417
359.19	4.927
359.40	5.649
359.61	5.495
359.81	7.445
360.02	6.348
360.23	5.083
360.43	5.093
360.64	5.127
360.85	4.332
361.05	5.147
361.26	5.700
361.47	4.387
361.67	4.987
361.88	4.770
362.09	4.994
362.29	4.293
362.50	3.606
362.70	3.892
362.91	4.784
363.12	3.619
363.32	4.075
363.53	5.272
363.74	5.170
363.94	4.354
364.15	5.416
364.36	5.336
364.56	4.579
364.77	5.058
364.98	5.726
365.18	4.990
365.39	5.846
365.59	4.863
365.80	4.099
366.01	5.596
366.21	4.925
366.42	3.954
366.63	6.322
366.83	5.551
367.04	3.859
367.24	6.227
367.45	4.404
367.66	4.923
367.86	4.940
368.07	5.380
368.28	4.485
368.48	5.459
368.69	4.035
368.89	5.314
369.10	4.825
369.31	4.944
369.51	5.888
369.72	6.316
369.92	6.567
370.13	4.291
370.34	5.466
370.54	4.676
370.75	6.648
370.95	4.491
371.16	5.340
371.37	4.411
371.57	4.265
371.78	5.556
371.98	5.054
372.19	5.768
372.40	5.351
372.60	5.671
372.81	5.172
373.01	3.611
373.22	4.681
373.43	5.924
373.63	5.371
373.84	4.792
374.04	5.251
374.25	4.695
374.46	5.250
374.66	5.691
374.87	5.925
375.07	5.366
375.28	4.446
375.48	5.743
375.69	6.051
375.90	4.559
376.10	4.160
376.31	4.528
376.51	4.446
376.72	4.545
376.92	4.306
377.13	5.142
377.34	4.870
377.54	4.669
377.75	5.505
377.95	5.003
378.16	5.682
378.36	4.161
378.57	4.440
378.77	4.983
378.98	4.085
379.19	4.486
379.39	4.442
379.60	5.768
379.80	5.574
380.01	5.580
380.21	4.959
380.42	5.270
380.62	5.593
380.83	6.065
381.04	4.167
381.24	4.548
381.45	4.569
381.65	4.520
381.86	5.973
382.06	5.629
382.27	3.968
382.47	5.356
382.68	5.761
382.88	4.351
383.09	4.429
383.29	5.911
383.50	6.061
383.71	5.206
383.91	5.471
384.12	5.370
384.32	6.070
384.53	6.104
384.73	4.484
384.94	4.181
385.14	4.647
385.35	4.829
385.55	4.628
385.76	5.201
385.96	5.485
386.17	6.174
386.37	5.878
386.58	6.132
386.78	6.565
386.99	4.796
387.19	6.419
387.40	5.047
387.60	7.368
387.81	6.471
388.01	5.951
388.22	6.440
388.42	7.691
388.63	6.995
388.83	8.185
389.04	5.879
389.24	6.810
389.45	6.758
389.65	6.055
389.86	6.555
390.06	6.723
390.27	6.567
390.47	6.499
390.68	6.914
390.88	8.499
391.09	8.394
391.29	8.756
391.50	7.361
391.70	7.759
391.91	7.738
392.11	8.793
392.32	8.311
392.52	8.853
392.73	8.766
392.93	8.758
393.14	8.830
393.34	8.997
393.55	9.854
393.75	9.789
393.95	8.924
394.16	9.702
394.36	10.475
394.57	10.790
394.77	10.422
394.98	10.491
395.18	10.962
395.39	10.518
395.59	10.433
395.80	10.656
396.00	10.275
396.21	12.119
396.41	10.226
396.61	12.498
396.82	11.605
397.02	13.479
397.23	12.268
397.43	11.710
397.64	10.694
397.84	13.012
398.05	10.740
398.25	12.422
398.45	12.366
398.66	13.740
398.86	12.559
399.07	14.950
399.27	12.969
399.48	13.318
399.68	12.595
399.89	13.206
400.09	14.401
400.29	13.530
400.50	13.235
400.70	13.740
400.91	13.601
401.11	13.495
401.32	13.398
401.52	13.424
401.72	13.182
401.93	15.451
402.13	13.688
402.34	14.619
402.54	12.118
402.75	16.197
402.95	13.160
403.15	15.205
403.36	13.203
403.56	15.568
403.77	13.712
403.97	14.059
404.17	13.117
404.38	15.542
404.58	13.323
404.79	14.971
404.99	14.597
405.19	14.411
405.40	14.372
405.60	15.502
405.81	13.788
406.01	15.343
406.21	14.503
406.42	15.306
406.62	15.045
406.83	15.838
407.03	15.458
407.23	14.630
407.44	14.574
407.64	15.147
407.85	14.870
408.05	15.150
408.25	14.190
408.46	15.848
408.66	16.183
408.87	15.130
409.07	14.802
409.27	14.804
409.48	14.192
409.68	14.666
409.88	13.570
410.09	15.380
410.29	15.129
410.50	16.389
410.70	13.860
410.90	14.631
411.11	14.189
411.31	15.000
411.51	14.597
411.72	15.432
411.92	14.327
412.12	15.213
412.33	14.058
412.53	15.156
412.74	13.532
412.94	15.026
413.14	14.647
413.35	15.009
413.55	14.117
413.75	15.608
413.96	13.614
414.16	14.690
414.36	13.954
414.57	14.403
414.77	12.591
414.97	14.838
415.18	13.609
415.38	14.526
415.58	14.354
415.79	14.354
415.99	13.924
416.19	14.712
416.40	14.069
416.60	14.916
416.80	13.937
417.01	14.382
417.21	12.740
417.41	14.622
417.62	14.339
417.82	14.473
418.02	13.734
418.23	14.301
418.43	14.424
418.63	14.513
418.84	14.603
419.04	14.634
419.24	14.602
419.45	14.820
419.65	14.511
419.85	14.778
420.06	14.625
420.26	14.810
420.46	14.614
420.67	14.879
420.87	14.403
421.07	14.323
421.28	14.400
421.48	14.367
421.68	14.363
421.88	14.725
422.09	14.574
422.29	14.436
422.49	14.322
422.70	14.615
422.90	14.448
423.10	14.534
423.31	14.799
423.51	14.859
423.71	14.390
423.91	14.634
424.12	14.566
424.32	14.696
424.52	14.106
424.73	14.143
424.93	14.201
425.13	14.654
425.33	13.814
425.54	14.488
425.74	14.218
425.94	14.610
426.15	14.582
426.35	14.181
426.55	14.656
426.75	14.946
426.96	14.707
427.16	14.458
427.36	14.482
427.57	15.167
427.77	14.227
427.97	14.664
428.17	14.503
428.38	15.002
428.58	13.405
428.78	14.599
428.98	13.933
429.19	13.948
429.39	13.568
429.59	14.441
429.79	13.145
430.00	13.629
430.20	13.302
430.40	13.967
430.60	13.180
430.81	14.550
431.01	13.441
431.21	14.328
431.41	13.729
431.62	13.478
431.82	13.601
432.02	14.633
432.22	13.091
432.43	13.684
432.63	13.271
432.83	14.092
433.03	13.146
433.24	13.512
433.44	13.300
433.64	14.102
433.84	13.653
434.05	13.672
434.25	13.808
434.45	14.480
434.65	14.113
434.85	13.987
435.06	14.267
435.26	14.298
435.46	13.982
435.66	14.725
435.87	13.840
436.07	14.808
436.27	13.655
436.47	14.283
436.67	13.427
436.88	14.747
437.08	14.202
437.28	14.303
437.48	13.997
437.69	14.529
437.89	13.638
438.09	14.566
438.29	13.483
438.49	14.504
438.70	14.102
438.90	13.874
439.10	14.053
439.30	14.231
439.50	13.317
439.71	14.093
439.91	13.941
440.11	14.690
440.31	14.355
440.51	14.089
440.72	13.441
440.92	14.375
441.12	14.254
441.32	14.535
441.52	14.232
441.72	14.348
441.93	14.313
442.13	14.750
442.33	14.686
442.53	14.828
442.73	14.155
442.94	14.787
443.14	14.597
443.34	14.855
443.54	14.814
443.74	14.950
443.94	14.314
444.15	14.230
444.35	14.124
444.55	14.504
444.75	14.393
444.95	14.536
445.15	14.302
445.36	14.320
445.56	13.469
445.76	14.465
445.96	13.810
446.16	14.390
446.36	14.428
446.57	14.315
446.77	13.809
446.97	13.954
447.17	14.300
447.37	14.437
447.57	14.554
447.77	14.788
447.98	14.668
448.18	14.721
448.38	14.419
448.58	15.000
448.78	15.113
448.98	14.876
449.18	14.872
449.39	14.827
449.59	14.799
449.79	14.969
449.99	14.842
450.19	14.495
450.39	14.805
450.59	14.806
450.79	14.490
451.00	14.709
451.20	15.679
451.40	14.979
451.60	14.215
451.80	14.702
452.00	14.304
452.20	14.254
452.40	14.593
452.61	14.163
452.81	14.461
453.01	14.721
453.21	14.437
453.41	14.838
453.61	14.495
453.81	14.732
454.01	14.473
454.21	14.413
454.42	14.985
454.62	15.127
454.82	14.247
455.02	14.806
455.22	14.085
455.42	14.808
455.62	14.543
455.82	14.332
456.02	13.765
456.23	14.869
456.43	14.630
456.63	15.059
456.83	13.801
457.03	14.461
457.23	13.910
457.43	14.457
457.63	13.988
457.83	14.469
458.03	13.620
458.23	13.827
458.43	13.631
458.64	14.221
458.84	13.613
459.04	14.111
459.24	13.932
459.44	14.218
459.64	13.766
459.84	13.868
460.04	13.821
460.24	14.083
460.44	14.016
460.64	14.241
460.84	14.236
461.04	14.562
461.24	14.141
461.45	14.687
461.65	14.636
461.85	14.680
462.05	14.746
462.25	14.787
462.45	15.037
462.65	14.640
462.85	14.479
463.05	14.455
463.25	14.292
463.45	14.792
463.65	14.384
463.85	14.291
464.05	14.220
464.25	14.443
464.45	14.539
464.65	14.344
464.85	14.024
465.05	13.762
465.26	14.225
465.46	14.436
465.66	13.942
465.86	14.368
466.06	13.871
466.26	14.166
466.46	13.721
466.66	13.747
466.86	13.871
467.06	13.983
467.26	13.876
467.46	14.459
467.66	13.609
467.86	13.724
468.06	13.851
468.26	13.978
468.46	14.178
468.66	14.442
468.86	13.935
469.06	14.139
469.26	13.810
469.46	14.246
469.66	14.103
469.86	14.460
470.06	13.808
470.26	14.855
470.46	13.819
470.66	14.689
470.86	13.434
471.06	13.966
471.26	13.956
471.46	14.375
471.66	14.105
471.86	14.404
472.06	14.398
472.26	14.769
472.46	14.512
472.66	14.131
472.86	14.365
473.06	14.855
473.26	14.294
473.46	14.398
473.66	14.208
473.86	14.538
474.06	13.803
474.26	14.444
474.46	13.631
474.66	14.963
474.86	14.616
475.06	14.648
475.26	14.538
475.46	14.382
475.66	13.862
475.86	14.666
476.06	15.024
476.26	14.451
476.46	13.459
476.66	14.463
476.86	14.366
477.06	14.612
477.26	14.094
477.46	15.072
477.65	14.591
477.85	14.945
478.05	14.248
478.25	14.636
478.45	14.282
478.65	14.706
478.85	14.469
479.05	14.804
479.25	14.392
479.45	14.685
479.65	14.061
479.85	14.945
480.05	14.297
480.25	14.846
480.45	14.467
480.65	14.759
480.85	14.610
481.05	14.841
481.25	14.301
481.44	14.461
481.64	14.300
481.84	14.712
482.04	14.625
482.24	14.359
482.44	14.138
482.64	14.133
482.84	14.408
483.04	14.176
483.24	13.986
483.44	13.809
483.64	13.551
483.84	13.464
484.04	13.735
484.23	14.147
484.43	14.483
484.63	14.808
484.83	15.026
485.03	15.755
485.23	15.902
485.43	15.779
485.63	15.222
485.83	15.652
486.03	15.845
486.23	15.661
486.42	15.298
486.62	15.469
486.82	15.002
487.02	14.809
487.22	14.725
487.42	14.506
487.62	14.478
487.82	14.220
488.02	14.563
488.22	14.655
488.41	14.705
488.61	14.731
488.81	14.878
489.01	14.894
489.21	15.214
489.41	15.153
489.61	15.307
489.81	15.554
490.01	15.321
490.20	15.464
490.40	15.553
490.60	15.407
490.80	14.781
491.00	14.790
491.20	14.403
491.40	14.161
491.60	14.334
491.79	14.445
491.99	14.489
492.19	14.551
492.39	14.642
492.59	14.853
492.79	14.597
492.99	15.114
493.19	15.030
493.38	15.317
493.58	15.753
493.78	15.644
493.98	15.629
494.18	15.411
494.38	15.384
494.58	15.568
494.77	15.215
494.97	15.458
495.17	15.337
495.37	15.444
495.57	15.575
495.77	15.288
495.96	15.098
496.16	15.446
496.36	14.799
496.56	14.736
496.76	14.840
496.96	14.905
497.15	14.585
497.35	15.148
497.55	14.662
497.75	15.287
497.95	15.082
498.15	15.356
498.34	15.187
498.54	15.027
498.74	15.847
498.94	15.285
499.14	15.629
499.34	15.435
499.53	15.305
499.73	15.734
499.93	15.629
500.13	15.088
500.33	14.940
500.52	15.564
500.72	15.531
500.92	15.528
501.12	15.562
501.32	15.895
501.52	15.526
501.71	15.810
501.91	15.567
502.11	15.899
502.31	15.670
502.51	15.632
502.70	15.856
502.90	15.805
503.10	15.764
503.30	15.960
503.50	16.004
503.69	15.845
503.89	15.634
504.09	16.237
504.29	15.685
504.48	16.102
504.68	16.072
504.88	15.782
505.08	16.260
505.28	15.886
505.47	16.683
505.67	16.301
505.87	16.227
506.07	16.191
506.27	16.598
506.46	16.657
506.66	16.541
506.86	16.402
507.06	16.344
507.25	16.546
507.45	16.317
507.65	16.947
507.85	16.606
508.04	16.549
508.24	16.765
508.44	16.668
508.64	16.249
508.83	16.357
509.03	16.185
509.23	16.495
509.43	16.698
509.63	16.627
509.82	16.613
510.02	16.577
510.22	16.750
510.42	16.884
510.61	16.775
510.81	16.392
511.01	16.798
511.21	16.911
511.40	16.405
511.60	17.284
511.80	17.285
511.99	16.896
512.19	17.132
512.39	17.129
512.59	16.591
512.78	17.409
512.98	17.242
513.18	17.349
513.38	17.018
513.57	16.811
513.77	17.192
513.97	17.637
514.17	17.539
514.36	17.505
514.56	17.240
514.76	17.732
514.95	17.481
515.15	17.260
515.35	17.359
515.55	17.469
515.74	17.501
515.94	17.682
516.14	17.446
516.33	17.705
516.53	17.502
516.73	17.415
516.93	17.609
517.12	17.293
517.32	16.904
517.52	17.243
517.71	17.231
517.91	17.332
518.11	17.332
518.30	16.947
518.50	17.178
518.70	16.833
518.90	16.925
519.09	16.691
519.29	16.949
519.49	17.246
519.68	17.205
519.88	17.290
520.08	17.411
520.27	17.445
520.47	17.554
520.67	17.776
520.86	17.654
521.06	17.986
521.26	17.827
521.45	17.410
521.65	17.745
521.85	17.863
522.04	17.652
522.24	17.423
522.44	17.533
522.63	17.591
522.83	17.383
523.03	17.912
523.22	17.548
523.42	17.951
523.62	17.653
523.81	17.601
524.01	17.838
524.21	17.701
524.40	17.372
524.60	17.761
524.80	17.309
524.99	17.376
525.19	17.078
525.39	16.587
525.58	17.436
525.78	17.221
525.98	17.030
526.17	17.249
526.37	17.064
526.57	16.890
526.76	17.376
526.96	17.305
527.15	17.397
527.35	17.419
527.55	17.419
527.74	17.298
527.94	17.168
528.14	16.554
528.33	16.379
528.53	16.232
528.72	16.665
528.92	16.791
529.12	16.964
529.31	17.009
529.51	17.261
529.71	17.437
529.90	17.443
530.10	17.547
530.29	17.843
530.49	18.123
530.69	18.188
530.88	17.880
531.08	18.082
531.28	17.828
531.47	17.509
531.67	17.769
531.86	17.264
532.06	17.590
532.26	17.424
532.45	17.355
532.65	17.153
532.84	17.381
533.04	16.992
533.24	16.769
533.43	16.983
533.63	17.396
533.82	17.461
534.02	17.118
534.22	17.268
534.41	17.475
534.61	17.755
534.80	17.648
535.00	17.815
535.19	17.959
535.39	18.213
535.59	17.976
535.78	18.122
535.98	17.494
536.17	17.718
536.37	17.278
536.57	17.393
536.76	17.309
536.96	17.192
537.15	17.326
537.35	17.525
537.54	17.575
537.74	17.712
537.93	17.977
538.13	17.800
538.33	17.885
538.52	18.021
538.72	17.844
538.91	17.909
539.11	18.406
539.30	18.229
539.50	18.098
539.70	18.298
539.89	17.861
540.09	17.657
540.28	17.838
540.48	17.270
540.67	17.419
540.87	17.367
541.06	17.108
541.26	16.985
541.45	17.163
541.65	17.462
541.85	17.339
542.04	17.532
542.24	17.556
542.43	17.882
542.63	17.918
542.82	17.938
543.02	18.030
543.21	18.355
543.41	18.260
543.60	18.472
543.80	18.734
543.99	18.537
544.19	18.457
544.38	18.299
544.58	18.507
544.77	18.282
544.97	18.473
545.16	18.736
545.36	18.411
545.56	18.420
545.75	18.325
545.95	18.421
546.14	18.410
546.34	18.687
546.53	18.151
546.73	18.226
546.92	18.815
547.12	18.365
547.31	18.747
547.51	18.535
547.70	18.857
547.90	19.039
548.09	18.811
548.29	18.952
548.48	18.543
548.68	19.254
548.87	19.295
549.07	19.451
549.26	19.161
549.46	19.317
549.65	19.220
549.84	19.947
550.04	19.713
550.23	19.145
550.43	19.426
550.62	19.181
550.82	19.613
551.01	19.215
551.21	19.620
551.40	19.806
551.60	19.158
551.79	19.246
551.99	19.506
552.18	19.234
552.38	19.266
552.57	19.598
552.77	19.238
552.96	19.525
553.16	19.216
553.35	19.289
553.54	19.978
553.74	19.666
553.93	19.573
554.13	19.980
554.32	19.872
554.52	20.116
554.71	20.381
554.91	20.095
555.10	20.580
555.29	20.530
555.49	20.506
555.68	20.289
555.88	20.257
556.07	20.025
556.27	20.533
556.46	20.607
556.66	20.361
556.85	19.681
557.04	20.382
557.24	20.411
557.43	20.907
557.63	20.598
557.82	20.466
558.02	20.479
558.21	20.789
558.40	20.430
558.60	20.942
558.79	20.279
558.99	20.739
559.18	20.555
559.38	21.147
559.57	20.908
559.76	21.000
559.96	21.320
560.15	21.208
560.35	20.657
560.54	20.828
560.73	20.486
560.93	20.871
561.12	21.028
561.32	21.204
561.51	21.073
561.70	20.909
561.90	20.865
562.09	21.404
562.29	20.933
562.48	21.156
562.67	21.064
562.87	21.298
563.06	21.235
563.26	21.518
563.45	21.107
563.64	21.431
563.84	21.684
564.03	21.913
564.23	20.880
564.42	21.912
564.61	21.149
564.81	21.563
565.00	21.736
565.20	21.830
565.39	21.551
565.58	21.269
565.78	21.455
565.97	21.023
566.16	21.757
566.36	21.563
566.55	21.652
566.74	21.614
566.94	21.625
567.13	21.743
567.33	22.020
567.52	21.616
567.71	22.258
567.91	21.766
568.10	22.304
568.29	21.851
568.49	22.340
568.68	21.883
568.87	21.642
569.07	22.408
569.26	21.944
569.45	22.043
569.65	21.629
569.84	22.036
570.04	21.716
570.23	21.846
570.42	21.281
570.62	21.686
570.81	21.724
571.00	21.870
571.20	21.789
571.39	21.704
571.58	21.609
571.78	21.860
571.97	21.681
572.16	21.815
572.36	21.487
572.55	21.405
572.74	21.303
572.94	21.414
573.13	21.599
573.32	21.824
573.51	21.489
573.71	21.827
573.90	22.007
574.09	21.935
574.29	22.056
574.48	21.540
574.67	21.424
574.87	22.021
575.06	21.529
575.25	22.125
575.45	21.535
575.64	21.709
575.83	21.290
576.03	22.481
576.22	21.484
576.41	21.317
576.60	21.788
576.80	21.601
576.99	21.612
577.18	22.158
577.38	21.482
577.57	21.690
577.76	22.069
577.95	21.776
578.15	21.373
578.34	21.640
578.53	21.450
578.73	21.605
578.92	21.518
579.11	21.927
579.30	21.354
579.50	21.806
579.69	21.391
579.88	21.659
580.08	20.995
580.27	21.867
580.46	21.510
580.65	21.349
580.85	21.026
581.04	21.570
581.23	21.161
581.42	20.889
581.62	20.593
581.81	20.886
582.00	20.984
582.19	20.878
582.39	21.072
582.58	21.254
582.77	21.188
582.96	21.658
583.16	21.006
583.35	20.893
583.54	21.105
583.73	21.606
583.93	20.188
584.12	20.475
584.31	20.798
584.50	20.982
584.70	20.802
584.89	21.064
585.08	20.811
585.27	21.086
585.47	20.446
585.66	21.250
585.85	20.535
586.04	20.431
586.24	21.252
586.43	20.925
586.62	20.430
586.81	20.946
587.00	20.060
587.20	21.042
587.39	20.230
587.58	20.343
587.77	20.774
587.97	20.555
588.16	20.813
588.35	20.942
588.54	19.795
588.73	20.570
588.93	20.927
589.12	20.652
589.31	20.057
589.50	20.676
589.69	20.862
589.89	20.747
590.08	19.852
590.27	21.104
590.46	20.438
590.65	21.272
590.85	20.781
591.04	21.177
591.23	20.969
591.42	20.889
591.61	20.974
591.81	21.354
592.00	21.073
592.19	21.183
592.38	21.445
592.57	21.237
592.77	21.459
592.96	20.624
593.15	21.409
593.34	21.397
593.53	21.094
593.72	21.004
593.92	21.072
594.11	21.782
594.30	20.793
594.49	21.558
594.68	21.363
594.87	21.587
595.07	21.442
595.26	21.827
595.45	21.633
595.64	22.097
595.83	21.426
596.02	22.101
596.22	22.357
596.41	22.231
596.60	21.927
596.79	21.727
596.98	21.965
597.17	21.760
597.37	22.096
597.56	22.186
597.75	21.788
597.94	22.325
598.13	22.502
598.32	22.795
598.51	22.431
598.71	23.246
598.90	22.682
599.09	22.636
599.28	22.818
599.47	22.881
599.66	22.972
599.85	22.956
600.05	22.892
600.24	23.023
600.43	23.057
600.62	23.184
600.81	23.020
601.00	23.600
601.19	23.373
601.38	23.704
601.58	23.772
601.77	23.571
601.96	22.932
602.15	23.674
602.34	23.847
602.53	23.524
602.72	23.352
602.91	23.867
603.10	23.485
603.30	24.176
603.49	23.448
603.68	24.395
603.87	23.650
604.06	23.850
604.25	24.136
604.44	23.427
604.63	24.028
604.82	24.275
605.01	24.448
605.21	24.343
605.40	24.593
605.59	24.368
605.78	24.391
605.97	24.205
606.16	25.229
606.35	24.473
606.54	24.689
606.73	24.664
606.92	25.083
607.11	24.733
607.30	25.110
607.50	24.810
607.69	24.636
607.88	25.309
608.07	24.668
608.26	25.103
608.45	25.691
608.64	24.779
608.83	24.836
609.02	24.843
609.21	24.974
609.40	24.981
609.59	24.615
609.78	24.915
609.97	24.853
610.16	24.142
610.35	24.932
610.55	25.151
610.74	24.939
610.93	25.736
611.12	24.823
611.31	25.366
611.50	25.329
611.69	24.802
611.88	25.379
612.07	25.226
612.26	25.320
612.45	25.303
612.64	24.907
612.83	25.625
613.02	24.762
613.21	25.659
613.40	25.723
613.59	25.365
613.78	24.557
613.97	25.222
614.16	24.161
614.35	25.528
614.54	23.728
614.73	24.760
614.92	25.372
615.11	24.055
615.30	25.286
615.49	25.498
615.68	24.477
615.87	25.099
616.07	24.244
616.26	24.242
616.45	25.068
616.64	24.685
616.83	25.039
617.02	25.179
617.21	23.598
617.40	25.924
617.59	24.163
617.78	24.402
617.97	24.436
618.16	24.734
618.35	24.346
618.54	24.589
618.73	24.576
618.92	25.692
619.11	25.220
619.30	25.047
619.49	23.925
619.68	24.735
619.86	24.070
620.05	24.326
620.24	24.290
620.43	24.513
620.62	23.379
620.81	24.138
621.00	25.050
621.19	26.027
621.38	24.870
621.57	24.780
621.76	24.051
621.95	25.098
622.14	25.470
622.33	25.198
622.52	23.808
622.71	25.340
622.90	24.175
623.09	24.222
623.28	23.719
623.47	24.894
623.66	23.847
623.85	24.308
624.04	23.088
624.23	25.037
624.42	23.763
624.61	24.344
624.80	23.443
624.99	24.673
625.18	23.103
625.36	24.187
625.55	24.410
625.74	23.974
625.93	23.944
626.12	24.407
626.31	24.270
626.50	24.475
626.69	24.093
626.88	24.597
627.07	23.996
627.26	23.622
627.45	23.778
627.64	24.203
627.83	23.579
628.02	24.347
628.20	23.601
628.39	24.297
628.58	24.614
628.77	24.741
628.96	23.885
629.15	24.064
629.34	23.867
629.53	24.851
629.72	23.457
629.91	24.692
630.10	24.144
630.29	24.909
630.47	23.769
630.66	23.476
630.85	23.519
631.04	24.488
631.23	24.546
631.42	24.741
631.61	23.017
631.80	24.871
631.99	24.349
632.18	24.449
632.36	23.817
632.55	24.589
632.74	23.939
632.93	24.097
633.12	23.559
633.31	24.254
633.50	24.009
633.69	24.267
633.88	23.723
634.06	24.485
634.25	23.664
634.44	24.565
634.63	23.689
634.82	23.910
635.01	23.982
635.20	24.339
635.39	22.674
635.57	24.380
635.76	24.300
635.95	24.138
636.14	23.787
636.33	24.379
636.52	23.699
636.71	24.077
636.89	23.124
637.08	23.138
637.27	23.276
637.46	23.542
637.65	24.218
637.84	23.115
638.03	22.706
638.21	23.814
638.40	23.582
638.59	24.065
638.78	23.997
638.97	24.701
639.16	23.791
639.34	23.850
639.53	23.195
639.72	25.019
639.91	23.319
640.10	23.535
640.29	24.208
640.47	23.812
640.66	23.627
640.85	23.923
641.04	22.747
641.23	24.355
641.42	22.923
641.60	23.760
641.79	23.831
641.98	23.843
642.17	23.653
642.36	23.706
642.54	22.132
642.73	23.996
642.92	22.287
643.11	23.456
643.30	23.123
643.49	23.599
643.67	21.463
643.86	23.538
644.05	22.765
644.24	24.784
644.43	23.006
644.61	23.901
644.80	22.973
644.99	23.852
645.18	24.246
645.37	23.539
645.55	21.826
645.74	23.388
645.93	23.179
646.12	24.527
646.31	23.081
646.49	23.936
646.68	24.703
646.87	23.150
647.06	22.619
647.24	23.979
647.43	22.167
647.62	24.318
647.81	23.447
648.00	24.695
648.18	22.128
648.37	23.864
648.56	23.185
648.75	23.201
648.93	22.937
649.12	23.072
649.31	23.021
649.50	22.791
649.68	22.466
649.87	23.220
650.06	22.241
650.25	23.225
650.43	22.579
650.62	23.575
650.81	21.615
651.00	22.174
651.18	23.137
651.37	23.832
651.56	21.968
651.75	23.310
651.93	22.718
652.12	23.640
652.31	22.672
652.50	23.260
652.68	23.113
652.87	23.114
653.06	22.217
653.25	23.351
653.43	23.052
653.62	22.907
653.81	22.882
654.00	23.944
654.18	22.570
654.37	24.229
654.56	21.903
654.74	21.814
654.93	21.941
655.12	22.172
655.31	21.845
655.49	22.313
655.68	20.725
655.87	21.123
656.05	19.950
656.24	22.502
656.43	20.688
656.62	21.567
656.80	20.447
656.99	21.150
657.18	20.178
657.36	20.723
657.55	21.109
657.74	21.101
657.93	21.003
658.11	20.890
658.30	21.061
658.49	19.608
658.67	19.893
658.86	20.429
659.05	19.733
659.23	20.348
659.42	19.769
659.61	20.575
659.79	19.972
659.98	20.477
660.17	19.343
660.35	20.862
660.54	20.428
660.73	20.525
660.91	20.718
661.10	19.487
661.29	18.848
661.47	20.987
661.66	19.446
661.85	19.127
662.03	19.298
662.22	18.643
662.41	17.179
662.59	18.545
662.78	16.704
662.97	16.990
663.15	16.453
663.34	16.222
663.53	16.267
663.71	17.934
663.90	15.025
664.09	18.018
664.27	16.234
664.46	17.079
664.65	15.339
664.83	16.820
665.02	15.607
665.21	15.051
665.39	14.713
665.58	16.621
665.77	15.918
665.95	15.250
666.14	14.639
666.32	15.719
666.51	14.714
666.70	15.565
666.88	13.552
667.07	15.476
667.26	13.360
667.44	15.221
667.63	14.459
667.81	13.837
668.00	15.259
668.19	16.157
668.37	13.445
668.56	14.962
668.75	12.461
668.93	15.397
669.12	13.448
669.30	15.102
669.49	13.795
669.68	16.082
669.86	15.062
670.05	13.675
670.23	12.752
670.42	13.781
670.61	14.548
670.79	15.512
670.98	13.708
671.16	15.892
671.35	12.632
671.54	14.380
671.72	12.575
671.91	14.135
672.09	12.403
672.28	15.834
672.46	15.128
672.65	15.224
672.84	15.285
673.02	14.847
673.21	10.521
673.39	14.347
673.58	14.418
673.77	16.324
673.95	13.284
674.14	14.898
674.32	13.087
674.51	16.076
674.69	13.343
674.88	14.505
675.07	13.960
675.25	16.406
675.44	13.978
675.62	13.971
675.81	13.313
675.99	19.302
676.18	14.999
676.36	15.107
676.55	13.930
676.74	15.265
676.92	14.226
677.11	15.068
677.29	13.348
677.48	17.477
677.66	15.128
677.85	15.525
678.03	15.923
678.22	15.877
678.40	15.016
678.59	15.321
678.78	13.145
678.96	14.721
679.15	14.532
679.33	17.247
679.52	15.977
679.70	16.159
679.89	15.671
680.07	17.047
680.26	14.691
680.44	16.679
680.63	16.090
680.81	16.516
681.00	14.936
681.18	16.469
681.37	15.565
681.55	18.969
681.74	17.959
681.92	18.227
682.11	17.632
682.29	17.374
682.48	17.063
682.66	19.012
682.85	16.744
683.03	17.532
683.22	18.804
683.40	19.506
683.59	18.240
683.77	19.203
683.96	15.478
684.14	18.993
684.33	16.559
684.51	20.459
684.70	17.651
684.88	21.191
685.07	18.913
685.25	20.748
685.44	17.267
685.62	20.774
685.81	18.899
685.99	20.534
686.18	18.688
686.36	19.714
686.55	17.341
686.73	20.343
686.92	20.780
687.10	21.635
687.29	21.726
687.47	23.059
687.65	21.668
687.84	22.352
688.02	23.525
688.21	24.216
688.39	21.093
688.58	24.415
688.76	22.651
688.95	22.715
689.13	21.363
689.32	24.981
689.50	23.704
689.68	25.287
689.87	24.458
690.05	25.644
690.24	24.945
690.42	25.048
690.61	25.566
690.79	26.407
690.98	26.198
691.16	26.371
691.34	23.808
691.53	27.526
691.71	25.827
691.90	28.434
692.08	26.148
692.27	30.774
692.45	30.289
692.63	28.103
692.82	29.812
693.00	29.215
693.19	26.612
693.37	31.623
693.56	29.716
693.74	31.668
693.92	29.011
694.11	31.440
694.29	32.588
694.48	33.624
694.66	31.326
694.84	33.298
695.03	32.073
695.21	35.582
695.40	33.129
695.58	35.973
695.76	33.665
695.95	35.197
696.13	33.652
696.32	36.047
696.50	38.210
696.68	36.909
696.87	35.889
697.05	37.745
697.24	36.661
697.42	37.653
697.60	35.719
697.79	39.323
697.97	36.837
698.16	37.313
698.34	35.697
698.52	37.392
698.71	37.039
698.89	39.005
699.07	38.419
699.26	38.138
699.44	37.844
699.63	39.845
699.81	39.126
699.99	38.536
700.18	39.129
700.36	41.036
700.54	40.389
700.73	38.133
700.91	40.199
701.09	41.362
701.28	41.367
701.46	40.472
701.64	40.663
701.83	40.933
702.01	40.429
702.20	41.728
702.38	42.661
702.56	43.080
702.75	42.222
702.93	43.213
703.11	40.836
703.30	43.937
703.48	43.145
703.66	45.672
703.85	42.833
704.03	46.737
704.21	43.097
704.40	45.132
704.58	42.964
704.76	43.911
704.95	45.419
705.13	46.173
705.31	42.276
705.50	47.090
705.68	44.053
705.86	45.898
706.04	43.668
706.23	45.822
706.41	45.537
706.59	45.197
706.78	43.006
706.96	44.710
707.14	45.990
707.33	47.380
707.51	45.063
707.69	46.207
707.88	45.167
708.06	48.479
708.24	46.474
708.42	46.689
708.61	47.294
708.79	47.945
708.97	47.665
709.16	48.128
709.34	47.718
709.52	47.137
709.71	44.333
709.89	47.290
710.07	44.813
710.25	48.500
710.44	46.777
710.62	47.701
710.80	47.573
710.98	48.205
711.17	47.724
711.35	47.805
711.53	46.825
711.72	46.670
711.90	46.415
712.08	47.307
712.26	44.669
712.45	46.757
712.63	48.835
712.81	49.011
712.99	47.998
713.18	47.885
713.36	48.708
713.54	48.248
713.72	46.476
713.91	47.695
714.09	46.287
714.27	47.714
714.45	48.000
714.64	50.391
714.82	46.864
715.00	47.745
715.18	47.961
715.37	48.192
715.55	49.001
715.73	47.815
715.91	49.083
716.10	46.093
716.28	46.253
716.46	48.909
716.64	47.327
716.83	48.851
717.01	48.315
717.19	48.853
717.37	47.490
717.55	48.501
717.74	47.219
717.92	48.850
718.10	45.286
718.28	48.872
718.47	46.684
718.65	50.346
718.83	49.830
719.01	48.487
719.19	47.021
719.38	49.062
719.56	49.366
719.74	48.706
719.92	47.332
720.10	46.926
720.29	47.881
720.47	48.357
720.65	49.193
720.83	48.131
721.01	45.883
721.20	48.864
721.38	48.534
721.56	50.952
721.74	46.727
721.92	50.460
722.11	48.197
722.29	52.641
722.47	49.052
722.65	52.745
722.83	50.704
723.01	50.795
723.20	48.130
723.38	49.242
723.56	50.826
723.74	51.271
723.92	51.118
724.10	48.796
724.29	48.946
724.47	50.284
724.65	49.021
724.83	50.344
725.01	50.210
725.19	50.727
725.38	49.283
725.56	50.394
725.74	50.023
725.92	52.491
726.10	49.943
726.28	50.958
726.46	51.549
726.65	52.682
726.83	50.338
727.01	50.436
727.19	52.586
727.37	50.769
727.55	49.606
727.73	49.719
727.92	50.311
728.10	52.847
728.28	51.060
728.46	51.612
728.64	51.576
728.82	49.739
729.00	50.967
729.19	52.960
729.37	49.238
729.55	49.739
729.73	48.054
729.91	50.822
730.09	49.320
730.27	51.742
730.45	49.822
730.63	50.867
730.82	50.492
731.00	51.059
731.18	50.746
731.36	51.796
731.54	50.383
731.72	52.260
731.90	50.735
732.08	50.099
732.26	48.914
732.45	51.986
732.63	49.642
732.81	51.527
732.99	48.736
733.17	53.220
733.35	50.528
733.53	51.228
733.71	51.259
733.89	51.203
734.07	51.820
734.25	51.030
734.44	49.668
734.62	51.911
734.80	49.275
734.98	54.370
735.16	52.161
735.34	54.289
735.52	52.664
735.70	52.356
735.88	54.343
736.06	53.534
736.24	53.254
736.42	53.411
736.60	51.248
736.78	54.353
736.97	53.749
737.15	53.328
737.33	50.758
737.51	54.056
737.69	53.940
737.87	52.724
738.05	54.939
738.23	53.753
738.41	52.140
738.59	54.799
738.77	54.131
738.95	53.979
739.13	56.178
739.31	53.852
739.49	54.932
739.67	54.552
739.85	53.187
740.03	55.096
740.21	51.989
740.39	54.408
740.57	55.931
740.75	55.210
740.93	49.792
741.11	54.571
741.30	54.799
741.48	53.476
741.66	54.839
741.84	57.132
742.02	55.348
742.20	54.805
742.38	53.908
742.56	59.731
742.74	52.292
742.92	49.973
743.10	53.350
743.28	56.374
743.46	54.384
743.64	55.058
743.82	52.378
744.00	57.880
744.18	56.226
744.36	54.142
744.54	54.418
744.72	55.112
744.90	56.670
745.08	56.284
745.26	52.748
745.44	55.689
745.62	52.411
745.80	55.716
745.98	55.478
746.16	55.773
746.34	55.650
746.52	56.023
746.70	52.279
746.87	55.787
747.05	56.332
747.23	56.806
747.41	55.541
747.59	57.166
747.77	54.187
747.95	57.175
748.13	54.804
748.31	61.597
748.49	54.703
748.67	54.208
748.85	56.594
749.03	55.758
749.21	55.369
749.39	59.852
749.57	54.786
749.75	59.192
749.93	54.031
750.11	51.796
750.29	55.028
750.47	53.880
750.65	54.160
750.83	56.167
751.01	55.955
751.18	56.334
751.36	56.170
751.54	58.367
751.72	58.505
751.90	54.884
752.08	55.202
752.26	54.794
752.44	56.094
752.62	55.279
752.80	57.646
752.98	57.107
753.16	53.150
753.34	58.296
753.52	56.833
753.69	56.356
753.87	57.417
754.05	55.686
754.23	55.270
754.41	53.047
754.59	54.755
754.77	54.617
754.95	55.662
755.13	57.875
755.31	54.329
755.49	57.581
755.66	53.180
755.84	55.341
756.02	57.161
756.20	60.103
756.38	53.643
756.56	58.444
756.74	54.273
756.92	59.750
757.10	53.412
757.28	58.711
757.45	57.417
757.63	54.251
757.81	54.914
757.99	58.172
758.17	56.695
758.35	54.758
758.53	55.041
758.71	56.976
758.88	55.319
759.06	56.607
759.24	52.382
759.42	55.257
759.60	51.517
759.78	52.051
759.96	50.244
760.13	50.415
760.31	48.921
760.49	48.554
760.67	43.684
760.85	48.395
761.03	45.930
761.21	48.875
761.38	41.180
761.56	48.833
761.74	44.314
761.92	48.828
762.10	42.780
762.28	47.059
762.46	43.548
762.63	46.671
762.81	43.029
762.99	46.294
763.17	43.946
763.35	47.160
763.53	43.782
763.70	47.851
763.88	48.975
764.06	45.523
764.24	47.202
764.42	48.099
764.60	46.081
764.77	47.183
764.95	46.988
765.13	51.542
765.31	48.734
765.49	49.629
765.66	47.577
765.84	49.305
766.02	47.725
766.20	48.708
766.38	51.034
766.56	49.888
766.73	49.412
766.91	51.391
767.09	50.057
767.27	54.314
767.45	49.015
767.62	50.278
767.80	52.070
767.98	52.279
768.16	49.887
768.33	58.404
768.51	54.040
768.69	54.476
768.87	54.312
769.05	56.027
769.22	50.051
769.40	56.766
769.58	58.014
769.76	60.158
769.94	54.745
770.11	56.427
770.29	57.490
770.47	56.056
770.65	54.211
770.82	57.399
771.00	54.779
771.18	56.794
771.36	55.314
771.53	54.745
771.71	57.024
771.89	56.227
772.07	58.685
772.25	55.633
772.42	56.537
772.60	60.733
772.78	55.036
772.96	61.226
773.13	58.845
773.31	60.831
773.49	51.600
773.67	54.724
773.84	54.384
774.02	57.671
774.20	60.897
774.37	57.815
774.55	57.510
774.73	62.332
774.91	58.250
775.08	58.797
775.26	58.518
775.44	63.964
775.62	54.988
775.79	58.484
775.97	55.704
776.15	57.394
776.32	55.522
776.50	62.274
776.68	55.714
776.86	61.998
777.03	59.845
777.21	58.562
777.39	59.002
777.56	59.596
777.74	54.581
777.92	62.026
778.10	57.403
778.27	61.392
778.45	62.853
778.63	59.553
778.80	54.840
778.98	60.652
779.16	62.289
779.34	60.759
779.51	58.265
779.69	60.140
779.87	53.695
780.04	60.648
780.22	52.747
780.40	62.742
780.57	62.963
780.75	60.113
780.93	63.816
781.10	60.747
781.28	59.744
781.46	55.102
781.63	53.809
781.81	61.408
781.99	54.513
782.16	54.767
782.34	53.707
782.52	61.411
782.69	62.806
782.87	62.099
783.05	61.054
783.22	62.174
783.40	55.855
783.58	62.817
783.75	58.946
783.93	63.962
784.11	59.669
784.28	62.099
784.46	57.828
784.64	60.112
784.81	58.124
784.99	61.183
785.17	58.693
785.34	58.607
785.52	55.736
785.69	56.334
785.87	59.190
786.05	56.357
786.22	56.179
786.40	64.311
786.58	60.487
786.75	60.657
786.93	54.171
787.11	56.576
787.28	57.758
787.46	61.564
787.63	55.134
787.81	56.416
787.99	58.329
788.16	60.925
788.34	55.069
788.51	60.657
788.69	59.152
788.87	57.785
789.04	54.179
789.22	59.141
789.39	52.933
789.57	54.139
789.75	51.616
789.92	58.791
790.10	52.027
790.27	56.078
790.45	52.576
790.63	60.959
790.80	51.856
790.98	55.688
791.15	56.575
791.33	53.793
791.51	54.903
791.68	60.068
791.86	62.197
792.03	60.922
792.21	51.739
792.39	58.778
792.56	51.397
792.74	57.001
792.91	58.319
793.09	60.464
793.26	54.508
793.44	62.954
793.62	55.129
793.79	60.953
793.97	53.580
794.14	55.221
794.32	57.328
794.49	61.312
794.67	54.099
794.84	56.882
795.02	57.428
795.20	59.024
795.37	48.173
795.55	60.233
795.72	57.384
795.90	56.153
796.07	57.469
796.25	58.319
796.42	52.355
796.60	57.874
796.77	55.998
796.95	57.669
797.13	49.385
797.30	57.898
797.48	52.995
797.65	56.190
797.83	53.289
798.00	59.426
798.18	53.158
798.35	59.583
798.53	55.341
798.70	58.770
798.88	53.530
799.05	55.272
799.23	53.553
799.40	52.403
799.58	56.052
799.75	60.693
799.93	49.481
800.10	52.579
800.28	59.707
800.45	57.532
800.63	53.270
800.80	56.398
800.98	56.831
801.15	52.163
801.33	54.156
801.50	56.285
801.68	52.302
801.85	56.725
802.03	50.844
802.20	57.260
802.38	57.991
802.55	54.843
802.73	54.966
802.90	54.619
803.08	50.835
803.25	60.269
803.43	61.143
803.60	64.195
803.78	51.941
803.95	54.430
804.13	57.475
804.30	59.622
804.48	52.451
804.65	58.044
804.83	53.624
805.00	59.309
805.17	55.517
805.35	54.488
805.52	53.333
805.70	61.227
805.87	57.068
806.05	55.940
806.22	54.346
806.40	52.656
806.57	57.978
806.75	66.142
806.92	61.443
807.09	59.836
807.27	54.641
807.44	52.628
807.62	50.870
807.79	59.459
807.97	55.337
808.14	55.502
808.31	55.235
808.49	56.346
808.66	59.695
808.84	53.501
809.01	61.431
809.19	56.077
809.36	61.130
809.53	57.301
809.71	48.860
809.88	59.911
810.06	55.796
810.23	53.460
810.41	56.627
810.58	63.270
810.75	56.614
810.93	58.296
811.10	53.726
811.28	64.497
811.45	54.503
811.62	58.389
811.80	55.164
811.97	51.547
812.15	62.092
812.32	59.743
812.49	53.055
812.67	61.213
812.84	58.886
813.02	63.636
813.19	51.345
813.36	64.353
813.54	57.286
813.71	58.957
813.89	58.379
814.06	61.339
814.23	55.265
814.41	51.489
814.58	51.046
814.75	56.362
814.93	53.328
815.10	56.286
815.28	48.949
815.45	56.475
815.62	57.815
815.80	55.471
815.97	50.707
816.14	60.956
816.32	56.795
816.49	52.999
816.66	49.337
816.84	51.993
817.01	61.857
817.18	54.962
817.36	50.283
817.53	54.147
817.71	44.181
817.88	55.261
818.05	43.402
818.23	54.334
818.40	49.310
818.57	55.206
818.75	53.339
818.92	49.268
819.09	52.030
819.27	54.209
819.44	52.234
819.61	49.276
819.79	50.583
819.96	56.815
820.13	48.260
820.31	48.564
820.48	52.707
820.65	48.614
820.82	47.320
821.00	51.573
821.17	42.057
821.34	46.730
821.52	49.857
821.69	45.766
821.86	44.841
822.04	46.949
822.21	46.101
822.38	45.737
822.56	45.299
822.73	46.455
822.90	43.373
823.07	46.634
823.25	44.971
823.42	45.597
823.59	44.716
823.77	44.723
823.94	43.625
824.11	44.329
824.29	43.201
824.46	45.566
824.63	44.936
824.80	45.496
824.98	45.770
825.15	47.564
825.32	45.740
825.49	47.472
825.67	45.348
825.84	47.598
826.01	44.873
826.19	50.767
826.36	45.536
826.53	50.015
826.70	46.122
826.88	47.761
827.05	45.275
827.22	46.424
827.39	44.516
827.57	45.197
827.74	43.954
827.91	49.145
828.08	45.900
828.26	46.407
828.43	42.941
828.60	48.476
828.77	46.326
828.95	45.549
829.12	41.128
829.29	41.660
829.46	43.665
829.64	45.975
829.81	39.774
829.98	46.835
830.15	44.885
830.32	46.524
830.50	46.243
830.67	50.414
830.84	42.958
831.01	47.297
831.19	39.967
831.36	48.350
831.53	51.688
831.70	52.425
831.87	39.674
832.05	49.629
832.22	53.055
832.39	43.121
832.56	52.149
832.74	48.704
832.91	47.274
833.08	56.642
833.25	44.847
833.42	47.476
833.60	42.088
833.77	42.331
833.94	45.659
834.11	41.081
834.28	37.901
834.45	40.433
834.63	40.008
834.80	42.324
834.97	42.040
835.14	43.197
835.31	41.361
835.49	42.198
835.66	42.088
835.83	43.956
836.00	44.125
836.17	41.975
836.34	42.259
836.52	42.531
836.69	48.992
836.86	45.681
837.03	44.086
837.20	43.835
837.37	46.412
837.55	42.975
837.72	48.257
837.89	46.383
838.06	52.246
838.23	57.676
838.40	57.770
838.58	50.546
838.75	59.001
838.92	61.700
839.09	50.450
839.26	58.652
839.43	64.595
839.60	64.137
839.78	65.658
839.95	65.033
840.12	58.237
840.29	65.724
840.46	65.914
840.63	55.873
840.80	48.919
840.98	57.760
841.15	57.974
841.32	55.104
841.49	51.389
841.66	63.977
841.83	52.275
842.00	44.466
842.17	58.800
842.34	52.584
842.52	64.135
842.69	60.554
842.86	47.859
843.03	74.688
843.20	69.203
843.37	62.500
843.54	65.006
843.71	73.108
843.88	56.556
844.06	80.959
844.23	77.051
844.40	69.182
844.57	81.205
844.74	82.435
844.91	76.973
845.08	82.308
845.25	85.690
845.42	74.699
845.59	77.095
845.76	72.213
845.94	85.413
846.11	87.606
846.28	87.821
846.45	88.139
846.62	107.576
846.79	74.811
846.96	86.602
847.13	92.100
847.30	92.917
847.47	80.403
847.64	89.300
847.81	83.571
847.98	95.975
848.15	84.064
848.32	97.336
848.50	84.848
848.67	87.931
848.84	98.330
849.01	84.314
849.18	107.547
849.35	105.447
849.52	89.610
849.69	89.339
849.86	110.583
850.03	101.458
850.20	93.333
850.37	85.217
850.54	107.097
850.71	91.358
850.88	97.949
851.05	90.728
851.22	101.071
851.39	112.285
851.56	100.493
851.73	123.239
851.90	110.269
852.07	90.316
852.24	101.559
852.41	97.968
852.58	91.048
852.75	89.631
852.92	83.768
853.09	102.637
853.26	105.229
853.43	94.904
853.60	122.350
853.77	100.211
853.94	90.968
854.11	119.481
854.28	116.553
854.45	105.594
854.62	100.217
854.79	104.318
854.96	94.231
855.13	95.682
855.30	94.779
855.47	117.962
855.64	97.395
855.81	116.291
855.98	104.717
856.15	103.254
856.32	85.931
856.49	115.728
856.66	91.608
856.83	79.920
857.00	110.286
857.17	118.795
857.34	104.935
857.51	122.093
857.68	89.053
857.85	95.085
858.02	100.000
858.19	98.305
858.36	107.350
858.53	109.239
858.70	77.374
858.87	98.009
859.04	83.884
859.21	89.901
859.38	99.057
859.55	149.387
859.72	83.871
859.89	112.750
860.05	126.512
860.22	101.370
860.39	104.315
860.56	116.716
860.73	104.497
860.90	126.140
861.07	121.374
861.24	87.905
861.41	102.927
861.58	88.191
861.75	107.368
861.92	113.548
862.09	100.503
862.26	95.990
862.43	117.442
862.59	110.465
862.76	108.864
862.93	111.818
863.10	125.806
863.27	100.495
863.44	104.922
863.61	90.380
863.78	77.728
863.95	129.651
864.12	95.238
864.29	92.575
864.45	107.113
864.62	103.676
864.79	104.119
864.96	96.135
865.13	110.811
865.30	99.789
865.47	93.079
865.64	108.353
865.81	82.510
865.97	99.534
866.14	118.783
866.31	90.237
866.48	111.966
866.65	92.244
866.82	82.456
866.99	129.888
867.16	118.234
867.33	106.015
867.49	100.654
867.66	122.064
867.83	110.496
868.00	95.355
868.17	111.043
868.34	121.038
868.51	106.928
868.67	123.014
868.84	92.105
869.01	111.732
869.18	121.081
869.35	107.399
869.52	75.922
869.69	102.963
869.85	112.230
870.02	92.566
870.19	89.755
870.36	105.787
870.53	92.779
870.70	114.865
870.86	110.963
871.03	94.624
871.20	103.736
871.37	98.511
871.54	92.629
871.71	82.857
871.87	87.417
872.04	100.730
872.21	89.621
872.38	94.748
872.55	111.605
872.72	88.252
872.88	125.000
873.05	82.464
873.22	89.378
873.39	89.302
873.56	90.682
873.72	90.046
873.89	106.510
874.06	109.524
874.23	89.938
874.40	111.053
874.56	122.397
874.73	106.216
874.90	99.492
875.07	104.899
875.24	98.744
875.40	84.416
875.57	95.262
875.74	95.011
875.91	106.824
876.08	83.221
876.24	91.102
876.41	132.036
876.58	78.454
876.75	100.267
876.92	101.422
877.08	98.956
877.25	110.685
877.42	87.222
877.59	92.584
877.75	121.299
877.92	72.500
878.09	90.154
878.26	99.296
878.42	111.809
878.59	93.868
878.76	85.466
878.93	126.000
879.09	92.105
879.26	86.486
879.43	99.168
879.60	98.259
879.76	100.883
879.93	72.581
880.10	74.095
880.27	75.442
880.43	80.212
880.60	67.831
880.77	55.035
880.94	62.354
881.10	67.810
881.27	48.936
881.44	42.016
881.61	45.955
881.77	42.603
881.94	34.910
882.11	31.335
882.28	32.976
882.44	36.184
882.61	39.877
882.78	39.507
882.94	48.913
883.11	36.766
883.28	39.747
883.45	41.524
883.61	39.268
883.78	39.106
883.95	42.113
884.11	40.582
884.28	37.767
>>>>>End Processed Spectral Data<<<<<
