SpectraSuite Data File
++++++++++++++++++++++++++++++++++++
Date: Wed Sep 25 03:46:06 EST 2019
User: sgrac
Dark Spectrum Present: Yes
Reference Spectrum Present: Yes
Number of Sampled Component Spectra: 1
Spectrometers: USB4E01596
Integration Time (usec): 100000 (USB4E01596)
Spectra Averaged: 3 (USB4E01596)
Boxcar Smoothing: 0 (USB4E01596)
Correct for Electrical Dark: No (USB4E01596)
Strobe/Lamp Enabled: Yes (USB4E01596)
Correct for Detector Non-linearity: No (USB4E01596)
Correct for Stray Light: No (USB4E01596)
Number of Pixels in Processed Spectrum: 3648
>>>>>Begin Processed Spectral Data<<<<<
178.44	-386.538
178.66	-386.538
178.87	-386.538
179.09	-787.500
179.30	974.194
179.52	1582.609
179.74	-821.053
179.95	-579.630
180.17	736.735
180.38	-1221.429
180.60	-2226.667
180.82	-5111.111
181.03	734.884
181.25	-3100.000
181.46	-475.000
181.68	437.179
181.89	-1045.161
182.11	10333.333
182.33	769.231
182.54	-20850.000
182.76	698.039
182.97	976.316
183.19	1329.167
183.40	702.174
183.62	1510.000
183.84	467.857
184.05	1600.000
184.27	-3100.000
184.48	32100.000
184.70	1274.074
184.91	703.774
185.13	2507.143
185.34	713.559
185.56	489.655
185.78	1683.333
185.99	670.000
186.21	502.410
186.42	1407.143
186.64	-2855.556
186.85	834.146
187.07	-1192.000
187.28	398.958
187.50	-730.233
187.72	1619.048
187.93	1291.892
188.15	2257.143
188.36	872.917
188.58	650.000
188.79	681.250
189.01	529.508
189.22	472.043
189.44	398.113
189.65	-768.293
189.87	1332.143
190.09	395.192
190.30	400.000
190.52	-522.414
190.73	386.747
190.95	-2535.714
191.16	684.783
191.38	694.231
191.59	518.519
191.81	1638.889
192.02	-3433.333
192.24	-3890.909
192.45	614.516
192.67	-8860.000
192.88	396.512
193.10	504.412
193.31	272.131
193.53	-466.129
193.74	2118.182
193.96	-6933.333
194.18	2414.286
194.39	559.322
194.61	1325.000
194.82	398.864
195.04	309.649
195.25	595.000
195.47	-30300.000
195.68	461.538
195.90	435.556
196.11	1804.762
196.33	-404.762
196.54	1078.571
196.76	600.000
196.97	262.346
197.19	340.602
197.40	-508.000
197.62	708.333
197.83	2258.824
198.05	438.750
198.26	731.250
198.48	2058.824
198.69	-846.154
198.91	584.375
199.12	-17750.000
199.34	797.561
199.55	1585.000
199.77	530.159
199.98	1642.857
200.20	471.429
200.41	367.045
200.63	512.195
200.84	760.000
201.06	293.671
201.27	-556.140
201.49	-4171.429
201.70	568.831
201.91	-5728.571
202.13	-1918.750
202.34	-1160.606
202.56	2042.105
202.77	905.263
202.99	708.511
203.20	458.065
203.42	722.807
203.63	533.803
203.85	-2826.667
204.06	1259.091
204.28	-6100.000
204.49	1400.000
204.71	367.742
204.92	694.118
205.14	2406.250
205.35	1031.250
205.56	2228.571
205.78	676.364
205.99	423.171
206.21	1033.333
206.42	650.847
206.64	650.000
206.85	806.977
207.07	-802.632
207.28	460.870
207.50	862.162
207.71	1096.875
207.93	381.818
208.14	648.000
208.35	856.818
208.57	2193.333
208.78	1532.000
209.00	900.000
209.21	775.556
209.43	305.825
209.64	-3545.455
209.86	858.974
210.07	-1442.857
210.28	423.913
210.50	1826.316
210.71	304.286
210.93	535.897
211.14	400.909
211.36	-3090.000
211.57	573.611
211.78	616.000
212.00	861.702
212.21	989.189
212.43	33300.000
212.64	1158.824
212.86	775.000
213.07	1321.212
213.29	-2546.667
213.50	1177.419
213.71	1612.000
213.93	2122.222
214.14	315.652
214.36	261.392
214.57	668.852
214.78	678.431
215.00	525.000
215.21	2115.385
215.43	395.960
215.64	758.140
215.86	857.576
216.07	795.556
216.28	1400.000
216.50	404.630
216.71	613.793
216.93	847.368
217.14	311.712
217.35	1403.846
217.57	293.548
217.78	1778.947
218.00	460.465
218.21	1560.000
218.42	10966.667
218.64	347.059
218.85	864.444
219.07	649.180
219.28	291.228
219.49	1148.485
219.71	458.108
219.92	1910.000
220.14	2468.750
220.35	515.152
220.56	238.065
220.78	4980.000
220.99	423.171
221.21	283.898
221.42	751.220
221.63	568.333
221.85	719.565
222.06	329.915
222.28	855.263
222.49	875.000
222.70	339.450
222.92	425.843
223.13	469.318
223.34	285.827
223.56	488.406
223.77	490.476
223.99	1334.615
224.20	279.021
224.41	263.115
224.63	290.164
224.84	498.592
225.05	404.396
225.27	448.052
225.48	345.283
225.69	249.405
225.91	861.538
226.12	303.731
226.34	284.828
226.55	274.783
226.76	199.429
226.98	161.017
227.19	198.276
227.40	182.883
227.62	148.988
227.83	139.502
228.04	120.478
228.26	87.218
228.47	111.253
228.69	72.682
228.90	71.175
229.11	69.903
229.33	68.896
229.54	49.378
229.75	46.601
229.97	45.885
230.18	46.450
230.39	38.413
230.61	41.542
230.82	58.879
231.03	45.498
231.25	39.173
231.46	47.145
231.67	66.050
231.89	48.656
232.10	56.574
232.31	65.189
232.53	65.121
232.74	63.430
232.95	73.567
233.17	61.942
233.38	52.068
233.59	68.597
233.81	78.698
234.02	72.179
234.23	58.268
234.45	84.382
234.66	68.593
234.87	69.880
235.09	63.158
235.30	65.352
235.51	62.658
235.73	56.672
235.94	61.912
236.15	58.101
236.36	51.765
236.58	53.445
236.79	52.344
237.00	76.094
237.22	55.136
237.43	56.808
237.64	44.582
237.86	56.269
238.07	60.526
238.28	65.913
238.50	50.853
238.71	59.357
238.92	56.741
239.13	54.658
239.35	59.420
239.56	44.936
239.77	62.660
239.99	52.276
240.20	62.064
240.41	47.163
240.63	44.933
240.84	45.961
241.05	42.555
241.26	40.040
241.48	36.886
241.69	33.926
241.90	26.547
242.12	25.034
242.33	25.654
242.54	22.473
242.75	26.548
242.97	32.671
243.18	19.851
243.39	19.188
243.61	22.550
243.82	28.258
244.03	22.719
244.24	23.614
244.46	22.135
244.67	28.133
244.88	28.064
245.09	24.192
245.31	31.443
245.52	23.091
245.73	27.348
245.95	47.650
246.16	24.725
246.37	24.886
246.58	25.946
246.80	20.423
247.01	21.061
247.22	18.155
247.43	17.945
247.65	20.792
247.86	19.824
248.07	16.335
248.28	18.650
248.50	18.773
248.71	16.044
248.92	17.849
249.13	19.610
249.35	19.212
249.56	18.530
249.77	20.143
249.98	17.374
250.20	24.190
250.41	20.880
250.62	23.387
250.83	23.405
251.05	24.574
251.26	21.436
251.47	24.296
251.68	27.262
251.90	23.957
252.11	28.506
252.32	23.378
252.53	25.000
252.75	23.300
252.96	23.726
253.17	22.878
253.38	20.977
253.59	19.974
253.81	20.669
254.02	18.397
254.23	23.429
254.44	20.779
254.66	21.354
254.87	24.605
255.08	25.794
255.29	27.124
255.50	29.647
255.72	26.391
255.93	31.815
256.14	27.890
256.35	31.433
256.57	28.938
256.78	24.965
256.99	27.225
257.20	32.727
257.41	25.531
257.63	26.052
257.84	27.673
258.05	25.126
258.26	23.520
258.47	23.663
258.69	20.031
258.90	20.656
259.11	22.445
259.32	18.507
259.53	16.518
259.75	13.690
259.96	15.430
260.17	12.439
260.38	14.924
260.59	13.944
260.81	14.197
261.02	14.769
261.23	13.848
261.44	15.124
261.65	13.999
261.87	13.199
262.08	16.890
262.29	17.140
262.50	14.532
262.71	12.661
262.92	18.402
263.14	14.505
263.35	13.422
263.56	18.693
263.77	19.246
263.98	15.928
264.20	17.649
264.41	18.832
264.62	16.188
264.83	15.995
265.04	26.378
265.25	16.011
265.47	20.618
265.68	19.737
265.89	20.102
266.10	17.153
266.31	21.379
266.52	17.789
266.74	18.942
266.95	17.616
267.16	15.784
267.37	19.457
267.58	15.914
267.79	14.459
268.01	15.327
268.22	14.035
268.43	19.783
268.64	17.539
268.85	15.271
269.06	14.610
269.27	16.947
269.49	16.727
269.70	16.925
269.91	16.252
270.12	17.341
270.33	15.497
270.54	16.231
270.75	14.542
270.97	15.649
271.18	12.573
271.39	15.573
271.60	18.100
271.81	14.160
272.02	12.074
272.23	14.503
272.45	14.289
272.66	12.752
272.87	12.850
273.08	13.013
273.29	13.070
273.50	12.779
273.71	13.754
273.92	12.574
274.14	12.176
274.35	15.467
274.56	14.884
274.77	14.460
274.98	14.701
275.19	12.004
275.40	11.722
275.61	15.449
275.83	17.357
276.04	14.597
276.25	17.432
276.46	16.588
276.67	20.215
276.88	16.500
277.09	14.612
277.30	17.025
277.51	14.051
277.73	14.307
277.94	12.068
278.15	15.833
278.36	18.812
278.57	14.585
278.78	14.835
278.99	15.223
279.20	19.435
279.41	20.299
279.62	14.945
279.84	14.819
280.05	14.681
280.26	13.415
280.47	15.063
280.68	15.191
280.89	14.031
281.10	14.486
281.31	15.345
281.52	14.483
281.73	11.096
281.94	11.782
282.16	13.790
282.37	12.569
282.58	11.579
282.79	16.015
283.00	16.097
283.21	12.300
283.42	11.179
283.63	13.609
283.84	11.555
284.05	12.852
284.26	12.739
284.47	10.189
284.68	11.985
284.89	12.140
285.11	12.250
285.32	11.987
285.53	12.022
285.74	13.597
285.95	12.085
286.16	12.808
286.37	11.013
286.58	11.896
286.79	9.894
287.00	12.083
287.21	10.777
287.42	12.491
287.63	10.847
287.84	11.361
288.05	12.734
288.26	11.394
288.48	12.432
288.69	10.366
288.90	12.208
289.11	13.982
289.32	12.900
289.53	10.911
289.74	8.456
289.95	9.140
290.16	12.305
290.37	10.531
290.58	10.649
290.79	11.611
291.00	10.754
291.21	9.934
291.42	10.300
291.63	10.556
291.84	10.970
292.05	10.895
292.26	10.133
292.47	11.002
292.68	9.364
292.89	12.093
293.10	11.442
293.31	11.000
293.52	9.225
293.73	8.788
293.94	13.620
294.15	10.370
294.36	12.004
294.57	10.343
294.79	10.795
295.00	9.719
295.21	12.924
295.42	11.553
295.63	11.374
295.84	10.174
296.05	8.490
296.26	10.490
296.47	9.115
296.68	9.419
296.89	11.219
297.10	9.527
297.31	9.216
297.52	9.152
297.73	9.053
297.94	8.979
298.15	9.390
298.36	9.656
298.57	7.812
298.78	11.573
298.99	8.435
299.20	9.404
299.41	10.333
299.62	9.724
299.83	8.676
300.04	10.319
300.25	11.355
300.46	10.657
300.67	10.154
300.88	11.049
301.09	8.926
301.30	11.217
301.50	8.160
301.71	13.248
301.92	12.360
302.13	9.274
302.34	9.953
302.55	9.517
302.76	10.790
302.97	9.754
303.18	11.393
303.39	9.338
303.60	10.663
303.81	10.922
304.02	7.777
304.23	10.258
304.44	8.346
304.65	11.069
304.86	10.406
305.07	10.974
305.28	9.830
305.49	11.738
305.70	11.173
305.91	7.446
306.12	11.714
306.33	9.810
306.54	9.253
306.75	11.042
306.96	14.013
307.17	9.426
307.38	12.849
307.58	11.131
307.79	10.697
308.00	9.514
308.21	10.557
308.42	10.899
308.63	10.431
308.84	10.518
309.05	8.800
309.26	8.882
309.47	11.964
309.68	9.859
309.89	11.115
310.10	7.660
310.31	8.279
310.52	8.150
310.73	12.168
310.94	7.911
311.14	9.632
311.35	8.175
311.56	8.736
311.77	8.689
311.98	8.926
312.19	7.863
312.40	7.832
312.61	8.682
312.82	9.420
313.03	8.681
313.24	9.702
313.45	10.856
313.66	8.550
313.86	10.976
314.07	8.945
314.28	10.035
314.49	8.705
314.70	8.929
314.91	12.966
315.12	9.793
315.33	10.659
315.54	8.340
315.75	7.953
315.96	9.269
316.16	9.147
316.37	11.090
316.58	9.583
316.79	9.990
317.00	10.878
317.21	11.359
317.42	9.270
317.63	10.102
317.84	11.201
318.05	8.816
318.25	12.326
318.46	9.698
318.67	10.970
318.88	10.377
319.09	10.741
319.30	9.148
319.51	10.255
319.72	9.622
319.93	9.000
320.13	9.066
320.34	10.629
320.55	9.832
320.76	11.470
320.97	10.939
321.18	13.182
321.39	11.286
321.60	9.329
321.80	12.878
322.01	11.870
322.22	9.650
322.43	8.437
322.64	9.604
322.85	10.537
323.06	11.679
323.27	11.503
323.47	11.639
323.68	10.690
323.89	9.701
324.10	8.961
324.31	7.837
324.52	10.020
324.73	8.825
324.93	9.033
325.14	10.529
325.35	10.462
325.56	9.088
325.77	11.147
325.98	8.262
326.19	10.234
326.39	6.171
326.60	9.717
326.81	8.136
327.02	7.575
327.23	8.559
327.44	12.248
327.64	7.548
327.85	7.390
328.06	10.496
328.27	12.237
328.48	9.714
328.69	8.182
328.90	7.753
329.10	9.357
329.31	10.898
329.52	10.056
329.73	10.320
329.94	8.195
330.15	9.986
330.35	9.568
330.56	10.840
330.77	9.329
330.98	9.795
331.19	9.516
331.39	10.835
331.60	9.075
331.81	9.659
332.02	11.448
332.23	10.025
332.44	8.340
332.64	9.039
332.85	9.363
333.06	10.565
333.27	7.089
333.48	10.344
333.68	8.074
333.89	10.618
334.10	10.862
334.31	11.011
334.52	9.151
334.72	11.179
334.93	8.824
335.14	8.449
335.35	9.444
335.56	10.863
335.76	9.142
335.97	11.438
336.18	7.974
336.39	12.928
336.60	9.886
336.80	8.762
337.01	8.781
337.22	8.649
337.43	10.751
337.64	11.652
337.84	10.567
338.05	10.322
338.26	11.348
338.47	11.558
338.68	9.329
338.88	10.972
339.09	10.639
339.30	9.739
339.51	12.448
339.71	13.695
339.92	9.526
340.13	11.208
340.34	9.895
340.55	11.477
340.75	12.379
340.96	9.254
341.17	12.331
341.38	10.142
341.58	12.116
341.79	11.989
342.00	11.962
342.21	11.349
342.41	10.752
342.62	12.510
342.83	14.382
343.04	10.475
343.24	12.828
343.45	15.753
343.66	12.995
343.87	14.097
344.07	12.075
344.28	14.483
344.49	13.566
344.70	17.517
344.90	13.114
345.11	12.123
345.32	13.998
345.53	15.918
345.73	14.957
345.94	18.148
346.15	17.877
346.36	16.648
346.56	17.578
346.77	19.887
346.98	18.004
347.19	18.993
347.39	18.530
347.60	18.443
347.81	20.000
348.02	20.571
348.22	16.634
348.43	18.931
348.64	15.836
348.84	19.345
349.05	18.411
349.26	21.349
349.47	17.111
349.67	17.115
349.88	20.617
350.09	21.028
350.30	23.987
350.50	19.994
350.71	22.382
350.92	23.066
351.12	19.679
351.33	21.701
351.54	20.885
351.74	22.457
351.95	19.881
352.16	21.652
352.37	22.284
352.57	20.772
352.78	19.309
352.99	22.164
353.19	21.297
353.40	22.418
353.61	22.020
353.82	22.858
354.02	23.338
354.23	23.297
354.44	25.821
354.64	21.192
354.85	23.253
355.06	22.944
355.26	21.082
355.47	22.279
355.68	24.196
355.88	24.880
356.09	24.325
356.30	21.822
356.51	24.531
356.71	23.807
356.92	21.565
357.13	24.961
357.33	24.931
357.54	23.601
357.75	20.941
357.95	23.570
358.16	22.825
358.37	27.791
358.57	21.529
358.78	25.418
358.99	23.726
359.19	23.367
359.40	25.401
359.61	23.928
359.81	24.215
360.02	26.476
360.23	22.562
360.43	24.084
360.64	22.996
360.85	23.531
361.05	22.776
361.26	25.998
361.47	23.148
361.67	25.565
361.88	22.605
362.09	24.512
362.29	22.821
362.50	24.146
362.70	21.614
362.91	25.540
363.12	23.031
363.32	23.975
363.53	24.160
363.74	25.322
363.94	22.915
364.15	26.882
364.36	24.767
364.56	25.085
364.77	23.776
364.98	25.488
365.18	24.051
365.39	26.076
365.59	22.892
365.80	23.663
366.01	25.022
366.21	24.325
366.42	22.056
366.63	25.527
366.83	23.391
367.04	20.884
367.24	25.293
367.45	23.490
367.66	22.376
367.86	23.245
368.07	22.839
368.28	23.990
368.48	23.775
368.69	21.934
368.89	23.510
369.10	24.190
369.31	23.512
369.51	24.748
369.72	25.712
369.92	26.968
370.13	20.414
370.34	25.426
370.54	19.798
370.75	24.812
370.95	22.036
371.16	24.320
371.37	21.828
371.57	24.160
371.78	22.724
371.98	25.228
372.19	25.024
372.40	25.175
372.60	25.536
372.81	25.197
373.01	23.002
373.22	24.946
373.43	25.053
373.63	26.513
373.84	24.481
374.04	25.474
374.25	24.102
374.46	24.920
374.66	23.716
374.87	27.506
375.07	23.642
375.28	25.425
375.48	25.530
375.69	25.840
375.90	23.897
376.10	24.535
376.31	24.239
376.51	23.626
376.72	24.526
376.92	24.078
377.13	24.391
377.34	26.087
377.54	23.608
377.75	26.697
377.95	24.250
378.16	26.192
378.36	24.414
378.57	26.119
378.77	25.650
378.98	26.350
379.19	25.738
379.39	25.942
379.60	25.624
379.80	28.035
380.01	26.628
380.21	27.138
380.42	26.637
380.62	26.458
380.83	27.677
381.04	26.267
381.24	26.733
381.45	26.551
381.65	27.348
381.86	27.887
382.06	26.633
382.27	26.339
382.47	26.656
382.68	28.054
382.88	25.982
383.09	27.571
383.29	27.131
383.50	28.545
383.71	27.349
383.91	28.023
384.12	27.653
384.32	28.687
384.53	28.311
384.73	27.067
384.94	26.997
385.14	27.666
385.35	27.983
385.55	28.776
385.76	27.791
385.96	28.189
386.17	29.055
386.37	29.371
386.58	29.080
386.78	29.947
386.99	27.971
387.19	29.474
387.40	29.359
387.60	30.616
387.81	29.685
388.01	30.122
388.22	30.314
388.42	30.673
388.63	29.950
388.83	31.055
389.04	30.081
389.24	30.853
389.45	30.810
389.65	31.269
389.86	31.060
390.06	31.531
390.27	30.820
390.47	31.896
390.68	30.612
390.88	31.406
391.09	32.170
391.29	32.999
391.50	31.718
391.70	31.460
391.91	31.890
392.11	32.729
392.32	32.218
392.52	32.691
392.73	32.663
392.93	33.182
393.14	32.861
393.34	32.879
393.55	33.178
393.75	33.523
393.95	32.911
394.16	33.094
394.36	32.533
394.57	33.048
394.77	32.989
394.98	33.799
395.18	32.753
395.39	33.419
395.59	33.673
395.80	34.038
396.00	33.956
396.21	34.373
396.41	34.097
396.61	35.306
396.82	34.167
397.02	34.373
397.23	33.935
397.43	34.090
397.64	34.577
397.84	35.337
398.05	33.727
398.25	33.556
398.45	33.011
398.66	34.530
398.86	34.055
399.07	34.841
399.27	34.472
399.48	32.499
399.68	34.420
399.89	33.364
400.09	34.617
400.29	34.451
400.50	34.701
400.70	33.978
400.91	34.293
401.11	34.020
401.32	34.942
401.52	34.135
401.72	34.766
401.93	35.466
402.13	35.345
402.34	34.529
402.54	34.845
402.75	34.160
402.95	33.804
403.15	33.719
403.36	33.396
403.56	33.894
403.77	33.520
403.97	33.466
404.17	32.626
404.38	33.577
404.58	33.284
404.79	32.754
404.99	32.653
405.19	33.466
405.40	32.163
405.60	33.157
405.81	32.769
406.01	34.062
406.21	32.890
406.42	33.226
406.62	33.661
406.83	33.667
407.03	34.170
407.23	35.101
407.44	33.910
407.64	33.861
407.85	33.947
408.05	33.483
408.25	33.283
408.46	33.968
408.66	34.681
408.87	33.552
409.07	33.859
409.27	33.085
409.48	32.986
409.68	32.982
409.88	32.381
410.09	32.753
410.29	32.858
410.50	32.474
410.70	32.622
410.90	32.077
411.11	31.718
411.31	33.184
411.51	32.699
411.72	32.671
411.92	32.198
412.12	33.466
412.33	32.129
412.53	32.735
412.74	32.444
412.94	32.511
413.14	32.902
413.35	33.164
413.55	32.017
413.75	32.228
413.96	32.036
414.16	32.804
414.36	32.352
414.57	32.587
414.77	30.537
414.97	31.954
415.18	31.896
415.38	32.249
415.58	31.586
415.79	31.926
415.99	31.110
416.19	31.506
416.40	31.203
416.60	31.369
416.80	31.084
417.01	30.360
417.21	30.488
417.41	30.657
417.62	30.780
417.82	30.616
418.02	30.636
418.23	30.156
418.43	30.624
418.63	30.091
418.84	30.784
419.04	29.649
419.24	30.404
419.45	29.998
419.65	30.192
419.85	29.857
420.06	30.320
420.26	29.741
420.46	29.852
420.67	30.244
420.87	29.823
421.07	29.762
421.28	29.220
421.48	29.320
421.68	29.586
421.88	29.561
422.09	29.979
422.29	29.665
422.49	29.632
422.70	30.017
422.90	30.065
423.10	30.258
423.31	30.181
423.51	29.886
423.71	29.670
423.91	29.194
424.12	29.539
424.32	29.008
424.52	29.066
424.73	29.020
424.93	28.969
425.13	28.585
425.33	29.084
425.54	28.994
425.74	29.846
425.94	29.897
426.15	29.666
426.35	29.592
426.55	29.982
426.75	30.129
426.96	30.109
427.16	29.629
427.36	30.135
427.57	30.413
427.77	30.240
427.97	30.198
428.17	29.463
428.38	29.980
428.58	29.485
428.78	30.217
428.98	30.176
429.19	29.712
429.39	28.894
429.59	29.601
429.79	29.259
430.00	29.627
430.20	29.082
430.40	29.196
430.60	28.483
430.81	28.745
431.01	29.775
431.21	29.105
431.41	29.419
431.62	29.589
431.82	29.249
432.02	29.509
432.22	29.128
432.43	28.640
432.63	28.310
432.83	29.104
433.03	28.669
433.24	28.467
433.44	28.497
433.64	28.291
433.84	28.916
434.05	28.548
434.25	28.521
434.45	28.636
434.65	28.588
434.85	28.280
435.06	28.477
435.26	29.116
435.46	29.534
435.66	29.216
435.87	28.940
436.07	29.020
436.27	28.780
436.47	29.060
436.67	29.032
436.88	29.559
437.08	29.541
437.28	29.710
437.48	28.971
437.69	28.957
437.89	28.547
438.09	28.927
438.29	28.670
438.49	28.655
438.70	28.371
438.90	28.460
439.10	28.485
439.30	27.830
439.50	27.801
439.71	28.582
439.91	28.500
440.11	28.285
440.31	28.529
440.51	28.407
440.72	28.101
440.92	28.342
441.12	28.649
441.32	28.529
441.52	28.766
441.72	28.371
441.93	28.714
442.13	28.751
442.33	29.099
442.53	29.011
442.73	29.023
442.94	28.841
443.14	29.276
443.34	29.136
443.54	29.049
443.74	29.043
443.94	28.824
444.15	28.685
444.35	28.925
444.55	28.656
444.75	28.443
444.95	28.619
445.15	28.263
445.36	28.045
445.56	27.492
445.76	27.984
445.96	27.904
446.16	27.954
446.36	27.955
446.57	27.618
446.77	28.273
446.97	27.881
447.17	27.928
447.37	28.547
447.57	27.808
447.77	28.617
447.98	28.449
448.18	28.838
448.38	28.388
448.58	28.901
448.78	29.525
448.98	28.700
449.18	29.115
449.39	28.790
449.59	28.934
449.79	28.663
449.99	28.998
450.19	29.179
450.39	28.998
450.59	28.596
450.79	28.880
451.00	29.117
451.20	29.607
451.40	28.824
451.60	28.855
451.80	28.761
452.00	28.518
452.20	28.300
452.40	29.097
452.61	28.640
452.81	28.365
453.01	28.483
453.21	27.785
453.41	28.779
453.61	28.508
453.81	28.077
454.01	28.446
454.21	28.469
454.42	28.057
454.62	28.639
454.82	28.561
455.02	28.681
455.22	28.638
455.42	28.692
455.62	28.452
455.82	28.266
456.02	28.281
456.23	28.233
456.43	28.999
456.63	28.588
456.83	28.446
457.03	27.534
457.23	28.010
457.43	28.699
457.63	28.533
457.83	28.624
458.03	28.142
458.23	27.802
458.43	28.015
458.64	27.918
458.84	27.334
459.04	27.519
459.24	27.107
459.44	27.315
459.64	26.479
459.84	26.898
460.04	26.834
460.24	27.211
460.44	27.092
460.64	27.238
460.84	27.638
461.04	27.385
461.24	27.386
461.45	27.840
461.65	28.478
461.85	28.834
462.05	28.161
462.25	28.468
462.45	28.095
462.65	28.319
462.85	28.412
463.05	28.417
463.25	28.446
463.45	28.218
463.65	27.930
463.85	28.145
464.05	28.251
464.25	27.840
464.45	28.168
464.65	27.849
464.85	27.604
465.05	27.612
465.26	27.391
465.46	27.504
465.66	28.307
465.86	27.815
466.06	27.293
466.26	27.620
466.46	27.244
466.66	26.988
466.86	27.497
467.06	27.315
467.26	27.215
467.46	27.459
467.66	27.071
467.86	27.474
468.06	27.263
468.26	27.810
468.46	28.176
468.66	27.898
468.86	27.506
469.06	27.336
469.26	27.531
469.46	27.801
469.66	27.974
469.86	27.830
470.06	27.385
470.26	27.528
470.46	27.944
470.66	27.944
470.86	27.518
471.06	27.674
471.26	27.528
471.46	27.817
471.66	27.883
471.86	27.990
472.06	28.006
472.26	27.560
472.46	27.765
472.66	27.621
472.86	27.119
473.06	27.683
473.26	27.783
473.46	27.111
473.66	27.863
473.86	27.722
474.06	27.114
474.26	27.519
474.46	27.705
474.66	27.541
474.86	27.508
475.06	28.228
475.26	27.661
475.46	27.949
475.66	27.455
475.86	27.026
476.06	28.880
476.26	27.784
476.46	26.760
476.66	27.511
476.86	27.982
477.06	27.546
477.26	27.644
477.46	27.752
477.65	27.604
477.85	27.815
478.05	27.270
478.25	27.781
478.45	27.473
478.65	27.771
478.85	28.043
479.05	27.472
479.25	27.589
479.45	27.865
479.65	27.456
479.85	27.887
480.05	27.336
480.25	27.537
480.45	27.454
480.65	27.824
480.85	27.879
481.05	27.561
481.25	27.402
481.44	27.171
481.64	27.576
481.84	27.560
482.04	27.514
482.24	27.543
482.44	26.829
482.64	26.881
482.84	26.897
483.04	26.534
483.24	26.341
483.44	25.495
483.64	25.489
483.84	25.391
484.04	26.121
484.23	26.899
484.43	27.197
484.63	28.040
484.83	28.636
485.03	29.718
485.23	29.580
485.43	29.419
485.63	29.044
485.83	29.353
486.03	29.395
486.23	29.373
486.42	28.807
486.62	28.800
486.82	28.329
487.02	27.637
487.22	27.137
487.42	27.227
487.62	26.972
487.82	26.873
488.02	27.292
488.22	27.285
488.41	27.462
488.61	27.419
488.81	28.081
489.01	27.912
489.21	28.409
489.41	28.426
489.61	28.537
489.81	28.538
490.01	28.943
490.20	28.679
490.40	28.405
490.60	28.088
490.80	28.073
491.00	27.293
491.20	26.848
491.40	26.528
491.60	26.441
491.79	26.947
491.99	26.914
492.19	27.218
492.39	27.235
492.59	27.427
492.79	27.417
492.99	27.849
493.19	28.084
493.38	28.879
493.58	29.014
493.78	29.072
493.98	29.145
494.18	28.774
494.38	28.826
494.58	28.896
494.77	28.178
494.97	28.295
495.17	28.345
495.37	28.219
495.57	27.947
495.77	27.631
495.96	27.909
496.16	27.566
496.36	27.463
496.56	27.561
496.76	27.088
496.96	27.607
497.15	27.441
497.35	27.221
497.55	27.282
497.75	27.810
497.95	27.888
498.15	28.010
498.34	27.954
498.54	27.760
498.74	28.468
498.94	27.680
499.14	28.550
499.34	27.889
499.53	28.365
499.73	28.239
499.93	28.380
500.13	27.964
500.33	28.009
500.52	28.112
500.72	28.598
500.92	28.096
501.12	28.402
501.32	28.898
501.52	28.457
501.71	28.224
501.91	28.127
502.11	28.324
502.31	28.638
502.51	28.016
502.70	28.370
502.90	28.319
503.10	28.475
503.30	28.077
503.50	28.571
503.69	28.533
503.89	28.056
504.09	28.001
504.29	28.079
504.48	28.339
504.68	28.303
504.88	28.331
505.08	28.694
505.28	28.142
505.47	28.874
505.67	28.499
505.87	28.692
506.07	28.536
506.27	28.584
506.46	28.683
506.66	28.777
506.86	28.618
507.06	28.605
507.25	28.689
507.45	28.698
507.65	28.792
507.85	28.671
508.04	28.910
508.24	28.591
508.44	28.708
508.64	28.999
508.83	28.622
509.03	28.318
509.23	28.407
509.43	28.914
509.63	28.387
509.82	28.919
510.02	28.983
510.22	28.916
510.42	29.113
510.61	29.280
510.81	29.004
511.01	29.031
511.21	28.536
511.40	28.912
511.60	28.697
511.80	28.855
511.99	29.225
512.19	29.221
512.39	29.395
512.59	29.306
512.78	29.334
512.98	29.519
513.18	29.376
513.38	29.329
513.57	29.386
513.77	29.537
513.97	29.118
514.17	29.433
514.36	29.759
514.56	30.057
514.76	29.537
514.95	30.004
515.15	29.507
515.35	29.337
515.55	29.635
515.74	29.700
515.94	29.235
516.14	29.565
516.33	29.423
516.53	30.000
516.73	29.773
516.93	29.508
517.12	29.117
517.32	29.638
517.52	29.232
517.71	29.355
517.91	28.998
518.11	28.952
518.30	28.802
518.50	29.026
518.70	28.698
518.90	29.184
519.09	29.199
519.29	29.488
519.49	29.674
519.68	29.802
519.88	29.876
520.08	30.097
520.27	30.103
520.47	30.087
520.67	30.488
520.86	30.690
521.06	30.613
521.26	30.703
521.45	29.775
521.65	29.942
521.85	30.078
522.04	29.639
522.24	29.876
522.44	30.082
522.63	30.207
522.83	30.512
523.03	30.197
523.22	30.575
523.42	30.119
523.62	30.165
523.81	30.006
524.01	29.879
524.21	29.751
524.40	29.773
524.60	29.746
524.80	29.566
524.99	29.834
525.19	29.232
525.39	28.883
525.58	29.199
525.78	29.109
525.98	29.254
526.17	29.073
526.37	29.440
526.57	29.898
526.76	29.957
526.96	29.437
527.15	30.090
527.35	29.904
527.55	29.990
527.74	29.845
527.94	29.551
528.14	28.618
528.33	28.787
528.53	28.451
528.72	29.314
528.92	29.332
529.12	29.920
529.31	30.008
529.51	30.458
529.71	30.438
529.90	30.847
530.10	30.907
530.29	31.439
530.49	31.919
530.69	32.243
530.88	31.960
531.08	31.709
531.28	31.073
531.47	30.870
531.67	30.904
531.86	30.252
532.06	30.480
532.26	30.218
532.45	30.006
532.65	30.095
532.84	29.597
533.04	29.429
533.24	29.328
533.43	29.508
533.63	30.264
533.82	30.201
534.02	30.519
534.22	30.694
534.41	30.451
534.61	30.772
534.80	31.159
535.00	31.219
535.19	31.390
535.39	31.636
535.59	31.814
535.78	31.343
535.98	30.901
536.17	31.062
536.37	30.229
536.57	30.272
536.76	30.408
536.96	30.423
537.15	30.620
537.35	30.486
537.54	30.907
537.74	30.985
537.93	30.852
538.13	30.905
538.33	31.216
538.52	31.740
538.72	31.866
538.91	31.620
539.11	31.266
539.30	31.637
539.50	31.513
539.70	31.404
539.89	31.095
540.09	30.781
540.28	31.025
540.48	30.358
540.67	30.025
540.87	30.027
541.06	29.565
541.26	29.774
541.45	30.175
541.65	30.427
541.85	30.820
542.04	31.165
542.24	30.882
542.43	31.423
542.63	31.725
542.82	31.434
543.02	31.651
543.21	32.391
543.41	32.236
543.60	32.446
543.80	32.602
543.99	32.468
544.19	32.352
544.38	32.036
544.58	32.030
544.77	31.773
544.97	32.294
545.16	32.213
545.36	32.013
545.56	32.420
545.75	32.179
545.95	32.037
546.14	31.865
546.34	31.447
546.53	31.607
546.73	31.803
546.92	31.508
547.12	31.677
547.31	32.155
547.51	32.258
547.70	32.193
547.90	32.158
548.09	32.356
548.29	32.497
548.48	32.436
548.68	32.900
548.87	33.118
549.07	33.244
549.26	33.146
549.46	32.858
549.65	32.978
549.84	32.965
550.04	33.158
550.23	32.947
550.43	32.818
550.62	33.025
550.82	32.664
551.01	33.360
551.21	33.088
551.40	33.776
551.60	33.409
551.79	33.294
551.99	33.110
552.18	33.071
552.38	33.078
552.57	33.384
552.77	33.243
552.96	33.170
553.16	32.966
553.35	33.987
553.54	33.554
553.74	33.639
553.93	33.575
554.13	34.332
554.32	33.993
554.52	33.681
554.71	34.553
554.91	33.748
555.10	34.650
555.29	34.482
555.49	33.891
555.68	34.561
555.88	33.863
556.07	33.919
556.27	34.080
556.46	34.687
556.66	33.728
556.85	33.951
557.04	34.723
557.24	34.843
557.43	34.851
557.63	35.214
557.82	34.623
558.02	34.843
558.21	35.537
558.40	35.311
558.60	35.199
558.79	34.570
558.99	35.190
559.18	34.937
559.38	35.408
559.57	35.564
559.76	34.551
559.96	36.010
560.15	35.073
560.35	35.104
560.54	35.280
560.73	35.230
560.93	34.895
561.12	35.886
561.32	35.994
561.51	36.321
561.70	35.741
561.90	35.326
562.09	36.355
562.29	36.094
562.48	34.871
562.67	36.374
562.87	35.490
563.06	35.738
563.26	36.317
563.45	35.991
563.64	36.776
563.84	36.514
564.03	36.383
564.23	35.922
564.42	36.685
564.61	36.486
564.81	36.489
565.00	36.104
565.20	36.048
565.39	36.171
565.58	36.403
565.78	35.965
565.97	36.146
566.16	36.582
566.36	36.711
566.55	36.477
566.74	36.643
566.94	36.325
567.13	37.133
567.33	37.155
567.52	37.642
567.71	37.174
567.91	37.069
568.10	37.027
568.29	37.285
568.49	38.003
568.68	37.212
568.87	37.545
569.07	37.659
569.26	37.149
569.45	37.203
569.65	36.643
569.84	37.126
570.04	37.522
570.23	37.375
570.42	37.842
570.62	37.220
570.81	37.914
571.00	37.694
571.20	37.257
571.39	37.402
571.58	36.720
571.78	37.806
571.97	37.443
572.16	37.429
572.36	36.737
572.55	37.378
572.74	36.620
572.94	37.935
573.13	37.532
573.32	37.003
573.51	37.909
573.71	38.274
573.90	37.946
574.09	37.909
574.29	38.073
574.48	37.608
574.67	37.870
574.87	38.179
575.06	37.425
575.25	37.207
575.45	37.523
575.64	38.094
575.83	37.397
576.03	38.588
576.22	38.631
576.41	37.613
576.60	37.942
576.80	38.102
576.99	38.343
577.18	38.111
577.38	37.741
577.57	38.067
577.76	38.698
577.95	38.732
578.15	37.961
578.34	38.823
578.53	38.589
578.73	38.191
578.92	38.207
579.11	38.651
579.30	38.354
579.50	38.043
579.69	38.235
579.88	38.432
580.08	38.406
580.27	38.504
580.46	37.722
580.65	37.755
580.85	37.096
581.04	38.488
581.23	38.449
581.42	38.531
581.62	37.896
581.81	37.835
582.00	38.928
582.19	38.197
582.39	38.657
582.58	38.023
582.77	39.045
582.96	39.016
583.16	37.265
583.35	37.968
583.54	38.442
583.73	38.248
583.93	38.013
584.12	38.542
584.31	37.952
584.50	37.909
584.70	38.878
584.89	37.857
585.08	38.741
585.27	38.842
585.47	37.364
585.66	38.264
585.85	38.326
586.04	37.280
586.24	38.742
586.43	38.207
586.62	37.888
586.81	38.151
587.00	38.449
587.20	37.769
587.39	38.333
587.58	38.090
587.77	37.695
587.97	37.772
588.16	38.000
588.35	37.564
588.54	38.115
588.73	37.843
588.93	37.179
589.12	37.499
589.31	38.047
589.50	37.439
589.69	37.725
589.89	37.377
590.08	36.958
590.27	37.456
590.46	37.350
590.65	37.458
590.85	37.790
591.04	38.130
591.23	37.891
591.42	37.998
591.61	38.524
591.81	37.818
592.00	38.379
592.19	38.049
592.38	38.246
592.57	37.814
592.77	38.417
592.96	37.799
593.15	38.172
593.34	38.305
593.53	38.117
593.72	37.132
593.92	37.743
594.11	37.902
594.30	36.695
594.49	37.849
594.68	38.058
594.87	37.313
595.07	37.547
595.26	37.885
595.45	38.271
595.64	38.632
595.83	37.610
596.02	37.703
596.22	37.565
596.41	37.954
596.60	37.752
596.79	37.363
596.98	37.192
597.17	37.647
597.37	37.598
597.56	37.854
597.75	37.785
597.94	37.467
598.13	37.586
598.32	37.828
598.51	37.396
598.71	38.905
598.90	38.473
599.09	38.280
599.28	38.970
599.47	37.948
599.66	38.234
599.85	38.945
600.05	38.783
600.24	37.325
600.43	38.730
600.62	38.124
600.81	39.132
601.00	38.069
601.19	39.026
601.38	37.851
601.58	39.201
601.77	38.561
601.96	38.469
602.15	38.370
602.34	39.673
602.53	39.098
602.72	38.330
602.91	38.265
603.10	38.713
603.30	38.247
603.49	38.260
603.68	38.771
603.87	38.331
604.06	38.124
604.25	38.072
604.44	37.736
604.63	38.093
604.82	38.367
605.01	38.664
605.21	38.383
605.40	38.220
605.59	38.101
605.78	38.554
605.97	38.175
606.16	39.403
606.35	39.059
606.54	39.099
606.73	38.653
606.92	39.070
607.11	38.904
607.30	38.858
607.50	39.684
607.69	38.880
607.88	39.361
608.07	37.832
608.26	38.437
608.45	38.069
608.64	38.155
608.83	37.249
609.02	38.897
609.21	38.034
609.40	37.913
609.59	38.000
609.78	37.984
609.97	37.794
610.16	38.395
610.35	37.792
610.55	37.843
610.74	37.984
610.93	38.440
611.12	38.078
611.31	38.711
611.50	37.959
611.69	39.036
611.88	39.057
612.07	38.999
612.26	38.224
612.45	38.408
612.64	38.272
612.83	38.125
613.02	38.505
613.21	38.100
613.40	38.900
613.59	38.447
613.78	37.834
613.97	37.069
614.16	37.304
614.35	38.684
614.54	37.743
614.73	37.482
614.92	38.123
615.11	37.791
615.30	38.673
615.49	38.426
615.68	38.157
615.87	39.154
616.07	37.587
616.26	36.972
616.45	37.812
616.64	36.912
616.83	37.847
617.02	38.066
617.21	37.091
617.40	36.549
617.59	36.805
617.78	37.861
617.97	36.894
618.16	37.483
618.35	36.941
618.54	36.611
618.73	37.470
618.92	37.523
619.11	37.544
619.30	37.218
619.49	36.800
619.68	37.683
619.86	36.736
620.05	36.845
620.24	36.628
620.43	37.228
620.62	36.762
620.81	36.631
621.00	36.612
621.19	37.613
621.38	37.824
621.57	38.016
621.76	36.058
621.95	37.406
622.14	37.530
622.33	36.761
622.52	36.746
622.71	36.354
622.90	37.082
623.09	36.185
623.28	36.580
623.47	37.006
623.66	35.599
623.85	36.440
624.04	36.179
624.23	36.864
624.42	36.676
624.61	36.998
624.80	36.052
624.99	36.153
625.18	36.344
625.36	36.328
625.55	36.116
625.74	36.962
625.93	36.365
626.12	36.150
626.31	35.841
626.50	36.484
626.69	36.478
626.88	35.957
627.07	35.979
627.26	35.928
627.45	35.039
627.64	36.892
627.83	36.156
628.02	35.620
628.20	35.579
628.39	36.086
628.58	36.954
628.77	36.729
628.96	36.369
629.15	35.795
629.34	36.506
629.53	36.224
629.72	36.211
629.91	36.359
630.10	35.943
630.29	35.824
630.47	35.367
630.66	35.825
630.85	34.973
631.04	36.596
631.23	36.687
631.42	35.874
631.61	35.388
631.80	36.254
631.99	36.265
632.18	35.971
632.36	35.950
632.55	36.702
632.74	35.458
632.93	36.112
633.12	35.444
633.31	35.915
633.50	35.866
633.69	35.637
633.88	36.061
634.06	36.044
634.25	35.063
634.44	36.307
634.63	35.197
634.82	36.172
635.01	36.588
635.20	35.795
635.39	35.454
635.57	36.685
635.76	35.327
635.95	35.944
636.14	35.066
636.33	35.885
636.52	36.302
636.71	35.003
636.89	36.065
637.08	35.924
637.27	36.063
637.46	35.638
637.65	36.057
637.84	35.677
638.03	35.719
638.21	35.674
638.40	35.867
638.59	36.444
638.78	36.546
638.97	36.478
639.16	34.359
639.34	35.404
639.53	35.659
639.72	36.298
639.91	36.120
640.10	35.035
640.29	36.483
640.47	36.260
640.66	35.730
640.85	35.579
641.04	35.658
641.23	35.949
641.42	35.082
641.60	35.290
641.79	36.497
641.98	36.173
642.17	35.544
642.36	35.464
642.54	35.009
642.73	36.492
642.92	36.017
643.11	35.659
643.30	35.357
643.49	35.754
643.67	34.909
643.86	36.009
644.05	35.394
644.24	36.333
644.43	35.655
644.61	36.245
644.80	35.045
644.99	36.274
645.18	35.900
645.37	35.884
645.55	34.250
645.74	34.994
645.93	34.863
646.12	36.331
646.31	35.517
646.49	35.690
646.68	36.079
646.87	34.899
647.06	34.350
647.24	36.021
647.43	34.593
647.62	36.207
647.81	35.422
648.00	35.811
648.18	34.694
648.37	35.917
648.56	34.835
648.75	36.001
648.93	34.897
649.12	35.282
649.31	34.178
649.50	35.778
649.68	34.700
649.87	35.220
650.06	35.247
650.25	35.111
650.43	35.607
650.62	35.326
650.81	33.901
651.00	35.267
651.18	35.820
651.37	35.684
651.56	34.908
651.75	35.783
651.93	35.358
652.12	35.095
652.31	35.832
652.50	34.922
652.68	35.339
652.87	34.762
653.06	35.762
653.25	36.078
653.43	35.078
653.62	35.456
653.81	34.370
654.00	36.916
654.18	33.688
654.37	35.431
654.56	34.752
654.74	35.288
654.93	34.188
655.12	35.010
655.31	34.972
655.49	35.421
655.68	33.517
655.87	34.010
656.05	33.474
656.24	34.396
656.43	33.620
656.62	33.930
656.80	33.418
656.99	33.735
657.18	31.291
657.36	34.784
657.55	33.016
657.74	33.846
657.93	33.988
658.11	34.016
658.30	32.550
658.49	33.274
658.67	32.050
658.86	32.803
659.05	31.812
659.23	32.454
659.42	31.915
659.61	32.310
659.79	33.134
659.98	32.708
660.17	32.461
660.35	32.437
660.54	32.542
660.73	32.533
660.91	32.286
661.10	31.652
661.29	31.489
661.47	32.235
661.66	32.636
661.85	31.055
662.03	31.511
662.22	31.744
662.41	30.462
662.59	31.488
662.78	30.846
662.97	30.236
663.15	29.429
663.34	30.833
663.53	30.426
663.71	30.477
663.90	28.538
664.09	30.527
664.27	28.916
664.46	29.875
664.65	28.073
664.83	29.955
665.02	28.124
665.21	27.571
665.39	27.328
665.58	28.899
665.77	27.714
665.95	28.761
666.14	27.042
666.32	28.818
666.51	27.449
666.70	27.944
666.88	27.779
667.07	27.447
667.26	26.606
667.44	27.659
667.63	27.859
667.81	27.873
668.00	28.461
668.19	28.828
668.37	26.970
668.56	28.501
668.75	25.855
668.93	28.531
669.12	26.532
669.30	27.489
669.49	25.387
669.68	27.128
669.86	28.174
670.05	26.916
670.23	25.711
670.42	27.422
670.61	27.868
670.79	28.075
670.98	25.347
671.16	28.441
671.35	25.332
671.54	27.457
671.72	25.962
671.91	28.317
672.09	24.204
672.28	27.065
672.46	27.439
672.65	27.099
672.84	27.510
673.02	27.034
673.21	25.394
673.39	27.903
673.58	26.912
673.77	27.650
673.95	27.252
674.14	27.209
674.32	26.113
674.51	28.421
674.69	27.325
674.88	26.600
675.07	25.886
675.25	28.516
675.44	25.767
675.62	28.788
675.81	25.782
675.99	31.144
676.18	28.728
676.36	27.852
676.55	27.835
676.74	29.042
676.92	27.361
677.11	27.404
677.29	26.988
677.48	29.541
677.66	27.072
677.85	29.782
678.03	28.443
678.22	29.351
678.40	27.658
678.59	28.081
678.78	27.573
678.96	27.750
679.15	26.784
679.33	29.934
679.52	29.003
679.70	29.120
679.89	27.930
680.07	30.735
680.26	27.980
680.44	29.210
680.63	29.068
680.81	28.614
681.00	28.686
681.18	29.882
681.37	30.187
681.55	30.417
681.74	29.823
681.92	29.940
682.11	30.543
682.29	31.281
682.48	29.659
682.66	30.514
682.85	29.315
683.03	30.580
683.22	30.735
683.40	32.103
683.59	31.476
683.77	31.805
683.96	29.076
684.14	31.226
684.33	28.648
684.51	33.798
684.70	31.514
684.88	33.110
685.07	30.963
685.25	33.736
685.44	29.572
685.62	33.697
685.81	33.035
685.99	33.507
686.18	31.306
686.36	32.932
686.55	30.920
686.73	32.979
686.92	33.683
687.10	34.853
687.29	34.731
687.47	34.532
687.65	33.520
687.84	34.545
688.02	35.363
688.21	36.292
688.39	34.408
688.58	37.298
688.76	34.838
688.95	35.833
689.13	35.580
689.32	37.859
689.50	36.207
689.68	37.057
689.87	36.125
690.05	36.795
690.24	37.534
690.42	38.396
690.61	37.132
690.79	39.278
690.98	38.451
691.16	38.392
691.34	37.429
691.53	40.599
691.71	38.109
691.90	40.907
692.08	37.954
692.27	41.858
692.45	41.222
692.63	40.641
692.82	39.783
693.00	41.155
693.19	39.218
693.37	41.912
693.56	41.423
693.74	42.863
693.92	41.307
694.11	42.169
694.29	41.453
694.48	42.539
694.66	42.180
694.84	44.296
695.03	43.191
695.21	45.719
695.40	44.897
695.58	45.334
695.76	42.999
695.95	44.888
696.13	43.303
696.32	45.699
696.50	47.371
696.68	46.181
696.87	44.692
697.05	47.828
697.24	44.249
697.42	46.321
697.60	45.422
697.79	46.192
697.97	44.598
698.16	45.892
698.34	45.628
698.52	45.771
698.71	45.297
698.89	47.557
699.07	45.917
699.26	46.762
699.44	47.131
699.63	47.213
699.81	45.671
699.99	46.257
700.18	46.955
700.36	47.293
700.54	47.950
700.73	47.047
700.91	48.256
701.09	47.586
701.28	48.840
701.46	48.983
701.64	49.140
701.83	50.605
702.01	47.931
702.20	49.349
702.38	51.810
702.56	49.747
702.75	49.703
702.93	50.285
703.11	48.663
703.30	51.181
703.48	51.207
703.66	52.066
703.85	50.896
704.03	52.570
704.21	50.571
704.40	52.978
704.58	50.545
704.76	54.724
704.95	52.229
705.13	55.701
705.31	52.841
705.50	53.384
705.68	53.041
705.86	54.067
706.04	52.995
706.23	53.199
706.41	52.801
706.59	52.535
706.78	50.623
706.96	52.658
707.14	54.062
707.33	54.807
707.51	53.861
707.69	52.712
707.88	54.020
708.06	56.068
708.24	53.104
708.42	54.527
708.61	53.263
708.79	54.678
708.97	53.245
709.16	55.166
709.34	55.721
709.52	53.349
709.71	52.185
709.89	54.855
710.07	51.057
710.25	56.899
710.44	54.208
710.62	53.875
710.80	52.955
710.98	55.845
711.17	53.365
711.35	55.573
711.53	52.808
711.72	52.306
711.90	53.826
712.08	54.394
712.26	51.082
712.45	51.890
712.63	54.022
712.81	54.520
712.99	55.257
713.18	52.967
713.36	54.021
713.54	54.617
713.72	53.970
713.91	53.558
714.09	55.497
714.27	54.091
714.45	55.519
714.64	56.380
714.82	55.370
715.00	54.776
715.18	55.702
715.37	54.777
715.55	54.119
715.73	54.586
715.91	55.346
716.10	54.288
716.28	53.384
716.46	56.163
716.64	54.428
716.83	55.743
717.01	55.894
717.19	53.645
717.37	53.737
717.55	54.759
717.74	52.649
717.92	52.984
718.10	53.551
718.28	55.035
718.47	53.931
718.65	56.148
718.83	55.224
719.01	55.295
719.19	52.921
719.38	54.148
719.56	57.198
719.74	56.250
719.92	54.218
720.10	54.036
720.29	53.318
720.47	57.155
720.65	56.814
720.83	56.655
721.01	52.634
721.20	57.458
721.38	53.479
721.56	57.403
721.74	54.303
721.92	58.825
722.11	56.926
722.29	59.639
722.47	56.655
722.65	59.464
722.83	58.360
723.01	57.704
723.20	56.706
723.38	56.865
723.56	56.913
723.74	58.293
723.92	58.036
724.10	54.760
724.29	56.124
724.47	57.900
724.65	57.116
724.83	58.482
725.01	57.583
725.19	57.811
725.38	57.774
725.56	57.465
725.74	58.833
725.92	57.587
726.10	58.488
726.28	57.469
726.46	56.970
726.65	58.474
726.83	56.619
727.01	59.409
727.19	59.403
727.37	57.246
727.55	56.119
727.73	57.418
727.92	57.549
728.10	59.350
728.28	55.937
728.46	57.476
728.64	58.879
728.82	59.065
729.00	56.329
729.19	58.504
729.37	55.759
729.55	57.051
729.73	53.862
729.91	56.891
730.09	54.333
730.27	57.493
730.45	55.361
730.63	57.033
730.82	55.911
731.00	60.096
731.18	56.200
731.36	59.086
731.54	56.800
731.72	59.779
731.90	59.273
732.08	57.776
732.26	54.416
732.45	61.055
732.63	56.807
732.81	58.139
732.99	57.107
733.17	59.117
733.35	57.480
733.53	58.994
733.71	58.059
733.89	57.070
734.07	59.102
734.25	58.165
734.44	56.387
734.62	58.509
734.80	57.385
734.98	59.831
735.16	58.089
735.34	59.349
735.52	60.093
735.70	60.767
735.88	61.372
736.06	59.890
736.24	60.930
736.42	59.423
736.60	60.279
736.78	62.537
736.97	60.091
737.15	62.305
737.33	56.825
737.51	60.531
737.69	62.510
737.87	60.316
738.05	63.521
738.23	61.134
738.41	60.882
738.59	62.680
738.77	61.357
738.95	61.061
739.13	63.418
739.31	60.805
739.49	60.870
739.67	60.920
739.85	61.601
740.03	61.356
740.21	60.467
740.39	58.911
740.57	62.788
740.75	61.110
740.93	59.761
741.11	60.126
741.30	62.273
741.48	58.691
741.66	63.956
741.84	63.474
742.02	61.510
742.20	61.506
742.38	63.325
742.56	64.110
742.74	61.598
742.92	61.023
743.10	60.131
743.28	65.368
743.46	61.113
743.64	63.868
743.82	63.587
744.00	62.432
744.18	64.034
744.36	64.101
744.54	62.269
744.72	64.230
744.90	65.831
745.08	62.837
745.26	61.820
745.44	66.561
745.62	63.694
745.80	61.722
745.98	65.860
746.16	64.537
746.34	61.864
746.52	63.958
746.70	65.309
746.87	67.009
747.05	62.648
747.23	63.106
747.41	66.789
747.59	64.540
747.77	63.563
747.95	64.400
748.13	64.283
748.31	67.964
748.49	63.520
748.67	64.243
748.85	61.424
749.03	62.348
749.21	65.604
749.39	67.940
749.57	61.125
749.75	63.908
749.93	64.921
750.11	64.886
750.29	62.416
750.47	66.064
750.65	64.867
750.83	64.927
751.01	62.632
751.18	63.554
751.36	62.693
751.54	66.937
751.72	64.012
751.90	62.760
752.08	66.203
752.26	63.206
752.44	65.695
752.62	62.753
752.80	68.185
752.98	65.518
753.16	62.868
753.34	64.812
753.52	66.092
753.69	63.751
753.87	63.698
754.05	63.451
754.23	65.196
754.41	63.589
754.59	62.026
754.77	66.161
754.95	62.807
755.13	66.750
755.31	65.430
755.49	64.877
755.66	62.706
755.84	62.282
756.02	63.434
756.20	67.560
756.38	61.724
756.56	65.446
756.74	62.723
756.92	66.798
757.10	62.096
757.28	67.237
757.45	64.189
757.63	64.261
757.81	61.758
757.99	68.179
758.17	63.588
758.35	64.148
758.53	65.686
758.71	63.122
758.88	63.986
759.06	60.743
759.24	61.086
759.42	61.733
759.60	59.931
759.78	59.297
759.96	56.067
760.13	58.259
760.31	54.910
760.49	55.200
760.67	52.136
760.85	55.957
761.03	54.163
761.21	54.258
761.38	50.852
761.56	55.532
761.74	52.111
761.92	59.183
762.10	51.281
762.28	55.382
762.46	46.983
762.63	53.648
762.81	50.728
762.99	54.548
763.17	52.218
763.35	54.310
763.53	52.855
763.70	53.685
763.88	53.685
764.06	52.715
764.24	52.839
764.42	53.920
764.60	55.186
764.77	53.105
764.95	54.903
765.13	54.530
765.31	53.057
765.49	54.043
765.66	54.450
765.84	55.767
766.02	54.662
766.20	58.373
766.38	57.564
766.56	58.609
766.73	60.123
766.91	59.417
767.09	59.680
767.27	61.268
767.45	57.241
767.62	60.462
767.80	60.322
767.98	63.070
768.16	59.852
768.33	66.448
768.51	61.987
768.69	63.992
768.87	58.966
769.05	62.911
769.22	63.605
769.40	64.504
769.58	65.936
769.76	64.222
769.94	67.653
770.11	62.455
770.29	64.619
770.47	66.809
770.65	66.680
770.82	66.810
771.00	64.415
771.18	64.421
771.36	69.227
771.53	65.937
771.71	69.451
771.89	69.644
772.07	63.027
772.25	66.653
772.42	64.895
772.60	73.614
772.78	68.796
772.96	69.519
773.13	66.099
773.31	67.728
773.49	63.333
773.67	62.124
773.84	66.868
774.02	71.656
774.20	67.674
774.37	65.986
774.55	65.707
774.73	70.154
774.91	66.092
775.08	66.636
775.26	70.789
775.44	71.181
775.62	67.036
775.79	65.157
775.97	67.802
776.15	64.670
776.32	67.269
776.50	70.034
776.68	69.559
776.86	71.367
777.03	67.604
777.21	70.435
777.39	65.705
777.56	70.226
777.74	68.374
777.92	68.507
778.10	64.159
778.27	67.588
778.45	69.936
778.63	70.345
778.80	70.474
778.98	69.844
779.16	71.248
779.34	69.912
779.51	71.663
779.69	67.430
779.87	69.180
780.04	71.320
780.22	60.283
780.40	71.027
780.57	70.928
780.75	70.200
780.93	77.285
781.10	70.573
781.28	72.577
781.46	63.962
781.63	63.076
781.81	70.041
781.99	63.385
782.16	63.083
782.34	68.427
782.52	72.191
782.69	69.440
782.87	72.698
783.05	72.052
783.22	71.848
783.40	66.575
783.58	70.197
783.75	63.008
783.93	74.605
784.11	70.744
784.28	73.501
784.46	63.230
784.64	73.427
784.81	67.906
784.99	75.860
785.17	66.364
785.34	69.204
785.52	65.361
785.69	72.870
785.87	62.713
786.05	66.438
786.22	68.594
786.40	69.757
786.58	70.945
786.75	72.523
786.93	64.600
787.11	75.283
787.28	62.684
787.46	70.870
787.63	67.596
787.81	68.308
787.99	66.415
788.16	66.375
788.34	60.525
788.51	67.327
788.69	63.857
788.87	64.880
789.04	65.452
789.22	64.978
789.39	63.198
789.57	62.841
789.75	57.756
789.92	62.042
790.10	62.709
790.27	65.983
790.45	61.868
790.63	66.787
790.80	62.688
790.98	65.305
791.15	64.067
791.33	63.873
791.51	62.770
791.68	65.586
791.86	69.577
792.03	69.966
792.21	58.973
792.39	65.444
792.56	60.477
792.74	66.257
792.91	64.072
793.09	69.391
793.26	64.520
793.44	75.969
793.62	69.886
793.79	61.521
793.97	62.148
794.14	65.074
794.32	58.936
794.49	75.688
794.67	62.956
794.84	67.966
795.02	62.983
795.20	63.492
795.37	60.962
795.55	70.833
795.72	69.274
795.90	64.991
796.07	66.707
796.25	68.496
796.42	66.648
796.60	65.053
796.77	67.186
796.95	64.046
797.13	59.283
797.30	63.786
797.48	62.246
797.65	63.652
797.83	56.633
798.00	73.832
798.18	62.421
798.35	68.442
798.53	68.888
798.70	68.166
798.88	66.612
799.05	68.424
799.23	65.049
799.40	66.010
799.58	68.933
799.75	67.264
799.93	61.592
800.10	64.078
800.28	68.193
800.45	69.119
800.63	63.333
800.80	70.912
800.98	61.263
801.15	62.279
801.33	66.687
801.50	64.087
801.68	63.475
801.85	64.133
802.03	63.039
802.20	67.190
802.38	67.277
802.55	65.535
802.73	64.832
802.90	63.358
803.08	60.387
803.25	67.306
803.43	66.984
803.60	71.009
803.78	67.396
803.95	68.924
804.13	63.987
804.30	69.278
804.48	60.981
804.65	66.921
804.83	67.181
805.00	63.470
805.17	64.016
805.35	62.317
805.52	59.406
805.70	62.036
805.87	64.497
806.05	65.796
806.22	59.912
806.40	66.510
806.57	64.145
806.75	68.974
806.92	67.213
807.09	67.623
807.27	72.810
807.44	69.908
807.62	64.346
807.79	69.677
807.97	62.344
808.14	65.190
808.31	62.148
808.49	68.340
808.66	65.795
808.84	63.540
809.01	72.440
809.19	64.566
809.36	67.855
809.53	66.021
809.71	60.677
809.88	72.337
810.06	65.155
810.23	61.981
810.41	62.150
810.58	67.669
810.75	65.984
810.93	66.891
811.10	67.649
811.28	68.195
811.45	60.200
811.62	59.806
811.80	60.750
811.97	63.192
812.15	66.793
812.32	68.645
812.49	63.413
812.67	66.081
812.84	63.253
813.02	69.059
813.19	61.451
813.36	70.125
813.54	66.332
813.71	66.591
813.89	67.732
814.06	67.531
814.23	64.898
814.41	54.378
814.58	64.369
814.75	68.061
814.93	62.711
815.10	62.038
815.28	58.116
815.45	59.816
815.62	62.167
815.80	64.057
815.97	60.247
816.14	65.817
816.32	66.527
816.49	55.546
816.66	56.976
816.84	62.002
817.01	64.096
817.18	65.649
817.36	59.418
817.53	66.432
817.71	56.611
817.88	64.680
818.05	52.860
818.23	62.440
818.40	60.429
818.57	61.798
818.75	58.073
818.92	58.443
819.09	60.443
819.27	61.953
819.44	57.319
819.61	61.288
819.79	55.731
819.96	55.767
820.13	51.675
820.31	61.583
820.48	59.786
820.65	55.752
820.82	58.501
821.00	54.121
821.17	50.782
821.34	56.615
821.52	59.000
821.69	54.572
821.86	51.899
822.04	53.084
822.21	49.561
822.38	53.569
822.56	52.793
822.73	52.220
822.90	50.918
823.07	51.994
823.25	50.617
823.42	52.379
823.59	49.482
823.77	51.900
823.94	49.666
824.11	50.097
824.29	48.640
824.46	50.644
824.63	51.208
824.80	50.568
824.98	50.280
825.15	50.795
825.32	51.049
825.49	54.667
825.67	49.604
825.84	54.245
826.01	53.546
826.19	54.320
826.36	50.296
826.53	55.284
826.70	55.699
826.88	52.359
827.05	51.004
827.22	50.491
827.39	52.163
827.57	54.136
827.74	51.349
827.91	54.095
828.08	50.308
828.26	52.007
828.43	48.662
828.60	53.903
828.77	51.946
828.95	53.157
829.12	48.252
829.29	48.942
829.46	49.985
829.64	51.824
829.81	47.227
829.98	54.635
830.15	51.678
830.32	57.286
830.50	51.775
830.67	55.041
830.84	50.177
831.01	54.703
831.19	52.494
831.36	58.435
831.53	61.888
831.70	63.041
831.87	49.965
832.05	62.760
832.22	61.562
832.39	52.071
832.56	50.248
832.74	61.585
832.91	62.733
833.08	60.292
833.25	49.609
833.42	49.904
833.60	52.723
833.77	48.243
833.94	52.247
834.11	53.004
834.28	47.398
834.45	51.378
834.63	46.258
834.80	51.716
834.97	45.051
835.14	49.820
835.31	51.571
835.49	46.385
835.66	46.876
835.83	50.286
836.00	47.004
836.17	48.697
836.34	49.744
836.52	51.119
836.69	54.536
836.86	51.616
837.03	52.009
837.20	50.619
837.37	49.375
837.55	48.458
837.72	52.932
837.89	60.922
838.06	61.860
838.23	67.769
838.40	62.511
838.58	58.834
838.75	57.544
838.92	59.790
839.09	66.134
839.26	72.334
839.43	68.923
839.60	72.460
839.78	78.231
839.95	75.817
840.12	71.039
840.29	76.823
840.46	70.637
840.63	64.454
840.80	57.662
840.98	65.365
841.15	57.472
841.32	60.159
841.49	54.074
841.66	71.278
841.83	62.486
842.00	55.336
842.17	69.786
842.34	61.531
842.52	64.241
842.69	69.666
842.86	61.242
843.03	83.882
843.20	74.879
843.37	68.000
843.54	73.998
843.71	76.892
843.88	70.861
844.06	90.268
844.23	75.769
844.40	76.887
844.57	82.927
844.74	82.280
844.91	79.066
845.08	83.846
845.25	84.175
845.42	95.582
845.59	82.123
845.76	91.424
845.94	94.814
846.11	82.852
846.28	90.385
846.45	100.409
846.62	116.288
846.79	96.402
846.96	96.699
847.13	106.445
847.30	98.750
847.47	95.971
847.64	83.951
847.81	98.571
847.98	115.890
848.15	93.227
848.32	98.934
848.50	92.641
848.67	90.230
848.84	108.142
849.01	74.510
849.18	115.566
849.35	116.776
849.52	100.928
849.69	101.066
849.86	115.551
850.03	92.292
850.20	114.667
850.37	101.957
850.54	110.323
850.71	101.646
850.88	132.564
851.05	104.415
851.22	112.420
851.39	111.057
851.56	103.202
851.73	128.404
851.90	117.848
852.07	104.842
852.24	115.010
852.41	111.061
852.58	109.607
852.75	107.604
852.92	96.192
853.09	115.604
853.26	123.312
853.43	99.788
853.60	114.055
853.77	102.954
853.94	96.559
854.11	116.364
854.28	113.379
854.45	88.578
854.62	109.328
854.79	102.955
854.96	102.778
855.13	115.000
855.30	100.803
855.47	118.767
855.64	105.411
855.81	107.519
855.98	113.208
856.15	93.275
856.32	101.299
856.49	111.737
856.66	112.354
856.83	107.952
857.00	123.143
857.17	112.530
857.34	112.987
857.51	123.256
857.68	101.474
857.85	96.581
858.02	109.977
858.19	106.295
858.36	116.481
858.53	111.957
858.70	94.747
858.87	100.442
859.04	98.760
859.21	102.463
859.38	114.387
859.55	157.362
859.72	100.691
859.89	118.250
860.05	130.930
860.22	114.247
860.39	105.076
860.56	148.094
860.73	113.704
860.90	126.748
861.07	128.499
861.24	111.231
861.41	112.683
861.58	108.040
861.75	127.895
861.92	145.161
862.09	106.030
862.26	117.794
862.43	109.535
862.59	107.209
862.76	134.626
862.93	119.091
863.10	122.581
863.27	116.832
863.44	105.959
863.61	106.935
863.78	97.105
863.95	133.430
864.12	94.762
864.29	101.624
864.45	117.364
864.62	98.284
864.79	102.746
864.96	98.309
865.13	105.897
865.30	111.814
865.47	125.298
865.64	117.661
865.81	89.506
865.97	100.466
866.14	108.730
866.31	103.254
866.48	123.362
866.65	113.573
866.82	104.167
866.99	135.754
867.16	110.256
867.33	125.564
867.49	99.129
867.66	158.363
867.83	119.825
868.00	96.333
868.17	120.245
868.34	125.956
868.51	100.231
868.67	127.397
868.84	102.632
869.01	120.112
869.18	119.459
869.35	110.501
869.52	91.974
869.69	102.963
869.85	123.501
870.02	104.077
870.19	98.886
870.36	118.287
870.53	105.252
870.70	118.468
870.86	116.310
871.03	86.237
871.20	102.857
871.37	121.092
871.54	107.862
871.71	97.143
871.87	86.534
872.04	108.759
872.21	92.615
872.38	101.050
872.55	112.099
872.72	107.736
872.88	121.084
873.05	95.972
873.22	95.337
873.39	112.326
873.56	101.818
873.72	104.861
873.89	98.958
874.06	114.550
874.23	95.483
874.40	129.737
874.56	139.748
874.73	107.568
874.90	134.010
875.07	122.478
875.24	98.241
875.40	76.623
875.57	110.973
875.74	101.361
875.91	100.235
876.08	98.210
876.24	97.246
876.41	158.383
876.58	97.892
876.75	102.667
876.92	107.820
877.08	95.561
877.25	100.274
877.42	105.556
877.59	105.981
877.75	118.442
877.92	79.318
878.09	93.629
878.26	105.634
878.42	98.995
878.59	112.736
878.76	103.254
878.93	148.286
879.09	87.854
879.26	89.768
879.43	91.476
879.60	100.000
879.76	103.532
879.93	85.842
880.10	81.714
880.27	82.711
880.43	78.799
880.60	74.265
880.77	66.950
880.94	69.599
881.10	64.644
881.27	53.863
881.44	50.312
881.61	53.545
881.77	51.422
881.94	45.972
882.11	40.356
882.28	37.473
882.44	39.710
882.61	46.860
882.78	44.561
882.94	51.005
883.11	44.851
883.28	47.897
883.45	47.125
883.61	46.048
883.78	48.352
883.95	49.232
884.11	43.374
884.28	43.087
>>>>>End Processed Spectral Data<<<<<
