SpectraSuite Data File
++++++++++++++++++++++++++++++++++++
Date: Wed Sep 25 03:53:51 EST 2019
User: sgrac
Dark Spectrum Present: Yes
Reference Spectrum Present: Yes
Number of Sampled Component Spectra: 1
Spectrometers: USB4E01596
Integration Time (usec): 100000 (USB4E01596)
Spectra Averaged: 3 (USB4E01596)
Boxcar Smoothing: 0 (USB4E01596)
Correct for Electrical Dark: No (USB4E01596)
Strobe/Lamp Enabled: Yes (USB4E01596)
Correct for Detector Non-linearity: No (USB4E01596)
Correct for Stray Light: No (USB4E01596)
Number of Pixels in Processed Spectrum: 3648
>>>>>Begin Processed Spectral Data<<<<<
178.44	-398.077
178.66	-398.077
178.87	-398.077
179.09	-837.500
179.30	961.290
179.52	1204.348
179.74	-884.211
179.95	-592.593
180.17	583.673
180.38	-1375.000
180.60	-2353.333
180.82	-4266.667
181.03	1011.628
181.25	-2183.333
181.46	-452.778
181.68	525.641
181.89	-958.065
182.11	9466.667
182.33	778.846
182.54	-17650.000
182.76	741.176
182.97	963.158
183.19	1337.500
183.40	789.130
183.62	1575.000
183.84	473.810
184.05	1207.692
184.27	-3236.364
184.48	30500.000
184.70	1307.407
184.91	547.170
185.13	2871.429
185.34	601.695
185.56	445.977
185.78	1311.111
185.99	644.000
186.21	451.807
186.42	1410.714
186.64	-3566.667
186.85	902.439
187.07	-1304.000
187.28	395.833
187.50	-688.372
187.72	1847.619
187.93	1329.730
188.15	2585.714
188.36	872.917
188.58	631.667
188.79	717.188
189.01	603.279
189.22	398.925
189.44	425.472
189.65	-800.000
189.87	1357.143
190.09	447.115
190.30	424.074
190.52	-377.586
190.73	336.145
190.95	-2571.429
191.16	863.043
191.38	640.385
191.59	545.679
191.81	2122.222
192.02	-3208.333
192.24	-2972.727
192.45	462.903
192.67	-7080.000
192.88	439.535
193.10	564.706
193.31	282.787
193.53	-430.645
193.74	1963.636
193.96	-6216.667
194.18	2457.143
194.39	591.525
194.61	1166.667
194.82	425.000
195.04	333.333
195.25	613.333
195.47	-33900.000
195.68	501.538
195.90	505.556
196.11	1766.667
196.33	-386.905
196.54	1275.000
196.76	569.355
196.97	245.679
197.19	334.586
197.40	-482.667
197.62	906.250
197.83	1923.529
198.05	492.500
198.26	720.833
198.48	2352.941
198.69	-902.564
198.91	575.000
199.12	-18200.000
199.34	760.976
199.55	1730.000
199.77	639.683
199.98	1528.571
200.20	491.667
200.41	393.182
200.63	507.317
200.84	780.000
201.06	270.253
201.27	-591.228
201.49	-4600.000
201.70	528.571
201.91	-4885.714
202.13	-1900.000
202.34	-921.212
202.56	1705.263
202.77	910.526
202.99	948.936
203.20	418.280
203.42	812.281
203.63	491.549
203.85	-2486.667
204.06	1631.818
204.28	-7680.000
204.49	1466.667
204.71	393.548
204.92	636.765
205.14	2625.000
205.35	1134.375
205.56	1857.143
205.78	767.273
205.99	502.439
206.21	1056.410
206.42	628.814
206.64	556.250
206.85	737.209
207.07	-944.737
207.28	452.174
207.50	1056.757
207.71	1000.000
207.93	420.202
208.14	716.000
208.35	843.182
208.57	2546.667
208.78	1640.000
209.00	812.766
209.21	764.444
209.43	416.505
209.64	-4009.091
209.86	817.949
210.07	-1947.619
210.28	386.957
210.50	1589.474
210.71	333.571
210.93	571.795
211.14	393.636
211.36	-3190.000
211.57	554.167
211.78	794.000
212.00	731.915
212.21	867.568
212.43	34300.000
212.64	1214.706
212.86	597.917
213.07	1221.212
213.29	-2580.000
213.50	1122.581
213.71	1472.000
213.93	2011.111
214.14	379.130
214.36	268.354
214.57	495.082
214.78	688.235
215.00	558.824
215.21	1700.000
215.43	366.667
215.64	730.233
215.86	893.939
216.07	744.444
216.28	1443.478
216.50	430.556
216.71	606.897
216.93	1118.421
217.14	356.757
217.35	1319.231
217.57	282.258
217.78	1436.842
218.00	479.070
218.21	1670.000
218.42	11266.667
218.64	347.059
218.85	882.222
219.07	659.016
219.28	299.123
219.49	1154.545
219.71	422.973
219.92	1780.000
220.14	2156.250
220.35	586.364
220.56	252.903
220.78	6520.000
220.99	469.512
221.21	308.475
221.42	792.683
221.63	545.000
221.85	732.609
222.06	270.940
222.28	947.368
222.49	747.500
222.70	311.009
222.92	430.337
223.13	468.182
223.34	283.465
223.56	475.362
223.77	460.317
223.99	1515.385
224.20	281.119
224.41	252.459
224.63	306.557
224.84	436.620
225.05	383.516
225.27	453.247
225.48	336.792
225.69	246.429
225.91	730.769
226.12	319.403
226.34	250.345
226.55	272.174
226.76	235.429
226.98	169.492
227.19	184.483
227.40	161.261
227.62	160.324
227.83	119.573
228.04	119.795
228.26	88.972
228.47	93.095
228.69	81.955
228.90	57.428
229.11	61.359
229.33	53.966
229.54	52.559
229.75	44.747
229.97	40.812
230.18	36.489
230.39	31.990
230.61	45.182
230.82	44.743
231.03	34.694
231.25	42.329
231.46	41.312
231.67	51.255
231.89	55.304
232.10	51.527
232.31	55.993
232.53	66.129
232.74	61.489
232.95	65.434
233.17	61.748
233.38	52.068
233.59	72.160
233.81	72.584
234.02	72.568
234.23	66.142
234.45	62.937
234.66	69.364
234.87	79.174
235.09	68.266
235.30	63.239
235.51	60.601
235.73	57.496
235.94	51.138
236.15	55.155
236.36	56.639
236.58	42.185
236.79	59.375
237.00	58.594
237.22	64.955
237.43	50.805
237.64	52.167
237.86	58.104
238.07	66.353
238.28	56.220
238.50	43.101
238.71	52.924
238.92	59.259
239.13	54.503
239.35	54.911
239.56	35.521
239.77	63.683
239.99	45.081
240.20	67.922
240.41	48.802
240.63	52.533
240.84	48.690
241.05	38.232
241.26	26.858
241.48	38.052
241.69	28.837
241.90	27.330
242.12	17.258
242.33	25.846
242.54	22.646
242.75	21.756
242.97	22.528
243.18	16.581
243.39	17.247
243.61	17.780
243.82	18.305
244.03	14.453
244.24	19.108
244.46	19.696
244.67	19.019
244.88	20.106
245.09	22.037
245.31	24.818
245.52	20.926
245.73	29.533
245.95	42.493
246.16	21.367
246.37	21.185
246.58	20.394
246.80	17.512
247.01	17.633
247.22	14.751
247.43	10.022
247.65	11.202
247.86	12.727
248.07	9.421
248.28	10.342
248.50	9.226
248.71	9.612
248.92	7.863
249.13	10.982
249.35	10.048
249.56	12.593
249.77	11.127
249.98	11.781
250.20	14.944
250.41	13.312
250.62	17.386
250.83	19.458
251.05	23.220
251.26	19.958
251.47	19.511
251.68	24.380
251.90	17.953
252.11	23.011
252.32	21.267
252.53	21.150
252.75	18.717
252.96	14.054
253.17	16.114
253.38	20.715
253.59	15.997
253.81	16.857
254.02	16.880
254.23	16.025
254.44	18.674
254.66	21.409
254.87	22.404
255.08	22.492
255.29	22.774
255.50	30.733
255.72	26.541
255.93	28.108
256.14	25.056
256.35	28.505
256.57	25.445
256.78	24.343
256.99	24.869
257.20	27.345
257.41	28.714
257.63	22.979
257.84	22.579
258.05	22.434
258.26	20.950
258.47	24.743
258.69	17.220
258.90	16.120
259.11	20.361
259.32	16.565
259.53	12.986
259.75	12.862
259.96	10.602
260.17	9.077
260.38	10.637
260.59	7.694
260.81	6.035
261.02	7.504
261.23	8.290
261.44	9.325
261.65	8.294
261.87	6.165
262.08	6.628
262.29	10.946
262.50	7.389
262.71	8.550
262.92	11.983
263.14	11.175
263.35	9.413
263.56	14.239
263.77	16.661
263.98	11.957
264.20	10.804
264.41	14.713
264.62	15.883
264.83	15.143
265.04	20.099
265.25	13.744
265.47	19.926
265.68	16.925
265.89	16.906
266.10	15.402
266.31	16.552
266.52	16.674
266.74	17.958
266.95	16.100
267.16	13.022
267.37	13.995
267.58	11.690
267.79	11.959
268.01	11.242
268.22	10.256
268.43	12.706
268.64	13.458
268.85	10.940
269.06	10.742
269.27	14.428
269.49	12.282
269.70	11.863
269.91	12.504
270.12	13.195
270.33	12.072
270.54	11.817
270.75	11.985
270.97	12.248
271.18	11.406
271.39	10.518
271.60	15.815
271.81	11.703
272.02	9.801
272.23	11.271
272.45	9.318
272.66	9.888
272.87	9.822
273.08	10.083
273.29	9.160
273.50	8.435
273.71	8.749
273.92	10.169
274.14	10.390
274.35	9.266
274.56	9.830
274.77	7.779
274.98	9.730
275.19	11.137
275.40	10.059
275.61	11.264
275.83	12.427
276.04	11.224
276.25	9.879
276.46	10.812
276.67	13.477
276.88	11.790
277.09	9.649
277.30	12.420
277.51	10.820
277.73	10.634
277.94	12.100
278.15	10.708
278.36	14.101
278.57	11.566
278.78	12.611
278.99	10.293
279.20	11.931
279.41	15.516
279.62	11.001
279.84	12.560
280.05	12.006
280.26	11.057
280.47	11.352
280.68	13.813
280.89	12.574
281.10	12.943
281.31	10.040
281.52	12.166
281.73	9.251
281.94	8.683
282.16	11.925
282.37	9.656
282.58	8.569
282.79	10.025
283.00	11.583
283.21	7.944
283.42	8.473
283.63	10.136
283.84	8.637
284.05	7.801
284.26	9.856
284.47	9.057
284.68	8.744
284.89	9.031
285.11	9.975
285.32	7.769
285.53	8.353
285.74	8.437
285.95	8.498
286.16	6.734
286.37	8.574
286.58	9.004
286.79	6.464
287.00	9.138
287.21	6.785
287.42	8.190
287.63	7.181
287.84	6.767
288.05	7.826
288.26	8.541
288.48	8.074
288.69	8.125
288.90	8.039
289.11	9.120
289.32	9.346
289.53	8.333
289.74	7.490
289.95	6.903
290.16	8.945
290.37	7.400
290.58	7.598
290.79	8.639
291.00	7.796
291.21	6.421
291.42	8.291
291.63	6.210
291.84	7.281
292.05	6.887
292.26	6.910
292.47	8.716
292.68	8.639
292.89	9.853
293.10	7.664
293.31	6.872
293.52	8.622
293.73	8.554
293.94	9.941
294.15	8.938
294.36	8.126
294.57	10.613
294.79	8.079
295.00	7.167
295.21	10.050
295.42	7.390
295.63	9.906
295.84	7.595
296.05	7.121
296.26	8.097
296.47	6.660
296.68	8.125
296.89	7.850
297.10	6.139
297.31	7.197
297.52	7.593
297.73	5.903
297.94	5.411
298.15	5.973
298.36	6.838
298.57	4.443
298.78	6.133
298.99	5.614
299.20	5.182
299.41	7.398
299.62	6.352
299.83	6.085
300.04	7.371
300.25	6.494
300.46	8.167
300.67	7.535
300.88	8.664
301.09	7.078
301.30	8.150
301.50	7.358
301.71	8.308
301.92	9.426
302.13	7.339
302.34	7.562
302.55	7.851
302.76	7.152
302.97	8.156
303.18	8.754
303.39	8.371
303.60	9.140
303.81	10.126
304.02	6.657
304.23	7.574
304.44	8.495
304.65	9.353
304.86	7.649
305.07	7.508
305.28	9.070
305.49	9.150
305.70	7.984
305.91	6.233
306.12	9.146
306.33	8.309
306.54	8.310
306.75	9.148
306.96	11.071
307.17	8.104
307.38	9.194
307.58	11.377
307.79	8.186
308.00	7.616
308.21	7.906
308.42	6.548
308.63	8.766
308.84	7.617
309.05	6.632
309.26	6.562
309.47	6.943
309.68	7.148
309.89	7.583
310.10	5.447
310.31	6.288
310.52	5.948
310.73	7.750
310.94	5.514
311.14	6.253
311.35	6.687
311.56	7.056
311.77	6.439
311.98	6.364
312.19	5.183
312.40	7.135
312.61	5.831
312.82	7.281
313.03	5.136
313.24	7.012
313.45	5.722
313.66	7.152
313.86	8.195
314.07	5.963
314.28	8.427
314.49	6.984
314.70	6.559
314.91	10.523
315.12	8.195
315.33	7.916
315.54	7.595
315.75	7.933
315.96	8.509
316.16	7.612
316.37	8.256
316.58	8.650
316.79	9.005
317.00	7.810
317.21	9.658
317.42	6.173
317.63	7.910
317.84	8.229
318.05	8.321
318.25	10.364
318.46	8.144
318.67	8.029
318.88	9.072
319.09	8.050
319.30	8.498
319.51	8.292
319.72	9.118
319.93	6.851
320.13	7.487
320.34	8.011
320.55	8.000
320.76	9.962
320.97	8.877
321.18	10.819
321.39	8.168
321.60	8.915
321.80	10.036
322.01	9.850
322.22	8.542
322.43	7.351
322.64	9.581
322.85	8.666
323.06	9.869
323.27	8.867
323.47	9.696
323.68	8.543
323.89	8.101
324.10	7.821
324.31	6.377
324.52	8.343
324.73	5.630
324.93	7.249
325.14	8.105
325.35	6.221
325.56	7.138
325.77	8.688
325.98	6.777
326.19	8.079
326.39	4.312
326.60	6.776
326.81	6.176
327.02	7.199
327.23	6.280
327.44	7.822
327.64	6.071
327.85	6.093
328.06	7.463
328.27	8.115
328.48	6.904
328.69	5.467
328.90	7.187
329.10	7.478
329.31	9.079
329.52	6.553
329.73	8.464
329.94	7.327
330.15	7.529
330.35	8.262
330.56	8.487
330.77	7.990
330.98	8.290
331.19	7.805
331.39	9.403
331.60	8.355
331.81	6.294
332.02	8.870
332.23	7.662
332.44	6.794
332.64	6.158
332.85	7.689
333.06	8.060
333.27	6.515
333.48	7.407
333.68	6.079
333.89	5.776
334.10	9.030
334.31	6.916
334.52	6.930
334.72	7.668
334.93	5.585
335.14	6.642
335.35	8.469
335.56	7.091
335.76	7.412
335.97	8.115
336.18	7.279
336.39	7.382
336.60	7.500
336.80	6.059
337.01	7.967
337.22	5.867
337.43	5.719
337.64	7.663
337.84	7.530
338.05	7.139
338.26	8.208
338.47	7.503
338.68	6.391
338.88	7.384
339.09	6.987
339.30	6.061
339.51	7.386
339.71	7.201
339.92	7.158
340.13	5.923
340.34	7.516
340.55	7.123
340.75	7.209
340.96	6.134
341.17	8.116
341.38	6.756
341.58	8.785
341.79	7.086
342.00	6.857
342.21	7.493
342.41	6.400
342.62	6.364
342.83	6.947
343.04	5.462
343.24	6.282
343.45	6.979
343.66	7.258
343.87	7.435
344.07	5.955
344.28	6.739
344.49	6.872
344.70	7.897
344.90	4.898
345.11	5.824
345.32	6.601
345.53	6.954
345.73	5.547
345.94	5.668
346.15	5.695
346.36	5.784
346.56	7.266
346.77	5.982
346.98	5.986
347.19	5.526
347.39	5.323
347.60	6.414
347.81	6.848
348.02	7.470
348.22	5.228
348.43	7.081
348.64	6.720
348.84	6.190
349.05	5.855
349.26	7.661
349.47	7.207
349.67	5.297
349.88	6.075
350.09	5.479
350.30	7.618
350.50	5.313
350.71	7.090
350.92	6.878
351.12	5.883
351.33	6.706
351.54	6.946
351.74	6.645
351.95	6.085
352.16	4.803
352.37	6.569
352.57	5.213
352.78	7.184
352.99	7.070
353.19	6.292
353.40	6.330
353.61	5.927
353.82	6.529
354.02	6.600
354.23	6.720
354.44	8.930
354.64	6.063
354.85	8.177
355.06	6.066
355.26	5.349
355.47	6.656
355.68	6.861
355.88	7.165
356.09	7.043
356.30	4.379
356.51	6.833
356.71	5.959
356.92	5.932
357.13	6.240
357.33	6.295
357.54	5.104
357.75	4.537
357.95	5.399
358.16	6.017
358.37	8.343
358.57	5.614
358.78	6.411
358.99	7.269
359.19	5.772
359.40	7.070
359.61	5.459
359.81	8.027
360.02	6.721
360.23	5.634
360.43	5.890
360.64	5.941
360.85	5.215
361.05	5.483
361.26	6.723
361.47	5.338
361.67	5.968
361.88	4.931
362.09	6.119
362.29	4.090
362.50	4.433
362.70	4.457
362.91	6.051
363.12	4.604
363.32	4.048
363.53	5.419
363.74	5.559
363.94	4.672
364.15	5.573
364.36	6.754
364.56	4.992
364.77	5.847
364.98	6.609
365.18	6.140
365.39	6.492
365.59	5.082
365.80	5.148
366.01	6.883
366.21	6.297
366.42	4.789
366.63	6.730
366.83	6.919
367.04	4.228
367.24	7.288
367.45	4.461
367.66	5.124
367.86	5.353
368.07	6.409
368.28	4.905
368.48	6.291
368.69	5.041
368.89	6.273
369.10	6.568
369.31	6.464
369.51	6.334
369.72	7.407
369.92	8.336
370.13	6.372
370.34	7.021
370.54	5.095
370.75	6.708
370.95	5.899
371.16	6.323
371.37	4.843
371.57	5.489
371.78	6.251
371.98	6.288
372.19	6.733
372.40	6.043
372.60	6.369
372.81	6.180
373.01	5.048
373.22	5.574
373.43	6.839
373.63	6.672
373.84	6.802
374.04	6.041
374.25	6.524
374.46	6.886
374.66	6.767
374.87	7.904
375.07	5.709
375.28	6.060
375.48	7.506
375.69	8.198
375.90	5.206
376.10	4.262
376.31	5.828
376.51	5.346
376.72	5.003
376.92	5.624
377.13	6.551
377.34	6.942
377.54	5.775
377.75	7.184
377.95	5.723
378.16	6.761
378.36	6.678
378.57	6.757
378.77	6.723
378.98	6.290
379.19	6.587
379.39	6.165
379.60	6.856
379.80	7.429
380.01	7.358
380.21	6.847
380.42	7.540
380.62	7.208
380.83	7.876
381.04	6.012
381.24	7.635
381.45	6.909
381.65	6.979
381.86	7.147
382.06	8.263
382.27	6.527
382.47	7.593
382.68	8.375
382.88	6.983
383.09	6.658
383.29	8.249
383.50	9.145
383.71	7.736
383.91	8.610
384.12	7.527
384.32	9.468
384.53	8.538
384.73	7.663
384.94	7.655
385.14	7.533
385.35	7.773
385.55	9.289
385.76	8.117
385.96	8.894
386.17	9.218
386.37	9.469
386.58	9.839
386.78	10.597
386.99	8.803
387.19	11.552
387.40	9.304
387.60	11.596
387.81	10.436
388.01	10.002
388.22	10.767
388.42	12.223
388.63	11.156
388.83	12.997
389.04	10.823
389.24	12.009
389.45	12.065
389.65	11.637
389.86	12.138
390.06	11.880
390.27	11.146
390.47	13.127
390.68	11.937
390.88	14.332
391.09	13.827
391.29	14.146
391.50	13.825
391.70	14.024
391.91	13.393
392.11	14.668
392.32	14.532
392.52	15.639
392.73	15.153
392.93	16.107
393.14	15.136
393.34	15.783
393.55	16.086
393.75	15.596
393.95	15.113
394.16	16.774
394.36	16.828
394.57	16.988
394.77	16.753
394.98	17.989
395.18	17.302
395.39	17.899
395.59	16.901
395.80	17.705
396.00	17.788
396.21	18.717
396.41	17.261
396.61	19.533
396.82	18.647
397.02	19.537
397.23	18.812
397.43	19.517
397.64	17.853
397.84	20.263
398.05	18.450
398.25	20.083
398.45	18.946
398.66	20.548
398.86	19.290
399.07	20.971
399.27	18.984
399.48	19.984
399.68	19.958
399.89	19.444
400.09	21.101
400.29	20.239
400.50	20.255
400.70	20.899
400.91	20.198
401.11	20.889
401.32	20.702
401.52	20.867
401.72	20.104
401.93	22.256
402.13	21.109
402.34	21.716
402.54	20.483
402.75	22.551
402.95	20.887
403.15	21.569
403.36	20.176
403.56	22.059
403.77	20.688
403.97	20.696
404.17	20.239
404.38	21.386
404.58	20.902
404.79	21.697
404.99	21.218
405.19	21.943
405.40	20.921
405.60	21.714
405.81	20.688
406.01	22.326
406.21	21.307
406.42	21.692
406.62	21.144
406.83	22.693
407.03	22.653
407.23	22.028
407.44	21.855
407.64	22.177
407.85	21.542
408.05	22.000
408.25	21.248
408.46	22.106
408.66	22.950
408.87	21.846
409.07	21.962
409.27	20.614
409.48	21.304
409.68	21.494
409.88	20.463
410.09	21.519
410.29	21.534
410.50	22.745
410.70	21.432
410.90	21.564
411.11	20.190
411.31	21.360
411.51	21.445
411.72	21.818
411.92	21.110
412.12	21.774
412.33	20.875
412.53	21.182
412.74	21.304
412.94	21.684
413.14	20.820
413.35	21.403
413.55	20.734
413.75	21.959
413.96	21.163
414.16	21.432
414.36	20.226
414.57	21.163
414.77	20.363
414.97	21.276
415.18	20.403
415.38	20.631
415.58	20.596
415.79	20.168
415.99	20.047
416.19	20.312
416.40	20.188
416.60	20.822
416.80	20.994
417.01	20.539
417.21	19.797
417.41	20.432
417.62	20.191
417.82	20.335
418.02	20.196
418.23	20.394
418.43	19.644
418.63	20.107
418.84	19.882
419.04	20.268
419.24	20.000
419.45	20.030
419.65	20.334
419.85	20.052
420.06	19.888
420.26	19.748
420.46	19.932
420.67	20.533
420.87	19.640
421.07	19.577
421.28	20.115
421.48	19.705
421.68	19.767
421.88	19.773
422.09	19.592
422.29	20.160
422.49	19.682
422.70	19.609
422.90	20.005
423.10	19.509
423.31	20.526
423.51	20.234
423.71	19.740
423.91	19.407
424.12	19.683
424.32	19.702
424.52	19.718
424.73	19.443
424.93	19.404
425.13	19.364
425.33	19.149
425.54	19.467
425.74	19.636
425.94	19.643
426.15	19.733
426.35	19.780
426.55	19.764
426.75	20.332
426.96	19.692
427.16	20.032
427.36	20.274
427.57	20.261
427.77	19.707
427.97	20.113
428.17	19.913
428.38	20.073
428.58	19.382
428.78	20.019
428.98	19.547
429.19	19.818
429.39	19.584
429.59	20.063
429.79	19.385
430.00	19.465
430.20	18.667
430.40	19.186
430.60	18.681
430.81	19.746
431.01	19.053
431.21	19.942
431.41	19.173
431.62	19.553
431.82	19.529
432.02	19.520
432.22	18.762
432.43	19.389
432.63	19.229
432.83	19.476
433.03	19.259
433.24	19.334
433.44	18.959
433.64	19.205
433.84	19.158
434.05	19.248
434.25	19.506
434.45	19.867
434.65	19.287
434.85	19.642
435.06	19.556
435.26	19.938
435.46	19.925
435.66	20.282
435.87	19.331
436.07	19.413
436.27	19.916
436.47	19.944
436.67	19.422
436.88	20.073
437.08	20.044
437.28	20.164
437.48	19.704
437.69	19.857
437.89	19.533
438.09	19.566
438.29	19.518
438.49	19.954
438.70	20.008
438.90	19.503
439.10	19.595
439.30	19.496
439.50	19.243
439.71	19.886
439.91	19.618
440.11	19.834
440.31	19.391
440.51	19.627
440.72	18.993
440.92	19.406
441.12	19.649
441.32	19.709
441.52	19.891
441.72	19.845
441.93	19.672
442.13	20.184
442.33	19.904
442.53	19.980
442.73	20.111
442.94	19.998
443.14	20.274
443.34	20.804
443.54	19.974
443.74	20.309
443.94	19.560
444.15	19.569
444.35	19.850
444.55	19.689
444.75	20.230
444.95	20.015
445.15	19.304
445.36	19.696
445.56	19.296
445.76	19.579
445.96	19.117
446.16	19.271
446.36	19.304
446.57	19.792
446.77	19.103
446.97	19.645
447.17	19.438
447.37	19.601
447.57	19.651
447.77	19.759
447.98	19.827
448.18	19.992
448.38	20.057
448.58	20.255
448.78	20.404
448.98	20.449
449.18	20.628
449.39	20.382
449.59	20.512
449.79	20.291
449.99	20.676
450.19	20.595
450.39	20.304
450.59	19.890
450.79	20.553
451.00	20.803
451.20	21.157
451.40	20.703
451.60	20.442
451.80	20.047
452.00	20.309
452.20	20.080
452.40	20.301
452.61	20.095
452.81	20.332
453.01	20.071
453.21	20.087
453.41	20.449
453.61	20.559
453.81	19.987
454.01	20.365
454.21	20.406
454.42	20.012
454.62	20.295
454.82	20.597
455.02	20.383
455.22	20.196
455.42	20.574
455.62	20.982
455.82	20.248
456.02	20.299
456.23	20.420
456.43	20.110
456.63	20.526
456.83	20.251
457.03	20.137
457.23	20.187
457.43	20.397
457.63	19.929
457.83	20.538
458.03	19.625
458.23	19.690
458.43	19.913
458.64	19.899
458.84	19.253
459.04	19.553
459.24	19.453
459.44	19.401
459.64	19.141
459.84	19.164
460.04	19.125
460.24	19.413
460.44	19.529
460.64	19.324
460.84	19.415
461.04	19.709
461.24	19.644
461.45	20.301
461.65	19.598
461.85	20.203
462.05	20.052
462.25	20.232
462.45	20.232
462.65	20.528
462.85	20.161
463.05	20.387
463.25	20.638
463.45	20.530
463.65	19.652
463.85	20.091
464.05	20.523
464.25	19.769
464.45	19.961
464.65	19.685
464.85	19.842
465.05	19.682
465.26	19.407
465.46	20.007
465.66	19.744
465.86	20.217
466.06	19.366
466.26	19.899
466.46	19.809
466.66	19.886
466.86	19.309
467.06	19.645
467.26	19.438
467.46	19.711
467.66	19.181
467.86	19.678
468.06	19.548
468.26	19.767
468.46	20.205
468.66	20.381
468.86	19.834
469.06	19.725
469.26	19.482
469.46	20.243
469.66	20.239
469.86	19.576
470.06	19.840
470.26	20.064
470.46	19.398
470.66	20.496
470.86	19.780
471.06	19.419
471.26	19.136
471.46	20.012
471.66	19.748
471.86	20.096
472.06	20.099
472.26	20.101
472.46	20.311
472.66	20.049
472.86	20.407
473.06	20.253
473.26	19.891
473.46	20.285
473.66	19.717
473.86	20.149
474.06	19.513
474.26	19.819
474.46	19.760
474.66	20.083
474.86	19.895
475.06	20.285
475.26	20.114
475.46	19.871
475.66	20.057
475.86	20.185
476.06	20.455
476.26	19.794
476.46	19.659
476.66	20.015
476.86	19.914
477.06	20.163
477.26	19.879
477.46	19.797
477.65	20.111
477.85	20.520
478.05	19.789
478.25	20.119
478.45	19.940
478.65	20.462
478.85	20.107
479.05	20.190
479.25	19.921
479.45	20.298
479.65	19.945
479.85	19.982
480.05	19.935
480.25	20.278
480.45	19.922
480.65	20.016
480.85	19.629
481.05	19.900
481.25	19.754
481.44	19.827
481.64	19.959
481.84	19.786
482.04	19.943
482.24	19.933
482.44	19.444
482.64	19.699
482.84	19.733
483.04	18.946
483.24	18.910
483.44	18.499
483.64	18.323
483.84	18.400
484.04	18.850
484.23	19.256
484.43	19.530
484.63	20.052
484.83	20.479
485.03	21.312
485.23	21.316
485.43	21.091
485.63	20.781
485.83	21.254
486.03	21.185
486.23	21.472
486.42	20.816
486.62	20.649
486.82	20.318
487.02	19.758
487.22	19.677
487.42	19.419
487.62	19.391
487.82	19.401
488.02	19.273
488.22	19.618
488.41	19.868
488.61	19.854
488.81	20.055
489.01	20.351
489.21	20.468
489.41	20.657
489.61	20.418
489.81	20.709
490.01	20.714
490.20	20.670
490.40	20.743
490.60	20.517
490.80	20.116
491.00	19.856
491.20	19.905
491.40	19.378
491.60	19.170
491.79	19.436
491.99	19.459
492.19	19.707
492.39	19.735
492.59	19.952
492.79	19.806
492.99	20.158
493.19	20.484
493.38	20.752
493.58	20.956
493.78	20.975
493.98	21.140
494.18	20.979
494.38	21.082
494.58	21.044
494.77	20.595
494.97	20.626
495.17	20.435
495.37	20.617
495.57	20.526
495.77	20.015
495.96	19.865
496.16	20.289
496.36	20.063
496.56	19.791
496.76	19.613
496.96	20.037
497.15	20.043
497.35	20.207
497.55	19.707
497.75	20.485
497.95	20.050
498.15	20.138
498.34	20.359
498.54	20.469
498.74	20.655
498.94	20.698
499.14	20.538
499.34	20.335
499.53	20.511
499.73	20.535
499.93	20.676
500.13	20.320
500.33	20.050
500.52	20.496
500.72	20.333
500.92	20.333
501.12	20.645
501.32	20.767
501.52	20.770
501.71	20.926
501.91	20.620
502.11	20.829
502.31	20.986
502.51	20.804
502.70	20.458
502.90	20.925
503.10	20.813
503.30	20.715
503.50	21.036
503.69	20.533
503.89	20.993
504.09	20.676
504.29	20.854
504.48	21.038
504.68	20.553
504.88	20.802
505.08	20.727
505.28	20.666
505.47	21.146
505.67	21.107
505.87	21.494
506.07	20.760
506.27	21.049
506.46	21.243
506.66	21.115
506.86	21.168
507.06	21.454
507.25	21.098
507.45	21.192
507.65	21.533
507.85	21.256
508.04	21.234
508.24	21.068
508.44	21.305
508.64	21.169
508.83	20.967
509.03	21.272
509.23	20.902
509.43	21.385
509.63	20.948
509.82	20.843
510.02	21.267
510.22	21.311
510.42	21.337
510.61	21.326
510.81	21.516
511.01	21.240
511.21	21.627
511.40	21.117
511.60	21.356
511.80	21.660
511.99	21.236
512.19	21.319
512.39	21.597
512.59	21.511
512.78	21.722
512.98	21.564
513.18	21.906
513.38	21.331
513.57	21.306
513.77	21.968
513.97	21.705
514.17	22.126
514.36	21.408
514.56	22.033
514.76	22.065
514.95	21.965
515.15	22.047
515.35	21.922
515.55	21.939
515.74	22.020
515.94	22.199
516.14	21.871
516.33	21.783
516.53	22.052
516.73	21.919
516.93	21.783
517.12	21.411
517.32	21.263
517.52	21.303
517.71	21.770
517.91	21.123
518.11	21.594
518.30	21.007
518.50	21.138
518.70	21.151
518.90	21.802
519.09	21.418
519.29	21.586
519.49	21.871
519.68	21.610
519.88	21.890
520.08	21.745
520.27	22.148
520.47	22.266
520.67	22.104
520.86	22.450
521.06	22.312
521.26	22.597
521.45	22.176
521.65	22.268
521.85	21.940
522.04	22.554
522.24	22.319
522.44	22.191
522.63	22.412
522.83	22.070
523.03	22.364
523.22	22.232
523.42	22.446
523.62	22.494
523.81	22.397
524.01	22.092
524.21	22.159
524.40	22.041
524.60	22.577
524.80	22.342
524.99	21.955
525.19	21.669
525.39	21.328
525.58	21.575
525.78	21.803
525.98	21.659
526.17	21.553
526.37	21.899
526.57	21.680
526.76	21.694
526.96	21.881
527.15	21.962
527.35	21.753
527.55	21.935
527.74	21.905
527.94	21.839
528.14	21.189
528.33	20.984
528.53	20.580
528.72	21.257
528.92	21.551
529.12	21.473
529.31	21.937
529.51	22.072
529.71	22.020
529.90	22.462
530.10	22.392
530.29	22.824
530.49	23.076
530.69	23.396
530.88	23.320
531.08	23.165
531.28	22.991
531.47	22.773
531.67	22.865
531.86	22.352
532.06	22.420
532.26	22.289
532.45	22.270
532.65	21.785
532.84	21.830
533.04	21.338
533.24	21.136
533.43	21.823
533.63	22.173
533.82	22.000
534.02	22.654
534.22	22.195
534.41	22.516
534.61	22.538
534.80	22.796
535.00	22.491
535.19	22.898
535.39	22.806
535.59	23.110
535.78	22.917
535.98	22.600
536.17	22.605
536.37	22.282
536.57	22.272
536.76	22.309
536.96	22.581
537.15	22.489
537.35	22.360
537.54	22.374
537.74	22.756
537.93	22.906
538.13	22.678
538.33	22.908
538.52	23.037
538.72	23.293
538.91	23.205
539.11	23.226
539.30	23.414
539.50	23.281
539.70	23.046
539.89	22.942
540.09	22.828
540.28	22.619
540.48	22.558
540.67	21.898
540.87	21.945
541.06	21.605
541.26	21.909
541.45	21.930
541.65	22.157
541.85	22.185
542.04	22.576
542.24	22.814
542.43	22.738
542.63	22.858
542.82	22.828
543.02	23.325
543.21	23.702
543.41	23.601
543.60	23.726
543.80	23.885
543.99	23.503
544.19	23.406
544.38	23.510
544.58	23.596
544.77	23.456
544.97	23.408
545.16	23.369
545.36	23.722
545.56	23.469
545.75	23.812
545.95	23.604
546.14	23.319
546.34	23.135
546.53	23.321
546.73	23.338
546.92	23.514
547.12	22.849
547.31	23.515
547.51	23.663
547.70	23.935
547.90	23.719
548.09	23.761
548.29	23.830
548.48	24.277
548.68	24.083
548.87	24.258
549.07	24.315
549.26	24.202
549.46	24.480
549.65	24.392
549.84	25.053
550.04	24.429
550.23	24.705
550.43	24.750
550.62	24.329
550.82	24.388
551.01	24.507
551.21	24.552
551.40	24.542
551.60	24.391
551.79	24.541
551.99	24.494
552.18	24.728
552.38	24.089
552.57	24.260
552.77	24.195
552.96	24.556
553.16	24.548
553.35	24.692
553.54	25.063
553.74	24.847
553.93	24.564
554.13	25.112
554.32	24.458
554.52	25.506
554.71	25.701
554.91	25.252
555.10	25.545
555.29	25.030
555.49	25.348
555.68	25.665
555.88	25.311
556.07	24.653
556.27	25.340
556.46	25.369
556.66	25.230
556.85	24.874
557.04	25.718
557.24	25.406
557.43	25.578
557.63	25.926
557.82	25.290
558.02	25.469
558.21	25.885
558.40	25.595
558.60	26.477
558.79	25.382
558.99	25.830
559.18	25.796
559.38	26.097
559.57	26.112
559.76	25.250
559.96	26.612
560.15	26.093
560.35	25.947
560.54	26.134
560.73	25.590
560.93	25.584
561.12	26.384
561.32	26.498
561.51	27.001
561.70	25.856
561.90	26.309
562.09	26.063
562.29	26.298
562.48	25.823
562.67	26.563
562.87	26.077
563.06	26.530
563.26	26.491
563.45	26.603
563.64	27.124
563.84	27.004
564.03	26.220
564.23	26.339
564.42	26.983
564.61	26.745
564.81	26.195
565.00	26.695
565.20	26.334
565.39	26.812
565.58	26.286
565.78	26.623
565.97	26.103
566.16	26.727
566.36	26.925
566.55	26.391
566.74	27.013
566.94	26.288
567.13	26.810
567.33	27.154
567.52	27.210
567.71	27.048
567.91	27.097
568.10	27.089
568.29	27.250
568.49	27.749
568.68	27.965
568.87	27.313
569.07	27.270
569.26	27.147
569.45	27.318
569.65	27.320
569.84	27.496
570.04	27.308
570.23	27.300
570.42	27.509
570.62	27.118
570.81	27.370
571.00	27.142
571.20	27.651
571.39	27.152
571.58	26.830
571.78	27.256
571.97	27.075
572.16	26.973
572.36	26.574
572.55	26.834
572.74	27.121
572.94	26.688
573.13	27.212
573.32	27.038
573.51	27.090
573.71	27.324
573.90	27.839
574.09	27.664
574.29	27.695
574.48	27.344
574.67	27.650
574.87	27.654
575.06	26.770
575.25	27.516
575.45	27.808
575.64	27.325
575.83	27.509
576.03	28.375
576.22	27.985
576.41	26.906
576.60	27.746
576.80	27.528
576.99	27.652
577.18	28.006
577.38	27.683
577.57	27.975
577.76	28.112
577.95	28.080
578.15	27.822
578.34	28.181
578.53	28.212
578.73	27.744
578.92	28.134
579.11	28.388
579.30	28.485
579.50	28.017
579.69	27.831
579.88	27.708
580.08	27.769
580.27	27.938
580.46	28.495
580.65	27.627
580.85	27.742
581.04	28.368
581.23	28.121
581.42	27.734
581.62	28.107
581.81	27.674
582.00	28.258
582.19	28.073
582.39	28.058
582.58	28.045
582.77	27.881
582.96	28.435
583.16	27.678
583.35	28.248
583.54	28.330
583.73	28.166
583.93	27.938
584.12	27.619
584.31	28.333
584.50	28.579
584.70	29.097
584.89	28.219
585.08	28.008
585.27	28.061
585.47	27.444
585.66	28.560
585.85	28.105
586.04	27.965
586.24	28.373
586.43	27.782
586.62	28.481
586.81	27.768
587.00	27.786
587.20	28.182
587.39	27.761
587.58	27.379
587.77	28.099
587.97	27.196
588.16	27.933
588.35	27.985
588.54	27.918
588.73	28.256
588.93	27.288
589.12	27.927
589.31	27.885
589.50	26.952
589.69	28.193
589.89	27.581
590.08	27.399
590.27	27.639
590.46	27.987
590.65	27.633
590.85	27.995
591.04	27.821
591.23	27.589
591.42	28.178
591.61	28.018
591.81	27.389
592.00	27.676
592.19	27.715
592.38	28.130
592.57	27.983
592.77	28.232
592.96	27.924
593.15	28.098
593.34	28.250
593.53	28.013
593.72	28.003
593.92	27.299
594.11	28.039
594.30	27.397
594.49	27.892
594.68	27.937
594.87	27.781
595.07	27.163
595.26	27.525
595.45	27.666
595.64	28.238
595.83	27.716
596.02	27.751
596.22	28.185
596.41	27.191
596.60	27.866
596.79	27.609
596.98	27.530
597.17	27.852
597.37	27.299
597.56	27.512
597.75	27.127
597.94	27.813
598.13	27.395
598.32	27.860
598.51	27.653
598.71	27.825
598.90	28.169
599.09	28.174
599.28	28.539
599.47	27.904
599.66	28.047
599.85	28.231
600.05	28.250
600.24	28.979
600.43	29.171
600.62	28.209
600.81	28.478
601.00	28.889
601.19	28.717
601.38	28.846
601.58	28.871
601.77	28.102
601.96	29.197
602.15	28.725
602.34	28.446
602.53	28.397
602.72	28.094
602.91	28.064
603.10	27.744
603.30	28.407
603.49	28.534
603.68	28.370
603.87	28.084
604.06	27.616
604.25	27.775
604.44	27.580
604.63	27.376
604.82	27.518
605.01	27.567
605.21	28.474
605.40	28.125
605.59	27.721
605.78	28.904
605.97	27.512
606.16	28.391
606.35	27.905
606.54	28.605
606.73	28.471
606.92	28.781
607.11	28.735
607.30	28.149
607.50	29.392
607.69	28.218
607.88	29.150
608.07	28.443
608.26	28.481
608.45	28.555
608.64	28.398
608.83	27.721
609.02	28.182
609.21	28.434
609.40	27.829
609.59	27.552
609.78	27.821
609.97	28.399
610.16	28.270
610.35	27.556
610.55	28.301
610.74	28.445
610.93	28.114
611.12	28.074
611.31	28.989
611.50	28.156
611.69	28.790
611.88	28.677
612.07	28.993
612.26	27.740
612.45	27.832
612.64	27.942
612.83	28.436
613.02	28.050
613.21	28.314
613.40	28.090
613.59	28.506
613.78	27.907
613.97	28.564
614.16	27.580
614.35	28.808
614.54	27.632
614.73	27.941
614.92	28.518
615.11	28.276
615.30	27.999
615.49	29.029
615.68	28.519
615.87	28.802
616.07	27.141
616.26	28.238
616.45	28.378
616.64	27.413
616.83	28.327
617.02	28.234
617.21	27.112
617.40	27.503
617.59	27.674
617.78	27.605
617.97	27.505
618.16	27.469
618.35	26.869
618.54	26.843
618.73	27.144
618.92	28.212
619.11	26.938
619.30	28.238
619.49	27.433
619.68	27.620
619.86	26.876
620.05	27.405
620.24	26.780
620.43	27.456
620.62	26.861
620.81	26.986
621.00	28.200
621.19	28.283
621.38	27.643
621.57	28.038
621.76	27.987
621.95	27.988
622.14	27.625
622.33	27.448
622.52	26.735
622.71	28.107
622.90	27.529
623.09	27.327
623.28	27.080
623.47	27.868
623.66	26.824
623.85	27.673
624.04	26.860
624.23	27.065
624.42	27.195
624.61	27.345
624.80	27.158
624.99	26.979
625.18	26.415
625.36	26.584
625.55	27.885
625.74	27.228
625.93	26.409
626.12	26.436
626.31	27.171
626.50	27.561
626.69	26.903
626.88	26.469
627.07	26.284
627.26	26.339
627.45	26.079
627.64	26.371
627.83	26.692
628.02	27.022
628.20	26.544
628.39	26.922
628.58	27.794
628.77	26.988
628.96	26.793
629.15	26.828
629.34	26.665
629.53	26.884
629.72	27.272
629.91	26.811
630.10	26.640
630.29	26.829
630.47	26.594
630.66	26.393
630.85	26.547
631.04	26.928
631.23	27.104
631.42	27.008
631.61	26.203
631.80	26.884
631.99	27.271
632.18	26.710
632.36	26.603
632.55	27.923
632.74	26.076
632.93	26.258
633.12	26.534
633.31	26.774
633.50	26.423
633.69	26.654
633.88	26.815
634.06	27.740
634.25	26.007
634.44	27.018
634.63	26.651
634.82	26.857
635.01	26.809
635.20	26.269
635.39	26.424
635.57	25.766
635.76	26.730
635.95	26.495
636.14	26.649
636.33	26.710
636.52	26.508
636.71	26.332
636.89	26.460
637.08	27.221
637.27	26.790
637.46	26.397
637.65	27.019
637.84	26.459
638.03	26.858
638.21	26.940
638.40	27.310
638.59	27.273
638.78	27.130
638.97	27.142
639.16	26.209
639.34	25.883
639.53	26.679
639.72	27.029
639.91	25.296
640.10	27.606
640.29	26.389
640.47	27.324
640.66	27.011
640.85	27.142
641.04	26.427
641.23	26.516
641.42	26.455
641.60	25.597
641.79	27.470
641.98	26.305
642.17	26.342
642.36	26.562
642.54	25.608
642.73	25.958
642.92	26.455
643.11	26.977
643.30	26.237
643.49	27.077
643.67	25.780
643.86	26.792
644.05	25.505
644.24	26.878
644.43	26.484
644.61	27.219
644.80	26.232
644.99	26.519
645.18	26.985
645.37	27.295
645.55	25.120
645.74	27.027
645.93	25.837
646.12	26.647
646.31	26.332
646.49	27.166
646.68	27.794
646.87	27.470
647.06	26.124
647.24	26.819
647.43	26.147
647.62	27.381
647.81	26.539
648.00	25.822
648.18	24.628
648.37	26.769
648.56	25.639
648.75	26.790
648.93	26.243
649.12	26.471
649.31	24.906
649.50	26.952
649.68	25.978
649.87	25.841
650.06	26.050
650.25	26.539
650.43	26.151
650.62	26.620
650.81	25.260
651.00	25.658
651.18	26.560
651.37	26.241
651.56	25.424
651.75	27.017
651.93	26.303
652.12	25.982
652.31	25.910
652.50	26.029
652.68	26.067
652.87	27.245
653.06	25.200
653.25	27.044
653.43	26.135
653.62	25.588
653.81	25.851
654.00	26.546
654.18	26.022
654.37	26.247
654.56	25.747
654.74	25.881
654.93	25.404
655.12	26.455
655.31	24.788
655.49	26.127
655.68	24.074
655.87	24.921
656.05	24.654
656.24	25.448
656.43	24.529
656.62	25.470
656.80	24.047
656.99	25.342
657.18	24.203
657.36	25.526
657.55	24.382
657.74	25.459
657.93	24.861
658.11	25.468
658.30	23.899
658.49	23.484
658.67	23.863
658.86	24.218
659.05	23.776
659.23	24.721
659.42	23.613
659.61	24.533
659.79	23.498
659.98	24.194
660.17	23.629
660.35	24.195
660.54	24.401
660.73	24.879
660.91	24.380
661.10	23.358
661.29	22.691
661.47	23.176
661.66	23.414
661.85	23.898
662.03	22.800
662.22	23.356
662.41	22.625
662.59	22.677
662.78	22.680
662.97	22.529
663.15	22.132
663.34	23.553
663.53	21.828
663.71	21.751
663.90	21.425
664.09	23.223
664.27	21.506
664.46	21.787
664.65	20.791
664.83	21.877
665.02	21.261
665.21	21.130
665.39	20.000
665.58	21.626
665.77	21.083
665.95	21.852
666.14	20.413
666.32	20.776
666.51	20.927
666.70	20.208
666.88	19.424
667.07	20.437
667.26	19.113
667.44	20.139
667.63	20.494
667.81	20.348
668.00	20.234
668.19	20.894
668.37	20.046
668.56	20.394
668.75	19.298
668.93	20.653
669.12	19.398
669.30	20.291
669.49	19.618
669.68	20.370
669.86	20.631
670.05	19.817
670.23	19.111
670.42	20.553
670.61	19.648
670.79	20.570
670.98	18.799
671.16	21.197
671.35	18.834
671.54	19.124
671.72	19.077
671.91	19.960
672.09	18.463
672.28	20.331
672.46	19.188
672.65	20.224
672.84	20.504
673.02	20.190
673.21	17.212
673.39	20.255
673.58	19.520
673.77	20.374
673.95	18.914
674.14	20.530
674.32	18.868
674.51	19.266
674.69	19.443
674.88	19.542
675.07	18.812
675.25	21.165
675.44	19.212
675.62	19.973
675.81	18.558
675.99	21.361
676.18	19.542
676.36	19.405
676.55	20.049
676.74	19.861
676.92	20.540
677.11	19.406
677.29	18.174
677.48	21.536
677.66	19.783
677.85	20.607
678.03	20.539
678.22	20.881
678.40	20.337
678.59	21.331
678.78	18.913
678.96	20.444
679.15	19.791
679.33	21.484
679.52	20.860
679.70	21.428
679.89	19.709
680.07	20.796
680.26	19.737
680.44	21.091
680.63	20.433
680.81	21.104
681.00	19.536
681.18	20.957
681.37	20.878
681.55	22.062
681.74	21.743
681.92	21.309
682.11	21.364
682.29	20.953
682.48	20.916
682.66	22.214
682.85	20.217
683.03	22.190
683.22	22.602
683.40	24.009
683.59	22.106
683.77	22.034
683.96	20.576
684.14	23.508
684.33	20.052
684.51	23.424
684.70	20.968
684.88	23.899
685.07	22.065
685.25	23.535
685.44	20.529
685.62	24.451
685.81	21.747
685.99	24.879
686.18	22.786
686.36	23.335
686.55	23.347
686.73	23.697
686.92	23.179
687.10	25.022
687.29	24.941
687.47	24.512
687.65	25.216
687.84	24.733
688.02	26.274
688.21	26.121
688.39	23.786
688.58	26.154
688.76	25.720
688.95	24.629
689.13	24.600
689.32	28.016
689.50	26.519
689.68	27.225
689.87	25.129
690.05	26.862
690.24	27.093
690.42	28.022
690.61	27.149
690.79	27.306
690.98	27.688
691.16	28.235
691.34	26.186
691.53	28.012
691.71	27.092
691.90	29.684
692.08	27.369
692.27	29.793
692.45	31.537
692.63	28.312
692.82	28.386
693.00	30.216
693.19	26.598
693.37	30.810
693.56	29.542
693.74	31.152
693.92	29.384
694.11	30.339
694.29	29.568
694.48	31.306
694.66	31.148
694.84	30.780
695.03	29.150
695.21	33.026
695.40	32.838
695.58	33.509
695.76	30.360
695.95	34.589
696.13	32.303
696.32	33.042
696.50	35.197
696.68	34.570
696.87	30.257
697.05	33.503
697.24	32.634
697.42	33.361
697.60	31.901
697.79	32.889
697.97	32.886
698.16	33.265
698.34	32.466
698.52	33.652
698.71	32.352
698.89	33.123
699.07	32.895
699.26	33.228
699.44	33.282
699.63	34.760
699.81	32.217
699.99	33.312
700.18	33.915
700.36	34.328
700.54	34.481
700.73	33.098
700.91	33.368
701.09	35.309
701.28	35.322
701.46	34.949
701.64	33.870
701.83	36.179
702.01	33.808
702.20	36.804
702.38	36.626
702.56	35.965
702.75	36.749
702.93	37.162
703.11	34.681
703.30	37.803
703.48	35.871
703.66	37.667
703.85	35.219
704.03	37.944
704.21	35.692
704.40	37.889
704.58	37.751
704.76	37.709
704.95	37.452
705.13	39.897
705.31	37.092
705.50	39.481
705.68	37.629
705.86	39.495
706.04	38.380
706.23	39.808
706.41	38.977
706.59	39.337
706.78	36.409
706.96	38.874
707.14	38.877
707.33	39.827
707.51	37.764
707.69	38.115
707.88	37.455
708.06	38.814
708.24	38.630
708.42	39.814
708.61	39.290
708.79	37.972
708.97	39.887
709.16	39.106
709.34	41.460
709.52	39.468
709.71	37.284
709.89	39.724
710.07	36.603
710.25	41.442
710.44	40.030
710.62	39.594
710.80	38.115
710.98	40.958
711.17	38.013
711.35	38.759
711.53	37.955
711.72	39.497
711.90	39.244
712.08	40.142
712.26	37.530
712.45	39.337
712.63	40.169
712.81	41.180
712.99	40.055
713.18	39.225
713.36	40.633
713.54	40.521
713.72	39.413
713.91	39.984
714.09	39.617
714.27	40.510
714.45	40.282
714.64	40.426
714.82	38.507
715.00	39.001
715.18	38.672
715.37	40.236
715.55	39.739
715.73	39.971
715.91	39.315
716.10	38.199
716.28	38.460
716.46	40.352
716.64	38.822
716.83	41.369
717.01	39.010
717.19	39.839
717.37	40.597
717.55	40.759
717.74	39.240
717.92	39.430
718.10	38.844
718.28	41.384
718.47	39.033
718.65	40.888
718.83	40.041
719.01	40.545
719.19	37.253
719.38	41.655
719.56	38.736
719.74	39.530
719.92	38.554
720.10	39.736
720.29	40.149
720.47	41.702
720.65	39.935
720.83	42.299
721.01	38.938
721.20	42.906
721.38	40.613
721.56	42.273
721.74	40.738
721.92	41.556
722.11	42.854
722.29	43.726
722.47	43.389
722.65	43.764
722.83	42.572
723.01	45.651
723.20	41.515
723.38	41.710
723.56	43.268
723.74	43.854
723.92	43.440
724.10	41.286
724.29	41.386
724.47	44.124
724.65	42.049
724.83	43.650
725.01	42.907
725.19	43.165
725.38	43.776
725.56	43.864
725.74	41.968
725.92	44.653
726.10	43.162
726.28	44.401
726.46	42.642
726.65	40.449
726.83	40.770
727.01	42.963
727.19	44.053
727.37	42.095
727.55	42.506
727.73	42.171
727.92	41.674
728.10	44.199
728.28	42.706
728.46	42.712
728.64	42.556
728.82	44.023
729.00	42.031
729.19	42.976
729.37	40.951
729.55	43.692
729.73	41.256
729.91	42.379
730.09	42.358
730.27	42.816
730.45	40.961
730.63	41.516
730.82	42.645
731.00	43.321
731.18	42.942
731.36	45.254
731.54	42.662
731.72	43.491
731.90	43.587
732.08	42.303
732.26	42.399
732.45	46.108
732.63	44.688
732.81	43.147
732.99	43.970
733.17	44.413
733.35	41.693
733.53	42.284
733.71	43.334
733.89	44.886
734.07	44.033
734.25	45.240
734.44	42.205
734.62	42.535
734.80	43.963
734.98	43.577
735.16	45.147
735.34	46.167
735.52	46.297
735.70	45.163
735.88	44.506
736.06	45.158
736.24	47.723
736.42	46.899
736.60	46.207
736.78	46.841
736.97	48.239
737.15	47.327
737.33	45.602
737.51	47.259
737.69	47.921
737.87	46.019
738.05	46.617
738.23	49.446
738.41	44.867
738.59	49.826
738.77	46.465
738.95	48.549
739.13	47.480
739.31	46.248
739.49	48.770
739.67	47.337
739.85	47.552
740.03	50.297
740.21	47.936
740.39	48.049
740.57	49.474
740.75	46.347
740.93	46.590
741.11	48.182
741.30	48.375
741.48	47.981
741.66	48.787
741.84	50.895
742.02	48.093
742.20	47.411
742.38	47.611
742.56	51.574
742.74	48.202
742.92	48.167
743.10	48.175
743.28	52.312
743.46	47.306
743.64	49.600
743.82	48.864
744.00	53.789
744.18	52.618
744.36	51.058
744.54	51.343
744.72	51.733
744.90	51.161
745.08	48.953
745.26	51.714
745.44	49.223
745.62	49.560
745.80	51.088
745.98	54.745
746.16	51.218
746.34	49.121
746.52	52.450
746.70	50.824
746.87	53.703
747.05	52.036
747.23	52.695
747.41	50.200
747.59	52.196
747.77	50.566
747.95	51.416
748.13	51.740
748.31	55.592
748.49	50.869
748.67	54.462
748.85	48.459
749.03	52.527
749.21	52.383
749.39	50.770
749.57	51.989
749.75	52.390
749.93	51.462
750.11	52.015
750.29	49.387
750.47	47.928
750.65	51.994
750.83	51.724
751.01	49.117
751.18	51.541
751.36	48.618
751.54	53.194
751.72	51.852
751.90	50.140
752.08	53.247
752.26	49.905
752.44	53.244
752.62	51.355
752.80	54.122
752.98	51.955
753.16	49.731
753.34	52.193
753.52	51.181
753.69	51.794
753.87	53.701
754.05	53.929
754.23	52.298
754.41	51.706
754.59	52.113
754.77	52.119
754.95	50.303
755.13	52.344
755.31	50.777
755.49	54.359
755.66	50.145
755.84	49.572
756.02	51.536
756.20	54.842
756.38	51.129
756.56	53.323
756.74	49.011
756.92	50.395
757.10	52.204
757.28	53.676
757.45	55.465
757.63	52.486
757.81	49.335
757.99	56.564
758.17	52.606
758.35	53.494
758.53	50.250
758.71	50.522
758.88	49.969
759.06	48.110
759.24	48.539
759.42	46.777
759.60	47.169
759.78	43.108
759.96	41.890
760.13	42.633
760.31	40.985
760.49	42.862
760.67	36.006
760.85	42.284
761.03	39.028
761.21	39.477
761.38	33.911
761.56	40.800
761.74	38.274
761.92	41.735
762.10	35.092
762.28	39.676
762.46	36.888
762.63	39.143
762.81	37.710
762.99	41.162
763.17	38.340
763.35	39.199
763.53	35.822
763.70	39.835
763.88	37.920
764.06	36.905
764.24	38.746
764.42	39.455
764.60	36.477
764.77	38.550
764.95	39.403
765.13	40.299
765.31	40.754
765.49	40.156
765.66	38.591
765.84	42.114
766.02	40.000
766.20	44.593
766.38	43.243
766.56	44.696
766.73	43.723
766.91	45.695
767.09	44.946
767.27	47.249
767.45	45.987
767.62	46.561
767.80	45.696
767.98	48.341
768.16	46.545
768.33	50.829
768.51	51.919
768.69	50.232
768.87	50.171
769.05	50.342
769.22	50.256
769.40	55.760
769.58	54.107
769.76	54.297
769.94	57.395
770.11	52.179
770.29	57.641
770.47	56.832
770.65	54.534
770.82	53.846
771.00	51.027
771.18	51.839
771.36	57.405
771.53	55.718
771.71	56.484
771.89	56.668
772.07	51.696
772.25	54.776
772.42	54.436
772.60	57.066
772.78	55.079
772.96	60.168
773.13	59.740
773.31	60.743
773.49	54.756
773.67	56.355
773.84	57.624
774.02	59.635
774.20	56.410
774.37	56.483
774.55	55.605
774.73	59.549
774.91	57.706
775.08	57.885
775.26	58.662
775.44	60.122
775.62	57.542
775.79	57.865
775.97	58.321
776.15	56.348
776.32	58.534
776.50	64.226
776.68	58.748
776.86	63.337
777.03	58.632
777.21	61.069
777.39	55.235
777.56	62.049
777.74	58.571
777.92	57.705
778.10	55.295
778.27	58.532
778.45	59.733
778.63	61.108
778.80	59.681
778.98	62.208
779.16	61.867
779.34	56.280
779.51	58.892
779.69	60.561
779.87	61.287
780.04	61.791
780.22	53.846
780.40	61.143
780.57	61.289
780.75	53.712
780.93	64.030
781.10	57.728
781.28	63.365
781.46	54.206
781.63	57.885
781.81	61.973
781.99	58.821
782.16	55.223
782.34	54.560
782.52	61.360
782.69	63.295
782.87	61.296
783.05	60.998
783.22	60.761
783.40	57.504
783.58	65.634
783.75	59.166
783.93	67.492
784.11	56.033
784.28	61.563
784.46	58.820
784.64	64.101
784.81	66.304
784.99	67.419
785.17	61.534
785.34	59.016
785.52	60.325
785.69	61.491
785.87	59.836
786.05	60.939
786.22	57.596
786.40	65.122
786.58	60.190
786.75	58.468
786.93	61.124
787.11	60.374
787.28	57.135
787.46	61.123
787.63	59.407
787.81	60.509
787.99	65.283
788.16	59.075
788.34	56.099
788.51	60.083
788.69	56.567
788.87	55.028
789.04	55.053
789.22	56.054
789.39	55.393
789.57	56.961
789.75	48.338
789.92	55.357
790.10	51.216
790.27	54.927
790.45	54.020
790.63	60.237
790.80	51.605
790.98	56.877
791.15	53.721
791.33	55.385
791.51	53.961
791.68	56.314
791.86	57.746
792.03	56.940
792.21	51.684
792.39	52.944
792.56	57.101
792.74	60.223
792.91	58.206
793.09	57.333
793.26	56.616
793.44	62.591
793.62	54.649
793.79	60.102
793.97	60.270
794.14	56.047
794.32	54.669
794.49	61.562
794.67	54.578
794.84	56.212
795.02	58.696
795.20	59.788
795.37	54.202
795.55	62.745
795.72	58.886
795.90	53.264
796.07	58.608
796.25	59.177
796.42	54.460
796.60	55.815
796.77	55.998
796.95	54.865
797.13	54.147
797.30	56.742
797.48	53.316
797.65	59.356
797.83	53.344
798.00	58.075
798.18	52.211
798.35	63.405
798.53	58.645
798.70	57.859
798.88	57.526
799.05	54.130
799.23	56.326
799.40	57.151
799.58	58.676
799.75	59.558
799.93	49.827
800.10	59.277
800.28	64.347
800.45	57.764
800.63	53.145
800.80	55.036
800.98	56.284
801.15	58.440
801.33	58.251
801.50	57.957
801.68	53.100
801.85	54.841
802.03	55.222
802.20	56.882
802.38	58.623
802.55	56.101
802.73	53.758
802.90	56.492
803.08	57.381
803.25	60.589
803.43	63.175
803.60	64.596
803.78	54.834
803.95	58.544
804.13	58.671
804.30	60.162
804.48	58.227
804.65	56.935
804.83	60.872
805.00	58.886
805.17	56.340
805.35	56.652
805.52	49.175
805.70	60.418
805.87	59.895
806.05	59.465
806.22	55.222
806.40	52.589
806.57	62.428
806.75	56.010
806.92	60.525
807.09	60.519
807.27	58.105
807.44	60.578
807.62	54.094
807.79	58.734
807.97	55.534
808.14	54.810
808.31	53.423
808.49	56.067
808.66	60.131
808.84	57.199
809.01	55.610
809.19	58.907
809.36	56.153
809.53	57.578
809.71	52.108
809.88	61.612
810.06	61.195
810.23	57.101
810.41	57.658
810.58	63.856
810.75	60.236
810.93	60.538
811.10	62.244
811.28	61.169
811.45	58.814
811.62	59.210
811.80	60.673
811.97	58.795
812.15	57.392
812.32	66.881
812.49	54.322
812.67	62.091
812.84	56.175
813.02	66.268
813.19	50.285
813.36	61.622
813.54	58.291
813.71	57.672
813.89	62.042
814.06	58.075
814.23	58.612
814.41	58.669
814.58	56.933
814.75	60.034
814.93	54.290
815.10	63.106
815.28	59.882
815.45	58.396
815.62	64.121
815.80	56.145
815.97	49.293
816.14	55.139
816.32	58.641
816.49	52.588
816.66	55.183
816.84	53.458
817.01	56.385
817.18	61.154
817.36	56.184
817.53	55.086
817.71	51.623
817.88	59.382
818.05	48.513
818.23	55.618
818.40	47.469
818.57	53.109
818.75	56.213
818.92	52.506
819.09	52.030
819.27	55.303
819.44	51.156
819.61	50.145
819.79	48.730
819.96	51.180
820.13	48.003
820.31	48.500
820.48	52.469
820.65	44.720
820.82	47.666
821.00	44.306
821.17	37.015
821.34	41.388
821.52	47.190
821.69	43.268
821.86	40.084
822.04	38.780
822.21	35.530
822.38	37.906
822.56	36.072
822.73	36.746
822.90	33.883
823.07	36.179
823.25	34.336
823.42	35.488
823.59	33.859
823.77	35.816
823.94	35.658
824.11	35.054
824.29	34.839
824.46	37.398
824.63	35.582
824.80	36.488
824.98	36.542
825.15	36.840
825.32	35.632
825.49	37.837
825.67	39.037
825.84	40.291
826.01	41.660
826.19	40.593
826.36	36.497
826.53	41.892
826.70	38.995
826.88	40.307
827.05	39.693
827.22	37.139
827.39	38.906
827.57	39.061
827.74	33.809
827.91	40.461
828.08	36.879
828.26	38.652
828.43	34.348
828.60	39.182
828.77	37.871
828.95	38.949
829.12	34.640
829.29	34.378
829.46	38.978
829.64	39.591
829.81	33.769
829.98	42.276
830.15	40.344
830.32	42.797
830.50	41.724
830.67	48.076
830.84	41.040
831.01	46.432
831.19	40.632
831.36	47.066
831.53	50.379
831.70	52.621
831.87	42.796
832.05	54.748
832.22	49.575
832.39	48.373
832.56	49.339
832.74	53.277
832.91	51.531
833.08	54.380
833.25	44.208
833.42	43.962
833.60	44.843
833.77	40.268
833.94	40.705
834.11	38.909
834.28	38.031
834.45	40.748
834.63	34.952
834.80	37.533
834.97	35.077
835.14	37.725
835.31	37.659
835.49	37.223
835.66	34.718
835.83	38.591
836.00	37.082
836.17	40.378
836.34	38.959
836.52	39.105
836.69	47.228
836.86	43.349
837.03	43.746
837.20	42.773
837.37	45.359
837.55	40.164
837.72	43.344
837.89	47.518
838.06	52.088
838.23	54.877
838.40	57.068
838.58	52.732
838.75	51.717
838.92	63.610
839.09	56.643
839.26	55.332
839.43	63.152
839.60	67.442
839.78	70.780
839.95	64.161
840.12	59.077
840.29	74.211
840.46	70.637
840.63	62.921
840.80	57.269
840.98	58.273
841.15	60.481
841.32	58.375
841.49	57.315
841.66	62.824
841.83	62.153
842.00	53.557
842.17	57.070
842.34	49.105
842.52	59.810
842.69	64.129
842.86	59.529
843.03	85.812
843.20	69.928
843.37	65.875
843.54	67.679
843.71	73.108
843.88	81.325
844.06	87.588
844.23	81.923
844.40	75.000
844.57	86.370
844.74	81.664
844.91	85.990
845.08	83.538
845.25	81.987
845.42	89.759
845.59	75.791
845.76	72.899
845.94	84.441
846.11	88.455
846.28	98.504
846.45	112.474
846.62	115.720
846.79	98.864
846.96	95.534
847.13	104.574
847.30	108.750
847.47	86.630
847.64	87.860
847.81	95.714
847.98	105.508
848.15	94.422
848.32	102.131
848.50	102.597
848.67	96.743
848.84	99.165
849.01	94.314
849.18	104.481
849.35	101.089
849.52	95.362
849.69	96.375
849.86	112.743
850.03	94.583
850.20	98.095
850.37	89.565
850.54	108.602
850.71	106.584
850.88	100.256
851.05	99.338
851.22	104.497
851.39	123.587
851.56	106.158
851.73	127.465
851.90	108.557
852.07	108.421
852.24	108.382
852.41	109.932
852.58	114.629
852.75	102.535
852.92	92.184
853.09	97.582
853.26	102.614
853.43	114.437
853.60	117.051
853.77	101.477
853.94	98.280
854.11	133.506
854.28	96.599
854.45	104.895
854.62	98.265
854.79	102.045
854.96	105.342
855.13	114.091
855.30	98.193
855.47	132.172
855.64	111.623
855.81	129.574
855.98	106.604
856.15	101.518
856.32	101.299
856.49	111.033
856.66	108.625
856.83	86.680
857.00	124.000
857.17	115.181
857.34	117.662
857.51	134.302
857.68	82.105
857.85	108.120
858.02	104.640
858.19	109.201
858.36	114.699
858.53	118.750
858.70	92.525
858.87	105.310
859.04	95.041
859.21	109.852
859.38	122.642
859.55	138.037
859.72	116.820
859.89	112.250
860.05	124.419
860.22	110.137
860.39	108.629
860.56	124.927
860.73	109.636
860.90	116.717
861.07	125.700
861.24	94.168
861.41	106.585
861.58	119.095
861.75	124.211
861.92	143.548
862.09	108.543
862.26	104.010
862.43	114.419
862.59	107.209
862.76	114.404
862.93	133.636
863.10	130.914
863.27	111.634
863.44	106.736
863.61	94.183
863.78	89.532
863.95	142.442
864.12	97.381
864.29	106.961
864.45	113.180
864.62	85.784
864.79	87.872
864.96	94.444
865.13	124.816
865.30	106.751
865.47	112.172
865.64	99.045
865.81	92.798
865.97	95.338
866.14	123.810
866.31	97.041
866.48	126.781
866.65	93.906
866.82	104.825
866.99	126.536
867.16	110.541
867.33	127.318
867.49	100.871
867.66	156.940
867.83	97.085
868.00	101.956
868.17	115.644
868.34	115.027
868.51	92.148
868.67	141.918
868.84	107.368
869.01	118.436
869.18	124.324
869.35	111.456
869.52	97.397
869.69	110.864
869.85	100.000
870.02	107.914
870.19	112.472
870.36	111.111
870.53	98.687
870.70	113.514
870.86	117.380
871.03	108.817
871.20	118.681
871.37	106.452
871.54	94.840
871.71	96.667
871.87	100.221
872.04	91.727
872.21	102.794
872.38	98.950
872.55	122.222
872.72	116.619
872.88	107.530
873.05	87.441
873.22	118.912
873.39	108.605
873.56	109.545
873.72	108.102
873.89	99.740
874.06	88.095
874.23	109.035
874.40	108.947
874.56	142.587
874.73	99.189
874.90	111.929
875.07	112.680
875.24	108.291
875.40	95.455
875.57	106.484
875.74	100.000
875.91	95.059
876.08	85.682
876.24	97.458
876.41	129.940
876.58	101.639
876.75	111.200
876.92	114.929
877.08	92.950
877.25	120.822
877.42	99.444
877.59	113.876
877.75	120.519
877.92	82.045
878.09	91.699
878.26	112.441
878.42	93.719
878.59	93.396
878.76	100.217
878.93	123.143
879.09	100.810
879.26	87.259
879.43	84.407
879.60	100.000
879.76	116.336
879.93	80.108
880.10	84.381
880.27	68.566
880.43	76.148
880.60	62.684
880.77	69.787
880.94	65.977
881.10	63.852
881.27	51.400
881.44	45.763
881.61	38.198
881.77	44.310
881.94	37.596
882.11	31.454
882.28	33.887
882.44	31.981
882.61	33.948
882.78	33.765
882.94	37.843
883.11	33.219
883.28	34.425
883.45	35.922
883.61	35.207
883.78	32.323
883.95	34.058
884.11	35.195
884.28	33.495
>>>>>End Processed Spectral Data<<<<<
