SpectraSuite Data File
++++++++++++++++++++++++++++++++++++
Date: Wed Sep 18 04:16:34 EST 2019
User: sgrac
Dark Spectrum Present: Yes
Reference Spectrum Present: Yes
Number of Sampled Component Spectra: 1
Spectrometers: USB4E01596
Integration Time (usec): 100000 (USB4E01596)
Spectra Averaged: 3 (USB4E01596)
Boxcar Smoothing: 0 (USB4E01596)
Correct for Electrical Dark: No (USB4E01596)
Strobe/Lamp Enabled: Yes (USB4E01596)
Correct for Detector Non-linearity: No (USB4E01596)
Correct for Stray Light: No (USB4E01596)
Number of Pixels in Processed Spectrum: 3648
>>>>>Begin Processed Spectral Data<<<<<
178.44	-172.581
178.66	-172.581
178.87	-172.581
179.09	-168.000
179.30	246.739
179.52	565.789
179.74	-1355.556
179.95	-1686.667
180.17	655.814
180.38	-683.333
180.60	470.000
180.82	1412.500
181.03	509.302
181.25	-1878.571
181.46	-490.000
181.68	-572.093
181.89	600.000
182.11	565.000
182.33	617.647
182.54	507.018
182.76	1282.609
182.97	2100.000
183.19	353.261
183.40	379.545
183.62	475.000
183.84	416.129
184.05	687.879
184.27	527.869
184.48	3087.500
184.70	763.889
184.91	652.174
185.13	-562.500
185.34	-355.000
185.56	-806.061
185.78	1727.778
185.99	483.607
186.21	658.537
186.42	-2640.000
186.64	350.000
186.85	1831.250
187.07	583.333
187.28	580.952
187.50	-1270.588
187.72	498.000
187.93	357.831
188.15	548.529
188.36	-2047.059
188.58	335.065
188.79	-14100.000
189.01	231.973
189.22	376.623
189.44	1191.667
189.65	301.124
189.87	396.053
190.09	289.362
190.30	1170.000
190.52	1756.250
190.73	302.410
190.95	1331.818
191.16	440.299
191.38	-28000.000
191.59	628.261
191.81	417.143
192.02	-633.333
192.24	458.065
192.45	347.778
192.67	390.909
192.88	406.250
193.10	609.091
193.31	512.500
193.53	501.613
193.74	703.030
193.96	567.797
194.18	-956.522
194.39	586.275
194.61	934.483
194.82	1519.231
195.04	417.778
195.25	534.426
195.47	-6425.000
195.68	350.704
195.90	252.747
196.11	597.917
196.33	1923.529
196.54	706.977
196.76	-980.000
196.97	311.000
197.19	1530.000
197.40	260.902
197.62	-615.152
197.83	594.231
198.05	229.530
198.26	-1096.000
198.48	655.556
198.69	246.789
198.91	428.986
199.12	-1916.667
199.34	940.000
199.55	21400.000
199.77	315.789
199.98	4316.667
200.20	782.353
200.41	423.944
200.63	579.630
200.84	1233.333
201.06	732.258
201.27	354.321
201.49	476.562
201.70	534.426
201.91	672.727
202.13	1515.000
202.34	-782.857
202.56	421.667
202.77	-219.767
202.99	428.049
203.20	587.234
203.42	454.286
203.63	254.128
203.85	-875.862
204.06	954.545
204.28	1780.000
204.49	609.302
204.71	252.101
204.92	1123.077
205.14	1626.316
205.35	6525.000
205.56	432.394
205.78	407.407
205.99	208.397
206.21	292.929
206.42	582.609
206.64	902.941
206.85	306.667
207.07	597.143
207.28	351.136
207.50	1300.000
207.71	555.814
207.93	558.333
208.14	637.209
208.35	323.729
208.57	556.000
208.78	394.681
209.00	281.720
209.21	216.901
209.43	411.111
209.64	734.615
209.86	1545.455
210.07	303.797
210.28	306.024
210.50	362.319
210.71	333.333
210.93	467.273
211.14	680.000
211.36	1204.762
211.57	196.667
211.78	896.154
212.00	637.838
212.21	2922.222
212.43	1923.077
212.64	881.250
212.86	354.545
213.07	492.308
213.29	279.592
213.50	431.667
213.71	348.750
213.93	311.236
214.14	775.000
214.36	624.390
214.57	377.381
214.78	7775.000
215.00	319.512
215.21	417.778
215.43	-5380.000
215.64	405.714
215.86	389.706
216.07	346.575
216.28	554.000
216.50	492.000
216.71	1560.000
216.93	-27400.000
217.14	1352.632
217.35	-286.441
217.57	288.636
217.78	651.724
218.00	253.333
218.21	361.765
218.42	-6425.000
218.64	985.714
218.85	423.529
219.07	639.535
219.28	568.750
219.49	-14200.000
219.71	432.836
219.92	571.053
220.14	-22500.000
220.35	331.507
220.56	486.957
220.78	323.171
220.99	-533.333
221.21	279.518
221.42	213.158
221.63	1738.462
221.85	-616.667
222.06	269.697
222.28	-710.714
222.49	573.684
222.70	362.069
222.92	481.579
223.13	191.096
223.34	1783.333
223.56	241.880
223.77	346.914
223.99	268.687
224.20	297.619
224.41	226.364
224.63	151.705
224.84	212.097
225.05	233.607
225.27	510.909
225.48	353.659
225.69	362.500
225.91	307.692
226.12	284.000
226.34	291.176
226.55	173.585
226.76	245.736
226.98	360.256
227.19	120.000
227.40	230.282
227.62	138.462
227.83	122.857
228.04	144.865
228.26	160.811
228.47	114.423
228.69	53.115
228.90	55.041
229.11	71.910
229.33	60.225
229.54	56.757
229.75	41.293
229.97	42.809
230.18	44.932
230.39	41.114
230.61	23.129
230.82	55.000
231.03	23.843
231.25	50.727
231.46	49.213
231.67	35.055
231.89	42.419
232.10	44.714
232.31	51.698
232.53	62.667
232.74	55.422
232.95	78.614
233.17	70.419
233.38	37.825
233.59	75.938
233.81	56.716
234.02	57.637
234.23	82.552
234.45	56.983
234.66	54.455
234.87	72.809
235.09	66.986
235.30	62.312
235.51	66.917
235.73	66.746
235.94	53.571
236.15	51.173
236.36	52.584
236.58	54.356
236.79	39.739
237.00	52.328
237.22	51.381
237.43	73.166
237.64	37.097
237.86	49.797
238.07	50.780
238.28	64.378
238.50	53.783
238.71	43.269
238.92	43.964
239.13	53.632
239.35	64.007
239.56	56.263
239.77	63.086
239.99	44.515
240.20	79.375
240.41	46.843
240.63	55.515
240.84	56.601
241.05	34.963
241.26	49.311
241.48	36.925
241.69	30.968
241.90	24.629
242.12	34.066
242.33	25.937
242.54	20.462
242.75	21.987
242.97	32.957
243.18	17.337
243.39	17.597
243.61	16.746
243.82	24.508
244.03	21.554
244.24	21.116
244.46	22.048
244.67	21.235
244.88	20.062
245.09	23.195
245.31	19.609
245.52	20.932
245.73	26.709
245.95	44.633
246.16	26.780
246.37	25.701
246.58	28.935
246.80	27.200
247.01	24.344
247.22	21.632
247.43	13.717
247.65	20.806
247.86	18.601
248.07	12.583
248.28	14.518
248.50	14.946
248.71	13.672
248.92	13.023
249.13	12.369
249.35	12.418
249.56	13.815
249.77	10.532
249.98	16.172
250.20	16.806
250.41	18.313
250.62	17.089
250.83	19.042
251.05	25.142
251.26	21.037
251.47	26.178
251.68	25.113
251.90	22.066
252.11	20.918
252.32	22.341
252.53	27.247
252.75	16.771
252.96	21.801
253.17	21.507
253.38	16.884
253.59	14.862
253.81	18.318
254.02	19.321
254.23	16.868
254.44	23.197
254.66	15.259
254.87	19.168
255.08	20.599
255.29	27.552
255.50	22.581
255.72	21.924
255.93	26.507
256.14	27.875
256.35	21.069
256.57	26.817
256.78	28.918
256.99	21.133
257.20	26.280
257.41	19.126
257.63	25.844
257.84	24.010
258.05	18.599
258.26	19.731
258.47	22.573
258.69	22.303
258.90	20.152
259.11	17.890
259.32	17.931
259.53	15.612
259.75	7.948
259.96	14.087
260.17	14.114
260.38	12.342
260.59	10.980
260.81	10.518
261.02	10.625
261.23	10.744
261.44	9.571
261.65	11.495
261.87	10.492
262.08	11.530
262.29	12.853
262.50	10.730
262.71	12.715
262.92	9.467
263.14	10.378
263.35	12.194
263.56	14.230
263.77	13.482
263.98	14.895
264.20	17.674
264.41	19.778
264.62	14.286
264.83	12.941
265.04	22.754
265.25	17.689
265.47	22.995
265.68	20.244
265.89	18.843
266.10	14.797
266.31	18.861
266.52	18.922
266.74	16.443
266.95	17.004
267.16	15.247
267.37	16.477
267.58	10.775
267.79	15.128
268.01	9.110
268.22	10.467
268.43	15.685
268.64	15.004
268.85	13.627
269.06	12.906
269.27	14.196
269.49	12.969
269.70	12.909
269.91	15.691
270.12	14.831
270.33	14.554
270.54	15.368
270.75	10.415
270.97	12.380
271.18	15.034
271.39	13.826
271.60	13.447
271.81	10.393
272.02	14.291
272.23	13.925
272.45	10.468
272.66	10.999
272.87	11.876
273.08	10.737
273.29	13.053
273.50	9.880
273.71	7.473
273.92	10.062
274.14	10.182
274.35	13.195
274.56	12.758
274.77	10.204
274.98	13.858
275.19	9.871
275.40	12.093
275.61	9.556
275.83	11.904
276.04	11.794
276.25	15.191
276.46	13.740
276.67	13.360
276.88	14.931
277.09	11.926
277.30	15.948
277.51	13.219
277.73	13.502
277.94	13.695
278.15	12.926
278.36	16.472
278.57	11.369
278.78	14.429
278.99	11.614
279.20	15.959
279.41	18.559
279.62	12.260
279.84	11.504
280.05	11.925
280.26	13.124
280.47	15.536
280.68	8.461
280.89	11.445
281.10	11.837
281.31	13.491
281.52	15.880
281.73	8.627
281.94	10.534
282.16	11.743
282.37	14.590
282.58	12.061
282.79	10.865
283.00	14.332
283.21	10.984
283.42	10.932
283.63	12.683
283.84	10.846
284.05	11.011
284.26	11.511
284.47	12.541
284.68	10.055
284.89	8.942
285.11	11.843
285.32	10.502
285.53	9.915
285.74	12.943
285.95	9.425
286.16	11.213
286.37	7.191
286.58	8.895
286.79	7.720
287.00	8.563
287.21	7.951
287.42	8.534
287.63	11.053
287.84	9.617
288.05	8.572
288.26	9.252
288.48	11.336
288.69	9.422
288.90	12.070
289.11	11.602
289.32	10.449
289.53	9.450
289.74	8.863
289.95	9.480
290.16	10.681
290.37	10.035
290.58	7.711
290.79	6.607
291.00	9.166
291.21	8.717
291.42	9.785
291.63	7.639
291.84	9.906
292.05	6.842
292.26	7.883
292.47	8.582
292.68	6.941
292.89	11.140
293.10	10.063
293.31	11.955
293.52	7.779
293.73	8.491
293.94	9.244
294.15	7.907
294.36	10.603
294.57	10.815
294.79	9.191
295.00	7.040
295.21	10.584
295.42	10.647
295.63	10.642
295.84	4.779
296.05	9.277
296.26	9.287
296.47	9.587
296.68	6.432
296.89	10.007
297.10	8.413
297.31	8.879
297.52	6.661
297.73	7.407
297.94	5.222
298.15	6.909
298.36	6.258
298.57	5.750
298.78	8.809
298.99	7.345
299.20	6.541
299.41	8.083
299.62	5.632
299.83	7.172
300.04	7.613
300.25	8.862
300.46	9.124
300.67	10.418
300.88	9.541
301.09	6.833
301.30	9.148
301.50	7.998
301.71	10.733
301.92	9.503
302.13	7.143
302.34	8.157
302.55	7.341
302.76	8.331
302.97	8.053
303.18	7.599
303.39	9.807
303.60	9.105
303.81	9.804
304.02	7.429
304.23	9.361
304.44	8.744
304.65	7.802
304.86	10.636
305.07	6.654
305.28	9.801
305.49	9.389
305.70	8.997
305.91	9.804
306.12	7.825
306.33	7.020
306.54	10.897
306.75	11.126
306.96	12.372
307.17	8.657
307.38	8.787
307.58	7.983
307.79	10.630
308.00	9.528
308.21	7.250
308.42	5.337
308.63	10.899
308.84	10.558
309.05	9.577
309.26	7.935
309.47	9.610
309.68	9.062
309.89	9.523
310.10	9.988
310.31	6.536
310.52	7.427
310.73	12.419
310.94	5.378
311.14	6.747
311.35	7.047
311.56	7.978
311.77	6.359
311.98	6.141
312.19	8.092
312.40	6.490
312.61	5.692
312.82	6.681
313.03	7.521
313.24	9.047
313.45	7.090
313.66	8.775
313.86	9.235
314.07	5.858
314.28	8.282
314.49	5.498
314.70	7.913
314.91	8.756
315.12	8.369
315.33	11.175
315.54	8.840
315.75	7.002
315.96	7.167
316.16	9.533
316.37	10.569
316.58	9.671
316.79	10.272
317.00	9.763
317.21	9.084
317.42	10.302
317.63	7.626
317.84	8.513
318.05	8.485
318.25	7.762
318.46	8.000
318.67	9.137
318.88	11.375
319.09	9.741
319.30	10.697
319.51	9.173
319.72	8.026
319.93	9.675
320.13	10.305
320.34	8.322
320.55	7.409
320.76	10.528
320.97	9.475
321.18	11.278
321.39	8.225
321.60	10.312
321.80	13.395
322.01	11.049
322.22	10.965
322.43	8.595
322.64	8.201
322.85	9.031
323.06	9.697
323.27	10.642
323.47	10.933
323.68	10.433
323.89	8.511
324.10	6.512
324.31	9.643
324.52	9.720
324.73	8.492
324.93	6.427
325.14	6.236
325.35	9.194
325.56	8.079
325.77	10.037
325.98	7.830
326.19	8.565
326.39	5.736
326.60	7.669
326.81	6.008
327.02	7.607
327.23	9.233
327.44	11.400
327.64	4.826
327.85	6.042
328.06	7.739
328.27	12.830
328.48	8.927
328.69	5.323
328.90	7.683
329.10	8.738
329.31	9.412
329.52	9.827
329.73	9.308
329.94	7.889
330.15	8.717
330.35	9.592
330.56	8.084
330.77	9.783
330.98	9.023
331.19	8.532
331.39	9.220
331.60	9.426
331.81	7.468
332.02	8.316
332.23	9.493
332.44	6.915
332.64	10.314
332.85	8.180
333.06	11.392
333.27	5.879
333.48	9.066
333.68	6.927
333.89	8.193
334.10	8.573
334.31	9.643
334.52	8.502
334.72	8.171
334.93	7.839
335.14	6.846
335.35	8.806
335.56	10.192
335.76	7.248
335.97	9.986
336.18	7.209
336.39	11.207
336.60	8.266
336.80	7.851
337.01	8.372
337.22	8.140
337.43	10.009
337.64	9.565
337.84	8.065
338.05	7.808
338.26	9.892
338.47	10.941
338.68	7.942
338.88	9.085
339.09	8.267
339.30	8.939
339.51	7.032
339.71	10.667
339.92	7.880
340.13	9.858
340.34	6.900
340.55	6.439
340.75	8.351
340.96	8.456
341.17	9.229
341.38	8.837
341.58	9.349
341.79	8.789
342.00	6.602
342.21	8.031
342.41	9.372
342.62	8.864
342.83	7.081
343.04	7.120
343.24	10.639
343.45	9.940
343.66	7.635
343.87	8.806
344.07	7.581
344.28	10.091
344.49	11.048
344.70	10.988
344.90	7.699
345.11	7.183
345.32	9.861
345.53	8.443
345.73	9.051
345.94	11.926
346.15	10.758
346.36	10.000
346.56	10.083
346.77	11.405
346.98	10.391
347.19	10.677
347.39	9.724
347.60	10.112
347.81	11.702
348.02	11.802
348.22	10.210
348.43	10.177
348.64	10.067
348.84	12.371
349.05	10.498
349.26	12.895
349.47	9.160
349.67	11.316
349.88	13.847
350.09	12.650
350.30	16.201
350.50	14.578
350.71	14.318
350.92	13.593
351.12	14.547
351.33	14.305
351.54	14.158
351.74	16.009
351.95	13.844
352.16	18.607
352.37	17.076
352.57	16.640
352.78	16.287
352.99	18.780
353.19	19.277
353.40	19.559
353.61	21.080
353.82	20.956
354.02	21.998
354.23	23.057
354.44	24.961
354.64	21.497
354.85	24.223
355.06	22.610
355.26	22.356
355.47	24.142
355.68	28.938
355.88	27.668
356.09	23.923
356.30	25.932
356.51	27.666
356.71	27.073
356.92	24.887
357.13	29.522
357.33	32.421
357.54	28.624
357.75	26.658
357.95	30.017
358.16	29.357
358.37	32.635
358.57	28.850
358.78	34.095
358.99	33.058
359.19	30.519
359.40	34.634
359.61	34.654
359.81	34.507
360.02	35.460
360.23	32.896
360.43	34.966
360.64	34.878
360.85	35.400
361.05	34.109
361.26	36.673
361.47	34.345
361.67	36.579
361.88	33.139
362.09	35.780
362.29	33.164
362.50	35.644
362.70	33.356
362.91	36.912
363.12	34.728
363.32	36.342
363.53	36.289
363.74	37.569
363.94	36.202
364.15	38.813
364.36	37.863
364.56	38.259
364.77	38.521
364.98	39.355
365.18	36.786
365.39	38.237
365.59	35.842
365.80	39.270
366.01	36.469
366.21	38.091
366.42	36.876
366.63	39.151
366.83	37.518
367.04	36.285
367.24	39.497
367.45	36.875
367.66	36.607
367.86	36.802
368.07	37.119
368.28	37.685
368.48	36.308
368.69	36.232
368.89	36.452
369.10	39.313
369.31	37.406
369.51	39.676
369.72	38.262
369.92	40.015
370.13	36.695
370.34	39.148
370.54	35.310
370.75	38.835
370.95	35.012
371.16	39.149
371.37	35.820
371.57	36.637
371.78	36.141
371.98	37.129
372.19	37.972
372.40	37.456
372.60	36.992
372.81	38.342
373.01	35.325
373.22	37.524
373.43	38.131
373.63	39.253
373.84	37.335
374.04	38.892
374.25	37.827
374.46	38.752
374.66	38.930
374.87	39.710
375.07	35.349
375.28	37.949
375.48	36.785
375.69	38.687
375.90	33.676
376.10	36.959
376.31	36.493
376.51	37.233
376.72	36.056
376.92	35.926
377.13	37.788
377.34	37.488
377.54	35.891
377.75	36.645
377.95	36.231
378.16	37.672
378.36	36.243
378.57	38.886
378.77	36.700
378.98	36.942
379.19	36.418
379.39	37.954
379.60	36.964
379.80	36.724
380.01	36.856
380.21	38.462
380.42	37.679
380.62	37.485
380.83	37.293
381.04	36.635
381.24	38.679
381.45	38.141
381.65	36.494
381.86	38.048
382.06	37.872
382.27	36.511
382.47	37.308
382.68	37.579
382.88	35.279
383.09	36.300
383.29	37.711
383.50	37.700
383.71	36.699
383.91	37.060
384.12	36.553
384.32	38.157
384.53	37.045
384.73	36.974
384.94	36.366
385.14	36.907
385.35	36.710
385.55	38.354
385.76	36.639
385.96	37.761
386.17	37.065
386.37	36.720
386.58	36.487
386.78	37.899
386.99	36.537
387.19	36.794
387.40	37.052
387.60	37.710
387.81	37.179
388.01	38.167
388.22	38.112
388.42	37.936
388.63	37.928
388.83	38.866
389.04	37.229
389.24	38.918
389.45	38.059
389.65	36.574
389.86	37.616
390.06	36.562
390.27	37.571
390.47	38.859
390.68	36.639
390.88	36.967
391.09	37.003
391.29	36.810
391.50	37.186
391.70	37.742
391.91	36.969
392.11	37.060
392.32	37.525
392.52	37.196
392.73	36.862
392.93	37.676
393.14	37.239
393.34	37.580
393.55	37.953
393.75	37.693
393.95	37.653
394.16	37.379
394.36	38.290
394.57	37.576
394.77	37.762
394.98	37.117
395.18	36.445
395.39	37.360
395.59	37.401
395.80	37.759
396.00	36.958
396.21	37.333
396.41	36.675
396.61	37.060
396.82	37.770
397.02	37.833
397.23	38.200
397.43	37.339
397.64	35.902
397.84	37.258
398.05	35.312
398.25	37.226
398.45	35.863
398.66	36.500
398.86	36.851
399.07	38.208
399.27	36.705
399.48	35.791
399.68	36.749
399.89	35.590
400.09	37.261
400.29	36.327
400.50	35.654
400.70	36.238
400.91	34.843
401.11	36.018
401.32	37.249
401.52	36.151
401.72	35.443
401.93	37.132
402.13	36.161
402.34	36.680
402.54	34.882
402.75	37.313
402.95	35.126
403.15	34.815
403.36	34.642
403.56	35.784
403.77	34.080
403.97	35.806
404.17	33.616
404.38	34.348
404.58	33.903
404.79	35.603
404.99	35.303
405.19	33.721
405.40	33.756
405.60	34.435
405.81	34.081
406.01	34.529
406.21	34.076
406.42	33.799
406.62	33.639
406.83	34.087
407.03	33.983
407.23	33.699
407.44	33.570
407.64	34.460
407.85	34.132
408.05	34.915
408.25	34.199
408.46	34.314
408.66	34.321
408.87	34.171
409.07	33.989
409.27	32.898
409.48	32.681
409.68	34.132
409.88	33.467
410.09	34.463
410.29	33.798
410.50	33.709
410.70	31.783
410.90	33.714
411.11	32.368
411.31	32.933
411.51	32.953
411.72	33.063
411.92	32.542
412.12	33.267
412.33	31.551
412.53	32.347
412.74	30.896
412.94	34.015
413.14	32.971
413.35	31.969
413.55	31.309
413.75	32.563
413.96	32.659
414.16	32.443
414.36	31.959
414.57	32.531
414.77	31.627
414.97	32.059
415.18	31.970
415.38	31.328
415.58	31.408
415.79	31.627
415.99	30.337
416.19	31.958
416.40	30.801
416.60	32.292
416.80	30.606
417.01	32.063
417.21	30.177
417.41	31.300
417.62	31.380
417.82	30.761
418.02	30.554
418.23	30.931
418.43	30.445
418.63	31.251
418.84	30.055
419.04	29.970
419.24	29.870
419.45	30.209
419.65	30.134
419.85	30.310
420.06	30.104
420.26	30.551
420.46	29.523
420.67	29.744
420.87	29.588
421.07	30.460
421.28	28.881
421.48	29.745
421.68	29.520
421.88	29.670
422.09	30.208
422.29	29.650
422.49	29.417
422.70	30.020
422.90	29.892
423.10	29.846
423.31	29.853
423.51	29.635
423.71	29.633
423.91	29.423
424.12	29.404
424.32	29.737
424.52	29.402
424.73	29.143
424.93	29.548
425.13	29.451
425.33	28.321
425.54	28.465
425.74	29.173
425.94	29.468
426.15	29.370
426.35	29.353
426.55	28.814
426.75	29.437
426.96	29.560
427.16	29.804
427.36	30.276
427.57	29.608
427.77	29.450
427.97	30.313
428.17	29.947
428.38	29.613
428.58	29.116
428.78	30.316
428.98	28.751
429.19	29.467
429.39	29.380
429.59	30.421
429.79	28.961
430.00	28.915
430.20	28.941
430.40	29.474
430.60	28.656
430.81	28.019
431.01	28.343
431.21	28.484
431.41	27.997
431.62	28.764
431.82	27.934
432.02	29.631
432.22	28.633
432.43	28.450
432.63	28.053
432.83	28.144
433.03	28.361
433.24	27.940
433.44	27.735
433.64	28.008
433.84	28.678
434.05	28.035
434.25	27.446
434.45	28.562
434.65	28.006
434.85	28.347
435.06	28.297
435.26	28.375
435.46	28.493
435.66	28.855
435.87	28.447
436.07	29.133
436.27	29.124
436.47	28.737
436.67	28.886
436.88	29.578
437.08	28.765
437.28	28.868
437.48	28.267
437.69	28.402
437.89	28.611
438.09	28.807
438.29	28.094
438.49	28.206
438.70	28.215
438.90	27.961
439.10	28.156
439.30	28.374
439.50	28.067
439.71	27.943
439.91	27.888
440.11	28.238
440.31	27.471
440.51	28.157
440.72	27.938
440.92	27.672
441.12	27.344
441.32	27.817
441.52	27.808
441.72	27.833
441.93	27.815
442.13	28.325
442.33	27.685
442.53	28.472
442.73	28.667
442.94	28.379
443.14	27.957
443.34	28.367
443.54	28.469
443.74	28.611
443.94	28.052
444.15	28.119
444.35	28.385
444.55	28.607
444.75	28.206
444.95	28.114
445.15	27.744
445.36	27.786
445.56	27.745
445.76	27.822
445.96	26.961
446.16	27.590
446.36	27.472
446.57	27.515
446.77	27.495
446.97	27.481
447.17	27.488
447.37	27.451
447.57	27.820
447.77	27.512
447.98	27.496
448.18	27.697
448.38	27.775
448.58	28.262
448.78	27.947
448.98	28.072
449.18	28.290
449.39	27.743
449.59	28.344
449.79	28.753
449.99	28.740
450.19	28.841
450.39	28.340
450.59	28.488
450.79	28.040
451.00	28.407
451.20	29.062
451.40	28.507
451.60	28.950
451.80	28.302
452.00	28.534
452.20	28.543
452.40	28.369
452.61	27.297
452.81	28.001
453.01	28.072
453.21	27.829
453.41	27.838
453.61	28.485
453.81	28.055
454.01	27.794
454.21	28.052
454.42	27.979
454.62	28.449
454.82	27.650
455.02	27.670
455.22	28.132
455.42	28.330
455.62	28.386
455.82	28.017
456.02	27.836
456.23	27.787
456.43	28.151
456.63	27.125
456.83	27.565
457.03	27.445
457.23	28.179
457.43	28.854
457.63	27.392
457.83	28.120
458.03	27.176
458.23	28.068
458.43	27.235
458.64	27.443
458.84	27.869
459.04	27.053
459.24	26.423
459.44	26.987
459.64	26.899
459.84	26.393
460.04	26.716
460.24	26.669
460.44	26.623
460.64	26.877
460.84	26.725
461.04	26.701
461.24	26.853
461.45	26.976
461.65	26.748
461.85	27.057
462.05	27.338
462.25	28.070
462.45	27.997
462.65	27.783
462.85	27.863
463.05	28.029
463.25	27.674
463.45	27.656
463.65	28.117
463.85	27.257
464.05	27.793
464.25	27.167
464.45	27.364
464.65	27.657
464.85	27.374
465.05	27.095
465.26	27.350
465.46	27.551
465.66	26.899
465.86	27.679
466.06	27.667
466.26	27.417
466.46	27.035
466.66	26.876
466.86	27.148
467.06	27.074
467.26	26.938
467.46	27.392
467.66	27.184
467.86	26.952
468.06	26.892
468.26	27.384
468.46	27.195
468.66	27.488
468.86	28.043
469.06	27.941
469.26	27.524
469.46	27.689
469.66	26.881
469.86	27.529
470.06	27.176
470.26	27.870
470.46	27.178
470.66	27.634
470.86	27.173
471.06	27.252
471.26	27.219
471.46	27.484
471.66	27.247
471.86	27.024
472.06	27.238
472.26	27.409
472.46	27.583
472.66	26.809
472.86	27.329
473.06	27.215
473.26	27.720
473.46	27.506
473.66	27.388
473.86	27.138
474.06	27.468
474.26	27.324
474.46	27.371
474.66	27.977
474.86	28.166
475.06	27.443
475.26	27.207
475.46	27.748
475.66	27.054
475.86	28.240
476.06	27.782
476.26	28.124
476.46	27.393
476.66	27.973
476.86	26.965
477.06	27.624
477.26	27.367
477.46	27.783
477.65	27.526
477.85	28.446
478.05	27.048
478.25	27.378
478.45	27.566
478.65	27.363
478.85	27.120
479.05	27.174
479.25	27.375
479.45	27.072
479.65	27.226
479.85	27.491
480.05	27.788
480.25	27.647
480.45	27.772
480.65	27.718
480.85	28.050
481.05	27.922
481.25	27.747
481.44	27.508
481.64	27.131
481.84	27.387
482.04	27.530
482.24	27.012
482.44	27.098
482.64	27.026
482.84	27.021
483.04	26.798
483.24	26.659
483.44	26.223
483.64	25.847
483.84	25.946
484.04	25.812
484.23	26.092
484.43	26.163
484.63	26.673
484.83	26.920
485.03	27.251
485.23	27.551
485.43	27.446
485.63	27.892
485.83	28.065
486.03	28.164
486.23	28.329
486.42	28.400
486.62	28.176
486.82	27.779
487.02	27.450
487.22	27.185
487.42	27.021
487.62	26.597
487.82	26.718
488.02	26.599
488.22	26.718
488.41	26.719
488.61	26.786
488.81	27.035
489.01	27.068
489.21	27.490
489.41	27.607
489.61	27.471
489.81	27.715
490.01	27.596
490.20	28.269
490.40	28.187
490.60	27.985
490.80	27.761
491.00	27.571
491.20	27.285
491.40	26.548
491.60	26.660
491.79	26.372
491.99	26.669
492.19	26.662
492.39	26.821
492.59	26.871
492.79	26.855
492.99	27.008
493.19	27.527
493.38	27.442
493.58	27.952
493.78	28.288
493.98	28.136
494.18	28.263
494.38	28.450
494.58	28.582
494.77	27.865
494.97	27.923
495.17	27.676
495.37	28.099
495.57	27.859
495.77	27.963
495.96	27.998
496.16	27.708
496.36	27.754
496.56	27.100
496.76	27.499
496.96	27.723
497.15	27.200
497.35	26.910
497.55	27.909
497.75	27.844
497.95	27.424
498.15	26.826
498.34	27.243
498.54	27.127
498.74	27.989
498.94	27.860
499.14	27.815
499.34	27.650
499.53	28.056
499.73	27.819
499.93	27.263
500.13	27.996
500.33	28.118
500.52	28.858
500.72	28.158
500.92	28.036
501.12	28.607
501.32	28.128
501.52	27.950
501.71	28.539
501.91	28.346
502.11	28.530
502.31	28.463
502.51	28.362
502.70	28.288
502.90	28.849
503.10	28.505
503.30	28.286
503.50	28.433
503.69	28.696
503.89	28.754
504.09	28.461
504.29	28.420
504.48	28.367
504.68	28.795
504.88	29.006
505.08	28.732
505.28	28.583
505.47	29.084
505.67	28.524
505.87	29.380
506.07	28.888
506.27	28.750
506.46	28.519
506.66	28.617
506.86	29.256
507.06	28.953
507.25	29.413
507.45	29.256
507.65	28.922
507.85	29.432
508.04	29.130
508.24	29.233
508.44	28.647
508.64	29.047
508.83	29.207
509.03	28.709
509.23	28.544
509.43	28.928
509.63	29.189
509.82	29.482
510.02	29.326
510.22	28.729
510.42	29.171
510.61	29.446
510.81	29.440
511.01	29.164
511.21	29.197
511.40	29.521
511.60	29.221
511.80	29.336
511.99	29.128
512.19	28.830
512.39	29.171
512.59	29.103
512.78	29.621
512.98	28.869
513.18	29.591
513.38	29.916
513.57	29.656
513.77	29.920
513.97	29.266
514.17	29.354
514.36	29.626
514.56	30.041
514.76	30.128
514.95	29.961
515.15	29.811
515.35	30.439
515.55	29.817
515.74	30.244
515.94	30.474
516.14	29.071
516.33	29.953
516.53	30.422
516.73	30.153
516.93	30.555
517.12	29.442
517.32	29.474
517.52	29.801
517.71	29.783
517.91	29.755
518.11	29.324
518.30	29.403
518.50	29.845
518.70	29.362
518.90	29.497
519.09	29.421
519.29	29.376
519.49	30.012
519.68	29.438
519.88	29.528
520.08	29.736
520.27	29.977
520.47	30.153
520.67	29.974
520.86	30.392
521.06	30.399
521.26	30.544
521.45	30.554
521.65	30.720
521.85	30.124
522.04	30.405
522.24	30.723
522.44	30.104
522.63	30.189
522.83	30.501
523.03	30.126
523.22	30.281
523.42	31.085
523.62	30.666
523.81	30.712
524.01	29.934
524.21	30.586
524.40	30.089
524.60	30.785
524.80	30.183
524.99	29.727
525.19	30.520
525.39	29.497
525.58	29.841
525.78	30.241
525.98	29.571
526.17	29.798
526.37	29.989
526.57	29.863
526.76	30.284
526.96	29.749
527.15	30.160
527.35	30.278
527.55	29.977
527.74	30.603
527.94	29.971
528.14	29.461
528.33	29.101
528.53	28.759
528.72	29.151
528.92	29.426
529.12	29.396
529.31	29.654
529.51	29.776
529.71	29.806
529.90	30.042
530.10	30.278
530.29	30.666
530.49	30.811
530.69	31.161
530.88	31.319
531.08	30.989
531.28	31.431
531.47	31.317
531.67	30.785
531.86	30.916
532.06	30.875
532.26	30.919
532.45	30.737
532.65	30.723
532.84	30.294
533.04	29.922
533.24	30.007
533.43	29.820
533.63	30.164
533.82	30.021
534.02	30.500
534.22	30.185
534.41	30.276
534.61	30.409
534.80	30.816
535.00	30.991
535.19	31.653
535.39	31.468
535.59	31.761
535.78	31.350
535.98	30.997
536.17	31.220
536.37	31.122
536.57	30.860
536.76	31.138
536.96	30.763
537.15	30.594
537.35	30.863
537.54	30.653
537.74	31.107
537.93	31.511
538.13	30.788
538.33	31.503
538.52	31.629
538.72	31.694
538.91	32.144
539.11	32.058
539.30	31.758
539.50	32.099
539.70	31.748
539.89	31.704
540.09	32.199
540.28	31.372
540.48	31.605
540.67	30.910
540.87	30.808
541.06	30.142
541.26	30.346
541.45	30.697
541.65	30.170
541.85	30.591
542.04	30.813
542.24	31.087
542.43	31.512
542.63	31.071
542.82	31.322
543.02	31.645
543.21	31.913
543.41	32.330
543.60	32.382
543.80	32.356
543.99	32.107
544.19	32.562
544.38	31.752
544.58	32.400
544.77	31.999
544.97	32.847
545.16	32.192
545.36	32.494
545.56	32.425
545.75	33.024
545.95	32.951
546.14	32.649
546.34	32.245
546.53	32.646
546.73	32.178
546.92	32.851
547.12	32.083
547.31	32.543
547.51	32.380
547.70	32.232
547.90	32.792
548.09	33.200
548.29	33.342
548.48	33.412
548.68	33.492
548.87	33.428
549.07	33.960
549.26	33.635
549.46	33.667
549.65	34.357
549.84	34.065
550.04	34.720
550.23	34.337
550.43	34.162
550.62	34.792
550.82	34.695
551.01	34.240
551.21	34.001
551.40	34.787
551.60	34.345
551.79	34.430
551.99	35.184
552.18	34.263
552.38	34.097
552.57	34.140
552.77	34.795
552.96	34.539
553.16	34.874
553.35	34.274
553.54	34.945
553.74	34.664
553.93	35.378
554.13	35.142
554.32	34.886
554.52	34.887
554.71	34.856
554.91	35.016
555.10	35.406
555.29	35.757
555.49	36.473
555.68	35.946
555.88	35.776
556.07	36.590
556.27	35.940
556.46	35.706
556.66	35.863
556.85	36.266
557.04	36.876
557.24	36.505
557.43	35.901
557.63	37.084
557.82	36.566
558.02	36.259
558.21	36.023
558.40	37.358
558.60	37.465
558.79	37.025
558.99	36.703
559.18	36.754
559.38	36.801
559.57	37.302
559.76	37.507
559.96	38.010
560.15	36.760
560.35	37.506
560.54	37.808
560.73	37.281
560.93	37.017
561.12	37.359
561.32	38.070
561.51	38.019
561.70	37.777
561.90	37.213
562.09	37.497
562.29	37.683
562.48	37.828
562.67	37.779
562.87	38.213
563.06	38.075
563.26	38.356
563.45	38.869
563.64	38.399
563.84	38.314
564.03	38.822
564.23	37.871
564.42	39.198
564.61	38.016
564.81	38.395
565.00	38.806
565.20	38.898
565.39	38.119
565.58	37.464
565.78	38.541
565.97	38.187
566.16	39.458
566.36	38.652
566.55	38.161
566.74	38.141
566.94	38.304
567.13	38.986
567.33	38.848
567.52	38.672
567.71	38.868
567.91	38.646
568.10	39.374
568.29	39.038
568.49	39.284
568.68	40.060
568.87	39.885
569.07	39.971
569.26	39.224
569.45	39.343
569.65	38.944
569.84	39.176
570.04	40.515
570.23	38.813
570.42	39.790
570.62	39.442
570.81	39.612
571.00	39.166
571.20	39.604
571.39	39.006
571.58	39.825
571.78	39.460
571.97	39.469
572.16	39.208
572.36	39.079
572.55	38.997
572.74	39.636
572.94	39.237
573.13	39.807
573.32	39.881
573.51	40.021
573.71	39.283
573.90	39.953
574.09	39.646
574.29	39.995
574.48	40.077
574.67	39.456
574.87	39.979
575.06	39.305
575.25	39.645
575.45	39.783
575.64	40.461
575.83	39.510
576.03	40.414
576.22	39.968
576.41	39.588
576.60	39.627
576.80	39.818
576.99	39.715
577.18	40.796
577.38	40.222
577.57	40.661
577.76	40.270
577.95	40.767
578.15	40.389
578.34	40.858
578.53	40.248
578.73	40.476
578.92	40.082
579.11	40.466
579.30	41.184
579.50	39.985
579.69	40.697
579.88	40.955
580.08	40.645
580.27	41.086
580.46	40.977
580.65	40.362
580.85	40.731
581.04	40.383
581.23	40.494
581.42	40.465
581.62	40.270
581.81	40.639
582.00	41.590
582.19	40.646
582.39	40.970
582.58	40.127
582.77	40.841
582.96	40.614
583.16	41.032
583.35	41.254
583.54	41.017
583.73	40.673
583.93	40.185
584.12	40.493
584.31	40.979
584.50	41.160
584.70	39.647
584.89	41.360
585.08	40.439
585.27	41.066
585.47	40.041
585.66	40.704
585.85	41.056
586.04	40.790
586.24	41.058
586.43	39.656
586.62	40.444
586.81	39.975
587.00	41.038
587.20	39.903
587.39	40.431
587.58	39.790
587.77	40.563
587.97	40.493
588.16	40.752
588.35	40.239
588.54	40.572
588.73	39.118
588.93	40.652
589.12	40.308
589.31	39.357
589.50	39.991
589.69	39.299
589.89	39.623
590.08	39.453
590.27	39.366
590.46	39.697
590.65	39.489
590.85	39.844
591.04	39.546
591.23	39.924
591.42	39.505
591.61	39.635
591.81	39.391
592.00	40.280
592.19	40.020
592.38	39.872
592.57	39.900
592.77	41.011
592.96	40.335
593.15	40.472
593.34	39.641
593.53	40.316
593.72	39.570
593.92	39.361
594.11	40.129
594.30	39.298
594.49	39.954
594.68	39.740
594.87	40.442
595.07	39.778
595.26	39.564
595.45	40.536
595.64	40.407
595.83	40.048
596.02	40.239
596.22	39.881
596.41	39.310
596.60	40.066
596.79	39.424
596.98	39.901
597.17	39.509
597.37	40.376
597.56	38.449
597.75	39.917
597.94	39.937
598.13	40.289
598.32	40.145
598.51	40.068
598.71	40.305
598.90	40.965
599.09	40.288
599.28	40.906
599.47	41.007
599.66	41.118
599.85	40.958
600.05	41.324
600.24	41.045
600.43	40.996
600.62	42.263
600.81	41.531
601.00	42.426
601.19	41.347
601.38	41.613
601.58	41.869
601.77	40.955
601.96	41.718
602.15	41.920
602.34	41.641
602.53	41.684
602.72	41.212
602.91	41.465
603.10	41.466
603.30	41.175
603.49	41.907
603.68	41.831
603.87	40.502
604.06	40.544
604.25	40.744
604.44	40.800
604.63	40.535
604.82	40.342
605.01	40.783
605.21	40.960
605.40	39.861
605.59	40.487
605.78	41.703
605.97	40.763
606.16	40.756
606.35	41.099
606.54	41.685
606.73	41.908
606.92	41.430
607.11	42.252
607.30	41.818
607.50	43.056
607.69	42.205
607.88	41.411
608.07	41.976
608.26	41.609
608.45	42.564
608.64	41.517
608.83	40.735
609.02	41.536
609.21	41.512
609.40	41.182
609.59	40.759
609.78	40.393
609.97	40.618
610.16	40.577
610.35	40.505
610.55	40.881
610.74	40.498
610.93	39.814
611.12	41.244
611.31	40.856
611.50	41.195
611.69	40.333
611.88	40.784
612.07	41.409
612.26	41.374
612.45	40.726
612.64	42.200
612.83	41.695
613.02	41.559
613.21	41.428
613.40	41.215
613.59	42.299
613.78	41.199
613.97	41.385
614.16	41.326
614.35	40.809
614.54	41.762
614.73	42.380
614.92	42.028
615.11	41.399
615.30	40.950
615.49	40.880
615.68	40.074
615.87	40.839
616.07	40.174
616.26	40.702
616.45	40.453
616.64	40.364
616.83	40.741
617.02	40.478
617.21	39.790
617.40	40.516
617.59	40.335
617.78	39.646
617.97	39.768
618.16	39.831
618.35	39.548
618.54	39.666
618.73	39.048
618.92	39.213
619.11	39.277
619.30	39.888
619.49	40.105
619.68	38.918
619.86	40.310
620.05	39.883
620.24	39.286
620.43	39.710
620.62	38.269
620.81	39.466
621.00	39.625
621.19	39.308
621.38	40.310
621.57	38.607
621.76	40.188
621.95	39.659
622.14	39.528
622.33	38.648
622.52	38.901
622.71	38.871
622.90	38.913
623.09	38.360
623.28	38.127
623.47	39.507
623.66	39.418
623.85	38.794
624.04	38.587
624.23	39.193
624.42	38.788
624.61	38.905
624.80	39.220
624.99	37.799
625.18	38.636
625.36	38.517
625.55	38.481
625.74	38.382
625.93	38.793
626.12	38.242
626.31	38.272
626.50	38.268
626.69	38.515
626.88	37.544
627.07	36.949
627.26	37.290
627.45	38.481
627.64	37.708
627.83	37.717
628.02	37.294
628.20	38.619
628.39	38.094
628.58	37.497
628.77	38.709
628.96	38.882
629.15	37.327
629.34	37.189
629.53	39.003
629.72	37.914
629.91	38.725
630.10	37.762
630.29	38.037
630.47	38.750
630.66	37.952
630.85	39.236
631.04	39.489
631.23	39.337
631.42	38.728
631.61	39.459
631.80	38.889
631.99	38.333
632.18	38.801
632.36	39.158
632.55	40.031
632.74	38.425
632.93	37.963
633.12	39.268
633.31	37.369
633.50	37.757
633.69	38.847
633.88	37.402
634.06	37.358
634.25	38.272
634.44	37.811
634.63	37.570
634.82	38.280
635.01	38.507
635.20	37.211
635.39	38.366
635.57	37.770
635.76	38.968
635.95	38.646
636.14	37.437
636.33	37.975
636.52	38.915
636.71	37.622
636.89	37.008
637.08	38.501
637.27	37.191
637.46	36.987
637.65	36.804
637.84	38.208
638.03	37.476
638.21	38.876
638.40	37.579
638.59	38.015
638.78	36.988
638.97	37.927
639.16	37.613
639.34	38.248
639.53	37.278
639.72	37.284
639.91	38.394
640.10	38.033
640.29	37.982
640.47	38.723
640.66	38.619
640.85	38.647
641.04	37.685
641.23	37.765
641.42	37.304
641.60	37.639
641.79	37.175
641.98	37.340
642.17	36.449
642.36	37.093
642.54	37.152
642.73	37.838
642.92	38.449
643.11	38.435
643.30	36.820
643.49	39.010
643.67	37.345
643.86	37.545
644.05	37.650
644.24	38.567
644.43	37.716
644.61	37.906
644.80	37.770
644.99	37.838
645.18	38.436
645.37	37.547
645.55	36.678
645.74	37.949
645.93	38.279
646.12	38.294
646.31	37.591
646.49	37.915
646.68	37.456
646.87	36.732
647.06	37.329
647.24	38.631
647.43	37.684
647.62	38.334
647.81	38.776
648.00	36.947
648.18	37.300
648.37	37.169
648.56	37.476
648.75	37.429
648.93	36.828
649.12	38.133
649.31	38.198
649.50	37.305
649.68	36.832
649.87	36.787
650.06	36.390
650.25	36.843
650.43	37.018
650.62	37.324
650.81	35.767
651.00	37.520
651.18	36.487
651.37	37.291
651.56	36.953
651.75	36.931
651.93	35.836
652.12	37.364
652.31	36.456
652.50	36.783
652.68	36.896
652.87	37.399
653.06	36.087
653.25	36.796
653.43	35.682
653.62	36.232
653.81	35.241
654.00	37.610
654.18	35.512
654.37	36.660
654.56	35.943
654.74	35.331
654.93	37.424
655.12	36.804
655.31	36.344
655.49	36.397
655.68	36.453
655.87	35.976
656.05	34.093
656.24	35.104
656.43	35.047
656.62	34.301
656.80	35.586
656.99	35.537
657.18	35.405
657.36	35.599
657.55	34.395
657.74	33.965
657.93	34.144
658.11	34.146
658.30	34.023
658.49	34.938
658.67	34.094
658.86	32.552
659.05	33.088
659.23	33.023
659.42	32.577
659.61	32.989
659.79	31.988
659.98	33.191
660.17	32.299
660.35	32.408
660.54	33.345
660.73	33.598
660.91	31.954
661.10	32.444
661.29	31.937
661.47	31.295
661.66	30.644
661.85	32.149
662.03	32.125
662.22	30.335
662.41	30.275
662.59	31.292
662.78	29.750
662.97	30.904
663.15	30.386
663.34	30.084
663.53	30.537
663.71	30.242
663.90	28.986
664.09	31.387
664.27	30.477
664.46	30.904
664.65	30.032
664.83	30.086
665.02	28.063
665.21	28.783
665.39	26.045
665.58	30.279
665.77	28.583
665.95	28.549
666.14	26.541
666.32	27.845
666.51	28.717
666.70	26.930
666.88	26.170
667.07	29.268
667.26	26.262
667.44	26.621
667.63	26.562
667.81	26.859
668.00	26.436
668.19	28.586
668.37	26.309
668.56	28.810
668.75	24.751
668.93	27.844
669.12	25.364
669.30	26.426
669.49	26.200
669.68	27.429
669.86	25.704
670.05	26.534
670.23	25.120
670.42	25.338
670.61	27.305
670.79	27.235
670.98	25.211
671.16	27.463
671.35	26.579
671.54	26.949
671.72	25.790
671.91	26.967
672.09	25.422
672.28	27.812
672.46	27.431
672.65	28.042
672.84	25.950
673.02	27.762
673.21	26.546
673.39	27.451
673.58	28.605
673.77	27.538
673.95	25.989
674.14	27.224
674.32	26.130
674.51	29.185
674.69	27.404
674.88	27.806
675.07	26.209
675.25	29.250
675.44	26.380
675.62	27.212
675.81	27.357
675.99	31.148
676.18	26.671
676.36	28.691
676.55	26.665
676.74	29.254
676.92	29.628
677.11	28.830
677.29	27.957
677.48	29.984
677.66	29.131
677.85	29.628
678.03	27.128
678.22	28.862
678.40	29.120
678.59	28.266
678.78	28.830
678.96	29.570
679.15	28.769
679.33	29.007
679.52	29.238
679.70	29.695
679.89	29.761
680.07	29.579
680.26	27.091
680.44	29.316
680.63	28.558
680.81	29.548
681.00	26.980
681.18	30.573
681.37	29.742
681.55	30.793
681.74	31.215
681.92	31.287
682.11	30.708
682.29	30.081
682.48	30.759
682.66	30.322
682.85	29.835
683.03	31.199
683.22	31.238
683.40	32.186
683.59	32.660
683.77	34.103
683.96	30.171
684.14	33.078
684.33	30.533
684.51	33.781
684.70	31.967
684.88	35.356
685.07	32.154
685.25	34.765
685.44	34.661
685.62	34.818
685.81	34.188
685.99	35.724
686.18	33.386
686.36	34.942
686.55	34.587
686.73	35.494
686.92	36.457
687.10	36.488
687.29	37.557
687.47	36.689
687.65	36.647
687.84	37.505
688.02	37.642
688.21	39.114
688.39	36.670
688.58	38.479
688.76	37.163
688.95	39.214
689.13	37.291
689.32	38.070
689.50	38.878
689.68	41.166
689.87	40.126
690.05	40.932
690.24	40.166
690.42	42.985
690.61	42.473
690.79	45.128
690.98	43.207
691.16	42.326
691.34	41.863
691.53	43.585
691.71	41.770
691.90	43.480
692.08	45.310
692.27	45.807
692.45	46.148
692.63	45.389
692.82	45.157
693.00	45.683
693.19	44.535
693.37	46.794
693.56	46.885
693.74	48.961
693.92	47.801
694.11	48.716
694.29	46.740
694.48	49.966
694.66	49.154
694.84	51.679
695.03	48.269
695.21	50.322
695.40	49.327
695.58	49.386
695.76	50.086
695.95	52.141
696.13	51.153
696.32	51.692
696.50	54.093
696.68	52.541
696.87	51.534
697.05	53.234
697.24	52.466
697.42	53.561
697.60	54.953
697.79	52.682
697.97	53.968
698.16	52.419
698.34	51.129
698.52	50.432
698.71	50.944
698.89	51.885
699.07	51.571
699.26	53.274
699.44	51.503
699.63	52.666
699.81	52.419
699.99	53.861
700.18	54.003
700.36	53.424
700.54	53.282
700.73	55.561
700.91	55.836
701.09	55.995
701.28	55.961
701.46	57.808
701.64	56.042
701.83	56.482
702.01	59.462
702.20	59.029
702.38	58.476
702.56	59.199
702.75	59.993
702.93	60.179
703.11	60.242
703.30	60.007
703.48	60.602
703.66	63.307
703.85	60.510
704.03	62.141
704.21	61.954
704.40	63.378
704.58	60.414
704.76	60.823
704.95	63.438
705.13	61.899
705.31	62.371
705.50	63.644
705.68	64.097
705.86	62.515
706.04	62.700
706.23	65.508
706.41	66.835
706.59	62.724
706.78	62.818
706.96	64.262
707.14	63.340
707.33	62.620
707.51	64.221
707.69	64.355
707.88	63.886
708.06	62.730
708.24	67.087
708.42	63.910
708.61	63.721
708.79	64.368
708.97	66.120
709.16	63.187
709.34	65.991
709.52	63.666
709.71	63.940
709.89	63.227
710.07	63.069
710.25	66.075
710.44	67.507
710.62	65.525
710.80	62.833
710.98	65.878
711.17	63.860
711.35	65.630
711.53	64.443
711.72	63.866
711.90	65.493
712.08	64.657
712.26	63.683
712.45	64.716
712.63	65.156
712.81	65.667
712.99	62.664
713.18	64.081
713.36	66.200
713.54	64.225
713.72	64.257
713.91	67.609
714.09	64.562
714.27	67.687
714.45	64.910
714.64	66.536
714.82	65.963
715.00	65.716
715.18	64.072
715.37	63.383
715.55	65.396
715.73	65.726
715.91	64.070
716.10	65.929
716.28	64.274
716.46	63.745
716.64	63.862
716.83	65.555
717.01	64.475
717.19	65.887
717.37	65.195
717.55	63.387
717.74	62.992
717.92	64.958
718.10	63.940
718.28	64.610
718.47	63.152
718.65	65.106
718.83	66.248
719.01	65.709
719.19	64.793
719.38	64.811
719.56	67.956
719.74	63.821
719.92	65.879
720.10	66.590
720.29	66.784
720.47	67.956
720.65	67.158
720.83	66.565
721.01	66.374
721.20	67.114
721.38	69.695
721.56	67.136
721.74	72.499
721.92	73.287
722.11	70.917
722.29	67.556
722.47	70.499
722.65	71.813
722.83	74.891
723.01	67.135
723.20	69.497
723.38	69.917
723.56	66.823
723.74	72.671
723.92	70.793
724.10	69.401
724.29	68.213
724.47	69.803
724.65	68.621
724.83	72.161
725.01	70.395
725.19	67.628
725.38	68.140
725.56	69.899
725.74	70.298
725.92	72.593
726.10	70.441
726.28	70.264
726.46	71.073
726.65	70.082
726.83	69.447
727.01	70.539
727.19	68.579
727.37	70.287
727.55	69.531
727.73	70.142
727.92	70.778
728.10	68.479
728.28	69.584
728.46	70.028
728.64	69.200
728.82	71.862
729.00	66.236
729.19	70.215
729.37	69.236
729.55	70.130
729.73	68.793
729.91	69.481
730.09	67.239
730.27	70.550
730.45	68.613
730.63	69.973
730.82	68.480
731.00	69.072
731.18	68.204
731.36	68.917
731.54	69.437
731.72	69.704
731.90	70.367
732.08	69.461
732.26	70.198
732.45	69.582
732.63	73.286
732.81	68.547
732.99	71.002
733.17	72.649
733.35	68.831
733.53	69.859
733.71	69.525
733.89	71.483
734.07	68.799
734.25	72.963
734.44	69.776
734.62	72.519
734.80	71.439
734.98	75.047
735.16	71.774
735.34	72.605
735.52	74.810
735.70	72.503
735.88	73.539
736.06	73.749
736.24	75.780
736.42	77.351
736.60	72.820
736.78	77.614
736.97	77.228
737.15	74.896
737.33	75.619
737.51	78.037
737.69	78.625
737.87	78.873
738.05	76.225
738.23	79.067
738.41	78.086
738.59	75.794
738.77	77.249
738.95	74.791
739.13	75.091
739.31	75.404
739.49	78.745
739.67	78.571
739.85	75.415
740.03	75.644
740.21	75.608
740.39	75.110
740.57	78.381
740.75	79.066
740.93	71.647
741.11	75.792
741.30	76.950
741.48	81.739
741.66	81.923
741.84	81.126
742.02	75.982
742.20	77.339
742.38	74.287
742.56	82.050
742.74	74.733
742.92	76.867
743.10	78.562
743.28	81.863
743.46	77.754
743.64	81.392
743.82	77.774
744.00	81.040
744.18	77.356
744.36	79.326
744.54	77.332
744.72	81.041
744.90	83.187
745.08	83.116
745.26	78.792
745.44	83.265
745.62	82.175
745.80	80.676
745.98	78.964
746.16	81.408
746.34	81.033
746.52	80.540
746.70	82.663
746.87	84.690
747.05	86.978
747.23	84.241
747.41	85.897
747.59	81.509
747.77	79.812
747.95	82.755
748.13	82.819
748.31	85.107
748.49	82.521
748.67	85.423
748.85	82.505
749.03	83.333
749.21	78.548
749.39	84.815
749.57	80.148
749.75	79.220
749.93	81.659
750.11	79.252
750.29	79.586
750.47	80.897
750.65	81.503
750.83	79.624
751.01	78.105
751.18	82.598
751.36	78.096
751.54	84.935
751.72	80.493
751.90	81.655
752.08	83.190
752.26	81.741
752.44	78.826
752.62	83.706
752.80	79.920
752.98	81.004
753.16	81.346
753.34	79.800
753.52	77.762
753.69	84.420
753.87	83.735
754.05	81.093
754.23	83.872
754.41	81.876
754.59	80.874
754.77	81.447
754.95	82.621
755.13	80.707
755.31	86.298
755.49	82.866
755.66	78.244
755.84	76.698
756.02	77.870
756.20	80.679
756.38	80.304
756.56	83.240
756.74	83.041
756.92	79.663
757.10	82.976
757.28	83.807
757.45	86.958
757.63	84.961
757.81	79.965
757.99	85.976
758.17	84.035
758.35	84.610
758.53	79.785
758.71	77.854
758.88	78.199
759.06	78.488
759.24	75.774
759.42	75.956
759.60	71.732
759.78	74.101
759.96	69.298
760.13	70.707
760.31	64.417
760.49	68.553
760.67	64.027
760.85	64.150
761.03	63.305
761.21	64.216
761.38	62.971
761.56	66.643
761.74	62.939
761.92	66.008
762.10	65.512
762.28	68.247
762.46	67.045
762.63	64.859
762.81	65.903
762.99	65.209
763.17	63.728
763.35	63.991
763.53	62.385
763.70	65.098
763.88	63.719
764.06	64.195
764.24	61.589
764.42	63.006
764.60	66.122
764.77	64.592
764.95	63.525
765.13	65.174
765.31	64.390
765.49	64.076
765.66	64.267
765.84	67.405
766.02	71.174
766.20	72.431
766.38	69.490
766.56	73.092
766.73	71.053
766.91	72.268
767.09	72.503
767.27	74.375
767.45	75.220
767.62	78.429
767.80	75.775
767.98	75.587
768.16	74.606
768.33	79.570
768.51	78.146
768.69	79.353
768.87	81.352
769.05	79.763
769.22	80.584
769.40	84.260
769.58	81.947
769.76	87.031
769.94	83.831
770.11	83.264
770.29	84.014
770.47	83.535
770.65	80.693
770.82	82.980
771.00	85.059
771.18	87.809
771.36	83.228
771.53	84.506
771.71	79.557
771.89	87.365
772.07	82.283
772.25	87.745
772.42	82.932
772.60	88.511
772.78	84.728
772.96	86.843
773.13	85.831
773.31	89.759
773.49	82.988
773.67	80.439
773.84	85.456
774.02	87.185
774.20	80.790
774.37	87.640
774.55	81.864
774.73	90.580
774.91	89.637
775.08	91.821
775.26	95.399
775.44	90.842
775.62	88.798
775.79	88.793
775.97	88.522
776.15	87.261
776.32	81.495
776.50	88.585
776.68	89.452
776.86	90.659
777.03	87.493
777.21	91.079
777.39	84.222
777.56	87.859
777.74	87.366
777.92	88.989
778.10	81.014
778.27	87.989
778.45	87.608
778.63	91.132
778.80	85.714
778.98	90.574
779.16	91.572
779.34	88.519
779.51	90.156
779.69	91.411
779.87	86.241
780.04	91.837
780.22	85.354
780.40	87.104
780.57	85.446
780.75	87.653
780.93	87.089
781.10	83.814
781.28	89.777
781.46	87.485
781.63	92.035
781.81	85.800
781.99	82.182
782.16	81.999
782.34	82.809
782.52	83.628
782.69	94.678
782.87	90.006
783.05	88.044
783.22	84.988
783.40	87.112
783.58	92.562
783.75	93.325
783.93	89.425
784.11	84.979
784.28	93.367
784.46	83.121
784.64	90.476
784.81	84.384
784.99	92.736
785.17	88.342
785.34	82.245
785.52	89.422
785.69	90.127
785.87	84.310
786.05	86.518
786.22	86.671
786.40	97.732
786.58	93.333
786.75	91.550
786.93	93.162
787.11	81.655
787.28	85.459
787.46	99.870
787.63	85.110
787.81	81.684
787.99	83.383
788.16	82.374
788.34	88.267
788.51	83.587
788.69	78.922
788.87	75.707
789.04	81.608
789.22	86.032
789.39	84.083
789.57	79.305
789.75	78.742
789.92	85.580
790.10	79.832
790.27	85.241
790.45	75.356
790.63	83.942
790.80	77.161
790.98	80.237
791.15	83.274
791.33	80.878
791.51	82.313
791.68	82.773
791.86	81.079
792.03	86.976
792.21	77.987
792.39	83.482
792.56	82.451
792.74	88.814
792.91	86.120
793.09	80.759
793.26	76.497
793.44	85.007
793.62	83.691
793.79	92.333
793.97	82.204
794.14	90.813
794.32	82.015
794.49	89.283
794.67	81.831
794.84	81.123
795.02	81.942
795.20	82.804
795.37	80.875
795.55	83.225
795.72	88.995
795.90	87.790
796.07	78.241
796.25	79.885
796.42	84.401
796.60	78.209
796.77	80.987
796.95	86.810
797.13	81.486
797.30	82.071
797.48	80.442
797.65	82.976
797.83	80.359
798.00	78.571
798.18	76.087
798.35	87.693
798.53	80.398
798.70	78.435
798.88	79.430
799.05	83.759
799.23	83.543
799.40	78.799
799.58	80.791
799.75	83.433
799.93	81.638
800.10	84.095
800.28	84.157
800.45	85.587
800.63	75.309
800.80	87.330
800.98	82.927
801.15	80.559
801.33	81.947
801.50	78.495
801.68	83.165
801.85	83.472
802.03	81.176
802.20	88.136
802.38	82.932
802.55	83.816
802.73	77.629
802.90	78.393
803.08	75.192
803.25	84.119
803.43	82.029
803.60	78.859
803.78	81.951
803.95	85.714
804.13	80.848
804.30	82.318
804.48	81.784
804.65	84.492
804.83	80.673
805.00	78.551
805.17	84.153
805.35	84.487
805.52	80.030
805.70	77.678
805.87	86.008
806.05	83.969
806.22	77.786
806.40	81.566
806.57	73.091
806.75	85.590
806.92	88.922
807.09	80.398
807.27	84.921
807.44	81.883
807.62	76.693
807.79	78.427
807.97	77.802
808.14	84.570
808.31	77.493
808.49	86.084
808.66	70.158
808.84	86.592
809.01	86.062
809.19	78.619
809.36	87.188
809.53	80.938
809.71	78.167
809.88	83.403
810.06	89.523
810.23	81.176
810.41	84.673
810.58	82.509
810.75	78.086
810.93	77.957
811.10	83.071
811.28	85.195
811.45	78.063
811.62	78.073
811.80	89.347
811.97	84.275
812.15	84.544
812.32	75.479
812.49	77.070
812.67	84.220
812.84	83.318
813.02	80.069
813.19	77.056
813.36	77.732
813.54	71.250
813.71	75.806
813.89	79.435
814.06	82.222
814.23	79.570
814.41	79.666
814.58	69.884
814.75	75.243
814.93	76.697
815.10	80.751
815.28	74.561
815.45	74.485
815.62	75.097
815.80	66.289
815.97	67.131
816.14	80.961
816.32	71.546
816.49	71.137
816.66	68.587
816.84	69.917
817.01	72.658
817.18	68.393
817.36	66.514
817.53	74.797
817.71	58.377
817.88	75.846
818.05	64.286
818.23	77.016
818.40	64.597
818.57	69.328
818.75	64.182
818.92	71.704
819.09	67.382
819.27	74.214
819.44	77.162
819.61	73.214
819.79	71.600
819.96	71.522
820.13	68.612
820.31	72.512
820.48	69.044
820.65	69.353
820.82	57.322
821.00	67.267
821.17	66.596
821.34	65.211
821.52	59.463
821.69	57.779
821.86	62.605
822.04	58.850
822.21	61.809
822.38	58.974
822.56	58.664
822.73	58.220
822.90	57.787
823.07	57.750
823.25	58.234
823.42	55.044
823.59	57.686
823.77	57.236
823.94	57.602
824.11	57.689
824.29	58.935
824.46	59.973
824.63	59.757
824.80	62.312
824.98	62.198
825.15	61.184
825.32	59.433
825.49	62.509
825.67	61.648
825.84	66.578
826.01	60.739
826.19	63.610
826.36	62.581
826.53	66.600
826.70	62.794
826.88	61.983
827.05	58.995
827.22	63.121
827.39	62.276
827.57	59.371
827.74	61.054
827.91	61.266
828.08	59.784
828.26	60.352
828.43	57.380
828.60	63.731
828.77	57.388
828.95	60.182
829.12	61.834
829.29	57.494
829.46	60.382
829.64	62.887
829.81	59.142
829.98	66.652
830.15	60.309
830.32	64.851
830.50	60.203
830.67	67.634
830.84	58.600
831.01	61.573
831.19	67.314
831.36	63.381
831.53	64.903
831.70	78.210
831.87	64.636
832.05	74.803
832.22	72.650
832.39	67.690
832.56	64.423
832.74	61.404
832.91	57.873
833.08	67.734
833.25	64.626
833.42	62.604
833.60	57.619
833.77	60.704
833.94	58.893
834.11	61.884
834.28	56.025
834.45	65.312
834.63	59.104
834.80	63.545
834.97	56.100
835.14	60.921
835.31	58.272
835.49	57.818
835.66	59.278
835.83	61.360
836.00	60.194
836.17	63.393
836.34	63.091
836.52	62.709
836.69	64.905
836.86	62.237
837.03	64.648
837.20	66.984
837.37	64.855
837.55	61.942
837.72	67.947
837.89	73.282
838.06	72.322
838.23	77.062
838.40	67.964
838.58	67.788
838.75	72.066
838.92	73.107
839.09	90.756
839.26	76.273
839.43	70.784
839.60	88.677
839.78	84.535
839.95	83.531
840.12	75.837
840.29	80.048
840.46	74.253
840.63	80.363
840.80	80.745
840.98	79.335
841.15	73.750
841.32	68.285
841.49	70.535
841.66	79.153
841.83	63.845
842.00	75.748
842.17	76.773
842.34	70.936
842.52	83.375
842.69	88.058
842.86	82.888
843.03	92.503
843.20	77.778
843.37	82.677
843.54	81.522
843.71	86.812
843.88	83.683
844.06	93.925
844.23	104.821
844.40	81.040
844.57	79.667
844.74	110.517
844.91	102.331
845.08	94.709
845.25	103.307
845.42	101.721
845.59	91.042
845.76	94.197
845.94	121.981
846.11	102.979
846.28	117.663
846.45	103.219
846.62	108.380
846.79	109.486
846.96	86.842
847.13	99.808
847.30	105.128
847.47	101.544
847.64	100.211
847.81	117.865
847.98	111.359
848.15	108.877
848.32	112.357
848.50	125.943
848.67	101.085
848.84	138.443
849.01	128.814
849.18	135.227
849.35	122.760
849.52	98.982
849.69	128.148
849.86	125.666
850.03	102.062
850.20	135.463
850.37	119.310
850.54	122.683
850.71	108.757
850.88	98.230
851.05	107.895
851.22	122.277
851.39	112.095
851.56	95.545
851.73	146.307
851.90	108.251
852.07	103.627
852.24	100.913
852.41	97.650
852.58	105.236
852.75	109.112
852.92	85.856
853.09	132.190
853.26	97.857
853.43	111.922
853.60	124.128
853.77	104.914
853.94	98.137
854.11	122.039
854.28	121.483
854.45	86.910
854.62	112.298
854.79	123.204
854.96	92.396
855.13	115.348
855.30	89.498
855.47	128.963
855.64	104.361
855.81	95.122
855.98	120.833
856.15	120.052
856.32	150.842
856.49	115.385
856.66	130.449
856.83	102.676
857.00	98.907
857.17	122.849
857.34	123.670
857.51	109.140
857.68	119.505
857.85	115.759
858.02	121.889
858.19	126.282
858.36	123.678
858.53	120.659
858.70	124.352
858.87	135.494
859.04	86.667
859.21	116.427
859.38	114.149
859.55	120.361
859.72	139.503
859.89	148.883
860.05	100.737
860.22	130.769
860.39	137.805
860.56	124.620
860.73	109.882
860.90	112.226
861.07	139.155
861.24	98.329
861.41	102.949
861.58	102.206
861.75	117.610
861.92	120.290
862.09	119.689
862.26	130.622
862.43	108.986
862.59	137.634
862.76	118.323
862.93	130.270
863.10	101.739
863.27	101.695
863.44	98.104
863.61	127.914
863.78	109.009
863.95	114.660
864.12	108.506
864.29	126.997
864.45	134.687
864.62	107.162
864.79	112.853
864.96	95.400
865.13	114.560
865.30	116.790
865.47	99.785
865.64	116.579
865.81	111.796
865.97	127.760
866.14	93.421
866.31	101.823
866.48	112.593
866.65	82.940
866.82	108.197
866.99	121.493
867.16	105.540
867.33	145.141
867.49	139.592
867.66	94.026
867.83	106.469
868.00	95.062
868.17	102.778
868.34	119.414
868.51	94.243
868.67	104.692
868.84	114.286
869.01	115.806
869.18	120.598
869.35	95.161
869.52	99.443
869.69	124.928
869.85	98.187
870.02	121.141
870.19	132.588
870.36	120.308
870.53	103.756
870.70	115.702
870.86	103.333
871.03	110.326
871.20	111.475
871.37	128.165
871.54	113.793
871.71	95.086
871.87	100.271
872.04	100.815
872.21	111.782
872.38	118.452
872.55	125.070
872.72	83.924
872.88	108.189
873.05	99.127
873.22	155.745
873.39	121.390
873.56	135.072
873.72	89.267
873.89	101.299
874.06	107.331
874.23	91.825
874.40	120.552
874.56	132.335
874.73	93.199
874.90	97.954
875.07	109.764
875.24	96.203
875.40	76.712
875.57	136.517
875.74	105.070
875.91	88.808
876.08	109.254
876.24	133.062
876.41	134.561
876.58	117.857
876.75	105.915
876.92	113.399
877.08	92.982
877.25	93.655
877.42	110.602
877.59	95.252
877.75	132.659
877.92	95.479
878.09	104.439
878.26	97.650
878.42	116.471
878.59	132.361
878.76	84.788
878.93	115.738
879.09	97.662
879.26	74.185
879.43	96.396
879.60	95.443
879.76	77.336
879.93	92.697
880.10	81.504
880.27	83.939
880.43	76.609
880.60	68.444
880.77	61.295
880.94	65.605
881.10	51.819
881.27	53.359
881.44	47.354
881.61	58.904
881.77	57.520
881.94	53.604
882.11	41.137
882.28	46.625
882.44	49.358
882.61	54.950
882.78	49.100
882.94	57.865
883.11	51.860
883.28	53.234
883.45	52.793
883.61	53.563
883.78	49.918
883.95	56.109
884.11	55.736
884.28	53.692
>>>>>End Processed Spectral Data<<<<<
