SpectraSuite Data File
++++++++++++++++++++++++++++++++++++
Date: Wed Sep 25 04:00:15 EST 2019
User: sgrac
Dark Spectrum Present: Yes
Reference Spectrum Present: Yes
Number of Sampled Component Spectra: 1
Spectrometers: USB4E01596
Integration Time (usec): 100000 (USB4E01596)
Spectra Averaged: 3 (USB4E01596)
Boxcar Smoothing: 0 (USB4E01596)
Correct for Electrical Dark: No (USB4E01596)
Strobe/Lamp Enabled: Yes (USB4E01596)
Correct for Detector Non-linearity: No (USB4E01596)
Correct for Stray Light: No (USB4E01596)
Number of Pixels in Processed Spectrum: 3648
>>>>>Begin Processed Spectral Data<<<<<
178.44	-465.385
178.66	-465.385
178.87	-465.385
179.09	-715.625
179.30	906.452
179.52	1443.478
179.74	-947.368
179.95	-607.407
180.17	620.408
180.38	-1321.429
180.60	-2293.333
180.82	-4422.222
181.03	774.419
181.25	-2600.000
181.46	-461.111
181.68	461.538
181.89	-1167.742
182.11	8166.667
182.33	778.846
182.54	-17450.000
182.76	764.706
182.97	1010.526
183.19	1366.667
183.40	745.652
183.62	1260.000
183.84	459.524
184.05	1534.615
184.27	-3218.182
184.48	35300.000
184.70	1433.333
184.91	701.887
185.13	2442.857
185.34	711.864
185.56	465.517
185.78	1788.889
185.99	714.000
186.21	449.398
186.42	1371.429
186.64	-3700.000
186.85	921.951
187.07	-1136.000
187.28	371.875
187.50	-606.977
187.72	1504.762
187.93	1272.973
188.15	2450.000
188.36	704.167
188.58	635.000
188.79	618.750
189.01	614.754
189.22	456.989
189.44	395.283
189.65	-892.683
189.87	1317.857
190.09	383.654
190.30	434.259
190.52	-612.069
190.73	409.639
190.95	-2521.429
191.16	760.870
191.38	719.231
191.59	530.864
191.81	2150.000
192.02	-3683.333
192.24	-3318.182
192.45	535.484
192.67	-7000.000
192.88	379.070
193.10	469.118
193.31	317.213
193.53	-522.581
193.74	2009.091
193.96	-6233.333
194.18	2085.714
194.39	542.373
194.61	1155.556
194.82	397.727
195.04	359.649
195.25	630.000
195.47	-32200.000
195.68	512.308
195.90	470.000
196.11	1890.476
196.33	-400.000
196.54	1417.857
196.76	637.097
196.97	251.235
197.19	318.797
197.40	-508.000
197.62	700.000
197.83	2235.294
198.05	440.000
198.26	818.750
198.48	2394.118
198.69	-974.359
198.91	575.000
199.12	-16950.000
199.34	800.000
199.55	1545.000
199.77	633.333
199.98	1680.952
200.20	584.524
200.41	430.682
200.63	470.732
200.84	737.778
201.06	275.949
201.27	-631.579
201.49	-4871.429
201.70	462.338
201.91	-6042.857
202.13	-2118.750
202.34	-1087.879
202.56	1836.842
202.77	978.947
202.99	838.298
203.20	432.258
203.42	663.158
203.63	595.775
203.85	-2160.000
204.06	1700.000
204.28	-8300.000
204.49	1273.333
204.71	323.656
204.92	588.235
205.14	2375.000
205.35	1131.250
205.56	2207.143
205.78	714.545
205.99	420.732
206.21	1161.538
206.42	623.729
206.64	579.687
206.85	737.209
207.07	-1026.316
207.28	568.116
207.50	908.108
207.71	1037.500
207.93	370.707
208.14	736.000
208.35	800.000
208.57	2473.333
208.78	1468.000
209.00	946.809
209.21	757.778
209.43	410.680
209.64	-3509.091
209.86	782.051
210.07	-1866.667
210.28	407.609
210.50	1721.053
210.71	304.286
210.93	520.513
211.14	478.182
211.36	-3120.000
211.57	554.167
211.78	686.000
212.00	731.915
212.21	951.351
212.43	32300.000
212.64	1144.118
212.86	722.917
213.07	1257.576
213.29	-2586.667
213.50	1064.516
213.71	1600.000
213.93	1722.222
214.14	337.391
214.36	258.861
214.57	704.918
214.78	696.078
215.00	539.706
215.21	2630.769
215.43	370.707
215.64	862.791
215.86	915.152
216.07	906.667
216.28	1404.348
216.50	423.148
216.71	627.586
216.93	1113.158
217.14	352.252
217.35	1311.538
217.57	285.484
217.78	1747.368
218.00	433.721
218.21	1670.000
218.42	11533.333
218.64	359.664
218.85	891.111
219.07	685.246
219.28	339.474
219.49	1148.485
219.71	467.568
219.92	1455.000
220.14	2106.250
220.35	560.606
220.56	200.000
220.78	6620.000
220.99	480.488
221.21	295.763
221.42	802.439
221.63	540.000
221.85	793.478
222.06	324.786
222.28	1060.526
222.49	812.500
222.70	295.413
222.92	485.393
223.13	439.773
223.34	318.898
223.56	378.261
223.77	571.429
223.99	1288.462
224.20	302.098
224.41	242.623
224.63	335.246
224.84	539.437
225.05	382.418
225.27	427.273
225.48	345.283
225.69	194.643
225.91	813.462
226.12	313.433
226.34	313.793
226.55	285.217
226.76	196.000
226.98	193.644
227.19	214.943
227.40	161.261
227.62	125.506
227.83	140.569
228.04	130.375
228.26	91.729
228.47	90.537
228.69	100.251
228.90	75.831
229.11	66.990
229.33	65.008
229.54	43.707
229.75	52.781
229.97	49.944
230.18	44.280
230.39	41.310
230.61	38.865
230.82	47.897
231.03	39.256
231.25	46.681
231.46	39.368
231.67	50.859
231.89	41.160
232.10	51.926
232.31	59.934
232.53	67.540
232.74	60.841
232.95	79.113
233.17	76.311
233.38	54.887
233.59	80.624
233.81	70.020
234.02	69.455
234.23	66.732
234.45	76.224
234.66	64.355
234.87	80.379
235.09	53.870
235.30	56.620
235.51	65.665
235.73	65.898
235.94	66.464
236.15	59.738
236.36	58.319
236.58	47.731
236.79	59.844
237.00	66.406
237.22	65.257
237.43	47.731
237.64	43.653
237.86	63.914
238.07	65.602
238.28	56.866
238.50	41.240
238.71	55.848
238.92	58.370
239.13	60.248
239.35	56.361
239.56	44.936
239.77	63.811
239.99	53.451
240.20	61.925
240.41	50.820
240.63	50.533
240.84	55.895
241.05	38.329
241.26	37.463
241.48	33.805
241.69	30.129
241.90	29.836
242.12	24.966
242.33	25.271
242.54	22.588
242.75	23.802
242.97	25.484
243.18	18.076
243.39	20.423
243.61	17.129
243.82	18.347
244.03	17.480
244.24	17.621
244.46	19.466
244.67	20.951
244.88	18.408
245.09	19.989
245.31	24.874
245.52	21.167
245.73	27.230
245.95	41.514
246.16	19.803
246.37	20.387
246.58	20.091
246.80	21.526
247.01	15.878
247.22	13.653
247.43	12.472
247.65	12.698
247.86	12.380
248.07	10.546
248.28	11.396
248.50	11.126
248.71	10.773
248.92	9.123
249.13	11.932
249.35	11.083
249.56	11.448
249.77	12.896
249.98	12.724
250.20	16.274
250.41	15.214
250.62	16.605
250.83	20.652
251.05	19.809
251.26	18.268
251.47	20.096
251.68	25.360
251.90	19.211
252.11	22.496
252.32	21.988
252.53	22.785
252.75	19.006
252.96	20.486
253.17	16.200
253.38	17.096
253.59	19.668
253.81	17.831
254.02	17.544
254.23	18.948
254.44	19.832
254.66	19.061
254.87	24.887
255.08	21.807
255.29	27.600
255.50	29.444
255.72	24.511
255.93	31.429
256.14	26.920
256.35	24.191
256.57	26.443
256.78	25.104
256.99	27.225
257.20	28.436
257.41	23.475
257.63	27.255
257.84	20.629
258.05	23.500
258.26	19.330
258.47	23.393
258.69	17.322
258.90	18.410
259.11	18.477
259.32	14.128
259.53	13.985
259.75	12.767
259.96	10.898
260.17	8.818
260.38	11.250
260.59	8.932
260.81	5.377
261.02	7.376
261.23	8.530
261.44	10.059
261.65	8.440
261.87	7.074
262.08	9.921
262.29	11.014
262.50	10.616
262.71	9.427
262.92	12.211
263.14	9.830
263.35	12.348
263.56	15.042
263.77	16.143
263.98	14.298
264.20	15.464
264.41	16.025
264.62	13.577
264.83	16.935
265.04	19.377
265.25	14.114
265.47	20.756
265.68	17.862
265.89	17.832
266.10	17.512
266.31	18.253
266.52	16.451
266.74	19.762
266.95	16.141
267.16	15.485
267.37	15.923
267.58	13.146
267.79	13.716
268.01	13.301
268.22	13.192
268.43	14.384
268.64	15.981
268.85	11.967
269.06	10.710
269.27	16.107
269.49	12.512
269.70	14.217
269.91	10.324
270.12	12.833
270.33	14.832
270.54	13.175
270.75	13.413
270.97	14.163
271.18	13.124
271.39	12.936
271.60	13.169
271.81	11.761
272.02	9.773
272.23	12.206
272.45	11.530
272.66	9.141
272.87	11.018
273.08	9.399
273.29	10.710
273.50	8.757
273.71	8.963
273.92	10.026
274.14	10.767
274.35	11.235
274.56	10.566
274.77	8.626
274.98	12.163
275.19	10.376
275.40	12.032
275.61	12.163
275.83	15.607
276.04	12.533
276.25	11.964
276.46	11.967
276.67	13.572
276.88	11.447
277.09	12.423
277.30	11.875
277.51	13.319
277.73	11.937
277.94	10.078
278.15	13.423
278.36	14.163
278.57	13.270
278.78	11.976
278.99	12.111
279.20	12.810
279.41	15.007
279.62	11.065
279.84	11.054
280.05	10.638
280.26	12.221
280.47	13.019
280.68	13.292
280.89	11.861
281.10	10.943
281.31	12.864
281.52	10.979
281.73	8.508
281.94	9.538
282.16	11.006
282.37	10.207
282.58	9.360
282.79	11.955
283.00	11.058
283.21	10.146
283.42	9.155
283.63	9.945
283.84	9.757
284.05	8.271
284.26	9.596
284.47	9.387
284.68	9.245
284.89	9.305
285.11	10.067
285.32	8.036
285.53	8.547
285.74	8.691
285.95	8.722
286.16	8.713
286.37	8.593
286.58	9.572
286.79	8.924
287.00	8.817
287.21	8.020
287.42	7.348
287.63	7.405
287.84	6.371
288.05	8.019
288.26	9.758
288.48	7.652
288.69	9.266
288.90	10.421
289.11	11.207
289.32	10.312
289.53	8.247
289.74	5.776
289.95	6.796
290.16	10.357
290.37	7.949
290.58	9.113
290.79	8.639
291.00	7.757
291.21	7.806
291.42	7.881
291.63	7.114
291.84	8.198
292.05	7.432
292.26	8.118
292.47	8.185
292.68	8.846
292.89	10.807
293.10	8.532
293.31	8.415
293.52	10.632
293.73	8.179
293.94	9.963
294.15	9.030
294.36	9.741
294.57	10.231
294.79	8.631
295.00	9.294
295.21	10.763
295.42	8.389
295.63	9.886
295.84	7.356
296.05	7.023
296.26	8.806
296.47	7.269
296.68	7.178
296.89	9.772
297.10	7.377
297.31	7.429
297.52	6.270
297.73	6.056
297.94	4.842
298.15	6.527
298.36	6.584
298.57	5.024
298.78	6.147
298.99	5.974
299.20	6.615
299.41	6.747
299.62	6.368
299.83	5.817
300.04	7.559
300.25	7.473
300.46	7.581
300.67	7.781
300.88	7.986
301.09	8.270
301.30	8.269
301.50	8.059
301.71	9.961
301.92	9.800
302.13	7.858
302.34	9.095
302.55	6.955
302.76	6.904
302.97	7.029
303.18	10.618
303.39	8.926
303.60	8.152
303.81	8.532
304.02	7.735
304.23	8.614
304.44	8.473
304.65	9.228
304.86	7.815
305.07	7.979
305.28	8.085
305.49	8.131
305.70	9.547
305.91	5.815
306.12	10.294
306.33	8.076
306.54	8.353
306.75	9.664
306.96	10.693
307.17	8.537
307.38	9.814
307.58	7.503
307.79	8.412
308.00	9.801
308.21	9.755
308.42	8.042
308.63	9.010
308.84	7.408
309.05	7.074
309.26	6.353
309.47	7.065
309.68	8.464
309.89	8.447
310.10	5.618
310.31	6.363
310.52	7.386
310.73	7.839
310.94	6.969
311.14	6.892
311.35	7.166
311.56	7.121
311.77	7.293
311.98	6.478
312.19	5.600
312.40	6.502
312.61	5.509
312.82	6.840
313.03	6.279
313.24	8.223
313.45	7.710
313.66	6.815
313.86	8.913
314.07	6.945
314.28	8.853
314.49	6.444
314.70	8.092
314.91	9.546
315.12	8.277
315.33	8.789
315.54	7.864
315.75	7.647
315.96	8.589
316.16	9.638
316.37	8.049
316.58	8.027
316.79	8.322
317.00	8.720
317.21	9.022
317.42	8.709
317.63	9.078
317.84	8.022
318.05	10.237
318.25	11.488
318.46	8.144
318.67	9.339
318.88	9.051
319.09	9.631
319.30	7.931
319.51	8.575
319.72	9.475
319.93	6.830
320.13	7.701
320.34	8.869
320.55	8.737
320.76	8.432
320.97	8.899
321.18	10.355
321.39	7.327
321.60	8.594
321.80	10.442
322.01	10.599
322.22	9.220
322.43	8.021
322.64	8.766
322.85	9.044
323.06	8.126
323.27	7.320
323.47	9.264
323.68	9.044
323.89	7.116
324.10	8.147
324.31	7.997
324.52	8.481
324.73	6.254
324.93	6.468
325.14	9.697
325.35	7.521
325.56	8.462
325.77	7.844
325.98	5.907
326.19	7.782
326.39	6.338
326.60	7.470
326.81	5.809
327.02	6.805
327.23	6.944
327.44	8.814
327.64	5.621
327.85	7.159
328.06	7.077
328.27	8.225
328.48	7.124
328.69	6.117
328.90	7.301
329.10	8.704
329.31	8.542
329.52	7.583
329.73	8.056
329.94	9.245
330.15	9.247
330.35	9.466
330.56	9.307
330.77	8.423
330.98	8.812
331.19	7.095
331.39	9.322
331.60	8.575
331.81	8.600
332.02	7.137
332.23	8.053
332.44	6.306
332.64	6.218
332.85	7.131
333.06	8.176
333.27	5.604
333.48	8.041
333.68	7.257
333.89	5.681
334.10	8.697
334.31	6.566
334.52	7.424
334.72	8.456
334.93	5.733
335.14	6.588
335.35	8.487
335.56	7.903
335.76	7.139
335.97	8.043
336.18	7.004
336.39	7.184
336.60	7.067
336.80	6.024
337.01	6.500
337.22	6.753
337.43	6.387
337.64	8.293
337.84	7.175
338.05	8.670
338.26	8.798
338.47	6.845
338.68	5.789
338.88	7.038
339.09	6.268
339.30	7.460
339.51	8.044
339.71	7.804
339.92	6.286
340.13	5.249
340.34	7.480
340.55	7.506
340.75	7.701
340.96	5.165
341.17	8.135
341.38	6.513
341.58	7.224
341.79	6.982
342.00	6.687
342.21	7.122
342.41	6.299
342.62	5.878
342.83	7.956
343.04	5.579
343.24	6.430
343.45	7.810
343.66	6.865
343.87	6.775
344.07	6.217
344.28	6.640
344.49	6.115
344.70	7.784
344.90	5.839
345.11	5.443
345.32	6.383
345.53	7.677
345.73	6.740
345.94	6.435
346.15	6.015
346.36	5.425
346.56	6.865
346.77	6.818
346.98	6.715
347.19	6.711
347.39	4.804
347.60	5.861
347.81	6.272
348.02	6.613
348.22	5.647
348.43	5.973
348.64	6.415
348.84	5.795
349.05	7.020
349.26	6.681
349.47	6.962
349.67	5.493
349.88	7.174
350.09	7.031
350.30	6.801
350.50	5.175
350.71	6.816
350.92	6.704
351.12	6.151
351.33	6.798
351.54	7.148
351.74	6.394
351.95	5.616
352.16	5.319
352.37	7.857
352.57	5.715
352.78	6.431
352.99	6.212
353.19	6.435
353.40	6.822
353.61	7.243
353.82	6.453
354.02	6.616
354.23	6.151
354.44	8.022
354.64	6.168
354.85	6.913
355.06	5.405
355.26	5.453
355.47	4.854
355.68	6.655
355.88	6.615
356.09	6.081
356.30	4.336
356.51	6.364
356.71	6.409
356.92	4.857
357.13	6.253
357.33	5.477
357.54	5.246
357.75	4.996
357.95	5.672
358.16	5.697
358.37	6.551
358.57	5.809
358.78	6.375
358.99	6.237
359.19	5.374
359.40	5.175
359.61	5.065
359.81	6.996
360.02	6.108
360.23	5.463
360.43	4.343
360.64	4.585
360.85	3.961
361.05	5.414
361.26	6.516
361.47	5.045
361.67	4.522
361.88	4.830
362.09	4.709
362.29	3.794
362.50	3.939
362.70	4.224
362.91	4.084
363.12	4.506
363.32	3.575
363.53	4.941
363.74	4.355
363.94	4.402
364.15	4.777
364.36	5.205
364.56	4.744
364.77	4.701
364.98	5.497
365.18	5.468
365.39	5.681
365.59	4.425
365.80	4.596
366.01	5.083
366.21	5.113
366.42	4.811
366.63	5.167
366.83	5.225
367.04	3.423
367.24	6.148
367.45	4.551
367.66	5.203
367.86	4.291
368.07	5.458
368.28	4.485
368.48	5.642
368.69	3.703
368.89	5.441
369.10	4.825
369.31	5.652
369.51	5.524
369.72	6.013
369.92	6.270
370.13	5.542
370.34	4.990
370.54	5.130
370.75	5.405
370.95	4.921
371.16	4.836
371.37	5.048
371.57	4.210
371.78	4.829
371.98	4.743
372.19	5.652
372.40	4.786
372.60	5.333
372.81	5.079
373.01	4.309
373.22	4.640
373.43	5.524
373.63	4.865
373.84	4.792
374.04	4.947
374.25	4.419
374.46	5.430
374.66	5.713
374.87	6.262
375.07	4.990
375.28	4.381
375.48	5.560
375.69	5.704
375.90	4.167
376.10	4.425
376.31	4.879
376.51	3.769
376.72	4.168
376.92	4.395
377.13	5.434
377.34	4.721
377.54	5.072
377.75	5.256
377.95	5.096
378.16	5.347
378.36	4.216
378.57	4.281
378.77	4.068
378.98	3.876
379.19	4.641
379.39	4.036
379.60	4.955
379.80	4.710
380.01	4.715
380.21	5.025
380.42	5.484
380.62	4.796
380.83	5.247
381.04	4.392
381.24	5.408
381.45	4.755
381.65	5.693
381.86	5.301
382.06	5.962
382.27	4.908
382.47	4.886
382.68	5.039
382.88	5.139
383.09	4.477
383.29	5.008
383.50	6.138
383.71	4.905
383.91	5.184
384.12	5.009
384.32	6.333
384.53	5.168
384.73	4.456
384.94	4.504
385.14	4.429
385.35	4.421
385.55	5.630
385.76	5.183
385.96	5.081
386.17	6.053
386.37	6.043
386.58	5.748
386.78	6.877
386.99	5.023
387.19	6.757
387.40	5.313
387.60	7.127
387.81	6.108
388.01	5.852
388.22	6.801
388.42	7.741
388.63	7.265
388.83	7.639
389.04	5.481
389.24	7.096
389.45	6.248
389.65	6.527
389.86	7.164
390.06	6.152
390.27	7.087
390.47	6.988
390.68	7.258
390.88	8.923
391.09	8.675
391.29	9.382
391.50	8.202
391.70	8.009
391.91	8.296
392.11	8.771
392.32	9.203
392.52	9.472
392.73	9.234
392.93	9.925
393.14	9.362
393.34	9.889
393.55	10.277
393.75	10.203
393.95	8.938
394.16	10.303
394.36	10.893
394.57	11.083
394.77	11.055
394.98	10.959
395.18	11.086
395.39	11.186
395.59	10.148
395.80	11.070
396.00	10.696
396.21	12.500
396.41	10.870
396.61	12.200
396.82	12.498
397.02	13.557
397.23	11.974
397.43	12.278
397.64	11.250
397.84	14.172
398.05	11.065
398.25	13.692
398.45	12.541
398.66	13.795
398.86	12.375
399.07	14.115
399.27	12.016
399.48	13.790
399.68	13.672
399.89	13.105
400.09	14.352
400.29	13.628
400.50	13.737
400.70	13.802
400.91	13.665
401.11	14.432
401.32	13.381
401.52	13.674
401.72	12.809
401.93	15.404
402.13	13.704
402.34	14.025
402.54	12.971
402.75	15.829
402.95	13.038
403.15	14.588
403.36	12.796
403.56	14.499
403.77	13.556
403.97	14.104
404.17	12.869
404.38	14.571
404.58	13.302
404.79	14.978
404.99	13.978
405.19	14.182
405.40	13.801
405.60	14.552
405.81	13.549
406.01	14.836
406.21	14.497
406.42	14.643
406.62	14.380
406.83	15.029
407.03	15.024
407.23	14.517
407.44	13.626
407.64	14.677
407.85	14.039
408.05	14.798
408.25	13.676
408.46	14.962
408.66	14.908
408.87	14.559
409.07	13.777
409.27	12.907
409.48	13.055
409.68	14.106
409.88	12.796
410.09	13.868
410.29	13.858
410.50	15.298
410.70	12.582
410.90	13.866
411.11	12.533
411.31	13.919
411.51	13.454
411.72	13.495
411.92	12.574
412.12	13.629
412.33	12.942
412.53	13.001
412.74	12.591
412.94	13.525
413.14	12.817
413.35	13.553
413.55	12.686
413.75	13.556
413.96	12.077
414.16	13.134
414.36	11.810
414.57	13.003
414.77	11.165
414.97	13.210
415.18	12.612
415.38	13.213
415.58	12.587
415.79	12.194
415.99	12.016
416.19	12.449
416.40	11.879
416.60	12.026
416.80	11.917
417.01	12.218
417.21	11.190
417.41	12.567
417.62	12.285
417.82	12.552
418.02	11.438
418.23	12.274
418.43	11.860
418.63	11.995
418.84	12.327
419.04	11.731
419.24	12.006
419.45	12.139
419.65	12.346
419.85	12.251
420.06	12.286
420.26	12.032
420.46	12.224
420.67	12.646
420.87	11.911
421.07	12.351
421.28	12.047
421.48	12.053
421.68	12.248
421.88	12.488
422.09	11.933
422.29	12.576
422.49	11.617
422.70	12.398
422.90	12.399
423.10	12.289
423.31	12.130
423.51	12.497
423.71	11.430
423.91	12.161
424.12	12.286
424.32	12.276
424.52	11.818
424.73	11.868
424.93	11.863
425.13	11.967
425.33	11.488
425.54	11.869
425.74	12.100
425.94	12.418
426.15	12.393
426.35	12.191
426.55	12.249
426.75	12.683
426.96	12.498
427.16	12.401
427.36	12.583
427.57	12.580
427.77	11.819
427.97	12.259
428.17	12.055
428.38	12.356
428.58	11.139
428.78	12.446
428.98	11.799
429.19	11.858
429.39	11.644
429.59	12.349
429.79	11.346
430.00	11.351
430.20	11.001
430.40	12.080
430.60	11.309
430.81	12.047
431.01	11.884
431.21	12.485
431.41	11.744
431.62	12.409
431.82	11.883
432.02	13.025
432.22	11.543
432.43	11.559
432.63	11.855
432.83	12.674
433.03	12.240
433.24	12.163
433.44	12.052
433.64	12.937
433.84	12.462
434.05	12.932
434.25	12.617
434.45	12.961
434.65	12.850
434.85	13.024
435.06	12.987
435.26	12.893
435.46	13.076
435.66	13.742
435.87	13.191
436.07	13.391
436.27	13.567
436.47	13.346
436.67	12.909
436.88	14.069
437.08	13.292
437.28	13.864
437.48	13.328
437.69	13.882
437.89	13.008
438.09	13.919
438.29	13.239
438.49	14.446
438.70	13.930
438.90	13.696
439.10	13.611
439.30	13.965
439.50	13.337
439.71	14.187
439.91	13.763
440.11	14.639
440.31	14.286
440.51	14.095
440.72	13.625
440.92	14.504
441.12	14.647
441.32	14.526
441.52	14.605
441.72	14.948
441.93	14.754
442.13	14.885
442.33	14.644
442.53	14.624
442.73	14.721
442.94	15.245
443.14	14.995
443.34	15.256
443.54	15.176
443.74	15.437
443.94	14.888
444.15	15.261
444.35	14.858
444.55	15.049
444.75	14.806
444.95	14.966
445.15	14.838
445.36	15.124
445.56	14.774
445.76	15.077
445.96	14.803
446.16	15.188
446.36	15.157
446.57	15.327
446.77	14.780
446.97	15.169
447.17	15.435
447.37	15.240
447.57	15.655
447.77	15.677
447.98	15.413
448.18	15.670
448.38	15.372
448.58	15.936
448.78	15.837
448.98	16.075
449.18	16.180
449.39	16.048
449.59	15.924
449.79	16.348
449.99	16.192
450.19	16.631
450.39	16.005
450.59	16.096
450.79	16.084
451.00	16.261
451.20	17.050
451.40	15.946
451.60	15.850
451.80	16.112
452.00	15.880
452.20	16.219
452.40	16.054
452.61	16.068
452.81	15.867
453.01	16.240
453.21	15.860
453.41	16.517
453.61	16.057
453.81	15.995
454.01	16.074
454.21	16.644
454.42	16.441
454.62	16.570
454.82	16.061
455.02	16.516
455.22	16.325
455.42	16.621
455.62	16.656
455.82	16.288
456.02	15.891
456.23	16.662
456.43	16.502
456.63	16.541
456.83	15.960
457.03	16.081
457.23	15.901
457.43	16.522
457.63	15.938
457.83	16.262
458.03	15.647
458.23	16.242
458.43	16.119
458.64	16.350
458.84	15.503
459.04	16.360
459.24	15.793
459.44	16.078
459.64	15.512
459.84	15.789
460.04	15.420
460.24	16.042
460.44	16.008
460.64	16.307
460.84	16.048
461.04	16.262
461.24	16.367
461.45	16.316
461.65	16.873
461.85	16.570
462.05	16.719
462.25	16.466
462.45	16.980
462.65	17.006
462.85	16.629
463.05	17.106
463.25	16.439
463.45	16.647
463.65	16.294
463.85	16.752
464.05	16.297
464.25	16.514
464.45	16.295
464.65	16.171
464.85	16.231
465.05	16.490
465.26	16.340
465.46	16.427
465.66	16.137
465.86	16.639
466.06	16.367
466.26	16.351
466.46	16.005
466.66	16.300
466.86	16.376
467.06	16.271
467.26	16.031
467.46	16.621
467.66	16.122
467.86	16.278
468.06	16.672
468.26	16.788
468.46	16.479
468.66	16.731
468.86	16.559
469.06	16.821
469.26	16.180
469.46	16.428
469.66	16.710
469.86	16.654
470.06	16.144
470.26	16.681
470.46	15.986
470.66	16.672
470.86	16.284
471.06	16.589
471.26	16.191
471.46	16.671
471.66	16.665
471.86	16.659
472.06	16.766
472.26	17.182
472.46	17.368
472.66	16.675
472.86	16.313
473.06	16.834
473.26	17.147
473.46	16.612
473.66	16.793
473.86	16.615
474.06	16.276
474.26	16.737
474.46	16.373
474.66	17.309
474.86	16.669
475.06	16.979
475.26	16.812
475.46	16.980
475.66	16.705
475.86	16.940
476.06	17.417
476.26	16.893
476.46	16.240
476.66	16.816
476.86	16.749
477.06	16.957
477.26	16.724
477.46	17.134
477.65	16.796
477.85	17.590
478.05	16.920
478.25	17.338
478.45	16.886
478.65	17.292
478.85	17.189
479.05	17.534
479.25	16.697
479.45	17.176
479.65	16.695
479.85	17.435
480.05	17.066
480.25	17.504
480.45	17.196
480.65	17.512
480.85	17.350
481.05	17.330
481.25	17.067
481.44	17.141
481.64	17.178
481.84	17.351
482.04	16.973
482.24	17.242
482.44	16.987
482.64	16.796
482.84	16.902
483.04	16.822
483.24	16.572
483.44	16.124
483.64	16.006
483.84	15.900
484.04	16.247
484.23	16.737
484.43	17.101
484.63	17.434
484.83	18.108
485.03	18.810
485.23	18.430
485.43	18.406
485.63	18.140
485.83	18.333
486.03	18.560
486.23	18.509
486.42	18.123
486.62	18.016
486.82	17.740
487.02	17.472
487.22	17.388
487.42	17.201
487.62	17.072
487.82	17.105
488.02	17.162
488.22	17.400
488.41	17.481
488.61	17.581
488.81	17.750
489.01	17.886
489.21	18.058
489.41	18.113
489.61	18.300
489.81	18.216
490.01	18.153
490.20	18.239
490.40	18.550
490.60	18.348
490.80	17.752
491.00	17.764
491.20	17.480
491.40	17.315
491.60	17.029
491.79	17.372
491.99	17.365
492.19	17.458
492.39	17.707
492.59	17.681
492.79	17.648
492.99	18.085
493.19	18.361
493.38	18.363
493.58	18.808
493.78	18.651
493.98	18.823
494.18	18.561
494.38	18.889
494.58	18.734
494.77	18.717
494.97	18.658
495.17	18.721
495.37	18.437
495.57	18.345
495.77	18.104
495.96	18.194
496.16	18.534
496.36	18.325
496.56	17.899
496.76	18.138
496.96	18.241
497.15	18.051
497.35	18.269
497.55	17.819
497.75	18.141
497.95	18.307
498.15	18.463
498.34	18.484
498.54	18.464
498.74	18.936
498.94	18.488
499.14	18.404
499.34	18.626
499.53	18.615
499.73	18.576
499.93	18.981
500.13	18.258
500.33	18.518
500.52	18.730
500.72	18.508
500.92	18.805
501.12	19.041
501.32	19.133
501.52	19.134
501.71	19.471
501.91	19.075
502.11	19.001
502.31	19.569
502.51	19.434
502.70	19.217
502.90	19.095
503.10	19.586
503.30	19.011
503.50	19.457
503.69	19.445
503.89	19.239
504.09	19.273
504.29	19.242
504.48	19.286
504.68	19.104
504.88	19.167
505.08	19.460
505.28	19.331
505.47	19.460
505.67	19.627
505.87	19.781
506.07	19.430
506.27	19.472
506.46	20.147
506.66	19.730
506.86	19.774
507.06	20.047
507.25	19.739
507.45	20.056
507.65	19.947
507.85	19.795
508.04	20.175
508.24	20.235
508.44	19.813
508.64	19.610
508.83	19.801
509.03	19.919
509.23	19.611
509.43	19.831
509.63	19.876
509.82	20.069
510.02	19.699
510.22	20.446
510.42	20.258
510.61	20.448
510.81	19.864
511.01	20.431
511.21	20.606
511.40	20.118
511.60	20.424
511.80	20.632
511.99	20.700
512.19	20.236
512.39	20.617
512.59	20.465
512.78	20.813
512.98	20.208
513.18	20.902
513.38	20.940
513.57	20.735
513.77	20.783
513.97	21.009
514.17	21.059
514.36	20.780
514.56	20.989
514.76	21.394
514.95	21.099
515.15	20.754
515.35	20.914
515.55	21.043
515.74	21.418
515.94	21.124
516.14	21.511
516.33	21.260
516.53	21.605
516.73	21.116
516.93	20.980
517.12	21.035
517.32	20.959
517.52	21.025
517.71	20.972
517.91	20.764
518.11	21.085
518.30	20.600
518.50	20.487
518.70	20.454
518.90	21.069
519.09	20.578
519.29	20.885
519.49	21.077
519.68	20.884
519.88	21.124
520.08	21.599
520.27	21.278
520.47	21.497
520.67	21.471
520.86	21.625
521.06	21.615
521.26	21.739
521.45	21.721
521.65	21.694
521.85	21.525
522.04	21.686
522.24	21.325
522.44	21.672
522.63	22.026
522.83	21.451
523.03	21.956
523.22	21.721
523.42	21.748
523.62	21.675
523.81	21.608
524.01	21.578
524.21	21.560
524.40	21.084
524.60	21.817
524.80	21.246
524.99	21.145
525.19	20.778
525.39	20.679
525.58	20.788
525.78	20.764
525.98	21.118
526.17	20.618
526.37	20.895
526.57	21.175
526.76	21.212
526.96	21.161
527.15	21.078
527.35	20.947
527.55	21.012
527.74	21.502
527.94	21.211
528.14	20.716
528.33	20.227
528.53	20.125
528.72	20.763
528.92	20.548
529.12	20.904
529.31	21.120
529.51	21.313
529.71	21.449
529.90	21.570
530.10	21.816
530.29	22.055
530.49	22.272
530.69	22.475
530.88	22.427
531.08	22.085
531.28	21.721
531.47	21.909
531.67	21.656
531.86	21.643
532.06	21.613
532.26	21.793
532.45	21.628
532.65	21.164
532.84	21.145
533.04	20.819
533.24	20.836
533.43	21.041
533.63	21.468
533.82	21.194
534.02	21.515
534.22	21.467
534.41	21.726
534.61	22.005
534.80	21.901
535.00	22.025
535.19	22.192
535.39	22.374
535.59	22.367
535.78	22.498
535.98	22.051
536.17	22.323
536.37	21.539
536.57	21.551
536.76	21.868
536.96	21.807
537.15	21.915
537.35	21.958
537.54	22.355
537.74	22.195
537.93	21.822
538.13	21.792
538.33	22.387
538.52	22.532
538.72	22.597
538.91	23.097
539.11	22.506
539.30	23.118
539.50	22.533
539.70	22.662
539.89	22.658
540.09	22.145
540.28	22.227
540.48	22.033
540.67	21.791
540.87	21.525
541.06	21.202
541.26	21.241
541.45	21.645
541.65	21.727
541.85	22.071
542.04	21.858
542.24	22.179
542.43	22.361
542.63	22.665
542.82	22.492
543.02	22.904
543.21	22.838
543.41	23.320
543.60	23.551
543.80	23.328
543.99	23.131
544.19	23.085
544.38	23.139
544.58	23.183
544.77	23.097
544.97	23.212
545.16	23.258
545.36	23.277
545.56	23.269
545.75	23.145
545.95	23.258
546.14	22.869
546.34	23.083
546.53	22.960
546.73	22.945
546.92	23.301
547.12	23.033
547.31	23.455
547.51	23.240
547.70	23.468
547.90	23.754
548.09	23.390
548.29	23.816
548.48	23.528
548.68	23.792
548.87	24.344
549.07	24.276
549.26	23.988
549.46	24.206
549.65	24.808
549.84	24.610
550.04	24.838
550.23	24.169
550.43	24.661
550.62	24.411
550.82	24.392
551.01	24.940
551.21	24.443
551.40	24.892
551.60	24.839
551.79	24.482
551.99	24.802
552.18	24.443
552.38	24.362
552.57	24.902
552.77	24.682
552.96	24.799
553.16	24.731
553.35	25.008
553.54	25.115
553.74	25.116
553.93	24.869
554.13	25.992
554.32	25.139
554.52	25.968
554.71	25.720
554.91	25.807
555.10	25.609
555.29	25.871
555.49	25.687
555.68	26.014
555.88	25.791
556.07	25.692
556.27	26.313
556.46	26.146
556.66	26.184
556.85	25.742
557.04	26.139
557.24	26.803
557.43	26.831
557.63	26.824
557.82	26.076
558.02	26.327
558.21	26.672
558.40	26.339
558.60	26.840
558.79	27.015
558.99	26.786
559.18	27.011
559.38	26.475
559.57	27.309
559.76	26.666
559.96	28.305
560.15	26.849
560.35	26.691
560.54	27.271
560.73	26.686
560.93	26.937
561.12	27.500
561.32	27.670
561.51	27.633
561.70	27.234
561.90	27.011
562.09	27.779
562.29	27.483
562.48	27.229
562.67	28.551
562.87	27.759
563.06	27.458
563.26	28.413
563.45	28.195
563.64	28.555
563.84	28.477
564.03	28.038
564.23	27.920
564.42	28.853
564.61	28.125
564.81	28.262
565.00	27.830
565.20	28.068
565.39	28.454
565.58	28.006
565.78	27.958
565.97	28.045
566.16	28.530
566.36	28.233
566.55	28.277
566.74	28.668
566.94	28.766
567.13	28.578
567.33	28.810
567.52	29.329
567.71	29.221
567.91	29.228
568.10	29.245
568.29	28.935
568.49	29.099
568.68	29.388
568.87	29.053
569.07	29.413
569.26	29.125
569.45	29.203
569.65	28.729
569.84	29.727
570.04	29.604
570.23	29.539
570.42	29.268
570.62	29.119
570.81	29.217
571.00	29.604
571.20	29.029
571.39	29.121
571.58	28.785
571.78	29.557
571.97	29.566
572.16	29.582
572.36	28.891
572.55	28.960
572.74	29.073
572.94	29.208
573.13	29.686
573.32	29.467
573.51	28.741
573.71	29.653
573.90	29.929
574.09	29.330
574.29	29.926
574.48	29.283
574.67	29.814
574.87	29.654
575.06	29.286
575.25	29.554
575.45	29.345
575.64	29.611
575.83	29.805
576.03	30.500
576.22	30.531
576.41	29.085
576.60	29.577
576.80	29.911
576.99	30.078
577.18	30.213
577.38	29.442
577.57	30.148
577.76	30.166
577.95	30.365
578.15	29.987
578.34	30.656
578.53	29.729
578.73	30.380
578.92	29.833
579.11	30.889
579.30	30.946
579.50	30.571
579.69	30.693
579.88	30.471
580.08	30.064
580.27	30.448
580.46	30.192
580.65	30.114
580.85	30.336
581.04	30.075
581.23	30.200
581.42	30.347
581.62	30.679
581.81	30.669
582.00	30.583
582.19	29.869
582.39	30.415
582.58	30.559
582.77	30.863
582.96	31.005
583.16	30.371
583.35	30.309
583.54	30.759
583.73	30.831
583.93	30.296
584.12	30.355
584.31	30.759
584.50	30.398
584.70	30.722
584.89	31.000
585.08	30.963
585.27	30.759
585.47	30.855
585.66	30.521
585.85	30.621
586.04	30.342
586.24	30.556
586.43	30.402
586.62	30.788
586.81	30.258
587.00	30.227
587.20	30.675
587.39	30.066
587.58	30.759
587.77	30.185
587.97	30.425
588.16	30.319
588.35	30.329
588.54	30.879
588.73	30.049
588.93	29.960
589.12	30.602
589.31	30.368
589.50	29.370
589.69	30.963
589.89	30.098
590.08	29.963
590.27	30.670
590.46	30.268
590.65	29.776
590.85	30.190
591.04	30.135
591.23	30.408
591.42	30.443
591.61	30.878
591.81	31.216
592.00	30.774
592.19	31.411
592.38	31.344
592.57	31.119
592.77	30.569
592.96	30.766
593.15	31.442
593.34	31.036
593.53	31.169
593.72	31.307
593.92	30.672
594.11	31.327
594.30	30.107
594.49	30.777
594.68	31.529
594.87	31.059
595.07	31.207
595.26	30.608
595.45	31.538
595.64	31.539
595.83	30.935
596.02	31.267
596.22	30.899
596.41	30.732
596.60	30.894
596.79	30.662
596.98	30.460
597.17	31.242
597.37	31.309
597.56	31.248
597.75	31.484
597.94	31.157
598.13	31.656
598.32	31.784
598.51	31.648
598.71	31.533
598.90	31.708
599.09	32.106
599.28	31.874
599.47	31.698
599.66	32.369
599.85	32.276
600.05	32.916
600.24	32.046
600.43	32.616
600.62	32.488
600.81	33.120
601.00	32.829
601.19	33.010
601.38	32.549
601.58	32.931
601.77	31.965
601.96	32.941
602.15	32.930
602.34	33.537
602.53	32.807
602.72	32.344
602.91	32.117
603.10	32.270
603.30	33.047
603.49	32.871
603.68	32.948
603.87	32.302
604.06	32.315
604.25	33.162
604.44	32.278
604.63	31.839
604.82	32.614
605.01	32.651
605.21	32.626
605.40	32.956
605.59	32.687
605.78	33.236
605.97	31.968
606.16	33.183
606.35	33.054
606.54	33.762
606.73	33.219
606.92	33.582
607.11	33.071
607.30	33.003
607.50	33.089
607.69	32.710
607.88	33.476
608.07	32.887
608.26	34.068
608.45	33.258
608.64	33.101
608.83	32.818
609.02	33.691
609.21	33.163
609.40	32.368
609.59	32.630
609.78	32.476
609.97	32.517
610.16	32.340
610.35	32.047
610.55	32.476
610.74	33.195
610.93	33.142
611.12	32.864
611.31	33.235
611.50	32.294
611.69	32.828
611.88	32.828
612.07	34.091
612.26	32.791
612.45	33.117
612.64	32.734
612.83	32.246
613.02	32.565
613.21	32.692
613.40	32.804
613.59	33.020
613.78	32.503
613.97	32.524
614.16	32.787
614.35	33.685
614.54	31.671
614.73	32.094
614.92	32.381
615.11	32.147
615.30	32.016
615.49	32.939
615.68	32.524
615.87	32.818
616.07	31.726
616.26	32.520
616.45	32.152
616.64	31.370
616.83	32.529
617.02	31.355
617.21	31.255
617.40	32.348
617.59	32.298
617.78	32.251
617.97	31.538
618.16	32.080
618.35	31.612
618.54	30.637
618.73	31.283
618.92	30.950
619.11	31.189
619.30	31.767
619.49	31.468
619.68	31.656
619.86	31.226
620.05	31.449
620.24	31.598
620.43	31.538
620.62	30.480
620.81	30.875
621.00	32.251
621.19	32.611
621.38	32.293
621.57	32.085
621.76	30.968
621.95	32.079
622.14	30.974
622.33	31.072
622.52	30.513
622.71	31.180
622.90	31.305
623.09	30.625
623.28	30.622
623.47	31.750
623.66	30.260
623.85	31.297
624.04	30.713
624.23	30.670
624.42	31.599
624.61	31.219
624.80	30.590
624.99	31.241
625.18	30.994
625.36	30.868
625.55	30.780
625.74	30.751
625.93	31.083
626.12	31.642
626.31	30.895
626.50	31.164
626.69	30.782
626.88	30.491
627.07	30.769
627.26	29.841
627.45	30.360
627.64	30.608
627.83	30.619
628.02	30.458
628.20	30.310
628.39	30.732
628.58	30.897
628.77	30.827
628.96	30.231
629.15	30.419
629.34	30.781
629.53	31.522
629.72	30.430
629.91	30.551
630.10	31.298
630.29	30.914
630.47	30.685
630.66	30.361
630.85	29.742
631.04	30.311
631.23	31.108
631.42	30.790
631.61	29.894
631.80	30.534
631.99	31.156
632.18	30.545
632.36	29.868
632.55	30.590
632.74	30.277
632.93	29.907
633.12	30.071
633.31	30.169
633.50	29.516
633.69	30.026
633.88	30.310
634.06	31.309
634.25	29.852
634.44	30.475
634.63	29.917
634.82	29.663
635.01	30.268
635.20	30.158
635.39	30.012
635.57	29.905
635.76	30.389
635.95	30.369
636.14	29.767
636.33	29.640
636.52	30.263
636.71	30.015
636.89	30.142
637.08	30.405
637.27	30.235
637.46	30.143
637.65	29.774
637.84	29.105
638.03	29.941
638.21	30.541
638.40	29.951
638.59	29.802
638.78	30.411
638.97	30.254
639.16	30.267
639.34	30.105
639.53	29.886
639.72	29.282
639.91	29.745
640.10	30.167
640.29	30.324
640.47	30.019
640.66	29.797
640.85	30.678
641.04	29.668
641.23	31.472
641.42	28.839
641.60	30.199
641.79	29.882
641.98	30.664
642.17	30.513
642.36	29.916
642.54	28.385
642.73	30.258
642.92	28.649
643.11	29.902
643.30	29.555
643.49	30.361
643.67	28.892
643.86	30.623
644.05	30.388
644.24	29.856
644.43	30.139
644.61	29.947
644.80	30.167
644.99	30.072
645.18	30.173
645.37	29.421
645.55	28.854
645.74	30.479
645.93	28.751
646.12	30.263
646.31	29.630
646.49	30.236
646.68	30.750
646.87	29.855
647.06	28.675
647.24	29.780
647.43	29.156
647.62	30.910
647.81	29.295
648.00	30.643
648.18	28.402
648.37	29.581
648.56	28.498
648.75	30.285
648.93	28.510
649.12	29.796
649.31	28.741
649.50	29.210
649.68	28.692
649.87	29.039
650.06	28.809
650.25	29.797
650.43	28.643
650.62	31.294
650.81	28.823
651.00	28.929
651.18	29.656
651.37	28.932
651.56	29.579
651.75	29.569
651.93	29.340
652.12	29.800
652.31	27.962
652.50	28.988
652.68	29.358
652.87	30.758
653.06	28.586
653.25	29.733
653.43	29.452
653.62	29.059
653.81	29.008
654.00	29.930
654.18	29.532
654.37	29.619
654.56	28.716
654.74	29.760
654.93	28.618
655.12	28.961
655.31	28.621
655.49	29.760
655.68	27.228
655.87	28.151
656.05	26.975
656.24	28.454
656.43	26.952
656.62	27.643
656.80	26.718
656.99	28.723
657.18	26.211
657.36	26.967
657.55	27.240
657.74	26.916
657.93	27.219
658.11	28.144
658.30	26.815
658.49	27.034
658.67	25.765
658.86	26.656
659.05	26.058
659.23	26.216
659.42	25.760
659.61	26.314
659.79	25.359
659.98	26.573
660.17	25.352
660.35	26.309
660.54	25.848
660.73	26.158
660.91	25.227
661.10	25.014
661.29	24.194
661.47	25.709
661.66	25.077
661.85	24.714
662.03	24.229
662.22	24.076
662.41	23.409
662.59	23.554
662.78	22.582
662.97	23.544
663.15	22.436
663.34	23.734
663.53	22.277
663.71	23.765
663.90	21.393
664.09	22.400
664.27	22.865
664.46	22.659
664.65	22.343
664.83	22.817
665.02	20.858
665.21	21.740
665.39	19.673
665.58	22.834
665.77	20.179
665.95	21.670
666.14	20.710
666.32	21.622
666.51	20.435
666.70	19.572
666.88	20.333
667.07	21.154
667.26	18.818
667.44	21.394
667.63	20.094
667.81	19.519
668.00	20.568
668.19	21.786
668.37	19.240
668.56	20.827
668.75	17.803
668.93	19.876
669.12	18.469
669.30	20.334
669.49	18.631
669.68	19.666
669.86	19.853
670.05	18.969
670.23	18.662
670.42	19.589
670.61	19.139
670.79	19.347
670.98	18.777
671.16	20.506
671.35	18.041
671.54	19.826
671.72	18.000
671.91	19.749
672.09	16.883
672.28	19.988
672.46	19.296
672.65	20.142
672.84	19.484
673.02	19.727
673.21	17.345
673.39	18.845
673.58	19.094
673.77	19.709
673.95	18.690
674.14	20.049
674.32	18.241
674.51	19.242
674.69	19.154
674.88	18.776
675.07	18.376
675.25	21.515
675.44	19.024
675.62	19.836
675.81	18.406
675.99	22.466
676.18	19.741
676.36	20.705
676.55	18.586
676.74	20.159
676.92	20.604
677.11	19.506
677.29	17.844
677.48	20.534
677.66	20.141
677.85	20.557
678.03	19.843
678.22	21.345
678.40	20.300
678.59	21.148
678.78	18.746
678.96	20.420
679.15	19.470
679.33	21.889
679.52	21.432
679.70	21.118
679.89	20.645
680.07	21.789
680.26	19.800
680.44	21.775
680.63	21.450
680.81	21.886
681.00	20.510
681.18	21.706
681.37	22.217
681.55	23.279
681.74	22.493
681.92	23.406
682.11	22.635
682.29	22.630
682.48	22.479
682.66	23.036
682.85	22.174
683.03	22.668
683.22	23.139
683.40	25.491
683.59	23.061
683.77	25.238
683.96	22.910
684.14	25.363
684.33	21.471
684.51	25.621
684.70	24.100
684.88	26.998
685.07	24.944
685.25	26.175
685.44	24.962
685.62	26.696
685.81	23.982
685.99	27.268
686.18	24.513
686.36	27.691
686.55	24.708
686.73	28.165
686.92	26.537
687.10	27.862
687.29	29.289
687.47	28.719
687.65	27.887
687.84	28.454
688.02	30.304
688.21	31.670
688.39	28.035
688.58	30.719
688.76	29.267
688.95	29.360
689.13	29.398
689.32	32.360
689.50	30.662
689.68	31.625
689.87	30.743
690.05	31.872
690.24	31.426
690.42	33.389
690.61	32.932
690.79	34.250
690.98	34.948
691.16	34.438
691.34	33.386
691.53	35.291
691.71	33.818
691.90	37.321
692.08	34.814
692.27	37.402
692.45	38.500
692.63	37.295
692.82	37.664
693.00	39.211
693.19	36.942
693.37	39.501
693.56	38.351
693.74	38.912
693.92	37.756
694.11	40.276
694.29	40.803
694.48	41.530
694.66	41.124
694.84	42.324
695.03	39.952
695.21	43.797
695.40	41.036
695.58	43.351
695.76	42.464
695.95	43.931
696.13	41.697
696.32	44.796
696.50	45.367
696.68	44.562
696.87	43.365
697.05	44.385
697.24	43.129
697.42	45.744
697.60	44.601
697.79	46.790
697.97	44.764
698.16	44.696
698.34	44.179
698.52	45.782
698.71	45.297
698.89	44.581
699.07	44.870
699.26	45.798
699.44	45.115
699.63	46.658
699.81	46.136
699.99	45.867
700.18	46.302
700.36	46.946
700.54	48.085
700.73	46.283
700.91	47.271
701.09	47.309
701.28	48.360
701.46	48.332
701.64	47.568
701.83	49.594
702.01	47.905
702.20	48.853
702.38	51.473
702.56	51.191
702.75	49.717
702.93	50.601
703.11	49.757
703.30	52.084
703.48	51.014
703.66	51.497
703.85	50.033
704.03	54.515
704.21	52.785
704.40	54.215
704.58	52.896
704.76	54.949
704.95	51.632
705.13	55.471
705.31	51.207
705.50	55.049
705.68	54.160
705.86	54.361
706.04	52.169
706.23	53.427
706.41	54.048
706.59	53.944
706.78	52.614
706.96	53.974
707.14	54.672
707.33	56.541
707.51	55.060
707.69	53.675
707.88	53.830
708.06	54.616
708.24	54.774
708.42	55.895
708.61	55.403
708.79	56.866
708.97	55.821
709.16	57.426
709.34	56.846
709.52	56.313
709.71	54.227
709.89	55.005
710.07	54.088
710.25	57.318
710.44	55.845
710.62	57.124
710.80	54.936
710.98	56.813
711.17	54.904
711.35	56.157
711.53	54.866
711.72	55.023
711.90	55.997
712.08	55.717
712.26	51.603
712.45	54.892
712.63	55.586
712.81	55.807
712.99	58.919
713.18	54.640
713.36	55.168
713.54	57.433
713.72	54.703
713.91	58.265
714.09	54.147
714.27	56.128
714.45	56.863
714.64	58.692
714.82	56.247
715.00	56.069
715.18	57.316
715.37	55.132
715.55	56.166
715.73	56.379
715.91	57.115
716.10	55.920
716.28	54.346
716.46	57.701
716.64	55.353
716.83	57.004
717.01	55.862
717.19	55.480
717.37	57.879
717.55	57.073
717.74	55.808
717.92	56.252
718.10	55.478
718.28	57.135
718.47	55.479
718.65	57.876
718.83	58.299
719.01	58.567
719.19	56.809
719.38	56.759
719.56	58.063
719.74	58.340
719.92	56.110
720.10	56.539
720.29	55.613
720.47	59.094
720.65	58.407
720.83	58.705
721.01	56.977
721.20	58.530
721.38	59.322
721.56	57.857
721.74	56.643
721.92	58.331
722.11	60.422
722.29	58.926
722.47	58.528
722.65	62.099
722.83	61.926
723.01	62.958
723.20	58.257
723.38	59.172
723.56	59.855
723.74	60.462
723.92	61.955
724.10	60.504
724.29	57.380
724.47	60.309
724.65	60.172
724.83	59.835
725.01	59.099
725.19	58.606
725.38	62.101
725.56	61.022
725.74	59.817
725.92	61.197
726.10	60.092
726.28	60.586
726.46	61.868
726.65	59.843
726.83	60.311
727.01	62.497
727.19	61.660
727.37	60.518
727.55	61.573
727.73	59.105
727.92	60.657
728.10	61.028
728.28	60.199
728.46	60.137
728.64	61.595
728.82	60.630
729.00	59.840
729.19	61.630
729.37	59.842
729.55	58.819
729.73	59.073
729.91	60.016
730.09	57.885
730.27	58.895
730.45	59.791
730.63	61.205
730.82	60.640
731.00	62.487
731.18	60.123
731.36	59.315
731.54	58.725
731.72	59.883
731.90	58.946
732.08	60.979
732.26	58.118
732.45	61.396
732.63	59.099
732.81	60.129
732.99	58.164
733.17	61.103
733.35	59.839
733.53	58.395
733.71	61.274
733.89	61.862
734.07	59.567
734.25	60.408
734.44	59.606
734.62	59.971
734.80	60.266
734.98	62.032
735.16	63.757
735.34	62.302
735.52	62.613
735.70	63.112
735.88	64.060
736.06	63.240
736.24	63.957
736.42	64.265
736.60	62.628
736.78	66.443
736.97	62.380
737.15	63.918
737.33	61.982
737.51	65.096
737.69	65.366
737.87	62.953
738.05	63.210
738.23	63.325
738.41	63.271
738.59	64.446
738.77	65.372
738.95	65.240
739.13	66.232
739.31	63.932
739.49	65.540
739.67	63.753
739.85	63.921
740.03	65.116
740.21	64.893
740.39	62.211
740.57	66.592
740.75	66.934
740.93	62.311
741.11	64.874
741.30	64.986
741.48	64.698
741.66	64.676
741.84	67.474
742.02	67.831
742.20	64.576
742.38	64.071
742.56	70.378
742.74	65.962
742.92	62.281
743.10	63.072
743.28	66.405
743.46	66.036
743.64	69.623
743.82	65.586
744.00	67.272
744.18	67.229
744.36	67.509
744.54	68.806
744.72	66.560
744.90	69.916
745.08	68.851
745.26	64.037
745.44	71.601
745.62	64.392
745.80	67.423
745.98	68.694
746.16	67.605
746.34	66.102
746.52	68.068
746.70	67.507
746.87	65.726
747.05	67.297
747.23	70.822
747.41	70.561
747.59	68.259
747.77	65.567
747.95	67.686
748.13	69.358
748.31	74.530
748.49	66.962
748.67	66.847
748.85	66.571
749.03	67.306
749.21	71.007
749.39	70.122
749.57	66.159
749.75	69.650
749.93	71.057
750.11	66.011
750.29	66.217
750.47	67.342
750.65	68.885
750.83	67.350
751.01	68.411
751.18	67.476
751.36	69.023
751.54	69.959
751.72	70.108
751.90	64.899
752.08	69.781
752.26	66.603
752.44	69.889
752.62	68.265
752.80	70.246
752.98	69.553
753.16	69.231
753.34	69.199
753.52	67.561
753.69	69.352
753.87	69.657
754.05	68.937
754.23	69.240
754.41	66.667
754.59	68.117
754.77	69.386
754.95	69.314
755.13	66.781
755.31	66.159
755.49	71.036
755.66	67.259
755.84	67.765
756.02	69.059
756.20	69.335
756.38	66.783
756.56	67.164
756.74	65.115
756.92	68.643
757.10	72.478
757.28	69.554
757.45	69.228
757.63	68.912
757.81	71.067
757.99	70.206
758.17	68.437
758.35	67.942
758.53	67.470
758.71	66.042
758.88	64.424
759.06	66.333
759.24	64.327
759.42	64.237
759.60	62.465
759.78	61.116
759.96	59.665
760.13	61.796
760.31	57.951
760.49	58.554
760.67	55.356
760.85	56.080
761.03	55.958
761.21	54.684
761.38	53.285
761.56	58.624
761.74	55.716
761.92	62.698
762.10	53.060
762.28	56.824
762.46	52.838
762.63	58.801
762.81	55.711
762.99	57.507
763.17	54.694
763.35	54.412
763.53	55.501
763.70	56.157
763.88	56.607
764.06	54.309
764.24	54.902
764.42	55.155
764.60	54.860
764.77	56.201
764.95	55.703
765.13	57.479
765.31	57.418
765.49	56.543
765.66	56.884
765.84	56.859
766.02	55.023
766.20	60.861
766.38	60.943
766.56	61.267
766.73	60.817
766.91	60.742
767.09	63.135
767.27	62.832
767.45	62.039
767.62	63.096
767.80	65.028
767.98	64.496
768.16	65.027
768.33	69.045
768.51	65.993
768.69	67.009
768.87	64.134
769.05	66.301
769.22	66.883
769.40	67.661
769.58	65.425
769.76	72.816
769.94	68.805
770.11	68.664
770.29	71.255
770.47	70.380
770.65	67.976
770.82	73.721
771.00	69.194
771.18	71.661
771.36	72.300
771.53	68.005
771.71	72.776
771.89	74.409
772.07	68.197
772.25	69.551
772.42	71.367
772.60	72.943
772.78	69.867
772.96	75.430
773.13	73.309
773.31	73.519
773.49	71.067
773.67	68.896
773.84	71.058
774.02	75.491
774.20	73.993
774.37	71.448
774.55	69.606
774.73	75.576
774.91	74.977
775.08	73.610
775.26	74.302
775.44	73.383
775.62	72.627
775.79	75.214
775.97	73.235
776.15	74.275
776.32	70.382
776.50	80.137
776.68	73.589
776.86	77.008
777.03	70.660
777.21	75.497
777.39	70.744
777.56	76.431
777.74	72.463
777.92	71.867
778.10	70.149
778.27	71.592
778.45	74.294
778.63	74.964
778.80	74.250
778.98	72.714
779.16	77.533
779.34	72.590
779.51	68.337
779.69	76.121
779.87	71.242
780.04	69.795
780.22	70.120
780.40	73.256
780.57	74.683
780.75	74.757
780.93	78.781
781.10	72.671
781.28	71.938
781.46	69.686
781.63	71.567
781.81	77.749
781.99	67.795
782.16	71.400
782.34	69.653
782.52	73.199
782.69	77.216
782.87	79.550
783.05	78.628
783.22	76.957
783.40	71.028
783.58	78.028
783.75	76.784
783.93	78.925
784.11	76.694
784.28	76.285
784.46	72.051
784.64	76.348
784.81	77.403
784.99	78.172
785.17	74.148
785.34	76.464
785.52	74.594
785.69	77.130
785.87	77.158
786.05	74.055
786.22	70.862
786.40	83.488
786.58	75.520
786.75	74.827
786.93	70.220
787.11	75.454
787.28	71.518
787.46	75.275
787.63	69.080
787.81	71.847
787.99	74.717
788.16	71.414
788.34	67.422
788.51	74.987
788.69	68.252
788.87	72.945
789.04	67.201
789.22	66.811
789.39	69.536
789.57	66.040
789.75	64.866
789.92	68.178
790.10	67.763
790.27	69.335
790.45	63.553
790.63	72.254
790.80	66.449
790.98	71.665
791.15	68.603
791.33	68.117
791.51	66.981
791.68	74.232
791.86	72.451
792.03	72.696
792.21	66.262
792.39	70.500
792.56	70.256
792.74	74.575
792.91	68.302
793.09	74.841
793.26	69.731
793.44	75.182
793.62	73.305
793.79	74.234
793.97	70.364
794.14	73.156
794.32	73.222
794.49	77.062
794.67	70.736
794.84	71.559
795.02	71.679
795.20	73.251
795.37	65.713
795.55	78.615
795.72	72.403
795.90	70.595
796.07	70.666
796.25	74.843
796.42	65.319
796.60	70.952
796.77	68.570
796.95	71.908
797.13	65.436
797.30	72.097
797.48	67.326
797.65	69.813
797.83	69.064
798.00	72.538
798.18	64.526
798.35	71.975
798.53	66.465
798.70	71.868
798.88	66.667
799.05	72.500
799.23	71.519
799.40	69.600
799.58	75.075
799.75	72.700
799.93	67.762
800.10	68.465
800.28	76.984
800.45	70.857
800.63	71.572
800.80	71.327
800.98	70.310
801.15	66.667
801.33	69.541
801.50	74.180
801.68	66.360
801.85	73.684
802.03	67.355
802.20	71.716
802.38	71.194
802.55	70.566
802.73	74.027
802.90	69.538
803.08	69.806
803.25	71.209
803.43	71.619
803.60	81.029
803.78	69.090
803.95	75.696
804.13	71.229
804.30	79.068
804.48	64.943
804.65	71.498
804.83	68.389
805.00	69.464
805.17	74.092
805.35	67.091
805.52	64.026
805.70	68.712
805.87	73.307
806.05	71.997
806.22	62.101
806.40	69.872
806.57	67.387
806.75	73.128
806.92	70.164
807.09	71.721
807.27	73.856
807.44	73.850
807.62	71.438
807.79	70.600
807.97	68.500
808.14	70.173
808.31	68.859
808.49	68.619
808.66	66.957
808.84	69.749
809.01	71.178
809.19	67.331
809.36	76.059
809.53	74.394
809.71	62.474
809.88	75.074
810.06	67.099
810.23	66.861
810.41	74.669
810.58	77.493
810.75	72.835
810.93	73.318
811.10	70.025
811.28	73.891
811.45	72.671
811.62	77.479
811.80	68.324
811.97	64.332
812.15	72.176
812.32	78.188
812.49	66.990
812.67	70.231
812.84	69.503
813.02	79.266
813.19	67.400
813.36	79.485
813.54	70.519
813.71	71.429
813.89	67.654
814.06	79.414
814.23	66.776
814.41	64.361
814.58	62.510
814.75	75.064
814.93	65.277
815.10	71.159
815.28	66.358
815.45	72.180
815.62	65.542
815.80	66.414
815.97	65.989
816.14	67.251
816.32	70.134
816.49	65.407
816.66	65.549
816.84	63.792
817.01	66.750
817.18	74.979
817.36	68.957
817.53	69.718
817.71	58.353
817.88	63.650
818.05	62.548
818.23	66.934
818.40	63.190
818.57	68.839
818.75	62.975
818.92	65.690
819.09	63.542
819.27	69.613
819.44	64.484
819.61	60.854
819.79	60.398
819.96	67.235
820.13	58.247
820.31	65.539
820.48	70.672
820.65	59.292
820.82	58.386
821.00	61.497
821.17	55.774
821.34	60.909
821.52	61.667
821.69	61.600
821.86	56.694
822.04	58.920
822.21	55.821
822.38	55.337
822.56	54.312
822.73	55.020
822.90	52.287
823.07	54.150
823.25	51.457
823.42	52.783
823.59	51.974
823.77	52.712
823.94	51.349
824.11	51.205
824.29	49.874
824.46	52.821
824.63	51.072
824.80	49.462
824.98	50.952
825.15	52.588
825.32	51.634
825.49	54.387
825.67	54.417
825.84	56.135
826.01	53.595
826.19	55.777
826.36	53.534
826.53	57.496
826.70	54.757
826.88	54.073
827.05	51.004
827.22	53.156
827.39	52.972
827.57	54.589
827.74	53.425
827.91	56.532
828.08	54.203
828.26	55.500
828.43	52.345
828.60	56.952
828.77	53.184
828.95	54.943
829.12	48.437
829.29	51.200
829.46	52.616
829.64	51.950
829.81	49.594
829.98	55.576
830.15	51.759
830.32	55.235
830.50	52.697
830.67	57.136
830.84	49.874
831.01	54.162
831.19	52.273
831.36	59.841
831.53	67.746
831.70	62.975
831.87	52.094
832.05	65.950
832.22	63.650
832.39	58.284
832.56	58.760
832.74	65.015
832.91	62.061
833.08	63.650
833.25	58.422
833.42	61.406
833.60	60.858
833.77	58.171
833.94	58.018
834.11	57.301
834.28	47.398
834.45	54.488
834.63	49.283
834.80	54.055
834.97	50.056
835.14	54.932
835.31	54.637
835.49	51.897
835.66	56.042
835.83	52.253
836.00	48.132
836.17	52.773
836.34	50.860
836.52	49.977
836.69	54.637
836.86	55.697
837.03	53.028
837.20	54.218
837.37	54.312
837.55	58.533
837.72	54.834
837.89	60.355
838.06	66.036
838.23	66.921
838.40	65.935
838.58	67.122
838.75	62.019
838.92	71.060
839.09	73.726
839.26	71.730
839.43	69.922
839.60	89.841
839.78	83.120
839.95	72.440
840.12	71.668
840.29	89.010
840.46	81.725
840.63	67.109
840.80	72.593
840.98	76.465
841.15	64.694
841.32	62.438
841.49	65.926
841.66	71.182
841.83	74.029
842.00	64.526
842.17	77.518
842.34	67.694
842.52	73.945
842.69	72.664
842.86	70.878
843.03	84.336
843.20	74.638
843.37	77.125
843.54	79.830
843.71	80.405
843.88	77.086
844.06	90.973
844.23	79.872
844.40	88.994
844.57	98.278
844.74	86.441
844.91	105.153
845.08	88.615
845.25	97.306
845.42	98.594
845.59	93.855
845.76	92.624
845.94	95.624
846.11	100.679
846.28	95.940
846.45	111.452
846.62	120.833
846.79	100.000
846.96	107.379
847.13	108.732
847.30	114.167
847.47	88.462
847.64	96.914
847.81	102.857
847.98	106.144
848.15	99.402
848.32	103.730
848.50	113.636
848.67	101.149
848.84	119.415
849.01	90.980
849.18	127.358
849.35	122.658
849.52	114.286
849.69	106.610
849.86	119.870
850.03	103.958
850.20	124.190
850.37	96.739
850.54	107.097
850.71	107.407
850.88	115.385
851.05	115.232
851.22	113.490
851.39	132.678
851.56	133.498
851.73	130.282
851.90	117.848
852.07	110.947
852.24	113.645
852.41	118.962
852.58	118.122
852.75	110.138
852.92	95.792
853.09	121.099
853.26	113.290
853.43	111.040
853.60	118.203
853.77	106.962
853.94	94.624
854.11	136.883
854.28	129.932
854.45	105.128
854.62	111.714
854.79	123.864
854.96	121.154
855.13	117.273
855.30	99.398
855.47	140.483
855.64	102.004
855.81	124.561
855.98	115.802
856.15	120.174
856.32	97.186
856.49	122.300
856.66	121.911
856.83	90.855
857.00	112.857
857.17	120.241
857.34	137.922
857.51	128.198
857.68	102.947
857.85	111.111
858.02	116.241
858.19	123.245
858.36	123.385
858.53	131.793
858.70	102.626
858.87	115.708
859.04	118.182
859.21	100.739
859.38	118.868
859.55	150.920
859.72	102.765
859.89	118.750
860.05	139.070
860.22	124.384
860.39	118.274
860.56	153.372
860.73	109.422
860.90	131.003
861.07	135.115
861.24	106.048
861.41	117.073
861.58	122.111
861.75	125.000
861.92	162.903
862.09	118.593
862.26	105.013
862.43	127.209
862.59	128.837
862.76	135.180
862.93	124.545
863.10	121.237
863.27	104.703
863.44	111.658
863.61	103.803
863.78	91.537
863.95	139.826
864.12	106.429
864.29	111.601
864.45	119.665
864.62	105.147
864.79	119.680
864.96	108.937
865.13	114.251
865.30	106.540
865.47	113.126
865.64	119.570
865.81	100.206
865.97	110.956
866.14	130.423
866.31	129.290
866.48	125.356
866.65	107.202
866.82	106.140
866.99	137.430
867.16	117.379
867.33	127.820
867.49	108.932
867.66	157.651
867.83	122.741
868.00	112.714
868.17	151.534
868.34	150.000
868.51	110.162
868.67	123.836
868.84	120.263
869.01	113.408
869.18	131.351
869.35	124.344
869.52	96.963
869.69	121.235
869.85	120.384
870.02	112.710
870.19	113.808
870.36	132.870
870.53	105.689
870.70	124.550
870.86	130.214
871.03	93.978
871.20	114.066
871.37	126.551
871.54	114.496
871.71	111.667
871.87	92.715
872.04	100.243
872.21	113.972
872.38	125.840
872.55	156.790
872.72	120.344
872.88	140.060
873.05	91.706
873.22	113.731
873.39	115.581
873.56	111.364
873.72	113.889
873.89	95.833
874.06	109.788
874.23	98.152
874.40	118.158
874.56	138.170
874.73	112.973
874.90	113.706
875.07	125.360
875.24	102.010
875.40	93.506
875.57	103.741
875.74	103.628
875.91	116.235
876.08	104.251
876.24	102.542
876.41	164.970
876.58	103.044
876.75	107.733
876.92	109.953
877.08	110.705
877.25	119.726
877.42	97.222
877.59	106.699
877.75	130.909
877.92	85.909
878.09	109.846
878.26	102.113
878.42	109.799
878.59	108.726
878.76	96.963
878.93	144.857
879.09	99.393
879.26	87.259
879.43	99.584
879.60	99.751
879.76	115.894
879.93	93.907
880.10	94.095
880.27	92.731
880.43	86.749
880.60	88.971
880.77	81.277
880.94	68.047
881.10	70.185
881.27	55.319
881.44	53.078
881.61	53.378
881.77	52.134
881.94	48.018
882.11	42.849
882.28	43.683
882.44	43.671
882.61	47.563
882.78	47.351
882.94	52.645
883.11	45.500
883.28	50.763
883.45	49.066
883.61	47.136
883.78	45.282
883.95	47.209
884.11	46.127
884.28	48.408
>>>>>End Processed Spectral Data<<<<<
