SpectraSuite Data File
++++++++++++++++++++++++++++++++++++
Date: Thu Sep 26 03:05:04 EST 2019
User: sgrac
Dark Spectrum Present: Yes
Reference Spectrum Present: Yes
Number of Sampled Component Spectra: 1
Spectrometers: USB4E01596
Integration Time (usec): 100000 (USB4E01596)
Spectra Averaged: 3 (USB4E01596)
Boxcar Smoothing: 0 (USB4E01596)
Correct for Electrical Dark: No (USB4E01596)
Strobe/Lamp Enabled: Yes (USB4E01596)
Correct for Detector Non-linearity: No (USB4E01596)
Correct for Stray Light: No (USB4E01596)
Number of Pixels in Processed Spectrum: 3648
>>>>>Begin Processed Spectral Data<<<<<
178.44	275.000
178.66	275.000
178.87	275.000
179.09	-144.898
179.30	-7.143
179.52	50.000
179.74	13.889
179.95	-430.769
180.17	143.373
180.38	857.143
180.60	162.500
180.82	160.241
181.03	212.500
181.25	96.154
181.46	-348.387
181.68	116.667
181.89	713.333
182.11	-622.222
182.33	150.485
182.54	145.977
182.76	239.286
182.97	288.889
183.19	106.832
183.40	136.893
183.62	1225.000
183.84	139.130
184.05	925.000
184.27	142.268
184.48	-250.000
184.70	600.000
184.91	183.000
185.13	486.667
185.34	213.514
185.56	460.000
185.78	105.155
185.99	193.506
186.21	360.000
186.42	-73.333
186.64	390.476
186.85	56.122
187.07	112.857
187.28	94.737
187.50	534.783
187.72	250.000
187.93	131.915
188.15	258.491
188.36	381.250
188.58	1833.333
188.79	430.000
189.01	425.000
189.22	113.393
189.44	312.500
189.65	1055.556
189.87	183.784
190.09	280.645
190.30	230.159
190.52	-7600.000
190.73	-4600.000
190.95	570.833
191.16	115.596
191.38	61.957
191.59	388.235
191.81	87.931
192.02	253.333
192.24	201.370
192.45	109.474
192.67	248.936
192.88	135.897
193.10	90.698
193.31	96.629
193.53	488.235
193.74	170.732
193.96	85.000
194.18	242.105
194.39	103.478
194.61	672.727
194.82	197.297
195.04	85.714
195.25	146.094
195.47	168.750
195.68	62.025
195.90	455.000
196.11	84.000
196.33	250.000
196.54	200.000
196.76	325.000
196.97	290.909
197.19	255.556
197.40	-162.222
197.62	165.455
197.83	140.336
198.05	284.906
198.26	163.380
198.48	425.000
198.69	0.000
198.91	455.556
199.12	131.481
199.34	178.261
199.55	103.604
199.77	66.667
199.98	1666.667
200.20	18.182
200.41	97.196
200.63	238.095
200.84	141.304
201.06	137.931
201.27	290.476
201.49	465.000
201.70	-778.571
201.91	54.255
202.13	166.667
202.34	-64.583
202.56	272.727
202.77	290.000
202.99	191.176
203.20	145.902
203.42	229.091
203.63	170.330
203.85	85.401
204.06	0.000
204.28	91.667
204.49	214.706
204.71	16.901
204.92	-2700.000
205.14	289.286
205.35	166.667
205.56	416.667
205.78	96.610
205.99	201.887
206.21	129.630
206.42	164.773
206.64	200.000
206.85	146.429
207.07	59.200
207.28	75.214
207.50	203.030
207.71	461.905
207.93	-344.444
208.14	-1100.000
208.35	292.000
208.57	142.222
208.78	222.000
209.00	142.105
209.21	2600.000
209.43	155.769
209.64	200.000
209.86	1400.000
210.07	236.585
210.28	-178.947
210.50	2566.667
210.71	243.333
210.93	34.483
211.14	200.000
211.36	326.316
211.57	173.214
211.78	447.619
212.00	487.500
212.21	60.345
212.43	373.810
212.64	95.146
212.86	169.231
213.07	79.825
213.29	786.667
213.50	159.494
213.71	59.677
213.93	127.273
214.14	116.346
214.36	70.000
214.57	142.553
214.78	68.293
215.00	181.176
215.21	119.753
215.43	177.778
215.64	148.913
215.86	87.050
216.07	408.000
216.28	40.506
216.50	125.472
216.71	104.878
216.93	304.762
217.14	672.727
217.35	82.857
217.57	154.839
217.78	114.159
218.00	96.809
218.21	125.000
218.42	318.605
218.64	95.050
218.85	101.786
219.07	143.000
219.28	194.286
219.49	197.368
219.71	62.000
219.92	-920.000
220.14	185.937
220.35	241.667
220.56	-2750.000
220.78	109.524
220.99	140.000
221.21	115.663
221.42	137.179
221.63	70.213
221.85	0.000
222.06	131.132
222.28	294.286
222.49	110.606
222.70	400.000
222.92	111.538
223.13	100.000
223.34	81.522
223.56	70.435
223.77	77.707
223.99	69.565
224.20	84.615
224.41	53.191
224.63	31.973
224.84	31.532
225.05	93.893
225.27	60.116
225.48	71.053
225.69	56.593
225.91	70.435
226.12	44.156
226.34	33.529
226.55	33.088
226.76	58.454
226.98	36.441
227.19	22.346
227.40	59.444
227.62	34.701
227.83	24.498
228.04	37.857
228.26	43.478
228.47	25.980
228.69	29.040
228.90	20.490
229.11	15.631
229.33	25.778
229.54	19.186
229.75	15.182
229.97	11.341
230.18	16.983
230.39	11.969
230.61	13.298
230.82	12.714
231.03	13.714
231.25	14.836
231.46	10.834
231.67	23.291
231.89	20.100
232.10	3.776
232.31	31.389
232.53	19.742
232.74	16.299
232.95	30.236
233.17	28.205
233.38	12.366
233.59	18.117
233.81	28.595
234.02	17.108
234.23	20.240
234.45	23.697
234.66	20.672
234.87	22.083
235.09	16.579
235.30	18.609
235.51	15.905
235.73	18.968
235.94	7.719
236.15	20.761
236.36	20.247
236.58	26.284
236.79	16.055
237.00	6.133
237.22	19.441
237.43	17.360
237.64	25.376
237.86	17.833
238.07	21.981
238.28	11.379
238.50	25.000
238.71	7.212
238.92	19.479
239.13	26.205
239.35	13.612
239.56	12.175
239.77	19.744
239.99	15.525
240.20	20.970
240.41	14.654
240.63	14.054
240.84	14.483
241.05	13.939
241.26	19.320
241.48	12.264
241.69	9.091
241.90	8.838
242.12	9.902
242.33	14.286
242.54	3.699
242.75	4.912
242.97	11.572
243.18	5.932
243.39	6.849
243.61	7.929
243.82	7.371
244.03	9.009
244.24	8.715
244.46	7.279
244.67	10.677
244.88	7.104
245.09	3.804
245.31	8.401
245.52	7.887
245.73	5.339
245.95	14.598
246.16	6.558
246.37	5.908
246.58	3.095
246.80	5.791
247.01	8.520
247.22	6.829
247.43	7.578
247.65	8.675
247.86	7.031
248.07	5.397
248.28	5.340
248.50	6.521
248.71	6.204
248.92	5.216
249.13	5.714
249.35	7.526
249.56	6.373
249.77	6.768
249.98	5.051
250.20	5.022
250.41	7.570
250.62	7.094
250.83	9.433
251.05	10.799
251.26	7.797
251.47	9.808
251.68	9.892
251.90	7.994
252.11	8.212
252.32	7.312
252.53	10.380
252.75	6.597
252.96	5.894
253.17	9.342
253.38	6.487
253.59	6.615
253.81	8.091
254.02	9.150
254.23	5.783
254.44	7.927
254.66	7.357
254.87	6.814
255.08	7.759
255.29	6.523
255.50	9.423
255.72	8.783
255.93	8.488
256.14	12.408
256.35	11.952
256.57	7.511
256.78	5.405
256.99	4.376
257.20	11.709
257.41	7.338
257.63	7.741
257.84	10.597
258.05	11.765
258.26	7.998
258.47	6.130
258.69	7.704
258.90	6.518
259.11	7.710
259.32	4.599
259.53	4.325
259.75	4.636
259.96	3.811
260.17	3.573
260.38	3.622
260.59	5.144
260.81	5.158
261.02	6.028
261.23	5.236
261.44	4.075
261.65	5.067
261.87	6.591
262.08	7.300
262.29	7.261
262.50	4.260
262.71	5.176
262.92	5.649
263.14	5.287
263.35	5.081
263.56	3.271
263.77	8.623
263.98	5.207
264.20	9.123
264.41	2.782
264.62	3.126
264.83	1.585
265.04	10.455
265.25	7.588
265.47	2.947
265.68	7.140
265.89	7.214
266.10	3.949
266.31	8.392
266.52	5.273
266.74	5.779
266.95	2.156
267.16	7.176
267.37	3.625
267.58	6.705
267.79	6.114
268.01	6.609
268.22	4.443
268.43	4.914
268.64	4.873
268.85	3.976
269.06	6.082
269.27	6.453
269.49	3.923
269.70	6.226
269.91	4.043
270.12	1.607
270.33	8.226
270.54	6.050
270.75	3.120
270.97	5.882
271.18	3.517
271.39	5.779
271.60	5.986
271.81	5.995
272.02	2.920
272.23	6.810
272.45	2.442
272.66	3.113
272.87	7.565
273.08	4.570
273.29	4.250
273.50	5.673
273.71	4.894
273.92	2.815
274.14	6.811
274.35	3.735
274.56	6.159
274.77	6.255
274.98	6.993
275.19	4.434
275.40	5.394
275.61	3.815
275.83	6.542
276.04	4.566
276.25	7.451
276.46	5.373
276.67	5.212
276.88	6.588
277.09	6.500
277.30	7.305
277.51	4.522
277.73	5.128
277.94	2.874
278.15	5.287
278.36	5.583
278.57	2.391
278.78	4.885
278.99	7.770
279.20	7.206
279.41	5.375
279.62	6.366
279.84	5.114
280.05	3.942
280.26	2.441
280.47	7.547
280.68	2.331
280.89	6.265
281.10	6.156
281.31	4.605
281.52	5.178
281.73	5.260
281.94	4.657
282.16	6.686
282.37	4.056
282.58	3.790
282.79	7.462
283.00	5.446
283.21	3.084
283.42	3.421
283.63	5.718
283.84	3.722
284.05	3.930
284.26	5.713
284.47	6.716
284.68	5.373
284.89	4.182
285.11	2.748
285.32	5.244
285.53	4.333
285.74	4.618
285.95	3.527
286.16	4.695
286.37	5.938
286.58	4.557
286.79	4.007
287.00	4.203
287.21	4.842
287.42	3.526
287.63	4.854
287.84	4.310
288.05	5.171
288.26	3.683
288.48	5.715
288.69	3.864
288.90	4.820
289.11	4.734
289.32	6.168
289.53	3.757
289.74	2.794
289.95	4.039
290.16	2.291
290.37	3.334
290.58	4.016
290.79	1.686
291.00	3.017
291.21	4.664
291.42	3.174
291.63	2.768
291.84	4.883
292.05	3.133
292.26	4.978
292.47	3.382
292.68	3.561
292.89	4.525
293.10	2.841
293.31	4.720
293.52	2.078
293.73	3.517
293.94	4.811
294.15	3.985
294.36	4.293
294.57	4.854
294.79	3.760
295.00	1.281
295.21	5.984
295.42	2.494
295.63	2.635
295.84	5.824
296.05	3.436
296.26	3.101
296.47	4.096
296.68	3.099
296.89	3.748
297.10	5.693
297.31	3.574
297.52	2.677
297.73	4.867
297.94	3.607
298.15	3.799
298.36	3.485
298.57	4.561
298.78	3.051
298.99	3.341
299.20	3.948
299.41	3.532
299.62	2.903
299.83	3.101
300.04	4.178
300.25	3.286
300.46	3.383
300.67	4.113
300.88	5.288
301.09	1.708
301.30	4.536
301.50	3.505
301.71	5.707
301.92	5.822
302.13	3.948
302.34	3.196
302.55	4.057
302.76	3.462
302.97	3.825
303.18	2.896
303.39	2.130
303.60	2.916
303.81	4.043
304.02	2.380
304.23	4.476
304.44	2.570
304.65	4.431
304.86	4.178
305.07	2.920
305.28	3.237
305.49	4.104
305.70	3.885
305.91	1.847
306.12	2.845
306.33	4.721
306.54	1.029
306.75	4.030
306.96	4.543
307.17	3.896
307.38	3.432
307.58	2.690
307.79	3.950
308.00	3.878
308.21	5.514
308.42	5.069
308.63	2.840
308.84	3.400
309.05	4.504
309.26	3.338
309.47	3.766
309.68	3.788
309.89	5.532
310.10	3.992
310.31	3.193
310.52	3.384
310.73	4.323
310.94	3.593
311.14	3.359
311.35	4.571
311.56	3.175
311.77	3.844
311.98	3.099
312.19	3.109
312.40	3.868
312.61	3.562
312.82	3.469
313.03	3.165
313.24	3.965
313.45	4.537
313.66	2.624
313.86	3.119
314.07	3.876
314.28	4.501
314.49	2.614
314.70	3.485
314.91	4.224
315.12	4.866
315.33	5.454
315.54	3.239
315.75	2.784
315.96	3.321
316.16	4.055
316.37	4.606
316.58	2.883
316.79	4.717
317.00	5.045
317.21	4.948
317.42	4.099
317.63	4.313
317.84	3.984
318.05	1.743
318.25	2.355
318.46	4.310
318.67	3.836
318.88	4.175
319.09	4.015
319.30	3.709
319.51	3.816
319.72	4.593
319.93	2.993
320.13	0.811
320.34	3.976
320.55	3.946
320.76	3.555
320.97	4.130
321.18	4.094
321.39	5.198
321.60	3.441
321.80	4.915
322.01	5.787
322.22	4.713
322.43	1.561
322.64	3.203
322.85	4.477
323.06	5.580
323.27	5.074
323.47	4.347
323.68	4.112
323.89	4.099
324.10	5.704
324.31	2.309
324.52	5.630
324.73	3.164
324.93	3.256
325.14	2.643
325.35	4.373
325.56	2.778
325.77	2.694
325.98	3.446
326.19	4.166
326.39	2.285
326.60	4.235
326.81	3.853
327.02	2.191
327.23	3.619
327.44	5.051
327.64	2.952
327.85	3.123
328.06	4.472
328.27	5.834
328.48	5.826
328.69	3.784
328.90	4.450
329.10	2.737
329.31	4.360
329.52	4.796
329.73	4.541
329.94	3.211
330.15	5.966
330.35	4.920
330.56	3.590
330.77	4.115
330.98	4.511
331.19	3.607
331.39	2.650
331.60	3.950
331.81	2.888
332.02	6.127
332.23	5.482
332.44	2.489
332.64	5.272
332.85	4.077
333.06	4.470
333.27	4.829
333.48	4.167
333.68	4.410
333.89	4.454
334.10	2.695
334.31	4.789
334.52	5.796
334.72	3.839
334.93	3.796
335.14	3.073
335.35	4.278
335.56	6.074
335.76	4.352
335.97	6.202
336.18	3.359
336.39	7.239
336.60	6.581
336.80	4.004
337.01	4.724
337.22	5.118
337.43	5.805
337.64	6.771
337.84	6.908
338.05	5.144
338.26	7.014
338.47	5.737
338.68	4.385
338.88	5.223
339.09	3.843
339.30	5.761
339.51	4.759
339.71	7.486
339.92	5.376
340.13	6.675
340.34	5.461
340.55	5.368
340.75	6.472
340.96	6.555
341.17	7.178
341.38	4.978
341.58	5.073
341.79	6.719
342.00	5.156
342.21	7.110
342.41	5.649
342.62	7.187
342.83	8.424
343.04	5.295
343.24	8.785
343.45	8.440
343.66	6.216
343.87	8.507
344.07	8.266
344.28	8.068
344.49	9.888
344.70	10.363
344.90	7.513
345.11	7.736
345.32	6.083
345.53	9.150
345.73	9.658
345.94	11.626
346.15	10.772
346.36	11.023
346.56	9.659
346.77	12.378
346.98	9.477
347.19	11.812
347.39	10.348
347.60	8.913
347.81	9.814
348.02	10.435
348.22	6.393
348.43	9.117
348.64	7.296
348.84	10.743
349.05	9.020
349.26	12.090
349.47	9.037
349.67	8.684
349.88	10.292
350.09	9.911
350.30	11.855
350.50	11.739
350.71	11.896
350.92	10.003
351.12	10.062
351.33	9.797
351.54	9.587
351.74	11.708
351.95	8.919
352.16	11.950
352.37	11.409
352.57	10.784
352.78	9.156
352.99	9.920
353.19	10.605
353.40	9.486
353.61	12.070
353.82	12.248
354.02	10.169
354.23	11.202
354.44	12.698
354.64	11.353
354.85	11.497
355.06	11.963
355.26	10.125
355.47	10.669
355.68	12.701
355.88	12.346
356.09	11.037
356.30	10.598
356.51	12.493
356.71	12.505
356.92	8.588
357.13	12.032
357.33	13.534
357.54	11.078
357.75	9.469
357.95	11.977
358.16	10.310
358.37	14.057
358.57	10.739
358.78	14.544
358.99	10.868
359.19	12.012
359.40	12.783
359.61	12.356
359.81	12.912
360.02	14.881
360.23	10.169
360.43	12.965
360.64	12.033
360.85	12.154
361.05	8.684
361.26	13.671
361.47	12.306
361.67	14.270
361.88	10.254
362.09	13.756
362.29	10.610
362.50	11.198
362.70	11.621
362.91	13.949
363.12	11.783
363.32	14.149
363.53	12.938
363.74	13.641
363.94	10.423
364.15	14.303
364.36	13.224
364.56	10.769
364.77	12.329
364.98	15.515
365.18	12.288
365.39	14.262
365.59	10.863
365.80	12.733
366.01	12.236
366.21	11.097
366.42	10.203
366.63	13.055
366.83	10.672
367.04	10.612
367.24	13.196
367.45	10.631
367.66	9.677
367.86	12.052
368.07	11.250
368.28	11.208
368.48	10.502
368.69	9.558
368.89	11.044
369.10	12.263
369.31	10.729
369.51	11.818
369.72	13.189
369.92	13.834
370.13	10.063
370.34	12.649
370.54	9.109
370.75	12.886
370.95	8.561
371.16	12.101
371.37	10.507
371.57	11.724
371.78	12.133
371.98	12.434
372.19	11.701
372.40	13.599
372.60	13.070
372.81	11.755
373.01	10.526
373.22	11.755
373.43	13.060
373.63	12.723
373.84	12.567
374.04	13.127
374.25	11.555
374.46	13.602
374.66	12.489
374.87	13.407
375.07	10.123
375.28	11.288
375.48	12.034
375.69	14.368
375.90	10.165
376.10	10.576
376.31	10.670
376.51	11.442
376.72	11.297
376.92	12.151
377.13	12.330
377.34	14.035
377.54	12.161
377.75	15.084
377.95	12.209
378.16	14.394
378.36	13.463
378.57	15.329
378.77	12.532
378.98	13.805
379.19	12.715
379.39	13.523
379.60	13.620
379.80	14.970
380.01	14.509
380.21	13.121
380.42	13.584
380.62	14.565
380.83	14.268
381.04	13.426
381.24	14.298
381.45	14.073
381.65	13.450
381.86	14.950
382.06	14.983
382.27	12.986
382.47	13.527
382.68	15.996
382.88	13.404
383.09	14.065
383.29	13.853
383.50	15.677
383.71	13.809
383.91	15.217
384.12	14.116
384.32	15.522
384.53	15.349
384.73	14.826
384.94	15.032
385.14	15.979
385.35	14.950
385.55	15.571
385.76	15.244
385.96	16.265
386.17	16.832
386.37	17.345
386.58	15.369
386.78	18.078
386.99	15.837
387.19	17.952
387.40	15.178
387.60	18.826
387.81	16.771
388.01	17.611
388.22	17.130
388.42	18.927
388.63	18.281
388.83	19.782
389.04	16.275
389.24	18.850
389.45	17.362
389.65	18.066
389.86	17.981
390.06	17.391
390.27	17.452
390.47	18.368
390.68	17.982
390.88	19.691
391.09	19.701
391.29	20.694
391.50	19.815
391.70	21.300
391.91	20.193
392.11	20.053
392.32	21.219
392.52	21.131
392.73	20.389
392.93	21.099
393.14	20.537
393.34	21.222
393.55	21.747
393.75	21.967
393.95	20.814
394.16	22.381
394.36	21.962
394.57	22.471
394.77	20.978
394.98	22.455
395.18	21.941
395.39	22.573
395.59	22.037
395.80	23.450
396.00	21.731
396.21	23.433
396.41	22.020
396.61	23.342
396.82	22.032
397.02	24.608
397.23	22.408
397.43	23.237
397.64	21.867
397.84	24.395
398.05	22.040
398.25	23.647
398.45	23.128
398.66	23.968
398.86	22.609
399.07	23.960
399.27	23.069
399.48	24.460
399.68	22.080
399.89	23.869
400.09	23.315
400.29	24.575
400.50	23.007
400.70	23.972
400.91	22.709
401.11	24.493
401.32	23.001
401.52	23.296
401.72	22.752
401.93	24.127
402.13	23.400
402.34	23.775
402.54	23.516
402.75	24.171
402.95	21.607
403.15	24.724
403.36	22.393
403.56	23.963
403.77	22.611
403.97	23.896
404.17	22.558
404.38	24.371
404.58	23.465
404.79	25.049
404.99	24.079
405.19	24.321
405.40	24.290
405.60	24.199
405.81	23.077
406.01	23.582
406.21	24.197
406.42	25.193
406.62	23.997
406.83	24.719
407.03	23.343
407.23	23.735
407.44	23.577
407.64	23.791
407.85	23.239
408.05	24.440
408.25	22.685
408.46	24.808
408.66	23.078
408.87	23.211
409.07	23.125
409.27	24.027
409.48	22.803
409.68	23.846
409.88	22.131
410.09	23.670
410.29	23.723
410.50	23.980
410.70	22.200
410.90	23.863
411.11	23.405
411.31	23.359
411.51	24.175
411.72	23.970
411.92	22.272
412.12	23.190
412.33	22.461
412.53	22.967
412.74	21.806
412.94	23.669
413.14	23.073
413.35	22.661
413.55	22.328
413.75	23.473
413.96	22.360
414.16	22.025
414.36	22.344
414.57	22.936
414.77	21.403
414.97	23.480
415.18	21.471
415.38	22.663
415.58	22.592
415.79	22.674
415.99	22.201
416.19	22.812
416.40	22.735
416.60	22.840
416.80	22.829
417.01	23.168
417.21	22.700
417.41	22.680
417.62	22.729
417.82	23.470
418.02	21.647
418.23	22.950
418.43	21.800
418.63	22.808
418.84	22.554
419.04	22.704
419.24	22.739
419.45	22.482
419.65	23.170
419.85	22.416
420.06	22.375
420.26	22.175
420.46	22.836
420.67	22.498
420.87	22.538
421.07	22.500
421.28	22.846
421.48	22.530
421.68	22.386
421.88	22.456
422.09	22.148
422.29	22.306
422.49	22.428
422.70	22.206
422.90	22.195
423.10	21.984
423.31	22.362
423.51	22.222
423.71	21.886
423.91	22.379
424.12	21.979
424.32	22.115
424.52	22.169
424.73	21.807
424.93	21.979
425.13	22.182
425.33	21.892
425.54	21.546
425.74	21.969
425.94	22.061
426.15	21.760
426.35	21.913
426.55	21.818
426.75	22.454
426.96	22.264
427.16	22.232
427.36	21.986
427.57	22.138
427.77	22.195
427.97	22.167
428.17	21.287
428.38	21.907
428.58	21.619
428.78	22.213
428.98	21.033
429.19	22.104
429.39	21.483
429.59	21.531
429.79	21.062
430.00	21.989
430.20	21.189
430.40	21.713
430.60	21.141
430.81	21.568
431.01	21.033
431.21	21.504
431.41	21.164
431.62	21.137
431.82	21.179
432.02	21.896
432.22	21.379
432.43	21.050
432.63	21.030
432.83	21.176
433.03	21.375
433.24	21.037
433.44	21.138
433.64	21.848
433.84	21.392
434.05	21.681
434.25	21.495
434.45	21.716
434.65	21.991
434.85	21.704
435.06	21.735
435.26	22.350
435.46	21.774
435.66	22.177
435.87	22.441
436.07	21.292
436.27	21.549
436.47	22.045
436.67	21.834
436.88	21.250
437.08	21.216
437.28	21.736
437.48	21.703
437.69	21.340
437.89	21.954
438.09	22.384
438.29	21.372
438.49	22.169
438.70	22.045
438.90	21.669
439.10	21.458
439.30	21.783
439.50	21.991
439.71	22.111
439.91	22.352
440.11	22.025
440.31	21.555
440.51	21.771
440.72	21.615
440.92	21.526
441.12	21.896
441.32	21.966
441.52	22.065
441.72	22.278
441.93	22.305
442.13	21.547
442.33	22.158
442.53	21.845
442.73	22.270
442.94	22.243
443.14	22.511
443.34	22.256
443.54	22.121
443.74	22.048
443.94	22.035
444.15	22.252
444.35	22.056
444.55	22.312
444.75	21.945
444.95	21.634
445.15	21.732
445.36	22.464
445.56	21.260
445.76	21.762
445.96	21.987
446.16	21.910
446.36	21.328
446.57	21.598
446.77	21.971
446.97	22.351
447.17	21.816
447.37	21.893
447.57	22.225
447.77	22.238
447.98	21.850
448.18	22.122
448.38	22.527
448.58	21.976
448.78	22.420
448.98	21.895
449.18	22.285
449.39	22.140
449.59	22.324
449.79	22.221
449.99	21.806
450.19	22.441
450.39	22.144
450.59	22.255
450.79	21.970
451.00	22.451
451.20	22.207
451.40	21.828
451.60	21.656
451.80	22.346
452.00	22.315
452.20	21.548
452.40	21.794
452.61	21.713
452.81	21.684
453.01	22.062
453.21	21.925
453.41	22.215
453.61	21.726
453.81	21.350
454.01	21.638
454.21	21.704
454.42	21.881
454.62	22.211
454.82	21.632
455.02	21.573
455.22	21.942
455.42	22.197
455.62	21.469
455.82	21.549
456.02	21.939
456.23	22.231
456.43	21.659
456.63	21.722
456.83	21.175
457.03	21.708
457.23	22.125
457.43	22.100
457.63	21.213
457.83	21.837
458.03	21.462
458.23	21.332
458.43	21.338
458.64	21.447
458.84	21.153
459.04	21.692
459.24	21.193
459.44	21.312
459.64	21.286
459.84	21.225
460.04	21.177
460.24	21.326
460.44	21.214
460.64	21.285
460.84	21.086
461.04	21.329
461.24	21.007
461.45	21.170
461.65	21.153
461.85	21.572
462.05	21.162
462.25	21.485
462.45	21.362
462.65	21.534
462.85	21.222
463.05	21.464
463.25	21.316
463.45	21.298
463.65	21.644
463.85	21.159
464.05	21.057
464.25	21.253
464.45	21.041
464.65	21.389
464.85	21.009
465.05	21.234
465.26	20.416
465.46	21.575
465.66	20.798
465.86	21.566
466.06	21.332
466.26	21.524
466.46	20.728
466.66	20.972
466.86	20.705
467.06	20.820
467.26	20.765
467.46	21.546
467.66	21.057
467.86	21.237
468.06	21.477
468.26	20.759
468.46	20.850
468.66	21.470
468.86	21.300
469.06	21.060
469.26	21.179
469.46	21.391
469.66	21.296
469.86	21.751
470.06	20.895
470.26	21.369
470.46	21.313
470.66	21.656
470.86	20.908
471.06	21.471
471.26	21.302
471.46	21.652
471.66	21.284
471.86	21.288
472.06	21.459
472.26	21.880
472.46	21.323
472.66	21.854
472.86	21.962
473.06	21.529
473.26	22.024
473.46	21.694
473.66	21.725
473.86	21.900
474.06	21.844
474.26	21.775
474.46	21.808
474.66	21.964
474.86	21.292
475.06	22.166
475.26	22.090
475.46	21.589
475.66	22.140
475.86	22.280
476.06	21.791
476.26	22.215
476.46	21.777
476.66	22.490
476.86	21.822
477.06	22.461
477.26	22.187
477.46	22.441
477.65	22.426
477.85	22.042
478.05	22.135
478.25	22.465
478.45	21.978
478.65	22.536
478.85	22.251
479.05	22.622
479.25	22.732
479.45	22.471
479.65	22.364
479.85	22.883
480.05	22.678
480.25	22.998
480.45	22.803
480.65	22.884
480.85	23.073
481.05	22.801
481.25	22.627
481.44	22.849
481.64	22.800
481.84	22.820
482.04	23.118
482.24	22.807
482.44	22.737
482.64	22.908
482.84	22.684
483.04	22.829
483.24	22.436
483.44	22.974
483.64	22.693
483.84	22.658
484.04	22.932
484.23	23.130
484.43	23.629
484.63	23.377
484.83	23.648
485.03	24.670
485.23	24.637
485.43	24.556
485.63	24.085
485.83	23.874
486.03	23.625
486.23	23.924
486.42	23.743
486.62	23.871
486.82	23.852
487.02	23.472
487.22	23.840
487.42	23.236
487.62	23.586
487.82	23.770
488.02	23.451
488.22	23.464
488.41	23.500
488.61	23.547
488.81	23.517
489.01	23.745
489.21	23.737
489.41	23.803
489.61	23.622
489.81	24.033
490.01	23.925
490.20	23.928
490.40	23.976
490.60	23.808
490.80	23.830
491.00	23.696
491.20	23.921
491.40	23.715
491.60	23.372
491.79	23.520
491.99	23.788
492.19	23.566
492.39	23.635
492.59	23.584
492.79	23.882
492.99	23.895
493.19	24.020
493.38	24.024
493.58	24.153
493.78	24.260
493.98	24.359
494.18	24.236
494.38	24.360
494.58	24.389
494.77	24.615
494.97	24.402
495.17	24.536
495.37	24.949
495.57	24.558
495.77	25.049
495.96	24.305
496.16	24.699
496.36	24.932
496.56	24.976
496.76	24.900
496.96	24.607
497.15	24.631
497.35	25.006
497.55	24.732
497.75	24.744
497.95	25.294
498.15	25.005
498.34	25.512
498.54	24.605
498.74	25.574
498.94	25.212
499.14	25.909
499.34	25.131
499.53	25.515
499.73	25.394
499.93	25.546
500.13	25.282
500.33	25.511
500.52	25.720
500.72	26.060
500.92	26.023
501.12	25.882
501.32	26.239
501.52	26.195
501.71	26.158
501.91	26.425
502.11	26.261
502.31	25.632
502.51	26.654
502.70	26.594
502.90	26.385
503.10	26.085
503.30	26.764
503.50	26.561
503.69	26.151
503.89	26.050
504.09	26.379
504.29	26.707
504.48	26.685
504.68	26.994
504.88	26.418
505.08	26.730
505.28	26.243
505.47	26.539
505.67	26.665
505.87	26.762
506.07	26.286
506.27	26.758
506.46	26.270
506.66	26.890
506.86	25.951
507.06	26.736
507.25	27.136
507.45	26.303
507.65	26.465
507.85	26.720
508.04	26.574
508.24	26.711
508.44	26.740
508.64	26.366
508.83	26.164
509.03	26.502
509.23	26.828
509.43	26.565
509.63	26.707
509.82	26.473
510.02	26.882
510.22	26.860
510.42	26.968
510.61	26.442
510.81	27.000
511.01	26.821
511.21	26.999
511.40	27.204
511.60	27.180
511.80	26.458
511.99	26.895
512.19	26.711
512.39	26.602
512.59	26.911
512.78	26.876
512.98	26.783
513.18	26.584
513.38	26.935
513.57	26.599
513.77	27.035
513.97	26.717
514.17	27.183
514.36	26.984
514.56	27.013
514.76	27.099
514.95	27.421
515.15	26.945
515.35	26.964
515.55	27.199
515.74	26.915
515.94	26.944
516.14	27.028
516.33	26.768
516.53	27.182
516.73	27.011
516.93	26.893
517.12	27.312
517.32	27.225
517.52	27.524
517.71	27.076
517.91	26.714
518.11	27.314
518.30	26.712
518.50	26.465
518.70	26.890
518.90	26.692
519.09	26.934
519.29	26.991
519.49	26.775
519.68	26.587
519.88	26.560
520.08	26.795
520.27	26.933
520.47	27.141
520.67	27.145
520.86	26.824
521.06	27.154
521.26	27.321
521.45	27.201
521.65	26.972
521.85	26.999
522.04	27.337
522.24	27.245
522.44	27.238
522.63	26.627
522.83	27.399
523.03	27.095
523.22	27.024
523.42	27.464
523.62	27.362
523.81	27.695
524.01	27.573
524.21	27.645
524.40	27.401
524.60	27.116
524.80	27.061
524.99	27.569
525.19	26.994
525.39	27.253
525.58	27.188
525.78	27.161
525.98	26.989
526.17	27.295
526.37	27.324
526.57	27.278
526.76	27.152
526.96	27.069
527.15	27.377
527.35	27.399
527.55	27.127
527.74	27.353
527.94	27.120
528.14	27.186
528.33	27.211
528.53	26.889
528.72	27.193
528.92	27.488
529.12	27.398
529.31	27.571
529.51	27.710
529.71	27.616
529.90	27.930
530.10	27.903
530.29	27.914
530.49	28.231
530.69	27.937
530.88	27.897
531.08	27.587
531.28	27.750
531.47	27.917
531.67	28.134
531.86	27.351
532.06	27.764
532.26	27.441
532.45	27.619
532.65	27.482
532.84	27.398
533.04	27.608
533.24	27.555
533.43	27.264
533.63	27.665
533.82	27.642
534.02	27.810
534.22	27.754
534.41	27.870
534.61	27.917
534.80	27.714
535.00	28.163
535.19	27.853
535.39	27.804
535.59	27.962
535.78	27.869
535.98	27.829
536.17	28.083
536.37	28.162
536.57	27.948
536.76	27.649
536.96	28.052
537.15	28.073
537.35	27.685
537.54	27.883
537.74	28.196
537.93	28.026
538.13	28.183
538.33	28.396
538.52	28.389
538.72	28.212
538.91	28.510
539.11	28.909
539.30	28.627
539.50	28.716
539.70	28.195
539.89	28.072
540.09	28.596
540.28	28.091
540.48	28.402
540.67	28.393
540.87	28.395
541.06	28.602
541.26	28.037
541.45	28.477
541.65	28.279
541.85	28.056
542.04	28.226
542.24	28.970
542.43	28.750
542.63	28.638
542.82	28.506
543.02	28.807
543.21	29.086
543.41	28.744
543.60	28.964
543.80	29.051
543.99	28.826
544.19	29.060
544.38	29.033
544.58	28.872
544.77	28.609
544.97	28.775
545.16	29.036
545.36	28.790
545.56	29.108
545.75	28.811
545.95	29.110
546.14	28.943
546.34	28.912
546.53	29.230
546.73	29.135
546.92	29.138
547.12	28.792
547.31	29.147
547.51	29.155
547.70	29.174
547.90	29.050
548.09	29.343
548.29	29.297
548.48	29.390
548.68	29.392
548.87	29.631
549.07	30.085
549.26	29.895
549.46	29.720
549.65	29.528
549.84	29.550
550.04	29.772
550.23	30.163
550.43	29.845
550.62	29.727
550.82	29.819
551.01	30.068
551.21	30.291
551.40	29.924
551.60	30.384
551.79	30.042
551.99	30.020
552.18	30.217
552.38	30.429
552.57	29.942
552.77	30.174
552.96	30.416
553.16	30.502
553.35	30.803
553.54	30.232
553.74	31.238
553.93	30.285
554.13	30.425
554.32	31.016
554.52	30.630
554.71	31.070
554.91	30.833
555.10	31.165
555.29	30.625
555.49	30.689
555.68	30.837
555.88	31.354
556.07	31.288
556.27	31.288
556.46	31.247
556.66	31.319
556.85	31.787
557.04	31.408
557.24	32.059
557.43	31.737
557.63	31.422
557.82	32.457
558.02	31.471
558.21	31.617
558.40	32.153
558.60	31.914
558.79	32.566
558.99	32.051
559.18	32.200
559.38	32.469
559.57	32.469
559.76	32.928
559.96	32.268
560.15	32.559
560.35	32.606
560.54	32.255
560.73	32.631
560.93	32.683
561.12	32.922
561.32	33.176
561.51	32.882
561.70	32.589
561.90	33.545
562.09	33.714
562.29	33.182
562.48	32.696
562.67	33.552
562.87	33.393
563.06	33.329
563.26	33.281
563.45	33.662
563.64	33.683
563.84	33.374
564.03	33.664
564.23	34.268
564.42	34.749
564.61	33.943
564.81	33.751
565.00	34.618
565.20	34.625
565.39	34.240
565.58	34.708
565.78	33.547
565.97	34.846
566.16	34.924
566.36	34.410
566.55	34.932
566.74	35.052
566.94	34.629
567.13	34.873
567.33	35.295
567.52	34.674
567.71	35.118
567.91	35.110
568.10	35.287
568.29	35.148
568.49	35.110
568.68	35.602
568.87	35.239
569.07	35.329
569.26	35.566
569.45	35.515
569.65	36.022
569.84	35.961
570.04	35.702
570.23	36.322
570.42	35.477
570.62	36.233
570.81	36.296
571.00	35.284
571.20	36.734
571.39	35.986
571.58	36.163
571.78	36.510
571.97	36.339
572.16	36.513
572.36	36.130
572.55	36.916
572.74	36.575
572.94	36.099
573.13	36.502
573.32	36.436
573.51	36.392
573.71	36.512
573.90	36.968
574.09	36.630
574.29	36.602
574.48	36.437
574.67	36.687
574.87	37.174
575.06	37.047
575.25	36.346
575.45	37.021
575.64	36.591
575.83	36.691
576.03	36.987
576.22	37.325
576.41	37.313
576.60	37.332
576.80	37.243
576.99	37.264
577.18	37.020
577.38	37.115
577.57	37.489
577.76	38.009
577.95	37.072
578.15	37.010
578.34	37.180
578.53	36.910
578.73	36.928
578.92	37.884
579.11	36.886
579.30	37.042
579.50	37.748
579.69	37.214
579.88	36.645
580.08	37.229
580.27	37.359
580.46	37.999
580.65	37.994
580.85	37.405
581.04	37.629
581.23	37.001
581.42	37.450
581.62	37.637
581.81	36.847
582.00	36.343
582.19	37.444
582.39	38.000
582.58	37.617
582.77	37.553
582.96	37.238
583.16	37.116
583.35	37.547
583.54	37.161
583.73	37.226
583.93	38.216
584.12	37.562
584.31	37.670
584.50	37.192
584.70	37.311
584.89	37.501
585.08	38.172
585.27	37.741
585.47	36.733
585.66	37.564
585.85	37.107
586.04	37.240
586.24	37.515
586.43	36.903
586.62	36.920
586.81	37.166
587.00	37.067
587.20	37.011
587.39	37.006
587.58	37.080
587.77	37.280
587.97	37.975
588.16	37.279
588.35	36.543
588.54	36.931
588.73	37.335
588.93	37.482
589.12	37.202
589.31	37.695
589.50	36.811
589.69	36.400
589.89	37.247
590.08	36.817
590.27	37.812
590.46	36.583
590.65	37.487
590.85	37.638
591.04	37.434
591.23	37.201
591.42	37.266
591.61	36.897
591.81	37.725
592.00	37.325
592.19	38.143
592.38	37.156
592.57	37.860
592.77	37.203
592.96	37.651
593.15	37.621
593.34	36.924
593.53	37.979
593.72	37.415
593.92	37.592
594.11	37.906
594.30	37.650
594.49	37.324
594.68	37.368
594.87	37.330
595.07	37.639
595.26	37.693
595.45	37.573
595.64	37.501
595.83	37.612
596.02	37.345
596.22	37.079
596.41	38.689
596.60	37.085
596.79	37.394
596.98	37.616
597.17	37.413
597.37	38.314
597.56	37.286
597.75	37.676
597.94	38.245
598.13	37.870
598.32	37.421
598.51	38.287
598.71	38.414
598.90	38.441
599.09	38.035
599.28	38.609
599.47	38.737
599.66	38.594
599.85	38.734
600.05	38.395
600.24	39.061
600.43	38.295
600.62	38.643
600.81	38.183
601.00	38.875
601.19	38.514
601.38	39.278
601.58	39.284
601.77	38.952
601.96	38.659
602.15	39.516
602.34	38.602
602.53	39.674
602.72	38.346
602.91	39.721
603.10	39.003
603.30	39.071
603.49	38.285
603.68	39.133
603.87	38.592
604.06	39.502
604.25	39.437
604.44	39.128
604.63	39.379
604.82	38.440
605.01	39.098
605.21	39.254
605.40	39.560
605.59	39.219
605.78	39.190
605.97	39.047
606.16	39.050
606.35	39.044
606.54	39.170
606.73	38.951
606.92	39.799
607.11	39.248
607.30	38.908
607.50	39.155
607.69	38.860
607.88	38.132
608.07	38.629
608.26	39.289
608.45	38.990
608.64	38.702
608.83	39.362
609.02	39.096
609.21	39.566
609.40	37.453
609.59	38.780
609.78	38.457
609.97	37.962
610.16	39.026
610.35	38.838
610.55	38.874
610.74	38.067
610.93	38.409
611.12	38.490
611.31	38.658
611.50	38.649
611.69	38.525
611.88	39.023
612.07	39.444
612.26	38.398
612.45	38.608
612.64	38.345
612.83	38.964
613.02	38.660
613.21	38.490
613.40	37.951
613.59	38.529
613.78	38.275
613.97	38.411
614.16	37.489
614.35	38.488
614.54	37.754
614.73	38.485
614.92	38.923
615.11	37.992
615.30	37.057
615.49	38.243
615.68	37.363
615.87	37.437
616.07	37.525
616.26	37.207
616.45	38.036
616.64	37.216
616.83	37.360
617.02	37.690
617.21	36.831
617.40	37.154
617.59	36.709
617.78	37.385
617.97	36.965
618.16	36.418
618.35	36.947
618.54	37.253
618.73	36.447
618.92	36.777
619.11	36.942
619.30	37.722
619.49	37.022
619.68	36.876
619.86	36.533
620.05	37.345
620.24	37.079
620.43	36.459
620.62	36.778
620.81	36.674
621.00	36.620
621.19	36.253
621.38	36.078
621.57	36.330
621.76	36.429
621.95	36.295
622.14	35.376
622.33	36.550
622.52	36.188
622.71	35.902
622.90	35.983
623.09	37.485
623.28	36.188
623.47	37.188
623.66	34.872
623.85	37.159
624.04	35.057
624.23	35.984
624.42	36.394
624.61	36.662
624.80	35.636
624.99	36.235
625.18	35.487
625.36	35.698
625.55	35.595
625.74	35.927
625.93	35.896
626.12	36.005
626.31	35.732
626.50	36.610
626.69	36.264
626.88	36.253
627.07	35.622
627.26	36.009
627.45	35.767
627.64	36.127
627.83	35.577
628.02	36.444
628.20	35.340
628.39	36.146
628.58	35.780
628.77	36.779
628.96	35.695
629.15	35.824
629.34	36.728
629.53	36.099
629.72	36.802
629.91	35.328
630.10	35.855
630.29	36.240
630.47	36.597
630.66	35.348
630.85	35.950
631.04	36.662
631.23	35.846
631.42	36.377
631.61	35.579
631.80	35.969
631.99	35.750
632.18	36.041
632.36	36.095
632.55	34.990
632.74	35.174
632.93	35.406
633.12	35.383
633.31	35.647
633.50	36.069
633.69	35.927
633.88	35.433
634.06	35.297
634.25	35.260
634.44	35.686
634.63	35.270
634.82	35.670
635.01	35.414
635.20	34.393
635.39	36.013
635.57	35.471
635.76	36.139
635.95	35.001
636.14	35.413
636.33	35.011
636.52	35.556
636.71	35.142
636.89	35.829
637.08	35.441
637.27	34.646
637.46	35.751
637.65	34.974
637.84	35.007
638.03	35.029
638.21	35.148
638.40	34.970
638.59	35.307
638.78	34.798
638.97	34.596
639.16	34.735
639.34	34.864
639.53	34.206
639.72	34.544
639.91	35.402
640.10	34.708
640.29	34.759
640.47	34.271
640.66	34.975
640.85	35.216
641.04	33.928
641.23	34.628
641.42	34.090
641.60	34.478
641.79	33.608
641.98	34.941
642.17	34.331
642.36	34.493
642.54	34.233
642.73	33.803
642.92	33.979
643.11	33.336
643.30	33.420
643.49	34.293
643.67	32.593
643.86	34.223
644.05	33.195
644.24	33.632
644.43	34.071
644.61	33.721
644.80	33.603
644.99	33.286
645.18	33.259
645.37	33.999
645.55	32.749
645.74	34.396
645.93	33.565
646.12	32.563
646.31	34.300
646.49	34.070
646.68	33.612
646.87	33.910
647.06	34.040
647.24	34.533
647.43	33.365
647.62	34.424
647.81	33.140
648.00	34.185
648.18	33.867
648.37	34.243
648.56	34.795
648.75	33.255
648.93	33.593
649.12	32.720
649.31	33.547
649.50	34.232
649.68	32.576
649.87	34.014
650.06	32.898
650.25	34.125
650.43	33.269
650.62	33.547
650.81	33.011
651.00	34.428
651.18	33.289
651.37	34.454
651.56	31.097
651.75	34.707
651.93	33.531
652.12	33.234
652.31	32.400
652.50	32.471
652.68	33.135
652.87	33.379
653.06	33.000
653.25	32.845
653.43	32.254
653.62	32.475
653.81	32.763
654.00	33.035
654.18	32.591
654.37	32.749
654.56	31.216
654.74	32.795
654.93	31.489
655.12	32.778
655.31	31.583
655.49	33.686
655.68	31.338
655.87	32.517
656.05	30.939
656.24	31.831
656.43	30.704
656.62	31.541
656.80	31.033
656.99	31.739
657.18	30.245
657.36	31.666
657.55	31.591
657.74	31.665
657.93	30.595
658.11	31.497
658.30	30.857
658.49	31.261
658.67	31.080
658.86	30.909
659.05	30.022
659.23	30.955
659.42	29.599
659.61	30.454
659.79	29.444
659.98	30.284
660.17	30.342
660.35	30.459
660.54	30.337
660.73	30.247
660.91	29.482
661.10	30.319
661.29	29.329
661.47	31.057
661.66	29.759
661.85	30.163
662.03	29.870
662.22	29.378
662.41	27.460
662.59	28.394
662.78	27.991
662.97	28.026
663.15	26.977
663.34	26.921
663.53	25.917
663.71	28.274
663.90	27.533
664.09	27.414
664.27	26.365
664.46	26.836
664.65	25.456
664.83	26.124
665.02	25.651
665.21	25.857
665.39	24.373
665.58	26.312
665.77	25.226
665.95	25.232
666.14	24.445
666.32	24.399
666.51	24.305
666.70	24.548
666.88	23.545
667.07	25.430
667.26	22.028
667.44	24.862
667.63	24.274
667.81	24.281
668.00	21.544
668.19	24.095
668.37	24.117
668.56	23.813
668.75	22.833
668.93	25.395
669.12	22.231
669.30	25.679
669.49	23.347
669.68	24.445
669.86	23.832
670.05	23.934
670.23	22.250
670.42	24.279
670.61	24.798
670.79	24.031
670.98	22.808
671.16	24.476
671.35	23.442
671.54	24.499
671.72	22.794
671.91	24.123
672.09	21.743
672.28	24.378
672.46	23.783
672.65	24.657
672.84	23.880
673.02	24.576
673.21	20.713
673.39	22.256
673.58	22.796
673.77	24.056
673.95	22.346
674.14	24.737
674.32	21.949
674.51	25.132
674.69	22.156
674.88	23.990
675.07	22.302
675.25	26.113
675.44	22.152
675.62	24.508
675.81	23.152
675.99	27.096
676.18	24.012
676.36	26.177
676.55	23.124
676.74	25.681
676.92	25.467
677.11	25.176
677.29	24.105
677.48	25.440
677.66	24.802
677.85	25.747
678.03	23.448
678.22	26.872
678.40	24.509
678.59	26.181
678.78	23.792
678.96	27.166
679.15	24.666
679.33	27.451
679.52	26.369
679.70	26.596
679.89	27.011
680.07	26.658
680.26	25.515
680.44	27.364
680.63	26.345
680.81	26.375
681.00	26.118
681.18	26.383
681.37	27.244
681.55	27.614
681.74	27.321
681.92	28.797
682.11	28.977
682.29	27.902
682.48	28.036
682.66	29.464
682.85	27.935
683.03	29.781
683.22	28.538
683.40	29.672
683.59	29.766
683.77	30.610
683.96	28.411
684.14	29.636
684.33	28.243
684.51	31.918
684.70	30.045
684.88	31.491
685.07	31.626
685.25	32.732
685.44	30.834
685.62	32.684
685.81	29.991
685.99	33.118
686.18	29.971
686.36	33.197
686.55	32.185
686.73	33.230
686.92	32.256
687.10	33.918
687.29	33.983
687.47	35.342
687.65	33.928
687.84	34.854
688.02	35.191
688.21	35.429
688.39	33.253
688.58	36.757
688.76	35.389
688.95	36.376
689.13	35.437
689.32	38.000
689.50	37.107
689.68	37.559
689.87	37.908
690.05	38.309
690.24	37.466
690.42	38.343
690.61	37.876
690.79	39.913
690.98	38.809
691.16	40.638
691.34	38.471
691.53	40.670
691.71	38.911
691.90	40.238
692.08	39.326
692.27	41.306
692.45	42.877
692.63	42.584
692.82	42.006
693.00	42.803
693.19	42.376
693.37	42.409
693.56	42.390
693.74	45.307
693.92	43.089
694.11	44.913
694.29	43.141
694.48	45.325
694.66	44.952
694.84	45.860
695.03	44.780
695.21	46.908
695.40	46.741
695.58	48.081
695.76	45.443
695.95	46.898
696.13	45.161
696.32	46.526
696.50	46.697
696.68	50.127
696.87	47.639
697.05	48.905
697.24	47.854
697.42	49.088
697.60	47.526
697.79	50.114
697.97	50.475
698.16	48.927
698.34	50.342
698.52	49.281
698.71	50.425
698.89	50.416
699.07	49.706
699.26	51.302
699.44	51.190
699.63	50.538
699.81	50.820
699.99	51.274
700.18	51.916
700.36	50.654
700.54	52.604
700.73	51.071
700.91	51.519
701.09	53.501
701.28	53.066
701.46	51.586
701.64	51.489
701.83	52.650
702.01	53.109
702.20	53.550
702.38	52.929
702.56	53.393
702.75	52.494
702.93	54.322
703.11	52.707
703.30	52.322
703.48	52.432
703.66	54.449
703.85	52.871
704.03	55.194
704.21	52.874
704.40	53.240
704.58	51.924
704.76	54.885
704.95	53.455
705.13	55.274
705.31	52.083
705.50	55.872
705.68	53.118
705.86	53.981
706.04	52.634
706.23	55.686
706.41	52.146
706.59	55.163
706.78	51.774
706.96	55.520
707.14	56.123
707.33	54.874
707.51	55.179
707.69	53.824
707.88	53.540
708.06	56.897
708.24	53.331
708.42	55.886
708.61	53.134
708.79	57.254
708.97	56.043
709.16	57.991
709.34	54.879
709.52	55.941
709.71	56.160
709.89	56.138
710.07	54.305
710.25	57.528
710.44	55.127
710.62	54.219
710.80	54.688
710.98	55.095
711.17	53.008
711.35	57.374
711.53	55.554
711.72	56.709
711.90	55.117
712.08	57.814
712.26	55.450
712.45	56.018
712.63	56.882
712.81	55.661
712.99	55.092
713.18	56.328
713.36	55.861
713.54	56.950
713.72	55.675
713.91	54.709
714.09	54.257
714.27	56.943
714.45	56.200
714.64	58.211
714.82	56.705
715.00	56.961
715.18	55.047
715.37	56.521
715.55	57.939
715.73	57.586
715.91	56.092
716.10	57.857
716.28	54.941
716.46	56.986
716.64	55.664
716.83	56.788
717.01	56.082
717.19	58.852
717.37	54.196
717.55	57.493
717.74	56.097
717.92	56.201
718.10	54.472
718.28	57.248
718.47	56.101
718.65	56.721
718.83	57.250
719.01	56.780
719.19	56.748
719.38	56.262
719.56	57.033
719.74	56.046
719.92	51.572
720.10	56.978
720.29	55.637
720.47	57.236
720.65	56.561
720.83	56.723
721.01	52.778
721.20	56.708
721.38	54.745
721.56	56.484
721.74	55.825
721.92	56.711
722.11	51.368
722.29	55.695
722.47	54.973
722.65	56.580
722.83	51.983
723.01	57.736
723.20	51.715
723.38	56.644
723.56	54.663
723.74	57.111
723.92	54.713
724.10	58.803
724.29	54.141
724.47	57.979
724.65	53.066
724.83	56.039
725.01	52.893
725.19	56.459
725.38	53.455
725.56	55.583
725.74	52.897
725.92	57.208
726.10	54.237
726.28	55.935
726.46	53.611
726.65	60.000
726.83	53.220
727.01	57.733
727.19	56.737
727.37	55.706
727.55	56.364
727.73	57.780
727.92	56.506
728.10	56.767
728.28	53.934
728.46	59.231
728.64	56.263
728.82	57.559
729.00	56.392
729.19	59.542
729.37	56.025
729.55	57.662
729.73	53.298
729.91	59.190
730.09	54.285
730.27	57.031
730.45	54.327
730.63	57.800
730.82	56.493
731.00	55.707
731.18	56.748
731.36	57.595
731.54	56.435
731.72	57.264
731.90	57.004
732.08	58.501
732.26	55.687
732.45	58.390
732.63	56.909
732.81	58.281
732.99	57.497
733.17	58.152
733.35	54.963
733.53	57.004
733.71	56.633
733.89	61.021
734.07	56.290
734.25	60.784
734.44	55.514
734.62	57.113
734.80	56.836
734.98	57.261
735.16	57.976
735.34	56.500
735.52	56.436
735.70	59.218
735.88	54.969
736.06	59.958
736.24	57.351
736.42	59.179
736.60	57.904
736.78	59.545
736.97	55.178
737.15	59.718
737.33	56.603
737.51	56.360
737.69	54.424
737.87	59.478
738.05	56.562
738.23	58.875
738.41	55.590
738.59	60.312
738.77	56.793
738.95	59.007
739.13	57.052
739.31	58.852
739.49	55.553
739.67	62.146
739.85	55.949
740.03	56.115
740.21	57.076
740.39	60.313
740.57	55.998
740.75	58.119
740.93	58.682
741.11	56.704
741.30	54.489
741.48	57.497
741.66	57.656
741.84	58.003
742.02	51.997
742.20	56.289
742.38	55.776
742.56	59.962
742.74	53.979
742.92	60.057
743.10	53.960
743.28	56.864
743.46	55.549
743.64	57.502
743.82	55.247
744.00	58.513
744.18	55.314
744.36	58.194
744.54	52.045
744.72	58.956
744.90	54.747
745.08	56.349
745.26	56.534
745.44	60.731
745.62	52.785
745.80	56.988
745.98	55.212
746.16	57.016
746.34	51.295
746.52	58.672
746.70	54.432
746.87	58.463
747.05	54.970
747.23	57.884
747.41	53.505
747.59	57.676
747.77	53.298
747.95	56.252
748.13	56.074
748.31	56.439
748.49	51.315
748.67	55.266
748.85	54.934
749.03	57.931
749.21	54.300
749.39	62.190
749.57	52.267
749.75	55.707
749.93	55.697
750.11	56.697
750.29	53.886
750.47	57.877
750.65	54.882
750.83	55.927
751.01	51.475
751.18	53.813
751.36	49.377
751.54	55.895
751.72	56.369
751.90	56.720
752.08	49.493
752.26	55.089
752.44	53.255
752.62	54.220
752.80	53.162
752.98	57.649
753.16	54.223
753.34	57.025
753.52	56.763
753.69	56.523
753.87	53.818
754.05	56.560
754.23	53.777
754.41	58.047
754.59	53.690
754.77	59.947
754.95	54.179
755.13	57.455
755.31	54.870
755.49	53.398
755.66	54.941
755.84	57.905
756.02	52.930
756.20	54.560
756.38	54.548
756.56	51.036
756.74	52.602
756.92	56.313
757.10	52.048
757.28	56.764
757.45	56.438
757.63	54.531
757.81	52.688
757.99	59.804
758.17	54.714
758.35	55.534
758.53	52.919
758.71	55.954
758.88	54.085
759.06	55.395
759.24	52.251
759.42	56.102
759.60	53.763
759.78	54.342
759.96	47.173
760.13	55.012
760.31	48.317
760.49	52.984
760.67	46.207
760.85	50.208
761.03	47.928
761.21	54.576
761.38	47.831
761.56	52.779
761.74	49.093
761.92	54.333
762.10	46.269
762.28	51.948
762.46	44.218
762.63	51.043
762.81	50.156
762.99	51.047
763.17	51.887
763.35	54.281
763.53	50.629
763.70	55.621
763.88	54.238
764.06	54.424
764.24	53.727
764.42	58.630
764.60	54.371
764.77	55.741
764.95	52.451
765.13	56.203
765.31	57.103
765.49	54.993
765.66	54.077
765.84	55.667
766.02	54.047
766.20	55.390
766.38	52.872
766.56	54.447
766.73	52.669
766.91	53.386
767.09	54.545
767.27	56.323
767.45	51.934
767.62	52.647
767.80	49.452
767.98	55.603
768.16	49.415
768.33	55.577
768.51	49.766
768.69	56.624
768.87	50.381
769.05	56.223
769.22	49.001
769.40	55.696
769.58	51.877
769.76	55.208
769.94	46.935
770.11	50.581
770.29	50.097
770.47	54.818
770.65	46.918
770.82	55.525
771.00	44.892
771.18	52.916
771.36	48.828
771.53	54.840
771.71	47.249
771.89	54.172
772.07	52.369
772.25	55.458
772.42	47.447
772.60	49.040
772.78	47.649
772.96	50.107
773.13	49.802
773.31	46.234
773.49	46.225
773.67	49.372
773.84	45.417
774.02	50.257
774.20	49.753
774.37	51.079
774.55	47.217
774.73	52.613
774.91	48.312
775.08	46.866
775.26	49.671
775.44	49.856
775.62	43.033
775.79	46.394
775.97	47.326
776.15	45.901
776.32	46.760
776.50	55.874
776.68	48.809
776.86	48.341
777.03	42.465
777.21	47.029
777.39	45.248
777.56	49.804
777.74	41.901
777.92	45.614
778.10	43.409
778.27	50.575
778.45	49.445
778.63	50.800
778.80	44.738
778.98	50.628
779.16	52.501
779.34	49.553
779.51	48.621
779.69	48.733
779.87	39.562
780.04	47.029
780.22	40.501
780.40	47.200
780.57	42.730
780.75	46.362
780.93	52.791
781.10	45.736
781.28	54.234
781.46	46.492
781.63	47.155
781.81	55.320
781.99	41.649
782.16	53.564
782.34	38.991
782.52	45.561
782.69	44.071
782.87	49.600
783.05	35.504
783.22	44.134
783.40	41.602
783.58	43.996
783.75	42.289
783.93	51.303
784.11	37.805
784.28	45.445
784.46	41.602
784.64	45.937
784.81	32.764
784.99	52.216
785.17	43.508
785.34	41.358
785.52	40.349
785.69	43.735
785.87	39.038
786.05	43.989
786.22	47.779
786.40	51.977
786.58	46.778
786.75	48.619
786.93	42.656
787.11	44.263
787.28	37.723
787.46	48.048
787.63	42.705
787.81	46.728
787.99	43.980
788.16	43.115
788.34	38.469
788.51	49.309
788.69	44.908
788.87	47.553
789.04	39.194
789.22	52.650
789.39	42.169
789.57	48.849
789.75	44.006
789.92	48.033
790.10	43.412
790.27	45.890
790.45	43.204
790.63	47.742
790.80	41.299
790.98	45.032
791.15	43.760
791.33	43.191
791.51	37.918
791.68	45.710
791.86	46.185
792.03	47.416
792.21	35.327
792.39	49.915
792.56	40.512
792.74	44.073
792.91	40.370
793.09	37.929
793.26	32.205
793.44	45.877
793.62	39.239
793.79	45.664
793.97	44.425
794.14	45.944
794.32	40.544
794.49	48.981
794.67	38.132
794.84	40.024
795.02	35.082
795.20	43.313
795.37	40.811
795.55	43.083
795.72	40.157
795.90	45.200
796.07	41.731
796.25	42.172
796.42	36.532
796.60	45.209
796.77	38.501
796.95	47.315
797.13	38.732
797.30	45.587
797.48	39.622
797.65	45.205
797.83	42.323
798.00	42.385
798.18	31.737
798.35	37.046
798.53	39.793
798.70	48.831
798.88	37.471
799.05	40.011
799.23	35.150
799.40	46.053
799.58	41.559
799.75	37.753
799.93	36.903
800.10	40.289
800.28	37.893
800.45	41.934
800.63	29.681
800.80	45.240
800.98	34.452
801.15	38.837
801.33	40.287
801.50	42.741
801.68	36.825
801.85	39.572
802.03	37.468
802.20	45.234
802.38	35.513
802.55	35.102
802.73	41.473
802.90	41.184
803.08	33.470
803.25	41.830
803.43	45.426
803.60	41.667
803.78	35.499
803.95	42.975
804.13	38.027
804.30	40.067
804.48	32.704
804.65	41.102
804.83	42.498
805.00	39.549
805.17	37.983
805.35	40.039
805.52	34.902
805.70	41.633
805.87	39.205
806.05	43.874
806.22	37.235
806.40	35.530
806.57	38.553
806.75	47.149
806.92	44.378
807.09	47.485
807.27	37.659
807.44	45.575
807.62	33.141
807.79	37.005
807.97	32.280
808.14	44.280
808.31	35.936
808.49	35.131
808.66	36.269
808.84	37.987
809.01	40.780
809.19	36.357
809.36	45.784
809.53	41.046
809.71	40.371
809.88	43.563
810.06	39.150
810.23	42.026
810.41	41.216
810.58	45.373
810.75	30.075
810.93	36.271
811.10	33.885
811.28	32.982
811.45	36.732
811.62	31.664
811.80	35.335
811.97	41.765
812.15	44.633
812.32	36.012
812.49	38.937
812.67	38.214
812.84	35.380
813.02	40.769
813.19	32.123
813.36	35.088
813.54	25.203
813.71	40.261
813.89	32.704
814.06	35.748
814.23	33.526
814.41	34.137
814.58	38.462
814.75	39.423
814.93	31.921
815.10	38.462
815.28	28.128
815.45	28.472
815.62	33.724
815.80	29.775
815.97	31.426
816.14	32.484
816.32	29.701
816.49	28.022
816.66	33.389
816.84	36.249
817.01	28.289
817.18	37.152
817.36	32.481
817.53	33.097
817.71	30.364
817.88	34.858
818.05	30.024
818.23	38.642
818.40	33.065
818.57	30.995
818.75	28.614
818.92	33.694
819.09	33.465
819.27	29.594
819.44	32.180
819.61	33.576
819.79	28.632
819.96	35.567
820.13	31.731
820.31	37.807
820.48	37.349
820.65	38.377
820.82	33.514
821.00	40.336
821.17	31.560
821.34	40.360
821.52	41.070
821.69	42.297
821.86	42.061
822.04	48.244
822.21	49.349
822.38	54.110
822.56	50.637
822.73	56.551
822.90	54.301
823.07	55.722
823.25	54.532
823.42	56.873
823.59	54.675
823.77	56.048
823.94	55.733
824.11	55.605
824.29	57.246
824.46	55.836
824.63	55.378
824.80	56.862
824.98	53.026
825.15	55.721
825.32	51.927
825.49	54.903
825.67	51.971
825.84	56.160
826.01	49.794
826.19	50.729
826.36	46.580
826.53	52.382
826.70	44.189
826.88	51.087
827.05	45.698
827.22	48.318
827.39	47.513
827.57	50.523
827.74	47.405
827.91	53.252
828.08	46.815
828.26	51.475
828.43	48.223
828.60	53.343
828.77	48.458
828.95	52.584
829.12	47.634
829.29	46.860
829.46	47.628
829.64	46.810
829.81	43.797
829.98	50.942
830.15	37.425
830.32	39.089
830.50	34.645
830.67	36.837
830.84	36.602
831.01	31.172
831.19	31.422
831.36	37.300
831.53	33.532
831.70	41.695
831.87	33.500
832.05	39.533
832.22	29.782
832.39	20.385
832.56	20.410
832.74	32.487
832.91	31.359
833.08	43.055
833.25	26.649
833.42	27.381
833.60	30.572
833.77	28.366
833.94	35.213
834.11	41.836
834.28	35.291
834.45	39.134
834.63	35.116
834.80	44.315
834.97	40.875
835.14	41.652
835.31	41.914
835.49	44.157
835.66	45.002
835.83	42.409
836.00	40.340
836.17	38.065
836.34	34.144
836.52	40.801
836.69	38.687
836.86	32.806
837.03	33.664
837.20	36.518
837.37	28.770
837.55	24.382
837.72	30.276
837.89	35.816
838.06	30.820
838.23	34.000
838.40	26.371
838.58	29.047
838.75	27.580
838.92	37.185
839.09	37.248
839.26	37.512
839.43	37.367
839.60	30.043
839.78	27.923
839.95	32.178
840.12	32.535
840.29	34.602
840.46	20.751
840.63	35.881
840.80	31.647
840.98	35.985
841.15	40.541
841.32	30.818
841.49	17.874
841.66	31.949
841.83	28.825
842.00	34.551
842.17	28.920
842.34	29.254
842.52	34.483
842.69	37.955
842.86	37.082
843.03	40.757
843.20	27.017
843.37	40.072
843.54	46.069
843.71	31.370
843.88	41.270
844.06	37.083
844.23	27.518
844.40	29.680
844.57	25.150
844.74	34.230
844.91	39.080
845.08	27.273
845.25	31.333
845.42	40.194
845.59	21.502
845.76	32.188
845.94	37.843
846.11	23.770
846.28	42.149
846.45	30.754
846.62	40.881
846.79	29.947
846.96	35.812
847.13	37.651
847.30	31.598
847.47	26.372
847.64	12.000
847.81	33.449
847.98	42.136
848.15	47.717
848.32	56.777
848.50	33.663
848.67	27.409
848.84	45.750
849.01	23.965
849.18	16.740
849.35	34.188
849.52	35.597
849.69	35.792
849.86	42.018
850.03	37.642
850.20	23.780
850.37	39.208
850.54	39.484
850.71	45.509
850.88	33.861
851.05	28.964
851.22	27.877
851.39	33.128
851.56	28.155
851.73	36.550
851.90	38.497
852.07	36.311
852.24	41.895
852.41	34.401
852.58	35.730
852.75	33.095
852.92	39.367
853.09	54.147
853.26	25.776
853.43	26.966
853.60	23.333
853.77	48.921
853.94	26.761
854.11	24.736
854.28	41.093
854.45	23.502
854.62	36.902
854.79	47.566
854.96	25.445
855.13	41.228
855.30	53.947
855.47	28.212
855.64	32.957
855.81	50.455
855.98	44.211
856.15	31.841
856.32	47.656
856.49	36.490
856.66	44.598
856.83	40.827
857.00	43.409
857.17	39.130
857.34	24.053
857.51	44.198
857.68	45.297
857.85	24.851
858.02	33.065
858.19	30.159
858.36	41.991
858.53	32.524
858.70	44.686
858.87	44.985
859.04	38.771
859.21	39.055
859.38	43.875
859.55	31.910
859.72	30.345
859.89	53.299
860.05	30.394
860.22	51.699
860.39	32.353
860.56	32.258
860.73	39.372
860.90	43.416
861.07	40.046
861.24	32.300
861.41	30.914
861.58	41.353
861.75	33.422
861.92	29.891
862.09	43.267
862.26	40.802
862.43	63.369
862.59	24.672
862.76	32.419
862.93	46.133
863.10	34.729
863.27	50.660
863.44	35.641
863.61	25.995
863.78	42.686
863.95	31.419
864.12	38.362
864.29	39.875
864.45	30.426
864.62	29.047
864.79	27.151
864.96	42.857
865.13	30.652
865.30	37.320
865.47	33.117
865.64	46.505
865.81	33.520
865.97	46.136
866.14	42.350
866.31	26.849
866.48	38.793
866.65	46.715
866.82	31.450
866.99	37.923
867.16	40.000
867.33	47.397
867.49	29.929
867.66	29.774
867.83	17.191
868.00	12.332
868.17	35.762
868.34	31.117
868.51	28.889
868.67	54.569
868.84	42.299
869.01	35.217
869.18	28.895
869.35	48.512
869.52	41.531
869.69	43.293
869.85	56.342
870.02	34.545
870.19	42.195
870.36	45.261
870.53	16.768
870.70	24.190
870.86	20.000
871.03	44.913
871.20	40.294
871.37	39.803
871.54	41.579
871.71	26.895
871.87	24.355
872.04	34.534
872.21	39.792
872.38	38.564
872.55	40.049
872.72	29.245
872.88	49.558
873.05	38.031
873.22	28.434
873.39	29.981
873.56	41.542
873.72	21.644
873.89	9.320
874.06	21.466
874.23	52.422
874.40	20.305
874.56	43.133
874.73	47.204
874.90	26.179
875.07	43.896
875.24	39.498
875.40	31.818
875.57	48.926
875.74	34.253
875.91	26.096
876.08	38.307
876.24	39.234
876.41	19.390
876.58	43.467
876.75	34.072
876.92	24.934
877.08	21.944
877.25	23.502
877.42	31.250
877.59	31.828
877.75	37.741
877.92	29.274
878.09	42.327
878.26	34.518
878.42	36.082
878.59	37.037
878.76	24.634
878.93	53.602
879.09	19.274
879.26	39.347
879.43	25.172
879.60	16.332
879.76	31.473
879.93	30.201
880.10	31.407
880.27	27.689
880.43	21.722
880.60	28.670
880.77	30.495
880.94	28.201
881.10	28.096
881.27	27.952
881.44	19.206
881.61	29.445
881.77	31.342
881.94	28.347
882.11	25.041
882.28	26.038
882.44	30.509
882.61	35.696
882.78	38.677
882.94	44.696
883.11	41.267
883.28	42.884
883.45	40.053
883.61	41.957
883.78	39.271
883.95	46.335
884.11	42.874
884.28	35.227
>>>>>End Processed Spectral Data<<<<<
