SpectraSuite Data File
++++++++++++++++++++++++++++++++++++
Date: Thu Sep 26 04:16:45 EST 2019
User: sgrac
Dark Spectrum Present: Yes
Reference Spectrum Present: Yes
Number of Sampled Component Spectra: 1
Spectrometers: USB4E01596
Integration Time (usec): 100000 (USB4E01596)
Spectra Averaged: 3 (USB4E01596)
Boxcar Smoothing: 0 (USB4E01596)
Correct for Electrical Dark: No (USB4E01596)
Strobe/Lamp Enabled: Yes (USB4E01596)
Correct for Detector Non-linearity: No (USB4E01596)
Correct for Stray Light: No (USB4E01596)
Number of Pixels in Processed Spectrum: 3648
>>>>>Begin Processed Spectral Data<<<<<
178.44	-1700.000
178.66	-1700.000
178.87	-1700.000
179.09	-353.061
179.30	-207.143
179.52	-1204.545
179.74	-594.444
179.95	-2392.308
180.17	327.711
180.38	2050.000
180.60	591.071
180.82	407.229
181.03	456.944
181.25	311.538
181.46	-1000.000
181.68	450.000
181.89	1513.333
182.11	-1338.889
182.33	335.922
182.54	402.299
182.76	451.786
182.97	1037.037
183.19	243.478
183.40	300.000
183.62	2437.500
183.84	326.087
184.05	2841.667
184.27	376.289
184.48	-647.222
184.70	2000.000
184.91	363.000
185.13	1733.333
185.34	835.135
185.56	2830.000
185.78	324.742
185.99	488.312
186.21	828.571
186.42	1320.000
186.64	1361.905
186.85	361.224
187.07	484.286
187.28	526.316
187.50	1234.783
187.72	1727.778
187.93	814.894
188.15	650.943
188.36	996.875
188.58	8433.333
188.79	785.000
189.01	6575.000
189.22	326.786
189.44	1454.167
189.65	3266.667
189.87	775.676
190.09	977.419
190.30	512.698
190.52	-28500.000
190.73	-24500.000
190.95	1279.167
191.16	311.009
191.38	267.391
191.59	976.471
191.81	467.241
192.02	900.000
192.24	457.534
192.45	378.947
192.67	659.574
192.88	538.462
193.10	291.860
193.31	320.225
193.53	1611.765
193.74	336.585
193.96	411.250
194.18	1405.263
194.39	265.217
194.61	2900.000
194.82	378.378
195.04	287.619
195.25	270.312
195.47	778.125
195.68	329.114
195.90	1255.000
196.11	273.000
196.33	1007.692
196.54	458.730
196.76	989.286
196.97	1168.182
197.19	972.222
197.40	-666.667
197.62	549.091
197.83	259.664
198.05	611.321
198.26	518.310
198.48	2450.000
198.69	0.000
198.91	3133.333
199.12	572.222
199.34	411.594
199.55	324.324
199.77	285.057
199.98	9366.667
200.20	428.788
200.41	274.766
200.63	1114.286
200.84	469.565
201.06	280.172
201.27	1433.333
201.49	1755.000
201.70	-1471.429
201.91	370.213
202.13	617.949
202.34	-518.750
202.56	566.667
202.77	2330.000
202.99	997.059
203.20	386.885
203.42	590.909
203.63	390.110
203.85	212.409
204.06	547.368
204.28	340.476
204.49	785.294
204.71	356.338
204.92	-15700.000
205.14	964.286
205.35	373.913
205.56	1020.833
205.78	566.102
205.99	596.226
206.21	287.963
206.42	288.636
206.64	953.125
206.85	289.286
207.07	236.000
207.28	302.564
207.50	506.061
207.71	976.190
207.93	-741.667
208.14	-2254.545
208.35	984.000
208.57	277.778
208.78	532.000
209.00	910.526
209.21	7300.000
209.43	315.385
209.64	884.375
209.86	4020.000
210.07	641.463
210.28	-418.421
210.50	8166.667
210.71	526.667
210.93	272.414
211.14	469.231
211.36	1326.316
211.57	651.786
211.78	1604.762
212.00	1062.500
212.21	465.517
212.43	735.714
212.64	280.583
212.86	484.615
213.07	288.596
213.29	1886.667
213.50	415.190
213.71	237.903
213.93	609.091
214.14	268.269
214.36	197.059
214.57	589.362
214.78	276.829
215.00	416.471
215.21	318.519
215.43	922.222
215.64	341.304
215.86	194.964
216.07	1112.000
216.28	440.506
216.50	293.396
216.71	358.537
216.93	726.190
217.14	2327.273
217.35	682.857
217.57	343.548
217.78	282.301
218.00	339.362
218.21	232.237
218.42	697.674
218.64	314.851
218.85	275.893
219.07	308.000
219.28	668.571
219.49	594.737
219.71	538.000
219.92	-2690.000
220.14	470.312
220.35	908.333
220.56	-12700.000
220.78	207.937
220.99	732.500
221.21	293.976
221.42	405.128
221.63	378.723
221.85	0.000
222.06	225.472
222.28	648.571
222.49	416.667
222.70	1257.143
222.92	382.051
223.13	200.000
223.34	297.826
223.56	204.348
223.77	208.917
223.99	180.124
224.20	196.154
224.41	380.851
224.63	189.796
224.84	236.036
225.05	209.160
225.27	169.942
225.48	257.018
225.69	173.626
225.91	212.174
226.12	174.026
226.34	156.471
226.55	177.941
226.76	140.097
226.98	125.000
227.19	134.078
227.40	166.667
227.62	93.657
227.83	158.635
228.04	102.500
228.26	80.307
228.47	72.304
228.69	67.447
228.90	44.766
229.11	37.074
229.33	48.148
229.54	36.483
229.75	39.021
229.97	37.561
230.18	35.084
230.39	36.689
230.61	39.267
230.82	35.150
231.03	33.257
231.25	41.336
231.46	41.843
231.67	48.354
231.89	42.447
232.10	37.343
232.31	54.861
232.53	50.215
232.74	48.048
232.95	52.196
233.17	44.193
233.38	55.197
233.59	62.700
233.81	61.204
234.02	50.102
234.23	45.291
234.45	57.662
234.66	40.840
234.87	59.246
235.09	50.262
235.30	39.130
235.51	37.660
235.73	37.105
235.94	45.969
236.15	47.405
236.36	45.904
236.58	49.849
236.79	45.872
237.00	42.589
237.22	49.231
237.43	50.933
237.64	59.774
237.86	37.500
238.07	49.071
238.28	46.207
238.50	44.459
238.71	49.359
238.92	52.147
239.13	45.030
239.35	50.998
239.56	48.701
239.77	37.358
239.99	43.075
240.20	51.507
240.41	35.550
240.63	38.919
240.84	40.788
241.05	28.511
241.26	31.845
241.48	35.755
241.69	19.947
241.90	19.558
242.12	30.962
242.33	25.986
242.54	12.576
242.75	16.601
242.97	21.096
243.18	14.158
243.39	12.739
243.61	18.240
243.82	15.474
244.03	15.916
244.24	13.028
244.46	14.149
244.67	17.074
244.88	18.471
245.09	12.454
245.31	16.694
245.52	20.668
245.73	17.277
245.95	28.946
246.16	21.706
246.37	15.792
246.58	17.479
246.80	18.151
247.01	15.816
247.22	14.403
247.43	12.711
247.65	13.153
247.86	11.086
248.07	9.547
248.28	9.567
248.50	9.608
248.71	8.617
248.92	7.705
249.13	7.247
249.35	8.885
249.56	9.173
249.77	9.006
249.98	9.310
250.20	11.004
250.41	13.521
250.62	16.647
250.83	13.367
251.05	20.928
251.26	14.688
251.47	20.121
251.68	20.430
251.90	18.723
252.11	16.133
252.32	16.559
252.53	20.064
252.75	15.192
252.96	15.934
253.17	14.512
253.38	15.578
253.59	18.686
253.81	15.259
254.02	14.614
254.23	11.095
254.44	14.919
254.66	19.233
254.87	13.401
255.08	18.621
255.29	17.846
255.50	13.590
255.72	22.462
255.93	20.402
256.14	25.404
256.35	23.222
256.57	22.754
256.78	19.537
256.99	24.677
257.20	20.592
257.41	20.080
257.63	17.523
257.84	21.387
258.05	25.566
258.26	11.912
258.47	15.820
258.69	14.741
258.90	12.607
259.11	14.074
259.32	11.681
259.53	11.074
259.75	10.017
259.96	8.297
260.17	5.810
260.38	8.467
260.59	6.702
260.81	7.047
261.02	7.476
261.23	7.087
261.44	7.036
261.65	7.408
261.87	7.711
262.08	7.732
262.29	9.865
262.50	6.401
262.71	8.191
262.92	9.336
263.14	9.927
263.35	9.547
263.56	10.173
263.77	11.306
263.98	10.056
264.20	14.330
264.41	12.184
264.62	12.505
264.83	11.730
265.04	18.198
265.25	16.572
265.47	12.285
265.68	15.734
265.89	14.655
266.10	13.118
266.31	17.403
266.52	9.482
266.74	12.983
266.95	8.503
267.16	13.321
267.37	12.884
267.58	11.803
267.79	10.725
268.01	10.773
268.22	10.776
268.43	9.580
268.64	12.261
268.85	11.578
269.06	9.941
269.27	10.520
269.49	6.559
269.70	10.984
269.91	9.097
270.12	8.131
270.33	11.662
270.54	12.426
270.75	8.596
270.97	10.763
271.18	7.436
271.39	8.794
271.60	12.210
271.81	10.750
272.02	6.548
272.23	10.174
272.45	7.434
272.66	4.914
272.87	8.609
273.08	6.891
273.29	7.068
273.50	7.277
273.71	8.397
273.92	7.422
274.14	8.909
274.35	7.283
274.56	9.421
274.77	7.903
274.98	9.690
275.19	6.691
275.40	9.616
275.61	9.199
275.83	9.243
276.04	7.151
276.25	12.631
276.46	7.604
276.67	10.779
276.88	10.441
277.09	9.973
277.30	11.568
277.51	8.705
277.73	9.709
277.94	9.012
278.15	9.754
278.36	9.286
278.57	9.810
278.78	10.012
278.99	10.320
279.20	11.328
279.41	10.967
279.62	9.765
279.84	9.026
280.05	8.301
280.26	8.148
280.47	10.975
280.68	8.735
280.89	8.946
281.10	9.396
281.31	7.646
281.52	7.463
281.73	7.918
281.94	8.279
282.16	9.053
282.37	8.999
282.58	9.601
282.79	10.064
283.00	9.182
283.21	5.286
283.42	6.305
283.63	6.935
283.84	7.181
284.05	7.837
284.26	8.059
284.47	8.824
284.68	7.905
284.89	8.137
285.11	6.713
285.32	8.578
285.53	8.476
285.74	5.442
285.95	6.331
286.16	6.031
286.37	7.892
286.58	6.252
286.79	5.380
287.00	6.323
287.21	6.583
287.42	6.499
287.63	6.828
287.84	6.678
288.05	6.951
288.26	6.316
288.48	6.642
288.69	6.000
288.90	7.580
289.11	7.646
289.32	8.640
289.53	7.991
289.74	5.653
289.95	8.056
290.16	7.966
290.37	6.876
290.58	6.066
290.79	5.057
291.00	5.955
291.21	7.082
291.42	5.737
291.63	6.535
291.84	7.572
292.05	6.443
292.26	5.860
292.47	5.850
292.68	6.287
292.89	6.664
293.10	7.903
293.31	7.488
293.52	6.852
293.73	6.603
293.94	6.548
294.15	8.193
294.36	8.285
294.57	7.757
294.79	7.856
295.00	5.235
295.21	8.527
295.42	5.479
295.63	6.766
295.84	8.430
296.05	6.236
296.26	5.905
296.47	7.087
296.68	5.234
296.89	6.441
297.10	6.627
297.31	5.387
297.52	5.612
297.73	5.569
297.94	5.503
298.15	4.467
298.36	4.100
298.57	5.653
298.78	5.829
298.99	5.277
299.20	4.625
299.41	5.388
299.62	5.729
299.83	5.704
300.04	5.281
300.25	5.883
300.46	4.802
300.67	6.133
300.88	7.877
301.09	5.378
301.30	5.853
301.50	7.204
301.71	8.243
301.92	7.722
302.13	7.107
302.34	4.825
302.55	7.221
302.76	5.812
302.97	6.745
303.18	6.682
303.39	6.227
303.60	7.228
303.81	5.661
304.02	5.434
304.23	6.226
304.44	6.370
304.65	6.356
304.86	7.684
305.07	3.991
305.28	7.777
305.49	6.625
305.70	7.749
305.91	5.286
306.12	5.164
306.33	4.658
306.54	6.965
306.75	7.910
306.96	8.480
307.17	7.292
307.38	6.471
307.58	5.783
307.79	8.659
308.00	7.596
308.21	9.849
308.42	6.153
308.63	6.044
308.84	6.886
309.05	7.177
309.26	5.584
309.47	6.256
309.68	6.629
309.89	7.570
310.10	5.871
310.31	6.347
310.52	5.738
310.73	6.347
310.94	6.000
311.14	6.471
311.35	5.596
311.56	7.704
311.77	4.785
311.98	4.149
312.19	5.054
312.40	5.991
312.61	4.932
312.82	5.270
313.03	5.176
313.24	7.201
313.45	6.649
313.66	6.064
313.86	6.547
314.07	5.026
314.28	7.006
314.49	6.713
314.70	5.888
314.91	7.998
315.12	6.773
315.33	8.140
315.54	6.560
315.75	6.113
315.96	6.196
316.16	5.813
316.37	7.153
316.58	6.451
316.79	6.074
317.00	6.290
317.21	7.083
317.42	8.926
317.63	6.726
317.84	6.197
318.05	6.529
318.25	6.688
318.46	5.130
318.67	7.258
318.88	6.263
319.09	6.129
319.30	5.682
319.51	8.193
319.72	8.420
319.93	6.389
320.13	5.766
320.34	8.282
320.55	7.761
320.76	6.580
320.97	6.048
321.18	6.484
321.39	6.709
321.60	6.045
321.80	9.191
322.01	8.531
322.22	6.816
322.43	6.034
322.64	6.982
322.85	8.614
323.06	7.314
323.27	7.072
323.47	6.732
323.68	7.877
323.89	5.473
324.10	8.912
324.31	6.642
324.52	8.898
324.73	5.787
324.93	5.582
325.14	6.103
325.35	5.856
325.56	6.066
325.77	4.849
325.98	6.436
326.19	4.932
326.39	6.612
326.60	7.041
326.81	6.337
327.02	5.357
327.23	5.037
327.44	6.383
327.64	5.061
327.85	5.470
328.06	5.957
328.27	7.915
328.48	6.759
328.69	5.676
328.90	7.075
329.10	5.967
329.31	6.754
329.52	5.527
329.73	7.767
329.94	7.493
330.15	7.622
330.35	8.248
330.56	8.017
330.77	6.425
330.98	7.894
331.19	7.173
331.39	9.195
331.60	7.147
331.81	5.421
332.02	6.928
332.23	7.324
332.44	7.306
332.64	6.698
332.85	6.381
333.06	6.596
333.27	8.082
333.48	6.145
333.68	7.189
333.89	5.932
334.10	5.562
334.31	7.808
334.52	7.260
334.72	6.255
334.93	6.629
335.14	5.090
335.35	6.577
335.56	7.326
335.76	5.871
335.97	7.931
336.18	5.426
336.39	7.758
336.60	7.864
336.80	5.670
337.01	7.077
337.22	6.895
337.43	7.746
337.64	8.206
337.84	7.052
338.05	6.801
338.26	9.263
338.47	8.293
338.68	5.612
338.88	7.065
339.09	6.105
339.30	8.784
339.51	5.675
339.71	8.292
339.92	7.835
340.13	6.802
340.34	5.557
340.55	7.544
340.75	9.483
340.96	7.293
341.17	9.218
341.38	6.864
341.58	7.294
341.79	7.423
342.00	7.524
342.21	8.433
342.41	7.220
342.62	8.346
342.83	9.647
343.04	7.342
343.24	9.584
343.45	8.047
343.66	6.969
343.87	9.219
344.07	8.050
344.28	8.913
344.49	10.055
344.70	9.798
344.90	7.414
345.11	7.347
345.32	7.388
345.53	8.751
345.73	9.488
345.94	9.417
346.15	9.078
346.36	8.989
346.56	10.097
346.77	10.804
346.98	8.967
347.19	10.644
347.39	9.911
347.60	9.142
347.81	10.539
348.02	10.721
348.22	7.588
348.43	8.429
348.64	8.314
348.84	9.483
349.05	9.342
349.26	11.078
349.47	9.257
349.67	8.172
349.88	9.634
350.09	10.154
350.30	11.953
350.50	9.397
350.71	10.618
350.92	9.987
351.12	8.668
351.33	11.163
351.54	9.079
351.74	10.393
351.95	8.260
352.16	9.874
352.37	12.025
352.57	9.822
352.78	10.192
352.99	10.443
353.19	9.776
353.40	9.567
353.61	11.334
353.82	10.091
354.02	9.746
354.23	10.386
354.44	10.819
354.64	9.974
354.85	10.957
355.06	10.062
355.26	8.022
355.47	10.684
355.68	12.460
355.88	11.618
356.09	10.867
356.30	9.721
356.51	10.427
356.71	9.981
356.92	7.527
357.13	10.579
357.33	11.866
357.54	9.501
357.75	7.749
357.95	9.848
358.16	9.239
358.37	11.223
358.57	7.338
358.78	12.328
358.99	8.567
359.19	10.565
359.40	11.061
359.61	10.000
359.81	10.750
360.02	12.000
360.23	9.964
360.43	10.154
360.64	9.809
360.85	9.873
361.05	7.929
361.26	10.615
361.47	10.063
361.67	10.678
361.88	7.890
362.09	9.972
362.29	7.958
362.50	8.836
362.70	8.330
362.91	10.446
363.12	9.058
363.32	9.579
363.53	9.488
363.74	9.947
363.94	8.081
364.15	10.568
364.36	10.787
364.56	8.455
364.77	9.729
364.98	11.891
365.18	9.343
365.39	11.165
365.59	8.811
365.80	9.613
366.01	10.652
366.21	9.177
366.42	8.047
366.63	10.223
366.83	9.076
367.04	7.542
367.24	10.003
367.45	8.296
367.66	7.814
367.86	10.121
368.07	9.196
368.28	9.231
368.48	7.903
368.69	6.928
368.89	8.996
369.10	9.840
369.31	9.718
369.51	9.722
369.72	9.835
369.92	10.400
370.13	7.398
370.34	10.352
370.54	8.741
370.75	9.480
370.95	7.200
371.16	9.924
371.37	8.296
371.57	9.430
371.78	9.201
371.98	9.264
372.19	9.723
372.40	9.786
372.60	9.703
372.81	8.827
373.01	7.680
373.22	8.270
373.43	9.341
373.63	9.325
373.84	10.183
374.04	9.777
374.25	8.501
374.46	9.780
374.66	9.627
374.87	10.039
375.07	7.254
375.28	8.024
375.48	9.748
375.69	10.100
375.90	7.876
376.10	7.795
376.31	8.667
376.51	7.289
376.72	8.184
376.92	8.360
377.13	9.212
377.34	9.758
377.54	8.633
377.75	10.578
377.95	9.078
378.16	9.836
378.36	9.568
378.57	11.170
378.77	9.560
378.98	9.995
379.19	8.696
379.39	9.103
379.60	9.430
379.80	9.866
380.01	10.536
380.21	10.019
380.42	10.145
380.62	9.890
380.83	10.160
381.04	9.431
381.24	9.455
381.45	9.994
381.65	9.063
381.86	9.977
382.06	11.677
382.27	9.108
382.47	9.150
382.68	11.593
382.88	8.900
383.09	8.960
383.29	8.941
383.50	10.784
383.71	9.545
383.91	9.491
384.12	9.781
384.32	10.320
384.53	10.571
384.73	9.712
384.94	8.777
385.14	10.020
385.35	9.269
385.55	10.839
385.76	9.855
385.96	10.426
386.17	9.850
386.37	11.178
386.58	9.884
386.78	12.401
386.99	10.069
387.19	11.305
387.40	9.638
387.60	12.667
387.81	10.805
388.01	11.271
388.22	12.012
388.42	12.273
388.63	12.451
388.83	13.083
389.04	10.189
389.24	11.596
389.45	11.563
389.65	11.796
389.86	11.733
390.06	10.852
390.27	10.502
390.47	12.348
390.68	11.716
390.88	13.258
391.09	13.038
391.29	12.735
391.50	11.541
391.70	13.376
391.91	11.702
392.11	12.510
392.32	13.104
392.52	13.964
392.73	12.110
392.93	13.209
393.14	13.353
393.34	13.082
393.55	13.326
393.75	13.234
393.95	12.840
394.16	13.599
394.36	13.806
394.57	14.418
394.77	13.582
394.98	14.124
395.18	14.131
395.39	14.138
395.59	14.151
395.80	14.821
396.00	13.614
396.21	15.570
396.41	13.513
396.61	15.086
396.82	14.279
397.02	15.380
397.23	14.817
397.43	15.052
397.64	12.872
397.84	15.543
398.05	12.680
398.25	15.890
398.45	14.116
398.66	15.358
398.86	14.432
399.07	15.746
399.27	14.688
399.48	15.954
399.68	14.412
399.89	14.546
400.09	15.877
400.29	14.392
400.50	14.245
400.70	15.495
400.91	13.694
401.11	14.614
401.32	14.784
401.52	14.875
401.72	14.298
401.93	15.760
402.13	15.172
402.34	14.555
402.54	15.011
402.75	16.327
402.95	14.133
403.15	16.289
403.36	14.014
403.56	15.647
403.77	14.035
403.97	15.100
404.17	14.329
404.38	15.400
404.58	14.547
404.79	15.828
404.99	15.643
405.19	14.806
405.40	14.557
405.60	15.776
405.81	15.330
406.01	14.983
406.21	15.162
406.42	16.000
406.62	15.747
406.83	15.842
407.03	15.006
407.23	15.485
407.44	14.258
407.64	15.003
407.85	14.768
408.05	15.906
408.25	14.393
408.46	15.668
408.66	15.054
408.87	15.228
409.07	15.005
409.27	15.103
409.48	15.031
409.68	16.465
409.88	13.457
410.09	15.359
410.29	14.807
410.50	15.774
410.70	13.915
410.90	15.709
411.11	14.783
411.31	15.435
411.51	15.368
411.72	16.438
411.92	14.362
412.12	14.939
412.33	14.070
412.53	14.132
412.74	14.256
412.94	14.752
413.14	15.036
413.35	15.112
413.55	15.096
413.75	14.981
413.96	14.188
414.16	14.377
414.36	15.077
414.57	15.022
414.77	13.860
414.97	15.616
415.18	13.673
415.38	15.447
415.58	15.042
415.79	14.820
415.99	14.269
416.19	14.544
416.40	14.240
416.60	15.374
416.80	14.796
417.01	14.559
417.21	14.500
417.41	15.052
417.62	15.559
417.82	14.870
418.02	13.996
418.23	14.776
418.43	14.518
418.63	14.451
418.84	15.118
419.04	14.404
419.24	15.239
419.45	14.453
419.65	14.975
419.85	14.915
420.06	14.830
420.26	14.694
420.46	14.972
420.67	14.745
420.87	14.590
421.07	15.143
421.28	14.466
421.48	14.399
421.68	14.903
421.88	14.834
422.09	14.014
422.29	14.562
422.49	14.462
422.70	14.733
422.90	14.428
423.10	14.318
423.31	14.648
423.51	14.809
423.71	14.226
423.91	14.783
424.12	14.130
424.32	14.690
424.52	14.269
424.73	14.281
424.93	14.448
425.13	14.393
425.33	14.135
425.54	14.593
425.74	14.743
425.94	14.319
426.15	14.538
426.35	14.559
426.55	14.244
426.75	14.764
426.96	14.363
427.16	14.738
427.36	14.585
427.57	15.250
427.77	14.507
427.97	15.237
428.17	14.498
428.38	14.686
428.58	14.123
428.78	15.211
428.98	13.984
429.19	14.634
429.39	13.554
429.59	14.784
429.79	13.565
430.00	14.438
430.20	14.125
430.40	13.783
430.60	14.216
430.81	14.854
431.01	14.242
431.21	14.661
431.41	13.677
431.62	14.636
431.82	14.381
432.02	14.943
432.22	14.166
432.43	14.529
432.63	14.060
432.83	14.455
433.03	14.688
433.24	14.516
433.44	14.221
433.64	14.733
433.84	14.657
434.05	14.584
434.25	14.789
434.45	15.237
434.65	14.887
434.85	15.564
435.06	14.985
435.26	15.226
435.46	15.247
435.66	15.659
435.87	15.355
436.07	15.622
436.27	15.522
436.47	15.678
436.67	15.079
436.88	15.327
437.08	15.065
437.28	15.467
437.48	14.786
437.69	15.510
437.89	15.461
438.09	15.237
438.29	15.087
438.49	16.301
438.70	15.819
438.90	15.538
439.10	14.935
439.30	15.672
439.50	15.148
439.71	15.399
439.91	15.566
440.11	15.742
440.31	14.769
440.51	15.109
440.72	15.791
440.92	15.455
441.12	15.689
441.32	15.482
441.52	15.904
441.72	15.982
441.93	15.905
442.13	15.565
442.33	15.472
442.53	15.724
442.73	15.632
442.94	16.048
443.14	16.398
443.34	16.030
443.54	16.178
443.74	16.308
443.94	15.927
444.15	16.059
444.35	15.856
444.55	15.953
444.75	15.829
444.95	15.667
445.15	15.479
445.36	15.857
445.56	15.323
445.76	15.549
445.96	15.547
446.16	15.484
446.36	15.313
446.57	15.482
446.77	15.483
446.97	15.666
447.17	15.673
447.37	15.582
447.57	15.999
447.77	15.628
447.98	15.636
448.18	15.482
448.38	15.967
448.58	15.798
448.78	16.353
448.98	15.779
449.18	16.384
449.39	15.838
449.59	16.532
449.79	15.890
449.99	16.166
450.19	16.256
450.39	16.117
450.59	16.120
450.79	15.866
451.00	16.349
451.20	16.810
451.40	16.285
451.60	16.046
451.80	16.542
452.00	16.162
452.20	16.067
452.40	15.372
452.61	16.032
452.81	15.647
453.01	15.913
453.21	15.736
453.41	15.735
453.61	15.877
453.81	15.724
454.01	15.613
454.21	16.030
454.42	16.298
454.62	15.684
454.82	15.548
455.02	15.624
455.22	15.767
455.42	15.941
455.62	15.225
455.82	16.095
456.02	15.453
456.23	15.763
456.43	15.641
456.63	15.587
456.83	15.608
457.03	15.591
457.23	15.521
457.43	15.636
457.63	15.849
457.83	15.913
458.03	15.355
458.23	15.133
458.43	14.922
458.64	15.711
458.84	15.268
459.04	14.942
459.24	15.327
459.44	15.180
459.64	15.190
459.84	14.593
460.04	14.637
460.24	14.943
460.44	14.878
460.64	14.907
460.84	14.857
461.04	15.180
461.24	15.228
461.45	14.945
461.65	14.902
461.85	15.092
462.05	15.210
462.25	15.221
462.45	15.268
462.65	15.433
462.85	14.766
463.05	15.217
463.25	14.806
463.45	15.427
463.65	15.062
463.85	15.225
464.05	14.994
464.25	15.164
464.45	14.953
464.65	15.094
464.85	15.128
465.05	14.875
465.26	15.300
465.46	15.330
465.66	15.260
465.86	15.834
466.06	15.265
466.26	15.420
466.46	14.535
466.66	15.024
466.86	14.861
467.06	14.942
467.26	14.457
467.46	15.264
467.66	14.854
467.86	14.459
468.06	14.769
468.26	15.190
468.46	15.006
468.66	15.579
468.86	15.001
469.06	15.564
469.26	15.241
469.46	15.333
469.66	15.321
469.86	15.414
470.06	15.329
470.26	15.606
470.46	14.770
470.66	15.718
470.86	15.384
471.06	15.608
471.26	15.156
471.46	15.798
471.66	15.376
471.86	15.390
472.06	15.898
472.26	16.151
472.46	15.689
472.66	15.608
472.86	16.236
473.06	15.764
473.26	15.892
473.46	16.069
473.66	15.819
473.86	16.262
474.06	15.798
474.26	15.930
474.46	16.095
474.66	16.452
474.86	16.650
475.06	16.721
475.26	16.228
475.46	16.391
475.66	15.958
475.86	16.636
476.06	16.362
476.26	16.703
476.46	16.433
476.66	16.440
476.86	16.547
477.06	16.526
477.26	16.568
477.46	16.527
477.65	16.756
477.85	17.267
478.05	16.266
478.25	16.737
478.45	16.789
478.65	17.262
478.85	16.854
479.05	16.880
479.25	17.132
479.45	16.992
479.65	17.231
479.85	17.118
480.05	17.611
480.25	17.419
480.45	17.520
480.65	17.796
480.85	17.183
481.05	17.661
481.25	17.271
481.44	17.321
481.64	17.155
481.84	17.585
482.04	17.503
482.24	17.319
482.44	17.471
482.64	17.030
482.84	17.011
483.04	17.231
483.24	17.105
483.44	16.873
483.64	16.817
483.84	16.809
484.04	17.081
484.23	17.320
484.43	17.579
484.63	17.847
484.83	17.842
485.03	18.754
485.23	18.776
485.43	18.559
485.63	18.459
485.83	18.365
486.03	18.380
486.23	18.642
486.42	18.437
486.62	18.537
486.82	18.410
487.02	18.219
487.22	18.253
487.42	18.081
487.62	18.094
487.82	17.785
488.02	17.988
488.22	18.104
488.41	18.221
488.61	18.316
488.81	18.238
489.01	18.448
489.21	18.912
489.41	18.496
489.61	18.551
489.81	18.640
490.01	18.756
490.20	18.806
490.40	18.734
490.60	18.786
490.80	18.774
491.00	18.587
491.20	18.465
491.40	18.545
491.60	18.323
491.79	18.251
491.99	18.367
492.19	18.431
492.39	18.620
492.59	18.238
492.79	18.382
492.99	18.516
493.19	18.603
493.38	18.764
493.58	19.051
493.78	19.278
493.98	19.469
494.18	19.312
494.38	19.396
494.58	19.486
494.77	19.281
494.97	19.156
495.17	19.648
495.37	19.376
495.57	19.628
495.77	19.470
495.96	19.466
496.16	19.266
496.36	19.335
496.56	19.028
496.76	19.115
496.96	19.228
497.15	19.224
497.35	19.394
497.55	19.346
497.75	19.410
497.95	19.259
498.15	19.212
498.34	19.634
498.54	19.217
498.74	19.882
498.94	19.359
499.14	19.760
499.34	19.791
499.53	19.604
499.73	19.844
499.93	19.798
500.13	19.825
500.33	19.875
500.52	20.061
500.72	19.748
500.92	19.928
501.12	19.367
501.32	19.880
501.52	19.946
501.71	20.066
501.91	19.891
502.11	19.863
502.31	19.725
502.51	20.305
502.70	20.170
502.90	20.336
503.10	20.281
503.30	20.203
503.50	20.287
503.69	20.050
503.89	20.396
504.09	20.227
504.29	19.790
504.48	20.169
504.68	20.093
504.88	19.988
505.08	20.167
505.28	20.578
505.47	20.303
505.67	20.375
505.87	20.300
506.07	20.554
506.27	20.411
506.46	20.494
506.66	20.063
506.86	20.398
507.06	20.643
507.25	20.244
507.45	20.168
507.65	19.880
507.85	19.787
508.04	20.110
508.24	20.188
508.44	20.292
508.64	20.091
508.83	19.707
509.03	19.985
509.23	20.329
509.43	20.002
509.63	20.410
509.82	19.711
510.02	20.603
510.22	19.947
510.42	20.123
510.61	20.248
510.81	20.156
511.01	20.300
511.21	20.239
511.40	20.727
511.60	20.571
511.80	20.586
511.99	20.239
512.19	20.260
512.39	20.532
512.59	20.138
512.78	20.439
512.98	20.176
513.18	20.366
513.38	20.227
513.57	20.011
513.77	20.453
513.97	20.716
514.17	20.872
514.36	20.427
514.56	20.403
514.76	20.827
514.95	20.516
515.15	20.515
515.35	20.396
515.55	20.641
515.74	20.560
515.94	20.536
516.14	20.225
516.33	21.032
516.53	20.417
516.73	20.249
516.93	20.594
517.12	20.271
517.32	20.142
517.52	20.830
517.71	20.091
517.91	20.364
518.11	19.995
518.30	19.985
518.50	19.955
518.70	20.115
518.90	19.980
519.09	19.882
519.29	19.895
519.49	19.919
519.68	19.642
519.88	20.041
520.08	20.083
520.27	20.293
520.47	20.681
520.67	20.198
520.86	20.394
521.06	20.553
521.26	20.324
521.45	20.099
521.65	20.627
521.85	20.499
522.04	20.520
522.24	20.515
522.44	20.426
522.63	20.693
522.83	20.412
523.03	20.830
523.22	20.208
523.42	20.419
523.62	20.934
523.81	20.578
524.01	20.786
524.21	20.390
524.40	20.605
524.60	20.599
524.80	20.513
524.99	20.550
525.19	20.322
525.39	19.970
525.58	20.158
525.78	19.988
525.98	20.212
526.17	20.389
526.37	20.378
526.57	20.193
526.76	20.252
526.96	20.189
527.15	20.148
527.35	20.350
527.55	20.352
527.74	20.126
527.94	20.217
528.14	19.695
528.33	19.679
528.53	19.674
528.72	19.838
528.92	19.940
529.12	20.044
529.31	20.231
529.51	20.366
529.71	20.447
529.90	20.225
530.10	20.665
530.29	20.770
530.49	20.975
530.69	21.017
530.88	21.186
531.08	21.168
531.28	20.723
531.47	21.206
531.67	20.894
531.86	20.686
532.06	20.860
532.26	20.770
532.45	20.700
532.65	20.460
532.84	20.624
533.04	20.197
533.24	20.226
533.43	20.077
533.63	20.601
533.82	20.228
534.02	20.589
534.22	20.443
534.41	20.807
534.61	20.497
534.80	20.909
535.00	20.899
535.19	21.038
535.39	20.906
535.59	21.184
535.78	21.126
535.98	20.894
536.17	21.198
536.37	20.999
536.57	21.006
536.76	20.762
536.96	21.206
537.15	20.802
537.35	20.924
537.54	21.286
537.74	20.896
537.93	21.207
538.13	21.287
538.33	21.153
538.52	21.147
538.72	21.224
538.91	21.587
539.11	21.561
539.30	21.633
539.50	21.427
539.70	21.888
539.89	21.560
540.09	21.432
540.28	21.469
540.48	21.098
540.67	20.882
540.87	21.017
541.06	21.136
541.26	20.436
541.45	20.655
541.65	20.525
541.85	20.713
542.04	20.675
542.24	20.970
542.43	20.757
542.63	20.954
542.82	20.957
543.02	20.962
543.21	21.555
543.41	21.341
543.60	21.721
543.80	21.558
543.99	21.371
544.19	21.479
544.38	21.787
544.58	21.567
544.77	21.529
544.97	21.649
545.16	21.514
545.36	21.688
545.56	21.984
545.75	21.576
545.95	21.666
546.14	21.500
546.34	21.922
546.53	21.138
546.73	21.470
546.92	21.629
547.12	21.408
547.31	21.691
547.51	21.737
547.70	21.820
547.90	21.656
548.09	22.050
548.29	21.622
548.48	21.733
548.68	22.243
548.87	21.892
549.07	22.095
549.26	22.316
549.46	22.355
549.65	22.507
549.84	22.508
550.04	22.686
550.23	22.749
550.43	22.537
550.62	22.444
550.82	22.745
551.01	22.451
551.21	22.398
551.40	22.358
551.60	22.508
551.79	22.554
551.99	22.736
552.18	22.448
552.38	22.960
552.57	22.787
552.77	22.584
552.96	22.670
553.16	22.600
553.35	22.772
553.54	22.564
553.74	22.792
553.93	22.824
554.13	22.832
554.32	22.968
554.52	22.990
554.71	23.052
554.91	23.172
555.10	23.647
555.29	23.121
555.49	23.443
555.68	23.344
555.88	23.119
556.07	23.210
556.27	23.245
556.46	23.124
556.66	23.153
556.85	23.568
557.04	23.366
557.24	23.370
557.43	23.547
557.63	23.544
557.82	23.499
558.02	23.507
558.21	23.634
558.40	23.939
558.60	24.029
558.79	23.594
558.99	23.641
559.18	24.022
559.38	24.091
559.57	23.808
559.76	24.016
559.96	24.804
560.15	24.218
560.35	24.083
560.54	24.271
560.73	23.930
560.93	24.570
561.12	24.032
561.32	24.342
561.51	24.627
561.70	23.743
561.90	23.939
562.09	24.751
562.29	24.257
562.48	23.777
562.67	24.636
562.87	24.938
563.06	24.704
563.26	24.347
563.45	24.415
563.64	24.629
563.84	24.898
564.03	24.714
564.23	25.439
564.42	25.050
564.61	24.834
564.81	24.466
565.00	24.579
565.20	24.954
565.39	24.921
565.58	25.250
565.78	24.495
565.97	25.083
566.16	24.890
566.36	24.811
566.55	25.055
566.74	24.825
566.94	24.955
567.13	24.863
567.33	25.186
567.52	25.345
567.71	25.271
567.91	24.896
568.10	25.501
568.29	25.204
568.49	25.385
568.68	25.750
568.87	25.651
569.07	25.170
569.26	25.841
569.45	25.217
569.65	25.369
569.84	25.662
570.04	25.463
570.23	25.673
570.42	25.854
570.62	25.535
570.81	25.868
571.00	25.276
571.20	25.775
571.39	25.328
571.58	25.771
571.78	25.505
571.97	26.193
572.16	25.169
572.36	25.317
572.55	25.876
572.74	25.393
572.94	25.485
573.13	25.958
573.32	25.707
573.51	25.966
573.71	26.009
573.90	25.679
574.09	25.670
574.29	25.900
574.48	26.102
574.67	26.318
574.87	26.302
575.06	26.206
575.25	26.081
575.45	26.199
575.64	25.826
575.83	25.657
576.03	26.603
576.22	26.487
576.41	25.817
576.60	27.093
576.80	26.571
576.99	26.493
577.18	26.493
577.38	26.590
577.57	26.770
577.76	26.997
577.95	26.746
578.15	26.354
578.34	26.395
578.53	26.818
578.73	26.022
578.92	27.127
579.11	26.777
579.30	27.152
579.50	26.251
579.69	26.779
579.88	26.556
580.08	27.508
580.27	27.088
580.46	27.239
580.65	26.539
580.85	27.021
581.04	27.100
581.23	27.465
581.42	27.392
581.62	27.501
581.81	26.663
582.00	26.721
582.19	27.033
582.39	27.413
582.58	27.626
582.77	26.616
582.96	27.506
583.16	26.934
583.35	27.510
583.54	26.905
583.73	27.168
583.93	27.038
584.12	27.518
584.31	27.269
584.50	26.821
584.70	27.113
584.89	27.260
585.08	26.873
585.27	28.026
585.47	26.974
585.66	27.566
585.85	27.006
586.04	26.724
586.24	27.448
586.43	27.612
586.62	27.696
586.81	27.115
587.00	27.625
587.20	26.787
587.39	27.257
587.58	27.146
587.77	26.767
587.97	27.401
588.16	27.267
588.35	26.489
588.54	26.305
588.73	26.713
588.93	27.936
589.12	26.890
589.31	27.309
589.50	26.989
589.69	27.101
589.89	26.875
590.08	26.317
590.27	27.412
590.46	27.044
590.65	27.123
590.85	26.598
591.04	27.189
591.23	26.903
591.42	26.905
591.61	26.466
591.81	26.704
592.00	27.244
592.19	27.233
592.38	27.703
592.57	27.144
592.77	27.073
592.96	27.367
593.15	27.936
593.34	26.944
593.53	27.841
593.72	27.044
593.92	27.712
594.11	27.752
594.30	27.131
594.49	27.412
594.68	27.162
594.87	27.439
595.07	27.141
595.26	27.907
595.45	27.967
595.64	27.210
595.83	27.014
596.02	27.660
596.22	26.669
596.41	26.991
596.60	26.476
596.79	26.853
596.98	26.881
597.17	27.470
597.37	26.671
597.56	27.389
597.75	26.722
597.94	27.612
598.13	27.056
598.32	27.369
598.51	27.213
598.71	28.111
598.90	27.813
599.09	27.428
599.28	28.066
599.47	28.321
599.66	27.696
599.85	28.698
600.05	28.412
600.24	28.781
600.43	27.413
600.62	28.440
600.81	28.156
601.00	29.265
601.19	28.109
601.38	29.372
601.58	29.431
601.77	28.749
601.96	28.070
602.15	28.831
602.34	27.932
602.53	27.947
602.72	28.325
602.91	28.699
603.10	28.556
603.30	27.921
603.49	28.398
603.68	28.356
603.87	28.130
604.06	28.437
604.25	28.056
604.44	28.084
604.63	28.278
604.82	27.216
605.01	27.271
605.21	28.012
605.40	28.054
605.59	27.819
605.78	28.399
605.97	28.110
606.16	28.080
606.35	28.252
606.54	28.340
606.73	27.854
606.92	28.846
607.11	28.514
607.30	29.411
607.50	29.653
607.69	27.954
607.88	28.026
608.07	28.287
608.26	29.374
608.45	28.836
608.64	28.780
608.83	28.643
609.02	29.329
609.21	28.356
609.40	28.174
609.59	28.612
609.78	28.063
609.97	27.906
610.16	28.086
610.35	28.086
610.55	28.243
610.74	27.899
610.93	28.019
611.12	27.357
611.31	28.362
611.50	28.561
611.69	28.417
611.88	28.502
612.07	29.268
612.26	28.088
612.45	29.000
612.64	29.112
612.83	29.064
613.02	28.419
613.21	28.427
613.40	29.323
613.59	28.868
613.78	29.027
613.97	29.003
614.16	28.331
614.35	29.440
614.54	29.316
614.73	28.956
614.92	29.838
615.11	28.621
615.30	28.243
615.49	28.274
615.68	28.103
615.87	28.705
616.07	28.002
616.26	29.343
616.45	28.865
616.64	28.154
616.83	28.126
617.02	28.615
617.21	27.698
617.40	28.604
617.59	28.190
617.78	28.151
617.97	28.549
618.16	28.284
618.35	28.215
618.54	28.021
618.73	28.216
618.92	28.251
619.11	27.962
619.30	28.585
619.49	28.176
619.68	27.832
619.86	27.718
620.05	28.208
620.24	27.847
620.43	27.728
620.62	27.891
620.81	28.242
621.00	27.390
621.19	28.329
621.38	28.284
621.57	28.665
621.76	28.101
621.95	27.831
622.14	27.388
622.33	27.905
622.52	28.096
622.71	28.365
622.90	26.885
623.09	27.402
623.28	26.833
623.47	27.953
623.66	27.682
623.85	27.462
624.04	27.634
624.23	27.987
624.42	27.588
624.61	27.530
624.80	27.795
624.99	27.507
625.18	27.835
625.36	27.094
625.55	27.707
625.74	27.230
625.93	27.229
626.12	27.307
626.31	27.459
626.50	27.979
626.69	27.295
626.88	27.237
627.07	27.317
627.26	26.757
627.45	27.314
627.64	27.393
627.83	26.946
628.02	27.170
628.20	27.389
628.39	26.627
628.58	27.284
628.77	27.135
628.96	27.186
629.15	26.858
629.34	28.084
629.53	27.479
629.72	27.729
629.91	27.487
630.10	27.720
630.29	27.479
630.47	28.107
630.66	27.458
630.85	28.155
631.04	27.588
631.23	28.564
631.42	28.156
631.61	27.865
631.80	28.695
631.99	28.324
632.18	28.991
632.36	28.625
632.55	27.395
632.74	27.757
632.93	27.585
633.12	27.739
633.31	27.649
633.50	27.729
633.69	27.799
633.88	27.864
634.06	27.745
634.25	27.891
634.44	27.734
634.63	27.481
634.82	27.602
635.01	27.792
635.20	26.636
635.39	27.740
635.57	26.927
635.76	27.982
635.95	27.406
636.14	27.305
636.33	28.535
636.52	28.606
636.71	27.925
636.89	26.813
637.08	26.855
637.27	26.686
637.46	27.709
637.65	26.842
637.84	27.283
638.03	27.873
638.21	26.902
638.40	27.129
638.59	27.354
638.78	26.733
638.97	27.475
639.16	26.599
639.34	27.176
639.53	26.911
639.72	28.032
639.91	28.070
640.10	27.081
640.29	28.580
640.47	27.350
640.66	27.866
640.85	27.826
641.04	26.955
641.23	27.238
641.42	26.976
641.60	27.235
641.79	27.724
641.98	27.044
642.17	27.031
642.36	28.279
642.54	28.272
642.73	27.197
642.92	26.915
643.11	26.826
643.30	26.147
643.49	28.025
643.67	27.176
643.86	28.216
644.05	26.818
644.24	26.366
644.43	27.004
644.61	27.499
644.80	25.992
644.99	27.500
645.18	27.397
645.37	27.370
645.55	26.775
645.74	25.989
645.93	27.656
646.12	26.133
646.31	27.557
646.49	27.649
646.68	26.379
646.87	27.809
647.06	26.598
647.24	27.296
647.43	25.991
647.62	27.794
647.81	27.171
648.00	28.323
648.18	27.597
648.37	27.512
648.56	26.912
648.75	27.025
648.93	27.502
649.12	26.143
649.31	26.299
649.50	27.187
649.68	26.309
649.87	27.655
650.06	25.744
650.25	26.719
650.43	26.844
650.62	27.403
650.81	26.702
651.00	26.048
651.18	25.859
651.37	27.096
651.56	25.651
651.75	26.713
651.93	26.547
652.12	27.092
652.31	25.885
652.50	26.593
652.68	25.963
652.87	26.366
653.06	26.073
653.25	27.457
653.43	26.793
653.62	25.113
653.81	26.461
654.00	27.049
654.18	27.001
654.37	26.043
654.56	24.853
654.74	26.321
654.93	25.651
655.12	26.230
655.31	26.220
655.49	27.573
655.68	25.434
655.87	25.887
656.05	24.525
656.24	26.214
656.43	25.135
656.62	26.817
656.80	25.159
656.99	25.670
657.18	24.470
657.36	25.767
657.55	25.450
657.74	25.895
657.93	25.117
658.11	25.430
658.30	24.399
658.49	24.854
658.67	24.691
658.86	25.227
659.05	24.019
659.23	24.303
659.42	23.908
659.61	23.540
659.79	23.833
659.98	24.504
660.17	24.571
660.35	24.191
660.54	23.730
660.73	24.488
660.91	24.075
661.10	24.593
661.29	23.677
661.47	24.888
661.66	23.906
661.85	23.540
662.03	24.785
662.22	24.750
662.41	22.670
662.59	23.932
662.78	23.131
662.97	23.424
663.15	23.079
663.34	23.541
663.53	22.177
663.71	23.253
663.90	22.815
664.09	24.783
664.27	22.908
664.46	22.441
664.65	22.551
664.83	22.476
665.02	23.215
665.21	23.153
665.39	20.672
665.58	23.175
665.77	21.785
665.95	22.920
666.14	22.249
666.32	22.314
666.51	21.792
666.70	21.506
666.88	21.674
667.07	22.296
667.26	20.596
667.44	20.916
667.63	21.987
667.81	21.476
668.00	19.356
668.19	21.172
668.37	21.462
668.56	21.388
668.75	20.489
668.93	21.850
669.12	20.573
669.30	21.931
669.49	21.745
669.68	23.160
669.86	20.935
670.05	21.235
670.23	19.924
670.42	21.199
670.61	21.082
670.79	20.400
670.98	21.221
671.16	21.296
671.35	21.510
671.54	21.020
671.72	19.301
671.91	21.806
672.09	20.223
672.28	21.248
672.46	20.779
672.65	21.791
672.84	21.157
673.02	21.019
673.21	18.720
673.39	20.914
673.58	20.630
673.77	21.933
673.95	20.069
674.14	22.210
674.32	20.253
674.51	21.596
674.69	20.632
674.88	21.264
675.07	19.318
675.25	23.249
675.44	21.771
675.62	21.201
675.81	20.168
675.99	22.586
676.18	21.141
676.36	21.420
676.55	20.529
676.74	21.568
676.92	21.404
677.11	20.517
677.29	19.592
677.48	22.121
677.66	22.498
677.85	21.952
678.03	20.787
678.22	21.839
678.40	20.534
678.59	21.199
678.78	19.925
678.96	21.977
679.15	20.776
679.33	23.964
679.52	21.381
679.70	21.913
679.89	22.211
680.07	22.707
680.26	21.169
680.44	21.637
680.63	21.309
680.81	21.613
681.00	22.226
681.18	22.541
681.37	21.694
681.55	23.159
681.74	22.947
681.92	23.253
682.11	23.100
682.29	21.767
682.48	21.176
682.66	23.670
682.85	23.504
683.03	23.442
683.22	23.552
683.40	23.443
683.59	23.651
683.77	24.223
683.96	22.050
684.14	24.621
684.33	23.056
684.51	24.755
684.70	24.893
684.88	24.107
685.07	24.910
685.25	24.890
685.44	24.896
685.62	25.156
685.81	22.976
685.99	25.377
686.18	23.640
686.36	24.610
686.55	23.837
686.73	26.159
686.92	24.522
687.10	25.997
687.29	25.798
687.47	26.979
687.65	25.313
687.84	26.626
688.02	27.018
688.21	25.053
688.39	25.866
688.58	27.861
688.76	26.139
688.95	27.019
689.13	25.666
689.32	27.810
689.50	27.496
689.68	28.962
689.87	26.771
690.05	29.983
690.24	27.692
690.42	28.302
690.61	27.929
690.79	30.635
690.98	29.338
691.16	30.288
691.34	28.004
691.53	30.617
691.71	29.988
691.90	31.622
692.08	30.082
692.27	31.926
692.45	31.842
692.63	31.140
692.82	31.760
693.00	31.442
693.19	31.589
693.37	31.527
693.56	28.884
693.74	33.843
693.92	32.136
694.11	33.433
694.29	33.758
694.48	34.027
694.66	33.623
694.84	33.866
695.03	32.655
695.21	35.062
695.40	35.119
695.58	34.264
695.76	35.083
695.95	36.295
696.13	34.259
696.32	36.368
696.50	36.055
696.68	36.996
696.87	36.335
697.05	36.505
697.24	36.296
697.42	37.400
697.60	35.353
697.79	37.579
697.97	36.679
698.16	37.311
698.34	36.267
698.52	36.827
698.71	36.819
698.89	36.609
699.07	36.684
699.26	36.479
699.44	36.326
699.63	36.492
699.81	36.976
699.99	36.462
700.18	37.444
700.36	36.431
700.54	38.249
700.73	37.879
700.91	37.840
701.09	39.172
701.28	39.302
701.46	38.229
701.64	37.412
701.83	39.977
702.01	40.079
702.20	40.121
702.38	39.946
702.56	41.629
702.75	40.350
702.93	41.394
703.11	41.268
703.30	41.704
703.48	43.266
703.66	42.391
703.85	40.697
704.03	44.252
704.21	41.916
704.40	44.249
704.58	42.762
704.76	43.440
704.95	42.098
705.13	44.778
705.31	44.268
705.50	45.126
705.68	43.535
705.86	42.564
706.04	42.954
706.23	45.290
706.41	45.396
706.59	44.210
706.78	44.214
706.96	44.586
707.14	46.226
707.33	45.334
707.51	44.698
707.69	44.463
707.88	44.835
708.06	47.423
708.24	45.493
708.42	44.544
708.61	44.805
708.79	45.983
708.97	47.764
709.16	47.451
709.34	47.229
709.52	44.817
709.71	45.573
709.89	45.525
710.07	45.288
710.25	45.963
710.44	44.556
710.62	44.883
710.80	46.448
710.98	45.413
711.17	44.882
711.35	47.165
711.53	47.000
711.72	48.475
711.90	45.833
712.08	46.916
712.26	46.508
712.45	45.673
712.63	45.560
712.81	46.449
712.99	46.010
713.18	46.251
713.36	46.095
713.54	47.140
713.72	47.350
713.91	46.990
714.09	45.020
714.27	45.987
714.45	46.700
714.64	48.250
714.82	48.353
715.00	47.533
715.18	48.079
715.37	46.595
715.55	46.187
715.73	46.187
715.91	48.158
716.10	47.759
716.28	44.366
716.46	44.882
716.64	44.624
716.83	46.499
717.01	45.871
717.19	47.098
717.37	45.257
717.55	45.739
717.74	46.457
717.92	44.753
718.10	44.117
718.28	46.924
718.47	45.746
718.65	45.464
718.83	46.328
719.01	45.001
719.19	47.026
719.38	45.566
719.56	46.997
719.74	46.042
719.92	43.371
720.10	48.177
720.29	44.566
720.47	47.243
720.65	47.263
720.83	48.697
721.01	45.327
721.20	47.224
721.38	46.657
721.56	47.716
721.74	48.199
721.92	49.511
722.11	48.455
722.29	49.126
722.47	50.316
722.65	50.902
722.83	48.329
723.01	50.707
723.20	50.406
723.38	51.903
723.56	51.662
723.74	50.393
723.92	48.240
724.10	50.466
724.29	49.369
724.47	51.150
724.65	51.210
724.83	49.897
725.01	49.679
725.19	50.543
725.38	48.238
725.56	49.640
725.74	48.523
725.92	50.709
726.10	49.559
726.28	52.777
726.46	47.498
726.65	52.068
726.83	49.650
727.01	51.660
727.19	49.865
727.37	49.804
727.55	49.830
727.73	49.525
727.92	49.835
728.10	48.193
728.28	47.543
728.46	51.052
728.64	49.114
728.82	50.941
729.00	48.122
729.19	49.340
729.37	50.665
729.55	48.583
729.73	47.070
729.91	48.501
730.09	49.000
730.27	48.232
730.45	48.073
730.63	49.250
730.82	50.381
731.00	49.338
731.18	48.867
731.36	51.899
731.54	48.069
731.72	50.897
731.90	48.223
732.08	51.256
732.26	50.328
732.45	53.066
732.63	50.202
732.81	51.536
732.99	51.095
733.17	52.315
733.35	52.366
733.53	51.401
733.71	51.007
733.89	55.271
734.07	51.642
734.25	52.801
734.44	52.045
734.62	52.523
734.80	52.756
734.98	53.461
735.16	54.786
735.34	53.354
735.52	53.373
735.70	54.207
735.88	54.605
736.06	56.286
736.24	57.181
736.42	57.803
736.60	55.859
736.78	55.702
736.97	54.327
737.15	57.905
737.33	56.501
737.51	57.979
737.69	60.550
737.87	56.488
738.05	57.077
738.23	57.976
738.41	57.686
738.59	56.598
738.77	57.879
738.95	59.305
739.13	58.198
739.31	55.437
739.49	57.082
739.67	59.393
739.85	55.900
740.03	56.409
740.21	55.393
740.39	61.298
740.57	58.628
740.75	59.111
740.93	57.416
741.11	59.151
741.30	58.746
741.48	59.329
741.66	60.133
741.84	60.499
742.02	59.058
742.20	62.779
742.38	57.320
742.56	61.093
742.74	61.229
742.92	62.065
743.10	62.663
743.28	61.348
743.46	61.803
743.64	59.588
743.82	62.900
744.00	62.331
744.18	64.419
744.36	66.091
744.54	64.412
744.72	67.745
744.90	66.277
745.08	64.530
745.26	66.804
745.44	65.011
745.62	63.428
745.80	64.597
745.98	66.368
746.16	66.754
746.34	62.153
746.52	65.408
746.70	67.255
746.87	67.371
747.05	64.579
747.23	66.234
747.41	63.873
747.59	66.173
747.77	65.993
747.95	65.391
748.13	66.842
748.31	64.299
748.49	64.872
748.67	64.326
748.85	69.427
749.03	68.528
749.21	62.241
749.39	67.987
749.57	62.248
749.75	63.192
749.93	63.418
750.11	66.120
750.29	66.988
750.47	66.295
750.65	65.066
750.83	65.169
751.01	64.721
751.18	62.665
751.36	63.462
751.54	65.713
751.72	64.808
751.90	65.370
752.08	63.300
752.26	63.518
752.44	63.306
752.62	65.443
752.80	63.484
752.98	65.985
753.16	65.074
753.34	64.279
753.52	67.763
753.69	67.003
753.87	64.905
754.05	65.474
754.23	65.670
754.41	65.606
754.59	65.556
754.77	69.023
754.95	65.247
755.13	67.129
755.31	66.538
755.49	63.263
755.66	63.524
755.84	65.968
756.02	65.990
756.20	67.226
756.38	64.700
756.56	62.411
756.74	67.136
756.92	63.545
757.10	66.352
757.28	66.990
757.45	69.145
757.63	64.987
757.81	64.708
757.99	66.360
758.17	67.393
758.35	67.786
758.53	63.008
758.71	63.840
758.88	62.920
759.06	61.344
759.24	57.630
759.42	60.744
759.60	55.517
759.78	58.118
759.96	55.422
760.13	54.121
760.31	49.459
760.49	50.573
760.67	48.474
760.85	47.951
761.03	46.862
761.21	48.290
761.38	43.983
761.56	49.633
761.74	47.370
761.92	50.319
762.10	45.580
762.28	49.177
762.46	45.926
762.63	48.175
762.81	49.362
762.99	46.369
763.17	47.466
763.35	47.728
763.53	45.921
763.70	47.652
763.88	46.062
764.06	47.584
764.24	45.567
764.42	47.130
764.60	45.207
764.77	48.693
764.95	45.256
765.13	47.012
765.31	49.779
765.49	47.885
765.66	49.586
765.84	48.378
766.02	51.295
766.20	52.899
766.38	50.734
766.56	52.870
766.73	56.561
766.91	55.854
767.09	58.022
767.27	58.310
767.45	58.518
767.62	60.878
767.80	59.232
767.98	60.808
768.16	62.378
768.33	64.659
768.51	64.973
768.69	68.191
768.87	65.395
769.05	66.181
769.22	64.112
769.40	69.120
769.58	67.103
769.76	67.043
769.94	68.118
770.11	69.179
770.29	68.966
770.47	68.562
770.65	66.333
770.82	71.683
771.00	67.440
771.18	68.611
771.36	70.816
771.53	72.823
771.71	73.024
771.89	74.369
772.07	69.199
772.25	71.167
772.42	72.085
772.60	71.815
772.78	74.091
772.96	74.369
773.13	72.323
773.31	70.287
773.49	76.105
773.67	78.502
773.84	69.982
774.02	75.012
774.20	72.050
774.37	77.170
774.55	71.943
774.73	72.666
774.91	70.090
775.08	75.554
775.26	74.906
775.44	78.134
775.62	72.319
775.79	77.404
775.97	75.012
776.15	71.379
776.32	76.112
776.50	81.650
776.68	79.067
776.86	76.293
777.03	77.445
777.21	80.345
777.39	75.050
777.56	80.235
777.74	71.443
777.92	71.930
778.10	77.043
778.27	72.915
778.45	76.287
778.63	75.133
778.80	74.147
778.98	74.348
779.16	77.068
779.34	75.447
779.51	74.138
779.69	77.188
779.87	70.720
780.04	75.187
780.22	69.234
780.40	75.500
780.57	71.168
780.75	74.410
780.93	82.107
781.10	75.068
781.28	75.616
781.46	72.233
781.63	77.608
781.81	81.154
781.99	74.790
782.16	77.906
782.34	73.043
782.52	73.365
782.69	76.393
782.87	74.586
783.05	73.896
783.22	76.919
783.40	79.588
783.58	73.936
783.75	73.733
783.93	80.890
784.11	75.443
784.28	73.308
784.46	71.858
784.64	82.145
784.81	72.934
784.99	78.270
785.17	80.323
785.34	75.140
785.52	70.814
785.69	75.232
785.87	77.685
786.05	72.787
786.22	77.677
786.40	77.326
786.58	76.372
786.75	75.547
786.93	73.737
787.11	74.522
787.28	75.676
787.46	76.577
787.63	71.884
787.81	78.228
787.99	73.337
788.16	69.508
788.34	66.582
788.51	68.798
788.69	70.910
788.87	70.582
789.04	60.223
789.22	68.950
789.39	64.008
789.57	69.655
789.75	66.733
789.92	66.051
790.10	67.671
790.27	64.990
790.45	65.942
790.63	66.974
790.80	63.169
790.98	66.101
791.15	67.639
791.33	75.764
791.51	65.312
791.68	67.797
791.86	72.863
792.03	68.371
792.21	72.688
792.39	73.288
792.56	72.235
792.74	69.777
792.91	71.735
793.09	71.222
793.26	64.819
793.44	70.906
793.62	68.996
793.79	75.983
793.97	67.770
794.14	72.769
794.32	73.182
794.49	79.123
794.67	71.785
794.84	71.793
795.02	73.520
795.20	69.018
795.37	71.838
795.55	70.281
795.72	63.255
795.90	64.702
796.07	69.075
796.25	69.671
796.42	65.316
796.60	69.363
796.77	64.793
796.95	69.911
797.13	63.239
797.30	67.869
797.48	69.730
797.65	70.667
797.83	69.802
798.00	66.667
798.18	60.301
798.35	68.609
798.53	63.312
798.70	71.325
798.88	63.966
799.05	66.049
799.23	67.742
799.40	68.764
799.58	68.171
799.75	67.226
799.93	64.594
800.10	65.087
800.28	65.003
800.45	68.725
800.63	63.456
800.80	70.588
800.98	68.524
801.15	65.981
801.33	65.646
801.50	68.723
801.68	63.891
801.85	71.897
802.03	67.159
802.20	69.546
802.38	68.476
802.55	68.163
802.73	63.049
802.90	68.705
803.08	66.324
803.25	69.085
803.43	69.011
803.60	70.161
803.78	65.439
803.95	71.899
804.13	64.504
804.30	74.141
804.48	62.334
804.65	73.838
804.83	73.412
805.00	68.579
805.17	62.148
805.35	66.041
805.52	68.501
805.70	69.366
805.87	68.497
806.05	71.253
806.22	70.370
806.40	66.102
806.57	63.947
806.75	67.772
806.92	69.328
807.09	67.539
807.27	72.843
807.44	70.101
807.62	65.189
807.79	67.480
807.97	68.393
808.14	69.650
808.31	66.711
808.49	68.914
808.66	78.507
808.84	67.468
809.01	66.312
809.19	73.146
809.36	70.449
809.53	66.547
809.71	68.982
809.88	74.476
810.06	70.106
810.23	75.208
810.41	72.721
810.58	74.552
810.75	69.850
810.93	64.197
811.10	70.528
811.28	63.705
811.45	68.040
811.62	68.952
811.80	70.593
811.97	66.397
812.15	71.274
812.32	69.345
812.49	75.137
812.67	61.706
812.84	65.347
813.02	68.254
813.19	67.877
813.36	69.340
813.54	58.833
813.71	64.140
813.89	66.274
814.06	71.260
814.23	63.079
814.41	63.753
814.58	66.367
814.75	68.910
814.93	67.989
815.10	59.080
815.28	56.500
815.45	59.549
815.62	57.238
815.80	57.705
815.97	59.155
816.14	62.102
816.32	62.127
816.49	58.287
816.66	62.855
816.84	60.126
817.01	64.316
817.18	62.439
817.36	56.863
817.53	59.180
817.71	53.036
817.88	60.252
818.05	55.771
818.23	60.500
818.40	57.258
818.57	53.100
818.75	55.812
818.92	55.178
819.09	58.327
819.27	58.155
819.44	51.353
819.61	57.122
819.79	58.824
819.96	60.385
820.13	50.256
820.31	58.538
820.48	59.443
820.65	53.333
820.82	50.785
821.00	52.311
821.17	45.853
821.34	49.573
821.52	47.023
821.69	48.900
821.86	45.458
822.04	45.194
822.21	42.634
822.38	42.746
822.56	40.577
822.73	42.255
822.90	40.462
823.07	39.864
823.25	41.598
823.42	41.452
823.59	39.235
823.77	40.115
823.94	40.666
824.11	42.696
824.29	41.058
824.46	41.303
824.63	42.356
824.80	44.233
824.98	42.061
825.15	44.157
825.32	42.132
825.49	47.283
825.67	43.618
825.84	46.920
826.01	43.294
826.19	45.515
826.36	45.361
826.53	47.082
826.70	44.161
826.88	45.338
827.05	43.779
827.22	46.244
827.39	46.441
827.57	44.924
827.74	41.749
827.91	45.447
828.08	40.803
828.26	45.301
828.43	41.542
828.60	42.715
828.77	43.113
828.95	45.669
829.12	43.336
829.29	42.434
829.46	45.603
829.64	42.546
829.81	42.481
829.98	48.077
830.15	46.962
830.32	45.683
830.50	47.048
830.67	49.180
830.84	47.404
831.01	52.262
831.19	48.391
831.36	50.308
831.53	57.389
831.70	54.034
831.87	50.000
832.05	54.996
832.22	50.863
832.39	47.462
832.56	50.986
832.74	60.585
832.91	57.024
833.08	57.964
833.25	47.877
833.42	50.992
833.60	47.077
833.77	42.494
833.94	47.539
834.11	47.343
834.28	44.217
834.45	46.144
834.63	41.085
834.80	44.729
834.97	44.197
835.14	44.573
835.31	44.271
835.49	47.179
835.66	43.406
835.83	43.222
836.00	43.492
836.17	44.430
836.34	44.396
836.52	50.667
836.69	47.588
836.86	53.376
837.03	53.113
837.20	46.483
837.37	52.998
837.55	55.336
837.72	50.994
837.89	55.035
838.06	60.492
838.23	58.083
838.40	58.871
838.58	58.094
838.75	68.949
838.92	62.069
839.09	76.622
839.26	70.977
839.43	66.667
839.60	71.352
839.78	69.456
839.95	78.589
840.12	72.579
840.29	79.619
840.46	64.130
840.63	71.656
840.80	66.468
840.98	64.773
841.15	64.464
841.32	60.636
841.49	56.726
841.66	66.766
841.83	64.925
842.00	64.956
842.17	56.901
842.34	60.000
842.52	66.897
842.69	71.477
842.86	74.610
843.03	82.183
843.20	72.087
843.37	75.120
843.54	78.378
843.71	79.770
843.88	85.053
844.06	85.278
844.23	89.787
844.40	76.104
844.57	78.892
844.74	78.924
844.91	87.028
845.08	94.711
845.25	95.500
845.42	106.602
845.59	86.007
845.76	91.682
845.94	117.002
846.11	91.393
846.28	101.860
846.45	101.389
846.62	113.627
846.79	84.063
846.96	109.785
847.13	97.237
847.30	86.535
847.47	89.204
847.64	83.619
847.81	103.659
847.98	95.728
848.15	111.416
848.32	114.469
848.50	85.743
848.67	101.927
848.84	108.318
849.01	103.922
849.18	101.762
849.35	110.470
849.52	124.122
849.69	102.603
849.86	99.083
850.03	103.628
850.20	101.220
850.37	92.277
850.54	92.659
850.71	104.391
850.88	104.752
851.05	98.732
851.22	122.762
851.39	116.461
851.56	86.019
851.73	110.267
851.90	111.162
852.07	98.058
852.24	94.316
852.41	87.858
852.58	102.697
852.75	99.524
852.92	104.525
853.09	116.359
853.26	138.199
853.43	91.461
853.60	108.056
853.77	97.842
853.94	106.338
854.11	115.011
854.28	123.040
854.45	78.802
854.62	121.640
854.79	111.726
854.96	120.611
855.13	98.246
855.30	101.579
855.47	129.888
855.64	93.454
855.81	119.318
855.98	122.105
856.15	108.706
856.32	122.917
856.49	97.493
856.66	97.011
856.83	106.202
857.00	93.182
857.17	124.638
857.34	100.445
857.51	122.469
857.68	114.851
857.85	100.398
858.02	126.882
858.19	110.884
858.36	108.658
858.53	112.136
858.70	106.039
858.87	151.368
859.04	100.636
859.21	104.975
859.38	93.541
859.55	119.326
859.72	105.057
859.89	122.589
860.05	96.984
860.22	119.660
860.39	109.358
860.56	99.355
860.73	112.802
860.90	111.728
861.07	112.357
861.24	115.245
861.41	106.989
861.58	100.251
861.75	117.772
861.92	103.804
862.09	94.260
862.26	111.321
862.43	135.294
862.59	105.249
862.76	115.461
862.93	148.800
863.10	96.552
863.27	121.372
863.44	95.897
863.61	91.777
863.78	114.149
863.95	152.027
864.12	108.621
864.29	137.383
864.45	94.468
864.62	97.561
864.79	108.871
864.96	97.926
865.13	91.304
865.30	107.423
865.47	106.061
865.64	141.033
865.81	104.190
865.97	102.955
866.14	92.077
866.31	101.370
866.48	108.333
866.65	105.596
866.82	127.518
866.99	103.140
867.16	90.000
867.33	115.890
867.49	98.337
867.66	110.062
867.83	104.843
868.00	104.290
868.17	98.675
868.34	110.904
868.51	107.901
868.67	99.239
868.84	106.207
869.01	118.261
869.18	93.768
869.35	104.464
869.52	109.513
869.69	132.317
869.85	120.944
870.02	101.818
870.19	113.659
870.36	109.005
870.53	114.939
870.70	107.232
870.86	93.247
871.03	96.774
871.20	96.765
871.37	109.582
871.54	115.789
871.71	102.200
871.87	118.911
872.04	101.271
872.21	102.292
872.38	113.298
872.55	111.893
872.72	103.538
872.88	107.743
873.05	94.855
873.22	105.783
873.39	83.366
873.56	90.299
873.72	105.753
873.89	95.466
874.06	101.832
874.23	121.083
874.40	94.416
874.56	92.060
874.73	85.235
874.90	91.509
875.07	97.922
875.24	99.087
875.40	87.013
875.57	103.103
875.74	98.161
875.91	89.035
876.08	88.641
876.24	99.282
876.41	109.804
876.58	106.933
876.75	111.911
876.92	98.950
877.08	82.500
877.25	96.774
877.42	97.414
877.59	90.745
877.75	114.601
877.92	77.778
878.09	102.228
878.26	102.284
878.42	94.227
878.59	113.827
878.76	95.366
878.93	110.805
879.09	89.569
879.26	88.676
879.43	81.693
879.60	78.894
879.76	94.196
879.93	85.235
880.10	71.098
880.27	66.932
880.43	69.472
880.60	64.940
880.77	62.693
880.94	68.201
881.10	51.720
881.27	53.196
881.44	42.381
881.61	43.312
881.77	48.525
881.94	38.733
882.11	37.534
882.28	35.469
882.44	36.533
882.61	38.418
882.78	34.591
882.94	39.816
883.11	36.428
883.28	36.475
883.45	35.698
883.61	39.203
883.78	35.218
883.95	42.727
884.11	40.072
884.28	38.152
>>>>>End Processed Spectral Data<<<<<
