SpectraSuite Data File
++++++++++++++++++++++++++++++++++++
Date: Thu Sep 26 03:19:55 EST 2019
User: sgrac
Dark Spectrum Present: Yes
Reference Spectrum Present: Yes
Number of Sampled Component Spectra: 1
Spectrometers: USB4E01596
Integration Time (usec): 100000 (USB4E01596)
Spectra Averaged: 3 (USB4E01596)
Boxcar Smoothing: 0 (USB4E01596)
Correct for Electrical Dark: No (USB4E01596)
Strobe/Lamp Enabled: Yes (USB4E01596)
Correct for Detector Non-linearity: No (USB4E01596)
Correct for Stray Light: No (USB4E01596)
Number of Pixels in Processed Spectrum: 3648
>>>>>Begin Processed Spectral Data<<<<<
178.44	-1050.000
178.66	-1050.000
178.87	-1050.000
179.09	-304.082
179.30	-146.429
179.52	-581.818
179.74	-425.000
179.95	-1046.154
180.17	184.337
180.38	1607.143
180.60	344.643
180.82	278.313
181.03	329.167
181.25	200.962
181.46	-529.032
181.68	255.000
181.89	1220.000
182.11	-972.222
182.33	232.039
182.54	219.540
182.76	248.214
182.97	570.370
183.19	121.739
183.40	265.049
183.62	2075.000
183.84	248.913
184.05	1233.333
184.27	201.031
184.48	-463.889
184.70	1235.714
184.91	272.000
185.13	1266.667
185.34	459.459
185.56	1390.000
185.78	188.660
185.99	275.325
186.21	651.429
186.42	806.667
186.64	871.429
186.85	228.571
187.07	408.571
187.28	257.895
187.50	1108.696
187.72	1033.333
187.93	585.106
188.15	396.226
188.36	793.750
188.58	5766.667
188.79	490.000
189.01	2950.000
189.22	242.857
189.44	783.333
189.65	2300.000
189.87	397.297
190.09	809.677
190.30	377.778
190.52	-20100.000
190.73	-14200.000
190.95	950.000
191.16	170.642
191.38	135.870
191.59	497.059
191.81	350.000
192.02	553.333
192.24	261.644
192.45	215.789
192.67	634.043
192.88	528.205
193.10	186.047
193.31	191.011
193.53	911.765
193.74	264.634
193.96	240.000
194.18	1073.684
194.39	180.000
194.61	1472.727
194.82	320.270
195.04	145.714
195.25	188.281
195.47	565.625
195.68	159.494
195.90	780.000
196.11	226.000
196.33	576.923
196.54	347.619
196.76	614.286
196.97	709.091
197.19	586.111
197.40	-453.333
197.62	329.091
197.83	212.605
198.05	475.472
198.26	326.761
198.48	1558.333
198.69	0.000
198.91	2088.889
199.12	414.815
199.34	291.304
199.55	204.505
199.77	264.368
199.98	5400.000
200.20	363.636
200.41	208.411
200.63	742.857
200.84	265.217
201.06	204.310
201.27	938.095
201.49	965.000
201.70	-707.143
201.91	305.319
202.13	446.154
202.34	-227.083
202.56	436.364
202.77	1180.000
202.99	564.706
203.20	349.180
203.42	378.182
203.63	253.846
203.85	168.613
204.06	381.579
204.28	228.571
204.49	505.882
204.71	240.845
204.92	-8400.000
205.14	432.143
205.35	234.783
205.56	570.833
205.78	313.559
205.99	316.981
206.21	198.148
206.42	229.545
206.64	703.125
206.85	204.762
207.07	141.600
207.28	176.923
207.50	292.424
207.71	919.048
207.93	-486.111
208.14	-1327.273
208.35	700.000
208.57	160.000
208.78	392.000
209.00	257.895
209.21	3450.000
209.43	228.846
209.64	687.500
209.86	3460.000
210.07	470.732
210.28	-355.263
210.50	3933.333
210.71	720.000
210.93	139.655
211.14	321.154
211.36	684.211
211.57	535.714
211.78	738.095
212.00	604.167
212.21	220.690
212.43	523.810
212.64	192.233
212.86	261.538
213.07	202.632
213.29	946.667
213.50	243.038
213.71	147.581
213.93	534.091
214.14	219.231
214.36	135.882
214.57	400.000
214.78	228.049
215.00	289.412
215.21	219.753
215.43	577.778
215.64	215.217
215.86	159.712
216.07	652.000
216.28	243.038
216.50	275.472
216.71	251.220
216.93	530.952
217.14	1627.273
217.35	554.286
217.57	259.677
217.78	175.221
218.00	221.277
218.21	214.474
218.42	293.023
218.64	141.584
218.85	143.750
219.07	184.000
219.28	451.429
219.49	318.421
219.71	374.000
219.92	-1870.000
220.14	318.750
220.35	670.833
220.56	-9100.000
220.78	154.762
220.99	555.000
221.21	278.313
221.42	274.359
221.63	214.894
221.85	0.000
222.06	196.226
222.28	377.143
222.49	192.424
222.70	1450.000
222.92	256.410
223.13	174.306
223.34	161.957
223.56	142.609
223.77	114.650
223.99	122.360
224.20	103.846
224.41	317.021
224.63	94.558
224.84	157.658
225.05	86.260
225.27	169.364
225.48	178.947
225.69	142.857
225.91	166.087
226.12	96.753
226.34	66.471
226.55	104.412
226.76	79.710
226.98	88.136
227.19	94.972
227.40	153.333
227.62	86.940
227.83	104.418
228.04	57.143
228.26	58.312
228.47	47.794
228.69	47.073
228.90	39.421
229.11	18.036
229.33	45.630
229.54	32.558
229.75	20.577
229.97	24.878
230.18	29.944
230.39	20.246
230.61	27.330
230.82	28.098
231.03	24.571
231.25	35.674
231.46	21.544
231.67	28.608
231.89	32.459
232.10	29.091
232.31	34.583
232.53	32.475
232.74	23.430
232.95	42.230
233.17	35.897
233.38	33.333
233.59	38.366
233.81	41.137
234.02	26.273
234.23	34.870
234.45	39.810
234.66	25.546
234.87	38.779
235.09	26.353
235.30	33.217
235.51	29.433
235.73	21.963
235.94	25.901
236.15	28.028
236.36	31.685
236.58	35.952
236.79	28.593
237.00	29.472
237.22	29.371
237.43	34.720
237.64	37.030
237.86	33.333
238.07	34.830
238.28	29.138
238.50	31.486
238.71	28.846
238.92	24.233
239.13	32.380
239.35	35.209
239.56	29.870
239.77	24.432
239.99	24.810
240.20	41.153
240.41	18.318
240.63	25.000
240.84	27.370
241.05	18.902
241.26	21.456
241.48	20.189
241.69	20.741
241.90	15.057
242.12	19.596
242.33	18.035
242.54	11.029
242.75	11.801
242.97	17.102
243.18	10.219
243.39	8.094
243.61	10.541
243.82	10.000
244.03	11.369
244.24	10.422
244.46	12.056
244.67	12.277
244.88	13.719
245.09	10.057
245.31	10.786
245.52	13.759
245.73	11.638
245.95	22.271
246.16	12.304
246.37	11.430
246.58	10.487
246.80	14.599
247.01	11.135
247.22	9.772
247.43	10.300
247.65	12.562
247.86	8.931
248.07	7.408
248.28	9.394
248.50	10.583
248.71	7.790
248.92	8.037
249.13	7.294
249.35	9.615
249.56	8.613
249.77	9.061
249.98	9.633
250.20	11.260
250.41	9.789
250.62	11.850
250.83	12.775
251.05	15.127
251.26	12.978
251.47	15.066
251.68	17.419
251.90	13.466
252.11	13.395
252.32	12.419
252.53	13.430
252.75	9.495
252.96	9.740
253.17	13.197
253.38	11.269
253.59	11.899
253.81	13.105
254.02	11.275
254.23	12.224
254.44	12.506
254.66	14.766
254.87	8.120
255.08	12.184
255.29	15.815
255.50	11.603
255.72	16.271
255.93	17.051
256.14	19.897
256.35	13.994
256.57	15.685
256.78	15.985
256.99	10.689
257.20	15.343
257.41	14.743
257.63	10.837
257.84	15.157
258.05	18.043
258.26	13.273
258.47	10.800
258.69	12.121
258.90	7.279
259.11	10.758
259.32	7.855
259.53	8.166
259.75	8.122
259.96	5.981
260.17	6.083
260.38	6.716
260.59	7.393
260.81	6.357
261.02	7.238
261.23	7.162
261.44	7.474
261.65	7.097
261.87	6.382
262.08	7.967
262.29	8.637
262.50	5.535
262.71	5.603
262.92	7.950
263.14	7.958
263.35	6.828
263.56	7.764
263.77	8.873
263.98	7.154
264.20	9.984
264.41	8.727
264.62	7.686
264.83	5.661
265.04	13.867
265.25	11.688
265.47	8.114
265.68	12.824
265.89	11.887
266.10	8.488
266.31	14.223
266.52	8.927
266.74	10.582
266.95	7.079
267.16	11.908
267.37	9.929
267.58	10.434
267.79	10.023
268.01	9.088
268.22	7.527
268.43	9.549
268.64	8.981
268.85	6.393
269.06	6.916
269.27	7.798
269.49	7.042
269.70	8.344
269.91	7.960
270.12	7.443
270.33	10.274
270.54	8.208
270.75	6.107
270.97	7.983
271.18	5.986
271.39	7.977
271.60	9.470
271.81	8.181
272.02	6.576
272.23	6.348
272.45	7.271
272.66	5.608
272.87	7.285
273.08	5.537
273.29	7.426
273.50	7.417
273.71	7.423
273.92	6.259
274.14	7.707
274.35	5.719
274.56	8.350
274.77	5.745
274.98	8.367
275.19	5.975
275.40	6.483
275.61	5.817
275.83	10.210
276.04	5.887
276.25	5.006
276.46	6.929
276.67	9.831
276.88	6.588
277.09	9.706
277.30	8.318
277.51	5.260
277.73	8.096
277.94	7.874
278.15	7.748
278.36	10.616
278.57	8.614
278.78	5.850
278.99	10.142
279.20	7.772
279.41	9.206
279.62	7.478
279.84	6.192
280.05	6.154
280.26	5.829
280.47	9.403
280.68	5.191
280.89	9.127
281.10	8.159
281.31	6.111
281.52	8.476
281.73	6.318
281.94	5.991
282.16	7.310
282.37	6.591
282.58	7.706
282.79	10.511
283.00	8.425
283.21	4.968
283.42	4.790
283.63	5.855
283.84	4.419
284.05	5.256
284.26	7.222
284.47	7.642
284.68	6.982
284.89	6.623
285.11	6.060
285.32	7.267
285.53	8.138
285.74	7.194
285.95	6.971
286.16	5.206
286.37	7.285
286.58	5.669
286.79	5.910
287.00	5.069
287.21	5.622
287.42	5.467
287.63	4.909
287.84	6.123
288.05	5.487
288.26	5.340
288.48	5.380
288.69	4.251
288.90	4.593
289.11	7.604
289.32	7.995
289.53	3.974
289.74	4.016
289.95	5.357
290.16	5.482
290.37	5.105
290.58	5.041
290.79	2.884
291.00	5.524
291.21	5.749
291.42	5.067
291.63	5.819
291.84	6.623
292.05	4.867
292.26	4.469
292.47	5.015
292.68	4.883
292.89	6.232
293.10	5.681
293.31	6.157
293.52	5.637
293.73	4.516
293.94	4.999
294.15	7.455
294.36	5.054
294.57	6.736
294.79	6.065
295.00	3.579
295.21	6.796
295.42	4.050
295.63	5.691
295.84	6.109
296.05	4.440
296.26	4.294
296.47	4.915
296.68	3.786
296.89	5.459
297.10	7.129
297.31	5.472
297.52	3.822
297.73	5.303
297.94	4.433
298.15	4.007
298.36	3.587
298.57	5.555
298.78	4.433
298.99	4.675
299.20	4.655
299.41	4.875
299.62	4.293
299.83	3.936
300.04	5.648
300.25	4.293
300.46	4.729
300.67	5.670
300.88	6.657
301.09	4.593
301.30	5.002
301.50	5.238
301.71	7.813
301.92	5.700
302.13	4.394
302.34	3.608
302.55	7.201
302.76	4.616
302.97	5.881
303.18	5.751
303.39	4.568
303.60	5.395
303.81	5.682
304.02	2.991
304.23	4.273
304.44	3.693
304.65	5.487
304.86	5.711
305.07	2.541
305.28	6.678
305.49	5.354
305.70	5.797
305.91	2.717
306.12	3.829
306.33	4.533
306.54	3.365
306.75	7.095
306.96	5.263
307.17	4.789
307.38	4.547
307.58	4.820
307.79	5.825
308.00	5.102
308.21	4.824
308.42	5.600
308.63	5.953
308.84	3.873
309.05	5.539
309.26	6.087
309.47	4.445
309.68	5.380
309.89	5.435
310.10	5.714
310.31	3.725
310.52	6.014
310.73	6.457
310.94	4.692
311.14	5.275
311.35	5.683
311.56	5.849
311.77	3.861
311.98	4.299
312.19	3.492
312.40	4.510
312.61	3.272
312.82	4.956
313.03	4.417
313.24	5.608
313.45	4.504
313.66	4.309
313.86	3.391
314.07	5.323
314.28	4.934
314.49	4.099
314.70	4.446
314.91	6.795
315.12	5.605
315.33	6.992
315.54	5.834
315.75	5.045
315.96	4.799
316.16	4.220
316.37	6.399
316.58	4.294
316.79	4.863
317.00	6.602
317.21	5.933
317.42	5.951
317.63	4.783
317.84	4.574
318.05	5.627
318.25	5.762
318.46	3.238
318.67	5.754
318.88	6.854
319.09	5.274
319.30	3.087
319.51	5.390
319.72	7.166
319.93	5.243
320.13	3.758
320.34	5.185
320.55	5.145
320.76	5.630
320.97	3.724
321.18	5.554
321.39	5.954
321.60	3.985
321.80	5.693
322.01	7.678
322.22	3.304
322.43	3.588
322.64	4.862
322.85	6.705
323.06	7.581
323.27	6.457
323.47	5.640
323.68	5.129
323.89	3.620
324.10	5.536
324.31	3.944
324.52	7.203
324.73	4.005
324.93	4.381
325.14	4.043
325.35	4.797
325.56	4.497
325.77	4.700
325.98	5.178
326.19	3.774
326.39	2.953
326.60	4.712
326.81	3.963
327.02	3.277
327.23	3.892
327.44	5.458
327.64	3.282
327.85	4.602
328.06	4.508
328.27	7.785
328.48	6.169
328.69	2.926
328.90	5.120
329.10	3.427
329.31	4.632
329.52	5.019
329.73	4.274
329.94	5.002
330.15	6.385
330.35	6.084
330.56	5.284
330.77	4.283
330.98	6.807
331.19	5.055
331.39	4.241
331.60	4.296
331.81	2.637
332.02	6.065
332.23	5.524
332.44	4.938
332.64	6.064
332.85	4.404
333.06	5.762
333.27	6.186
333.48	4.226
333.68	5.440
333.89	4.114
334.10	4.205
334.31	6.113
334.52	5.986
334.72	4.026
334.93	5.055
335.14	3.713
335.35	4.372
335.56	4.970
335.76	5.196
335.97	5.676
336.18	3.821
336.39	6.258
336.60	4.583
336.80	4.130
337.01	4.851
337.22	4.727
337.43	4.376
337.64	6.629
337.84	5.226
338.05	5.673
338.26	5.783
338.47	4.576
338.68	4.258
338.88	4.328
339.09	4.094
339.30	5.103
339.51	3.401
339.71	5.382
339.92	4.532
340.13	3.791
340.34	4.201
340.55	5.586
340.75	4.958
340.96	5.601
341.17	5.780
341.38	4.528
341.58	3.827
341.79	4.538
342.00	4.805
342.21	3.705
342.41	4.060
342.62	4.282
342.83	5.333
343.04	4.229
343.24	6.440
343.45	4.818
343.66	3.682
343.87	4.254
344.07	5.710
344.28	5.699
344.49	6.441
344.70	6.538
344.90	4.189
345.11	4.386
345.32	3.719
345.53	4.312
345.73	6.243
345.94	5.460
346.15	5.661
346.36	4.406
346.56	6.339
346.77	5.031
346.98	3.859
347.19	6.171
347.39	3.849
347.60	5.076
347.81	4.868
348.02	5.670
348.22	3.358
348.43	4.862
348.64	3.308
348.84	5.288
349.05	4.476
349.26	5.373
349.47	4.519
349.67	4.260
349.88	5.197
350.09	4.356
350.30	6.889
350.50	4.620
350.71	5.718
350.92	4.037
351.12	4.666
351.33	6.536
351.54	5.111
351.74	5.447
351.95	4.757
352.16	5.377
352.37	6.328
352.57	5.691
352.78	5.397
352.99	4.527
353.19	4.359
353.40	3.911
353.61	6.319
353.82	6.360
354.02	5.646
354.23	5.413
354.44	6.278
354.64	4.321
354.85	4.938
355.06	4.133
355.26	3.411
355.47	5.061
355.68	6.260
355.88	5.573
356.09	5.377
356.30	4.049
356.51	5.142
356.71	5.120
356.92	4.413
357.13	5.546
357.33	6.698
357.54	4.336
357.75	3.835
357.95	5.019
358.16	4.320
358.37	5.991
358.57	3.987
358.78	6.724
358.99	4.908
359.19	4.827
359.40	6.299
359.61	5.460
359.81	6.326
360.02	6.673
360.23	4.649
360.43	4.895
360.64	4.874
360.85	5.014
361.05	4.222
361.26	5.341
361.47	4.813
361.67	6.156
361.88	3.320
362.09	5.402
362.29	4.168
362.50	3.770
362.70	3.198
362.91	5.187
363.12	4.552
363.32	5.082
363.53	5.341
363.74	5.499
363.94	3.887
364.15	5.757
364.36	4.364
364.56	3.465
364.77	4.637
364.98	6.868
365.18	4.822
365.39	5.638
365.59	4.240
365.80	4.879
366.01	6.061
366.21	4.126
366.42	4.665
366.63	5.712
366.83	4.824
367.04	4.047
367.24	5.889
367.45	3.074
367.66	4.147
367.86	4.626
368.07	4.984
368.28	4.863
368.48	4.355
368.69	3.264
368.89	4.745
369.10	5.590
369.31	4.501
369.51	4.057
369.72	6.215
369.92	5.731
370.13	5.115
370.34	5.347
370.54	4.323
370.75	5.693
370.95	4.371
371.16	5.559
371.37	4.445
371.57	5.793
371.78	4.835
371.98	4.913
372.19	5.032
372.40	4.958
372.60	5.486
372.81	4.553
373.01	3.987
373.22	4.051
373.43	5.891
373.63	4.614
373.84	4.791
374.04	5.091
374.25	5.065
374.46	5.815
374.66	5.814
374.87	5.759
375.07	3.633
375.28	3.483
375.48	5.498
375.69	6.009
375.90	3.144
376.10	3.480
376.31	4.132
376.51	3.765
376.72	3.864
376.92	4.067
377.13	5.136
377.34	5.577
377.54	4.586
377.75	5.489
377.95	4.840
378.16	5.824
378.36	5.355
378.57	6.226
378.77	4.752
378.98	5.142
379.19	4.292
379.39	4.881
379.60	5.277
379.80	5.371
380.01	6.254
380.21	4.754
380.42	5.755
380.62	5.836
380.83	6.053
381.04	4.401
381.24	5.544
381.45	4.949
381.65	5.052
381.86	5.967
382.06	6.149
382.27	4.329
382.47	4.724
382.68	6.293
382.88	4.347
383.09	4.778
383.29	5.536
383.50	6.929
383.71	5.350
383.91	4.934
384.12	5.171
384.32	5.635
384.53	5.452
384.73	4.675
384.94	5.250
385.14	5.614
385.35	4.697
385.55	6.188
385.76	4.871
385.96	5.498
386.17	6.287
386.37	5.980
386.58	5.398
386.78	6.837
386.99	5.551
387.19	6.672
387.40	4.700
387.60	8.069
387.81	6.242
388.01	6.398
388.22	7.047
388.42	8.349
388.63	7.582
388.83	8.286
389.04	5.577
389.24	7.086
389.45	6.338
389.65	7.359
389.86	6.959
390.06	6.274
390.27	6.365
390.47	7.184
390.68	7.014
390.88	8.376
391.09	8.862
391.29	8.829
391.50	7.976
391.70	8.821
391.91	7.799
392.11	8.585
392.32	9.237
392.52	9.854
392.73	8.340
392.93	9.179
393.14	8.639
393.34	9.106
393.55	9.584
393.75	9.168
393.95	8.776
394.16	10.546
394.36	10.281
394.57	10.785
394.77	9.588
394.98	9.965
395.18	10.761
395.39	11.087
395.59	11.350
395.80	11.284
396.00	10.502
396.21	11.735
396.41	10.430
396.61	11.260
396.82	11.184
397.02	12.519
397.23	11.326
397.43	11.319
397.64	10.185
397.84	12.827
398.05	10.453
398.25	13.128
398.45	10.795
398.66	13.549
398.86	12.377
399.07	12.512
399.27	11.121
399.48	13.827
399.68	11.859
399.89	13.286
400.09	13.176
400.29	13.122
400.50	12.773
400.70	12.761
400.91	12.064
401.11	13.525
401.32	11.802
401.52	12.657
401.72	12.404
401.93	14.143
402.13	13.702
402.34	13.181
402.54	13.197
402.75	14.478
402.95	12.974
403.15	14.659
403.36	12.246
403.56	14.819
403.77	12.628
403.97	14.544
404.17	13.482
404.38	14.737
404.58	14.415
404.79	15.381
404.99	14.732
405.19	14.453
405.40	14.381
405.60	15.606
405.81	14.224
406.01	14.458
406.21	14.619
406.42	15.676
406.62	15.186
406.83	15.538
407.03	15.042
407.23	14.621
407.44	14.635
407.64	15.382
407.85	15.500
408.05	15.339
408.25	14.158
408.46	16.278
408.66	14.372
408.87	14.291
409.07	14.522
409.27	14.661
409.48	14.772
409.68	16.097
409.88	13.979
410.09	15.935
410.29	15.149
410.50	15.691
410.70	13.937
410.90	15.668
411.11	14.463
411.31	14.824
411.51	15.651
411.72	15.562
411.92	14.769
412.12	15.169
412.33	14.337
412.53	14.880
412.74	14.385
412.94	14.803
413.14	14.991
413.35	15.205
413.55	14.876
413.75	16.004
413.96	14.926
414.16	15.643
414.36	15.152
414.57	15.358
414.77	14.535
414.97	15.556
415.18	14.161
415.38	14.826
415.58	15.184
415.79	15.490
415.99	14.147
416.19	15.579
416.40	15.138
416.60	14.640
416.80	15.275
417.01	15.319
417.21	14.802
417.41	15.954
417.62	15.866
417.82	15.779
418.02	14.516
418.23	15.791
418.43	15.184
418.63	15.520
418.84	15.596
419.04	15.447
419.24	16.118
419.45	15.589
419.65	15.931
419.85	15.430
420.06	15.459
420.26	15.884
420.46	15.627
420.67	15.768
420.87	15.374
421.07	15.778
421.28	15.628
421.48	15.662
421.68	15.393
421.88	15.602
422.09	15.193
422.29	15.507
422.49	15.380
422.70	15.673
422.90	15.574
423.10	15.428
423.31	15.730
423.51	15.839
423.71	15.277
423.91	15.737
424.12	15.564
424.32	15.988
424.52	15.472
424.73	15.508
424.93	15.647
425.13	15.043
425.33	15.307
425.54	15.429
425.74	15.434
425.94	15.356
426.15	15.394
426.35	15.483
426.55	15.951
426.75	15.881
426.96	15.283
427.16	15.822
427.36	15.302
427.57	16.183
427.77	15.167
427.97	15.805
428.17	15.318
428.38	15.200
428.58	15.250
428.78	16.044
428.98	14.923
429.19	15.808
429.39	14.281
429.59	15.656
429.79	14.490
430.00	15.528
430.20	14.483
430.40	15.129
430.60	14.357
430.81	15.440
431.01	15.427
431.21	15.765
431.41	14.516
431.62	15.568
431.82	15.366
432.02	15.884
432.22	15.273
432.43	15.212
432.63	15.265
432.83	15.634
433.03	15.759
433.24	15.055
433.44	14.970
433.64	15.769
433.84	15.465
434.05	15.804
434.25	15.967
434.45	16.404
434.65	16.393
434.85	16.131
435.06	16.109
435.26	16.327
435.46	15.677
435.66	16.368
435.87	16.425
436.07	16.419
436.27	16.362
436.47	16.362
436.67	16.038
436.88	16.336
437.08	16.081
437.28	16.722
437.48	15.925
437.69	16.290
437.89	16.436
438.09	16.848
438.29	16.238
438.49	17.269
438.70	16.850
438.90	17.016
439.10	16.251
439.30	16.833
439.50	16.470
439.71	16.924
439.91	16.824
440.11	17.182
440.31	16.383
440.51	16.378
440.72	16.412
440.92	16.616
441.12	17.095
441.32	16.599
441.52	17.019
441.72	16.868
441.93	16.881
442.13	16.572
442.33	16.765
442.53	17.056
442.73	16.926
442.94	17.491
443.14	17.395
443.34	17.084
443.54	16.815
443.74	17.418
443.94	17.248
444.15	17.597
444.35	17.180
444.55	17.441
444.75	17.073
444.95	17.219
445.15	16.863
445.36	17.009
445.56	16.661
445.76	16.953
445.96	17.041
446.16	17.043
446.36	16.296
446.57	17.008
446.77	17.005
446.97	17.285
447.17	16.877
447.37	16.968
447.57	17.155
447.77	17.119
447.98	16.707
448.18	16.798
448.38	17.237
448.58	17.248
448.78	17.246
448.98	17.084
449.18	17.340
449.39	17.397
449.59	17.468
449.79	17.261
449.99	17.121
450.19	17.335
450.39	17.398
450.59	16.844
450.79	16.902
451.00	17.274
451.20	17.409
451.40	16.773
451.60	17.090
451.80	17.395
452.00	16.787
452.20	17.362
452.40	16.312
452.61	16.836
452.81	16.813
453.01	16.842
453.21	16.781
453.41	17.011
453.61	16.692
453.81	16.618
454.01	16.494
454.21	16.839
454.42	16.975
454.62	17.012
454.82	16.183
455.02	16.969
455.22	16.503
455.42	16.694
455.62	16.932
455.82	17.022
456.02	16.607
456.23	17.569
456.43	16.586
456.63	16.640
456.83	16.365
457.03	16.424
457.23	16.212
457.43	17.071
457.63	16.505
457.83	17.236
458.03	16.466
458.23	16.163
458.43	16.220
458.64	16.838
458.84	16.337
459.04	15.907
459.24	16.064
459.44	16.550
459.64	15.676
459.84	16.045
460.04	16.140
460.24	16.355
460.44	16.287
460.64	15.945
460.84	16.236
461.04	16.153
461.24	16.081
461.45	16.245
461.65	16.369
461.85	16.284
462.05	16.778
462.25	16.424
462.45	16.326
462.65	16.613
462.85	15.953
463.05	16.488
463.25	15.816
463.45	16.544
463.65	16.371
463.85	16.268
464.05	15.890
464.25	16.160
464.45	15.884
464.65	15.689
464.85	16.071
465.05	16.090
465.26	16.149
465.46	16.238
465.66	16.272
465.86	16.603
466.06	16.330
466.26	15.981
466.46	15.819
466.66	16.006
466.86	15.917
467.06	16.194
467.26	15.782
467.46	16.292
467.66	16.036
467.86	16.209
468.06	15.685
468.26	16.124
468.46	16.030
468.66	16.472
468.86	16.189
469.06	16.477
469.26	16.270
469.46	16.522
469.66	16.435
469.86	16.528
470.06	16.101
470.26	16.432
470.46	16.549
470.66	17.171
470.86	16.148
471.06	16.580
471.26	16.514
471.46	16.524
471.66	16.205
471.86	16.632
472.06	16.709
472.26	16.950
472.46	16.893
472.66	16.965
472.86	16.577
473.06	16.638
473.26	17.108
473.46	17.113
473.66	17.130
473.86	17.453
474.06	16.973
474.26	17.323
474.46	17.143
474.66	17.631
474.86	17.525
475.06	17.420
475.26	17.388
475.46	17.773
475.66	17.362
475.86	17.880
476.06	17.565
476.26	18.137
476.46	17.598
476.66	17.965
476.86	17.541
477.06	18.063
477.26	18.263
477.46	18.262
477.65	18.067
477.85	17.825
478.05	18.260
478.25	17.876
478.45	17.859
478.65	18.556
478.85	18.321
479.05	18.362
479.25	18.182
479.45	18.670
479.65	18.426
479.85	18.542
480.05	18.612
480.25	18.920
480.45	19.017
480.65	19.023
480.85	19.010
481.05	18.833
481.25	18.338
481.44	18.821
481.64	18.924
481.84	18.914
482.04	18.982
482.24	18.784
482.44	19.232
482.64	18.919
482.84	19.053
483.04	19.114
483.24	19.001
483.44	18.785
483.64	18.936
483.84	18.630
484.04	18.881
484.23	19.128
484.43	19.747
484.63	19.673
484.83	19.892
485.03	20.772
485.23	20.429
485.43	20.683
485.63	20.403
485.83	20.268
486.03	20.101
486.23	20.229
486.42	20.256
486.62	20.200
486.82	19.969
487.02	19.801
487.22	19.936
487.42	19.970
487.62	19.826
487.82	19.711
488.02	19.979
488.22	20.095
488.41	20.132
488.61	20.206
488.81	20.311
489.01	20.483
489.21	20.436
489.41	20.240
489.61	20.500
489.81	20.547
490.01	20.564
490.20	20.610
490.40	20.436
490.60	20.413
490.80	20.530
491.00	20.524
491.20	20.361
491.40	20.374
491.60	20.208
491.79	20.187
491.99	20.412
492.19	20.507
492.39	20.418
492.59	20.444
492.79	20.521
492.99	20.738
493.19	20.701
493.38	20.836
493.58	21.149
493.78	21.088
493.98	21.426
494.18	21.198
494.38	20.927
494.58	21.113
494.77	21.723
494.97	21.116
495.17	21.192
495.37	21.293
495.57	20.951
495.77	21.369
495.96	21.816
496.16	21.178
496.36	21.441
496.56	21.494
496.76	21.267
496.96	21.584
497.15	21.235
497.35	21.465
497.55	21.555
497.75	21.573
497.95	21.144
498.15	21.347
498.34	21.659
498.54	21.489
498.74	22.265
498.94	21.742
499.14	21.340
499.34	21.586
499.53	21.721
499.73	22.381
499.93	22.144
500.13	22.016
500.33	22.130
500.52	22.058
500.72	21.996
500.92	22.151
501.12	21.917
501.32	22.030
501.52	22.201
501.71	22.410
501.91	22.309
502.11	22.357
502.31	21.967
502.51	22.394
502.70	22.096
502.90	22.269
503.10	22.386
503.30	22.390
503.50	22.634
503.69	22.098
503.89	22.123
504.09	22.339
504.29	22.095
504.48	22.477
504.68	22.393
504.88	22.179
505.08	22.520
505.28	22.677
505.47	23.001
505.67	22.607
505.87	22.779
506.07	22.689
506.27	22.700
506.46	22.710
506.66	22.789
506.86	22.535
507.06	22.774
507.25	22.935
507.45	22.477
507.65	22.455
507.85	22.334
508.04	22.841
508.24	22.937
508.44	22.514
508.64	22.337
508.83	22.541
509.03	22.385
509.23	23.014
509.43	22.577
509.63	22.596
509.82	22.024
510.02	22.956
510.22	22.409
510.42	22.895
510.61	22.779
510.81	22.737
511.01	22.839
511.21	22.831
511.40	22.733
511.60	22.768
511.80	22.963
511.99	22.648
512.19	22.815
512.39	22.592
512.59	22.718
512.78	22.742
512.98	22.778
513.18	22.950
513.38	22.997
513.57	22.508
513.77	22.747
513.97	23.037
514.17	23.010
514.36	23.037
514.56	22.589
514.76	22.944
514.95	23.089
515.15	23.172
515.35	22.729
515.55	22.940
515.74	23.116
515.94	22.993
516.14	22.644
516.33	23.202
516.53	23.084
516.73	23.039
516.93	22.877
517.12	22.678
517.32	22.649
517.52	23.520
517.71	22.627
517.91	22.757
518.11	22.529
518.30	22.301
518.50	22.082
518.70	22.094
518.90	21.960
519.09	22.357
519.29	22.192
519.49	22.140
519.68	21.984
519.88	22.005
520.08	22.050
520.27	22.183
520.47	22.500
520.67	22.305
520.86	22.088
521.06	22.834
521.26	22.558
521.45	22.506
521.65	22.369
521.85	22.465
522.04	22.452
522.24	22.291
522.44	22.473
522.63	22.389
522.83	22.350
523.03	22.413
523.22	22.313
523.42	22.314
523.62	22.771
523.81	22.738
524.01	22.888
524.21	22.631
524.40	22.462
524.60	22.329
524.80	22.491
524.99	22.001
525.19	21.863
525.39	22.125
525.58	21.739
525.78	21.751
525.98	21.811
526.17	22.050
526.37	22.051
526.57	21.752
526.76	22.192
526.96	21.955
527.15	21.900
527.35	22.018
527.55	21.807
527.74	21.989
527.94	22.067
528.14	21.598
528.33	21.704
528.53	21.182
528.72	21.749
528.92	21.765
529.12	21.615
529.31	21.701
529.51	22.198
529.71	22.215
529.90	22.419
530.10	22.296
530.29	22.312
530.49	22.481
530.69	22.545
530.88	22.279
531.08	22.202
531.28	22.260
531.47	22.453
531.67	22.551
531.86	22.201
532.06	22.260
532.26	22.080
532.45	22.257
532.65	22.014
532.84	21.827
533.04	21.832
533.24	21.848
533.43	21.717
533.63	22.101
533.82	21.889
534.02	22.312
534.22	22.087
534.41	22.329
534.61	22.204
534.80	22.337
535.00	22.419
535.19	22.071
535.39	22.409
535.59	22.311
535.78	22.594
535.98	22.452
536.17	22.373
536.37	22.531
536.57	22.671
536.76	22.183
536.96	22.440
537.15	22.447
537.35	22.383
537.54	22.620
537.74	22.166
537.93	22.859
538.13	22.554
538.33	22.746
538.52	22.989
538.72	22.805
538.91	22.933
539.11	23.177
539.30	22.640
539.50	22.819
539.70	22.722
539.89	22.701
540.09	22.337
540.28	22.488
540.48	22.201
540.67	22.262
540.87	22.126
541.06	22.184
541.26	21.980
541.45	21.815
541.65	21.938
541.85	22.084
542.04	22.054
542.24	22.286
542.43	22.377
542.63	22.437
542.82	22.518
543.02	22.220
543.21	22.588
543.41	22.593
543.60	22.713
543.80	22.744
543.99	22.880
544.19	22.525
544.38	22.467
544.58	22.326
544.77	22.632
544.97	22.332
545.16	22.790
545.36	22.646
545.56	23.153
545.75	22.649
545.95	22.929
546.14	22.905
546.34	22.676
546.53	22.151
546.73	22.363
546.92	22.380
547.12	22.533
547.31	22.894
547.51	22.516
547.70	22.490
547.90	22.437
548.09	22.931
548.29	22.985
548.48	22.659
548.68	22.558
548.87	23.120
549.07	22.892
549.26	22.865
549.46	23.322
549.65	23.297
549.84	23.231
550.04	23.130
550.23	23.481
550.43	22.822
550.62	23.113
550.82	22.704
551.01	23.005
551.21	23.038
551.40	22.778
551.60	23.261
551.79	23.315
551.99	23.149
552.18	22.892
552.38	23.291
552.57	22.690
552.77	22.705
552.96	23.301
553.16	23.254
553.35	23.192
553.54	23.230
553.74	23.228
553.93	23.275
554.13	23.209
554.32	23.743
554.52	23.500
554.71	24.093
554.91	23.837
555.10	23.901
555.29	23.067
555.49	23.814
555.68	23.694
555.88	23.185
556.07	23.298
556.27	23.806
556.46	23.870
556.66	24.230
556.85	23.706
557.04	23.683
557.24	23.614
557.43	23.533
557.63	24.231
557.82	24.081
558.02	23.316
558.21	24.303
558.40	23.496
558.60	24.346
558.79	24.081
558.99	24.188
559.18	24.214
559.38	23.978
559.57	24.489
559.76	24.193
559.96	24.578
560.15	25.267
560.35	24.102
560.54	23.772
560.73	23.950
560.93	24.212
561.12	24.570
561.32	24.463
561.51	23.918
561.70	24.014
561.90	24.483
562.09	24.485
562.29	24.385
562.48	24.169
562.67	24.549
562.87	24.224
563.06	24.805
563.26	24.499
563.45	24.709
563.64	24.527
563.84	25.198
564.03	24.941
564.23	24.955
564.42	24.840
564.61	24.700
564.81	24.644
565.00	25.184
565.20	25.367
565.39	24.802
565.58	24.807
565.78	24.659
565.97	25.062
566.16	24.994
566.36	24.855
566.55	24.977
566.74	24.632
566.94	24.697
567.13	24.975
567.33	24.972
567.52	25.225
567.71	24.798
567.91	25.053
568.10	25.683
568.29	25.342
568.49	25.004
568.68	25.290
568.87	25.213
569.07	25.560
569.26	25.975
569.45	25.111
569.65	25.085
569.84	26.007
570.04	25.363
570.23	25.348
570.42	25.661
570.62	24.997
570.81	25.570
571.00	24.952
571.20	25.935
571.39	25.728
571.58	25.551
571.78	25.282
571.97	25.638
572.16	25.718
572.36	25.546
572.55	25.705
572.74	25.790
572.94	25.492
573.13	25.648
573.32	26.011
573.51	25.633
573.71	25.778
573.90	26.026
574.09	25.943
574.29	26.154
574.48	26.277
574.67	26.088
574.87	25.802
575.06	25.725
575.25	26.328
575.45	26.168
575.64	26.236
575.83	26.508
576.03	26.497
576.22	26.590
576.41	26.078
576.60	26.052
576.80	26.491
576.99	26.456
577.18	26.246
577.38	26.422
577.57	26.799
577.76	26.584
577.95	27.134
578.15	26.655
578.34	26.519
578.53	26.827
578.73	26.415
578.92	27.020
579.11	26.568
579.30	26.219
579.50	26.415
579.69	26.553
579.88	26.070
580.08	26.915
580.27	26.548
580.46	26.837
580.65	26.454
580.85	26.800
581.04	26.681
581.23	26.349
581.42	27.039
581.62	26.653
581.81	27.306
582.00	26.220
582.19	26.594
582.39	27.107
582.58	26.494
582.77	26.599
582.96	26.755
583.16	26.978
583.35	26.730
583.54	26.765
583.73	26.725
583.93	26.668
584.12	27.318
584.31	27.034
584.50	26.781
584.70	26.683
584.89	26.816
585.08	26.660
585.27	27.029
585.47	26.331
585.66	27.017
585.85	26.460
586.04	26.460
586.24	26.986
586.43	26.799
586.62	26.789
586.81	26.827
587.00	26.737
587.20	26.452
587.39	26.652
587.58	26.441
587.77	26.556
587.97	26.330
588.16	26.850
588.35	26.483
588.54	26.242
588.73	26.288
588.93	26.918
589.12	26.204
589.31	26.604
589.50	26.203
589.69	26.982
589.89	26.913
590.08	26.570
590.27	26.347
590.46	26.829
590.65	26.323
590.85	26.414
591.04	26.992
591.23	26.930
591.42	27.108
591.61	26.531
591.81	27.187
592.00	26.877
592.19	27.361
592.38	27.300
592.57	26.825
592.77	26.232
592.96	27.643
593.15	27.125
593.34	27.001
593.53	27.506
593.72	26.871
593.92	27.393
594.11	27.496
594.30	27.616
594.49	27.558
594.68	26.714
594.87	26.559
595.07	26.633
595.26	27.698
595.45	26.836
595.64	26.569
595.83	27.252
596.02	27.064
596.22	27.324
596.41	27.431
596.60	27.167
596.79	27.107
596.98	26.719
597.17	27.091
597.37	26.675
597.56	26.976
597.75	27.283
597.94	27.360
598.13	27.355
598.32	26.874
598.51	27.478
598.71	27.484
598.90	28.074
599.09	27.252
599.28	28.515
599.47	27.878
599.66	27.914
599.85	27.979
600.05	27.240
600.24	28.485
600.43	27.431
600.62	27.650
600.81	27.633
601.00	28.609
601.19	28.159
601.38	28.421
601.58	28.724
601.77	27.992
601.96	28.151
602.15	29.241
602.34	27.694
602.53	27.689
602.72	28.090
602.91	28.034
603.10	28.289
603.30	28.246
603.49	27.858
603.68	27.785
603.87	27.814
604.06	28.034
604.25	28.226
604.44	27.532
604.63	27.892
604.82	27.398
605.01	27.948
605.21	28.390
605.40	27.756
605.59	27.873
605.78	27.434
605.97	27.325
606.16	28.518
606.35	28.036
606.54	28.234
606.73	28.235
606.92	28.640
607.11	29.187
607.30	28.848
607.50	29.238
607.69	28.016
607.88	28.175
608.07	27.293
608.26	29.225
608.45	28.532
608.64	28.816
608.83	28.381
609.02	28.792
609.21	28.339
609.40	27.859
609.59	28.538
609.78	28.104
609.97	27.543
610.16	27.687
610.35	28.516
610.55	28.204
610.74	28.227
610.93	27.583
611.12	28.340
611.31	28.117
611.50	27.990
611.69	28.396
611.88	27.860
612.07	29.256
612.26	28.273
612.45	28.836
612.64	28.318
612.83	29.198
613.02	27.955
613.21	28.552
613.40	28.791
613.59	28.290
613.78	27.780
613.97	28.140
614.16	28.065
614.35	28.271
614.54	28.301
614.73	28.472
614.92	28.590
615.11	27.933
615.30	28.933
615.49	28.006
615.68	28.257
615.87	28.336
616.07	27.629
616.26	27.289
616.45	27.665
616.64	28.360
616.83	28.164
617.02	28.097
617.21	27.781
617.40	27.781
617.59	27.656
617.78	27.512
617.97	28.557
618.16	28.211
618.35	27.492
618.54	28.144
618.73	28.194
618.92	28.612
619.11	27.383
619.30	28.267
619.49	28.220
619.68	27.564
619.86	28.445
620.05	27.809
620.24	27.862
620.43	28.201
620.62	27.928
620.81	27.634
621.00	28.868
621.19	27.545
621.38	27.570
621.57	28.010
621.76	27.974
621.95	28.030
622.14	27.634
622.33	28.257
622.52	27.068
622.71	27.189
622.90	28.204
623.09	27.884
623.28	27.572
623.47	27.766
623.66	27.516
623.85	27.965
624.04	27.069
624.23	27.473
624.42	27.836
624.61	27.515
624.80	27.329
624.99	26.922
625.18	27.273
625.36	27.087
625.55	27.030
625.74	27.094
625.93	27.369
626.12	27.191
626.31	27.165
626.50	27.318
626.69	28.139
626.88	28.288
627.07	27.553
627.26	27.508
627.45	26.904
627.64	27.081
627.83	27.478
628.02	26.682
628.20	27.219
628.39	27.263
628.58	27.367
628.77	27.426
628.96	27.685
629.15	26.970
629.34	27.989
629.53	26.388
629.72	27.882
629.91	26.415
630.10	27.437
630.29	27.216
630.47	27.283
630.66	26.931
630.85	27.614
631.04	27.132
631.23	28.244
631.42	26.430
631.61	26.650
631.80	27.210
631.99	26.915
632.18	27.696
632.36	27.345
632.55	26.867
632.74	26.843
632.93	26.776
633.12	26.820
633.31	26.882
633.50	27.618
633.69	26.897
633.88	26.698
634.06	26.726
634.25	26.592
634.44	27.855
634.63	27.278
634.82	27.097
635.01	27.022
635.20	27.246
635.39	27.315
635.57	27.110
635.76	26.927
635.95	26.513
636.14	27.064
636.33	27.558
636.52	27.122
636.71	26.906
636.89	26.866
637.08	27.186
637.27	27.205
637.46	27.694
637.65	26.499
637.84	27.495
638.03	27.104
638.21	27.311
638.40	26.567
638.59	27.345
638.78	26.230
638.97	26.940
639.16	26.731
639.34	27.417
639.53	26.013
639.72	26.867
639.91	27.325
640.10	27.261
640.29	27.837
640.47	26.998
640.66	27.199
640.85	27.108
641.04	26.295
641.23	26.655
641.42	27.075
641.60	26.477
641.79	27.145
641.98	26.963
642.17	25.876
642.36	27.480
642.54	26.803
642.73	26.452
642.92	27.493
643.11	26.252
643.30	25.441
643.49	27.886
643.67	26.846
643.86	28.310
644.05	27.476
644.24	27.233
644.43	25.883
644.61	26.928
644.80	26.839
644.99	26.873
645.18	26.857
645.37	26.895
645.55	26.633
645.74	26.502
645.93	26.595
646.12	26.763
646.31	26.112
646.49	26.497
646.68	26.323
646.87	27.365
647.06	27.005
647.24	26.784
647.43	26.455
647.62	27.125
647.81	25.391
648.00	26.491
648.18	26.444
648.37	26.256
648.56	26.675
648.75	26.745
648.93	26.665
649.12	26.584
649.31	25.922
649.50	27.177
649.68	25.600
649.87	26.483
650.06	25.858
650.25	25.898
650.43	26.758
650.62	26.659
650.81	26.186
651.00	26.468
651.18	27.221
651.37	26.602
651.56	25.802
651.75	27.587
651.93	25.918
652.12	26.888
652.31	25.377
652.50	27.003
652.68	25.587
652.87	27.288
653.06	26.592
653.25	27.598
653.43	27.182
653.62	25.689
653.81	27.003
654.00	26.645
654.18	26.981
654.37	26.391
654.56	24.489
654.74	26.892
654.93	25.540
655.12	26.889
655.31	26.333
655.49	26.848
655.68	25.516
655.87	26.243
656.05	24.940
656.24	26.204
656.43	25.447
656.62	26.572
656.80	25.200
656.99	26.023
657.18	25.567
657.36	26.080
657.55	25.470
657.74	25.462
657.93	26.267
658.11	25.828
658.30	26.426
658.49	25.909
658.67	25.993
658.86	25.476
659.05	25.244
659.23	25.113
659.42	25.070
659.61	25.924
659.79	24.776
659.98	24.918
660.17	25.130
660.35	25.868
660.54	24.865
660.73	25.775
660.91	25.774
661.10	25.923
661.29	24.851
661.47	25.570
661.66	25.658
661.85	25.438
662.03	26.533
662.22	25.787
662.41	24.127
662.59	23.309
662.78	23.523
662.97	24.582
663.15	23.967
663.34	23.726
663.53	23.742
663.71	25.231
663.90	24.113
664.09	25.098
664.27	23.640
664.46	23.366
664.65	23.375
664.83	24.328
665.02	22.456
665.21	23.312
665.39	22.670
665.58	23.637
665.77	22.951
665.95	23.504
666.14	23.065
666.32	23.826
666.51	23.286
666.70	22.893
666.88	21.871
667.07	23.033
667.26	21.493
667.44	23.979
667.63	24.240
667.81	22.919
668.00	20.572
668.19	23.227
668.37	22.374
668.56	23.825
668.75	21.969
668.93	24.593
669.12	21.100
669.30	23.850
669.49	23.336
669.68	23.830
669.86	22.939
670.05	22.514
670.23	22.971
670.42	22.982
670.61	22.376
670.79	23.761
670.98	22.741
671.16	23.383
671.35	23.238
671.54	22.686
671.72	22.383
671.91	23.971
672.09	22.646
672.28	22.988
672.46	23.855
672.65	22.574
672.84	22.183
673.02	24.675
673.21	20.954
673.39	23.094
673.58	22.411
673.77	23.895
673.95	22.668
674.14	23.173
674.32	21.973
674.51	24.076
674.69	21.539
674.88	23.234
675.07	21.412
675.25	24.187
675.44	23.244
675.62	22.874
675.81	22.162
675.99	25.610
676.18	22.438
676.36	23.222
676.55	21.974
676.74	23.055
676.92	23.510
677.11	23.493
677.29	22.192
677.48	23.993
677.66	23.316
677.85	24.184
678.03	21.512
678.22	23.339
678.40	23.528
678.59	23.641
678.78	21.907
678.96	24.463
679.15	22.299
679.33	24.864
679.52	23.747
679.70	23.715
679.89	23.213
680.07	23.915
680.26	23.414
680.44	24.731
680.63	23.534
680.81	23.929
681.00	22.936
681.18	24.298
681.37	23.938
681.55	25.357
681.74	24.921
681.92	25.022
682.11	24.567
682.29	25.099
682.48	24.789
682.66	25.279
682.85	24.492
683.03	25.753
683.22	25.306
683.40	25.363
683.59	26.001
683.77	25.938
683.96	25.015
684.14	26.044
684.33	24.399
684.51	26.573
684.70	24.618
684.88	25.953
685.07	26.044
685.25	26.680
685.44	26.054
685.62	25.296
685.81	24.675
685.99	27.016
686.18	24.545
686.36	27.243
686.55	24.427
686.73	27.009
686.92	26.626
687.10	26.835
687.29	26.909
687.47	28.205
687.65	26.300
687.84	27.583
688.02	27.671
688.21	26.566
688.39	26.755
688.58	28.707
688.76	26.342
688.95	27.957
689.13	25.679
689.32	29.183
689.50	28.318
689.68	28.718
689.87	28.291
690.05	29.536
690.24	28.016
690.42	28.996
690.61	28.356
690.79	29.978
690.98	29.886
691.16	30.782
691.34	27.897
691.53	28.968
691.71	28.956
691.90	32.086
692.08	28.299
692.27	32.821
692.45	31.646
692.63	31.745
692.82	31.774
693.00	31.486
693.19	30.918
693.37	31.683
693.56	29.980
693.74	33.769
693.92	31.926
694.11	31.648
694.29	32.484
694.48	33.849
694.66	32.511
694.84	33.501
695.03	31.044
695.21	33.974
695.40	34.145
695.58	35.007
695.76	32.871
695.95	33.810
696.13	33.189
696.32	34.574
696.50	36.407
696.68	35.894
696.87	34.413
697.05	36.055
697.24	37.297
697.42	36.531
697.60	34.644
697.79	36.147
697.97	35.821
698.16	37.311
698.34	34.660
698.52	36.392
698.71	37.909
698.89	37.206
699.07	36.365
699.26	37.442
699.44	37.887
699.63	36.455
699.81	37.274
699.99	38.104
700.18	36.307
700.36	36.702
700.54	36.421
700.73	37.257
700.91	37.788
701.09	37.997
701.28	37.597
701.46	38.206
701.64	38.451
701.83	40.104
702.01	37.914
702.20	40.341
702.38	38.736
702.56	39.314
702.75	38.510
702.93	40.113
703.11	38.466
703.30	40.967
703.48	40.255
703.66	41.743
703.85	39.670
704.03	41.802
704.21	38.084
704.40	41.102
704.58	40.616
704.76	40.562
704.95	40.627
705.13	40.874
705.31	40.637
705.50	41.775
705.68	40.470
705.86	42.231
706.04	40.900
706.23	42.061
706.41	40.926
706.59	40.380
706.78	40.380
706.96	42.427
707.14	41.136
707.33	43.000
707.51	42.683
707.69	41.462
707.88	40.710
708.06	42.128
708.24	42.137
708.42	43.219
708.61	41.370
708.79	43.244
708.97	44.315
709.16	43.571
709.34	43.727
709.52	42.662
709.71	43.909
709.89	43.846
710.07	40.627
710.25	42.985
710.44	43.003
710.62	42.669
710.80	44.041
710.98	42.398
711.17	40.205
711.35	43.111
711.53	42.467
711.72	43.596
711.90	43.695
712.08	42.708
712.26	43.025
712.45	43.556
712.63	44.299
712.81	43.610
712.99	41.291
713.18	42.682
713.36	43.168
713.54	42.887
713.72	42.488
713.91	41.811
714.09	41.732
714.27	43.073
714.45	42.733
714.64	43.507
714.82	43.444
715.00	43.364
715.18	42.527
715.37	43.034
715.55	44.373
715.73	44.308
715.91	43.261
716.10	42.920
716.28	40.441
716.46	43.554
716.64	41.324
716.83	42.658
717.01	41.997
717.19	44.164
717.37	41.672
717.55	43.928
717.74	43.091
717.92	42.259
718.10	39.936
718.28	43.926
718.47	41.437
718.65	42.750
718.83	42.787
719.01	41.866
719.19	44.517
719.38	41.696
719.56	41.881
719.74	42.820
719.92	39.013
720.10	42.414
720.29	41.357
720.47	44.876
720.65	44.359
720.83	44.290
721.01	40.741
721.20	41.845
721.38	41.264
721.56	43.992
721.74	43.330
721.92	45.067
722.11	44.042
722.29	43.341
722.47	43.558
722.65	45.892
722.83	43.895
723.01	45.627
723.20	43.502
723.38	44.469
723.56	41.574
723.74	42.687
723.92	43.208
724.10	47.275
724.29	45.744
724.47	44.662
724.65	44.022
724.83	44.854
725.01	43.572
725.19	45.343
725.38	43.021
725.56	44.890
725.74	41.646
725.92	44.874
726.10	41.944
726.28	46.762
726.46	44.487
726.65	45.864
726.83	43.458
727.01	45.292
727.19	45.246
727.37	44.294
727.55	43.703
727.73	44.670
727.92	44.415
728.10	43.511
728.28	43.366
728.46	43.645
728.64	43.800
728.82	44.550
729.00	40.823
729.19	45.012
729.37	43.461
729.55	46.302
729.73	43.353
729.91	44.304
730.09	42.893
730.27	44.079
730.45	44.936
730.63	44.449
730.82	43.359
731.00	43.445
731.18	43.731
731.36	45.380
731.54	42.636
731.72	44.046
731.90	43.326
732.08	44.343
732.26	45.541
732.45	47.257
732.63	44.135
732.81	45.807
732.99	45.684
733.17	44.183
733.35	44.272
733.53	45.400
733.71	45.502
733.89	48.021
734.07	46.209
734.25	48.779
734.44	44.734
734.62	46.978
734.80	45.982
734.98	47.346
735.16	47.727
735.34	44.724
735.52	47.137
735.70	48.874
735.88	47.965
736.06	47.083
736.24	50.134
736.42	49.398
736.60	48.586
736.78	50.114
736.97	46.198
737.15	50.151
737.33	49.400
737.51	47.822
737.69	48.828
737.87	50.811
738.05	46.114
738.23	51.117
738.41	48.577
738.59	50.730
738.77	47.071
738.95	51.067
739.13	48.269
739.31	46.307
739.49	47.806
739.67	51.827
739.85	49.951
740.03	47.725
740.21	48.986
740.39	50.290
740.57	48.535
740.75	49.377
740.93	49.948
741.11	52.385
741.30	48.994
741.48	52.284
741.66	51.372
741.84	50.814
742.02	49.881
742.20	51.658
742.38	48.111
742.56	49.785
742.74	49.844
742.92	52.249
743.10	51.378
743.28	49.791
743.46	51.233
743.64	48.985
743.82	51.300
744.00	48.636
744.18	50.994
744.36	52.592
744.54	51.353
744.72	54.318
744.90	52.650
745.08	50.946
745.26	50.811
745.44	50.922
745.62	53.349
745.80	51.862
745.98	50.498
746.16	52.918
746.34	50.339
746.52	53.921
746.70	50.507
746.87	54.108
747.05	52.783
747.23	54.092
747.41	53.049
747.59	52.301
747.77	52.436
747.95	55.097
748.13	53.185
748.31	53.409
748.49	52.317
748.67	51.818
748.85	53.478
749.03	54.156
749.21	51.664
749.39	55.330
749.57	51.196
749.75	50.418
749.93	52.491
750.11	52.856
750.29	51.509
750.47	54.194
750.65	52.465
750.83	52.135
751.01	53.735
751.18	53.078
751.36	51.773
751.54	53.035
751.72	53.908
751.90	52.830
752.08	49.778
752.26	51.177
752.44	53.666
752.62	50.367
752.80	51.488
752.98	53.881
753.16	53.083
753.34	52.709
753.52	56.331
753.69	53.926
753.87	53.207
754.05	55.964
754.23	52.780
754.41	52.031
754.59	52.943
754.77	53.568
754.95	52.565
755.13	55.823
755.31	52.684
755.49	52.083
755.66	54.974
755.84	53.714
756.02	52.831
756.20	51.488
756.38	51.318
756.56	49.706
756.74	49.525
756.92	50.533
757.10	51.951
757.28	56.375
757.45	54.208
757.63	51.774
757.81	55.125
757.99	52.170
758.17	52.406
758.35	55.758
758.53	50.730
758.71	53.460
758.88	50.855
759.06	50.832
759.24	50.313
759.42	49.616
759.60	45.663
759.78	46.665
759.96	45.907
760.13	45.726
760.31	38.882
760.49	43.580
760.67	39.740
760.85	42.369
761.03	39.366
761.21	39.137
761.38	38.057
761.56	40.562
761.74	38.604
761.92	43.205
762.10	37.968
762.28	39.885
762.46	38.107
762.63	41.976
762.81	40.709
762.99	40.685
763.17	40.216
763.35	41.627
763.53	40.818
763.70	42.528
763.88	40.582
764.06	42.815
764.24	39.588
764.42	42.741
764.60	41.095
764.77	43.558
764.95	42.556
765.13	43.778
765.31	41.874
765.49	42.747
765.66	40.542
765.84	44.533
766.02	43.733
766.20	44.843
766.38	44.765
766.56	46.432
766.73	47.200
766.91	47.738
767.09	46.566
767.27	48.461
767.45	46.354
767.62	47.062
767.80	47.105
767.98	50.521
768.16	50.975
768.33	53.406
768.51	49.766
768.69	51.984
768.87	51.110
769.05	51.138
769.22	49.255
769.40	56.607
769.58	49.150
769.76	53.605
769.94	50.345
770.11	53.131
770.29	56.567
770.47	54.502
770.65	54.163
770.82	53.347
771.00	50.916
771.18	58.200
771.36	54.850
771.53	57.756
771.71	54.779
771.89	58.665
772.07	54.126
772.25	56.583
772.42	55.234
772.60	57.548
772.78	52.484
772.96	55.712
773.13	56.104
773.31	52.102
773.49	54.190
773.67	60.540
773.84	58.112
774.02	57.885
774.20	54.195
774.37	59.118
774.55	55.794
774.73	55.605
774.91	54.494
775.08	52.797
775.26	57.096
775.44	57.560
775.62	55.598
775.79	57.356
775.97	54.520
776.15	53.166
776.32	57.012
776.50	60.291
776.68	59.807
776.86	57.317
777.03	57.535
777.21	57.796
777.39	55.891
777.56	58.708
777.74	56.081
777.92	51.706
778.10	54.586
778.27	60.594
778.45	56.256
778.63	53.708
778.80	55.454
778.98	56.522
779.16	54.136
779.34	56.958
779.51	56.946
779.69	60.545
779.87	52.192
780.04	54.718
780.22	52.032
780.40	57.050
780.57	57.861
780.75	59.860
780.93	61.189
781.10	57.306
781.28	58.253
781.46	56.028
781.63	55.532
781.81	64.002
781.99	50.998
782.16	54.002
782.34	51.813
782.52	55.928
782.69	53.999
782.87	54.939
783.05	53.794
783.22	58.498
783.40	55.061
783.58	54.927
783.75	53.787
783.93	59.881
784.11	55.432
784.28	55.035
784.46	53.448
784.64	58.541
784.81	52.536
784.99	59.851
785.17	59.954
785.34	52.525
785.52	49.651
785.69	55.452
785.87	51.174
786.05	51.202
786.22	53.417
786.40	55.930
786.58	58.890
786.75	60.357
786.93	53.643
787.11	55.737
787.28	57.504
787.46	54.895
787.63	50.030
787.81	53.561
787.99	55.635
788.16	55.792
788.34	52.092
788.51	54.373
788.69	51.138
788.87	52.138
789.04	47.013
789.22	52.750
789.39	47.909
789.57	52.541
789.75	51.149
789.92	53.570
790.10	51.175
790.27	53.337
790.45	51.895
790.63	51.967
790.80	48.727
790.98	49.775
791.15	48.028
791.33	53.419
791.51	47.494
791.68	48.888
791.86	52.897
792.03	49.101
792.21	52.096
792.39	54.782
792.56	50.640
792.74	56.162
792.91	49.672
793.09	52.197
793.26	50.817
793.44	56.156
793.62	54.148
793.79	52.901
793.97	50.871
794.14	53.244
794.32	50.474
794.49	57.875
794.67	50.224
794.84	50.178
795.02	52.471
795.20	56.135
795.37	46.897
795.55	46.424
795.72	49.832
795.90	50.122
796.07	49.313
796.25	52.282
796.42	43.385
796.60	53.356
796.77	51.618
796.95	53.356
797.13	45.978
797.30	47.901
797.48	50.973
797.65	50.308
797.83	45.099
798.00	53.821
798.18	42.762
798.35	52.048
798.53	48.821
798.70	55.345
798.88	48.563
799.05	46.745
799.23	47.108
799.40	51.316
799.58	50.059
799.75	48.292
799.93	44.675
800.10	45.260
800.28	48.121
800.45	49.330
800.63	41.060
800.80	51.546
800.98	48.385
801.15	50.059
801.33	48.470
801.50	51.028
801.68	48.211
801.85	48.708
802.03	51.671
802.20	49.328
802.38	51.602
802.55	46.054
802.73	50.258
802.90	50.098
803.08	49.966
803.25	49.346
803.43	48.538
803.60	49.664
803.78	46.952
803.95	58.053
804.13	51.525
804.30	46.936
804.48	44.724
804.65	50.266
804.83	48.639
805.00	50.615
805.17	51.146
805.35	53.364
805.52	44.243
805.70	53.239
805.87	49.242
806.05	51.677
806.22	48.082
806.40	48.901
806.57	52.632
806.75	56.233
806.92	51.564
807.09	50.570
807.27	52.642
807.44	52.781
807.62	46.500
807.79	49.274
807.97	46.335
808.14	51.884
808.31	44.077
808.49	50.106
808.66	49.179
808.84	49.545
809.01	48.582
809.19	49.676
809.36	52.482
809.53	49.713
809.71	54.195
809.88	53.219
810.06	57.132
810.23	51.776
810.41	49.815
810.58	53.358
810.75	45.489
810.93	45.554
811.10	52.797
811.28	51.732
811.45	53.435
811.62	42.989
811.80	46.880
811.97	47.794
812.15	54.749
812.32	50.446
812.49	51.290
812.67	43.846
812.84	52.504
813.02	50.627
813.19	44.956
813.36	47.285
813.54	40.032
813.71	47.025
813.89	48.349
814.06	52.677
814.23	45.778
814.41	46.797
814.58	44.354
814.75	49.920
814.93	49.955
815.10	45.837
815.28	40.392
815.45	45.747
815.62	43.264
815.80	36.196
815.97	42.782
816.14	39.729
816.32	44.288
816.49	43.795
816.66	40.568
816.84	43.972
817.01	48.151
817.18	39.607
817.36	45.269
817.53	46.020
817.71	31.741
817.88	43.375
818.05	36.885
818.23	45.199
818.40	36.129
818.57	40.131
818.75	35.768
818.92	42.349
819.09	34.886
819.27	39.852
819.44	35.789
819.61	39.026
819.79	37.704
819.96	38.553
820.13	38.974
820.31	42.181
820.48	38.862
820.65	39.884
820.82	36.004
821.00	41.807
821.17	34.481
821.34	39.640
821.52	38.698
821.69	37.775
821.86	35.894
822.04	40.850
822.21	36.856
822.38	39.753
822.56	38.872
822.73	40.580
822.90	38.696
823.07	39.366
823.25	39.239
823.42	40.221
823.59	38.990
823.77	39.656
823.94	39.883
824.11	40.073
824.29	39.375
824.46	41.316
824.63	39.541
824.80	41.768
824.98	40.745
825.15	40.205
825.32	37.150
825.49	40.826
825.67	37.758
825.84	42.427
826.01	39.195
826.19	41.586
826.36	36.583
826.53	39.132
826.70	37.504
826.88	40.304
827.05	37.733
827.22	39.966
827.39	37.895
827.57	38.200
827.74	37.545
827.91	41.857
828.08	34.357
828.26	40.169
828.43	37.688
828.60	40.120
828.77	37.245
828.95	39.235
829.12	36.280
829.29	36.349
829.46	39.347
829.64	35.556
829.81	35.798
829.98	40.895
830.15	36.338
830.32	35.835
830.50	36.247
830.67	35.005
830.84	36.917
831.01	34.986
831.19	37.215
831.36	31.381
831.53	42.280
831.70	38.508
831.87	35.500
832.05	45.368
832.22	36.834
832.39	32.923
832.56	33.384
832.74	42.802
832.91	36.978
833.08	45.818
833.25	34.226
833.42	36.310
833.60	37.820
833.77	33.002
833.94	38.462
834.11	36.184
834.28	36.703
834.45	37.567
834.63	35.853
834.80	37.726
834.97	37.202
835.14	37.577
835.31	35.207
835.49	36.076
835.66	38.046
835.83	35.360
836.00	35.449
836.17	34.799
836.34	34.622
836.52	40.896
836.69	36.251
836.86	35.074
837.03	38.127
837.20	37.280
837.37	39.794
837.55	36.890
837.72	37.396
837.89	39.433
838.06	40.164
838.23	42.917
838.40	38.710
838.58	42.356
838.75	42.430
838.92	50.326
839.09	47.987
839.26	46.792
839.43	53.503
839.60	42.382
839.78	53.730
839.95	56.436
840.12	49.402
840.29	42.777
840.46	39.328
840.63	42.781
840.80	48.115
840.98	42.045
841.15	45.646
841.32	41.273
841.49	38.852
841.66	40.851
841.83	36.940
842.00	41.560
842.17	45.258
842.34	40.896
842.52	45.123
842.69	53.636
842.86	53.118
843.03	59.911
843.20	43.534
843.37	49.522
843.54	58.722
843.71	56.722
843.88	58.995
844.06	53.194
844.23	54.043
844.40	58.447
844.57	42.814
844.74	51.868
844.91	58.621
845.08	58.843
845.25	65.167
845.42	68.155
845.59	53.413
845.76	54.250
845.94	71.298
846.11	52.664
846.28	58.058
846.45	66.071
846.62	77.358
846.79	51.489
846.96	62.427
847.13	61.658
847.30	73.429
847.47	53.982
847.64	51.429
847.81	68.815
847.98	68.350
848.15	71.689
848.32	80.769
848.50	47.525
848.67	60.814
848.84	65.099
849.01	64.488
849.18	56.828
849.35	76.923
849.52	72.131
849.69	59.436
849.86	69.174
850.03	71.655
850.20	64.837
850.37	65.149
850.54	64.087
850.71	71.657
850.88	62.376
851.05	66.173
851.22	67.775
851.39	77.778
851.56	60.388
851.73	64.066
851.90	72.437
852.07	65.437
852.24	65.895
852.41	60.202
852.58	75.730
852.75	68.810
852.92	82.579
853.09	79.954
853.26	81.988
853.43	58.202
853.60	78.889
853.77	61.631
853.94	68.075
854.11	79.704
854.28	84.798
854.45	56.221
854.62	83.827
854.79	98.451
854.96	72.519
855.13	56.798
855.30	73.421
855.47	77.933
855.64	68.172
855.81	63.864
855.98	77.368
856.15	74.627
856.32	71.094
856.49	88.301
856.66	84.828
856.83	72.093
857.00	64.545
857.17	84.300
857.34	75.278
857.51	71.605
857.68	64.851
857.85	61.034
858.02	92.204
858.19	59.410
858.36	73.810
858.53	74.029
858.70	64.010
858.87	90.578
859.04	64.195
859.21	67.662
859.38	70.601
859.55	78.876
859.72	65.977
859.89	88.579
860.05	58.933
860.22	79.612
860.39	69.251
860.56	75.914
860.73	58.696
860.90	69.753
861.07	75.744
861.24	75.194
861.41	65.860
861.58	36.842
861.75	78.249
861.92	59.511
862.09	63.355
862.26	78.066
862.43	89.037
862.59	70.604
862.76	78.803
862.93	106.133
863.10	69.951
863.27	66.755
863.44	56.154
863.61	74.005
863.78	64.508
863.95	84.459
864.12	77.586
864.29	71.963
864.45	66.596
864.62	66.741
864.79	67.742
864.96	80.645
865.13	54.565
865.30	64.742
865.47	58.225
865.64	92.097
865.81	75.419
865.97	56.136
866.14	65.301
866.31	84.932
866.48	47.701
866.65	65.693
866.82	66.830
866.99	72.464
867.16	59.286
867.33	85.205
867.49	69.596
867.66	75.975
867.83	64.165
868.00	78.820
868.17	69.978
868.34	60.638
868.51	65.679
868.67	80.964
868.84	71.954
869.01	66.957
869.18	47.309
869.35	63.690
869.52	61.949
869.69	53.354
869.85	83.186
870.02	63.117
870.19	77.561
870.36	82.464
870.53	66.159
870.70	64.090
870.86	67.013
871.03	66.501
871.20	74.412
871.37	88.206
871.54	74.737
871.71	60.636
871.87	64.183
872.04	63.559
872.21	56.458
872.38	84.043
872.55	79.612
872.72	59.434
872.88	81.858
873.05	60.179
873.22	68.916
873.39	61.702
873.56	46.269
873.72	69.315
873.89	58.942
874.06	56.283
874.23	89.174
874.40	54.822
874.56	75.751
874.73	61.969
874.90	43.396
875.07	67.013
875.24	68.037
875.40	71.212
875.57	77.088
875.74	60.690
875.91	65.570
876.08	55.679
876.24	78.469
876.41	57.952
876.58	68.800
876.75	45.429
876.92	59.318
877.08	73.611
877.25	64.286
877.42	61.207
877.59	62.302
877.75	68.044
877.92	36.966
878.09	82.921
878.26	71.827
878.42	50.103
878.59	73.086
878.76	63.902
878.93	69.915
879.09	51.247
879.26	65.067
879.43	60.641
879.60	48.492
879.76	56.027
879.93	56.208
880.10	49.133
880.27	44.024
880.43	39.335
880.60	52.677
880.77	48.452
880.94	48.058
881.10	30.046
881.27	35.536
881.44	20.920
881.61	32.871
881.77	35.693
881.94	28.217
882.11	24.932
882.28	28.344
882.44	25.710
882.61	27.787
882.78	27.709
882.94	35.165
883.11	30.881
883.28	33.270
883.45	30.668
883.61	27.500
883.78	30.941
883.95	34.333
884.11	31.225
884.28	27.681
>>>>>End Processed Spectral Data<<<<<
