SpectraSuite Data File
++++++++++++++++++++++++++++++++++++
Date: Thu Sep 26 03:28:00 EST 2019
User: sgrac
Dark Spectrum Present: Yes
Reference Spectrum Present: Yes
Number of Sampled Component Spectra: 1
Spectrometers: USB4E01596
Integration Time (usec): 100000 (USB4E01596)
Spectra Averaged: 3 (USB4E01596)
Boxcar Smoothing: 0 (USB4E01596)
Correct for Electrical Dark: No (USB4E01596)
Strobe/Lamp Enabled: Yes (USB4E01596)
Correct for Detector Non-linearity: No (USB4E01596)
Correct for Stray Light: No (USB4E01596)
Number of Pixels in Processed Spectrum: 3648
>>>>>Begin Processed Spectral Data<<<<<
178.44	-1225.000
178.66	-1225.000
178.87	-1225.000
179.09	-244.898
179.30	-126.190
179.52	-922.727
179.74	-280.556
179.95	-2015.385
180.17	284.337
180.38	1657.143
180.60	521.429
180.82	296.386
181.03	381.944
181.25	295.192
181.46	-783.871
181.68	291.667
181.89	1373.333
182.11	-1311.111
182.33	282.524
182.54	337.931
182.76	430.357
182.97	792.593
183.19	157.764
183.40	237.864
183.62	1787.500
183.84	259.783
184.05	1925.000
184.27	297.938
184.48	-538.889
184.70	1378.571
184.91	314.000
185.13	1606.667
185.34	710.811
185.56	1880.000
185.78	224.742
185.99	336.364
186.21	540.000
186.42	1426.667
186.64	880.952
186.85	255.102
187.07	258.571
187.28	300.000
187.50	1165.217
187.72	1294.444
187.93	597.872
188.15	415.094
188.36	778.125
188.58	6933.333
188.79	517.500
189.01	3475.000
189.22	268.750
189.44	983.333
189.65	1933.333
189.87	681.081
190.09	741.935
190.30	441.270
190.52	-20400.000
190.73	-21500.000
190.95	820.833
191.16	254.128
191.38	200.000
191.59	605.882
191.81	251.724
192.02	740.000
192.24	435.616
192.45	223.158
192.67	523.404
192.88	374.359
193.10	222.093
193.31	288.764
193.53	1100.000
193.74	286.585
193.96	290.000
194.18	894.737
194.39	214.783
194.61	1936.364
194.82	313.514
195.04	214.286
195.25	240.625
195.47	584.375
195.68	301.266
195.90	960.000
196.11	197.000
196.33	853.846
196.54	430.159
196.76	610.714
196.97	668.182
197.19	441.667
197.40	-504.444
197.62	309.091
197.83	172.269
198.05	484.906
198.26	352.113
198.48	1658.333
198.69	0.000
198.91	2044.444
199.12	496.296
199.34	314.493
199.55	240.541
199.77	242.529
199.98	7700.000
200.20	268.182
200.41	238.318
200.63	861.905
200.84	456.522
201.06	230.172
201.27	980.952
201.49	1185.000
201.70	-1550.000
201.91	325.532
202.13	579.487
202.34	-295.833
202.56	612.121
202.77	1260.000
202.99	623.529
203.20	372.131
203.42	447.273
203.63	317.582
203.85	178.832
204.06	589.474
204.28	201.190
204.49	561.765
204.71	319.718
204.92	-8400.000
205.14	517.857
205.35	244.928
205.56	962.500
205.78	425.424
205.99	267.925
206.21	299.074
206.42	296.591
206.64	775.000
206.85	272.619
207.07	200.000
207.28	164.103
207.50	337.879
207.71	904.762
207.93	-594.444
208.14	-1909.091
208.35	620.000
208.57	214.444
208.78	438.000
209.00	494.737
209.21	5150.000
209.43	257.692
209.64	618.750
209.86	2560.000
210.07	626.829
210.28	-584.211
210.50	7033.333
210.71	520.000
210.93	184.483
211.14	451.923
211.36	736.842
211.57	621.429
211.78	1023.810
212.00	587.500
212.21	241.379
212.43	654.762
212.64	214.563
212.86	291.026
213.07	149.123
213.29	1246.667
213.50	245.570
213.71	192.742
213.93	488.636
214.14	246.154
214.36	131.765
214.57	444.681
214.78	226.829
215.00	222.353
215.21	180.247
215.43	618.519
215.64	286.957
215.86	154.676
216.07	836.000
216.28	296.203
216.50	216.981
216.71	287.805
216.93	545.238
217.14	2090.909
217.35	422.857
217.57	338.710
217.78	230.973
218.00	226.596
218.21	192.763
218.42	388.372
218.64	205.941
218.85	203.571
219.07	208.000
219.28	442.857
219.49	634.211
219.71	354.000
219.92	-2040.000
220.14	356.250
220.35	904.167
220.56	-9150.000
220.78	197.619
220.99	570.000
221.21	198.795
221.42	360.256
221.63	431.915
221.85	0.000
222.06	251.887
222.28	717.143
222.49	274.242
222.70	1657.143
222.92	278.205
223.13	125.694
223.34	222.826
223.56	176.522
223.77	157.325
223.99	138.509
224.20	166.667
224.41	319.149
224.63	139.456
224.84	145.946
225.05	176.336
225.27	137.572
225.48	197.368
225.69	136.264
225.91	162.609
226.12	118.831
226.34	82.941
226.55	137.500
226.76	117.391
226.98	86.864
227.19	65.363
227.40	121.667
227.62	79.851
227.83	85.141
228.04	87.143
228.26	70.588
228.47	71.569
228.69	41.686
228.90	32.739
229.11	36.874
229.33	48.741
229.54	32.703
229.75	28.356
229.97	34.390
230.18	32.849
230.39	28.635
230.61	28.377
230.82	33.654
231.03	23.314
231.25	32.729
231.46	29.390
231.67	33.418
231.89	36.330
232.10	26.294
232.31	36.944
232.53	35.765
232.74	37.861
232.95	57.939
233.17	37.406
233.38	30.287
233.59	44.050
233.81	42.809
234.02	40.122
234.23	32.866
234.45	39.494
234.66	30.756
234.87	48.654
235.09	34.380
235.30	39.826
235.51	35.832
235.73	33.777
235.94	26.072
236.15	30.277
236.36	34.621
236.58	31.873
236.79	30.887
237.00	32.538
237.22	31.329
237.43	39.024
237.64	41.917
237.86	32.833
238.07	43.034
238.28	34.655
238.50	41.351
238.71	28.686
238.92	38.957
239.13	29.367
239.35	36.298
239.56	39.448
239.77	29.403
239.99	33.486
240.20	48.624
240.41	27.273
240.63	33.378
240.84	29.606
241.05	15.100
241.26	23.689
241.48	26.509
241.69	18.094
241.90	18.167
242.12	21.548
242.33	18.552
242.54	8.810
242.75	12.874
242.97	20.481
243.18	14.058
243.39	10.584
243.61	14.620
243.82	10.733
244.03	12.141
244.24	9.883
244.46	11.601
244.67	16.369
244.88	16.120
245.09	9.380
245.31	12.195
245.52	14.450
245.73	12.178
245.95	24.828
246.16	15.728
246.37	11.982
246.58	12.493
246.80	12.068
247.01	15.563
247.22	10.989
247.43	10.679
247.65	9.795
247.86	9.527
248.07	6.288
248.28	11.693
248.50	9.283
248.71	8.249
248.92	6.188
249.13	6.620
249.35	8.180
249.56	6.453
249.77	9.834
249.98	7.342
250.20	10.173
250.41	13.627
250.62	12.414
250.83	14.129
251.05	19.456
251.26	12.223
251.47	17.240
251.68	13.817
251.90	10.998
252.11	17.298
252.32	14.086
252.53	14.821
252.75	15.092
252.96	13.536
253.17	12.472
253.38	11.080
253.59	10.352
253.81	12.357
254.02	11.275
254.23	10.860
254.44	11.718
254.66	13.715
254.87	10.051
255.08	16.897
255.29	16.185
255.50	15.833
255.72	15.047
255.93	16.977
256.14	20.044
256.35	16.036
256.57	17.010
256.78	11.737
256.99	16.356
257.20	22.207
257.41	15.544
257.63	10.978
257.84	16.827
258.05	17.986
258.26	12.195
258.47	14.478
258.69	10.272
258.90	10.609
259.11	11.116
259.32	8.506
259.53	7.159
259.75	8.562
259.96	5.043
260.17	7.529
260.38	7.100
260.59	7.838
260.81	5.504
261.02	6.782
261.23	5.778
261.44	5.702
261.65	6.384
261.87	6.496
262.08	6.927
262.29	7.155
262.50	6.128
262.71	5.151
262.92	7.819
263.14	8.099
263.35	8.026
263.56	8.986
263.77	10.340
263.98	9.380
264.20	10.728
264.41	6.197
264.62	10.030
264.83	9.194
265.04	15.048
265.25	11.688
265.47	11.469
265.68	15.371
265.89	9.846
266.10	10.077
266.31	13.869
266.52	8.788
266.74	10.786
266.95	9.764
267.16	10.153
267.37	8.786
267.58	8.963
267.79	9.556
268.01	8.030
268.22	8.654
268.43	7.309
268.64	8.662
268.85	7.602
269.06	8.861
269.27	8.624
269.49	4.084
269.70	8.149
269.91	8.844
270.12	7.705
270.33	11.463
270.54	8.698
270.75	6.605
270.97	10.310
271.18	7.220
271.39	9.925
271.60	10.453
271.81	8.860
272.02	6.718
272.23	8.139
272.45	6.213
272.66	5.943
272.87	6.826
273.08	6.987
273.29	4.441
273.50	6.719
273.71	7.469
273.92	5.631
274.14	8.202
274.35	5.976
274.56	7.717
274.77	6.036
274.98	6.943
275.19	5.789
275.40	6.919
275.61	4.248
275.83	9.699
276.04	7.036
276.25	6.490
276.46	5.520
276.67	8.736
276.88	8.088
277.09	8.341
277.30	7.812
277.51	6.767
277.73	8.528
277.94	6.557
278.15	7.596
278.36	10.732
278.57	9.534
278.78	7.539
278.99	7.770
279.20	10.793
279.41	10.534
279.62	7.911
279.84	4.713
280.05	5.769
280.26	6.408
280.47	9.748
280.68	5.595
280.89	8.524
281.10	10.074
281.31	6.225
281.52	8.591
281.73	5.965
281.94	5.910
282.16	7.726
282.37	7.503
282.58	7.100
282.79	8.528
283.00	8.303
283.21	5.776
283.42	5.890
283.63	6.062
283.84	6.652
284.05	6.209
284.26	7.478
284.47	7.805
284.68	6.959
284.89	6.781
285.11	6.015
285.32	6.844
285.53	7.250
285.74	5.751
285.95	5.053
286.16	5.246
286.37	7.247
286.58	6.516
286.79	4.721
287.00	5.548
287.21	5.930
287.42	6.392
287.63	5.651
287.84	6.271
288.05	6.432
288.26	6.481
288.48	5.321
288.69	5.206
288.90	6.076
289.11	6.661
289.32	7.307
289.53	6.667
289.74	4.409
289.95	5.880
290.16	4.839
290.37	4.459
290.58	5.676
290.79	4.102
291.00	4.878
291.21	6.320
291.42	5.974
291.63	5.292
291.84	5.476
292.05	5.025
292.26	6.429
292.47	5.870
292.68	4.557
292.89	6.664
293.10	6.173
293.31	6.694
293.52	5.504
293.73	5.718
293.94	6.618
294.15	6.604
294.36	6.277
294.57	5.965
294.79	6.088
295.00	4.639
295.21	8.057
295.42	4.477
295.63	5.628
295.84	6.475
296.05	4.846
296.26	5.527
296.47	5.353
296.68	4.343
296.89	4.167
297.10	5.537
297.31	5.421
297.52	3.693
297.73	4.976
297.94	4.509
298.15	4.927
298.36	4.217
298.57	4.953
298.78	4.433
298.99	4.546
299.20	4.581
299.41	4.663
299.62	4.401
299.83	4.595
300.04	5.448
300.25	5.618
300.46	3.783
300.67	6.059
300.88	6.860
301.09	4.298
301.30	6.460
301.50	6.114
301.71	7.098
301.92	6.067
302.13	4.313
302.34	3.588
302.55	5.680
302.76	5.455
302.97	6.416
303.18	6.620
303.39	5.428
303.60	6.020
303.81	5.725
304.02	3.349
304.23	5.351
304.44	5.010
304.65	5.652
304.86	6.634
305.07	3.319
305.28	7.207
305.49	5.958
305.70	6.269
305.91	3.927
306.12	4.376
306.33	4.972
306.54	4.865
306.75	6.281
306.96	7.287
307.17	4.245
307.38	6.034
307.58	5.627
307.79	6.025
308.00	6.327
308.21	5.892
308.42	6.707
308.63	5.067
308.84	6.456
309.05	6.121
309.26	5.416
309.47	5.063
309.68	5.742
309.89	7.745
310.10	4.462
310.31	4.846
310.52	5.996
310.73	7.027
310.94	5.965
311.14	5.451
311.35	5.579
311.56	5.916
311.77	5.857
311.98	4.182
312.19	4.034
312.40	5.415
312.61	4.738
312.82	5.832
313.03	4.335
313.24	5.761
313.45	5.593
313.66	5.543
313.86	4.770
314.07	4.803
314.28	6.139
314.49	4.416
314.70	5.528
314.91	7.080
315.12	5.625
315.33	7.074
315.54	3.778
315.75	5.192
315.96	6.216
316.16	4.903
316.37	6.318
316.58	4.418
316.79	6.053
317.00	6.809
317.21	6.220
317.42	6.991
317.63	5.958
317.84	2.825
318.05	6.131
318.25	4.038
318.46	4.500
318.67	4.054
318.88	5.694
319.09	5.744
319.30	4.781
319.51	7.352
319.72	8.250
319.93	5.752
320.13	4.313
320.34	5.053
320.55	5.821
320.76	6.867
320.97	6.139
321.18	6.882
321.39	5.908
321.60	5.592
321.80	6.767
322.01	7.978
322.22	6.585
322.43	3.914
322.64	6.152
322.85	6.841
323.06	8.426
323.27	6.897
323.47	5.060
323.68	7.661
323.89	4.993
324.10	6.081
324.31	4.741
324.52	7.425
324.73	5.847
324.93	5.175
325.14	4.976
325.35	5.375
325.56	5.839
325.77	4.198
325.98	5.579
326.19	5.100
326.39	3.715
326.60	5.812
326.81	3.707
327.02	4.345
327.23	4.474
327.44	6.420
327.64	4.199
327.85	4.787
328.06	5.295
328.27	7.822
328.48	5.903
328.69	3.647
328.90	6.777
329.10	4.687
329.31	7.240
329.52	5.405
329.73	6.904
329.94	5.084
330.15	6.305
330.35	7.432
330.56	6.467
330.77	5.228
330.98	6.418
331.19	6.439
331.39	6.667
331.60	6.190
331.81	4.437
332.02	6.003
332.23	6.215
332.44	5.379
332.64	5.470
332.85	5.729
333.06	6.477
333.27	6.007
333.48	4.652
333.68	5.246
333.89	3.954
334.10	5.294
334.31	5.908
334.52	6.328
334.72	4.326
334.93	6.098
335.14	5.561
335.35	4.938
335.56	6.129
335.76	6.115
335.97	7.029
336.18	4.116
336.39	6.073
336.60	5.500
336.80	4.366
337.01	5.014
337.22	5.243
337.43	6.025
337.64	7.657
337.84	6.311
338.05	5.655
338.26	7.371
338.47	5.201
338.68	4.980
338.88	6.099
339.09	5.602
339.30	6.099
339.51	3.736
339.71	7.083
339.92	5.780
340.13	5.151
340.34	5.404
340.55	4.752
340.75	7.698
340.96	5.799
341.17	6.706
341.38	5.229
341.58	5.218
341.79	4.785
342.00	5.507
342.21	5.840
342.41	4.537
342.62	5.693
342.83	7.048
343.04	4.838
343.24	8.003
343.45	6.287
343.66	4.983
343.87	6.541
344.07	6.689
344.28	7.074
344.49	7.060
344.70	7.603
344.90	5.735
345.11	6.700
345.32	4.579
345.53	6.100
345.73	6.846
345.94	7.193
346.15	6.958
346.36	6.808
346.56	7.591
346.77	7.910
346.98	6.452
347.19	7.202
347.39	6.826
347.60	7.552
347.81	6.821
348.02	7.195
348.22	5.392
348.43	6.382
348.64	5.548
348.84	6.814
349.05	6.901
349.26	8.541
349.47	6.888
349.67	6.026
349.88	6.749
350.09	7.595
350.30	8.928
350.50	8.132
350.71	8.111
350.92	6.420
351.12	6.141
351.33	7.685
351.54	7.524
351.74	7.200
351.95	6.797
352.16	7.013
352.37	8.727
352.57	7.646
352.78	7.519
352.99	7.681
353.19	6.148
353.40	7.612
353.61	9.161
353.82	8.958
354.02	6.248
354.23	8.033
354.44	8.783
354.64	7.860
354.85	7.870
355.06	7.950
355.26	6.215
355.47	6.585
355.68	9.150
355.88	8.545
356.09	7.987
356.30	7.090
356.51	8.134
356.71	7.027
356.92	5.739
357.13	8.920
357.33	8.696
357.54	7.204
357.75	6.186
357.95	7.161
358.16	5.951
358.37	9.135
358.57	7.176
358.78	10.099
358.99	6.621
359.19	7.322
359.40	8.268
359.61	8.098
359.81	9.984
360.02	8.756
360.23	6.814
360.43	7.718
360.64	7.269
360.85	7.461
361.05	5.590
361.26	8.219
361.47	7.602
361.67	8.471
361.88	5.600
362.09	8.020
362.29	6.005
362.50	6.919
362.70	5.811
362.91	8.198
363.12	6.523
363.32	7.860
363.53	8.218
363.74	8.319
363.94	6.440
364.15	9.153
364.36	8.585
364.56	5.949
364.77	7.400
364.98	10.524
365.18	8.032
365.39	8.812
365.59	6.212
365.80	7.664
366.01	8.447
366.21	7.360
366.42	6.481
366.63	8.218
366.83	6.670
367.04	5.231
367.24	8.033
367.45	6.172
367.66	6.124
367.86	7.848
368.07	8.042
368.28	7.783
368.48	6.498
368.69	5.531
368.89	6.829
369.10	8.105
369.31	7.168
369.51	7.188
369.72	8.350
369.92	9.511
370.13	7.243
370.34	8.868
370.54	6.021
370.75	8.078
370.95	4.973
371.16	8.730
371.37	6.923
371.57	8.019
371.78	8.160
371.98	7.251
372.19	8.174
372.40	8.490
372.60	8.660
372.81	7.438
373.01	6.655
373.22	6.312
373.43	8.449
373.63	8.174
373.84	8.712
374.04	8.846
374.25	7.221
374.46	8.915
374.66	8.846
374.87	9.427
375.07	5.903
375.28	6.026
375.48	8.446
375.69	9.075
375.90	5.904
376.10	7.033
376.31	7.978
376.51	6.733
376.72	7.009
376.92	7.869
377.13	8.110
377.34	9.209
377.54	7.683
377.75	9.203
377.95	7.923
378.16	9.060
378.36	9.044
378.57	10.349
378.77	8.450
378.98	10.247
379.19	7.398
379.39	8.003
379.60	8.605
379.80	9.312
380.01	9.425
380.21	8.783
380.42	9.194
380.62	9.109
380.83	9.887
381.04	8.000
381.24	9.532
381.45	9.037
381.65	8.716
381.86	9.607
382.06	9.907
382.27	7.002
382.47	8.476
382.68	10.872
382.88	8.079
383.09	7.614
383.29	8.970
383.50	11.110
383.71	9.525
383.91	10.273
384.12	8.367
384.32	10.216
384.53	9.418
384.73	9.024
384.94	9.333
385.14	9.975
385.35	8.723
385.55	10.760
385.76	9.250
385.96	10.094
386.17	10.689
386.37	10.787
386.58	10.370
386.78	12.026
386.99	9.695
387.19	11.704
387.40	10.172
387.60	12.365
387.81	10.935
388.01	10.938
388.22	12.037
388.42	12.782
388.63	12.545
388.83	13.339
389.04	11.049
389.24	12.169
389.45	11.433
389.65	11.654
389.86	11.168
390.06	11.311
390.27	11.336
390.47	12.279
390.68	11.948
390.88	13.656
391.09	13.437
391.29	14.294
391.50	13.204
391.70	14.029
391.91	13.425
392.11	13.450
392.32	13.912
392.52	13.978
392.73	13.105
392.93	14.550
393.14	14.487
393.34	14.460
393.55	14.916
393.75	14.571
393.95	13.553
394.16	15.792
394.36	15.691
394.57	15.616
394.77	15.145
394.98	16.722
395.18	16.362
395.39	15.504
395.59	15.807
395.80	15.957
396.00	16.021
396.21	16.806
396.41	15.368
396.61	17.531
396.82	15.961
397.02	18.057
397.23	16.806
397.43	16.967
397.64	15.170
397.84	18.010
398.05	15.449
398.25	17.731
398.45	16.045
398.66	17.660
398.86	16.561
399.07	18.330
399.27	16.795
399.48	19.009
399.68	16.707
399.89	17.498
400.09	17.678
400.29	17.599
400.50	17.662
400.70	17.615
400.91	17.232
401.11	17.336
401.32	17.435
401.52	16.924
401.72	16.699
401.93	18.911
402.13	17.779
402.34	18.315
402.54	16.808
402.75	19.134
402.95	16.813
403.15	19.319
403.36	16.171
403.56	18.361
403.77	17.222
403.97	18.335
404.17	17.134
404.38	19.219
404.58	17.208
404.79	19.080
404.99	18.883
405.19	18.296
405.40	18.424
405.60	18.942
405.81	17.829
406.01	18.774
406.21	18.097
406.42	19.073
406.62	18.955
406.83	19.017
407.03	18.039
407.23	18.174
407.44	17.698
407.64	18.156
407.85	18.717
408.05	19.535
408.25	17.730
408.46	19.427
408.66	18.683
408.87	18.164
409.07	17.712
409.27	18.608
409.48	19.268
409.68	18.748
409.88	17.264
410.09	18.248
410.29	18.341
410.50	18.163
410.70	17.335
410.90	18.244
411.11	17.426
411.31	18.362
411.51	18.759
411.72	19.058
411.92	17.866
412.12	18.858
412.33	17.274
412.53	17.851
412.74	16.854
412.94	18.171
413.14	18.252
413.35	18.482
413.55	16.893
413.75	19.066
413.96	17.233
414.16	17.617
414.36	18.209
414.57	18.063
414.77	16.930
414.97	18.487
415.18	16.958
415.38	18.449
415.58	18.067
415.79	17.622
415.99	17.384
416.19	17.969
416.40	17.496
416.60	17.899
416.80	17.863
417.01	18.276
417.21	17.135
417.41	17.682
417.62	17.870
417.82	18.350
418.02	17.103
418.23	17.563
418.43	17.821
418.63	18.514
418.84	17.998
419.04	17.904
419.24	17.824
419.45	16.960
419.65	17.831
419.85	17.922
420.06	17.779
420.26	17.997
420.46	17.885
420.67	17.973
420.87	17.852
421.07	17.852
421.28	17.618
421.48	17.207
421.68	17.962
421.88	17.894
422.09	17.586
422.29	17.902
422.49	17.630
422.70	17.684
422.90	17.543
423.10	17.833
423.31	17.801
423.51	17.649
423.71	17.405
423.91	17.586
424.12	17.941
424.32	17.860
424.52	17.892
424.73	17.295
424.93	17.647
425.13	17.272
425.33	17.099
425.54	17.326
425.74	17.400
425.94	17.607
426.15	17.659
426.35	17.868
426.55	17.418
426.75	17.856
426.96	17.135
427.16	17.747
427.36	17.830
427.57	17.583
427.77	17.927
427.97	17.881
428.17	17.083
428.38	17.142
428.58	16.965
428.78	17.864
428.98	17.010
429.19	17.070
429.39	17.006
429.59	17.085
429.79	16.309
430.00	17.506
430.20	16.975
430.40	17.743
430.60	17.153
430.81	17.138
431.01	16.736
431.21	17.471
431.41	16.376
431.62	16.779
431.82	16.708
432.02	17.410
432.22	17.174
432.43	16.678
432.63	17.094
432.83	17.069
433.03	16.466
433.24	17.120
433.44	16.897
433.64	17.376
433.84	16.947
434.05	16.903
434.25	17.109
434.45	17.514
434.65	17.375
434.85	17.427
435.06	17.559
435.26	17.508
435.46	17.406
435.66	17.707
435.87	17.317
436.07	17.276
436.27	17.184
436.47	17.820
436.67	17.306
436.88	17.558
437.08	17.200
437.28	17.693
437.48	17.133
437.69	17.255
437.89	17.330
438.09	18.145
438.29	16.743
438.49	17.636
438.70	17.338
438.90	17.703
439.10	16.634
439.30	17.449
439.50	17.413
439.71	17.717
439.91	17.489
440.11	17.137
440.31	17.008
440.51	16.639
440.72	16.647
440.92	17.064
441.12	17.239
441.32	17.080
441.52	17.532
441.72	17.426
441.93	17.482
442.13	17.442
442.33	17.411
442.53	17.295
442.73	17.234
442.94	17.591
443.14	17.783
443.34	18.107
443.54	18.101
443.74	17.434
443.94	17.648
444.15	17.585
444.35	17.736
444.55	17.649
444.75	17.522
444.95	17.589
445.15	16.878
445.36	17.425
445.56	16.357
445.76	16.921
445.96	16.778
446.16	17.342
446.36	16.568
446.57	16.948
446.77	17.360
446.97	17.077
447.17	17.145
447.37	16.927
447.57	17.528
447.77	17.071
447.98	17.235
448.18	16.936
448.38	17.457
448.58	17.456
448.78	17.967
448.98	17.593
449.18	17.481
449.39	17.665
449.59	17.532
449.79	17.501
449.99	17.576
450.19	17.551
450.39	17.372
450.59	17.771
450.79	17.320
451.00	17.846
451.20	17.880
451.40	17.662
451.60	17.565
451.80	17.572
452.00	17.097
452.20	17.592
452.40	16.864
452.61	16.810
452.81	16.557
453.01	17.184
453.21	16.847
453.41	17.459
453.61	17.226
453.81	17.103
454.01	16.932
454.21	16.851
454.42	17.105
454.62	16.918
454.82	17.187
455.02	16.969
455.22	16.732
455.42	17.279
455.62	16.797
455.82	17.342
456.02	16.603
456.23	16.748
456.43	16.982
456.63	16.994
456.83	16.877
457.03	16.904
457.23	16.508
457.43	17.402
457.63	16.675
457.83	17.619
458.03	16.842
458.23	16.438
458.43	16.246
458.64	17.164
458.84	16.242
459.04	16.695
459.24	16.335
459.44	16.842
459.64	16.282
459.84	16.450
460.04	16.290
460.24	16.265
460.44	16.142
460.64	16.457
460.84	16.093
461.04	16.287
461.24	16.687
461.45	16.391
461.65	16.554
461.85	16.863
462.05	16.644
462.25	16.983
462.45	16.980
462.65	17.116
462.85	16.647
463.05	16.876
463.25	16.200
463.45	16.771
463.65	16.879
463.85	16.861
464.05	16.838
464.25	16.920
464.45	16.537
464.65	16.664
464.85	16.172
465.05	16.708
465.26	16.473
465.46	16.554
465.66	16.565
465.86	16.998
466.06	17.300
466.26	17.010
466.46	16.819
466.66	16.721
466.86	16.802
467.06	16.794
467.26	16.022
467.46	17.100
467.66	16.393
467.86	16.474
468.06	16.747
468.26	16.803
468.46	16.396
468.66	17.034
468.86	16.492
469.06	17.005
469.26	16.749
469.46	16.347
469.66	16.564
469.86	17.188
470.06	16.517
470.26	16.757
470.46	16.250
470.66	17.297
470.86	16.534
471.06	16.554
471.26	16.087
471.46	16.862
471.66	16.361
471.86	16.948
472.06	16.752
472.26	17.156
472.46	16.668
472.66	16.848
472.86	16.517
473.06	17.109
473.26	17.440
473.46	16.911
473.66	16.601
473.86	17.191
474.06	17.096
474.26	17.129
474.46	16.912
474.66	17.350
474.86	17.221
475.06	17.069
475.26	16.909
475.46	17.046
475.66	17.094
475.86	17.076
476.06	16.869
476.26	17.216
476.46	17.370
476.66	17.165
476.86	16.609
477.06	17.443
477.26	17.129
477.46	17.490
477.65	17.354
477.85	17.301
478.05	16.771
478.25	17.456
478.45	17.090
478.65	17.360
478.85	17.296
479.05	17.590
479.25	17.114
479.45	17.553
479.65	17.676
479.85	17.837
480.05	17.092
480.25	17.584
480.45	17.791
480.65	17.660
480.85	17.292
481.05	17.927
481.25	17.457
481.44	17.221
481.64	17.159
481.84	17.398
482.04	17.485
482.24	17.672
482.44	17.426
482.64	17.169
482.84	17.074
483.04	17.292
483.24	17.034
483.44	17.015
483.64	17.098
483.84	16.610
484.04	17.068
484.23	17.277
484.43	17.396
484.63	17.553
484.83	17.837
485.03	18.602
485.23	18.464
485.43	18.289
485.63	18.297
485.83	18.013
486.03	18.133
486.23	18.618
486.42	18.244
486.62	18.181
486.82	17.891
487.02	17.845
487.22	17.727
487.42	17.407
487.62	17.694
487.82	17.623
488.02	17.585
488.22	17.547
488.41	17.479
488.61	17.857
488.81	17.724
489.01	18.077
489.21	18.001
489.41	18.066
489.61	18.023
489.81	18.420
490.01	18.398
490.20	18.240
490.40	18.168
490.60	17.980
490.80	17.711
491.00	18.233
491.20	18.015
491.40	17.771
491.60	17.596
491.79	17.414
491.99	17.606
492.19	17.691
492.39	17.597
492.59	17.824
492.79	17.654
492.99	17.791
493.19	18.159
493.38	17.931
493.58	18.353
493.78	18.336
493.98	18.546
494.18	18.637
494.38	18.490
494.58	18.525
494.77	18.666
494.97	18.066
495.17	18.147
495.37	18.408
495.57	18.006
495.77	18.718
495.96	18.537
496.16	18.467
496.36	18.009
496.56	18.230
496.76	18.268
496.96	18.130
497.15	17.693
497.35	18.348
497.55	18.004
497.75	18.277
497.95	17.838
498.15	18.015
498.34	18.311
498.54	17.975
498.74	18.744
498.94	18.536
499.14	18.988
499.34	18.318
499.53	18.962
499.73	18.657
499.93	18.749
500.13	18.438
500.33	18.750
500.52	18.575
500.72	18.614
500.92	18.739
501.12	18.421
501.32	18.842
501.52	18.658
501.71	18.873
501.91	19.065
502.11	19.155
502.31	18.596
502.51	19.372
502.70	19.198
502.90	19.197
503.10	18.688
503.30	19.255
503.50	18.960
503.69	18.435
503.89	19.126
504.09	18.483
504.29	18.908
504.48	19.000
504.68	19.135
504.88	18.554
505.08	18.969
505.28	18.872
505.47	19.221
505.67	19.065
505.87	18.833
506.07	18.673
506.27	19.233
506.46	19.514
506.66	19.376
506.86	19.154
507.06	19.314
507.25	19.102
507.45	19.064
507.65	18.679
507.85	19.010
508.04	18.895
508.24	18.837
508.44	18.910
508.64	18.814
508.83	18.527
509.03	18.962
509.23	18.964
509.43	18.517
509.63	19.101
509.82	19.139
510.02	18.973
510.22	19.205
510.42	19.357
510.61	19.406
510.81	19.202
511.01	19.126
511.21	19.111
511.40	18.862
511.60	19.597
511.80	19.285
511.99	19.074
512.19	19.337
512.39	19.074
512.59	18.945
512.78	19.353
512.98	19.389
513.18	19.096
513.38	19.087
513.57	19.127
513.77	19.508
513.97	19.731
514.17	19.218
514.36	19.114
514.56	19.240
514.76	19.574
514.95	19.860
515.15	19.279
515.35	19.391
515.55	19.222
515.74	19.102
515.94	19.552
516.14	19.135
516.33	19.681
516.53	19.204
516.73	19.551
516.93	19.579
517.12	19.308
517.32	19.183
517.52	19.825
517.71	19.830
517.91	19.636
518.11	19.112
518.30	19.090
518.50	18.970
518.70	19.196
518.90	18.822
519.09	19.258
519.29	19.300
519.49	19.218
519.68	19.108
519.88	19.383
520.08	19.364
520.27	19.639
520.47	19.724
520.67	19.434
520.86	19.876
521.06	19.673
521.26	19.402
521.45	19.960
521.65	19.824
521.85	19.623
522.04	19.602
522.24	20.157
522.44	19.169
522.63	19.212
522.83	19.432
523.03	19.288
523.22	19.387
523.42	19.996
523.62	19.795
523.81	19.616
524.01	19.889
524.21	19.515
524.40	19.890
524.60	19.303
524.80	19.530
524.99	19.339
525.19	19.537
525.39	19.236
525.58	19.372
525.78	19.301
525.98	19.134
526.17	19.182
526.37	19.714
526.57	19.245
526.76	19.249
526.96	19.102
527.15	19.377
527.35	19.347
527.55	19.592
527.74	19.632
527.94	19.701
528.14	19.265
528.33	19.428
528.53	18.856
528.72	19.182
528.92	19.324
529.12	19.339
529.31	19.376
529.51	19.675
529.71	19.750
529.90	19.690
530.10	19.918
530.29	20.085
530.49	20.171
530.69	20.508
530.88	20.235
531.08	20.265
531.28	20.061
531.47	20.016
531.67	20.052
531.86	19.894
532.06	19.937
532.26	19.892
532.45	19.812
532.65	19.515
532.84	19.546
533.04	19.438
533.24	19.511
533.43	19.329
533.63	19.606
533.82	19.562
534.02	19.945
534.22	19.418
534.41	19.753
534.61	19.854
534.80	19.737
535.00	20.080
535.19	20.105
535.39	20.081
535.59	20.030
535.78	19.809
535.98	20.424
536.17	19.824
536.37	19.955
536.57	19.914
536.76	19.691
536.96	19.890
537.15	19.847
537.35	19.843
537.54	20.085
537.74	19.934
537.93	20.205
538.13	20.187
538.33	20.062
538.52	20.322
538.72	20.445
538.91	20.535
539.11	20.677
539.30	20.602
539.50	20.318
539.70	20.449
539.89	20.349
540.09	20.210
540.28	20.630
540.48	20.423
540.67	20.252
540.87	19.982
541.06	19.911
541.26	19.931
541.45	19.679
541.65	19.571
541.85	19.975
542.04	19.849
542.24	20.373
542.43	20.497
542.63	20.292
542.82	20.458
543.02	20.539
543.21	20.848
543.41	20.867
543.60	20.514
543.80	20.958
543.99	20.529
544.19	20.715
544.38	20.703
544.58	20.545
544.77	20.676
544.97	20.841
545.16	21.157
545.36	21.068
545.56	21.589
545.75	20.649
545.95	20.900
546.14	20.933
546.34	20.941
546.53	20.839
546.73	20.865
546.92	20.840
547.12	21.145
547.31	21.270
547.51	21.164
547.70	20.791
547.90	20.975
548.09	21.034
548.29	21.321
548.48	21.327
548.68	21.749
548.87	21.185
549.07	21.359
549.26	21.684
549.46	21.578
549.65	22.095
549.84	21.700
550.04	21.898
550.23	22.259
550.43	21.367
550.62	21.874
550.82	21.687
551.01	21.831
551.21	21.564
551.40	21.737
551.60	21.726
551.79	21.989
551.99	21.946
552.18	21.837
552.38	21.582
552.57	21.821
552.77	21.723
552.96	22.036
553.16	21.838
553.35	22.242
553.54	22.352
553.74	22.036
553.93	22.391
554.13	22.500
554.32	22.678
554.52	22.647
554.71	22.498
554.91	22.495
555.10	23.011
555.29	22.777
555.49	23.013
555.68	22.922
555.88	22.792
556.07	22.950
556.27	22.832
556.46	23.364
556.66	22.832
556.85	22.935
557.04	22.769
557.24	23.411
557.43	23.750
557.63	23.016
557.82	23.387
558.02	23.609
558.21	23.288
558.40	23.342
558.60	23.316
558.79	23.679
558.99	23.278
559.18	23.410
559.38	23.845
559.57	24.343
559.76	24.514
559.96	23.951
560.15	23.936
560.35	23.613
560.54	23.988
560.73	23.301
560.93	24.132
561.12	24.222
561.32	23.964
561.51	23.918
561.70	24.074
561.90	24.282
562.09	24.057
562.29	24.467
562.48	24.155
562.67	24.983
562.87	24.723
563.06	24.704
563.26	24.908
563.45	24.606
563.64	24.685
563.84	24.926
564.03	24.946
564.23	25.031
564.42	25.069
564.61	24.648
564.81	25.134
565.00	25.569
565.20	25.204
565.39	25.116
565.58	25.534
565.78	25.157
565.97	25.529
566.16	25.573
566.36	25.032
566.55	24.969
566.74	25.657
566.94	25.670
567.13	25.615
567.33	25.951
567.52	25.808
567.71	25.932
567.91	25.752
568.10	26.371
568.29	26.323
568.49	26.513
568.68	26.199
568.87	25.993
569.07	25.898
569.26	26.820
569.45	26.140
569.65	26.353
569.84	26.379
570.04	26.365
570.23	26.365
570.42	26.582
570.62	26.417
570.81	26.830
571.00	26.603
571.20	26.540
571.39	26.317
571.58	26.548
571.78	26.684
571.97	26.838
572.16	26.455
572.36	26.971
572.55	26.900
572.74	26.817
572.94	26.374
573.13	27.061
573.32	26.743
573.51	26.891
573.71	27.344
573.90	27.154
574.09	26.899
574.29	27.581
574.48	27.407
574.67	27.318
574.87	27.358
575.06	27.292
575.25	27.091
575.45	27.577
575.64	27.290
575.83	27.347
576.03	27.323
576.22	27.644
576.41	27.474
576.60	27.769
576.80	27.701
576.99	27.860
577.18	27.851
577.38	27.723
577.57	28.070
577.76	28.125
577.95	27.787
578.15	27.657
578.34	27.582
578.53	27.415
578.73	26.833
578.92	27.835
579.11	27.903
579.30	28.096
579.50	27.487
579.69	28.113
579.88	27.248
580.08	27.696
580.27	28.034
580.46	28.268
580.65	28.036
580.85	27.696
581.04	27.933
581.23	27.960
581.42	28.533
581.62	27.952
581.81	27.547
582.00	28.085
582.19	27.516
582.39	28.042
582.58	28.013
582.77	27.698
582.96	28.053
583.16	27.866
583.35	28.458
583.54	27.931
583.73	27.903
583.93	28.130
584.12	28.148
584.31	28.018
584.50	27.105
584.70	28.396
584.89	27.559
585.08	27.849
585.27	28.026
585.47	27.490
585.66	28.300
585.85	27.529
586.04	27.504
586.24	27.910
586.43	27.284
586.62	28.255
586.81	27.346
587.00	28.261
587.20	27.682
587.39	27.693
587.58	27.458
587.77	26.903
587.97	27.985
588.16	27.650
588.35	27.709
588.54	27.078
588.73	27.088
588.93	28.067
589.12	27.688
589.31	27.606
589.50	27.505
589.69	27.962
589.89	27.834
590.08	27.129
590.27	27.274
590.46	27.404
590.65	28.200
590.85	27.494
591.04	27.600
591.23	27.583
591.42	27.439
591.61	27.055
591.81	27.614
592.00	27.779
592.19	27.388
592.38	27.369
592.57	27.920
592.77	27.548
592.96	28.200
593.15	28.273
593.34	27.290
593.53	28.104
593.72	26.929
593.92	27.700
594.11	27.815
594.30	27.758
594.49	27.990
594.68	27.577
594.87	28.102
595.07	27.423
595.26	27.968
595.45	28.115
595.64	27.242
595.83	27.424
596.02	27.707
596.22	27.214
596.41	28.117
596.60	28.079
596.79	27.282
596.98	27.623
597.17	28.433
597.37	27.790
597.56	28.194
597.75	27.371
597.94	28.050
598.13	27.750
598.32	27.903
598.51	27.645
598.71	28.089
598.90	28.578
599.09	28.262
599.28	28.499
599.47	28.884
599.66	28.579
599.85	29.041
600.05	28.469
600.24	28.977
600.43	28.086
600.62	28.946
600.81	28.891
601.00	29.798
601.19	28.429
601.38	29.848
601.58	29.270
601.77	29.344
601.96	28.996
602.15	29.442
602.34	29.400
602.53	29.121
602.72	29.199
602.91	28.921
603.10	29.311
603.30	29.502
603.49	28.679
603.68	29.396
603.87	28.694
604.06	29.283
604.25	29.202
604.44	28.523
604.63	28.741
604.82	28.199
605.01	28.781
605.21	29.327
605.40	28.965
605.59	29.148
605.78	29.064
605.97	29.023
606.16	29.245
606.35	29.386
606.54	29.478
606.73	29.401
606.92	29.769
607.11	29.519
607.30	29.283
607.50	29.775
607.69	28.897
607.88	28.628
608.07	28.802
608.26	29.840
608.45	28.975
608.64	29.598
608.83	28.720
609.02	29.116
609.21	29.123
609.40	28.695
609.59	29.053
609.78	28.710
609.97	27.780
610.16	28.755
610.35	28.965
610.55	29.131
610.74	28.419
610.93	28.357
611.12	28.078
611.31	29.244
611.50	29.137
611.69	27.999
611.88	29.190
612.07	30.038
612.26	28.766
612.45	29.110
612.64	28.752
612.83	29.045
613.02	28.039
613.21	29.396
613.40	28.516
613.59	29.325
613.78	28.687
613.97	28.759
614.16	28.114
614.35	29.184
614.54	28.884
614.73	28.740
614.92	28.736
615.11	27.998
615.30	27.861
615.49	28.006
615.68	28.499
615.87	27.849
616.07	27.442
616.26	28.360
616.45	28.291
616.64	28.625
616.83	27.850
617.02	28.112
617.21	27.030
617.40	27.906
617.59	27.501
617.78	27.843
617.97	27.562
618.16	27.121
618.35	27.388
618.54	27.877
618.73	27.156
618.92	27.558
619.11	26.956
619.30	28.158
619.49	27.113
619.68	26.813
619.86	26.926
620.05	27.061
620.24	26.663
620.43	27.190
620.62	27.357
620.81	27.055
621.00	27.426
621.19	26.976
621.38	28.135
621.57	27.473
621.76	27.104
621.95	26.740
622.14	26.476
622.33	27.260
622.52	26.566
622.71	27.249
622.90	27.345
623.09	27.069
623.28	26.095
623.47	27.729
623.66	26.898
623.85	26.771
624.04	26.556
624.23	26.615
624.42	26.586
624.61	26.706
624.80	26.988
624.99	26.717
625.18	25.931
625.36	26.051
625.55	26.619
625.74	26.193
625.93	26.039
626.12	26.918
626.31	26.367
626.50	26.593
626.69	26.228
626.88	26.532
627.07	26.342
627.26	26.509
627.45	26.452
627.64	26.473
627.83	26.549
628.02	25.919
628.20	26.470
628.39	26.125
628.58	26.341
628.77	26.833
628.96	26.298
629.15	26.537
629.34	26.346
629.53	26.166
629.72	25.992
629.91	25.895
630.10	26.516
630.29	26.365
630.47	27.249
630.66	26.179
630.85	26.664
631.04	26.669
631.23	26.593
631.42	26.260
631.61	26.305
631.80	26.030
631.99	25.957
632.18	26.123
632.36	26.378
632.55	25.922
632.74	25.137
632.93	25.817
633.12	26.304
633.31	25.722
633.50	26.019
633.69	26.188
633.88	26.045
634.06	25.643
634.25	25.909
634.44	26.076
634.63	24.816
634.82	25.478
635.01	26.092
635.20	25.694
635.39	25.239
635.57	25.547
635.76	25.930
635.95	25.264
636.14	26.400
636.33	26.172
636.52	25.608
636.71	26.044
636.89	26.132
637.08	25.434
637.27	25.531
637.46	25.710
637.65	25.230
637.84	25.939
638.03	25.479
638.21	25.966
638.40	25.037
638.59	25.459
638.78	25.128
638.97	25.854
639.16	25.554
639.34	26.144
639.53	24.420
639.72	25.701
639.91	25.323
640.10	24.890
640.29	25.797
640.47	25.901
640.66	25.048
640.85	25.786
641.04	24.547
641.23	24.960
641.42	25.801
641.60	25.170
641.79	24.701
641.98	24.935
642.17	24.998
642.36	25.581
642.54	25.011
642.73	25.670
642.92	25.218
643.11	24.850
643.30	24.484
643.49	25.462
643.67	24.615
643.86	26.339
644.05	24.447
644.24	25.233
644.43	24.525
644.61	25.063
644.80	24.080
644.99	24.502
645.18	26.210
645.37	24.746
645.55	25.031
645.74	24.585
645.93	24.658
646.12	24.704
646.31	25.555
646.49	24.542
646.68	24.062
646.87	25.047
647.06	24.733
647.24	25.664
647.43	24.468
647.62	25.191
647.81	23.901
648.00	25.233
648.18	24.004
648.37	25.309
648.56	25.087
648.75	24.406
648.93	24.259
649.12	23.889
649.31	24.153
649.50	24.749
649.68	23.889
649.87	24.943
650.06	23.283
650.25	24.517
650.43	23.963
650.62	25.432
650.81	24.602
651.00	24.719
651.18	24.760
651.37	24.916
651.56	22.895
651.75	24.662
651.93	24.679
652.12	24.958
652.31	23.353
652.50	25.244
652.68	23.936
652.87	24.947
653.06	24.404
653.25	25.364
653.43	24.579
653.62	23.735
653.81	24.161
654.00	24.744
654.18	23.796
654.37	24.678
654.56	24.008
654.74	23.875
654.93	23.046
655.12	24.034
655.31	23.498
655.49	24.683
655.68	22.993
655.87	22.349
656.05	22.979
656.24	23.837
656.43	22.984
656.62	24.128
656.80	23.344
656.99	23.020
657.18	22.265
657.36	23.583
657.55	23.162
657.74	23.666
657.93	23.408
658.11	23.332
658.30	23.701
658.49	22.695
658.67	22.673
658.86	22.870
659.05	21.975
659.23	21.799
659.42	22.011
659.61	21.847
659.79	21.534
659.98	22.866
660.17	22.371
660.35	22.097
660.54	22.129
660.73	22.915
660.91	21.797
661.10	22.419
661.29	21.760
661.47	21.823
661.66	21.830
661.85	22.139
662.03	21.919
662.22	21.077
662.41	20.112
662.59	20.621
662.78	19.732
662.97	20.475
663.15	19.396
663.34	19.831
663.53	19.424
663.71	20.849
663.90	18.773
664.09	20.661
664.27	19.268
664.46	18.014
664.65	18.477
664.83	18.806
665.02	18.713
665.21	19.274
665.39	18.356
665.58	19.693
665.77	18.208
665.95	18.549
666.14	17.535
666.32	19.313
666.51	18.145
666.70	18.802
666.88	17.633
667.07	18.789
667.26	16.544
667.44	19.527
667.63	18.038
667.81	18.000
668.00	16.763
668.19	18.488
668.37	18.402
668.56	18.458
668.75	17.125
668.93	19.332
669.12	16.497
669.30	19.293
669.49	17.460
669.68	19.260
669.86	17.983
670.05	17.858
670.23	17.641
670.42	17.558
670.61	18.803
670.79	18.961
670.98	19.034
671.16	19.143
671.35	19.031
671.54	18.436
671.72	17.555
671.91	18.928
672.09	16.922
672.28	19.157
672.46	18.868
672.65	18.336
672.84	18.191
673.02	19.866
673.21	16.111
673.39	18.167
673.58	18.742
673.77	19.649
673.95	18.795
674.14	19.807
674.32	18.074
674.51	20.528
674.69	17.433
674.88	18.699
675.07	17.362
675.25	20.285
675.44	19.548
675.62	19.298
675.81	17.272
675.99	22.180
676.18	20.952
676.36	19.867
676.55	18.369
676.74	19.945
676.92	20.818
677.11	19.915
677.29	19.554
677.48	20.599
677.66	20.257
677.85	20.287
678.03	18.863
678.22	22.422
678.40	20.298
678.59	19.514
678.78	19.393
678.96	21.796
679.15	19.967
679.33	22.035
679.52	20.302
679.70	21.724
679.89	21.352
680.07	20.048
680.26	20.390
680.44	21.432
680.63	21.056
680.81	21.803
681.00	19.684
681.18	22.232
681.37	20.721
681.55	21.836
681.74	22.798
681.92	22.631
682.11	22.320
682.29	22.346
682.48	21.531
682.66	23.766
682.85	22.733
683.03	22.838
683.22	23.640
683.40	22.963
683.59	22.795
683.77	23.096
683.96	21.723
684.14	24.644
684.33	22.404
684.51	25.999
684.70	25.006
684.88	24.824
685.07	25.109
685.25	26.352
685.44	24.632
685.62	25.296
685.81	24.675
685.99	26.719
686.18	23.373
686.36	26.987
686.55	24.846
686.73	27.241
686.92	26.408
687.10	26.668
687.29	28.217
687.47	27.707
687.65	26.692
687.84	25.731
688.02	28.248
688.21	28.429
688.39	27.123
688.58	29.413
688.76	27.763
688.95	28.832
689.13	28.191
689.32	29.583
689.50	29.603
689.68	30.707
689.87	29.799
690.05	31.465
690.24	30.446
690.42	31.130
690.61	30.229
690.79	32.383
690.98	30.742
691.16	32.209
691.34	30.557
691.53	32.869
691.71	32.243
691.90	34.148
692.08	30.012
692.27	35.281
692.45	35.236
692.63	35.498
692.82	35.127
693.00	34.534
693.19	32.726
693.37	35.840
693.56	34.707
693.74	35.729
693.92	36.523
694.11	35.564
694.29	35.971
694.48	38.561
694.66	37.079
694.84	38.935
695.03	37.396
695.21	37.804
695.40	38.967
695.58	39.481
695.76	37.155
695.95	38.961
696.13	38.477
696.32	40.678
696.50	40.795
696.68	42.832
696.87	40.224
697.05	40.421
697.24	41.096
697.42	40.507
697.60	39.689
697.79	41.565
697.97	42.959
698.16	42.235
698.34	42.333
698.52	40.930
698.71	43.567
698.89	42.737
699.07	41.500
699.26	43.546
699.44	43.801
699.63	41.730
699.81	42.305
699.99	43.088
700.18	42.308
700.36	42.286
700.54	43.966
700.73	43.270
700.91	43.718
701.09	45.032
701.28	45.195
701.46	44.784
701.64	44.820
701.83	44.733
702.01	45.729
702.20	46.629
702.38	47.128
702.56	46.520
702.75	45.249
702.93	47.614
703.11	46.635
703.30	47.646
703.48	48.842
703.66	48.063
703.85	47.769
704.03	48.901
704.21	46.924
704.40	49.841
704.58	47.735
704.76	49.721
704.95	48.388
705.13	49.202
705.31	49.413
705.50	49.332
705.68	49.527
705.86	50.824
706.04	49.812
706.23	50.115
706.41	48.638
706.59	49.434
706.78	49.946
706.96	50.053
707.14	49.893
707.33	49.620
707.51	50.901
707.69	51.111
707.88	49.729
708.06	50.575
708.24	51.320
708.42	50.275
708.61	49.596
708.79	51.726
708.97	52.731
709.16	51.931
709.34	50.459
709.52	50.488
709.71	51.664
709.89	51.520
710.07	49.000
710.25	53.144
710.44	49.649
710.62	50.757
710.80	50.292
710.98	51.065
711.17	50.677
711.35	51.688
711.53	51.101
711.72	51.653
711.90	50.808
712.08	51.281
712.26	50.795
712.45	51.782
712.63	51.512
712.81	49.442
712.99	50.827
713.18	51.580
713.36	52.187
713.54	51.263
713.72	51.154
713.91	51.856
714.09	50.345
714.27	51.457
714.45	52.183
714.64	52.879
714.82	50.749
715.00	52.728
715.18	51.123
715.37	52.267
715.55	49.912
715.73	51.918
715.91	53.054
716.10	52.144
716.28	51.474
716.46	51.752
716.64	51.033
716.83	51.810
717.01	49.040
717.19	52.185
717.37	50.997
717.55	52.498
717.74	52.038
717.92	49.423
718.10	49.885
718.28	51.884
718.47	50.199
718.65	50.328
718.83	52.712
719.01	50.640
719.19	52.065
719.38	51.731
719.56	50.454
719.74	51.551
719.92	47.585
720.10	53.521
720.29	49.502
720.47	53.032
720.65	52.131
720.83	51.820
721.01	48.040
721.20	52.171
721.38	49.978
721.56	52.089
721.74	51.912
721.92	54.689
722.11	49.956
722.29	53.565
722.47	52.599
722.65	54.554
722.83	50.201
723.01	54.813
723.20	49.504
723.38	53.928
723.56	51.154
723.74	52.348
723.92	51.382
724.10	55.380
724.29	49.599
724.47	56.021
724.65	52.384
724.83	52.808
725.01	53.880
725.19	53.732
725.38	50.160
725.56	54.930
725.74	52.694
725.92	53.707
726.10	51.458
726.28	55.589
726.46	50.804
726.65	54.386
726.83	51.571
727.01	52.834
727.19	51.622
727.37	53.506
727.55	51.594
727.73	52.593
727.92	51.986
728.10	51.486
728.28	49.800
728.46	55.152
728.64	51.455
728.82	52.658
729.00	51.350
729.19	53.153
729.37	55.317
729.55	55.505
729.73	53.257
729.91	54.745
730.09	52.959
730.27	53.701
730.45	51.800
730.63	52.674
730.82	52.792
731.00	53.474
731.18	51.903
731.36	54.346
731.54	51.353
731.72	53.617
731.90	51.467
732.08	53.913
732.26	52.171
732.45	54.478
732.63	53.502
732.81	55.313
732.99	53.717
733.17	54.328
733.35	52.507
733.53	54.838
733.71	50.948
733.89	56.896
734.07	51.911
734.25	54.935
734.44	53.119
734.62	55.410
734.80	53.302
734.98	56.709
735.16	55.747
735.34	53.944
735.52	56.214
735.70	54.253
735.88	56.720
736.06	55.822
736.24	57.400
736.42	56.648
736.60	56.717
736.78	55.322
736.97	55.653
737.15	56.420
737.33	54.636
737.51	56.684
737.69	58.457
737.87	53.827
738.05	56.330
738.23	57.719
738.41	56.289
738.59	58.084
738.77	58.232
738.95	59.107
739.13	55.957
739.31	54.396
739.49	56.881
739.67	57.334
739.85	53.909
740.03	54.746
740.21	55.888
740.39	60.035
740.57	54.671
740.75	56.239
740.93	55.840
741.11	56.729
741.30	54.799
741.48	56.671
741.66	58.136
741.84	57.569
742.02	57.207
742.20	57.919
742.38	55.666
742.56	59.935
742.74	55.537
742.92	60.368
743.10	54.482
743.28	58.480
743.46	55.666
743.64	57.245
743.82	56.622
744.00	60.092
744.18	55.221
744.36	59.088
744.54	56.639
744.72	61.672
744.90	58.610
745.08	57.601
745.26	56.757
745.44	63.043
745.62	60.511
745.80	59.599
745.98	57.337
746.16	59.475
746.34	57.218
746.52	59.388
746.70	59.634
746.87	59.716
747.05	58.748
747.23	62.475
747.41	57.483
747.59	60.154
747.77	57.938
747.95	57.803
748.13	58.404
748.31	58.460
748.49	58.109
748.67	58.276
748.85	58.557
749.03	59.835
749.21	56.434
749.39	60.934
749.57	55.006
749.75	58.614
749.93	56.631
750.11	59.488
750.29	58.542
750.47	60.600
750.65	58.008
750.83	57.298
751.01	56.780
751.18	56.355
751.36	56.468
751.54	59.358
751.72	60.199
751.90	56.141
752.08	56.365
752.26	55.821
752.44	56.542
752.62	58.043
752.80	56.324
752.98	59.789
753.16	56.813
753.34	59.229
753.52	59.987
753.69	57.440
753.87	54.734
754.05	60.452
754.23	54.388
754.41	60.693
754.59	57.396
754.77	62.118
754.95	58.019
755.13	58.318
755.31	57.473
755.49	58.002
755.66	55.397
755.84	60.508
756.02	58.232
756.20	60.355
756.38	54.054
756.56	53.632
756.74	54.730
756.92	56.345
757.10	56.502
757.28	60.583
757.45	63.265
757.63	55.070
757.81	57.429
757.99	57.206
758.17	58.290
758.35	57.614
758.53	57.202
758.71	55.704
758.88	57.473
759.06	58.724
759.24	54.159
759.42	55.457
759.60	53.348
759.78	53.965
759.96	50.479
760.13	52.429
760.31	46.094
760.49	48.041
760.67	45.905
760.85	49.762
761.03	45.826
761.21	50.231
761.38	45.449
761.56	47.923
761.74	45.371
761.92	52.052
762.10	43.302
762.28	47.734
762.46	45.386
762.63	47.914
762.81	46.610
762.99	48.599
763.17	47.978
763.35	50.464
763.53	46.857
763.70	49.729
763.88	47.603
764.06	48.755
764.24	47.485
764.42	52.612
764.60	48.088
764.77	49.204
764.95	47.568
765.13	50.851
765.31	49.799
765.49	50.415
765.66	48.469
765.84	52.111
766.02	49.584
766.20	52.363
766.38	51.231
766.56	52.870
766.73	50.697
766.91	53.852
767.09	54.118
767.27	54.141
767.45	50.458
767.62	52.472
767.80	50.335
767.98	54.838
768.16	52.307
768.33	56.203
768.51	55.548
768.69	57.028
768.87	53.849
769.05	54.730
769.22	50.345
769.40	59.657
769.58	57.047
769.76	56.446
769.94	53.609
770.11	56.805
770.29	56.373
770.47	56.754
770.65	54.203
770.82	59.485
771.00	55.881
771.18	58.434
771.36	54.972
771.53	59.336
771.71	53.662
771.89	62.644
772.07	57.026
772.25	58.583
772.42	56.128
772.60	54.887
772.78	55.989
772.96	57.895
773.13	56.016
773.31	56.305
773.49	56.354
773.67	63.192
773.84	57.424
774.02	59.008
774.20	57.245
774.37	56.913
774.55	55.794
774.73	62.528
774.91	55.635
775.08	58.341
775.26	60.902
775.44	56.364
775.62	56.920
775.79	59.135
775.97	57.832
776.15	57.437
776.32	54.691
776.50	62.718
776.68	62.646
776.86	58.293
777.03	58.283
777.21	60.081
777.39	57.178
777.56	58.611
777.74	55.441
777.92	57.018
778.10	56.090
778.27	58.677
778.45	53.280
778.63	55.938
778.80	54.589
778.98	54.638
779.16	57.702
779.34	61.730
779.51	55.714
779.69	57.580
779.87	54.123
780.04	58.862
780.22	54.631
780.40	59.500
780.57	54.115
780.75	56.498
780.93	62.806
781.10	57.958
781.28	62.487
781.46	55.830
781.63	52.055
781.81	65.008
781.99	54.779
782.16	59.594
782.34	53.127
782.52	57.469
782.69	54.440
782.87	58.035
783.05	53.511
783.22	54.715
783.40	52.670
783.58	57.243
783.75	52.207
783.93	63.789
784.11	54.490
784.28	54.928
784.46	51.335
784.64	59.370
784.81	47.123
784.99	59.156
785.17	54.472
785.34	58.530
785.52	50.872
785.69	57.947
785.87	52.013
786.05	56.339
786.22	55.752
786.40	58.314
786.58	56.504
786.75	57.998
786.93	57.697
787.11	59.111
787.28	54.514
787.46	57.057
787.63	52.097
787.81	57.672
787.99	54.426
788.16	51.803
788.34	47.194
788.51	54.322
788.69	50.596
788.87	52.911
789.04	46.673
789.22	58.050
789.39	52.821
789.57	53.116
789.75	50.100
789.92	52.890
790.10	50.153
790.27	55.561
790.45	49.267
790.63	53.473
790.80	49.922
790.98	53.120
791.15	53.214
791.33	56.587
791.51	46.882
791.68	52.701
791.86	54.504
792.03	49.888
792.21	51.726
792.39	55.405
792.56	49.651
792.74	56.338
792.91	53.488
793.09	53.161
793.26	48.600
793.44	54.355
793.62	49.719
793.79	54.772
793.97	54.472
794.14	53.360
794.32	54.712
794.49	64.422
794.67	48.496
794.84	50.059
795.02	53.142
795.20	53.988
795.37	53.878
795.55	51.231
795.72	52.069
795.90	52.369
796.07	52.537
796.25	48.758
796.42	49.106
796.60	51.176
796.77	49.574
796.95	52.740
797.13	46.084
797.30	56.028
797.48	50.000
797.65	56.758
797.83	51.218
798.00	53.333
798.18	46.102
798.35	53.491
798.53	50.604
798.70	57.628
798.88	45.517
799.05	50.168
799.23	49.611
799.40	56.178
799.58	49.531
799.75	47.134
799.93	44.617
800.10	53.815
800.28	53.851
800.45	52.475
800.63	43.648
800.80	54.093
800.98	48.322
801.15	52.703
801.33	48.032
801.50	54.704
801.68	54.392
801.85	52.552
802.03	47.301
802.20	52.975
802.38	52.060
802.55	56.599
802.73	51.809
802.90	52.049
803.08	52.909
803.25	48.889
803.43	49.409
803.60	47.446
803.78	51.641
803.95	56.134
804.13	51.655
804.30	51.987
804.48	43.117
804.65	57.105
804.83	49.546
805.00	49.454
805.17	48.396
805.35	47.865
805.52	48.226
805.70	51.147
805.87	52.273
806.05	55.168
806.22	52.315
806.40	52.354
806.57	51.645
806.75	56.233
806.92	54.957
807.09	54.326
807.27	55.452
807.44	53.477
807.62	41.297
807.79	47.296
807.97	44.385
808.14	54.913
808.31	44.341
808.49	50.532
808.66	53.209
808.84	49.740
809.01	46.170
809.19	49.964
809.36	50.906
809.53	51.433
809.71	52.820
809.88	54.865
810.06	54.097
810.23	53.590
810.41	56.042
810.58	49.552
810.75	47.519
810.93	49.532
811.10	53.349
811.28	47.139
811.45	49.892
811.62	45.686
811.80	42.434
811.97	47.721
812.15	55.676
812.32	49.107
812.49	54.183
812.67	44.248
812.84	48.869
813.02	56.892
813.19	48.507
813.36	48.789
813.54	45.705
813.71	50.367
813.89	47.799
814.06	52.205
814.23	43.377
814.41	45.365
814.58	48.200
814.75	52.324
814.93	43.823
815.10	52.339
815.28	38.839
815.45	52.431
815.62	48.452
815.80	40.931
815.97	41.285
816.14	44.825
816.32	48.067
816.49	41.313
816.66	40.150
816.84	37.589
817.01	44.626
817.18	45.827
817.36	47.911
817.53	42.238
817.71	36.680
817.88	47.792
818.05	41.808
818.23	45.043
818.40	37.742
818.57	38.418
818.75	41.729
818.92	43.509
819.09	41.200
819.27	43.690
819.44	38.947
819.61	46.076
819.79	43.940
819.96	46.782
820.13	39.103
820.31	45.956
820.48	45.884
820.65	45.217
820.82	40.498
821.00	44.170
821.17	36.881
821.34	42.337
821.52	46.140
821.69	43.017
821.86	42.504
822.04	45.163
822.21	45.055
822.38	47.018
822.56	45.710
822.73	48.093
822.90	44.854
823.07	46.769
823.25	46.674
823.42	47.696
823.59	46.404
823.77	47.199
823.94	46.908
824.11	47.979
824.29	49.791
824.46	47.678
824.63	48.679
824.80	49.422
824.98	48.017
825.15	51.127
825.32	45.930
825.49	50.211
825.67	45.898
825.84	51.158
826.01	45.064
826.19	49.197
826.36	44.309
826.53	50.014
826.70	45.681
826.88	47.632
827.05	44.680
827.22	46.581
827.39	45.067
827.57	45.578
827.74	44.318
827.91	48.803
828.08	43.182
828.26	47.161
828.43	44.745
828.60	47.705
828.77	43.884
828.95	48.328
829.12	43.201
829.29	42.102
829.46	44.908
829.64	44.213
829.81	41.379
829.98	50.118
830.15	40.604
830.32	42.993
830.50	37.529
830.67	42.960
830.84	37.808
831.01	39.292
831.19	40.609
831.36	39.889
831.53	40.954
831.70	45.831
831.87	44.929
832.05	41.648
832.22	41.110
832.39	34.385
832.56	38.088
832.74	43.341
832.91	40.243
833.08	42.909
833.25	35.010
833.42	37.368
833.60	39.829
833.77	34.492
833.94	38.844
834.11	42.512
834.28	39.800
834.45	40.082
834.63	36.434
834.80	45.520
834.97	40.758
835.14	43.635
835.31	39.195
835.49	40.917
835.66	42.151
835.83	44.655
836.00	39.127
836.17	40.578
836.34	38.705
836.52	46.330
836.69	42.417
836.86	45.148
837.03	38.457
837.20	40.797
837.37	42.217
837.55	41.625
837.72	41.886
837.89	39.433
838.06	41.393
838.23	49.917
838.40	40.806
838.58	41.637
838.75	48.891
838.92	54.986
839.09	52.908
839.26	55.084
839.43	49.788
839.60	40.021
839.78	42.339
839.95	48.020
840.12	47.878
840.29	58.455
840.46	48.617
840.63	52.972
840.80	42.262
840.98	47.254
841.15	48.549
841.32	47.818
841.49	40.734
841.66	47.774
841.83	49.160
842.00	47.680
842.17	43.099
842.34	44.179
842.52	45.320
842.69	48.750
842.86	53.007
843.03	59.577
843.20	48.912
843.37	57.416
843.54	53.317
843.71	55.314
843.88	62.037
844.06	59.583
844.23	60.000
844.40	46.575
844.57	61.677
844.74	50.224
844.91	58.128
845.08	59.835
845.25	48.667
845.42	74.369
845.59	57.509
845.76	60.579
845.94	68.921
846.11	58.402
846.28	62.810
846.45	75.198
846.62	65.409
846.79	52.364
846.96	69.667
847.13	62.176
847.30	57.989
847.47	56.283
847.64	51.810
847.81	54.878
847.98	69.709
848.15	81.735
848.32	75.092
848.50	62.376
848.67	70.878
848.84	70.886
849.01	70.153
849.18	71.145
849.35	80.342
849.52	86.651
849.69	74.620
849.86	80.367
850.03	73.016
850.20	70.528
850.37	61.584
850.54	70.040
850.71	67.465
850.88	65.743
851.05	73.362
851.22	72.123
851.39	71.193
851.56	47.961
851.73	77.413
851.90	65.831
852.07	71.068
852.24	68.842
852.41	56.155
852.58	72.584
852.75	74.048
852.92	68.778
853.09	71.198
853.26	85.404
853.43	64.944
853.60	79.722
853.77	58.993
853.94	60.329
854.11	58.985
854.28	82.423
854.45	67.281
854.62	82.916
854.79	78.982
854.96	62.087
855.13	74.123
855.30	77.368
855.47	80.726
855.64	72.009
855.81	69.545
855.98	94.211
856.15	64.179
856.32	76.563
856.49	78.273
856.66	80.230
856.83	83.463
857.00	74.318
857.17	94.928
857.34	74.388
857.51	74.815
857.68	72.277
857.85	64.215
858.02	100.538
858.19	68.707
858.36	62.121
858.53	69.903
858.70	76.329
858.87	82.979
859.04	75.212
859.21	65.920
859.38	82.405
859.55	84.719
859.72	76.092
859.89	97.462
860.05	68.677
860.22	77.670
860.39	67.112
860.56	62.796
860.73	66.425
860.90	74.074
861.07	88.330
861.24	67.442
861.41	94.355
861.58	64.411
861.75	94.695
861.92	62.228
862.09	78.146
862.26	83.491
862.43	95.722
862.59	62.992
862.76	86.534
862.93	101.067
863.10	70.936
863.27	81.266
863.44	58.462
863.61	71.618
863.78	75.300
863.95	97.635
864.12	77.802
864.29	80.685
864.45	61.702
864.62	66.297
864.79	76.344
864.96	76.728
865.13	68.043
865.30	56.495
865.47	73.593
865.64	80.851
865.81	72.626
865.97	67.045
866.14	69.945
866.31	73.699
866.48	77.011
866.65	63.504
866.82	81.572
866.99	75.845
867.16	53.810
867.33	86.849
867.49	70.071
867.66	72.690
867.83	64.165
868.00	80.161
868.17	63.797
868.34	85.904
868.51	59.259
868.67	80.203
868.84	72.874
869.01	79.565
869.18	61.190
869.35	66.667
869.52	63.573
869.69	89.939
869.85	97.640
870.02	66.753
870.19	73.415
870.36	81.754
870.53	49.390
870.70	71.322
870.86	63.896
871.03	58.561
871.20	77.353
871.37	79.361
871.54	67.368
871.71	74.572
871.87	75.358
872.04	80.932
872.21	72.708
872.38	83.777
872.55	83.981
872.72	63.208
872.88	80.531
873.05	70.694
873.22	68.916
873.39	64.990
873.56	78.856
873.72	81.096
873.89	64.987
874.06	67.801
874.23	100.570
874.40	60.914
874.56	80.687
874.73	72.483
874.90	61.557
875.07	79.221
875.24	68.493
875.40	76.407
875.57	69.928
875.74	69.425
875.91	63.816
876.08	63.029
876.24	72.967
876.41	57.298
876.58	76.000
876.75	70.360
876.92	74.278
877.08	70.556
877.25	64.747
877.42	61.853
877.59	62.528
877.75	54.545
877.92	61.325
878.09	80.941
878.26	69.036
878.42	65.155
878.59	79.012
878.76	67.073
878.93	89.619
879.09	49.887
879.26	77.735
879.43	63.387
879.60	55.025
879.76	58.482
879.93	57.047
880.10	56.069
880.27	49.801
880.43	44.227
880.60	52.504
880.77	54.025
880.94	61.583
881.10	45.528
881.27	38.353
881.44	33.454
881.61	34.584
881.77	42.183
881.94	34.749
882.11	30.827
882.28	29.728
882.44	34.329
882.61	36.258
882.78	37.389
882.94	42.160
883.11	39.772
883.28	39.794
883.45	38.514
883.61	39.203
883.78	36.854
883.95	39.537
884.11	42.674
884.28	38.109
>>>>>End Processed Spectral Data<<<<<
