SpectraSuite Data File
++++++++++++++++++++++++++++++++++++
Date: Thu Sep 26 03:34:59 EST 2019
User: sgrac
Dark Spectrum Present: Yes
Reference Spectrum Present: Yes
Number of Sampled Component Spectra: 1
Spectrometers: USB4E01596
Integration Time (usec): 100000 (USB4E01596)
Spectra Averaged: 3 (USB4E01596)
Boxcar Smoothing: 0 (USB4E01596)
Correct for Electrical Dark: No (USB4E01596)
Strobe/Lamp Enabled: Yes (USB4E01596)
Correct for Detector Non-linearity: No (USB4E01596)
Correct for Stray Light: No (USB4E01596)
Number of Pixels in Processed Spectrum: 3648
>>>>>Begin Processed Spectral Data<<<<<
178.44	-750.000
178.66	-750.000
178.87	-750.000
179.09	-308.163
179.30	-177.381
179.52	-1059.091
179.74	-441.667
179.95	-1476.923
180.17	286.747
180.38	1364.286
180.60	412.500
180.82	327.711
181.03	422.222
181.25	218.269
181.46	-664.516
181.68	340.000
181.89	1160.000
182.11	-1422.222
182.33	335.922
182.54	325.287
182.76	455.357
182.97	733.333
183.19	207.453
183.40	291.262
183.62	2562.500
183.84	265.217
184.05	2141.667
184.27	326.804
184.48	-580.556
184.70	1607.143
184.91	364.000
185.13	1806.667
185.34	664.865
185.56	1650.000
185.78	288.660
185.99	415.584
186.21	657.143
186.42	1300.000
186.64	1157.143
186.85	234.694
187.07	325.714
187.28	324.561
187.50	1326.087
187.72	1316.667
187.93	587.234
188.15	479.245
188.36	950.000
188.58	6500.000
188.79	575.000
189.01	4725.000
189.22	349.107
189.44	791.667
189.65	2711.111
189.87	637.838
190.09	787.097
190.30	441.270
190.52	-15600.000
190.73	-13000.000
190.95	979.167
191.16	286.239
191.38	218.478
191.59	888.235
191.81	336.207
192.02	960.000
192.24	338.356
192.45	254.737
192.67	582.979
192.88	435.897
193.10	268.605
193.31	251.685
193.53	1158.824
193.74	275.610
193.96	343.750
194.18	742.105
194.39	203.478
194.61	2300.000
194.82	341.892
195.04	226.667
195.25	254.687
195.47	625.000
195.68	235.443
195.90	585.000
196.11	221.000
196.33	980.769
196.54	392.063
196.76	750.000
196.97	1163.636
197.19	733.333
197.40	-486.667
197.62	320.000
197.83	209.244
198.05	484.906
198.26	426.761
198.48	2200.000
198.69	0.000
198.91	2388.889
199.12	468.519
199.34	356.522
199.55	226.126
199.77	296.552
199.98	6733.333
200.20	307.576
200.41	215.888
200.63	990.476
200.84	491.304
201.06	210.345
201.27	1095.238
201.49	1135.000
201.70	-1407.143
201.91	321.277
202.13	641.026
202.34	-418.750
202.56	509.091
202.77	1660.000
202.99	573.529
203.20	314.754
203.42	396.364
203.63	276.923
203.85	175.912
204.06	360.526
204.28	253.571
204.49	664.706
204.71	263.380
204.92	-10700.000
205.14	807.143
205.35	336.232
205.56	870.833
205.78	303.390
205.99	479.245
206.21	287.963
206.42	286.364
206.64	878.125
206.85	213.095
207.07	210.400
207.28	242.735
207.50	418.182
207.71	804.762
207.93	-708.333
208.14	-1945.455
208.35	828.000
208.57	217.778
208.78	472.000
209.00	544.737
209.21	6650.000
209.43	267.308
209.64	640.625
209.86	3640.000
210.07	502.439
210.28	-450.000
210.50	7400.000
210.71	646.667
210.93	234.483
211.14	511.538
211.36	1015.789
211.57	539.286
211.78	1214.286
212.00	1058.333
212.21	300.000
212.43	611.905
212.64	297.087
212.86	379.487
213.07	242.105
213.29	1493.333
213.50	329.114
213.71	173.387
213.93	670.455
214.14	233.654
214.36	150.588
214.57	372.340
214.78	276.829
215.00	295.294
215.21	206.173
215.43	848.148
215.64	300.000
215.86	161.871
216.07	1104.000
216.28	322.785
216.50	251.887
216.71	202.439
216.93	602.381
217.14	2136.364
217.35	568.571
217.57	238.710
217.78	261.947
218.00	314.894
218.21	186.184
218.42	565.116
218.64	184.158
218.85	230.357
219.07	238.000
219.28	614.286
219.49	526.316
219.71	434.000
219.92	-1280.000
220.14	414.062
220.35	900.000
220.56	-8150.000
220.78	207.143
220.99	432.500
221.21	248.193
221.42	317.949
221.63	395.745
221.85	0.000
222.06	223.585
222.28	597.143
222.49	354.545
222.70	1578.571
222.92	312.821
223.13	159.028
223.34	201.087
223.56	173.913
223.77	186.624
223.99	165.217
224.20	160.256
224.41	425.532
224.63	135.374
224.84	211.712
225.05	174.046
225.27	149.133
225.48	234.211
225.69	186.264
225.91	173.043
226.12	130.519
226.34	122.941
226.55	162.500
226.76	132.367
226.98	89.831
227.19	118.436
227.40	151.111
227.62	108.955
227.83	118.876
228.04	76.429
228.26	74.936
228.47	61.765
228.69	59.485
228.90	44.989
229.11	41.082
229.33	60.593
229.54	43.459
229.75	41.154
229.97	38.049
230.18	32.514
230.39	38.479
230.61	36.440
230.82	47.436
231.03	29.829
231.25	44.168
231.46	36.737
231.67	49.873
231.89	43.945
232.10	41.119
232.31	42.778
232.53	40.916
232.74	47.029
232.95	44.088
233.17	49.170
233.38	42.294
233.59	59.680
233.81	54.515
234.02	50.713
234.23	39.679
234.45	50.553
234.66	32.605
234.87	55.117
235.09	44.677
235.30	46.957
235.51	58.135
235.73	41.764
235.94	39.108
236.15	51.384
236.36	51.777
236.58	46.828
236.79	47.095
237.00	39.864
237.22	38.322
237.43	55.237
237.64	39.662
237.86	40.833
238.07	48.297
238.28	41.034
238.50	46.351
238.71	33.494
238.92	51.074
239.13	42.169
239.35	47.731
239.56	36.851
239.77	29.972
239.99	40.335
240.20	44.823
240.41	35.957
240.63	33.784
240.84	32.907
241.05	24.710
241.26	30.291
241.48	33.774
241.69	22.065
241.90	27.414
242.12	27.057
242.33	32.191
242.54	20.847
242.75	20.666
242.97	30.005
243.18	19.840
243.39	17.625
243.61	26.627
243.82	26.466
244.03	24.796
244.24	24.843
244.46	24.340
244.67	31.091
244.88	26.360
245.09	21.730
245.31	20.542
245.52	21.762
245.73	23.635
245.95	39.488
246.16	25.711
246.37	22.529
246.58	22.579
246.80	22.871
247.01	27.372
247.22	19.466
247.43	24.354
247.65	25.715
247.86	23.675
248.07	20.443
248.28	25.117
248.50	27.315
248.71	23.185
248.92	26.434
249.13	23.322
249.35	24.994
249.56	23.253
249.77	23.867
249.98	19.765
250.20	25.816
250.41	27.148
250.62	25.957
250.83	20.389
251.05	27.354
251.26	18.410
251.47	21.385
251.68	26.129
251.90	18.026
252.11	25.626
252.32	20.215
252.53	26.217
252.75	18.691
252.96	23.027
253.17	22.041
253.38	21.922
253.59	19.716
253.81	20.317
254.02	18.127
254.23	20.639
254.44	19.252
254.66	21.545
254.87	19.194
255.08	21.379
255.29	24.800
255.50	21.346
255.72	24.550
255.93	24.125
256.14	30.690
256.35	24.962
256.57	25.258
256.78	20.463
256.99	21.951
257.20	26.178
257.41	24.883
257.63	19.916
257.84	22.736
258.05	26.980
258.26	16.733
258.47	21.249
258.69	21.366
258.90	15.081
259.11	20.887
259.32	16.402
259.53	17.040
259.75	15.499
259.96	13.691
260.17	14.648
260.38	19.165
260.59	18.392
260.81	22.157
261.02	20.305
261.23	22.401
261.44	22.039
261.65	21.529
261.87	20.285
262.08	24.058
262.29	23.730
262.50	19.658
262.71	18.166
262.92	22.777
263.14	18.335
263.35	16.958
263.56	17.505
263.77	19.714
263.98	15.779
264.20	23.453
264.41	13.575
264.62	16.370
264.83	14.629
265.04	25.416
265.25	18.927
265.47	20.626
265.68	23.056
265.89	19.102
266.10	14.299
266.31	26.148
266.52	14.801
266.74	18.112
266.95	11.798
267.16	19.427
267.37	20.961
267.58	17.858
267.79	15.202
268.01	18.473
268.22	18.468
268.43	19.036
268.64	22.771
268.85	15.967
269.06	15.313
269.27	19.602
269.49	15.402
269.70	16.819
269.91	16.551
270.12	17.213
270.33	18.665
270.54	16.481
270.75	13.740
270.97	18.552
271.18	13.699
271.39	16.520
271.60	20.637
271.81	17.041
272.02	14.739
272.23	18.204
272.45	14.569
272.66	15.385
272.87	16.658
273.08	15.329
273.29	17.670
273.50	18.833
273.71	15.658
273.92	16.892
274.14	16.710
274.35	16.923
274.56	17.989
274.77	21.236
274.98	19.955
275.19	18.428
275.40	14.628
275.61	13.772
275.83	16.638
276.04	19.213
276.25	17.055
276.46	19.172
276.67	20.758
276.88	20.265
277.09	17.720
277.30	20.453
277.51	15.441
277.73	17.459
277.94	13.533
278.15	16.925
278.36	21.117
278.57	16.094
278.78	16.194
278.99	19.217
279.20	19.604
279.41	19.184
279.62	16.316
279.84	14.972
280.05	15.481
280.26	13.610
280.47	19.057
280.68	14.952
280.89	14.518
281.10	16.524
281.31	13.218
281.52	18.889
281.73	13.015
281.94	15.305
282.16	15.661
282.37	15.894
282.58	13.871
282.79	20.798
283.00	19.658
283.21	13.999
283.42	15.103
283.63	14.673
283.84	14.866
284.05	16.791
284.26	15.536
284.47	18.828
284.68	15.882
284.89	16.591
285.11	14.868
285.32	17.467
285.53	16.952
285.74	17.502
285.95	16.725
286.16	16.149
286.37	16.183
286.58	17.137
286.79	14.401
287.00	16.535
287.21	14.073
287.42	17.450
287.63	16.953
287.84	15.797
288.05	17.053
288.26	16.590
288.48	16.259
288.69	13.647
288.90	14.006
289.11	19.941
289.32	16.312
289.53	14.528
289.74	10.388
289.95	14.229
290.16	15.161
290.37	15.420
290.58	12.725
290.79	12.470
291.00	13.849
291.21	14.049
291.42	12.796
291.63	13.540
291.84	16.726
292.05	12.571
292.26	13.132
292.47	14.208
292.68	13.408
292.89	14.706
293.10	16.339
293.31	16.284
293.52	10.367
293.73	13.047
293.94	13.072
294.15	12.962
294.36	13.155
294.57	15.332
294.79	10.989
295.00	9.211
295.21	15.067
295.42	12.705
295.63	13.786
295.84	14.091
296.05	10.270
296.26	12.505
296.47	12.460
296.68	11.748
296.89	13.537
297.10	15.747
297.31	14.196
297.52	12.772
297.73	14.382
297.94	13.406
298.15	14.248
298.36	14.026
298.57	13.530
298.78	15.472
298.99	12.921
299.20	14.700
299.41	13.870
299.62	13.789
299.83	10.845
300.04	14.756
300.25	14.523
300.46	14.114
300.67	14.508
300.88	14.127
301.09	8.008
301.30	14.399
301.50	12.734
301.71	16.936
301.92	14.607
302.13	11.075
302.34	11.340
302.55	12.292
302.76	13.030
302.97	13.798
303.18	11.729
303.39	11.122
303.60	11.539
303.81	13.258
304.02	9.414
304.23	12.309
304.44	9.782
304.65	13.333
304.86	13.269
305.07	11.300
305.28	11.380
305.49	14.771
305.70	13.422
305.91	11.823
306.12	11.072
306.33	12.931
306.54	11.980
306.75	11.768
306.96	16.082
307.17	11.929
307.38	10.057
307.58	12.239
307.79	14.416
308.00	12.200
308.21	12.161
308.42	13.656
308.63	10.020
308.84	12.309
309.05	10.172
309.26	10.873
309.47	12.040
309.68	11.747
309.89	13.800
310.10	12.407
310.31	10.490
310.52	13.371
310.73	14.496
310.94	10.710
311.14	12.221
311.35	11.661
311.56	12.934
311.77	12.094
311.98	11.563
312.19	11.129
312.40	10.862
312.61	11.604
312.82	13.663
313.03	13.203
313.24	12.504
313.45	14.717
313.66	10.860
313.86	13.565
314.07	10.534
314.28	14.576
314.49	9.505
314.70	12.518
314.91	15.140
315.12	12.962
315.33	14.292
315.54	10.463
315.75	10.571
315.96	8.807
316.16	8.440
316.37	13.226
316.58	10.392
316.79	13.275
317.00	12.726
317.21	11.969
317.42	12.131
317.63	13.303
317.84	11.277
318.05	11.316
318.25	10.074
318.46	12.511
318.67	10.833
318.88	14.129
319.09	13.624
319.30	10.870
319.51	11.341
319.72	14.501
319.93	10.953
320.13	9.438
320.34	12.258
320.55	11.860
320.76	12.034
320.97	10.607
321.18	13.786
321.39	11.198
321.60	9.328
321.80	12.620
322.01	12.728
322.22	11.576
322.43	10.391
322.64	8.756
322.85	11.455
323.06	14.051
323.27	12.805
323.47	13.464
323.68	11.772
323.89	11.252
324.10	12.518
324.31	10.260
324.52	13.277
324.73	11.714
324.93	9.537
325.14	11.040
325.35	11.520
325.56	12.377
325.77	12.168
325.98	11.449
326.19	11.638
326.39	9.324
326.60	11.331
326.81	11.486
327.02	8.524
327.23	9.311
327.44	14.468
327.64	9.278
327.85	9.555
328.06	12.791
328.27	17.150
328.48	13.252
328.69	9.947
328.90	11.190
329.10	9.157
329.31	11.639
329.52	12.457
329.73	12.759
329.94	9.510
330.15	13.348
330.35	13.291
330.56	11.852
330.77	10.141
330.98	10.170
331.19	11.095
331.39	10.214
331.60	10.405
331.81	10.046
332.02	11.760
332.23	10.462
332.44	9.233
332.64	12.901
332.85	12.008
333.06	12.438
333.27	9.439
333.48	11.921
333.68	10.977
333.89	11.544
334.10	10.015
334.31	12.486
334.52	12.334
334.72	10.880
334.93	9.540
335.14	9.331
335.35	10.121
335.56	15.369
335.76	8.516
335.97	14.227
336.18	9.395
336.39	14.479
336.60	11.604
336.80	10.417
337.01	9.792
337.22	12.564
337.43	11.866
337.64	15.349
337.84	12.658
338.05	11.804
338.26	13.600
338.47	12.887
338.68	8.733
338.88	13.736
339.09	10.953
339.30	12.322
339.51	11.808
339.71	13.043
339.92	9.798
340.13	12.697
340.34	11.915
340.55	11.788
340.75	13.359
340.96	12.390
341.17	13.317
341.38	10.350
341.58	11.229
341.79	12.032
342.00	11.557
342.21	12.050
342.41	9.356
342.62	12.242
342.83	12.959
343.04	9.558
343.24	13.560
343.45	14.061
343.66	10.377
343.87	12.269
344.07	11.203
344.28	14.016
344.49	13.669
344.70	15.254
344.90	11.237
345.11	12.364
345.32	11.620
345.53	13.606
345.73	13.445
345.94	14.555
346.15	14.449
346.36	13.557
346.56	14.307
346.77	14.648
346.98	12.749
347.19	15.679
347.39	13.464
347.60	13.071
347.81	12.933
348.02	14.851
348.22	10.236
348.43	11.740
348.64	10.672
348.84	13.660
349.05	12.699
349.26	16.401
349.47	10.746
349.67	12.448
349.88	13.649
350.09	13.960
350.30	15.176
350.50	15.330
350.71	14.386
350.92	14.186
351.12	13.610
351.33	14.470
351.54	12.079
351.74	15.621
351.95	13.193
352.16	14.858
352.37	15.260
352.57	13.369
352.78	12.899
352.99	15.182
353.19	12.264
353.40	12.734
353.61	16.867
353.82	15.444
354.02	14.562
354.23	14.261
354.44	14.451
354.64	13.927
354.85	14.414
355.06	15.372
355.26	12.601
355.47	15.078
355.68	17.276
355.88	15.633
356.09	15.974
356.30	14.033
356.51	16.168
356.71	14.771
356.92	12.317
357.13	16.180
357.33	16.331
357.54	15.169
357.75	11.439
357.95	15.488
358.16	13.954
358.37	17.835
358.57	13.816
358.78	17.426
358.99	14.723
359.19	15.841
359.40	16.400
359.61	15.387
359.81	17.126
360.02	18.099
360.23	13.473
360.43	15.606
360.64	15.673
360.85	15.908
361.05	14.658
361.26	17.098
361.47	14.975
361.67	17.830
361.88	12.713
362.09	16.698
362.29	14.283
362.50	14.921
362.70	13.788
362.91	17.370
363.12	14.809
363.32	17.412
363.53	16.756
363.74	18.219
363.94	14.944
364.15	17.809
364.36	17.231
364.56	15.034
364.77	15.536
364.98	18.303
365.18	16.676
365.39	17.281
365.59	14.807
365.80	16.364
366.01	15.979
366.21	15.234
366.42	14.244
366.63	16.867
366.83	15.019
367.04	13.681
367.24	18.094
367.45	14.996
367.66	13.458
367.86	16.769
368.07	14.642
368.28	16.071
368.48	14.073
368.69	13.387
368.89	15.307
369.10	16.735
369.31	15.734
369.51	16.703
369.72	17.123
369.92	17.898
370.13	14.545
370.34	16.417
370.54	11.568
370.75	15.984
370.95	13.402
371.16	16.442
371.37	14.033
371.57	16.015
371.78	15.559
371.98	16.796
372.19	16.062
372.40	17.164
372.60	16.491
372.81	15.253
373.01	12.996
373.22	14.686
373.43	17.521
373.63	17.057
373.84	16.745
374.04	16.751
374.25	14.767
374.46	17.205
374.66	16.097
374.87	17.854
375.07	13.379
375.28	14.574
375.48	15.743
375.69	18.028
375.90	13.813
376.10	14.669
376.31	15.046
376.51	15.270
376.72	14.918
376.92	16.239
377.13	16.190
377.34	17.734
377.54	16.717
377.75	17.718
377.95	16.514
378.16	18.360
378.36	17.358
378.57	18.760
378.77	16.477
378.98	17.941
379.19	16.207
379.39	17.237
379.60	17.323
379.80	17.693
380.01	18.589
380.21	17.256
380.42	18.993
380.62	17.798
380.83	18.834
381.04	17.411
381.24	17.959
381.45	17.398
381.65	16.969
381.86	18.513
382.06	18.583
382.27	16.061
382.47	16.663
382.68	19.542
382.88	16.520
383.09	17.900
383.29	17.550
383.50	19.541
383.71	18.332
383.91	18.934
384.12	17.983
384.32	19.370
384.53	18.790
384.73	17.924
384.94	18.478
385.14	19.595
385.35	17.733
385.55	19.516
385.76	19.000
385.96	19.610
386.17	19.331
386.37	20.570
386.58	19.176
386.78	21.366
386.99	18.817
387.19	21.224
387.40	19.284
387.60	21.521
387.81	19.879
388.01	21.601
388.22	20.594
388.42	22.436
388.63	21.338
388.83	22.527
389.04	19.633
389.24	21.973
389.45	21.188
389.65	22.352
389.86	20.960
390.06	21.068
390.27	20.648
390.47	22.358
390.68	21.936
390.88	23.489
391.09	23.546
391.29	23.804
391.50	22.884
391.70	24.109
391.91	23.243
392.11	24.816
392.32	23.665
392.52	24.547
392.73	24.204
392.93	24.967
393.14	23.984
393.34	24.944
393.55	25.617
393.75	25.897
393.95	25.298
394.16	26.798
394.36	26.122
394.57	26.483
394.77	25.578
394.98	26.695
395.18	26.674
395.39	26.499
395.59	27.150
395.80	27.957
396.00	27.991
396.21	27.461
396.41	26.315
396.61	28.413
396.82	27.303
397.02	28.966
397.23	28.400
397.43	27.931
397.64	26.777
397.84	28.475
398.05	27.677
398.25	28.714
398.45	27.703
398.66	29.656
398.86	28.922
399.07	29.786
399.27	28.970
399.48	30.042
399.68	29.498
399.89	29.381
400.09	29.735
400.29	29.109
400.50	29.963
400.70	29.433
400.91	29.271
401.11	29.377
401.32	30.525
401.52	30.513
401.72	30.122
401.93	31.267
402.13	30.312
402.34	30.315
402.54	30.745
402.75	30.862
402.95	29.828
403.15	32.487
403.36	29.631
403.56	31.762
403.77	29.858
403.97	31.015
404.17	30.694
404.38	30.566
404.58	31.045
404.79	32.469
404.99	31.865
405.19	31.136
405.40	30.834
405.60	32.293
405.81	30.851
406.01	31.481
406.21	31.404
406.42	32.126
406.62	31.786
406.83	32.709
407.03	31.497
407.23	31.586
407.44	31.338
407.64	31.214
407.85	31.674
408.05	32.662
408.25	31.079
408.46	32.579
408.66	31.753
408.87	31.784
409.07	31.689
409.27	31.943
409.48	31.583
409.68	31.722
409.88	30.444
410.09	32.609
410.29	31.324
410.50	32.118
410.70	31.316
410.90	32.433
411.11	31.124
411.31	31.635
411.51	32.926
411.72	32.294
411.92	31.320
412.12	32.525
412.33	31.662
412.53	31.120
412.74	31.325
412.94	31.752
413.14	31.721
413.35	31.220
413.55	31.636
413.75	31.412
413.96	31.037
414.16	31.113
414.36	31.120
414.57	31.893
414.77	31.414
414.97	31.914
415.18	30.904
415.38	31.800
415.58	31.778
415.79	31.001
415.99	31.056
416.19	31.146
416.40	31.154
416.60	30.851
416.80	30.544
417.01	31.022
417.21	31.036
417.41	30.783
417.62	31.375
417.82	31.736
418.02	30.073
418.23	30.274
418.43	30.106
418.63	30.566
418.84	31.116
419.04	30.746
419.24	30.491
419.45	30.297
419.65	30.729
419.85	30.173
420.06	30.284
420.26	30.135
420.46	30.303
420.67	30.310
420.87	30.412
421.07	29.992
421.28	30.081
421.48	29.911
421.68	30.523
421.88	29.909
422.09	29.736
422.29	29.870
422.49	30.128
422.70	29.900
422.90	30.046
423.10	29.653
423.31	30.339
423.51	29.877
423.71	30.230
423.91	30.120
424.12	29.972
424.32	30.559
424.52	29.538
424.73	29.757
424.93	29.452
425.13	29.568
425.33	29.486
425.54	29.618
425.74	30.073
425.94	29.962
426.15	29.978
426.35	29.877
426.55	30.051
426.75	29.947
426.96	29.693
427.16	29.719
427.36	29.864
427.57	30.837
427.77	29.920
427.97	29.978
428.17	29.247
428.38	30.136
428.58	29.803
428.78	30.026
428.98	30.693
429.19	30.665
429.39	30.140
429.59	29.536
429.79	29.033
430.00	30.127
430.20	29.902
430.40	29.372
430.60	29.419
430.81	30.007
431.01	30.354
431.21	30.069
431.41	29.724
431.62	29.555
431.82	29.895
432.02	30.009
432.22	29.635
432.43	29.535
432.63	29.766
432.83	29.178
433.03	29.708
433.24	29.251
433.44	29.462
433.64	29.219
433.84	29.666
434.05	29.289
434.25	29.189
434.45	29.699
434.65	30.051
434.85	29.860
435.06	29.507
435.26	29.770
435.46	29.795
435.66	30.348
435.87	30.102
436.07	29.736
436.27	29.952
436.47	30.297
436.67	29.844
436.88	29.729
437.08	29.796
437.28	30.567
437.48	29.610
437.69	30.209
437.89	30.555
438.09	29.876
438.29	29.647
438.49	30.082
438.70	30.021
438.90	29.618
439.10	29.332
439.30	29.956
439.50	29.472
439.71	29.699
439.91	30.091
440.11	29.876
440.31	29.248
440.51	29.363
440.72	29.906
440.92	29.442
441.12	29.706
441.32	30.074
441.52	29.874
441.72	30.171
441.93	29.958
442.13	29.827
442.33	29.790
442.53	29.711
442.73	30.502
442.94	30.502
443.14	30.627
443.34	30.274
443.54	30.071
443.74	29.641
443.94	30.569
444.15	30.218
444.35	30.052
444.55	29.770
444.75	29.702
444.95	29.844
445.15	29.135
445.36	29.688
445.56	29.353
445.76	29.659
445.96	29.316
446.16	29.606
446.36	28.801
446.57	29.603
446.77	28.997
446.97	29.316
447.17	29.351
447.37	29.548
447.57	29.811
447.77	29.785
447.98	29.757
448.18	30.217
448.38	29.998
448.58	29.935
448.78	30.064
448.98	29.921
449.18	30.272
449.39	29.651
449.59	29.877
449.79	29.937
449.99	30.238
450.19	29.633
450.39	30.189
450.59	29.775
450.79	29.600
451.00	29.769
451.20	30.360
451.40	30.003
451.60	30.344
451.80	29.699
452.00	29.633
452.20	29.495
452.40	29.623
452.61	29.165
452.81	29.320
453.01	29.203
453.21	28.869
453.41	29.551
453.61	29.731
453.81	29.417
454.01	29.181
454.21	29.256
454.42	29.981
454.62	29.610
454.82	29.286
455.02	29.022
455.22	30.022
455.42	30.287
455.62	29.473
455.82	29.621
456.02	29.141
456.23	29.551
456.43	29.572
456.63	29.256
456.83	29.348
457.03	29.223
457.23	29.215
457.43	29.100
457.63	29.069
457.83	29.277
458.03	28.724
458.23	28.847
458.43	29.386
458.64	29.345
458.84	28.665
459.04	28.296
459.24	28.132
459.44	28.571
459.64	28.408
459.84	27.985
460.04	28.032
460.24	28.246
460.44	28.612
460.64	28.768
460.84	28.579
461.04	28.458
461.24	28.821
461.45	28.301
461.65	28.737
461.85	28.878
462.05	28.890
462.25	29.069
462.45	29.067
462.65	29.492
462.85	28.918
463.05	28.620
463.25	28.851
463.45	28.875
463.65	29.421
463.85	28.783
464.05	28.513
464.25	28.877
464.45	28.507
464.65	28.391
464.85	29.128
465.05	28.457
465.26	28.586
465.46	28.820
465.66	29.018
465.86	29.340
466.06	29.404
466.26	28.597
466.46	28.640
466.66	28.760
466.86	28.345
467.06	28.496
467.26	28.220
467.46	28.803
467.66	29.066
467.86	28.879
468.06	28.523
468.26	28.692
468.46	28.435
468.66	29.232
468.86	28.900
469.06	28.643
469.26	28.617
469.46	28.260
469.66	29.236
469.86	29.295
470.06	29.109
470.26	29.166
470.46	28.700
470.66	29.042
470.86	28.967
471.06	29.239
471.26	29.023
471.46	28.721
471.66	28.584
471.86	29.636
472.06	29.121
472.26	29.589
472.46	29.563
472.66	29.255
472.86	29.329
473.06	29.215
473.26	29.393
473.46	29.570
473.66	29.046
473.86	29.200
474.06	29.447
474.26	29.250
474.46	29.769
474.66	29.169
474.86	29.574
475.06	29.088
475.26	29.874
475.46	29.611
475.66	29.466
475.86	29.808
476.06	29.904
476.26	30.178
476.46	29.475
476.66	29.623
476.86	29.531
477.06	30.159
477.26	29.668
477.46	29.770
477.65	29.790
477.85	29.954
478.05	29.520
478.25	29.903
478.45	30.215
478.65	29.826
478.85	29.944
479.05	30.142
479.25	30.382
479.45	30.195
479.65	30.273
479.85	30.232
480.05	29.859
480.25	30.344
480.45	30.724
480.65	30.399
480.85	30.486
481.05	30.416
481.25	30.312
481.44	29.874
481.64	30.003
481.84	30.418
482.04	30.427
482.24	30.106
482.44	30.377
482.64	30.396
482.84	30.196
483.04	29.943
483.24	29.770
483.44	29.882
483.64	29.237
483.84	29.571
484.04	30.346
484.23	30.267
484.43	30.799
484.63	31.317
484.83	31.599
485.03	33.055
485.23	32.999
485.43	32.504
485.63	32.289
485.83	31.935
486.03	31.832
486.23	32.347
486.42	31.864
486.62	31.892
486.82	31.433
487.02	31.342
487.22	31.378
487.42	31.160
487.62	31.355
487.82	31.241
488.02	31.140
488.22	31.178
488.41	31.094
488.61	31.396
488.81	31.227
489.01	31.961
489.21	32.027
489.41	31.986
489.61	31.663
489.81	32.046
490.01	31.669
490.20	31.943
490.40	32.029
490.60	31.774
490.80	31.722
491.00	31.517
491.20	31.273
491.40	31.443
491.60	30.592
491.79	31.155
491.99	31.019
492.19	31.456
492.39	31.494
492.59	31.372
492.79	31.901
492.99	31.561
493.19	32.097
493.38	32.076
493.58	32.429
493.78	32.729
493.98	32.930
494.18	33.189
494.38	32.696
494.58	32.878
494.77	32.796
494.97	32.812
495.17	32.716
495.37	32.944
495.57	33.070
495.77	33.163
495.96	33.300
496.16	33.153
496.36	32.865
496.56	33.167
496.76	32.748
496.96	33.033
497.15	33.017
497.35	33.186
497.55	32.896
497.75	33.234
497.95	33.178
498.15	33.171
498.34	33.498
498.54	32.851
498.74	34.282
498.94	33.364
499.14	34.001
499.34	33.590
499.53	34.038
499.73	33.978
499.93	33.961
500.13	34.052
500.33	34.189
500.52	34.601
500.72	34.470
500.92	34.266
501.12	34.630
501.32	34.884
501.52	34.326
501.71	34.771
501.91	34.570
502.11	35.192
502.31	34.502
502.51	34.813
502.70	35.270
502.90	35.228
503.10	35.159
503.30	34.740
503.50	35.035
503.69	35.078
503.89	35.096
504.09	34.634
504.29	34.890
504.48	34.811
504.68	35.079
504.88	35.380
505.08	35.165
505.28	34.920
505.47	35.158
505.67	35.161
505.87	35.619
506.07	35.523
506.27	35.289
506.46	35.734
506.66	35.260
506.86	34.745
507.06	35.588
507.25	35.251
507.45	35.589
507.65	35.165
507.85	35.358
508.04	35.231
508.24	35.184
508.44	35.145
508.64	34.787
508.83	34.633
509.03	34.728
509.23	34.971
509.43	34.798
509.63	35.539
509.82	34.755
510.02	35.221
510.22	34.843
510.42	34.787
510.61	34.984
510.81	34.900
511.01	35.362
511.21	35.121
511.40	35.177
511.60	35.328
511.80	35.354
511.99	35.285
512.19	34.913
512.39	35.115
512.59	34.973
512.78	34.952
512.98	34.815
513.18	34.811
513.38	34.856
513.57	34.780
513.77	35.096
513.97	35.178
514.17	35.817
514.36	35.002
514.56	35.049
514.76	35.675
514.95	35.164
515.15	35.203
515.35	35.238
515.55	35.146
515.74	34.907
515.94	35.764
516.14	34.952
516.33	35.717
516.53	35.305
516.73	35.633
516.93	35.238
517.12	35.520
517.32	35.156
517.52	35.644
517.71	35.230
517.91	35.208
518.11	34.784
518.30	34.608
518.50	33.892
518.70	34.553
518.90	34.783
519.09	34.699
519.29	34.606
519.49	34.953
519.68	34.401
519.88	34.798
520.08	35.095
520.27	35.392
520.47	35.490
520.67	35.251
520.86	35.178
521.06	35.322
521.26	35.241
521.45	35.578
521.65	35.290
521.85	35.202
522.04	35.108
522.24	35.333
522.44	35.477
522.63	35.663
522.83	35.477
523.03	35.210
523.22	35.197
523.42	35.111
523.62	36.160
523.81	35.406
524.01	35.228
524.21	35.350
524.40	35.273
524.60	35.534
524.80	35.649
524.99	35.272
525.19	34.673
525.39	34.244
525.58	34.973
525.78	34.683
525.98	35.055
526.17	34.988
526.37	35.205
526.57	34.936
526.76	34.809
526.96	35.115
527.15	34.897
527.35	35.127
527.55	34.667
527.74	35.105
527.94	34.920
528.14	34.701
528.33	34.067
528.53	33.961
528.72	34.506
528.92	34.816
529.12	34.927
529.31	35.093
529.51	35.193
529.71	35.450
529.90	35.689
530.10	35.841
530.29	35.770
530.49	36.124
530.69	36.551
530.88	36.317
531.08	35.903
531.28	35.841
531.47	36.114
531.67	35.750
531.86	35.465
532.06	35.269
532.26	35.387
532.45	35.155
532.65	34.862
532.84	34.434
533.04	34.698
533.24	34.728
533.43	34.509
533.63	35.083
533.82	35.053
534.02	35.231
534.22	35.104
534.41	35.426
534.61	35.270
534.80	35.447
535.00	36.068
535.19	35.978
535.39	36.284
535.59	35.837
535.78	35.874
535.98	35.445
536.17	36.026
536.37	35.332
536.57	35.488
536.76	35.343
536.96	35.976
537.15	35.403
537.35	35.756
537.54	35.667
537.74	35.533
537.93	36.051
538.13	35.830
538.33	35.830
538.52	36.142
538.72	36.318
538.91	36.036
539.11	36.611
539.30	36.466
539.50	35.796
539.70	36.043
539.89	35.907
540.09	35.699
540.28	35.737
540.48	35.457
540.67	35.949
540.87	35.405
541.06	35.568
541.26	34.867
541.45	35.341
541.65	34.805
541.85	35.751
542.04	35.412
542.24	35.909
542.43	35.430
542.63	36.099
542.82	36.153
543.02	36.132
543.21	36.708
543.41	36.272
543.60	36.724
543.80	36.439
543.99	36.140
544.19	36.417
544.38	36.648
544.58	36.299
544.77	36.495
544.97	36.479
545.16	36.383
545.36	36.730
545.56	36.289
545.75	36.215
545.95	36.261
546.14	36.151
546.34	36.287
546.53	36.334
546.73	36.035
546.92	36.366
547.12	35.972
547.31	36.352
547.51	36.480
547.70	36.361
547.90	36.645
548.09	36.700
548.29	37.390
548.48	36.541
548.68	37.373
548.87	37.656
549.07	37.210
549.26	37.228
549.46	37.563
549.65	36.999
549.84	37.550
550.04	37.434
550.23	37.783
550.43	37.531
550.62	37.485
550.82	37.544
551.01	37.131
551.21	37.551
551.40	37.005
551.60	37.928
551.79	37.576
551.99	37.840
552.18	37.441
552.38	37.397
552.57	37.477
552.77	37.325
552.96	38.158
553.16	37.462
553.35	38.028
553.54	37.881
553.74	38.148
553.93	37.908
554.13	38.065
554.32	38.422
554.52	38.259
554.71	38.581
554.91	39.063
555.10	39.173
555.29	38.692
555.49	38.377
555.68	39.303
555.88	38.309
556.07	38.819
556.27	38.862
556.46	38.958
556.66	39.209
556.85	39.198
557.04	38.722
557.24	39.277
557.43	39.263
557.63	39.536
557.82	39.250
558.02	38.803
558.21	39.777
558.40	39.491
558.60	38.989
558.79	39.659
558.99	39.415
559.18	39.301
559.38	39.336
559.57	40.784
559.76	39.393
559.96	40.169
560.15	40.239
560.35	39.196
560.54	40.509
560.73	40.289
560.93	39.977
561.12	40.097
561.32	39.971
561.51	40.943
561.70	39.996
561.90	40.168
562.09	41.002
562.29	40.723
562.48	40.598
562.67	40.835
562.87	40.854
563.06	41.023
563.26	40.762
563.45	40.895
563.64	40.884
563.84	41.202
564.03	40.852
564.23	41.095
564.42	41.356
564.61	41.295
564.81	40.853
565.00	41.212
565.20	41.890
565.39	41.625
565.58	42.084
565.78	41.508
565.97	41.224
566.16	41.558
566.36	41.405
566.55	41.690
566.74	41.898
566.94	41.453
567.13	42.493
567.33	42.364
567.52	42.498
567.71	42.370
567.91	42.077
568.10	42.964
568.29	42.574
568.49	43.201
568.68	42.805
568.87	42.828
569.07	43.101
569.26	43.268
569.45	42.638
569.65	42.526
569.84	43.350
570.04	43.148
570.23	43.325
570.42	43.143
570.62	43.031
570.81	43.288
571.00	42.575
571.20	43.673
571.39	43.323
571.58	43.544
571.78	43.445
571.97	42.720
572.16	43.988
572.36	43.677
572.55	44.137
572.74	43.759
572.94	43.634
573.13	43.936
573.32	43.604
573.51	43.941
573.71	43.620
573.90	44.003
574.09	44.228
574.29	44.102
574.48	44.934
574.67	43.885
574.87	44.301
575.06	43.547
575.25	43.892
575.45	43.973
575.64	44.058
575.83	44.975
576.03	44.841
576.22	44.696
576.41	44.024
576.60	44.514
576.80	44.267
576.99	44.208
577.18	45.032
577.38	44.857
577.57	44.772
577.76	44.976
577.95	45.084
578.15	44.285
578.34	44.383
578.53	44.313
578.73	43.654
578.92	45.252
579.11	45.222
579.30	44.598
579.50	45.102
579.69	44.857
579.88	44.884
580.08	44.775
580.27	45.067
580.46	45.005
580.65	45.061
580.85	45.100
581.04	45.633
581.23	45.004
581.42	44.879
581.62	44.497
581.81	44.087
582.00	45.216
582.19	44.632
582.39	44.962
582.58	44.753
582.77	45.143
582.96	45.407
583.16	44.512
583.35	45.609
583.54	44.272
583.73	44.890
583.93	44.627
584.12	45.491
584.31	45.326
584.50	45.011
584.70	44.973
584.89	45.101
585.08	44.370
585.27	45.260
585.47	44.567
585.66	44.880
585.85	44.517
586.04	44.039
586.24	45.028
586.43	43.922
586.62	45.002
586.81	44.001
587.00	46.050
587.20	44.163
587.39	44.806
587.58	44.339
587.77	45.172
587.97	45.083
588.16	44.447
588.35	44.411
588.54	44.968
588.73	43.746
588.93	44.340
589.12	44.473
589.31	44.318
589.50	44.347
589.69	44.119
589.89	44.013
590.08	44.081
590.27	45.282
590.46	44.403
590.65	45.344
590.85	44.942
591.04	45.014
591.23	44.797
591.42	45.437
591.61	44.431
591.81	44.843
592.00	45.144
592.19	44.729
592.38	45.187
592.57	44.907
592.77	45.100
592.96	45.151
593.15	45.400
593.34	45.241
593.53	45.328
593.72	44.211
593.92	44.895
594.11	45.311
594.30	45.282
594.49	44.284
594.68	45.339
594.87	45.656
595.07	45.287
595.26	45.215
595.45	45.367
595.64	45.188
595.83	45.491
596.02	45.444
596.22	44.855
596.41	45.316
596.60	44.895
596.79	44.764
596.98	45.629
597.17	45.480
597.37	45.078
597.56	44.865
597.75	45.133
597.94	45.406
598.13	45.311
598.32	45.748
598.51	45.785
598.71	45.458
598.90	46.346
599.09	46.078
599.28	46.320
599.47	47.037
599.66	46.587
599.85	46.298
600.05	45.822
600.24	45.852
600.43	45.964
600.62	47.170
600.81	46.150
601.00	46.727
601.19	46.050
601.38	46.781
601.58	47.377
601.77	47.046
601.96	47.042
602.15	46.732
602.34	46.249
602.53	47.062
602.72	46.340
602.91	47.099
603.10	46.826
603.30	47.238
603.49	45.980
603.68	46.671
603.87	46.890
604.06	46.710
604.25	46.581
604.44	46.258
604.63	46.162
604.82	45.916
605.01	47.471
605.21	47.675
605.40	47.460
605.59	46.975
605.78	46.883
605.97	46.435
606.16	47.300
606.35	47.004
606.54	47.029
606.73	46.820
606.92	47.747
607.11	46.796
607.30	47.207
607.50	48.110
607.69	46.785
607.88	46.938
608.07	46.642
608.26	47.903
608.45	47.773
608.64	46.911
608.83	47.143
609.02	46.808
609.21	46.947
609.40	46.450
609.59	47.174
609.78	46.656
609.97	46.001
610.16	46.806
610.35	47.123
610.55	46.558
610.74	46.117
610.93	46.333
611.12	46.007
611.31	46.677
611.50	46.352
611.69	46.722
611.88	46.625
612.07	47.252
612.26	46.782
612.45	47.287
612.64	47.403
612.83	47.395
613.02	45.990
613.21	46.844
613.40	46.385
613.59	47.249
613.78	45.480
613.97	46.636
614.16	46.788
614.35	47.052
614.54	46.415
614.73	46.715
614.92	47.183
615.11	45.568
615.30	45.431
615.49	45.469
615.68	45.773
615.87	45.785
616.07	45.048
616.26	45.826
616.45	46.581
616.64	44.783
616.83	45.697
617.02	46.809
617.21	45.115
617.40	44.799
617.59	44.910
617.78	44.271
617.97	44.861
618.16	44.901
618.35	45.567
618.54	45.149
618.73	44.977
618.92	45.224
619.11	45.155
619.30	45.370
619.49	45.235
619.68	44.031
619.86	45.501
620.05	45.196
620.24	44.320
620.43	45.438
620.62	45.405
620.81	44.161
621.00	44.408
621.19	45.228
621.38	44.764
621.57	45.303
621.76	44.802
621.95	44.979
622.14	43.723
622.33	44.666
622.52	44.791
622.71	43.883
622.90	44.881
623.09	44.158
623.28	43.921
623.47	46.222
623.66	43.255
623.85	44.544
624.04	43.466
624.23	43.929
624.42	44.411
624.61	43.850
624.80	44.247
624.99	44.100
625.18	44.248
625.36	44.170
625.55	44.060
625.74	43.109
625.93	44.268
626.12	44.177
626.31	44.762
626.50	44.347
626.69	44.364
626.88	44.179
627.07	43.958
627.26	44.795
627.45	43.507
627.64	44.259
627.83	43.835
628.02	42.938
628.20	43.577
628.39	43.609
628.58	44.347
628.77	44.242
628.96	43.947
629.15	43.628
629.34	43.927
629.53	43.654
629.72	44.111
629.91	43.617
630.10	43.714
630.29	43.328
630.47	43.890
630.66	43.156
630.85	43.883
631.04	44.285
631.23	43.476
631.42	43.085
631.61	44.306
631.80	43.134
631.99	43.293
632.18	44.159
632.36	43.908
632.55	43.134
632.74	43.596
632.93	43.310
633.12	43.402
633.31	42.128
633.50	43.765
633.69	43.523
633.88	43.553
634.06	42.437
634.25	43.274
634.44	43.625
634.63	43.116
634.82	43.667
635.01	43.064
635.20	42.988
635.39	44.471
635.57	43.769
635.76	43.060
635.95	42.312
636.14	42.449
636.33	43.783
636.52	43.512
636.71	43.452
636.89	42.839
637.08	42.869
637.27	42.404
637.46	43.223
637.65	42.008
637.84	43.462
638.03	42.883
638.21	43.489
638.40	43.723
638.59	43.398
638.78	42.840
638.97	42.559
639.16	43.203
639.34	43.402
639.53	42.984
639.72	43.260
639.91	44.276
640.10	42.970
640.29	43.281
640.47	41.844
640.66	42.856
640.85	43.595
641.04	43.228
641.23	42.619
641.42	42.406
641.60	43.228
641.79	42.777
641.98	42.820
642.17	43.453
642.36	44.004
642.54	42.904
642.73	41.899
642.92	43.638
643.11	42.378
643.30	43.257
643.49	43.532
643.67	42.962
643.86	43.936
644.05	43.599
644.24	43.668
644.43	42.449
644.61	42.622
644.80	42.898
644.99	42.933
645.18	44.326
645.37	43.195
645.55	42.676
645.74	42.604
645.93	42.857
646.12	41.794
646.31	42.667
646.49	42.417
646.68	42.317
646.87	42.896
647.06	42.496
647.24	43.393
647.43	42.357
647.62	42.580
647.81	41.488
648.00	43.372
648.18	42.786
648.37	42.117
648.56	43.189
648.75	42.273
648.93	42.302
649.12	42.811
649.31	41.566
649.50	43.141
649.68	41.401
649.87	43.245
650.06	41.473
650.25	43.414
650.43	43.354
650.62	42.294
650.81	42.115
651.00	43.219
651.18	41.490
651.37	43.219
651.56	41.988
651.75	42.627
651.93	42.660
652.12	43.014
652.31	42.612
652.50	43.188
652.68	42.306
652.87	43.286
653.06	41.975
653.25	42.129
653.43	42.268
653.62	41.468
653.81	43.038
654.00	42.616
654.18	43.008
654.37	41.924
654.56	42.734
654.74	43.039
654.93	41.285
655.12	41.841
655.31	42.043
655.49	43.635
655.68	41.767
655.87	41.495
656.05	40.363
656.24	42.294
656.43	41.438
656.62	41.652
656.80	41.685
656.99	41.866
657.18	40.337
657.36	40.423
657.55	40.437
657.74	41.340
657.93	40.390
658.11	40.448
658.30	40.264
658.49	40.403
658.67	39.970
658.86	39.934
659.05	39.569
659.23	39.242
659.42	38.675
659.61	39.259
659.79	38.914
659.98	39.310
660.17	40.083
660.35	39.395
660.54	38.898
660.73	39.581
660.91	38.364
661.10	38.963
661.29	38.357
661.47	39.092
661.66	38.166
661.85	38.763
662.03	38.539
662.22	39.159
662.41	36.396
662.59	37.280
662.78	37.347
662.97	37.768
663.15	39.057
663.34	36.550
663.53	36.254
663.71	37.241
663.90	37.257
664.09	37.679
664.27	35.390
664.46	36.919
664.65	35.140
664.83	36.899
665.02	36.454
665.21	35.256
665.39	34.442
665.58	36.631
665.77	34.541
665.95	35.736
666.14	34.529
666.32	36.220
666.51	35.491
666.70	36.076
666.88	35.889
667.07	34.619
667.26	33.683
667.44	35.223
667.63	34.881
667.81	36.555
668.00	33.735
668.19	35.332
668.37	34.161
668.56	35.352
668.75	34.406
668.93	35.400
669.12	32.870
669.30	35.170
669.49	35.010
669.68	35.410
669.86	34.985
670.05	34.842
670.23	33.938
670.42	35.635
670.61	34.664
670.79	35.237
670.98	33.996
671.16	35.129
671.35	33.959
671.54	33.983
671.72	34.231
671.91	34.733
672.09	33.179
672.28	34.762
672.46	35.837
672.65	34.939
672.84	34.477
673.02	36.200
673.21	34.106
673.39	34.672
673.58	33.802
673.77	35.707
673.95	35.350
674.14	36.774
674.32	33.956
674.51	36.243
674.69	35.874
674.88	35.502
675.07	33.546
675.25	37.256
675.44	36.073
675.62	36.220
675.81	34.684
675.99	37.246
676.18	35.873
676.36	36.104
676.55	35.511
676.74	36.484
676.92	35.315
677.11	36.364
677.29	36.214
677.48	37.442
677.66	37.391
677.85	37.675
678.03	35.615
678.22	38.225
678.40	36.783
678.59	35.902
678.78	34.969
678.96	37.569
679.15	36.302
679.33	38.677
679.52	37.587
679.70	37.597
679.89	37.501
680.07	38.121
680.26	36.986
680.44	37.681
680.63	36.266
680.81	38.255
681.00	35.765
681.18	37.687
681.37	37.272
681.55	37.701
681.74	37.832
681.92	39.124
682.11	39.091
682.29	38.700
682.48	39.240
682.66	40.247
682.85	39.481
683.03	39.737
683.22	40.199
683.40	40.277
683.59	39.920
683.77	41.887
683.96	39.150
684.14	41.614
684.33	40.515
684.51	43.160
684.70	41.389
684.88	42.616
685.07	42.056
685.25	43.891
685.44	43.490
685.62	42.784
685.81	41.846
685.99	42.665
686.18	42.568
686.36	45.515
686.55	43.061
686.73	45.479
686.92	45.556
687.10	44.304
687.29	46.038
687.47	46.808
687.65	45.060
687.84	46.157
688.02	45.555
688.21	46.456
688.39	46.097
688.58	47.356
688.76	45.261
688.95	47.711
689.13	45.891
689.32	47.478
689.50	48.555
689.68	49.852
689.87	50.331
690.05	50.223
690.24	50.304
690.42	49.378
690.61	50.420
690.79	51.058
690.98	52.147
691.16	53.601
691.34	50.929
691.53	53.512
691.71	53.540
691.90	53.072
692.08	52.384
692.27	54.138
692.45	55.496
692.63	56.010
692.82	54.454
693.00	56.453
693.19	55.962
693.37	55.633
693.56	55.592
693.74	57.900
693.92	55.739
694.11	60.279
694.29	58.011
694.48	58.198
694.66	58.855
694.84	59.041
695.03	59.231
695.21	61.004
695.40	61.410
695.58	62.081
695.76	61.957
695.95	60.843
696.13	61.942
696.32	62.306
696.50	63.272
696.68	64.404
696.87	62.031
697.05	63.147
697.24	64.124
697.42	62.757
697.60	62.021
697.79	64.321
697.97	64.153
698.16	62.628
698.34	62.487
698.52	64.333
698.71	64.326
698.89	64.820
699.07	63.815
699.26	65.358
699.44	65.524
699.63	63.953
699.81	64.561
699.99	65.568
700.18	63.965
700.36	64.531
700.54	65.953
700.73	65.301
700.91	65.650
701.09	67.515
701.28	67.197
701.46	67.288
701.64	67.805
701.83	68.850
702.01	69.017
702.20	70.405
702.38	70.304
702.56	69.237
702.75	69.893
702.93	69.187
703.11	71.236
703.30	72.630
703.48	72.435
703.66	70.215
703.85	70.736
704.03	72.042
704.21	69.580
704.40	72.091
704.58	69.857
704.76	73.936
704.95	72.378
705.13	72.085
705.31	74.066
705.50	74.657
705.68	71.899
705.86	73.623
706.04	73.852
706.23	73.940
706.41	72.965
706.59	73.098
706.78	73.271
706.96	72.859
707.14	74.190
707.33	73.954
707.51	73.772
707.69	74.089
707.88	73.501
708.06	75.183
708.24	73.658
708.42	75.250
708.61	74.858
708.79	74.701
708.97	76.357
709.16	76.755
709.34	76.505
709.52	72.804
709.71	74.640
709.89	74.055
710.07	73.458
710.25	75.397
710.44	73.413
710.62	74.821
710.80	74.227
710.98	74.246
711.17	73.433
711.35	75.448
711.53	75.247
711.72	75.474
711.90	74.541
712.08	74.027
712.26	75.116
712.45	74.010
712.63	76.759
712.81	75.233
712.99	76.873
713.18	74.092
713.36	74.280
713.54	74.857
713.72	73.154
713.91	74.963
714.09	74.951
714.27	76.103
714.45	76.350
714.64	76.300
714.82	76.656
715.00	76.014
715.18	73.364
715.37	75.779
715.55	74.121
715.73	76.453
715.91	76.212
716.10	76.242
716.28	73.522
716.46	74.000
716.64	74.331
716.83	75.059
717.01	75.144
717.19	77.600
717.37	74.968
717.55	74.453
717.74	74.649
717.92	74.410
718.10	73.258
718.28	76.021
718.47	75.434
718.65	74.153
718.83	75.819
719.01	74.532
719.19	78.324
719.38	77.752
719.56	76.788
719.74	76.114
719.92	73.731
720.10	79.170
720.29	74.446
720.47	77.794
720.65	75.198
720.83	75.879
721.01	74.742
721.20	79.002
721.38	75.755
721.56	78.004
721.74	74.833
721.92	78.733
722.11	77.979
722.29	78.789
722.47	80.335
722.65	78.401
722.83	77.874
723.01	78.265
723.20	79.422
723.38	77.009
723.56	77.424
723.74	75.736
723.92	79.046
724.10	79.646
724.29	78.780
724.47	79.809
724.65	77.073
724.83	76.576
725.01	78.053
725.19	80.471
725.38	73.867
725.56	77.037
725.74	77.587
725.92	77.162
726.10	78.034
726.28	78.428
726.46	76.658
726.65	81.409
726.83	76.158
727.01	80.808
727.19	76.994
727.37	78.659
727.55	79.200
727.73	77.091
727.92	78.977
728.10	78.597
728.28	76.672
728.46	80.593
728.64	78.047
728.82	77.456
729.00	76.181
729.19	78.318
729.37	77.551
729.55	80.033
729.73	76.741
729.91	78.789
730.09	77.869
730.27	79.112
730.45	78.796
730.63	76.297
730.82	78.955
731.00	77.709
731.18	76.149
731.36	79.852
731.54	76.534
731.72	77.655
731.90	77.665
732.08	78.742
732.26	77.992
732.45	78.983
732.63	80.839
732.81	81.631
732.99	78.790
733.17	78.462
733.35	77.069
733.53	78.959
733.71	73.968
733.89	83.000
734.07	76.410
734.25	79.971
734.44	78.046
734.62	79.418
734.80	77.156
734.98	80.446
735.16	81.906
735.34	80.096
735.52	79.672
735.70	81.011
735.88	78.940
736.06	82.524
736.24	82.576
736.42	81.445
736.60	83.409
736.78	84.703
736.97	81.216
737.15	83.988
737.33	81.686
737.51	79.811
737.69	81.598
737.87	82.058
738.05	83.119
738.23	83.432
738.41	83.100
738.59	82.768
738.77	80.076
738.95	81.315
739.13	82.867
739.31	81.812
739.49	81.248
739.67	85.178
739.85	81.219
740.03	79.966
740.21	81.964
740.39	86.342
740.57	80.466
740.75	84.676
740.93	82.429
741.11	80.699
741.30	78.741
741.48	83.097
741.66	83.622
741.84	83.885
742.02	79.979
742.20	86.449
742.38	82.685
742.56	83.091
742.74	83.121
742.92	85.545
743.10	83.464
743.28	82.038
743.46	84.615
743.64	81.881
743.82	84.395
744.00	82.544
744.18	81.790
744.36	85.667
744.54	84.110
744.72	84.864
744.90	84.247
745.08	85.440
745.26	83.561
745.44	87.316
745.62	87.765
745.80	87.074
745.98	86.321
746.16	89.869
746.34	81.709
746.52	83.729
746.70	87.013
746.87	89.244
747.05	82.704
747.23	87.891
747.41	83.208
747.59	84.487
747.77	84.521
747.95	87.760
748.13	87.163
748.31	84.407
748.49	80.714
748.67	83.574
748.85	87.059
749.03	86.865
749.21	84.212
749.39	91.981
749.57	83.029
749.75	85.091
749.93	84.215
750.11	88.575
750.29	85.035
750.47	83.627
750.65	84.273
750.83	85.437
751.01	83.396
751.18	84.288
751.36	82.530
751.54	87.385
751.72	81.813
751.90	86.109
752.08	80.367
752.26	82.538
752.44	83.470
752.62	83.211
752.80	83.137
752.98	86.490
753.16	83.323
753.34	85.216
753.52	86.407
753.69	84.693
753.87	81.979
754.05	88.701
754.23	84.764
754.41	82.488
754.59	85.643
754.77	87.603
754.95	84.447
755.13	84.812
755.31	85.214
755.49	85.124
755.66	81.599
755.84	84.857
756.02	86.547
756.20	83.027
756.38	84.937
756.56	81.700
756.74	80.622
756.92	85.341
757.10	83.388
757.28	87.443
757.45	85.468
757.63	81.591
757.81	87.579
757.99	84.162
758.17	85.338
758.35	86.852
758.53	81.504
758.71	83.229
758.88	83.471
759.06	83.662
759.24	84.303
759.42	82.847
759.60	81.314
759.78	82.253
759.96	79.178
760.13	78.167
760.31	72.776
760.49	76.522
760.67	72.681
760.85	76.158
761.03	74.375
761.21	75.501
761.38	72.450
761.56	78.192
761.74	72.747
761.92	78.170
762.10	73.449
762.28	74.863
762.46	71.989
762.63	74.015
762.81	74.553
762.99	74.572
763.17	72.156
763.35	74.391
763.53	74.464
763.70	77.065
763.88	75.364
764.06	76.177
764.24	74.874
764.42	76.504
764.60	74.217
764.77	75.464
764.95	72.776
765.13	77.326
765.31	77.669
765.49	75.623
765.66	75.745
765.84	77.978
766.02	78.191
766.20	78.533
766.38	78.861
766.56	77.999
766.73	79.569
766.91	78.009
767.09	79.253
767.27	81.058
767.45	78.417
767.62	77.603
767.80	79.281
767.98	81.323
768.16	81.481
768.33	80.388
768.51	81.417
768.69	85.777
768.87	83.148
769.05	83.997
769.22	80.748
769.40	87.206
769.58	81.586
769.76	82.265
769.94	83.098
770.11	83.015
770.29	86.013
770.47	87.757
770.65	81.745
770.82	84.634
771.00	80.220
771.18	81.370
771.36	83.872
771.53	88.133
771.71	82.706
771.89	89.944
772.07	80.842
772.25	86.750
772.42	83.234
772.60	84.337
772.78	84.339
772.96	85.623
773.13	85.941
773.31	81.565
773.49	88.398
773.67	87.808
773.84	85.060
774.02	85.821
774.20	83.266
774.37	85.485
774.55	84.808
774.73	86.958
774.91	84.165
775.08	87.560
775.26	86.513
775.44	87.990
775.62	84.695
775.79	86.971
775.97	85.282
776.15	81.738
776.32	84.865
776.50	92.864
776.68	88.596
776.86	84.732
777.03	87.275
777.21	87.709
777.39	87.723
777.56	84.100
777.74	82.521
777.92	82.261
778.10	87.168
778.27	87.824
778.45	87.689
778.63	85.749
778.80	81.836
778.98	84.831
779.16	84.745
779.34	87.724
779.51	84.286
779.69	85.892
779.87	84.499
780.04	84.373
780.22	78.592
780.40	87.650
780.57	82.454
780.75	84.145
780.93	91.758
781.10	86.312
781.28	87.889
781.46	78.607
781.63	81.401
781.81	92.006
781.99	83.771
782.16	86.568
782.34	80.084
782.52	86.071
782.69	83.839
782.87	84.624
783.05	79.785
783.22	83.772
783.40	85.984
783.58	83.630
783.75	77.166
783.93	89.685
784.11	83.315
784.28	83.538
784.46	81.424
784.64	90.547
784.81	77.151
784.99	84.570
785.17	85.978
785.34	78.900
785.52	79.767
785.69	87.065
785.87	79.866
786.05	86.721
786.22	83.371
786.40	86.163
786.58	82.816
786.75	87.860
786.93	81.316
787.11	85.714
787.28	84.589
787.46	84.685
787.63	76.964
787.81	83.439
787.99	81.748
788.16	79.672
788.34	81.378
788.51	82.711
788.69	82.774
788.87	82.432
789.04	79.213
789.22	85.050
789.39	77.626
789.57	81.687
789.75	81.668
789.92	80.816
790.10	75.536
790.27	80.658
790.45	82.112
790.63	79.893
790.80	79.792
790.98	76.685
791.15	78.930
791.33	84.213
791.51	73.497
791.68	85.381
791.86	82.788
792.03	82.978
792.21	80.395
792.39	85.229
792.56	76.484
792.74	82.746
792.91	79.547
793.09	81.397
793.26	75.146
793.44	82.346
793.62	78.353
793.79	85.901
793.97	79.791
794.14	80.185
794.32	84.440
794.49	92.217
794.67	78.375
794.84	80.344
795.02	78.401
795.20	81.534
795.37	78.103
795.55	77.081
795.72	74.497
795.90	82.321
796.07	79.940
796.25	78.163
796.42	74.851
796.60	81.469
796.77	77.286
796.95	81.376
797.13	71.710
797.30	81.539
797.48	76.216
797.65	79.080
797.83	80.793
798.00	79.079
798.18	68.430
798.35	80.900
798.53	79.011
798.70	81.793
798.88	79.540
799.05	79.854
799.23	74.917
799.40	81.236
799.58	72.802
799.75	81.123
799.93	74.208
800.10	81.445
800.28	76.278
800.45	80.780
800.63	72.667
800.80	86.113
800.98	76.377
801.15	78.026
801.33	77.202
801.50	81.869
801.68	74.366
801.85	73.472
802.03	76.157
802.20	77.415
802.38	79.856
802.55	80.680
802.73	74.354
802.90	75.927
803.08	73.306
803.25	78.105
803.43	75.109
803.60	82.056
803.78	76.088
803.95	81.357
804.13	77.482
804.30	83.300
804.48	73.795
804.65	76.494
804.83	77.669
805.00	81.421
805.17	72.692
805.35	74.321
805.52	73.425
805.70	78.610
805.87	73.801
806.05	76.386
806.22	71.164
806.40	74.765
806.57	79.605
806.75	83.554
806.92	73.453
807.09	85.379
807.27	79.599
807.44	77.686
807.62	72.126
807.79	72.889
807.97	76.395
808.14	84.320
808.31	72.138
808.49	77.857
808.66	83.507
808.84	75.519
809.01	72.128
809.19	74.154
809.36	83.058
809.53	76.934
809.71	72.696
809.88	78.743
810.06	79.363
810.23	79.667
810.41	73.239
810.58	79.403
810.75	71.429
810.93	71.997
811.10	71.946
811.28	74.623
811.45	70.282
811.62	73.729
811.80	72.387
811.97	76.691
812.15	81.699
812.32	76.265
812.49	82.955
812.67	69.831
812.84	68.982
813.02	82.707
813.19	68.765
813.36	78.530
813.54	59.400
813.71	74.980
813.89	67.531
814.06	77.559
814.23	72.434
814.41	75.057
814.58	72.259
814.75	75.561
814.93	72.949
815.10	75.020
815.28	64.105
815.45	71.701
815.62	72.803
815.80	66.693
815.97	64.085
816.14	63.854
816.32	63.972
816.49	71.497
816.66	71.369
816.84	68.716
817.01	69.218
817.18	67.430
817.36	72.208
817.53	75.335
817.71	49.069
817.88	72.082
818.05	64.326
818.23	68.384
818.40	61.210
818.57	68.189
818.75	58.346
818.92	69.552
819.09	69.534
819.27	70.332
819.44	66.992
819.61	72.238
819.79	68.249
819.96	72.860
820.13	63.526
820.31	72.858
820.48	74.455
820.65	69.507
820.82	64.537
821.00	72.584
821.17	65.623
821.34	68.719
821.52	69.721
821.69	69.548
821.86	71.123
822.04	71.781
822.21	72.384
822.38	71.720
822.56	71.581
822.73	73.483
822.90	72.789
823.07	71.786
823.25	73.589
823.42	71.189
823.59	71.866
823.77	71.946
823.94	72.098
824.11	72.426
824.29	73.143
824.46	71.845
824.63	75.372
824.80	74.589
824.98	72.179
825.15	74.688
825.32	69.750
825.49	73.311
825.67	71.937
825.84	75.614
826.01	73.393
826.19	72.572
826.36	73.996
826.53	75.782
826.70	68.522
826.88	75.127
827.05	72.500
827.22	74.159
827.39	73.207
827.57	73.574
827.74	69.720
827.91	76.717
828.08	70.606
828.26	73.444
828.43	72.698
828.60	72.979
828.77	69.617
828.95	76.545
829.12	72.587
829.29	71.950
829.46	72.953
829.64	71.145
829.81	70.530
829.98	76.334
830.15	69.457
830.32	71.670
830.50	65.126
830.67	67.213
830.84	64.761
831.01	65.177
831.19	58.631
831.36	67.263
831.53	68.787
831.70	73.220
831.87	63.571
832.05	67.834
832.22	63.541
832.39	56.846
832.56	59.636
832.74	69.361
832.91	63.174
833.08	69.382
833.25	61.920
833.42	66.402
833.60	63.459
833.77	57.230
833.94	67.941
834.11	68.937
834.28	68.260
834.45	69.113
834.63	67.132
834.80	68.712
834.97	67.878
835.14	74.180
835.31	66.751
835.49	67.455
835.66	69.973
835.83	70.527
836.00	65.643
836.17	68.007
836.34	60.469
836.52	70.257
836.69	63.302
836.86	69.198
837.03	67.052
837.20	64.713
837.37	62.810
837.55	62.332
837.72	59.654
837.89	61.631
838.06	66.721
838.23	66.833
838.40	61.129
838.58	66.277
838.75	62.777
838.92	75.489
839.09	82.886
839.26	68.707
839.43	69.002
839.60	71.674
839.78	75.806
839.95	77.228
840.12	63.439
840.29	82.419
840.46	67.984
840.63	74.841
840.80	66.766
840.98	70.076
841.15	67.568
841.32	61.545
841.49	56.162
841.66	66.271
841.83	64.272
842.00	62.883
842.17	59.531
842.34	64.677
842.52	70.936
842.69	74.545
842.86	69.488
843.03	86.526
843.20	65.045
843.37	68.301
843.54	72.973
843.71	70.935
843.88	74.603
844.06	82.361
844.23	78.298
844.40	72.298
844.57	62.425
844.74	70.852
844.91	85.878
845.08	73.884
845.25	70.333
845.42	84.854
845.59	71.331
845.76	92.043
845.94	88.117
846.11	68.443
846.28	88.430
846.45	98.810
846.62	78.826
846.79	69.177
846.96	78.474
847.13	84.801
847.30	81.508
847.47	62.655
847.64	78.667
847.81	84.321
847.98	93.398
848.15	111.187
848.32	98.352
848.50	93.861
848.67	85.867
848.84	90.054
849.01	75.381
849.18	71.586
849.35	105.342
849.52	108.197
849.69	98.048
849.86	82.018
850.03	77.098
850.20	81.911
850.37	69.901
850.54	93.452
850.71	88.423
850.88	73.267
851.05	101.691
851.22	103.069
851.39	82.305
851.56	72.427
851.73	86.653
851.90	89.066
852.07	81.359
852.24	77.263
852.41	67.960
852.58	91.685
852.75	82.381
852.92	86.652
853.09	94.700
853.26	129.503
853.43	94.607
853.60	91.667
853.77	105.036
853.94	84.272
854.11	80.761
854.28	111.164
854.45	89.401
854.62	100.456
854.79	96.018
854.96	73.282
855.13	88.158
855.30	96.316
855.47	85.754
855.64	97.517
855.81	78.636
855.98	87.368
856.15	82.836
856.32	112.500
856.49	95.543
856.66	91.264
856.83	87.855
857.00	111.136
857.17	102.899
857.34	85.301
857.51	89.630
857.68	93.564
857.85	60.835
858.02	110.753
858.19	72.109
858.36	80.952
858.53	91.019
858.70	99.275
858.87	102.736
859.04	80.720
859.21	82.090
859.38	82.851
859.55	104.719
859.72	79.770
859.89	90.355
860.05	87.935
860.22	106.553
860.39	93.048
860.56	79.140
860.73	96.860
860.90	80.864
861.07	105.492
861.24	74.935
861.41	87.903
861.58	90.476
861.75	94.430
861.92	78.533
862.09	72.848
862.26	87.972
862.43	127.540
862.59	82.940
862.76	94.264
862.93	125.333
863.10	81.281
863.27	87.863
863.44	94.615
863.61	90.981
863.78	93.046
863.95	117.905
864.12	85.991
864.29	124.299
864.45	70.213
864.62	86.253
864.79	88.710
864.96	92.857
865.13	74.783
865.30	85.567
865.47	82.900
865.64	93.617
865.81	91.061
865.97	72.045
866.14	94.536
866.31	96.438
866.48	82.184
866.65	79.562
866.82	98.280
866.99	102.899
867.16	61.190
867.33	91.233
867.49	85.986
867.66	77.207
867.83	83.535
868.00	93.029
868.17	79.249
868.34	102.926
868.51	76.049
868.67	95.685
868.84	88.966
869.01	85.217
869.18	75.637
869.35	100.000
869.52	80.510
869.69	96.341
869.85	95.575
870.02	75.844
870.19	77.805
870.36	94.550
870.53	80.183
870.70	71.820
870.86	72.208
871.03	87.345
871.20	104.706
871.37	95.823
871.54	101.053
871.71	71.883
871.87	94.556
872.04	76.483
872.21	74.792
872.38	92.553
872.55	111.893
872.72	87.500
872.88	109.735
873.05	66.890
873.22	98.795
873.39	75.048
873.56	84.577
873.72	97.260
873.89	72.292
874.06	92.932
874.23	105.983
874.40	76.650
874.56	83.476
874.73	89.709
874.90	69.104
875.07	84.156
875.24	80.594
875.40	85.931
875.57	88.305
875.74	97.241
875.91	73.246
876.08	68.597
876.24	96.411
876.41	93.028
876.58	85.067
876.75	91.136
876.92	83.202
877.08	83.333
877.25	78.571
877.42	86.853
877.59	76.298
877.75	91.185
877.92	77.350
878.09	89.604
878.26	89.848
878.42	75.258
878.59	104.691
878.76	85.366
878.93	93.008
879.09	65.306
879.26	84.453
879.43	71.396
879.60	75.377
879.76	81.473
879.93	80.537
880.10	59.345
880.27	57.371
880.43	63.209
880.60	62.867
880.77	63.622
880.94	59.137
881.10	49.771
881.27	56.446
881.44	44.184
881.61	53.344
881.77	62.979
881.94	57.152
882.11	49.162
882.28	57.714
882.44	58.570
882.61	59.118
882.78	63.188
882.94	70.446
883.11	65.814
883.28	67.570
883.45	68.318
883.61	65.725
883.78	62.365
883.95	69.844
884.11	64.732
884.28	70.326
>>>>>End Processed Spectral Data<<<<<
