SpectraSuite Data File
++++++++++++++++++++++++++++++++++++
Date: Thu Sep 26 03:42:49 EST 2019
User: sgrac
Dark Spectrum Present: Yes
Reference Spectrum Present: Yes
Number of Sampled Component Spectra: 1
Spectrometers: USB4E01596
Integration Time (usec): 100000 (USB4E01596)
Spectra Averaged: 3 (USB4E01596)
Boxcar Smoothing: 0 (USB4E01596)
Correct for Electrical Dark: No (USB4E01596)
Strobe/Lamp Enabled: Yes (USB4E01596)
Correct for Detector Non-linearity: No (USB4E01596)
Correct for Stray Light: No (USB4E01596)
Number of Pixels in Processed Spectrum: 3648
>>>>>Begin Processed Spectral Data<<<<<
178.44	-2050.000
178.66	-2050.000
178.87	-2050.000
179.09	-277.551
179.30	-252.381
179.52	-1127.273
179.74	-605.556
179.95	-1869.231
180.17	301.205
180.38	1785.714
180.60	362.500
180.82	361.446
181.03	495.833
181.25	317.308
181.46	-654.839
181.68	231.667
181.89	1346.667
182.11	-1483.333
182.33	281.553
182.54	379.310
182.76	453.571
182.97	685.185
183.19	177.019
183.40	265.049
183.62	2850.000
183.84	298.913
184.05	2283.333
184.27	321.649
184.48	-733.333
184.70	1642.857
184.91	348.000
185.13	1360.000
185.34	816.216
185.56	2010.000
185.78	276.289
185.99	387.013
186.21	757.143
186.42	1300.000
186.64	761.905
186.85	341.837
187.07	394.286
187.28	321.053
187.50	1208.696
187.72	1172.222
187.93	755.319
188.15	605.660
188.36	950.000
188.58	6500.000
188.79	597.500
189.01	5475.000
189.22	237.500
189.44	929.167
189.65	2511.111
189.87	570.270
190.09	861.290
190.30	506.349
190.52	-21800.000
190.73	-21300.000
190.95	1145.833
191.16	209.174
191.38	210.870
191.59	955.882
191.81	377.586
192.02	883.333
192.24	360.274
192.45	325.263
192.67	612.766
192.88	664.103
193.10	245.349
193.31	275.281
193.53	1811.765
193.74	321.951
193.96	356.250
194.18	1163.158
194.39	225.217
194.61	2527.273
194.82	312.162
195.04	260.952
195.25	234.375
195.47	731.250
195.68	343.038
195.90	865.000
196.11	278.000
196.33	1003.846
196.54	530.159
196.76	839.286
196.97	1109.091
197.19	788.889
197.40	-480.000
197.62	449.091
197.83	247.899
198.05	600.000
198.26	350.704
198.48	1583.333
198.69	0.000
198.91	2588.889
199.12	448.148
199.34	404.348
199.55	298.198
199.77	283.908
199.98	8433.333
200.20	343.939
200.41	276.636
200.63	852.381
200.84	497.826
201.06	268.966
201.27	1285.714
201.49	1535.000
201.70	-1792.857
201.91	328.723
202.13	571.795
202.34	-327.083
202.56	500.000
202.77	1190.000
202.99	764.706
203.20	414.754
203.42	429.091
203.63	406.593
203.85	224.818
204.06	510.526
204.28	322.619
204.49	523.529
204.71	304.225
204.92	-11300.000
205.14	653.571
205.35	350.725
205.56	745.833
205.78	550.847
205.99	471.698
206.21	287.037
206.42	338.636
206.64	825.000
206.85	329.762
207.07	206.400
207.28	207.692
207.50	440.909
207.71	904.762
207.93	-677.778
208.14	-1945.455
208.35	912.000
208.57	238.889
208.78	440.000
209.00	571.053
209.21	5275.000
209.43	289.423
209.64	675.000
209.86	4040.000
210.07	514.634
210.28	-597.368
210.50	7766.667
210.71	753.333
210.93	170.690
211.14	419.231
211.36	1189.474
211.57	508.929
211.78	1033.333
212.00	854.167
212.21	474.138
212.43	723.810
212.64	287.379
212.86	432.051
213.07	206.140
213.29	1580.000
213.50	348.101
213.71	210.484
213.93	484.091
214.14	216.346
214.36	192.353
214.57	574.468
214.78	271.951
215.00	338.824
215.21	344.444
215.43	740.741
215.64	275.000
215.86	169.784
216.07	1028.000
216.28	369.620
216.50	272.642
216.71	336.585
216.93	590.476
217.14	2081.818
217.35	680.000
217.57	380.645
217.78	257.522
218.00	311.702
218.21	228.947
218.42	588.372
218.64	302.970
218.85	231.250
219.07	273.000
219.28	714.286
219.49	455.263
219.71	496.000
219.92	-2520.000
220.14	392.187
220.35	1000.000
220.56	-9650.000
220.78	236.508
220.99	690.000
221.21	280.723
221.42	339.744
221.63	272.340
221.85	0.000
222.06	200.000
222.28	797.143
222.49	456.061
222.70	1450.000
222.92	291.026
223.13	90.278
223.34	192.391
223.56	180.000
223.77	175.159
223.99	194.410
224.20	190.385
224.41	468.085
224.63	174.830
224.84	238.739
225.05	215.267
225.27	164.740
225.48	293.860
225.69	184.615
225.91	177.391
226.12	194.805
226.34	95.294
226.55	119.853
226.76	115.942
226.98	108.051
227.19	102.235
227.40	176.111
227.62	85.075
227.83	108.434
228.04	77.500
228.26	68.798
228.47	65.686
228.69	51.756
228.90	40.312
229.11	38.677
229.33	54.074
229.54	40.116
229.75	29.737
229.97	34.390
230.18	30.615
230.39	33.893
230.61	32.042
230.82	31.624
231.03	21.600
231.25	33.862
231.46	30.386
231.67	36.329
231.89	40.200
232.10	33.427
232.31	39.167
232.53	40.773
232.74	37.182
232.95	51.520
233.17	44.344
233.38	52.509
233.59	40.497
233.81	44.816
234.02	41.955
234.23	41.683
234.45	51.659
234.66	42.185
234.87	52.244
235.09	42.583
235.30	53.217
235.51	39.122
235.73	42.762
235.94	40.823
236.15	46.540
236.36	49.459
236.58	42.598
236.79	30.275
237.00	41.227
237.22	39.860
237.43	47.489
237.64	50.564
237.86	42.667
238.07	54.025
238.28	47.241
238.50	33.649
238.71	42.308
238.92	48.006
239.13	41.717
239.35	35.572
239.56	45.779
239.77	33.949
239.99	35.160
240.20	45.347
240.41	28.223
240.63	34.865
240.84	32.375
241.05	23.548
241.26	24.757
241.48	28.962
241.69	23.124
241.90	16.939
242.12	20.781
242.33	20.814
242.54	8.877
242.75	11.067
242.97	21.966
243.18	10.518
243.39	10.105
243.61	12.649
243.82	11.336
244.03	13.170
244.24	9.748
244.46	15.423
244.67	16.134
244.88	15.728
245.09	11.412
245.31	13.984
245.52	15.889
245.73	13.917
245.95	27.760
246.16	16.947
246.37	15.792
246.58	13.295
246.80	16.156
247.01	15.183
247.22	9.615
247.43	11.850
247.65	10.199
247.86	9.498
248.07	7.307
248.28	9.444
248.50	7.983
248.71	8.502
248.92	7.065
249.13	7.573
249.35	8.784
249.56	7.413
249.77	8.149
249.98	9.662
250.20	8.957
250.41	11.655
250.62	12.455
250.83	13.283
251.05	17.001
251.26	14.185
251.47	16.279
251.68	18.602
251.90	14.753
252.11	13.920
252.32	15.753
252.53	14.874
252.75	11.144
252.96	15.185
253.17	13.333
253.38	13.684
253.59	12.801
253.81	11.522
254.02	13.183
254.23	12.694
254.44	13.343
254.66	15.292
254.87	12.266
255.08	15.805
255.29	15.508
255.50	16.346
255.72	18.287
255.93	15.860
256.14	23.935
256.35	17.398
256.57	19.882
256.78	14.054
256.99	15.925
257.20	23.755
257.41	19.413
257.63	16.045
257.84	18.048
258.05	18.665
258.26	13.783
258.47	14.594
258.69	14.484
258.90	11.513
259.11	11.788
259.32	10.663
259.53	7.905
259.75	8.291
259.96	5.365
260.17	5.210
260.38	6.021
260.59	6.101
260.81	5.199
261.02	6.683
261.23	6.040
261.44	6.396
261.65	5.652
261.87	6.249
262.08	8.085
262.29	7.494
262.50	6.401
262.71	8.216
262.92	8.185
263.14	7.368
263.35	8.447
263.56	8.052
263.77	11.270
263.98	10.930
264.20	10.963
264.41	12.521
264.62	10.942
264.83	9.013
265.04	17.279
265.25	11.949
265.47	10.335
265.68	14.779
265.89	12.750
266.10	9.669
266.31	13.163
266.52	11.101
266.74	13.675
266.95	8.869
267.16	11.947
267.37	7.880
267.58	10.195
267.79	10.358
268.01	9.319
268.22	8.256
268.43	10.669
268.64	9.013
268.85	7.602
269.06	9.293
269.27	10.612
269.49	5.048
269.70	9.518
269.91	9.697
270.12	7.344
270.33	10.406
270.54	8.600
270.75	7.368
270.97	10.149
271.18	7.991
271.39	9.014
271.60	8.725
271.81	8.033
272.02	6.633
272.23	8.871
272.45	6.999
272.66	5.042
272.87	7.081
273.08	5.948
273.29	6.566
273.50	6.580
273.71	6.727
273.92	6.166
274.14	7.589
274.35	4.388
274.56	8.204
274.77	6.715
274.98	9.491
275.19	6.665
275.40	6.892
275.61	5.871
275.83	8.561
276.04	9.104
276.25	8.760
276.46	4.962
276.67	10.512
276.88	8.588
277.09	9.142
277.30	8.766
277.51	7.321
277.73	7.923
277.94	7.275
278.15	8.417
278.36	9.488
278.57	6.683
278.78	8.353
278.99	9.905
279.20	8.527
279.41	8.217
279.62	10.198
279.84	6.808
280.05	7.724
280.26	7.782
280.47	8.994
280.68	5.626
280.89	8.976
281.10	8.218
281.31	5.486
281.52	7.261
281.73	6.562
281.94	6.454
282.16	7.284
282.37	7.909
282.58	7.832
282.79	7.313
283.00	7.570
283.21	5.531
283.42	5.010
283.63	4.524
283.84	5.259
284.05	6.163
284.26	6.967
284.47	6.461
284.68	7.195
284.89	8.838
285.11	6.713
285.32	5.289
285.53	6.574
285.74	6.267
285.95	6.806
286.16	5.246
286.37	6.356
286.58	5.443
286.79	3.934
287.00	4.903
287.21	6.112
287.42	5.947
287.63	5.235
287.84	5.975
288.05	6.191
288.26	5.174
288.48	5.735
288.69	5.634
288.90	5.994
289.11	7.017
289.32	6.190
289.53	5.081
289.74	4.627
289.95	5.503
290.16	5.011
290.37	4.814
290.58	5.676
290.79	4.305
291.00	4.995
291.21	5.559
291.42	3.687
291.63	4.652
291.84	5.556
292.05	5.576
292.26	5.958
292.47	5.481
292.68	4.720
292.89	5.903
293.10	5.767
293.31	7.359
293.52	3.979
293.73	6.603
293.94	5.421
294.15	7.186
294.36	6.024
294.57	6.283
294.79	5.081
295.00	4.109
295.21	5.856
295.42	4.775
295.63	5.881
295.84	7.229
296.05	4.208
296.26	4.692
296.47	5.563
296.68	4.269
296.89	4.876
297.10	6.108
297.31	5.692
297.52	3.935
297.73	5.506
297.94	4.280
298.15	4.170
298.36	4.305
298.57	5.107
298.78	4.433
298.99	3.514
299.20	3.005
299.41	3.516
299.62	4.524
299.83	3.342
300.04	4.646
300.25	4.311
300.46	4.256
300.67	4.743
300.88	6.287
301.09	4.612
301.30	6.602
301.50	5.140
301.71	6.811
301.92	5.046
302.13	3.685
302.34	3.443
302.55	7.363
302.76	5.560
302.97	4.812
303.18	5.730
303.39	5.735
303.60	5.082
303.81	6.278
304.02	3.833
304.23	5.493
304.44	4.427
304.65	5.963
304.86	4.535
305.07	3.928
305.28	5.843
305.49	5.562
305.70	6.598
305.91	4.627
306.12	4.333
306.33	4.470
306.54	4.651
306.75	7.438
306.96	6.950
307.17	5.551
307.38	6.493
307.58	4.282
307.79	7.141
308.00	6.395
308.21	6.492
308.42	6.751
308.63	6.044
308.84	6.822
309.05	5.754
309.26	5.143
309.47	5.701
309.68	5.642
309.89	6.541
310.10	5.890
310.31	5.074
310.52	4.653
310.73	5.960
310.94	4.343
311.14	4.888
311.35	5.318
311.56	5.231
311.77	4.785
311.98	4.432
312.19	4.289
312.40	5.843
312.61	3.691
312.82	5.468
313.03	4.632
313.24	5.371
313.45	5.280
313.66	4.570
313.86	5.096
314.07	5.174
314.28	7.024
314.49	5.089
314.70	6.229
314.91	6.611
315.12	7.337
315.33	6.008
315.54	6.892
315.75	5.966
315.96	5.001
316.16	5.482
316.37	7.010
316.58	5.227
316.79	6.032
317.00	5.771
317.21	5.132
317.42	6.679
317.63	7.388
317.84	4.975
318.05	5.291
318.25	5.363
318.46	5.046
318.67	6.408
318.88	5.989
319.09	6.022
319.30	5.660
319.51	5.433
319.72	7.017
319.93	4.245
320.13	4.719
320.34	5.734
320.55	6.104
320.76	6.933
320.97	5.619
321.18	5.709
321.39	4.877
321.60	5.320
321.80	7.110
322.01	7.056
322.22	6.100
322.43	4.171
322.64	5.046
322.85	7.977
323.06	5.291
323.27	6.984
323.47	7.066
323.68	5.324
323.89	5.386
324.10	5.326
324.31	4.987
324.52	6.679
324.73	5.226
324.93	5.079
325.14	5.423
325.35	3.930
325.56	4.289
325.77	4.087
325.98	5.706
326.19	5.418
326.39	3.455
326.60	4.180
326.81	4.529
327.02	4.068
327.23	4.164
327.44	5.106
327.64	4.125
327.85	5.322
328.06	4.168
328.27	6.800
328.48	4.970
328.69	3.979
328.90	4.804
329.10	4.549
329.31	4.846
329.52	5.731
329.73	5.589
329.94	5.558
330.15	6.006
330.35	6.186
330.56	5.365
330.77	4.472
330.98	5.618
331.19	5.893
331.39	6.361
331.60	5.498
331.81	3.684
332.02	5.325
332.23	5.775
332.44	5.741
332.64	7.570
332.85	5.240
333.06	4.391
333.27	5.727
333.48	4.982
333.68	6.237
333.89	4.434
334.10	4.243
334.31	6.001
334.52	6.918
334.72	4.869
334.93	5.999
335.14	3.713
335.35	4.636
335.56	4.970
335.76	5.102
335.97	6.014
336.18	4.337
336.39	6.258
336.60	5.408
336.80	4.076
337.01	4.543
337.22	4.798
337.43	6.226
337.64	5.672
337.84	5.750
338.05	5.708
338.26	6.032
338.47	4.897
338.68	4.673
338.88	4.668
339.09	4.956
339.30	5.085
339.51	4.723
339.71	5.295
339.92	4.532
340.13	4.498
340.34	5.041
340.55	4.353
340.75	6.075
340.96	5.240
341.17	5.553
341.38	5.337
341.58	5.470
341.79	3.149
342.00	4.735
342.21	4.640
342.41	4.325
342.62	4.584
342.83	5.537
343.04	3.451
343.24	5.794
343.45	4.511
343.66	4.332
343.87	5.219
344.07	5.095
344.28	4.655
344.49	4.350
344.70	5.149
344.90	4.056
345.11	4.709
345.32	3.471
345.53	4.871
345.73	4.852
345.94	3.758
346.15	4.837
346.36	4.981
346.56	5.524
346.77	4.912
346.98	3.457
347.19	3.442
347.39	5.330
347.60	4.327
347.81	3.481
348.02	5.781
348.22	2.906
348.43	3.807
348.64	3.902
348.84	5.388
349.05	4.578
349.26	5.357
349.47	4.959
349.67	3.285
349.88	4.420
350.09	4.777
350.30	4.883
350.50	4.651
350.71	5.571
350.92	3.194
351.12	4.277
351.33	4.487
351.54	4.746
351.74	5.118
351.95	4.210
352.16	5.157
352.37	6.644
352.57	5.076
352.78	5.614
352.99	4.184
353.19	4.571
353.40	3.798
353.61	5.918
353.82	4.975
354.02	4.068
354.23	4.565
354.44	5.840
354.64	3.846
354.85	4.460
355.06	4.722
355.26	4.003
355.47	4.188
355.68	4.560
355.88	4.701
356.09	6.199
356.30	3.801
356.51	4.573
356.71	4.474
356.92	2.849
357.13	3.928
357.33	3.528
357.54	3.792
357.75	3.756
357.95	4.816
358.16	3.696
358.37	5.021
358.57	3.712
358.78	5.419
358.99	4.100
359.19	3.505
359.40	4.380
359.61	4.012
359.81	5.251
360.02	5.301
360.23	3.868
360.43	3.671
360.64	4.398
360.85	3.303
361.05	3.838
361.26	2.934
361.47	4.036
361.67	4.079
361.88	2.511
362.09	3.716
362.29	2.740
362.50	2.677
362.70	3.338
362.91	3.822
363.12	3.234
363.32	3.638
363.53	3.310
363.74	3.443
363.94	3.350
364.15	3.685
364.36	4.486
364.56	2.559
364.77	3.965
364.98	5.067
365.18	3.777
365.39	4.384
365.59	3.397
365.80	3.375
366.01	4.263
366.21	3.703
366.42	3.280
366.63	3.730
366.83	3.859
367.04	3.403
367.24	4.045
367.45	3.203
367.66	2.902
367.86	4.455
368.07	4.108
368.28	3.828
368.48	3.887
368.69	2.830
368.89	3.473
369.10	4.612
369.31	3.314
369.51	4.081
369.72	5.587
369.92	5.064
370.13	4.996
370.34	4.628
370.54	4.181
370.75	5.496
370.95	4.070
371.16	5.126
371.37	4.201
371.57	4.612
371.78	4.903
371.98	3.170
372.19	4.526
372.40	4.191
372.60	4.324
372.81	3.649
373.01	3.286
373.22	2.795
373.43	5.418
373.63	3.635
373.84	4.947
374.04	4.478
374.25	4.492
374.46	4.863
374.66	4.581
374.87	5.069
375.07	3.024
375.28	2.991
375.48	5.056
375.69	4.741
375.90	4.491
376.10	3.755
376.31	3.952
376.51	3.555
376.72	3.737
376.92	4.047
377.13	4.251
377.34	4.152
377.54	4.341
377.75	4.353
377.95	4.276
378.16	4.770
378.36	4.990
378.57	5.792
378.77	4.404
378.98	4.248
379.19	3.605
379.39	3.790
379.60	5.034
379.80	3.978
380.01	5.529
380.21	4.589
380.42	6.254
380.62	5.325
380.83	5.339
381.04	3.956
381.24	4.929
381.45	4.398
381.65	4.637
381.86	5.558
382.06	5.706
382.27	4.358
382.47	4.595
382.68	6.332
382.88	3.869
383.09	4.816
383.29	5.351
383.50	6.484
383.71	5.908
383.91	5.629
384.12	5.355
384.32	6.378
384.53	5.950
384.73	5.411
384.94	5.196
385.14	5.850
385.35	4.679
385.55	6.558
385.76	5.968
385.96	6.196
386.17	6.053
386.37	7.064
386.58	6.763
386.78	7.822
386.99	5.655
387.19	7.956
387.40	6.032
387.60	9.057
387.81	7.628
388.01	7.448
388.22	8.121
388.42	9.578
388.63	9.213
388.83	9.990
389.04	7.708
389.24	9.652
389.45	9.129
389.65	9.051
389.86	9.173
390.06	8.634
390.27	8.744
390.47	10.541
390.68	9.764
390.88	11.654
391.09	11.705
391.29	12.349
391.50	11.517
391.70	12.291
391.91	11.911
392.11	12.337
392.32	13.336
392.52	14.007
392.73	12.434
392.93	13.417
393.14	13.032
393.34	14.041
393.55	14.518
393.75	14.306
393.95	14.280
394.16	15.332
394.36	14.988
394.57	15.906
394.77	15.392
394.98	16.347
395.18	16.063
395.39	16.066
395.59	16.347
395.80	17.722
396.00	16.982
396.21	18.660
396.41	16.409
396.61	17.636
396.82	17.188
397.02	18.607
397.23	17.569
397.43	18.365
397.64	17.072
397.84	20.058
398.05	17.643
398.25	20.277
398.45	18.772
398.66	20.599
398.86	19.306
399.07	20.913
399.27	19.405
399.48	21.095
399.68	20.185
399.89	21.053
400.09	20.623
400.29	21.140
400.50	20.469
400.70	21.011
400.91	20.297
401.11	21.337
401.32	21.738
401.52	21.054
401.72	20.769
401.93	22.551
402.13	21.840
402.34	21.437
402.54	20.963
402.75	22.475
402.95	20.834
403.15	23.061
403.36	21.558
403.56	23.544
403.77	21.006
403.97	21.945
404.17	21.680
404.38	22.586
404.58	22.230
404.79	23.365
404.99	22.829
405.19	22.244
405.40	22.231
405.60	23.766
405.81	22.873
406.01	22.559
406.21	22.797
406.42	23.534
406.62	23.327
406.83	24.223
407.03	23.301
407.23	23.046
407.44	23.221
407.64	23.148
407.85	22.920
408.05	24.079
408.25	23.008
408.46	23.870
408.66	22.971
408.87	23.358
409.07	23.118
409.27	23.477
409.48	23.000
409.68	24.289
409.88	22.392
410.09	23.522
410.29	23.031
410.50	23.469
410.70	21.784
410.90	23.092
411.11	22.415
411.31	23.528
411.51	23.733
411.72	24.215
411.92	22.536
412.12	23.407
412.33	22.772
412.53	22.543
412.74	22.057
412.94	23.413
413.14	23.608
413.35	23.095
413.55	22.152
413.75	24.025
413.96	22.616
414.16	22.907
414.36	22.857
414.57	23.383
414.77	22.813
414.97	23.390
415.18	21.989
415.38	23.415
415.58	22.557
415.79	22.927
415.99	22.418
416.19	22.389
416.40	22.632
416.60	22.158
416.80	22.723
417.01	22.673
417.21	22.546
417.41	22.375
417.62	22.394
417.82	22.518
418.02	21.923
418.23	22.960
418.43	22.027
418.63	22.543
418.84	22.970
419.04	22.511
419.24	21.994
419.45	22.045
419.65	22.517
419.85	22.152
420.06	22.188
420.26	21.968
420.46	22.060
420.67	22.043
420.87	21.976
421.07	21.935
421.28	22.005
421.48	21.790
421.68	21.962
421.88	21.959
422.09	21.512
422.29	21.612
422.49	21.720
422.70	22.104
422.90	21.812
423.10	21.748
423.31	21.442
423.51	21.780
423.71	21.567
423.91	21.807
424.12	21.728
424.32	21.660
424.52	21.673
424.73	21.651
424.93	21.256
425.13	21.026
425.33	21.172
425.54	21.184
425.74	21.207
425.94	21.137
426.15	21.089
426.35	21.364
426.55	21.980
426.75	21.673
426.96	21.483
427.16	22.023
427.36	21.722
427.57	21.942
427.77	21.673
427.97	22.087
428.17	21.278
428.38	21.981
428.58	21.131
428.78	21.935
428.98	20.945
429.19	21.610
429.39	20.734
429.59	21.474
429.79	20.452
430.00	21.626
430.20	21.307
430.40	21.280
430.60	21.314
430.81	21.829
431.01	20.768
431.21	21.271
431.41	21.028
431.62	20.581
431.82	21.072
432.02	21.184
432.22	20.839
432.43	20.975
432.63	21.369
432.83	21.016
433.03	20.239
433.24	20.573
433.44	20.547
433.64	21.141
433.84	20.541
434.05	21.020
434.25	20.916
434.45	21.155
434.65	21.115
434.85	20.792
435.06	21.272
435.26	21.382
435.46	21.555
435.66	22.013
435.87	22.027
436.07	21.434
436.27	21.009
436.47	21.256
436.67	21.295
436.88	21.406
437.08	21.243
437.28	21.499
437.48	21.161
437.69	21.232
437.89	21.255
438.09	21.325
438.29	20.709
438.49	21.283
438.70	21.669
438.90	21.135
439.10	21.049
439.30	20.779
439.50	21.290
439.71	21.099
439.91	21.727
440.11	20.953
440.31	20.996
440.51	20.796
440.72	21.001
440.92	20.753
441.12	21.154
441.32	20.869
441.52	21.103
441.72	21.424
441.93	21.322
442.13	20.955
442.33	20.775
442.53	21.216
442.73	20.857
442.94	21.281
443.14	21.348
443.34	21.588
443.54	21.368
443.74	21.462
443.94	21.339
444.15	21.507
444.35	21.894
444.55	21.539
444.75	21.264
444.95	21.171
445.15	20.846
445.36	21.066
445.56	20.565
445.76	20.603
445.96	21.060
446.16	20.980
446.36	20.118
446.57	21.149
446.77	20.827
446.97	20.883
447.17	20.753
447.37	20.828
447.57	21.244
447.77	20.722
447.98	21.141
448.18	20.792
448.38	21.020
448.58	21.067
448.78	21.502
448.98	21.072
449.18	21.374
449.39	21.159
449.59	21.225
449.79	21.429
449.99	20.863
450.19	21.611
450.39	21.291
450.59	20.784
450.79	21.589
451.00	21.795
451.20	22.025
451.40	21.336
451.60	21.872
451.80	21.117
452.00	21.335
452.20	20.845
452.40	20.850
452.61	21.012
452.81	20.501
453.01	21.453
453.21	20.676
453.41	20.835
453.61	21.112
453.81	20.996
454.01	21.087
454.21	20.863
454.42	21.339
454.62	20.952
454.82	20.960
455.02	21.119
455.22	20.846
455.42	21.510
455.62	20.628
455.82	20.932
456.02	20.798
456.23	21.285
456.43	21.335
456.63	21.195
456.83	20.774
457.03	21.119
457.23	20.668
457.43	21.233
457.63	21.085
457.83	21.592
458.03	20.442
458.23	20.836
458.43	20.905
458.64	20.817
458.84	20.689
459.04	20.486
459.24	20.549
459.44	20.558
459.64	20.571
459.84	20.407
460.04	20.427
460.24	20.291
460.44	20.920
460.64	20.625
460.84	20.673
461.04	20.277
461.24	20.747
461.45	20.431
461.65	20.776
461.85	20.748
462.05	21.099
462.25	21.093
462.45	21.121
462.65	21.178
462.85	21.406
463.05	21.038
463.25	20.924
463.45	20.762
463.65	21.420
463.85	20.754
464.05	20.650
464.25	21.023
464.45	21.092
464.65	20.661
464.85	21.276
465.05	20.259
465.26	21.020
465.46	20.276
465.66	21.188
465.86	21.272
466.06	21.319
466.26	20.959
466.46	20.367
466.66	20.810
466.86	20.572
467.06	20.751
467.26	20.792
467.46	20.980
467.66	20.236
467.86	20.300
468.06	20.525
468.26	20.193
468.46	20.592
468.66	21.521
468.86	20.900
469.06	21.442
469.26	21.041
469.46	20.409
469.66	20.534
469.86	20.812
470.06	20.819
470.26	21.200
470.46	20.690
470.66	21.501
470.86	20.666
471.06	20.794
471.26	20.477
471.46	20.876
471.66	21.093
471.86	20.874
472.06	21.075
472.26	21.217
472.46	20.988
472.66	20.859
472.86	20.883
473.06	20.581
473.26	21.457
473.46	21.356
473.66	20.829
473.86	21.295
474.06	20.767
474.26	21.152
474.46	21.165
474.66	21.223
474.86	21.490
475.06	21.285
475.26	21.354
475.46	21.141
475.66	21.013
475.86	21.433
476.06	20.977
476.26	21.131
476.46	20.856
476.66	21.136
476.86	21.249
477.06	21.535
477.26	20.875
477.46	21.028
477.65	20.850
477.85	20.940
478.05	21.536
478.25	20.881
478.45	20.908
478.65	21.115
478.85	20.994
479.05	20.970
479.25	21.391
479.45	20.989
479.65	20.962
479.85	21.542
480.05	20.953
480.25	21.269
480.45	21.229
480.65	21.191
480.85	21.485
481.05	21.072
481.25	21.013
481.44	21.233
481.64	20.992
481.84	21.275
482.04	21.524
482.24	20.951
482.44	21.096
482.64	20.901
482.84	20.913
483.04	21.068
483.24	20.556
483.44	20.511
483.64	20.595
483.84	20.225
484.04	20.436
484.23	20.874
484.43	21.041
484.63	21.451
484.83	21.924
485.03	22.561
485.23	22.642
485.43	22.454
485.63	21.992
485.83	22.046
486.03	21.981
486.23	22.183
486.42	21.943
486.62	21.803
486.82	21.416
487.02	21.245
487.22	21.448
487.42	21.161
487.62	21.176
487.82	20.942
488.02	21.109
488.22	20.914
488.41	21.172
488.61	21.125
488.81	20.995
489.01	21.597
489.21	21.530
489.41	21.412
489.61	21.547
489.81	21.776
490.01	21.755
490.20	21.579
490.40	21.622
490.60	21.604
490.80	21.451
491.00	21.350
491.20	21.318
491.40	21.021
491.60	20.907
491.79	20.892
491.99	21.025
492.19	21.036
492.39	20.868
492.59	21.152
492.79	21.164
492.99	21.339
493.19	21.305
493.38	21.528
493.58	21.723
493.78	21.861
493.98	22.128
494.18	21.600
494.38	21.208
494.58	21.669
494.77	21.587
494.97	21.544
495.17	21.365
495.37	21.705
495.57	21.388
495.77	21.369
495.96	21.457
496.16	21.371
496.36	21.188
496.56	21.400
496.76	21.019
496.96	21.177
497.15	21.026
497.35	21.286
497.55	21.283
497.75	21.694
497.95	20.840
498.15	21.435
498.34	21.362
498.54	21.286
498.74	21.989
498.94	21.471
499.14	21.761
499.34	21.187
499.53	21.893
499.73	21.394
499.93	21.676
500.13	21.353
500.33	21.877
500.52	21.891
500.72	21.653
500.92	21.763
501.12	21.056
501.32	21.499
501.52	21.920
501.71	22.065
501.91	21.639
502.11	21.883
502.31	21.423
502.51	22.003
502.70	21.730
502.90	21.834
503.10	21.540
503.30	22.022
503.50	21.611
503.69	21.406
503.89	21.942
504.09	21.700
504.29	22.009
504.48	21.987
504.68	21.969
504.88	21.840
505.08	22.072
505.28	21.655
505.47	21.527
505.67	21.759
505.87	22.101
506.07	22.273
506.27	21.875
506.46	22.097
506.66	22.141
506.86	22.090
507.06	21.872
507.25	22.171
507.45	21.913
507.65	22.146
507.85	22.067
508.04	21.987
508.24	21.974
508.44	22.175
508.64	21.746
508.83	21.837
509.03	21.800
509.23	22.260
509.43	21.930
509.63	22.596
509.82	21.840
510.02	22.060
510.22	22.033
510.42	21.984
510.61	21.932
510.81	21.977
511.01	22.399
511.21	22.151
511.40	22.380
511.60	22.463
511.80	22.278
511.99	22.334
512.19	22.103
512.39	22.198
512.59	22.274
512.78	22.431
512.98	22.084
513.18	22.337
513.38	22.432
513.57	22.583
513.77	22.253
513.97	22.332
514.17	23.035
514.36	22.483
514.56	21.976
514.76	22.632
514.95	22.761
515.15	22.916
515.35	22.802
515.55	22.252
515.74	22.366
515.94	22.506
516.14	22.599
516.33	22.677
516.53	22.168
516.73	23.056
516.93	22.418
517.12	22.635
517.32	21.982
517.52	22.660
517.71	22.592
517.91	22.066
518.11	22.594
518.30	22.256
518.50	22.306
518.70	22.208
518.90	22.322
519.09	22.263
519.29	22.590
519.49	22.399
519.68	22.296
519.88	22.337
520.08	22.370
520.27	22.494
520.47	22.636
520.67	22.774
520.86	22.753
521.06	22.967
521.26	22.647
521.45	22.698
521.65	22.452
521.85	22.909
522.04	23.071
522.24	22.843
522.44	23.148
522.63	22.535
522.83	22.839
523.03	22.822
523.22	22.263
523.42	22.554
523.62	23.091
523.81	22.390
524.01	22.898
524.21	22.697
524.40	22.654
524.60	22.806
524.80	22.678
524.99	22.338
525.19	22.058
525.39	22.529
525.58	22.512
525.78	22.445
525.98	22.094
526.17	22.543
526.37	22.492
526.57	22.273
526.76	22.803
526.96	22.387
527.15	22.702
527.35	22.628
527.55	22.651
527.74	22.691
527.94	22.573
528.14	22.338
528.33	22.345
528.53	22.051
528.72	22.363
528.92	22.466
529.12	22.284
529.31	22.667
529.51	22.971
529.71	22.804
529.90	23.138
530.10	23.154
530.29	23.094
530.49	23.282
530.69	23.328
530.88	23.387
531.08	23.483
531.28	23.134
531.47	22.973
531.67	23.122
531.86	22.876
532.06	22.995
532.26	22.674
532.45	22.844
532.65	22.667
532.84	22.403
533.04	22.625
533.24	22.475
533.43	22.574
533.63	22.637
533.82	22.897
534.02	22.854
534.22	22.910
534.41	23.287
534.61	22.808
534.80	22.775
535.00	23.283
535.19	22.914
535.39	23.178
535.59	23.543
535.78	23.304
535.98	23.143
536.17	22.852
536.37	23.100
536.57	23.307
536.76	23.052
536.96	23.369
537.15	23.501
537.35	22.702
537.54	23.125
537.74	23.035
537.93	23.630
538.13	23.523
538.33	23.446
538.52	23.268
538.72	23.594
538.91	24.001
539.11	23.746
539.30	23.836
539.50	23.431
539.70	23.710
539.89	23.524
540.09	23.299
540.28	23.472
540.48	23.512
540.67	23.391
540.87	23.182
541.06	23.221
541.26	22.691
541.45	22.888
541.65	23.130
541.85	23.243
542.04	23.405
542.24	23.580
542.43	23.444
542.63	23.300
542.82	23.642
543.02	24.091
543.21	24.015
543.41	23.732
543.60	24.088
543.80	24.031
543.99	23.860
544.19	23.818
544.38	24.137
544.58	24.018
544.77	24.045
544.97	23.932
545.16	24.070
545.36	24.314
545.56	24.668
545.75	24.093
545.95	24.159
546.14	24.540
546.34	24.391
546.53	24.052
546.73	23.677
546.92	24.023
547.12	24.093
547.31	24.575
547.51	24.344
547.70	24.463
547.90	24.446
548.09	24.596
548.29	24.711
548.48	24.598
548.68	24.887
548.87	24.699
549.07	25.008
549.26	25.107
549.46	25.020
549.65	25.154
549.84	25.485
550.04	24.664
550.23	25.323
550.43	25.034
550.62	25.100
550.82	25.423
551.01	25.407
551.21	25.509
551.40	25.107
551.60	25.216
551.79	25.074
551.99	25.552
552.18	25.602
552.38	25.261
552.57	25.754
552.77	25.656
552.96	25.587
553.16	25.639
553.35	25.809
553.54	25.784
553.74	26.057
553.93	25.483
554.13	26.179
554.32	26.140
554.52	26.319
554.71	26.420
554.91	26.297
555.10	26.911
555.29	26.077
555.49	27.016
555.68	26.289
555.88	26.592
556.07	26.936
556.27	27.380
556.46	27.027
556.66	27.069
556.85	27.152
557.04	26.541
557.24	27.636
557.43	27.422
557.63	27.149
557.82	27.780
558.02	27.119
558.21	27.970
558.40	27.960
558.60	27.699
558.79	28.281
558.99	27.167
559.18	27.521
559.38	27.887
559.57	28.265
559.76	28.288
559.96	28.440
560.15	28.346
560.35	28.452
560.54	28.743
560.73	28.122
560.93	28.478
561.12	28.877
561.32	28.318
561.51	28.743
561.70	28.945
561.90	28.753
562.09	29.494
562.29	28.638
562.48	29.006
562.67	29.363
562.87	29.303
563.06	29.486
563.26	29.290
563.45	29.606
563.64	29.126
563.84	30.122
564.03	29.945
564.23	29.578
564.42	29.914
564.61	29.732
564.81	29.786
565.00	29.868
565.20	30.244
565.39	30.248
565.58	30.296
565.78	29.996
565.97	30.402
566.16	30.232
566.36	30.320
566.55	30.933
566.74	30.310
566.94	30.916
567.13	30.991
567.33	31.036
567.52	30.871
567.71	31.150
567.91	30.883
568.10	31.577
568.29	31.291
568.49	31.506
568.68	31.626
568.87	31.242
569.07	31.601
569.26	31.745
569.45	31.847
569.65	32.022
569.84	31.648
570.04	31.349
570.23	31.909
570.42	31.819
570.62	32.250
570.81	31.992
571.00	31.816
571.20	32.617
571.39	31.642
571.58	32.233
571.78	31.725
571.97	32.519
572.16	32.297
572.36	31.933
572.55	32.600
572.74	32.430
572.94	32.200
573.13	32.570
573.32	32.368
573.51	32.762
573.71	33.000
573.90	32.646
574.09	32.641
574.29	32.777
574.48	32.555
574.67	33.310
574.87	33.063
575.06	32.983
575.25	32.570
575.45	32.702
575.64	32.764
575.83	32.956
576.03	33.289
576.22	33.336
576.41	32.516
576.60	33.167
576.80	32.756
576.99	33.432
577.18	33.432
577.38	34.097
577.57	33.498
577.76	33.937
577.95	33.228
578.15	32.996
578.34	33.405
578.53	33.316
578.73	33.235
578.92	33.374
579.11	33.759
579.30	34.138
579.50	33.187
579.69	33.338
579.88	33.673
580.08	33.191
580.27	33.662
580.46	33.495
580.65	33.793
580.85	34.586
581.04	33.616
581.23	34.231
581.42	33.815
581.62	34.108
581.81	32.969
582.00	33.718
582.19	32.914
582.39	33.352
582.58	33.160
582.77	33.516
582.96	33.996
583.16	33.402
583.35	33.817
583.54	33.231
583.73	34.361
583.93	33.682
584.12	33.276
584.31	33.894
584.50	33.553
584.70	33.312
584.89	33.080
585.08	33.301
585.27	33.752
585.47	33.509
585.66	33.143
585.85	33.353
586.04	33.781
586.24	33.068
586.43	33.414
586.62	33.794
586.81	33.132
587.00	33.747
587.20	33.241
587.39	33.556
587.58	32.740
587.77	33.373
587.97	33.727
588.16	33.059
588.35	33.017
588.54	32.497
588.73	32.682
588.93	33.507
589.12	33.151
589.31	33.121
589.50	32.998
589.69	33.491
589.89	33.403
590.08	32.801
590.27	33.289
590.46	33.278
590.65	33.476
590.85	33.162
591.04	33.586
591.23	33.171
591.42	33.041
591.61	32.352
591.81	32.815
592.00	33.682
592.19	33.941
592.38	33.623
592.57	33.763
592.77	33.416
592.96	33.483
593.15	33.651
593.34	33.732
593.53	34.508
593.72	33.126
593.92	33.504
594.11	33.816
594.30	33.702
594.49	33.485
594.68	33.851
594.87	33.905
595.07	33.713
595.26	33.970
595.45	34.049
595.64	33.649
595.83	33.599
596.02	33.388
596.22	32.890
596.41	34.346
596.60	33.636
596.79	34.106
596.98	34.157
597.17	34.100
597.37	34.110
597.56	34.265
597.75	34.305
597.94	34.248
598.13	33.711
598.32	33.592
598.51	34.283
598.71	34.112
598.90	34.216
599.09	34.066
599.28	35.017
599.47	35.161
599.66	34.653
599.85	34.941
600.05	35.077
600.24	35.676
600.43	34.628
600.62	35.153
600.81	35.126
601.00	35.494
601.19	35.789
601.38	36.231
601.58	35.446
601.77	34.977
601.96	34.980
602.15	36.985
602.34	35.385
602.53	35.587
602.72	34.897
602.91	35.318
603.10	35.879
603.30	35.409
603.49	35.666
603.68	35.585
603.87	34.604
604.06	35.676
604.25	35.438
604.44	35.732
604.63	35.559
604.82	34.870
605.01	35.666
605.21	35.305
605.40	35.509
605.59	35.224
605.78	35.530
605.97	35.647
606.16	35.338
606.35	35.951
606.54	36.079
606.73	35.552
606.92	37.015
607.11	35.896
607.30	35.957
607.50	36.106
607.69	35.918
607.88	35.308
608.07	35.792
608.26	36.437
608.45	35.658
608.64	35.580
608.83	35.474
609.02	36.042
609.21	35.416
609.40	34.774
609.59	35.092
609.78	34.632
609.97	35.194
610.16	35.182
610.35	35.291
610.55	34.437
610.74	34.356
610.93	34.515
611.12	34.889
611.31	35.294
611.50	34.826
611.69	34.662
611.88	35.839
612.07	34.747
612.26	34.803
612.45	35.260
612.64	35.180
612.83	34.479
613.02	34.969
613.21	34.752
613.40	35.187
613.59	34.646
613.78	34.915
613.97	34.256
614.16	34.614
614.35	34.602
614.54	34.896
614.73	34.796
614.92	34.895
615.11	34.299
615.30	33.634
615.49	33.157
615.68	33.859
615.87	33.798
616.07	33.279
616.26	33.649
616.45	33.424
616.64	34.232
616.83	34.222
617.02	33.947
617.21	33.609
617.40	33.279
617.59	32.846
617.78	33.231
617.97	32.482
618.16	33.176
618.35	33.304
618.54	33.447
618.73	32.774
618.92	33.738
619.11	32.455
619.30	33.439
619.49	32.450
619.68	32.772
619.86	32.776
620.05	33.234
620.24	32.837
620.43	33.217
620.62	32.995
620.81	33.216
621.00	32.982
621.19	33.385
621.38	32.426
621.57	32.600
621.76	32.659
621.95	31.731
622.14	32.357
622.33	31.908
622.52	32.011
622.71	31.812
622.90	32.123
623.09	32.288
623.28	31.552
623.47	31.835
623.66	32.368
623.85	31.695
624.04	31.515
624.23	32.347
624.42	32.578
624.61	32.085
624.80	32.371
624.99	31.100
625.18	31.462
625.36	31.421
625.55	32.318
625.74	31.464
625.93	31.960
626.12	31.677
626.31	31.892
626.50	32.291
626.69	31.495
626.88	31.002
627.07	31.972
627.26	31.980
627.45	31.199
627.64	31.369
627.83	30.891
628.02	31.310
628.20	31.329
628.39	30.382
628.58	31.731
628.77	31.696
628.96	31.526
629.15	31.329
629.34	31.496
629.53	31.735
629.72	31.947
629.91	31.118
630.10	31.868
630.29	31.590
630.47	30.930
630.66	30.849
630.85	31.498
631.04	31.795
631.23	31.803
631.42	30.775
631.61	31.546
631.80	31.025
631.99	30.934
632.18	31.329
632.36	31.823
632.55	31.270
632.74	31.511
632.93	30.664
633.12	30.825
633.31	30.253
633.50	31.311
633.69	31.464
633.88	30.754
634.06	31.400
634.25	31.172
634.44	30.498
634.63	30.746
634.82	30.889
635.01	31.114
635.20	30.681
635.39	30.906
635.57	30.039
635.76	30.807
635.95	30.811
636.14	30.436
636.33	31.459
636.52	30.671
636.71	31.359
636.89	30.954
637.08	30.141
637.27	31.437
637.46	31.426
637.65	30.098
637.84	30.976
638.03	30.821
638.21	30.183
638.40	30.744
638.59	31.853
638.78	30.733
638.97	30.590
639.16	30.779
639.34	30.313
639.53	30.436
639.72	30.828
639.91	31.086
640.10	30.551
640.29	31.700
640.47	31.407
640.66	30.665
640.85	31.626
641.04	29.942
641.23	30.514
641.42	30.600
641.60	29.911
641.79	30.259
641.98	31.101
642.17	29.951
642.36	31.050
642.54	30.458
642.73	31.040
642.92	30.254
643.11	30.969
643.30	30.215
643.49	31.099
643.67	30.069
643.86	31.498
644.05	30.609
644.24	29.918
644.43	29.645
644.61	31.322
644.80	30.435
644.99	30.962
645.18	30.961
645.37	30.728
645.55	30.758
645.74	30.373
645.93	30.037
646.12	30.297
646.31	30.239
646.49	30.189
646.68	30.141
646.87	30.751
647.06	29.836
647.24	30.887
647.43	30.904
647.62	31.570
647.81	29.795
648.00	31.047
648.18	30.103
648.37	30.202
648.56	31.184
648.75	30.645
648.93	30.976
649.12	29.289
649.31	29.160
649.50	30.982
649.68	29.337
649.87	29.620
650.06	29.578
650.25	30.147
650.43	29.773
650.62	29.708
650.81	29.664
651.00	30.658
651.18	30.209
651.37	30.728
651.56	28.775
651.75	30.006
651.93	28.748
652.12	29.551
652.31	29.572
652.50	29.983
652.68	28.925
652.87	30.246
653.06	29.272
653.25	30.818
653.43	30.210
653.62	29.275
653.81	29.360
654.00	29.769
654.18	29.307
654.37	29.585
654.56	27.848
654.74	30.029
654.93	28.600
655.12	29.823
655.31	29.076
655.49	29.648
655.68	28.897
655.87	28.612
656.05	27.462
656.24	28.086
656.43	27.754
656.62	28.279
656.80	27.343
656.99	28.415
657.18	27.161
657.36	27.831
657.55	27.738
657.74	27.943
657.93	27.526
658.11	28.434
658.30	27.095
658.49	26.436
658.67	26.225
658.86	26.996
659.05	26.097
659.23	26.615
659.42	25.176
659.61	26.115
659.79	26.132
659.98	25.982
660.17	26.012
660.35	26.859
660.54	25.985
660.73	26.378
660.91	25.906
661.10	24.992
661.29	24.778
661.47	26.236
661.66	24.214
661.85	25.670
662.03	25.521
662.22	25.462
662.41	23.277
662.59	24.054
662.78	24.228
662.97	24.776
663.15	23.181
663.34	23.315
663.53	22.818
663.71	23.200
663.90	22.665
664.09	24.000
664.27	22.596
664.46	22.941
664.65	23.041
664.83	22.075
665.02	21.528
665.21	22.328
665.39	21.024
665.58	21.676
665.77	20.871
665.95	22.577
666.14	21.421
666.32	21.661
666.51	20.912
666.70	23.126
666.88	20.751
667.07	21.384
667.26	19.292
667.44	21.317
667.63	21.703
667.81	21.014
668.00	19.368
668.19	22.005
668.37	20.596
668.56	21.607
668.75	20.321
668.93	21.974
669.12	20.573
669.30	22.209
669.49	20.799
669.68	22.171
669.86	20.738
670.05	21.683
670.23	20.066
670.42	21.621
670.61	21.591
670.79	21.490
670.98	20.477
671.16	21.495
671.35	20.907
671.54	21.972
671.72	20.797
671.91	20.976
672.09	20.532
672.28	22.229
672.46	21.860
672.65	22.201
672.84	22.085
673.02	23.200
673.21	20.483
673.39	22.306
673.58	21.605
673.77	22.204
673.95	22.086
674.14	23.336
674.32	21.986
674.51	23.241
674.69	20.809
674.88	22.317
675.07	20.634
675.25	23.787
675.44	22.329
675.62	24.393
675.81	21.844
675.99	24.682
676.18	23.130
676.36	24.261
676.55	21.207
676.74	24.703
676.92	23.423
677.11	22.991
677.29	21.912
677.48	25.240
677.66	24.046
677.85	23.604
678.03	22.236
678.22	23.996
678.40	23.677
678.59	23.825
678.78	22.511
678.96	24.813
679.15	22.674
679.33	25.557
679.52	23.654
679.70	24.494
679.89	25.335
680.07	24.209
680.26	23.608
680.44	25.161
680.63	24.393
680.81	24.868
681.00	23.947
681.18	25.041
681.37	24.970
681.55	24.745
681.74	25.694
681.92	26.959
682.11	25.428
682.29	25.668
682.48	25.812
682.66	26.384
682.85	26.730
683.03	27.351
683.22	26.961
683.40	27.819
683.59	27.210
683.77	27.192
683.96	25.948
684.14	28.260
684.33	26.696
684.51	29.024
684.70	27.413
684.88	29.269
685.07	28.922
685.25	28.924
685.44	29.060
685.62	29.805
685.81	27.919
685.99	31.312
686.18	28.964
686.36	31.383
686.55	29.721
686.73	31.788
686.92	30.473
687.10	32.241
687.29	32.074
687.47	32.227
687.65	31.360
687.84	33.090
688.02	32.667
688.21	34.054
688.39	32.859
688.58	34.410
688.76	33.118
688.95	34.893
689.13	32.319
689.32	35.065
689.50	34.832
689.68	35.647
689.87	34.321
690.05	36.968
690.24	36.186
690.42	37.138
690.61	37.463
690.79	37.403
690.98	37.351
691.16	39.944
691.34	38.310
691.53	40.335
691.71	39.365
691.90	42.067
692.08	39.091
692.27	43.109
692.45	43.340
692.63	43.076
692.82	44.812
693.00	45.078
693.19	42.828
693.37	43.033
693.56	43.428
693.74	47.475
693.92	45.568
694.11	47.269
694.29	46.688
694.48	49.175
694.66	49.003
694.84	49.848
695.03	47.956
695.21	49.724
695.40	50.683
695.58	52.465
695.76	51.207
695.95	51.596
696.13	52.978
696.32	52.886
696.50	55.443
696.68	54.742
696.87	52.406
697.05	55.301
697.24	55.844
697.42	54.532
697.60	55.461
697.79	55.839
697.97	55.740
698.16	55.436
698.34	56.060
698.52	54.320
698.71	56.662
698.89	55.444
699.07	54.891
699.26	56.649
699.44	57.008
699.63	55.461
699.81	55.739
699.99	57.937
700.18	56.546
700.36	57.041
700.54	57.911
700.73	57.905
700.91	59.352
701.09	59.056
701.28	60.584
701.46	60.191
701.64	59.922
701.83	62.299
702.01	61.677
702.20	61.764
702.38	62.602
702.56	62.089
702.75	62.975
702.93	64.370
703.11	64.804
703.30	66.528
703.48	66.760
703.66	66.190
703.85	66.324
704.03	68.720
704.21	67.496
704.40	67.403
704.58	67.490
704.76	67.830
704.95	68.090
705.13	68.095
705.31	69.509
705.50	69.952
705.68	66.959
705.86	70.431
706.04	68.387
706.23	70.694
706.41	67.622
706.59	69.598
706.78	70.871
706.96	69.728
707.14	70.951
707.33	70.601
707.51	69.724
707.69	69.951
707.88	69.761
708.06	70.951
708.24	69.450
708.42	72.375
708.61	69.483
708.79	69.837
708.97	72.448
709.16	71.863
709.34	72.118
709.52	71.373
709.71	72.546
709.89	70.260
710.07	69.610
710.25	72.253
710.44	70.959
710.62	72.225
710.80	70.717
710.98	73.476
711.17	70.220
711.35	70.069
711.53	70.428
711.72	72.279
711.90	72.750
712.08	71.164
712.26	72.949
712.45	70.719
712.63	73.702
712.81	70.627
712.99	72.332
713.18	71.435
713.36	71.433
713.54	73.000
713.72	71.528
713.91	72.324
714.09	69.395
714.27	73.580
714.45	74.867
714.64	73.487
714.82	73.045
715.00	72.561
715.18	73.754
715.37	73.339
715.55	71.633
715.73	73.221
715.91	72.899
716.10	73.960
716.28	71.647
716.46	73.275
716.64	71.094
716.83	73.131
717.01	71.863
717.19	73.345
717.37	71.833
717.55	72.429
717.74	73.719
717.92	70.310
718.10	73.011
718.28	74.058
718.47	72.592
718.65	74.098
718.83	75.273
719.01	72.732
719.19	75.064
719.38	72.229
719.56	74.121
719.74	75.358
719.92	70.997
720.10	74.539
720.29	74.365
720.47	75.660
720.65	73.736
720.83	75.610
721.01	73.945
721.20	75.934
721.38	73.533
721.56	74.735
721.74	76.501
721.92	77.067
722.11	74.448
722.29	75.673
722.47	76.763
722.65	74.683
722.83	74.799
723.01	78.961
723.20	74.977
723.38	76.897
723.56	73.777
723.74	75.331
723.92	75.738
724.10	76.153
724.29	76.417
724.47	75.734
724.65	76.862
724.83	75.934
725.01	73.806
725.19	77.606
725.38	73.661
725.56	74.538
725.74	77.407
725.92	77.941
726.10	75.096
726.28	79.534
726.46	75.957
726.65	78.795
726.83	74.734
727.01	79.905
727.19	76.836
727.37	75.980
727.55	75.379
727.73	77.246
727.92	75.444
728.10	75.989
728.28	73.255
728.46	76.857
728.64	77.246
728.82	76.050
729.00	74.346
729.19	75.330
729.37	75.686
729.55	77.650
729.73	74.209
729.91	75.026
730.09	77.111
730.27	76.316
730.45	77.343
730.63	76.540
730.82	75.127
731.00	76.613
731.18	73.238
731.36	78.186
731.54	74.923
731.72	75.156
731.90	76.756
732.08	76.811
732.26	78.755
732.45	78.035
732.63	76.645
732.81	79.411
732.99	78.542
733.17	78.160
733.35	76.324
733.53	75.760
733.71	75.165
733.89	80.271
734.07	75.873
734.25	80.012
734.44	77.117
734.62	77.300
734.80	80.416
734.98	79.130
735.16	80.004
735.34	77.889
735.52	79.450
735.70	82.115
735.88	79.691
736.06	79.247
736.24	81.409
736.42	82.649
736.60	79.899
736.78	82.630
736.97	80.115
737.15	81.571
737.33	82.682
737.51	81.304
737.69	81.245
737.87	80.791
738.05	80.571
738.23	84.305
738.41	83.126
738.59	81.753
738.77	81.389
738.95	82.903
739.13	83.834
739.31	80.068
739.49	81.675
739.67	81.704
739.85	80.482
740.03	81.311
740.21	80.257
740.39	82.858
740.57	83.296
740.75	83.075
740.93	82.403
741.11	78.602
741.30	81.424
741.48	81.187
741.66	82.104
741.84	83.966
742.02	79.212
742.20	83.734
742.38	80.011
742.56	81.718
742.74	83.319
742.92	85.177
743.10	84.450
743.28	81.565
743.46	84.322
743.64	85.682
743.82	84.694
744.00	82.716
744.18	83.903
744.36	86.651
744.54	84.235
744.72	87.122
744.90	83.378
745.08	84.585
745.26	86.359
745.44	86.129
745.62	89.390
745.80	84.877
745.98	87.251
746.16	85.639
746.34	80.598
746.52	86.170
746.70	85.574
746.87	86.836
747.05	85.520
747.23	87.026
747.41	85.556
747.59	85.871
747.77	85.847
747.95	85.483
748.13	87.623
748.31	85.322
748.49	83.970
748.67	88.119
748.85	86.250
749.03	85.977
749.21	83.114
749.39	89.275
749.57	84.761
749.75	81.318
749.93	84.651
750.11	87.295
750.29	88.536
750.47	83.658
750.65	85.723
750.83	84.831
751.01	80.320
751.18	83.798
751.36	82.338
751.54	83.445
751.72	80.255
751.90	86.141
752.08	86.795
752.26	85.878
752.44	83.123
752.62	82.875
752.80	82.052
752.98	87.544
753.16	87.207
753.34	82.920
753.52	86.407
753.69	84.174
753.87	82.285
754.05	87.351
754.23	85.824
754.41	86.394
754.59	86.422
754.77	87.800
754.95	85.221
755.13	84.381
755.31	88.621
755.49	84.153
755.66	84.753
755.84	85.714
756.02	84.026
756.20	85.370
756.38	84.476
756.56	82.040
756.74	80.589
756.92	83.436
757.10	84.330
757.28	86.019
757.45	87.868
757.63	81.876
757.81	84.608
757.99	84.384
758.17	87.159
758.35	86.116
758.53	83.756
758.71	84.445
758.88	83.977
759.06	81.350
759.24	81.801
759.42	79.711
759.60	78.890
759.78	79.012
759.96	74.205
760.13	75.677
760.31	71.304
760.49	72.031
760.67	70.444
760.85	71.704
761.03	70.110
761.21	74.237
761.38	71.961
761.56	76.115
761.74	70.378
761.92	77.410
762.10	71.681
762.28	73.997
762.46	73.427
762.63	74.131
762.81	73.447
762.99	70.356
763.17	71.321
763.35	73.613
763.53	70.274
763.70	73.770
763.88	72.474
764.06	72.537
764.24	70.572
764.42	74.101
764.60	70.989
764.77	72.149
764.95	69.928
765.13	71.388
765.31	71.870
765.49	71.354
765.66	71.627
765.84	74.511
766.02	75.000
766.20	74.156
766.38	73.987
766.56	76.215
766.73	74.678
766.91	77.982
767.09	76.746
767.27	78.987
767.45	77.030
767.62	79.930
767.80	77.818
767.98	79.853
768.16	79.467
768.33	85.094
768.51	81.885
768.69	85.171
768.87	79.092
769.05	84.211
769.22	83.799
769.40	86.576
769.58	78.824
769.76	84.814
769.94	84.186
770.11	81.665
770.29	85.781
770.47	84.479
770.65	84.588
770.82	86.970
771.00	83.639
771.18	85.636
771.36	84.721
771.53	84.974
771.71	81.671
771.89	89.431
772.07	85.989
772.25	88.083
772.42	85.234
772.60	85.820
772.78	83.807
772.96	87.505
773.13	83.076
773.31	81.149
773.49	86.971
773.67	90.414
773.84	86.480
774.02	88.114
774.20	87.214
774.37	88.792
774.55	85.630
774.73	85.306
774.91	90.347
775.08	86.017
775.26	87.688
775.44	91.340
775.62	87.813
775.79	91.875
775.97	88.642
776.15	84.143
776.32	87.427
776.50	92.573
776.68	89.762
776.86	89.951
777.03	86.228
777.21	91.011
777.39	86.980
777.56	89.090
777.74	87.149
777.92	84.795
778.10	87.519
778.27	89.118
778.45	88.295
778.63	84.731
778.80	84.431
778.98	84.928
779.16	87.618
779.34	90.159
779.51	85.320
779.69	88.140
779.87	85.021
780.04	87.119
780.22	79.348
780.40	86.500
780.57	83.834
780.75	87.607
780.93	92.958
781.10	88.050
781.28	94.427
781.46	87.846
781.63	87.355
781.81	92.165
781.99	84.086
782.16	87.884
782.34	86.180
782.52	86.231
782.69	82.295
782.87	88.254
783.05	85.957
783.22	86.020
783.40	86.374
783.58	88.799
783.75	83.052
783.93	95.385
784.11	84.313
784.28	86.095
784.46	83.259
784.64	84.632
784.81	84.501
784.99	87.827
785.17	88.575
785.34	83.838
785.52	83.372
785.69	85.383
785.87	85.291
786.05	82.896
786.22	82.289
786.40	95.058
786.58	86.337
786.75	86.191
786.93	83.901
787.11	88.358
787.28	83.094
787.46	87.868
787.63	85.588
787.81	89.809
787.99	87.850
788.16	86.393
788.34	82.041
788.51	82.916
788.69	85.482
788.87	82.895
789.04	76.348
789.22	84.450
789.39	76.362
789.57	79.195
789.75	79.870
789.92	80.282
790.10	80.184
790.27	75.822
790.45	80.748
790.63	81.107
790.80	78.494
790.98	83.874
791.15	79.741
791.33	82.601
791.51	79.621
791.68	79.820
791.86	86.632
792.03	84.607
792.21	80.456
792.39	82.683
792.56	81.024
792.74	84.214
792.91	83.304
793.09	83.384
793.26	85.473
793.44	82.114
793.62	87.835
793.79	89.956
793.97	75.726
794.14	80.301
794.32	83.997
794.49	87.091
794.67	82.790
794.84	81.710
795.02	80.232
795.20	81.718
795.37	82.279
795.55	80.422
795.72	77.405
795.90	86.330
796.07	79.463
796.25	82.611
796.42	81.406
796.60	83.247
796.77	77.626
796.95	85.403
797.13	74.534
797.30	79.225
797.48	79.784
797.65	83.399
797.83	81.530
798.00	83.686
798.18	75.278
798.35	81.708
798.53	82.691
798.70	84.744
798.88	78.563
799.05	79.125
799.23	76.585
799.40	79.920
799.58	79.777
799.75	82.397
799.93	75.014
800.10	80.405
800.28	78.558
800.45	80.606
800.63	70.259
800.80	81.928
800.98	77.011
801.15	77.615
801.33	78.076
801.50	83.302
801.68	77.424
801.85	84.436
802.03	77.057
802.20	80.934
802.38	80.903
802.55	82.993
802.73	80.168
802.90	85.361
803.08	81.999
803.25	79.477
803.43	79.029
803.60	83.132
803.78	75.486
803.95	86.977
804.13	83.842
804.30	81.818
804.48	77.009
804.65	85.724
804.83	82.275
805.00	81.831
805.17	74.067
805.35	75.938
805.52	77.842
805.70	80.499
805.87	77.462
806.05	83.094
806.22	76.852
806.40	83.490
806.57	79.145
806.75	81.565
806.92	78.377
807.09	82.160
807.27	84.950
807.44	81.037
807.62	69.236
807.79	82.388
807.97	73.033
808.14	81.561
808.31	76.042
808.49	77.147
808.66	81.791
808.84	78.766
809.01	78.936
809.19	82.145
809.36	82.506
809.53	82.880
809.71	81.293
809.88	87.799
810.06	81.487
810.23	86.772
810.41	80.059
810.58	82.537
810.75	78.120
810.93	85.959
811.10	79.354
811.28	74.398
811.45	78.236
811.62	79.738
811.80	75.039
811.97	77.574
812.15	82.317
812.32	77.009
812.49	77.482
812.67	76.508
812.84	75.202
813.02	82.707
813.19	72.397
813.36	87.218
813.54	65.640
813.71	81.826
813.89	72.877
814.06	79.921
814.23	77.815
814.41	70.384
814.58	75.941
814.75	79.247
814.93	71.326
815.10	73.672
815.28	65.495
815.45	74.566
815.62	76.318
815.80	69.021
815.97	69.454
816.14	74.204
816.32	76.538
816.49	71.657
816.66	73.623
816.84	65.169
817.01	64.144
817.18	72.504
817.36	66.752
817.53	72.104
817.71	57.571
817.88	73.502
818.05	70.460
818.23	72.209
818.40	60.645
818.57	66.232
818.75	59.165
818.92	70.170
819.09	71.113
819.27	64.723
819.44	71.579
819.61	74.201
819.79	66.690
819.96	73.656
820.13	66.859
820.31	69.383
820.48	73.547
820.65	67.304
820.82	63.454
821.00	68.960
821.17	64.789
821.34	65.798
821.52	65.163
821.69	68.147
821.86	69.129
822.04	70.456
822.21	67.985
822.38	69.486
822.56	69.015
822.73	66.567
822.90	68.186
823.07	67.054
823.25	67.426
823.42	67.661
823.59	66.230
823.77	67.192
823.94	66.195
824.11	65.773
824.29	69.219
824.46	67.509
824.63	67.042
824.80	68.259
824.98	67.041
825.15	67.614
825.32	66.140
825.49	71.325
825.67	67.590
825.84	71.237
826.01	68.494
826.19	68.125
826.36	68.873
826.53	70.003
826.70	67.088
826.88	69.437
827.05	69.157
827.22	70.039
827.39	66.612
827.57	67.138
827.74	68.267
827.91	71.800
828.08	65.515
828.26	68.758
828.43	68.519
828.60	69.112
828.77	67.031
828.95	70.567
829.12	68.775
829.29	64.343
829.46	67.452
829.64	65.694
829.81	65.091
829.98	74.176
830.15	69.256
830.32	68.937
830.50	60.915
830.67	69.720
830.84	64.499
831.01	61.744
831.19	61.147
831.36	67.694
831.53	72.763
831.70	72.610
831.87	71.714
832.05	65.718
832.22	67.367
832.39	65.308
832.56	61.229
832.74	75.366
832.91	63.326
833.08	70.255
833.25	58.197
833.42	65.873
833.60	64.495
833.77	58.830
833.94	62.876
834.11	69.275
834.28	65.893
834.45	66.557
834.63	62.403
834.80	67.583
834.97	67.057
835.14	68.770
835.31	67.404
835.49	66.582
835.66	65.640
835.83	67.816
836.00	63.703
836.17	69.095
836.34	61.816
836.52	74.118
836.69	63.998
836.86	69.462
837.03	65.620
837.20	67.175
837.37	62.265
837.55	66.078
837.72	64.272
837.89	67.092
838.06	71.475
838.23	72.167
838.40	65.403
838.58	66.817
838.75	58.824
838.92	81.174
839.09	79.530
839.26	73.939
839.43	78.875
839.60	80.365
839.78	76.008
839.95	80.446
840.12	78.346
840.29	87.458
840.46	68.281
840.63	80.467
840.80	66.270
840.98	68.655
841.15	73.574
841.32	70.636
841.49	61.994
841.66	67.656
841.83	66.325
842.00	65.153
842.17	64.413
842.34	60.398
842.52	78.424
842.69	78.864
842.86	70.045
843.03	91.648
843.20	76.184
843.37	73.923
843.54	77.887
843.71	73.752
843.88	81.481
844.06	84.306
844.23	85.816
844.40	82.040
844.57	78.743
844.74	84.753
844.91	92.611
845.08	86.446
845.25	80.667
845.42	90.291
845.59	80.717
845.76	79.204
845.94	100.731
846.11	90.574
846.28	91.322
846.45	96.825
846.62	90.776
846.79	67.075
846.96	98.434
847.13	89.465
847.30	101.975
847.47	73.097
847.64	76.381
847.81	90.418
847.98	88.544
848.15	113.470
848.32	100.549
848.50	89.703
848.67	81.370
848.84	92.043
849.01	87.582
849.18	107.930
849.35	126.496
849.52	122.014
849.69	83.948
849.86	90.459
850.03	98.413
850.20	100.000
850.37	86.139
850.54	99.603
850.71	98.403
850.88	78.416
851.05	82.875
851.22	123.274
851.39	104.938
851.56	67.961
851.73	100.205
851.90	104.100
852.07	97.476
852.24	86.947
852.41	77.234
852.58	107.191
852.75	85.238
852.92	89.819
853.09	105.300
853.26	142.236
853.43	90.112
853.60	112.778
853.77	95.444
853.94	100.000
854.11	94.715
854.28	113.302
854.45	90.323
854.62	100.228
854.79	109.956
854.96	91.349
855.13	81.360
855.30	118.684
855.47	101.397
855.64	93.228
855.81	99.773
855.98	117.895
856.15	106.468
856.32	109.375
856.49	117.549
856.66	110.575
856.83	97.416
857.00	103.864
857.17	107.005
857.34	86.192
857.51	99.506
857.68	95.050
857.85	78.926
858.02	121.505
858.19	86.848
858.36	96.970
858.53	91.019
858.70	92.029
858.87	130.091
859.04	83.051
859.21	76.866
859.38	104.232
859.55	105.393
859.72	103.218
859.89	111.929
860.05	93.503
860.22	123.058
860.39	89.572
860.56	83.656
860.73	93.237
860.90	101.440
861.07	124.256
861.24	98.966
861.41	109.946
861.58	94.236
861.75	107.692
861.92	121.196
862.09	88.521
862.26	103.066
862.43	129.412
862.59	89.501
862.76	109.227
862.93	130.400
863.10	92.857
863.27	92.348
863.44	99.744
863.61	93.899
863.78	89.928
863.95	115.203
864.12	99.569
864.29	109.969
864.45	90.851
864.62	94.457
864.79	90.860
864.96	99.770
865.13	78.043
865.30	82.887
865.47	93.506
865.64	119.149
865.81	92.737
865.97	87.045
866.14	100.820
866.31	103.836
866.48	109.483
866.65	91.241
866.82	92.875
866.99	94.203
867.16	69.048
867.33	112.329
867.49	92.399
867.66	98.357
867.83	100.484
868.00	89.544
868.17	87.638
868.34	103.989
868.51	90.864
868.67	100.000
868.84	97.701
869.01	91.957
869.18	103.966
869.35	107.440
869.52	75.638
869.69	129.573
869.85	110.914
870.02	70.390
870.19	107.317
870.36	115.166
870.53	100.000
870.70	96.259
870.86	89.091
871.03	109.181
871.20	111.176
871.37	110.811
871.54	95.789
871.71	90.709
871.87	95.989
872.04	87.712
872.21	69.375
872.38	105.053
872.55	76.942
872.72	86.557
872.88	101.327
873.05	88.143
873.22	82.169
873.39	83.752
873.56	101.244
873.72	82.740
873.89	89.421
874.06	84.555
874.23	114.815
874.40	86.548
874.56	101.931
874.73	105.593
874.90	86.085
875.07	102.078
875.24	89.726
875.40	88.961
875.57	105.967
875.74	82.299
875.91	87.719
876.08	74.165
876.24	123.445
876.41	89.542
876.58	106.133
876.75	85.042
876.92	76.903
877.08	101.111
877.25	74.885
877.42	91.595
877.59	91.874
877.75	95.868
877.92	71.795
878.09	78.960
878.26	95.685
878.42	67.216
878.59	118.765
878.76	87.805
878.93	102.966
879.09	76.417
879.26	82.150
879.43	86.728
879.60	85.427
879.76	90.179
879.93	76.342
880.10	67.823
880.27	67.729
880.43	62.818
880.60	75.475
880.77	67.183
880.94	66.475
881.10	48.853
881.27	65.330
881.44	45.356
881.61	61.909
881.77	55.752
881.94	56.107
882.11	49.162
882.28	54.280
882.44	55.779
882.61	59.248
882.78	58.881
882.94	63.336
883.11	58.340
883.28	61.961
883.45	62.462
883.61	59.312
883.78	57.903
883.95	65.705
884.11	59.047
884.28	61.636
>>>>>End Processed Spectral Data<<<<<
